# field on trajectory
# s[mm] rx[mm] ry[mm] rz[mm] bx[T] by[T] bz[T]
0.0000000000000000e+00 +8.3650000000000002e+00 +0.0000000000000000e+00 +0.0000000000000000e+00 -2.8907838841570516e-02 -5.5308281559816708e-01 +5.4680649372723352e-03
5.0000000000000003e-02 +8.3649999311467109e+00 +0.0000000000000000e+00 +4.9999999999936789e-02 -2.8907849274203267e-02 -5.5308292790499469e-01 +5.4670908974877690e-03
1.0000000000000001e-01 +8.3649997245868093e+00 +0.0000000000000000e+00 +9.9999999999494313e-02 -2.8907883940708614e-02 -5.5308345280310101e-01 +5.4661183298715301e-03
1.5000000000000002e-01 +8.3649993803201639e+00 +0.0000000000000000e+00 +1.4999999999829330e-01 -2.8907942745399276e-02 -5.5308438942683003e-01 +5.4651473417913930e-03
2.0000000000000001e-01 +8.3649988983465402e+00 +0.0000000000000000e+00 +1.9999999999595452e-01 -2.8908025592589450e-02 -5.5308573691054552e-01 +5.4641780406151719e-03
2.5000000000000000e-01 +8.3649982786656043e+00 +0.0000000000000000e+00 +2.4999999999209868e-01 -2.8908132386594721e-02 -5.5308749438862836e-01 +5.4632105337107054e-03
2.9999999999999999e-01 +8.3649975212769174e+00 +0.0000000000000000e+00 +2.9999999998634652e-01 -2.8908263031732110e-02 -5.5308966099548074e-01 +5.4622449284459137e-03
3.4999999999999998e-01 +8.3649966261799413e+00 +0.0000000000000000e+00 +3.4999999997831871e-01 -2.8908417432319960e-02 -5.5309223586552103e-01 +5.4612813321887914e-03
3.9999999999999997e-01 +8.3649955933740348e+00 +0.0000000000000000e+00 +3.9999999996763602e-01 -2.8908595492677935e-02 -5.5309521813318896e-01 +5.4603198523074338e-03
4.4999999999999996e-01 +8.3649944228584552e+00 +0.0000000000000000e+00 +4.4999999995391915e-01 -2.8908797117126964e-02 -5.5309860693294111e-01 +5.4593605961700672e-03
4.9999999999999994e-01 +8.3649931146323588e+00 +0.0000000000000000e+00 +4.9999999993678879e-01 -2.8909022209989182e-02 -5.5310240139925360e-01 +5.4584036711450455e-03
5.4999999999999993e-01 +8.3649916686948007e+00 +0.0000000000000000e+00 +5.4999999991586557e-01 -2.8909270675587920e-02 -5.5310660066662021e-01 +5.4574491846008828e-03
5.9999999999999998e-01 +8.3649900850447345e+00 +0.0000000000000000e+00 +5.9999999989077024e-01 -2.8909542418247672e-02 -5.5311120386955426e-01 +5.4564972439062791e-03
6.5000000000000002e-01 +8.3649883636810145e+00 +0.0000000000000000e+00 +6.4999999986112345e-01 -2.8909837342293989e-02 -5.5311621014258694e-01 +5.4555479564301190e-03
7.0000000000000007e-01 +8.3649865046023955e+00 +0.0000000000000000e+00 +6.9999999982654593e-01 -2.8910155352053511e-02 -5.5312161862026732e-01 +5.4546014295415099e-03
7.5000000000000011e-01 +8.3649845078075309e+00 +0.0000000000000000e+00 +7.4999999978665821e-01 -2.8910496351853908e-02 -5.5312742843716367e-01 +5.4536577706097893e-03
8.0000000000000016e-01 +8.3649823732949731e+00 +0.0000000000000000e+00 +7.9999999974108094e-01 -2.8910860246023826e-02 -5.5313363872786181e-01 +5.4527170870045539e-03
8.5000000000000020e-01 +8.3649801010631766e+00 +0.0000000000000000e+00 +8.4999999968943474e-01 -2.8911246938892809e-02 -5.5314024862696565e-01 +5.4517794860956658e-03
9.0000000000000024e-01 +8.3649776911104947e+00 +0.0000000000000000e+00 +8.9999999963134025e-01 -2.8911656334791341e-02 -5.5314725726909764e-01 +5.4508450752532786e-03
9.5000000000000029e-01 +8.3649751434351831e+00 +0.0000000000000000e+00 +9.4999999956641790e-01 -2.8912088338050718e-02 -5.5315466378889755e-01 +5.4499139618478546e-03
1.0000000000000002e+00 +8.3649724580353979e+00 +0.0000000000000000e+00 +9.9999999949428831e-01 -2.8912542853003105e-02 -5.5316246732102392e-01 +5.4489862532501919e-03
1.0500000000000003e+00 +8.3649696349091958e+00 +0.0000000000000000e+00 +1.0499999994145721e+00 -2.8913019783981402e-02 -5.5317066700015205e-01 +5.4480620568314268e-03
1.1000000000000003e+00 +8.3649666740545356e+00 +0.0000000000000000e+00 +1.0999999993268896e+00 -2.8913519035319246e-02 -5.5317926196097589e-01 +5.4471414799630658e-03
1.1500000000000004e+00 +8.3649635754692770e+00 +0.0000000000000000e+00 +1.1499999992308616e+00 -2.8914040511350964e-02 -5.5318825133820693e-01 +5.4462246300170016e-03
1.2000000000000004e+00 +8.3649603391511835e+00 +0.0000000000000000e+00 +1.1999999991261083e+00 -2.8914584116411533e-02 -5.5319763426657376e-01 +5.4453116143655302e-03
1.2500000000000004e+00 +8.3649569650979174e+00 +0.0000000000000000e+00 +1.2499999990122501e+00 -2.8915149754836552e-02 -5.5320740988082295e-01 +5.4444025403813700e-03
1.3000000000000005e+00 +8.3649534533070451e+00 +0.0000000000000000e+00 +1.2999999988889075e+00 -2.8915737330962157e-02 -5.5321757731571841e-01 +5.4434975154376780e-03
1.3500000000000005e+00 +8.3649498037760353e+00 +0.0000000000000000e+00 +1.3499999987557010e+00 -2.8916346749125049e-02 -5.5322813570604201e-01 +5.4425966469080810e-03
1.4000000000000006e+00 +8.3649460165022589e+00 +0.0000000000000000e+00 +1.3999999986122507e+00 -2.8916977913662382e-02 -5.5323908418659240e-01 +5.4417000421666797e-03
1.4500000000000006e+00 +8.3649420914829911e+00 +0.0000000000000000e+00 +1.4499999984581771e+00 -2.8917630728911761e-02 -5.5325042189218521e-01 +5.4408078085880704e-03
1.5000000000000007e+00 +8.3649380287154074e+00 +0.0000000000000000e+00 +1.4999999982931005e+00 -2.8918305099211183e-02 -5.5326214795765394e-01 +5.4399200535473731e-03
1.5500000000000007e+00 +8.3649338281965893e+00 +0.0000000000000000e+00 +1.5499999981166410e+00 -2.8919000928899059e-02 -5.5327426151784886e-01 +5.4390368844202397e-03
1.6000000000000008e+00 +8.3649294899235205e+00 +0.0000000000000000e+00 +1.5999999979284190e+00 -2.8919718122314052e-02 -5.5328676170763780e-01 +5.4381584085828804e-03
1.6500000000000008e+00 +8.3649250138930888e+00 +0.0000000000000000e+00 +1.6499999977280546e+00 -2.8920456583795141e-02 -5.5329964766190476e-01 +5.4372847334120808e-03
1.7000000000000008e+00 +8.3649204001020863e+00 +0.0000000000000000e+00 +1.6999999975151681e+00 -2.8921216217681539e-02 -5.5331291851555142e-01 +5.4364159662852133e-03
1.7500000000000009e+00 +8.3649156485472087e+00 +0.0000000000000000e+00 +1.7499999972893796e+00 -2.8921996928312654e-02 -5.5332657340349600e-01 +5.4355522145802717e-03
1.8000000000000009e+00 +8.3649107592250562e+00 +0.0000000000000000e+00 +1.7999999970503091e+00 -2.8922798620028053e-02 -5.5334061146067326e-01 +5.4346935856758698e-03
1.8500000000000010e+00 +8.3649057321321330e+00 +0.0000000000000000e+00 +1.8499999967975767e+00 -2.8923621197167414e-02 -5.5335503182203560e-01 +5.4338401869512831e-03
1.9000000000000010e+00 +8.3649005672648489e+00 +0.0000000000000000e+00 +1.8999999965308023e+00 -2.8924464564070478e-02 -5.5336983362255043e-01 +5.4329921257864474e-03
1.9500000000000011e+00 +8.3648952646195198e+00 +0.0000000000000000e+00 +1.9499999962496060e+00 -2.8925328625077039e-02 -5.5338501599720369e-01 +5.4321495095619879e-03
2.0000000000000009e+00 +8.3648898241923639e+00 +0.0000000000000000e+00 +1.9999999959536077e+00 -2.8926213284526874e-02 -5.5340057808099619e-01 +5.4313124456592411e-03
2.0500000000000007e+00 +8.3648842459795087e+00 +0.0000000000000000e+00 +2.0499999956424273e+00 -2.8927118463533474e-02 -5.5341651875751485e-01 +5.4304810329501938e-03
2.1000000000000005e+00 +8.3648785299769841e+00 +0.0000000000000000e+00 +2.0999999953156845e+00 -2.8928044150305855e-02 -5.5343283590463455e-01 +5.4296553362671663e-03
2.1500000000000004e+00 +8.3648726761807275e+00 +0.0000000000000000e+00 +2.1499999949729993e+00 -2.8928990349827977e-02 -5.5344952714881224e-01 +5.4288354119328055e-03
2.2000000000000002e+00 +8.3648666845865840e+00 +0.0000000000000000e+00 +2.1999999946139916e+00 -2.8929957067085302e-02 -5.5346659011651822e-01 +5.4280213162701393e-03
2.2500000000000000e+00 +8.3648605551903046e+00 +0.0000000000000000e+00 +2.2499999942382809e+00 -2.8930944307064700e-02 -5.5348402243423556e-01 +5.4272131056025616e-03
2.2999999999999998e+00 +8.3648542879875478e+00 +0.0000000000000000e+00 +2.2999999938454869e+00 -2.8931952074754571e-02 -5.5350182172845952e-01 +5.4264108362538314e-03
2.3499999999999996e+00 +8.3648478829738853e+00 +0.0000000000000000e+00 +2.3499999934352291e+00 -2.8932980375144846e-02 -5.5351998562569826e-01 +5.4256145645480694e-03
2.3999999999999995e+00 +8.3648413401447925e+00 +0.0000000000000000e+00 +2.3999999930071270e+00 -2.8934029213227051e-02 -5.5353851175247093e-01 +5.4248243468097510e-03
2.4499999999999993e+00 +8.3648346594956564e+00 +0.0000000000000000e+00 +2.4499999925608003e+00 -2.8935098593994395e-02 -5.5355739773530932e-01 +5.4240402393637144e-03
2.4999999999999991e+00 +8.3648278410217767e+00 +0.0000000000000000e+00 +2.4999999920958684e+00 -2.8936188522441744e-02 -5.5357664120075700e-01 +5.4232622985351340e-03
2.5499999999999989e+00 +8.3648208847183607e+00 +0.0000000000000000e+00 +2.5499999916119509e+00 -2.8937299003565724e-02 -5.5359623977536820e-01 +5.4224905806495426e-03
2.5999999999999988e+00 +8.3648137905805289e+00 +0.0000000000000000e+00 +2.5999999911086671e+00 -2.8938430042364745e-02 -5.5361619108570825e-01 +5.4217251420328157e-03
2.6499999999999986e+00 +8.3648065586033145e+00 +0.0000000000000000e+00 +2.6499999905856364e+00 -2.8939581643839044e-02 -5.5363649275835380e-01 +5.4209660390111547e-03
2.6999999999999984e+00 +8.3647991887816637e+00 +0.0000000000000000e+00 +2.6999999900424778e+00 -2.8940753812990733e-02 -5.5365714241989161e-01 +5.4202133279111081e-03
2.7499999999999982e+00 +8.3647916811104341e+00 +0.0000000000000000e+00 +2.7499999894788107e+00 -2.8941946554823864e-02 -5.5367813769691887e-01 +5.4194670650595488e-03
2.7999999999999980e+00 +8.3647840355843996e+00 +0.0000000000000000e+00 +2.7999999888942542e+00 -2.8943159874344478e-02 -5.5369947621604299e-01 +5.4187273067836834e-03
2.8499999999999979e+00 +8.3647762521982472e+00 +0.0000000000000000e+00 +2.8499999882884275e+00 -2.8944393776560589e-02 -5.5372115560388080e-01 +5.4179941094110286e-03
2.8999999999999977e+00 +8.3647683309465783e+00 +0.0000000000000000e+00 +2.8999999876609492e+00 -2.8945648266482323e-02 -5.5374317348705926e-01 +5.4172675292694381e-03
2.9499999999999975e+00 +8.3647602718239114e+00 +0.0000000000000000e+00 +2.9499999870114388e+00 -2.8946923349121904e-02 -5.5376552749221386e-01 +5.4165476226870667e-03
2.9999999999999973e+00 +8.3647520748246809e+00 +0.0000000000000000e+00 +2.9999999863395148e+00 -2.8948219029493728e-02 -5.5378821524599009e-01 +5.4158344459923841e-03
3.0499999999999972e+00 +8.3647437399432381e+00 +0.0000000000000000e+00 +3.0499999856447966e+00 -2.8949535312614391e-02 -5.5381123437504143e-01 +5.4151280555141748e-03
3.0999999999999970e+00 +8.3647352671738506e+00 +0.0000000000000000e+00 +3.0999999849269027e+00 -2.8950872203502738e-02 -5.5383458250603079e-01 +5.4144285075815226e-03
3.1499999999999968e+00 +8.3647266565107063e+00 +0.0000000000000000e+00 +3.1499999841854516e+00 -2.8952229707179918e-02 -5.5385825726562798e-01 +5.4137358585238070e-03
3.1999999999999966e+00 +8.3647179079479113e+00 +0.0000000000000000e+00 +3.1999999834200623e+00 -2.8953607828669448e-02 -5.5388225628051235e-01 +5.4130501646707128e-03
3.2499999999999964e+00 +8.3647090214794915e+00 +0.0000000000000000e+00 +3.2499999826303534e+00 -2.8955006572997218e-02 -5.5390657717737091e-01 +5.4123714823522077e-03
3.2999999999999963e+00 +8.3646999970993896e+00 +0.0000000000000000e+00 +3.2999999818159433e+00 -2.8956425945191582e-02 -5.5393121758289698e-01 +5.4116998678985567e-03
3.3499999999999961e+00 +8.3646908348014719e+00 +0.0000000000000000e+00 +3.3499999809764502e+00 -2.8957865950283365e-02 -5.5395617512379258e-01 +5.4110353776403051e-03
3.3999999999999959e+00 +8.3646815345795229e+00 +0.0000000000000000e+00 +3.3999999801114931e+00 -2.8959326593305929e-02 -5.5398144742676614e-01 +5.4103780679082801e-03
3.4499999999999957e+00 +8.3646720964272525e+00 +0.0000000000000000e+00 +3.4499999792206899e+00 -2.8960807879295239e-02 -5.5400703211853319e-01 +5.4097279950335881e-03
3.4999999999999956e+00 +8.3646625203382889e+00 +0.0000000000000000e+00 +3.4999999783036593e+00 -2.8962309813289885e-02 -5.5403292682581562e-01 +5.4090852153476053e-03
3.5499999999999954e+00 +8.3646528063061858e+00 +0.0000000000000000e+00 +3.5499999773600193e+00 -2.8963832400331100e-02 -5.5405912917534139e-01 +5.4084497851819777e-03
3.5999999999999952e+00 +8.3646429543244203e+00 +0.0000000000000000e+00 +3.5999999763893880e+00 -2.8965375645462893e-02 -5.5408563679384548e-01 +5.4078217608686217e-03
3.6499999999999950e+00 +8.3646329643863915e+00 +0.0000000000000000e+00 +3.6499999753913834e+00 -2.8966939553732023e-02 -5.5411244730806763e-01 +5.4072011987397108e-03
3.6999999999999948e+00 +8.3646228364854256e+00 +0.0000000000000000e+00 +3.6999999743656238e+00 -2.8968524130188033e-02 -5.5413955834475381e-01 +5.4065881551276750e-03
3.7499999999999947e+00 +8.3646125706147707e+00 +0.0000000000000000e+00 +3.7499999733117271e+00 -2.8970129379883414e-02 -5.5416696753065509e-01 +5.4059826863652113e-03
3.7999999999999945e+00 +8.3646021667676038e+00 +0.0000000000000000e+00 +3.7999999722293110e+00 -2.8971755307873465e-02 -5.5419467249252741e-01 +5.4053848487852479e-03
3.8499999999999943e+00 +8.3645916249370273e+00 +0.0000000000000000e+00 +3.8499999711179931e+00 -2.8973401919216525e-02 -5.5422267085713239e-01 +5.4047946987209744e-03
3.8999999999999941e+00 +8.3645809451160691e+00 +0.0000000000000000e+00 +3.8999999699773915e+00 -2.8975069218973904e-02 -5.5425096025123510e-01 +5.4042122925058193e-03
3.9499999999999940e+00 +8.3645701272976876e+00 +0.0000000000000000e+00 +3.9499999688071235e+00 -2.8976757212209967e-02 -5.5427953830160559e-01 +5.4036376864734451e-03
3.9999999999999938e+00 +8.3645591714747649e+00 +0.0000000000000000e+00 +3.9999999676068070e+00 -2.8978465903992171e-02 -5.5430840263501802e-01 +5.4030709369577556e-03
4.0499999999999936e+00 +8.3645480776401175e+00 +0.0000000000000000e+00 +4.0499999663760597e+00 -2.8980195267693992e-02 -5.5433755078266111e-01 +5.4025121007193746e-03
4.0999999999999934e+00 +8.3645368457864855e+00 +0.0000000000000000e+00 +4.0999999651144980e+00 -2.8981945149901774e-02 -5.5436697989337069e-01 +5.4019612362252003e-03
4.1499999999999932e+00 +8.3645254759065431e+00 +0.0000000000000000e+00 +4.1499999638217409e+00 -2.8983715365503811e-02 -5.5439668702039480e-01 +5.4014184023690615e-03
4.1999999999999931e+00 +8.3645139679928953e+00 +0.0000000000000000e+00 +4.1999999624974045e+00 -2.8985505729387174e-02 -5.5442666921698314e-01 +5.4008836580452619e-03
4.2499999999999929e+00 +8.3645023220380761e+00 +0.0000000000000000e+00 +4.2499999611411061e+00 -2.8987316056437656e-02 -5.5445692353638631e-01 +5.4003570621485621e-03
4.2999999999999927e+00 +8.3644905380345520e+00 +0.0000000000000000e+00 +4.2999999597524630e+00 -2.8989146161539633e-02 -5.5448744703185682e-01 +5.3998386735741961e-03
4.3499999999999925e+00 +8.3644786159747238e+00 +0.0000000000000000e+00 +4.3499999583310922e+00 -2.8990995859576020e-02 -5.5451823675664680e-01 +5.3993285512178779e-03
4.3999999999999924e+00 +8.3644665558509264e+00 +0.0000000000000000e+00 +4.3999999568766102e+00 -2.8992864965428192e-02 -5.5454928976400941e-01 +5.3988267539757948e-03
4.4499999999999922e+00 +8.3644543576554273e+00 +0.0000000000000000e+00 +4.4499999553886349e+00 -2.8994753293975852e-02 -5.5458060310719692e-01 +5.3983333407446148e-03
4.4999999999999920e+00 +8.3644420213804320e+00 +0.0000000000000000e+00 +4.4999999538667819e+00 -2.8996660660096991e-02 -5.5461217383946260e-01 +5.3978483704214958e-03
4.5499999999999918e+00 +8.3644295470180783e+00 +0.0000000000000000e+00 +4.5499999523106691e+00 -2.8998586878667770e-02 -5.5464399901405859e-01 +5.3973719019040790e-03
4.5999999999999917e+00 +8.3644169345604436e+00 +0.0000000000000000e+00 +4.5999999507199121e+00 -2.9000531764562472e-02 -5.5467607568423571e-01 +5.3969039940904946e-03
4.6499999999999915e+00 +8.3644041839995413e+00 +0.0000000000000000e+00 +4.6499999490941279e+00 -2.9002495132653357e-02 -5.5470840090324458e-01 +5.3964447058793752e-03
4.6999999999999913e+00 +8.3643912953273230e+00 +0.0000000000000000e+00 +4.6999999474329330e+00 -2.9004476797810645e-02 -5.5474097172433368e-01 +5.3959940961698467e-03
4.7499999999999911e+00 +8.3643782685356811e+00 +0.0000000000000000e+00 +4.7499999457359436e+00 -2.9006476574902365e-02 -5.5477378520074960e-01 +5.3955522238615392e-03
4.7999999999999909e+00 +8.3643651036164446e+00 +0.0000000000000000e+00 +4.7999999440027770e+00 -2.9008494278794345e-02 -5.5480683838573808e-01 +5.3951191478545839e-03
4.8499999999999908e+00 +8.3643518005613835e+00 +0.0000000000000000e+00 +4.8499999422330484e+00 -2.9010529724350045e-02 -5.5484012833254115e-01 +5.3946949270496257e-03
4.8999999999999906e+00 +8.3643383593622094e+00 +0.0000000000000000e+00 +4.8999999404263743e+00 -2.9012582726430512e-02 -5.5487365209439921e-01 +5.3942796203478149e-03
4.9499999999999904e+00 +8.3643247800105769e+00 +0.0000000000000000e+00 +4.9499999385823701e+00 -2.9014653099894289e-02 -5.5490740672454875e-01 +5.3938732866508190e-03
4.9999999999999902e+00 +8.3643110624980803e+00 +0.0000000000000000e+00 +4.9999999367006529e+00 -2.9016740659597366e-02 -5.5494138927622416e-01 +5.3934759848608326e-03
5.0499999999999901e+00 +8.3642972068162607e+00 +0.0000000000000000e+00 +5.0499999347808373e+00 -2.9018845220393018e-02 -5.5497559680265585e-01 +5.3930877738805599e-03
5.0999999999999899e+00 +8.3642832129565985e+00 +0.0000000000000000e+00 +5.0999999328225405e+00 -2.9020966597131780e-02 -5.5501002635707020e-01 +5.3927087126132362e-03
5.1499999999999897e+00 +8.3642690809105247e+00 +0.0000000000000000e+00 +5.1499999308253770e+00 -2.9023104604661325e-02 -5.5504467499269006e-01 +5.3923388599626237e-03
5.1999999999999895e+00 +8.3642548106694115e+00 +0.0000000000000000e+00 +5.1999999287889631e+00 -2.9025259057826422e-02 -5.5507953976273272e-01 +5.3919782748330213e-03
5.2499999999999893e+00 +8.3642404022245778e+00 +0.0000000000000000e+00 +5.2499999267129143e+00 -2.9027429771468775e-02 -5.5511461772041182e-01 +5.3916270161292554e-03
5.2999999999999892e+00 +8.3642258555672910e+00 +0.0000000000000000e+00 +5.2999999245968459e+00 -2.9029616560427043e-02 -5.5514990591893631e-01 +5.3912851427567006e-03
5.3499999999999890e+00 +8.3642111706887636e+00 +0.0000000000000000e+00 +5.3499999224403734e+00 -2.9031819239536648e-02 -5.5518540141150907e-01 +5.3909527136212681e-03
5.3999999999999888e+00 +8.3641963475801600e+00 +0.0000000000000000e+00 +5.3999999202431122e+00 -2.9034037623629754e-02 -5.5522110125132673e-01 +5.3906297876294114e-03
5.4499999999999886e+00 +8.3641813862325911e+00 +0.0000000000000000e+00 +5.4499999180046768e+00 -2.9036271527535171e-02 -5.5525700249158194e-01 +5.3903164236881428e-03
5.4999999999999885e+00 +8.3641662866371185e+00 +0.0000000000000000e+00 +5.4999999157246826e+00 -2.9038520766078244e-02 -5.5529310218545958e-01 +5.3900126807050206e-03
5.5499999999999883e+00 +8.3641510487847537e+00 +0.0000000000000000e+00 +5.5499999134027451e+00 -2.9040785154080803e-02 -5.5532939738613885e-01 +5.3897186175881576e-03
5.5999999999999881e+00 +8.3641356726664604e+00 +0.0000000000000000e+00 +5.5999999110384788e+00 -2.9043064506361044e-02 -5.5536588514679175e-01 +5.3894342932462288e-03
5.6499999999999879e+00 +8.3641201582731544e+00 +0.0000000000000000e+00 +5.6499999086314991e+00 -2.9045358637733450e-02 -5.5540256252058351e-01 +5.3891597665884743e-03
5.6999999999999877e+00 +8.3641045055957033e+00 +0.0000000000000000e+00 +5.6999999061814197e+00 -2.9047667363008737e-02 -5.5543942656067191e-01 +5.3888950965246974e-03
5.7499999999999876e+00 +8.3640887146249288e+00 +0.0000000000000000e+00 +5.7499999036878560e+00 -2.9049990496993729e-02 -5.5547647432020708e-01 +5.3886403419652678e-03
5.7999999999999874e+00 +8.3640727853516079e+00 +0.0000000000000000e+00 +5.7999999011504224e+00 -2.9052327854491272e-02 -5.5551370285233059e-01 +5.3883955618211320e-03
5.8499999999999872e+00 +8.3640567177664717e+00 +0.0000000000000000e+00 +5.8499998985687336e+00 -2.9054679250300197e-02 -5.5555110921017692e-01 +5.3881608150038165e-03
5.8999999999999870e+00 +8.3640405118602068e+00 +0.0000000000000000e+00 +5.8999998959424031e+00 -2.9057044499215166e-02 -5.5558869044687120e-01 +5.3879361604254163e-03
