# field on trajectory
# s[mm] rx[mm] ry[mm] rz[mm] bx[T] by[T] bz[T]
0.0000000000000000e+00 +8.5269999999999992e+00 +0.0000000000000000e+00 +0.0000000000000000e+00 -2.8892360870636472e-02 -5.5225268042362763e-01 +5.4497480936666091e-03
5.0000000000000003e-02 +8.5269999307996667e+00 +0.0000000000000000e+00 +4.9999999999936151e-02 -2.8892467966180710e-02 -5.5225270751197464e-01 +5.4508576832915561e-03
1.0000000000000001e-01 +8.5269997231986494e+00 +0.0000000000000000e+00 +9.9999999999489220e-02 -2.8892590713890342e-02 -5.5225308996468514e-01 +5.4519744871746982e-03
1.5000000000000002e-01 +8.5269993771968515e+00 +0.0000000000000000e+00 +1.4999999999827610e-01 -2.8892729167013697e-02 -5.5225382724463368e-01 +5.4530984369184953e-03
2.0000000000000001e-01 +8.5269988927940883e+00 +0.0000000000000000e+00 +1.9999999999591367e-01 -2.8892883378799208e-02 -5.5225491881471134e-01 +5.4542294641256456e-03
2.5000000000000000e-01 +8.5269982699900861e+00 +0.0000000000000000e+00 +2.4999999999201886e-01 -2.8893053402495487e-02 -5.5225636413782520e-01 +5.4553675003990859e-03
2.9999999999999999e-01 +8.5269975087844827e+00 +0.0000000000000000e+00 +2.9999999998620858e-01 -2.8893239291351416e-02 -5.5225816267689876e-01 +5.4565124773419960e-03
3.4999999999999998e-01 +8.5269966091768268e+00 +0.0000000000000000e+00 +3.4999999997809966e-01 -2.8893441098616086e-02 -5.5226031389487196e-01 +5.4576643265577948e-03
3.9999999999999997e-01 +8.5269955711665801e+00 +0.0000000000000000e+00 +3.9999999996730906e-01 -2.8893658877538930e-02 -5.5226281725469994e-01 +5.4588229796501278e-03
4.4999999999999996e-01 +8.5269943947531139e+00 +0.0000000000000000e+00 +4.4999999995345363e-01 -2.8893892681369781e-02 -5.5226567221935496e-01 +5.4599883682228912e-03
4.9999999999999994e-01 +8.5269930799357141e+00 +0.0000000000000000e+00 +4.9999999993615024e-01 -2.8894142563358812e-02 -5.5226887825182502e-01 +5.4611604238802057e-03
5.4999999999999993e-01 +8.5269916267135777e+00 +0.0000000000000000e+00 +5.4999999991501569e-01 -2.8894408576756698e-02 -5.5227243481511379e-01 +5.4623390782264220e-03
5.9999999999999998e-01 +8.5269900350858130e+00 +0.0000000000000000e+00 +5.9999999988966690e-01 -2.8894690774814592e-02 -5.5227634137224080e-01 +5.4635242628661403e-03
6.5000000000000002e-01 +8.5269883050514395e+00 +0.0000000000000000e+00 +6.4999999985972079e-01 -2.8894989210784185e-02 -5.5228059738624236e-01 +5.4647159094041763e-03
7.0000000000000007e-01 +8.5269864366093930e+00 +0.0000000000000000e+00 +6.9999999982479411e-01 -2.8895303937917782e-02 -5.5228520232016942e-01 +5.4659139494455779e-03
7.5000000000000011e-01 +8.5269844297585173e+00 +0.0000000000000000e+00 +7.4999999978450360e-01 -2.8895635009468297e-02 -5.5229015563709061e-01 +5.4671183145956360e-03
8.0000000000000016e-01 +8.5269822844975725e+00 +0.0000000000000000e+00 +7.9999999973846614e-01 -2.8895982478689332e-02 -5.5229545680008885e-01 +5.4683289364598556e-03
8.5000000000000020e-01 +8.5269800008252297e+00 +0.0000000000000000e+00 +8.4999999968629858e-01 -2.8896346398835236e-02 -5.5230110527226284e-01 +5.4695457466439742e-03
9.0000000000000024e-01 +8.5269775787400732e+00 +0.0000000000000000e+00 +8.9999999962761768e-01 -2.8896726823161082e-02 -5.5230710051672793e-01 +5.4707686767539584e-03
9.5000000000000029e-01 +8.5269750182406003e+00 +0.0000000000000000e+00 +9.4999999956204018e-01 -2.8897123804922823e-02 -5.5231344199661492e-01 +5.4719976583959950e-03
1.0000000000000002e+00 +8.5269723193252229e+00 +0.0000000000000000e+00 +9.9999999948918272e-01 -2.8897537397377222e-02 -5.5232012917506978e-01 +5.4732326231765049e-03
1.0500000000000003e+00 +8.5269694819922641e+00 +0.0000000000000000e+00 +1.0499999994086622e+00 -2.8897967653781973e-02 -5.5232716151525507e-01 +5.4744735027021192e-03
1.1000000000000003e+00 +8.5269665062399618e+00 +0.0000000000000000e+00 +1.0999999993200953e+00 -2.8898414627395713e-02 -5.5233453848034797e-01 +5.4757202285797037e-03
1.1500000000000004e+00 +8.5269633920664667e+00 +0.0000000000000000e+00 +1.1499999992230985e+00 -2.8898878371478094e-02 -5.5234225953354155e-01 +5.4769727324163343e-03
1.2000000000000004e+00 +8.5269601394698462e+00 +0.0000000000000000e+00 +1.1999999991172887e+00 -2.8899358939289792e-02 -5.5235032413804463e-01 +5.4782309458193167e-03
1.2500000000000004e+00 +8.5269567484480771e+00 +0.0000000000000000e+00 +1.2499999990022825e+00 -2.8899856384092589e-02 -5.5235873175708172e-01 +5.4794948003961744e-03
1.3000000000000005e+00 +8.5269532189990525e+00 +0.0000000000000000e+00 +1.2999999988776965e+00 -2.8900370759149412e-02 -5.5236748185389206e-01 +5.4807642277546450e-03
1.3500000000000005e+00 +8.5269495511205804e+00 +0.0000000000000000e+00 +1.3499999987431472e+00 -2.8900902117724336e-02 -5.5237657389173112e-01 +5.4820391595026873e-03
1.4000000000000006e+00 +8.5269457448103818e+00 +0.0000000000000000e+00 +1.3999999985982512e+00 -2.8901450513082693e-02 -5.5238600733386922e-01 +5.4833195272484736e-03
1.4500000000000006e+00 +8.5269418000660924e+00 +0.0000000000000000e+00 +1.4499999984426251e+00 -2.8902015998491071e-02 -5.5239578164359260e-01 +5.4846052626003903e-03
1.5000000000000007e+00 +8.5269377168852625e+00 +0.0000000000000000e+00 +1.4999999982758854e+00 -2.8902598627217384e-02 -5.5240589628420189e-01 +5.4858962971670476e-03
1.5500000000000007e+00 +8.5269334952653573e+00 +0.0000000000000000e+00 +1.5499999980976487e+00 -2.8903198452530907e-02 -5.5241635071901407e-01 +5.4871925625572561e-03
1.6000000000000008e+00 +8.5269291352037584e+00 +0.0000000000000000e+00 +1.5999999979075312e+00 -2.8903815527702329e-02 -5.5242714441136065e-01 +5.4884939903800485e-03
1.6500000000000008e+00 +8.5269246366977587e+00 +0.0000000000000000e+00 +1.6499999977051496e+00 -2.8904449906003760e-02 -5.5243827682458846e-01 +5.4898005122446612e-03
1.7000000000000008e+00 +8.5269199997445693e+00 +0.0000000000000000e+00 +1.6999999974901203e+00 -2.8905101640708888e-02 -5.5244974742205999e-01 +5.4911120597605475e-03
1.7500000000000009e+00 +8.5269152243413160e+00 +0.0000000000000000e+00 +1.7499999972620597e+00 -2.8905770785092860e-02 -5.5246155566715216e-01 +5.4924285645373654e-03
1.8000000000000009e+00 +8.5269103104850394e+00 +0.0000000000000000e+00 +1.7999999970205838e+00 -2.8906457392432451e-02 -5.5247370102325755e-01 +5.4937499581849802e-03
1.8500000000000010e+00 +8.5269052581726950e+00 +0.0000000000000000e+00 +1.8499999967653091e+00 -2.8907161516006100e-02 -5.5248618295378360e-01 +5.4950761723134723e-03
1.9000000000000010e+00 +8.5269000674011561e+00 +0.0000000000000000e+00 +1.8999999964958521e+00 -2.8907883209093873e-02 -5.5249900092215265e-01 +5.4964071385331182e-03
1.9500000000000011e+00 +8.5268947381672096e+00 +0.0000000000000000e+00 +1.9499999962118286e+00 -2.8908622524977612e-02 -5.5251215439180235e-01 +5.4977427884544041e-03
2.0000000000000009e+00 +8.5268892704675583e+00 +0.0000000000000000e+00 +1.9999999959128552e+00 -2.8909379516940892e-02 -5.5252564282618510e-01 +5.4990830536880203e-03
2.0500000000000007e+00 +8.5268836642988237e+00 +0.0000000000000000e+00 +2.0499999955985477e+00 -2.8910154184231828e-02 -5.5253946541648902e-01 +5.5004278644186933e-03
2.1000000000000005e+00 +8.5268779196575402e+00 +0.0000000000000000e+00 +2.0999999952685227e+00 -2.8910946309950690e-02 -5.5255362026479871e-01 +5.5017771451266236e-03
2.1500000000000004e+00 +8.5268720365401620e+00 +0.0000000000000000e+00 +2.1499999949223958e+00 -2.8911755623161318e-02 -5.5256810520093214e-01 +5.5031308188658841e-03
2.2000000000000002e+00 +8.5268660149430584e+00 +0.0000000000000000e+00 +2.1999999945597835e+00 -2.8912581852928301e-02 -5.5258291805471926e-01 +5.5044888086905669e-03
2.2500000000000000e+00 +8.5268598548625167e+00 +0.0000000000000000e+00 +2.2499999941803015e+00 -2.8913424728317014e-02 -5.5259805665600237e-01 +5.5058510376547664e-03
2.2999999999999998e+00 +8.5268535562947427e+00 +0.0000000000000000e+00 +2.2999999937835658e+00 -2.8914283978393563e-02 -5.5261351883463616e-01 +5.5072174288125697e-03
2.3499999999999996e+00 +8.5268471192358621e+00 +0.0000000000000000e+00 +2.3499999933691926e+00 -2.8915159332224792e-02 -5.5262930242048613e-01 +5.5085879052180469e-03
2.3999999999999995e+00 +8.5268405436819208e+00 +0.0000000000000000e+00 +2.3999999929367974e+00 -2.8916050518878203e-02 -5.5264540524342987e-01 +5.5099623899252373e-03
2.4499999999999993e+00 +8.5268338296288810e+00 +0.0000000000000000e+00 +2.4499999924859965e+00 -2.8916957267422036e-02 -5.5266182513335693e-01 +5.5113408059881451e-03
2.4999999999999991e+00 +8.5268269770726306e+00 +0.0000000000000000e+00 +2.4999999920164053e+00 -2.8917879306925177e-02 -5.5267855992016701e-01 +5.5127230764607177e-03
2.5499999999999989e+00 +8.5268199860089737e+00 +0.0000000000000000e+00 +2.5499999915276397e+00 -2.8918816366457128e-02 -5.5269560743377144e-01 +5.5141091243968415e-03
2.5999999999999988e+00 +8.5268128564336383e+00 +0.0000000000000000e+00 +2.5999999910193154e+00 -2.8919768175088022e-02 -5.5271296550409243e-01 +5.5154988728503308e-03
2.6499999999999986e+00 +8.5268055883422740e+00 +0.0000000000000000e+00 +2.6499999904910481e+00 -2.8920734461888635e-02 -5.5273063196106320e-01 +5.5168922448749109e-03
2.6999999999999984e+00 +8.5267981817304541e+00 +0.0000000000000000e+00 +2.6999999899424529e+00 -2.8921714955930281e-02 -5.5274860463462649e-01 +5.5182891635242124e-03
2.7499999999999982e+00 +8.5267906365936756e+00 +0.0000000000000000e+00 +2.7499999893731459e+00 -2.8922709386284856e-02 -5.5276688135473628e-01 +5.5196895518517548e-03
2.7999999999999980e+00 +8.5267829529273573e+00 +0.0000000000000000e+00 +2.7999999887827425e+00 -2.8923717482024793e-02 -5.5278545995135675e-01 +5.5210933329109440e-03
2.8499999999999979e+00 +8.5267751307268433e+00 +0.0000000000000000e+00 +2.8499999881708584e+00 -2.8924738972223051e-02 -5.5280433825446129e-01 +5.5225004297550524e-03
2.8999999999999977e+00 +8.5267671699874015e+00 +0.0000000000000000e+00 +2.8999999875371087e+00 -2.8925773585953097e-02 -5.5282351409403374e-01 +5.5239107654372083e-03
2.9499999999999975e+00 +8.5267590707042284e+00 +0.0000000000000000e+00 +2.9499999868811089e+00 -2.8926821052288880e-02 -5.5284298530006748e-01 +5.5253242630103894e-03
2.9999999999999973e+00 +8.5267508328724428e+00 +0.0000000000000000e+00 +2.9999999862024742e+00 -2.8927881100304823e-02 -5.5286274970256499e-01 +5.5267408455274081e-03
3.0499999999999972e+00 +8.5267424564870922e+00 +0.0000000000000000e+00 +3.0499999855008197e+00 -2.8928953459075746e-02 -5.5288280513153842e-01 +5.5281604360409020e-03
3.0999999999999970e+00 +8.5267339415431511e+00 +0.0000000000000000e+00 +3.0999999847757609e+00 -2.8930037857676977e-02 -5.5290314941700891e-01 +5.5295829576033221e-03
3.1499999999999968e+00 +8.5267252880355198e+00 +0.0000000000000000e+00 +3.1499999840269131e+00 -2.8931134025184171e-02 -5.5292378038900603e-01 +5.5310083332669163e-03
3.1999999999999966e+00 +8.5267164959590289e+00 +0.0000000000000000e+00 +3.1999999832538908e+00 -2.8932241690673422e-02 -5.5294469587756900e-01 +5.5324364860837322e-03
3.2499999999999964e+00 +8.5267075653084365e+00 +0.0000000000000000e+00 +3.2499999824563095e+00 -2.8933360583221143e-02 -5.5296589371274507e-01 +5.5338673391055852e-03
3.2999999999999963e+00 +8.5266984960784313e+00 +0.0000000000000000e+00 +3.2999999816337842e+00 -2.8934490431904138e-02 -5.5298737172458945e-01 +5.5353008153840710e-03
3.3499999999999961e+00 +8.5266892882636309e+00 +0.0000000000000000e+00 +3.3499999807859298e+00 -2.8935630965799503e-02 -5.5300912774316668e-01 +5.5367368379705319e-03
3.3999999999999959e+00 +8.5266799418585819e+00 +0.0000000000000000e+00 +3.3999999799123608e+00 -2.8936781913984657e-02 -5.5303115959854776e-01 +5.5381753299160548e-03
3.4499999999999957e+00 +8.5266704568577634e+00 +0.0000000000000000e+00 +3.4499999790126923e+00 -2.8937943005537300e-02 -5.5305346512081299e-01 +5.5396162142714684e-03
3.4999999999999956e+00 +8.5266608332555851e+00 +0.0000000000000000e+00 +3.4999999780865392e+00 -2.8939113969535402e-02 -5.5307604214004980e-01 +5.5410594140873218e-03
3.5499999999999954e+00 +8.5266510710463894e+00 +0.0000000000000000e+00 +3.5499999771335160e+00 -2.8940294535057177e-02 -5.5309888848635291e-01 +5.5425048524138732e-03
3.5999999999999952e+00 +8.5266411702244511e+00 +0.0000000000000000e+00 +3.5999999761532373e+00 -2.8941484431181067e-02 -5.5312200198982420e-01 +5.5439524523010772e-03
3.6499999999999950e+00 +8.5266311307839775e+00 +0.0000000000000000e+00 +3.6499999751453176e+00 -2.8942683386985718e-02 -5.5314538048057338e-01 +5.5454021367985842e-03
3.6999999999999948e+00 +8.5266209527191101e+00 +0.0000000000000000e+00 +3.6999999741093714e+00 -2.8943891131549958e-02 -5.5316902178871652e-01 +5.5468538289557201e-03
3.7499999999999947e+00 +8.5266106360239249e+00 +0.0000000000000000e+00 +3.7499999730450133e+00 -2.8945107393952792e-02 -5.5319292374437656e-01 +5.5483074518214714e-03
3.7999999999999945e+00 +8.5266001806924301e+00 +0.0000000000000000e+00 +3.7999999719518578e+00 -2.8946331903273382e-02 -5.5321708417768312e-01 +5.5497629284444903e-03
3.8499999999999943e+00 +8.5265895867185719e+00 +0.0000000000000000e+00 +3.8499999708295189e+00 -2.8947564388590988e-02 -5.5324150091877267e-01 +5.5512201818730608e-03
3.8999999999999941e+00 +8.5265788540962326e+00 +0.0000000000000000e+00 +3.8999999696776113e+00 -2.8948804578985011e-02 -5.5326617179778681e-01 +5.5526791351551072e-03
3.9499999999999940e+00 +8.5265679828192269e+00 +0.0000000000000000e+00 +3.9499999684957485e+00 -2.8950052203534932e-02 -5.5329109464487403e-01 +5.5541397113381694e-03
3.9999999999999938e+00 +8.5265569728813109e+00 +0.0000000000000000e+00 +3.9999999672835451e+00 -2.8951306991320282e-02 -5.5331626729018879e-01 +5.5556018334694032e-03
4.0499999999999936e+00 +8.5265458242761767e+00 +0.0000000000000000e+00 +4.0499999660406152e+00 -2.8952568712215430e-02 -5.5334168751177537e-01 +5.5570654241809654e-03
4.0999999999999934e+00 +8.5265345369974526e+00 +0.0000000000000000e+00 +4.0999999647665728e+00 -2.8953837299274119e-02 -5.5336735287922145e-01 +5.5585304044463739e-03
4.1499999999999932e+00 +8.5265231110387063e+00 +0.0000000000000000e+00 +4.1499999634610312e+00 -2.8955112726344576e-02 -5.5339326090999919e-01 +5.5599966948244673e-03
4.1999999999999931e+00 +8.5265115463934471e+00 +0.0000000000000000e+00 +4.1999999621236048e+00 -2.8956394967274510e-02 -5.5341940912158172e-01 +5.5614642158740213e-03
4.2499999999999929e+00 +8.5264998430551202e+00 +0.0000000000000000e+00 +4.2499999607539074e+00 -2.8957683995911088e-02 -5.5344579503144087e-01 +5.5629328881537585e-03
4.2999999999999927e+00 +8.5264880010171140e+00 +0.0000000000000000e+00 +4.2999999593515525e+00 -2.8958979786100864e-02 -5.5347241615704768e-01 +5.5644026322223365e-03
4.3499999999999925e+00 +8.5264760202727565e+00 +0.0000000000000000e+00 +4.3499999579161539e+00 -2.8960282311689796e-02 -5.5349927001587329e-01 +5.5658733686383619e-03
4.3999999999999924e+00 +8.5264639008153189e+00 +0.0000000000000000e+00 +4.3999999564473251e+00 -2.8961591546523176e-02 -5.5352635412538664e-01 +5.5673450179603758e-03
4.4499999999999922e+00 +8.5264516426380119e+00 +0.0000000000000000e+00 +4.4499999549446798e+00 -2.8962907464445579e-02 -5.5355366600305511e-01 +5.5688175007468609e-03
4.4999999999999920e+00 +8.5264392457339930e+00 +0.0000000000000000e+00 +4.4999999534078317e+00 -2.8964230039300910e-02 -5.5358120316634385e-01 +5.5702907375562343e-03
4.5499999999999918e+00 +8.5264267100963611e+00 +0.0000000000000000e+00 +4.5499999518363934e+00 -2.8965559244932250e-02 -5.5360896313271646e-01 +5.5717646489468657e-03
4.5999999999999917e+00 +8.5264140357181581e+00 +0.0000000000000000e+00 +4.5999999502299787e+00 -2.8966895055181928e-02 -5.5363694341963288e-01 +5.5732391554770564e-03
4.6499999999999915e+00 +8.5264012225923729e+00 +0.0000000000000000e+00 +4.6499999485882011e+00 -2.8968237443891407e-02 -5.5366514154455038e-01 +5.5747141777050422e-03
4.6999999999999913e+00 +8.5263882707119389e+00 +0.0000000000000000e+00 +4.6999999469106726e+00 -2.8969586384901311e-02 -5.5369355502492335e-01 +5.5761896361890091e-03
4.7499999999999911e+00 +8.5263751800697349e+00 +0.0000000000000000e+00 +4.7499999451970076e+00 -2.8970941852051343e-02 -5.5372218137820151e-01 +5.5776654514870759e-03
4.7999999999999909e+00 +8.5263619506585879e+00 +0.0000000000000000e+00 +4.7999999434468181e+00 -2.8972303819180301e-02 -5.5375101812183147e-01 +5.5791415441573018e-03
4.8499999999999908e+00 +8.5263485824712699e+00 +0.0000000000000000e+00 +4.8499999416597177e+00 -2.8973672260125947e-02 -5.5378006277325531e-01 +5.5806178347576783e-03
4.8999999999999906e+00 +8.5263350755005032e+00 +0.0000000000000000e+00 +4.8999999398353191e+00 -2.8975047148725123e-02 -5.5380931284991031e-01 +5.5820942438461535e-03
4.9499999999999904e+00 +8.5263214297389567e+00 +0.0000000000000000e+00 +4.9499999379732351e+00 -2.8976428458813562e-02 -5.5383876586922831e-01 +5.5835706919805852e-03
4.9999999999999902e+00 +8.5263076451792497e+00 +0.0000000000000000e+00 +4.9999999360730785e+00 -2.8977816164225945e-02 -5.5386841934863662e-01 +5.5850470997187906e-03
5.0499999999999901e+00 +8.5262937218139516e+00 +0.0000000000000000e+00 +5.0499999341344610e+00 -2.8979210238795846e-02 -5.5389827080555631e-01 +5.5865233876185192e-03
5.0999999999999899e+00 +8.5262796596355805e+00 +0.0000000000000000e+00 +5.0999999321569964e+00 -2.8980610656355699e-02 -5.5392831775740226e-01 +5.5879994762374598e-03
5.1499999999999897e+00 +8.5262654586366065e+00 +0.0000000000000000e+00 +5.1499999301402966e+00 -2.8982017390736723e-02 -5.5395855772158398e-01 +5.5894752861332300e-03
5.1999999999999895e+00 +8.5262511188094514e+00 +0.0000000000000000e+00 +5.1999999280839742e+00 -2.8983430415768979e-02 -5.5398898821550313e-01 +5.5909507378633918e-03
5.2499999999999893e+00 +8.5262366401464895e+00 +0.0000000000000000e+00 +5.2499999259876411e+00 -2.8984849705281233e-02 -5.5401960675655526e-01 +5.5924257519854460e-03
5.2999999999999892e+00 +8.5262220226400487e+00 +0.0000000000000000e+00 +5.2999999238509101e+00 -2.8986275233100954e-02 -5.5405041086212792e-01 +5.5939002490568192e-03
5.3499999999999890e+00 +8.5262072662824071e+00 +0.0000000000000000e+00 +5.3499999216733931e+00 -2.8987706973054361e-02 -5.5408139804960155e-01 +5.5953741496348837e-03
5.3999999999999888e+00 +8.5261923710658003e+00 +0.0000000000000000e+00 +5.3999999194547019e+00 -2.8989144898966243e-02 -5.5411256583634816e-01 +5.5968473742769448e-03
5.4499999999999886e+00 +8.5261773369824176e+00 +0.0000000000000000e+00 +5.4499999171944493e+00 -2.8990588984660042e-02 -5.5414391173973143e-01 +5.5983198435402438e-03
5.4999999999999885e+00 +8.5261621640244041e+00 +0.0000000000000000e+00 +5.4999999148922463e+00 -2.8992039203957747e-02 -5.5417543327710717e-01 +5.5997914779819576e-03
5.5499999999999883e+00 +8.5261468521838584e+00 +0.0000000000000000e+00 +5.5499999125477055e+00 -2.8993495530679907e-02 -5.5420712796582061e-01 +5.6012621981591966e-03
5.5999999999999881e+00 +8.5261314014528384e+00 +0.0000000000000000e+00 +5.5999999101604381e+00 -2.8994957938645569e-02 -5.5423899332320903e-01 +5.6027319246290059e-03
5.6499999999999879e+00 +8.5261158118233595e+00 +0.0000000000000000e+00 +5.6499999077300567e+00 -2.8996426401672271e-02 -5.5427102686659968e-01 +5.6042005779483699e-03
5.6999999999999877e+00 +8.5261000832873926e+00 +0.0000000000000000e+00 +5.6999999052561723e+00 -2.8997900893575939e-02 -5.5430322611330940e-01 +5.6056680786742063e-03
5.7499999999999876e+00 +8.5260842158368693e+00 +0.0000000000000000e+00 +5.7499999027383959e+00 -2.8999381388170938e-02 -5.5433558858064513e-01 +5.6071343473633600e-03
5.7999999999999874e+00 +8.5260682094636788e+00 +0.0000000000000000e+00 +5.7999999001763403e+00 -2.9000867859269995e-02 -5.5436811178590306e-01 +5.6085993045726203e-03
5.8499999999999872e+00 +8.5260520641596713e+00 +0.0000000000000000e+00 +5.8499998975696155e+00 -2.9002360280684161e-02 -5.5440079324636837e-01 +5.6100628708587027e-03
5.8999999999999870e+00 +8.5260357799166560e+00 +0.0000000000000000e+00 +5.8999998949178334e+00 -2.9003858626222762e-02 -5.5443363047931471e-01 +5.6115249667782613e-03
