# field on trajectory
# s[mm] rx[mm] ry[mm] rz[mm] bx[T] by[T] bz[T]
0.0000000000000000e+00 +8.5389999999999997e+00 +0.0000000000000000e+00 +0.0000000000000000e+00 -2.8469634051717277e-02 -5.5361235901579176e-01 +5.8132643671785561e-03
-5.0000000000000003e-02 +8.5389999309229356e+00 +0.0000000000000000e+00 -4.9999999999936373e-02 -2.8469892423167359e-02 -5.5361082308300835e-01 +5.8132414816525731e-03
-1.0000000000000001e-01 +8.5389997236919850e+00 +0.0000000000000000e+00 -9.9999999999491024e-02 -2.8470172656387471e-02 -5.5360965672801787e-01 +5.8132170874917221e-03
-1.5000000000000002e-01 +8.5389993783074392e+00 +0.0000000000000000e+00 -1.4999999999828223e-01 -2.8470474704738721e-02 -5.5360885941293814e-01 +5.8131911918615472e-03
-2.0000000000000001e-01 +8.5389988947694970e+00 +0.0000000000000000e+00 -1.9999999999592824e-01 -2.8470798521583376e-02 -5.5360843059990317e-01 +5.8131638019274312e-03
-2.5000000000000000e-01 +8.5389982730782652e+00 +0.0000000000000000e+00 -2.4999999999204733e-01 -2.8471144060284760e-02 -5.5360836975106242e-01 +5.8131349248545967e-03
-2.9999999999999999e-01 +8.5389975132337597e+00 +0.0000000000000000e+00 -2.9999999998625781e-01 -2.8471511274207262e-02 -5.5360867632858013e-01 +5.8131045678081004e-03
-3.4999999999999998e-01 +8.5389966152359023e+00 +0.0000000000000000e+00 -3.4999999997817788e-01 -2.8471900116716388e-02 -5.5360934979463650e-01 +5.8130727379528385e-03
-3.9999999999999997e-01 +8.5389955790845260e+00 +0.0000000000000000e+00 -3.9999999996742586e-01 -2.8472310541178707e-02 -5.5361038961142717e-01 +5.8130394424535468e-03
-4.4999999999999996e-01 +8.5389944047793715e+00 +0.0000000000000000e+00 -4.4999999995362006e-01 -2.8472742500961837e-02 -5.5361179524116322e-01 +5.8130046884747964e-03
-4.9999999999999994e-01 +8.5389930923200890e+00 +0.0000000000000000e+00 -4.9999999993637867e-01 -2.8473195949434465e-02 -5.5361356614607116e-01 +5.8129684831809908e-03
-5.4999999999999993e-01 +8.5389916417062341e+00 +0.0000000000000000e+00 -5.4999999991532000e-01 -2.8473670839966329e-02 -5.5361570178839259e-01 +5.8129308337363794e-03
-5.9999999999999998e-01 +8.5389900529372760e+00 +0.0000000000000000e+00 -5.9999999989006225e-01 -2.8474167125928228e-02 -5.5361820163038544e-01 +5.8128917473050431e-03
-6.5000000000000002e-01 +8.5389883260125892e+00 +0.0000000000000000e+00 -6.4999999986022361e-01 -2.8474684760691968e-02 -5.5362106513432241e-01 +5.8128512310508963e-03
-7.0000000000000007e-01 +8.5389864609314614e+00 +0.0000000000000000e+00 -6.9999999982542238e-01 -2.8475223697630409e-02 -5.5362429176249262e-01 +5.8128092921376972e-03
-7.5000000000000011e-01 +8.5389844576930862e+00 +0.0000000000000000e+00 -7.4999999978527687e-01 -2.8475783890117429e-02 -5.5362788097719917e-01 +5.8127659377290282e-03
-8.0000000000000016e-01 +8.5389823162965666e+00 +0.0000000000000000e+00 -7.9999999973940517e-01 -2.8476365291527892e-02 -5.5363183224076173e-01 +5.8127211749883188e-03
-8.5000000000000020e-01 +8.5389800367409183e+00 +0.0000000000000000e+00 -8.4999999968742557e-01 -2.8476967855237699e-02 -5.5363614501551517e-01 +5.8126750110788217e-03
-9.0000000000000024e-01 +8.5389776190250650e+00 +0.0000000000000000e+00 -8.9999999962895616e-01 -2.8477591534623758e-02 -5.5364081876380988e-01 +5.8126274531636315e-03
-9.5000000000000029e-01 +8.5389750631478396e+00 +0.0000000000000000e+00 -9.4999999956361514e-01 -2.8478236283063958e-02 -5.5364585294801205e-01 +5.8125785084056844e-03
-1.0000000000000002e+00 +8.5389723691079862e+00 +0.0000000000000000e+00 -9.9999999949102070e-01 -2.8478902053937164e-02 -5.5365124703050284e-01 +5.8125281839677325e-03
-1.0500000000000003e+00 +8.5389695369041583e+00 +0.0000000000000000e+00 -1.0499999994107909e+00 -2.8479588800623224e-02 -5.5365700047367838e-01 +5.8124764870123753e-03
-1.1000000000000003e+00 +8.5389665665349206e+00 +0.0000000000000000e+00 -1.0999999993225440e+00 -2.8480296476502985e-02 -5.5366311273995206e-01 +5.8124234247020415e-03
-1.1500000000000004e+00 +8.5389634579987490e+00 +0.0000000000000000e+00 -1.1499999992258980e+00 -2.8481025034958224e-02 -5.5366958329175109e-01 +5.8123690041989940e-03
-1.2000000000000004e+00 +8.5389602112940270e+00 +0.0000000000000000e+00 -1.1999999991204713e+00 -2.8481774429371689e-02 -5.5367641159151915e-01 +5.8123132326653284e-03
-1.2500000000000004e+00 +8.5389568264190512e+00 +0.0000000000000000e+00 -1.2499999990058817e+00 -2.8482544613127068e-02 -5.5368359710171455e-01 +5.8122561172629737e-03
-1.3000000000000005e+00 +8.5389533033720291e+00 +0.0000000000000000e+00 -1.2999999988817472e+00 -2.8483335539609019e-02 -5.5369113928481217e-01 +5.8121976651536872e-03
-1.3500000000000005e+00 +8.5389496421510778e+00 +0.0000000000000000e+00 -1.3499999987476858e+00 -2.8484147162203110e-02 -5.5369903760330152e-01 +5.8121378834990675e-03
-1.4000000000000006e+00 +8.5389458427542255e+00 +0.0000000000000000e+00 -1.3999999986033158e+00 -2.8484979434295832e-02 -5.5370729151968789e-01 +5.8120767794605354e-03
-1.4500000000000006e+00 +8.5389419051794135e+00 +0.0000000000000000e+00 -1.4499999984482550e+00 -2.8485832309274629e-02 -5.5371590049649233e-01 +5.8120143601993468e-03
-1.5000000000000007e+00 +8.5389378294244942e+00 +0.0000000000000000e+00 -1.4999999982821213e+00 -2.8486705740527828e-02 -5.5372486399625076e-01 +5.8119506328765912e-03
-1.5500000000000007e+00 +8.5389336154872293e+00 +0.0000000000000000e+00 -1.5499999981045327e+00 -2.8487599681444677e-02 -5.5373418148151532e-01 +5.8118856046531836e-03
-1.6000000000000008e+00 +8.5389292633652953e+00 +0.0000000000000000e+00 -1.5999999979151072e+00 -2.8488514085415341e-02 -5.5374385241485347e-01 +5.8118192826898804e-03
-1.6500000000000008e+00 +8.5389247730562783e+00 +0.0000000000000000e+00 -1.6499999977134625e+00 -2.8489448905830831e-02 -5.5375387625884787e-01 +5.8117516741472575e-03
-1.7000000000000008e+00 +8.5389201445576770e+00 +0.0000000000000000e+00 -1.6999999974992166e+00 -2.8490404096083079e-02 -5.5376425247609673e-01 +5.8116827861857210e-03
-1.7500000000000009e+00 +8.5389153778669016e+00 +0.0000000000000000e+00 -1.7499999972719873e+00 -2.8491379609564882e-02 -5.5377498052921414e-01 +5.8116126259655163e-03
-1.8000000000000009e+00 +8.5389104729812750e+00 +0.0000000000000000e+00 -1.7999999970313922e+00 -2.8492375399669916e-02 -5.5378605988082941e-01 +5.8115412006467092e-03
-1.8500000000000010e+00 +8.5389054298980316e+00 +0.0000000000000000e+00 -1.8499999967770495e+00 -2.8493391419792718e-02 -5.5379748999358736e-01 +5.8114685173892020e-03
-1.9000000000000010e+00 +8.5389002486143202e+00 +0.0000000000000000e+00 -1.8999999965085765e+00 -2.8494427623328687e-02 -5.5380927033014871e-01 +5.8113945833527195e-03
-1.9500000000000011e+00 +8.5388949291272009e+00 +0.0000000000000000e+00 -1.9499999962255912e+00 -2.8495483963674045e-02 -5.5382140035318905e-01 +5.8113194056968196e-03
-2.0000000000000009e+00 +8.5388894714336470e+00 +0.0000000000000000e+00 -1.9999999959277110e+00 -2.8496560394225882e-02 -5.5383387952539997e-01 +5.8112429915808889e-03
-2.0500000000000007e+00 +8.5388838755305425e+00 +0.0000000000000000e+00 -2.0499999956145540e+00 -2.8497656843100072e-02 -5.5384670711154227e-01 +5.8111653521430951e-03
-2.1000000000000005e+00 +8.5388781414146884e+00 +0.0000000000000000e+00 -2.0999999952857373e+00 -2.8498773137285091e-02 -5.5385988158460753e-01 +5.8110865144373417e-03
-2.1500000000000004e+00 +8.5388722690827965e+00 +0.0000000000000000e+00 -2.1499999949408788e+00 -2.8499909078488025e-02 -5.5387340121965445e-01 +5.8110065094964638e-03
-2.2000000000000002e+00 +8.5388662585314918e+00 +0.0000000000000000e+00 -2.1999999945795956e+00 -2.8501064468416555e-02 -5.5388726429175539e-01 +5.8109253683533060e-03
-2.2500000000000000e+00 +8.5388601097573176e+00 +0.0000000000000000e+00 -2.2499999942015054e+00 -2.8502239108779019e-02 -5.5390146907599525e-01 +5.8108431220407130e-03
-2.2999999999999998e+00 +8.5388538227567263e+00 +0.0000000000000000e+00 -2.2999999938062259e+00 -2.8503432801284343e-02 -5.5391601384747391e-01 +5.8107598015915583e-03
-2.3499999999999996e+00 +8.5388473975260908e+00 +0.0000000000000000e+00 -2.3499999933933742e+00 -2.8504645347642014e-02 -5.5393089688130248e-01 +5.8106754380387402e-03
-2.3999999999999995e+00 +8.5388408340616948e+00 +0.0000000000000000e+00 -2.3999999929625675e+00 -2.8505876549562100e-02 -5.5394611645260650e-01 +5.8105900624151998e-03
-2.4499999999999993e+00 +8.5388341323597423e+00 +0.0000000000000000e+00 -2.4499999925134235e+00 -2.8507126208755208e-02 -5.5396167083652326e-01 +5.8105037057539187e-03
-2.4999999999999991e+00 +8.5388272924163502e+00 +0.0000000000000000e+00 -2.4999999920455593e+00 -2.8508394126932474e-02 -5.5397755830820372e-01 +5.8104163990879447e-03
-2.5499999999999989e+00 +8.5388203142275554e+00 +0.0000000000000000e+00 -2.5499999915585922e+00 -2.8509680105805527e-02 -5.5399377714281084e-01 +5.8103281734503930e-03
-2.5999999999999988e+00 +8.5388131977893096e+00 +0.0000000000000000e+00 -2.5999999910521394e+00 -2.8510983947086500e-02 -5.5401032561552055e-01 +5.8102390598744370e-03
-2.6499999999999986e+00 +8.5388059430974828e+00 +0.0000000000000000e+00 -2.6499999905258180e+00 -2.8512305452488031e-02 -5.5402720200152089e-01 +5.8101490893933622e-03
-2.6999999999999984e+00 +8.5387985501478649e+00 +0.0000000000000000e+00 -2.6999999899792453e+00 -2.8513644423723190e-02 -5.5404440457601256e-01 +5.8100582930405301e-03
-2.7499999999999982e+00 +8.5387910189361627e+00 +0.0000000000000000e+00 -2.7499999894120379e+00 -2.8515000662505459e-02 -5.5406193161420791e-01 +5.8099667018494125e-03
-2.7999999999999980e+00 +8.5387833494580008e+00 +0.0000000000000000e+00 -2.7999999888238132e+00 -2.8516373970548802e-02 -5.5407978139133218e-01 +5.8098743468535967e-03
-2.8499999999999979e+00 +8.5387755417089259e+00 +0.0000000000000000e+00 -2.8499999882141878e+00 -2.8517764149567533e-02 -5.5409795218262159e-01 +5.8097812590867867e-03
-2.8999999999999977e+00 +8.5387675956844049e+00 +0.0000000000000000e+00 -2.8999999875827789e+00 -2.8519171001276392e-02 -5.5411644226332513e-01 +5.8096874695828266e-03
-2.9499999999999975e+00 +8.5387595113798227e+00 +0.0000000000000000e+00 -2.9499999869292033e+00 -2.8520594327390479e-02 -5.5413524990870244e-01 +5.8095930093756964e-03
-2.9999999999999973e+00 +8.5387512887904844e+00 +0.0000000000000000e+00 -2.9999999862530777e+00 -2.8522033929625254e-02 -5.5415437339402607e-01 +5.8094979094995298e-03
-3.0499999999999972e+00 +8.5387429279116205e+00 +0.0000000000000000e+00 -3.0499999855540190e+00 -2.8523489609696469e-02 -5.5417381099457896e-01 +5.8094022009886189e-03
-3.0999999999999970e+00 +8.5387344287383780e+00 +0.0000000000000000e+00 -3.0999999848316437e+00 -2.8524961169320285e-02 -5.5419356098565631e-01 +5.8093059148774289e-03
-3.1499999999999968e+00 +8.5387257912658310e+00 +0.0000000000000000e+00 -3.1499999840855684e+00 -2.8526448410213082e-02 -5.5421362164256383e-01 +5.8092090822006032e-03
-3.1999999999999966e+00 +8.5387170154889720e+00 +0.0000000000000000e+00 -3.1999999833154100e+00 -2.8527951134091550e-02 -5.5423399124061834e-01 +5.8091117339929641e-03
-3.2499999999999964e+00 +8.5387081014027171e+00 +0.0000000000000000e+00 -3.2499999825207846e+00 -2.8529469142672678e-02 -5.5425466805514900e-01 +5.8090139012895508e-03
-3.2999999999999963e+00 +8.5386990490019077e+00 +0.0000000000000000e+00 -3.2999999817013093e+00 -2.8531002237673658e-02 -5.5427565036149440e-01 +5.8089156151255933e-03
-3.3499999999999961e+00 +8.5386898582813071e+00 +0.0000000000000000e+00 -3.3499999808565999e+00 -2.8532550220811942e-02 -5.5429693643500477e-01 +5.8088169065365477e-03
-3.3999999999999959e+00 +8.5386805292356041e+00 +0.0000000000000000e+00 -3.3999999799862728e+00 -2.8534112893805173e-02 -5.5431852455104047e-01 +5.8087178065580874e-03
-3.4499999999999957e+00 +8.5386710618594108e+00 +0.0000000000000000e+00 -3.4499999790899447e+00 -2.8535690058371223e-02 -5.5434041298497261e-01 +5.8086183462261291e-03
-3.4999999999999956e+00 +8.5386614561472651e+00 +0.0000000000000000e+00 -3.4999999781672315e+00 -2.8537281516228131e-02 -5.5436260001218352e-01 +5.8085185565768293e-03
-3.5499999999999954e+00 +8.5386517120936301e+00 +0.0000000000000000e+00 -3.5499999772177500e+00 -2.8538887069094080e-02 -5.5438508390806451e-01 +5.8084184686466034e-03
-3.5999999999999952e+00 +8.5386418296928959e+00 +0.0000000000000000e+00 -3.5999999762411155e+00 -2.8540506518687437e-02 -5.5440786294801836e-01 +5.8083181134721239e-03
-3.6499999999999950e+00 +8.5386318089393782e+00 +0.0000000000000000e+00 -3.6499999752369443e+00 -2.8542139666726661e-02 -5.5443093540745736e-01 +5.8082175220903406e-03
-3.6999999999999948e+00 +8.5386216498273182e+00 +0.0000000000000000e+00 -3.6999999742048528e+00 -2.8543786314930333e-02 -5.5445429956180359e-01 +5.8081167255384829e-03
-3.7499999999999947e+00 +8.5386113523508858e+00 +0.0000000000000000e+00 -3.7499999731444569e+00 -2.8545446265017156e-02 -5.5447795368648967e-01 +5.8080157548540757e-03
-3.7999999999999945e+00 +8.5386009165041781e+00 +0.0000000000000000e+00 -3.7999999720553719e+00 -2.8547119318705860e-02 -5.5450189605695765e-01 +5.8079146410749422e-03
-3.8499999999999943e+00 +8.5385903422812213e+00 +0.0000000000000000e+00 -3.8499999709372141e+00 -2.8548805277715264e-02 -5.5452612494865905e-01 +5.8078134152392104e-03
-3.8999999999999941e+00 +8.5385796296759686e+00 +0.0000000000000000e+00 -3.8999999697895991e+00 -2.8550503943764235e-02 -5.5455063863705556e-01 +5.8077121083853385e-03
-3.9499999999999940e+00 +8.5385687786823024e+00 +0.0000000000000000e+00 -3.9499999686121425e+00 -2.8552215118571658e-02 -5.5457543539761733e-01 +5.8076107515521056e-03
-3.9999999999999938e+00 +8.5385577892940354e+00 +0.0000000000000000e+00 -3.9999999674044600e+00 -2.8553938603856393e-02 -5.5460051350582462e-01 +5.8075093757786302e-03
-4.0499999999999936e+00 +8.5385466615049097e+00 +0.0000000000000000e+00 -4.0499999661661672e+00 -2.8555674218577062e-02 -5.5462587110591832e-01 +5.8074080109305325e-03
-4.0999999999999934e+00 +8.5385353953085961e+00 +0.0000000000000000e+00 -4.0999999648968792e+00 -2.8557421850650987e-02 -5.5465150581715394e-01 +5.8073066821782825e-03
-4.1499999999999932e+00 +8.5385239906986996e+00 +0.0000000000000000e+00 -4.1499999635962119e+00 -2.8559181405234457e-02 -5.5467741512754221e-01 +5.8072054135185651e-03
-4.1999999999999931e+00 +8.5385124476687526e+00 +0.0000000000000000e+00 -4.1999999622637807e+00 -2.8560952787482805e-02 -5.5470359652509749e-01 +5.8071042289481187e-03
-4.2499999999999929e+00 +8.5385007662122234e+00 +0.0000000000000000e+00 -4.2499999608992001e+00 -2.8562735902550377e-02 -5.5473004749783739e-01 +5.8070031524637342e-03
-4.2999999999999927e+00 +8.5384889463225093e+00 +0.0000000000000000e+00 -4.2999999595020864e+00 -2.8564530655590489e-02 -5.5475676553378273e-01 +5.8069022080622541e-03
-4.3499999999999925e+00 +8.5384769879929454e+00 +0.0000000000000000e+00 -4.3499999580720541e+00 -2.8566336951755381e-02 -5.5478374812095610e-01 +5.8068014197405655e-03
-4.3999999999999924e+00 +8.5384648912167957e+00 +0.0000000000000000e+00 -4.3999999566087178e+00 -2.8568154696196151e-02 -5.5481099274738377e-01 +5.8067008114956083e-03
-4.4499999999999922e+00 +8.5384526559872640e+00 +0.0000000000000000e+00 -4.4499999551116938e+00 -2.8569983794062757e-02 -5.5483849690109321e-01 +5.8066004073243725e-03
-4.4999999999999920e+00 +8.5384402822974845e+00 +0.0000000000000000e+00 -4.4999999535805957e+00 -2.8571824150503945e-02 -5.5486625807011491e-01 +5.8065002312238986e-03
-4.5499999999999918e+00 +8.5384277701405313e+00 +0.0000000000000000e+00 -4.5499999520150389e+00 -2.8573675670667174e-02 -5.5489427374247924e-01 +5.8064003071912678e-03
-4.5999999999999917e+00 +8.5384151195094127e+00 +0.0000000000000000e+00 -4.5999999504146381e+00 -2.8575538259698659e-02 -5.5492254140621922e-01 +5.8063006592236196e-03
-4.6499999999999915e+00 +8.5384023303970746e+00 +0.0000000000000000e+00 -4.6499999487790085e+00 -2.8577411822743246e-02 -5.5495105854936833e-01 +5.8062013113181384e-03
-4.6999999999999913e+00 +8.5383894027963994e+00 +0.0000000000000000e+00 -4.6999999471077638e+00 -2.8579296264944386e-02 -5.5497982265996149e-01 +5.8061022874720562e-03
-4.7499999999999911e+00 +8.5383763367002103e+00 +0.0000000000000000e+00 -4.7499999454005195e+00 -2.8581191491444131e-02 -5.5500883122603362e-01 +5.8060036116826556e-03
-4.7999999999999909e+00 +8.5383631321012690e+00 +0.0000000000000000e+00 -4.7999999436568892e+00 -2.8583097407383070e-02 -5.5503808173561986e-01 +5.8059053079472624e-03
-4.8499999999999908e+00 +8.5383497889922744e+00 +0.0000000000000000e+00 -4.8499999418764874e+00 -2.8585013917900231e-02 -5.5506757167675547e-01 +5.8058074002632597e-03
-4.8999999999999906e+00 +8.5383363073658689e+00 +0.0000000000000000e+00 -4.8999999400589287e+00 -2.8586940928133117e-02 -5.5509729853747503e-01 +5.8057099126280617e-03
-4.9499999999999904e+00 +8.5383226872146345e+00 +0.0000000000000000e+00 -4.9499999382038276e+00 -2.8588878343217630e-02 -5.5512725980581279e-01 +5.8056128690391461e-03
-4.9999999999999902e+00 +8.5383089285310945e+00 +0.0000000000000000e+00 -4.9999999363107976e+00 -2.8590826068288017e-02 -5.5515745296980257e-01 +5.8055162934940270e-03
-5.0499999999999901e+00 +8.5382950313077135e+00 +0.0000000000000000e+00 -5.0499999343794535e+00 -2.8592784008476844e-02 -5.5518787551747639e-01 +5.8054202099902721e-03
-5.0999999999999899e+00 +8.5382809955368995e+00 +0.0000000000000000e+00 -5.0999999324094087e+00 -2.8594752068914951e-02 -5.5521852493686508e-01 +5.8053246425254917e-03
-5.1499999999999897e+00 +8.5382668212110051e+00 +0.0000000000000000e+00 -5.1499999304002779e+00 -2.8596730154731378e-02 -5.5524939871599843e-01 +5.8052296150973405e-03
-5.1999999999999895e+00 +8.5382525083223246e+00 +0.0000000000000000e+00 -5.1999999283516738e+00 -2.8598718171053365e-02 -5.5528049434290272e-01 +5.8051351517035268e-03
-5.2499999999999893e+00 +8.5382380568630989e+00 +0.0000000000000000e+00 -5.2499999262632109e+00 -2.8600716023006283e-02 -5.5531180930560353e-01 +5.8050412763417936e-03
-5.2999999999999892e+00 +8.5382234668255137e+00 +0.0000000000000000e+00 -5.2999999241345028e+00 -2.8602723615713602e-02 -5.5534334109212335e-01 +5.8049480130099411e-03
-5.3499999999999890e+00 +8.5382087382016998e+00 +0.0000000000000000e+00 -5.3499999219651633e+00 -2.8604740854296817e-02 -5.5537508719048168e-01 +5.8048553857058035e-03
-5.3999999999999888e+00 +8.5381938709837364e+00 +0.0000000000000000e+00 -5.3999999197548059e+00 -2.8606767643875472e-02 -5.5540704508869532e-01 +5.8047634184272712e-03
-5.4499999999999886e+00 +8.5381788651636477e+00 +0.0000000000000000e+00 -5.4499999175030434e+00 -2.8608803889567040e-02 -5.5543921227477788e-01 +5.8046721351722695e-03
-5.4999999999999885e+00 +8.5381637207334062e+00 +0.0000000000000000e+00 -5.4999999152094894e+00 -2.8610849496486901e-02 -5.5547158623673842e-01 +5.8045815599387747e-03
-5.5499999999999883e+00 +8.5381484376849333e+00 +0.0000000000000000e+00 -5.5499999128737576e+00 -2.8612904369748338e-02 -5.5550416446258333e-01 +5.8044917167248038e-03
-5.5999999999999881e+00 +8.5381330160101001e+00 +0.0000000000000000e+00 -5.5999999104954608e+00 -2.8614968414462472e-02 -5.5553694444031410e-01 +5.8044026295284209e-03
-5.6499999999999879e+00 +8.5381174557007249e+00 +0.0000000000000000e+00 -5.6499999080742125e+00 -2.8617041535738161e-02 -5.5556992365792812e-01 +5.8043143223477315e-03
-5.6999999999999877e+00 +8.5381017567485795e+00 +0.0000000000000000e+00 -5.6999999056096256e+00 -2.8619123638682062e-02 -5.5560309960341803e-01 +5.8042268191808863e-03
-5.7499999999999876e+00 +8.5380859191453844e+00 +0.0000000000000000e+00 -5.7499999031013127e+00 -2.8621214628398502e-02 -5.5563646976477088e-01 +5.8041401440260777e-03
-5.7999999999999874e+00 +8.5380699428828120e+00 +0.0000000000000000e+00 -5.7999999005488867e+00 -2.8623314409989449e-02 -5.5567003162996997e-01 +5.8040543208815430e-03
-5.8499999999999872e+00 +8.5380538279524867e+00 +0.0000000000000000e+00 -5.8499998979519612e+00 -2.8625422888554526e-02 -5.5570378268699139e-01 +5.8039693737455631e-03
