# field on trajectory
# s[mm] rx[mm] ry[mm] rz[mm] bx[T] by[T] bz[T]
0.0000000000000000e+00 +8.5270000000000206e+00 +0.0000000000000000e+00 +0.0000000000000000e+00 -2.7576082024460599e-02 -5.2547332266496094e-01 +5.3845968641487996e-03
5.0000000000000003e-02 +8.5269999273587000e+00 +0.0000000000000000e+00 +5.1282051281982703e-02 -2.7575945056834191e-02 -5.2547399743526724e-01 +5.3845586970237610e-03
1.0000000000000001e-01 +8.5269997094401297e+00 +0.0000000000000000e+00 +1.0256410256355400e-01 -2.7575824361088096e-02 -5.2547500519117241e-01 +5.3845205185889099e-03
1.4999999999999999e-01 +8.5269993462388793e+00 +0.0000000000000000e+00 +1.5384615384430200e-01 -2.7575719948788088e-02 -5.2547634504054197e-01 +5.3844823608243464e-03
2.0000000000000001e-01 +8.5269988377622195e+00 +0.0000000000000000e+00 +2.0512820512381499e-01 -2.7575631831496531e-02 -5.2547801609117029e-01 +5.3844442557090758e-03
2.5000000000000000e-01 +8.5269981840028795e+00 +0.0000000000000000e+00 +2.5641025640168202e-01 -2.7575560020782226e-02 -5.2548001745096828e-01 +5.3844062352230064e-03
2.9999999999999999e-01 +8.5269973849644902e+00 +0.0000000000000000e+00 +3.0769230767749101e-01 -2.7575504528211042e-02 -5.2548234822778772e-01 +5.3843683313451081e-03
3.4999999999999998e-01 +8.5269964406470500e+00 +0.0000000000000000e+00 +3.5897435895083102e-01 -2.7575465365351205e-02 -5.2548500752952021e-01 +5.3843305760544920e-03
4.0000000000000002e-01 +8.5269953510505694e+00 +0.0000000000000000e+00 +4.1025641022129000e-01 -2.7575442543771918e-02 -5.2548799446407524e-01 +5.3842930013301713e-03
4.5000000000000001e-01 +8.5269941161714105e+00 +0.0000000000000000e+00 +4.6153846148845601e-01 -2.7575436075044622e-02 -5.2549130813940093e-01 +5.3842556391513327e-03
5.0000000000000000e-01 +8.5269927360132005e+00 +0.0000000000000000e+00 +5.1282051275191798e-01 -2.7575445970738924e-02 -5.2549494766341198e-01 +5.3842185214965669e-03
5.5000000000000004e-01 +8.5269912105795793e+00 +0.0000000000000000e+00 +5.6410256401126402e-01 -2.7575472242425281e-02 -5.2549891214403743e-01 +5.3841816803444102e-03
5.9999999999999998e-01 +8.5269895398632798e+00 +0.0000000000000000e+00 +6.1538461526608301e-01 -2.7575514901678838e-02 -5.2550320068929735e-01 +5.3841451476741679e-03
6.5000000000000002e-01 +8.5269877238679292e+00 +0.0000000000000000e+00 +6.6666666651596296e-01 -2.7575573960071431e-02 -5.2550781240715116e-01 +5.3841089554643251e-03
6.9999999999999996e-01 +8.5269857625899004e+00 +0.0000000000000000e+00 +7.1794871776049296e-01 -2.7575649429178256e-02 -5.2551274640562384e-01 +5.3840731356939097e-03
7.5000000000000000e-01 +8.5269836560364602e+00 +0.0000000000000000e+00 +7.6923076899926102e-01 -2.7575741320571036e-02 -5.2551800179267882e-01 +5.3840377203411656e-03
8.0000000000000004e-01 +8.5269814042003400e+00 +0.0000000000000000e+00 +8.2051282023185501e-01 -2.7575849645827339e-02 -5.2552357767639513e-01 +5.3840027413854415e-03
8.4999999999999998e-01 +8.5269790070851705e+00 +0.0000000000000000e+00 +8.7179487145786405e-01 -2.7575974416521244e-02 -5.2552947316479015e-01 +5.3839682308053456e-03
9.0000000000000002e-01 +8.5269764646909607e+00 +0.0000000000000000e+00 +9.2307692267687602e-01 -2.7576115644228530e-02 -5.2553568736592149e-01 +5.3839342205798217e-03
9.4999999999999996e-01 +8.5269737770140601e+00 +0.0000000000000000e+00 +9.7435897388848103e-01 -2.7576273340526720e-02 -5.2554221938788515e-01 +5.3839007426881736e-03
1.0000000000000000e+00 +8.5269709440617607e+00 +0.0000000000000000e+00 +1.0256410250922601e+00 -2.7576447516989580e-02 -5.2554906833871562e-01 +5.3838678291090172e-03
1.0500000000000000e+00 +8.5269679658304103e+00 +0.0000000000000000e+00 +1.0769230762878199e+00 -2.7576638185195158e-02 -5.2555623332653689e-01 +5.3838355118218870e-03
1.1000000000000001e+00 +8.5269648423163709e+00 +0.0000000000000000e+00 +1.1282051274747300e+00 -2.7576845356721679e-02 -5.2556371345948683e-01 +5.3838038228064735e-03
1.1499999999999999e+00 +8.5269615735232893e+00 +0.0000000000000000e+00 +1.1794871786525800e+00 -2.7577069043144869e-02 -5.2557150784566553e-01 +5.3837727940420901e-03
1.2000000000000000e+00 +8.5269581594511692e+00 +0.0000000000000000e+00 +1.2307692298209700e+00 -2.7577309256041793e-02 -5.2557961559321165e-01 +5.3837424575084959e-03
1.2500000000000000e+00 +8.5269546000999998e+00 +0.0000000000000000e+00 +1.2820512809794800e+00 -2.7577566006989615e-02 -5.2558803581027724e-01 +5.3837128451856503e-03
1.3000000000000000e+00 +8.5269508954661397e+00 +0.0000000000000000e+00 +1.3333333321277101e+00 -2.7577839307566781e-02 -5.2559676760505269e-01 +5.3836839890539943e-03
1.3500000000000001e+00 +8.5269470455568808e+00 +0.0000000000000000e+00 +1.3846153832652299e+00 -2.7578129169347636e-02 -5.2560581008566520e-01 +5.3836559210934092e-03
1.3999999999999999e+00 +8.5269430503649293e+00 +0.0000000000000000e+00 +1.4358974343916400e+00 -2.7578435603911721e-02 -5.2561516236035533e-01 +5.3836286732850845e-03
1.4500000000000000e+00 +8.5269389098939392e+00 +0.0000000000000000e+00 +1.4871794855065199e+00 -2.7578758622834390e-02 -5.2562482353730078e-01 +5.3836022776096830e-03
1.5000000000000000e+00 +8.5269346241439106e+00 +0.0000000000000000e+00 +1.5384615366094700e+00 -2.7579098237692071e-02 -5.2563479272471647e-01 +5.3835767660484219e-03
1.5500000000000000e+00 +8.5269301931148203e+00 +0.0000000000000000e+00 +1.5897435877000701e+00 -2.7579454460060906e-02 -5.2564506903082997e-01 +5.3835521705828246e-03
1.6000000000000001e+00 +8.5269256168030605e+00 +0.0000000000000000e+00 +1.6410256387779201e+00 -2.7579827301517972e-02 -5.2565565156390559e-01 +5.3835285231949997e-03
1.6499999999999999e+00 +8.5269208952158806e+00 +0.0000000000000000e+00 +1.6923076898425899e+00 -2.7580216773635969e-02 -5.2566653943214370e-01 +5.3835058558666018e-03
1.7000000000000000e+00 +8.5269160283460206e+00 +0.0000000000000000e+00 +1.7435897408936800e+00 -2.7580622887992415e-02 -5.2567773174385801e-01 +5.3834842005807048e-03
1.7500000000000000e+00 +8.5269110161934805e+00 +0.0000000000000000e+00 +1.7948717919307799e+00 -2.7581045656161658e-02 -5.2568922760732240e-01 +5.3834635893202261e-03
1.8000000000000000e+00 +8.5269058587655309e+00 +0.0000000000000000e+00 +1.8461538429534701e+00 -2.7581485089714808e-02 -5.2570102613077208e-01 +5.3834440540679492e-03
1.8500000000000001e+00 +8.5269005560585391e+00 +0.0000000000000000e+00 +1.8974358939613500e+00 -2.7581941200226310e-02 -5.2571312642252954e-01 +5.3834256268078650e-03
1.8999999999999999e+00 +8.5268951080688602e+00 +0.0000000000000000e+00 +1.9487179449540000e+00 -2.7582413999269934e-02 -5.2572552759092772e-01 +5.3834083395243896e-03
1.9500000000000000e+00 +8.5268895148037700e+00 +0.0000000000000000e+00 +1.9999999959310100e+00 -2.7582903498414680e-02 -5.2573822874423504e-01 +5.3833922242015981e-03
2.0000000000000000e+00 +8.5268838253941794e+00 +0.0000000000000000e+00 +2.0508474532398102e+00 -2.7583405323398539e-02 -5.2575111736954527e-01 +5.3833774288526287e-03
2.0499999999999998e+00 +8.5268779929429002e+00 +0.0000000000000000e+00 +2.1016949105324101e+00 -2.7583923435122039e-02 -5.2576429799466928e-01 +5.3833638171238863e-03
2.1000000000000001e+00 +8.5268720174499304e+00 +0.0000000000000000e+00 +2.1525423678083899e+00 -2.7584457690621504e-02 -5.2577776857257141e-01 +5.3833513889934553e-03
2.1499999999999999e+00 +8.5268658989189099e+00 +0.0000000000000000e+00 +2.2033898250673700e+00 -2.7585007946932128e-02 -5.2579152705620058e-01 +5.3833401444392673e-03
2.2000000000000002e+00 +8.5268596373498404e+00 +0.0000000000000000e+00 +2.2542372823089400e+00 -2.7585574061090645e-02 -5.2580557139853923e-01 +5.3833300834396098e-03
2.2500000000000000e+00 +8.5268532327390893e+00 +0.0000000000000000e+00 +2.3050847395326799e+00 -2.7586155890135359e-02 -5.2581989955260355e-01 +5.3833212059731265e-03
2.2999999999999998e+00 +8.5268466850902804e+00 +0.0000000000000000e+00 +2.3559321967382099e+00 -2.7586753291102162e-02 -5.2583450947136900e-01 +5.3833135120180267e-03
2.3500000000000001e+00 +8.5268399943961395e+00 +0.0000000000000000e+00 +2.4067796539251201e+00 -2.7587366121031135e-02 -5.2584939910789386e-01 +5.3833070015533811e-03
2.3999999999999999e+00 +8.5268331606675893e+00 +0.0000000000000000e+00 +2.4576271110930099e+00 -2.7587994236955998e-02 -5.2586456641511858e-01 +5.3833016745570171e-03
2.4500000000000002e+00 +8.5268261838973594e+00 +0.0000000000000000e+00 +2.5084745682414700e+00 -2.7588637495917390e-02 -5.2588000934611812e-01 +5.3832975310081606e-03
2.5000000000000000e+00 +8.5268190640890698e+00 +0.0000000000000000e+00 +2.5593220253701001e+00 -2.7589295754952250e-02 -5.2589572585389921e-01 +5.3832945708852994e-03
2.5499999999999998e+00 +8.5268118012427294e+00 +0.0000000000000000e+00 +2.6101694824785100e+00 -2.7589968871099109e-02 -5.2591171389150171e-01 +5.3832927941672541e-03
2.6000000000000001e+00 +8.5268043953510606e+00 +0.0000000000000000e+00 +2.6610169395662799e+00 -2.7590656701399527e-02 -5.2592797141202308e-01 +5.3832922008334198e-03
2.6499999999999999e+00 +8.5267968464213499e+00 +0.0000000000000000e+00 +2.7118643966330200e+00 -2.7591359102889953e-02 -5.2594449636846630e-01 +5.3832927908621835e-03
2.7000000000000002e+00 +8.5267891544535797e+00 +0.0000000000000000e+00 +2.7627118536783102e+00 -2.7592075932609910e-02 -5.2596128671389297e-01 +5.3832945642325013e-03
2.7500000000000000e+00 +8.5267813194441295e+00 +0.0000000000000000e+00 +2.8135593107017698e+00 -2.7592807047600549e-02 -5.2597834040139568e-01 +5.3832975209236371e-03
2.7999999999999998e+00 +8.5267733413966198e+00 +0.0000000000000000e+00 +2.8644067677029899e+00 -2.7593552304900737e-02 -5.2599565538402371e-01 +5.3833016609143546e-03
2.8500000000000001e+00 +8.5267652203074196e+00 +0.0000000000000000e+00 +2.9152542246815600e+00 -2.7594311561552343e-02 -5.2601322961488350e-01 +5.3833069841839679e-03
2.8999999999999999e+00 +8.5267569561765395e+00 +0.0000000000000000e+00 +2.9661016816370900e+00 -2.7595084674596277e-02 -5.2603106104706099e-01 +5.3833134907115554e-03
2.9500000000000002e+00 +8.5267485490112396e+00 +0.0000000000000000e+00 +3.0169491385691698e+00 -2.7595871501071140e-02 -5.2604914763359889e-01 +5.3833211804756699e-03
3.0000000000000000e+00 +8.5267399988042598e+00 +0.0000000000000000e+00 +3.0677965954773900e+00 -2.7596671898021324e-02 -5.2606748732764652e-01 +5.3833300534559501e-03
3.0499999999999998e+00 +8.5267313055555896e+00 +0.0000000000000000e+00 +3.1186440523613599e+00 -2.7597485722488893e-02 -5.2608607808230778e-01 +5.3833401096314900e-03
3.1000000000000001e+00 +8.5267224692688597e+00 +0.0000000000000000e+00 +3.1694915092206801e+00 -2.7598312831515041e-02 -5.2610491785066693e-01 +5.3833513489811302e-03
3.1499999999999999e+00 +8.5267134899368102e+00 +0.0000000000000000e+00 +3.2203389660549400e+00 -2.7599153082145372e-02 -5.2612400458588993e-01 +5.3833637714845017e-03
3.2000000000000002e+00 +8.5267043675703498e+00 +0.0000000000000000e+00 +3.2711864228637300e+00 -2.7600006331419239e-02 -5.2614333624101928e-01 +5.3833773771198813e-03
3.2500000000000000e+00 +8.5266951021658297e+00 +0.0000000000000000e+00 +3.3220338796466700e+00 -2.7600872436381839e-02 -5.2616291076920585e-01 +5.3833921658666068e-03
3.2999999999999998e+00 +8.5266856937196298e+00 +0.0000000000000000e+00 +3.3728813364033301e+00 -2.7601751254078748e-02 -5.2618272612360351e-01 +5.3834081377039837e-03
3.3500000000000001e+00 +8.5266761422317394e+00 +0.0000000000000000e+00 +3.4237287931333298e+00 -2.7602642641554757e-02 -5.2620278025734590e-01 +5.3834252926110316e-03
3.3999999999999999e+00 +8.5266664477057894e+00 +0.0000000000000000e+00 +3.4745762498362600e+00 -2.7603546455853781e-02 -5.2622307112354538e-01 +5.3834436305664618e-03
3.4500000000000002e+00 +8.5266566101381596e+00 +0.0000000000000000e+00 +3.5254237065117100e+00 -2.7604462554022872e-02 -5.2624359667536869e-01 +5.3834631515494785e-03
3.5000000000000000e+00 +8.5266466295324808e+00 +0.0000000000000000e+00 +3.5762711631592898e+00 -2.7605390793106945e-02 -5.2626435486593626e-01 +5.3834838555387142e-03
3.5499999999999998e+00 +8.5266365058887494e+00 +0.0000000000000000e+00 +3.6271186197785901e+00 -2.7606331030152777e-02 -5.2628534364839652e-01 +5.3835057425130140e-03
3.6000000000000001e+00 +8.5266262391996896e+00 +0.0000000000000000e+00 +3.6779660763692101e+00 -2.7607283122210328e-02 -5.2630656097595352e-01 +5.3835288124517034e-03
3.6499999999999999e+00 +8.5266158294762100e+00 +0.0000000000000000e+00 +3.7288135329307499e+00 -2.7608246926323431e-02 -5.2632800480168629e-01 +5.3835530653327107e-03
3.6999999999999900e+00 +8.5266052767074108e+00 +0.0000000000000000e+00 +3.7796609894627999e+00 -2.7609222299544479e-02 -5.2634967307882941e-01 +5.3835785011354942e-03
3.7499999999999898e+00 +8.5265945809042005e+00 +0.0000000000000000e+00 +3.8305084459649699e+00 -2.7610209098918405e-02 -5.2637156376046879e-01 +5.3836051198378494e-03
3.7999999999999901e+00 +8.5265837420592998e+00 +0.0000000000000000e+00 +3.8813559024368498e+00 -2.7611207181497410e-02 -5.2639367479981858e-01 +5.3836329214188190e-03
3.8499999999999899e+00 +8.5265727601727104e+00 +0.0000000000000000e+00 +3.9322033588780299e+00 -2.7612216404331619e-02 -5.2641600415004586e-01 +5.3836619058568328e-03
3.8999999999999901e+00 +8.5265616352480702e+00 +0.0000000000000000e+00 +3.9830508152881201e+00 -2.7613236624470398e-02 -5.2643854976429383e-01 +5.3836920731299698e-03
3.9499999999999900e+00 +8.5265503672853793e+00 +0.0000000000000000e+00 +4.0338982716667102e+00 -2.7614267705328700e-02 -5.2646130958640636e-01 +5.3837234213478281e-03
3.9999999999999898e+00 +8.5265389562773599e+00 +0.0000000000000000e+00 +4.0847457280134103e+00 -2.7615309584302285e-02 -5.2648428145185300e-01 +5.3837559268974386e-03
4.0499999999999901e+00 +8.5265274022313005e+00 +0.0000000000000000e+00 +4.1355931843278002e+00 -2.7616362246509936e-02 -5.2650746312605134e-01 +5.3837895521497772e-03
4.0999999999999899e+00 +8.5265157051508105e+00 +0.0000000000000000e+00 +4.1864406406094901e+00 -2.7617425677868207e-02 -5.2653085237328034e-01 +5.3838242592423920e-03
4.1499999999999897e+00 +8.5265038650250098e+00 +0.0000000000000000e+00 +4.2372880968580704e+00 -2.7618499864299987e-02 -5.2655444695791931e-01 +5.3838600103137671e-03
4.1999999999999904e+00 +8.5264918818611495e+00 +0.0000000000000000e+00 +4.2881355530731398e+00 -2.7619584791722496e-02 -5.2657824464422398e-01 +5.3838967675009257e-03
4.2499999999999902e+00 +8.5264797556556005e+00 +0.0000000000000000e+00 +4.3389830092543002e+00 -2.7620680446058001e-02 -5.2660224319652504e-01 +5.3839344929415564e-03
4.2999999999999901e+00 +8.5264674864120007e+00 +0.0000000000000000e+00 +4.3898304654011504e+00 -2.7621786813227165e-02 -5.2662644037910411e-01 +5.3839731487726680e-03
4.3499999999999899e+00 +8.5264550741303502e+00 +0.0000000000000000e+00 +4.4406779215132799e+00 -2.7622903879153046e-02 -5.2665083395626744e-01 +5.3840126971313905e-03
4.3999999999999897e+00 +8.5264425188070199e+00 +0.0000000000000000e+00 +4.4915253775902899e+00 -2.7624031629761171e-02 -5.2667542169234727e-01 +5.3840531001549691e-03
4.4499999999999904e+00 +8.5264298204419902e+00 +0.0000000000000000e+00 +4.5423728336317897e+00 -2.7625170050976814e-02 -5.2670020135165030e-01 +5.3840943199802227e-03
4.4999999999999902e+00 +8.5264169790425495e+00 +0.0000000000000000e+00 +4.5932202896373502e+00 -2.7626319128723750e-02 -5.2672517069843161e-01 +5.3841363187432725e-03
4.5499999999999901e+00 +8.5264039945941494e+00 +0.0000000000000000e+00 +4.6440677456066002e+00 -2.7627478848934926e-02 -5.2675032749709860e-01 +5.3841790585816632e-03
4.5999999999999899e+00 +8.5263908671149693e+00 +0.0000000000000000e+00 +4.6949152015391098e+00 -2.7628649197532426e-02 -5.2677566951182864e-01 +5.3842225016303737e-03
4.6499999999999897e+00 +8.5263775965941004e+00 +0.0000000000000000e+00 +4.7457626574344998e+00 -2.7629830160450258e-02 -5.2680119450700225e-01 +5.3842666100263276e-03
4.6999999999999904e+00 +8.5263641830315500e+00 +0.0000000000000000e+00 +4.7966101132923500e+00 -2.7631021723619659e-02 -5.2682690024692180e-01 +5.3843113459054641e-03
4.7499999999999902e+00 +8.5263506264309399e+00 +0.0000000000000000e+00 +4.8474575691122697e+00 -2.7632223872971741e-02 -5.2685278449586304e-01 +5.3843566714032610e-03
4.7999999999999901e+00 +8.5263369267886393e+00 +0.0000000000000000e+00 +4.8983050248938502e+00 -2.7633436594441591e-02 -5.2687884501815108e-01 +5.3844025486555324e-03
4.8499999999999899e+00 +8.5263230841010191e+00 +0.0000000000000000e+00 +4.9491524806366902e+00 -2.7634659873965579e-02 -5.2690507957810950e-01 +5.3844489397978854e-03
4.8999999999999897e+00 +8.5263090983826295e+00 +0.0000000000000000e+00 +4.9999999363403900e+00 -2.7635893697474663e-02 -5.2693148593993133e-01 +5.3844958069643812e-03
4.9499999999999904e+00 +8.5262950649157592e+00 +0.0000000000000000e+00 +5.0505049848957304e+00 -2.7637129636362986e-02 -5.2695788234569518e-01 +5.3845427923791553e-03
4.9999999999999902e+00 +8.5262808896768494e+00 +0.0000000000000000e+00 +5.1010100334114901e+00 -2.7638375950299644e-02 -5.2698444385538057e-01 +5.3845901730145982e-03
5.0499999999999901e+00 +8.5262665726659197e+00 +0.0000000000000000e+00 +5.1515150818872497e+00 -2.7639632625507241e-02 -5.2701116827814098e-01 +5.3846379117650067e-03
5.0999999999999899e+00 +8.5262521138793108e+00 +0.0000000000000000e+00 +5.2020201303226203e+00 -2.7640899648211127e-02 -5.2703805342315302e-01 +5.3846859715247193e-03
5.1499999999999897e+00 +8.5262375133206696e+00 +0.0000000000000000e+00 +5.2525251787172103e+00 -2.7642177004635355e-02 -5.2706509709953953e-01 +5.3847343151873124e-03
5.1999999999999904e+00 +8.5262227709863492e+00 +0.0000000000000000e+00 +5.3030302270706198e+00 -2.7643464681008020e-02 -5.2709229711647088e-01 +5.3847829056466595e-03
5.2499999999999902e+00 +8.5262078868836397e+00 +0.0000000000000000e+00 +5.3535352753824403e+00 -2.7644762663554652e-02 -5.2711965128303773e-01 +5.3848317057955831e-03
5.2999999999999901e+00 +8.5261928610125306e+00 +0.0000000000000000e+00 +5.4040403236522803e+00 -2.7646070938504873e-02 -5.2714715740837814e-01 +5.3848806785271926e-03
5.3499999999999899e+00 +8.5261776933584805e+00 +0.0000000000000000e+00 +5.4545453718797399e+00 -2.7647389492095175e-02 -5.2717481330172855e-01 +5.3849297867354078e-03
5.3999999999999897e+00 +8.5261623839360308e+00 +0.0000000000000000e+00 +5.5050504200644301e+00 -2.7648718310552788e-02 -5.2720261677211777e-01 +5.3849789933117665e-03
5.4499999999999904e+00 +8.5261469327415398e+00 +0.0000000000000000e+00 +5.5555554682059496e+00 -2.7650057380113134e-02 -5.2723056562869763e-01 +5.3850282611488630e-03
5.4999999999999902e+00 +8.5261313397750200e+00 +0.0000000000000000e+00 +5.6060605163038897e+00 -2.7651406687011857e-02 -5.2725865768059033e-01 +5.3850775531387573e-03
5.5499999999999901e+00 +8.5261156050328299e+00 +0.0000000000000000e+00 +5.6565655643578596e+00 -2.7652766217487457e-02 -5.2728689073693913e-01 +5.3851268321734999e-03
5.5999999999999899e+00 +8.5260997285186004e+00 +0.0000000000000000e+00 +5.7070706123674597e+00 -2.7654135957777329e-02 -5.2731526260683126e-01 +5.3851760611443268e-03
5.6499999999999897e+00 +8.5260837102287006e+00 +0.0000000000000000e+00 +5.7575756603323001e+00 -2.7655515894123163e-02 -5.2734377109940078e-01 +5.3852252029427186e-03
5.6999999999999904e+00 +8.5260675501704100e+00 +0.0000000000000000e+00 +5.8080807082519703e+00 -2.7656906012764146e-02 -5.2737241402369939e-01 +5.3852742204590640e-03
5.7499999999999902e+00 +8.5260512483400799e+00 +0.0000000000000000e+00 +5.8585857561260797e+00 -2.7658306299945232e-02 -5.2740118918885048e-01 +5.3853230765842546e-03
5.7999999999999901e+00 +8.5260348047340795e+00 +0.0000000000000000e+00 +5.9090908039542303e+00 -2.7659716741912942e-02 -5.2743009440397171e-01 +5.3853717342088750e-03
5.8499999999999899e+00 +8.5260182193524106e+00 +0.0000000000000000e+00 +5.9595958517360303e+00 -2.7661137324914174e-02 -5.2745912747814983e-01 +5.3854201562229340e-03
5.8999999999999897e+00 +8.5260014921987004e+00 +0.0000000000000000e+00 +6.0101008994710599e+00 -2.7662568034923622e-02 -5.2748828622010768e-01 +5.3854683055489846e-03
