# field on trajectory
# s[mm] rx[mm] ry[mm] rz[mm] bx[T] by[T] bz[T]
0.0000000000000000e+00 +8.5389999999999997e+00 +0.0000000000000000e+00 +0.0000000000000000e+00 -2.8759443635924659e-02 -5.5056581274536054e-01 +5.6637087082253611e-03
5.0000000000000003e-02 +8.5389999309998927e+00 +0.0000000000000000e+00 +4.9999999999936526e-02 -2.8759155050275802e-02 -5.5056607513774014e-01 +5.6632649609411681e-03
1.0000000000000001e-01 +8.5389997239995115e+00 +0.0000000000000000e+00 +9.9999999999492162e-02 -2.8758887520714645e-02 -5.5056672871173229e-01 +5.6628212983262233e-03
1.5000000000000002e-01 +8.5389993789986924e+00 +0.0000000000000000e+00 +1.4999999999828603e-01 -2.8758641041906074e-02 -5.5056777244341493e-01 +5.6623777596152688e-03
2.0000000000000001e-01 +8.5389988959971728e+00 +0.0000000000000000e+00 +1.9999999999593726e-01 -2.8758415608515709e-02 -5.5056920530888454e-01 +5.6619343840428561e-03
2.5000000000000000e-01 +8.5389982749945936e+00 +0.0000000000000000e+00 +2.4999999999206496e-01 -2.8758211215209887e-02 -5.5057102628425536e-01 +5.6614912108433352e-03
2.9999999999999999e-01 +8.5389975159905003e+00 +0.0000000000000000e+00 +2.9999999998628823e-01 -2.8758027856655610e-02 -5.5057323434565963e-01 +5.6610482792509064e-03
3.4999999999999998e-01 +8.5389966189843385e+00 +0.0000000000000000e+00 +3.4999999997822617e-01 -2.8757865527520635e-02 -5.5057582846924691e-01 +5.6606056284996082e-03
3.9999999999999997e-01 +8.5389955839754563e+00 +0.0000000000000000e+00 +3.9999999996749785e-01 -2.8757724222473423e-02 -5.5057880763118505e-01 +5.6601632978233608e-03
4.4999999999999996e-01 +8.5389944109631095e+00 +0.0000000000000000e+00 +4.4999999995372242e-01 -2.8757603936183134e-02 -5.5058217080765925e-01 +5.6597213264559607e-03
4.9999999999999994e-01 +8.5389930999464543e+00 +0.0000000000000000e+00 +4.9999999993651889e-01 -2.8757504663319670e-02 -5.5058591697487147e-01 +5.6592797536311216e-03
5.4999999999999993e-01 +8.5389916509245509e+00 +0.0000000000000000e+00 +5.4999999991550641e-01 -2.8757426398553596e-02 -5.5059004510904175e-01 +5.6588386185824780e-03
5.9999999999999998e-01 +8.5389900638963656e+00 +0.0000000000000000e+00 +5.9999999989030395e-01 -2.8757369136556282e-02 -5.5059455418640768e-01 +5.6583979605436116e-03
6.5000000000000002e-01 +8.5389883388607668e+00 +0.0000000000000000e+00 +6.4999999986053059e-01 -2.8757332871999733e-02 -5.5059944318322296e-01 +5.6579578187480606e-03
7.0000000000000007e-01 +8.5389864758165306e+00 +0.0000000000000000e+00 +6.9999999982580541e-01 -2.8757317599556749e-02 -5.5060471107575903e-01 +5.6575182324293486e-03
7.5000000000000011e-01 +8.5389844747623371e+00 +0.0000000000000000e+00 +7.4999999978574738e-01 -2.8757323313900799e-02 -5.5061035684030391e-01 +5.6570792408209957e-03
8.0000000000000016e-01 +8.5389823356967689e+00 +0.0000000000000000e+00 +7.9999999973997549e-01 -2.8757350009706112e-02 -5.5061637945316322e-01 +5.6566408831565428e-03
8.5000000000000020e-01 +8.5389800586183178e+00 +0.0000000000000000e+00 +8.4999999968810869e-01 -2.8757397681647628e-02 -5.5062277789065828e-01 +5.6562031986695611e-03
9.0000000000000024e-01 +8.5389776435253815e+00 +0.0000000000000000e+00 +8.9999999962976607e-01 -2.8757466324401019e-02 -5.5062955112912726e-01 +5.6557662265936800e-03
9.5000000000000029e-01 +8.5389750904162600e+00 +0.0000000000000000e+00 +9.4999999956456649e-01 -2.8757555932642696e-02 -5.5063669814492577e-01 +5.6553300061625983e-03
1.0000000000000002e+00 +8.5389723992891629e+00 +0.0000000000000000e+00 +9.9999999949212892e-01 -2.8757666501049807e-02 -5.5064421791442453e-01 +5.6548945766101118e-03
1.0500000000000003e+00 +8.5389695701422053e+00 +0.0000000000000000e+00 +1.0499999994120723e+00 -2.8757798024300205e-02 -5.5065210941401210e-01 +5.6544599771701136e-03
1.1000000000000003e+00 +8.5389666029734101e+00 +0.0000000000000000e+00 +1.0999999993240155e+00 -2.8757950497072512e-02 -5.5066037162009163e-01 +5.6540262470766408e-03
1.1500000000000004e+00 +8.5389634977807045e+00 +0.0000000000000000e+00 +1.1499999992275773e+00 -2.8758123914046065e-02 -5.5066900350908321e-01 +5.6535934255638630e-03
1.2000000000000004e+00 +8.5389602545619265e+00 +0.0000000000000000e+00 +1.1999999991223769e+00 -2.8758318269900954e-02 -5.5067800405742318e-01 +5.6531615518661165e-03
1.2500000000000004e+00 +8.5389568733148202e+00 +0.0000000000000000e+00 +1.2499999990080326e+00 -2.8758533559318008e-02 -5.5068737224156350e-01 +5.6527306652179293e-03
1.3000000000000005e+00 +8.5389533540370373e+00 +0.0000000000000000e+00 +1.2999999988841635e+00 -2.8758769776978787e-02 -5.5069710703797181e-01 +5.6523008048540166e-03
1.3500000000000005e+00 +8.5389496967261369e+00 +0.0000000000000000e+00 +1.3499999987503883e+00 -2.8759026917565607e-02 -5.5070720742313162e-01 +5.6518720100093211e-03
1.4000000000000006e+00 +8.5389459013795879e+00 +0.0000000000000000e+00 +1.3999999986063258e+00 -2.8759304975761527e-02 -5.5071767237354186e-01 +5.6514443199190264e-03
1.4500000000000006e+00 +8.5389419679947682e+00 +0.0000000000000000e+00 +1.4499999984515948e+00 -2.8759603946250340e-02 -5.5072850086571778e-01 +5.6510177738185686e-03
1.5000000000000007e+00 +8.5389378965689620e+00 +0.0000000000000000e+00 +1.4999999982858139e+00 -2.8759923823716622e-02 -5.5073969187618865e-01 +5.6505924109436553e-03
1.5500000000000007e+00 +8.5389336870993660e+00 +0.0000000000000000e+00 +1.5499999981086017e+00 -2.8760264602845663e-02 -5.5075124438150025e-01 +5.6501682705302932e-03
1.6000000000000008e+00 +8.5389293395830830e+00 +0.0000000000000000e+00 +1.5999999979195767e+00 -2.8760626278323528e-02 -5.5076315735821313e-01 +5.6497453918147970e-03
1.6500000000000008e+00 +8.5389248540171270e+00 +0.0000000000000000e+00 +1.6499999977183577e+00 -2.8761008844837007e-02 -5.5077542978290261e-01 +5.6493238140338095e-03
1.7000000000000008e+00 +8.5389202303984231e+00 +0.0000000000000000e+00 +1.6999999975045634e+00 -2.8761412297073685e-02 -5.5078806063215990e-01 +5.6489035764243269e-03
1.7500000000000009e+00 +8.5389154687238058e+00 +0.0000000000000000e+00 +1.7499999972778122e+00 -2.8761836629721885e-02 -5.5080104888259007e-01 +5.6484847182237084e-03
1.8000000000000009e+00 +8.5389105689900191e+00 +0.0000000000000000e+00 +1.7999999970377223e+00 -2.8762281837470684e-02 -5.5081439351081363e-01 +5.6480672786696955e-03
1.8500000000000010e+00 +8.5389055311937181e+00 +0.0000000000000000e+00 +1.8499999967839125e+00 -2.8762747915009920e-02 -5.5082809349346551e-01 +5.6476512970004417e-03
1.9000000000000010e+00 +8.5389003553314691e+00 +0.0000000000000000e+00 +1.8999999965160010e+00 -2.8763234857030209e-02 -5.5084214780719565e-01 +5.6472368124545142e-03
1.9500000000000011e+00 +8.5388950413997478e+00 +0.0000000000000000e+00 +1.9499999962336065e+00 -2.8763742658222916e-02 -5.5085655542866774e-01 +5.6468238642709244e-03
2.0000000000000009e+00 +8.5388895893949446e+00 +0.0000000000000000e+00 +1.9999999959363470e+00 -2.8764271313280167e-02 -5.5087131533456091e-01 +5.6464124916891399e-03
2.0500000000000007e+00 +8.5388839993133594e+00 +0.0000000000000000e+00 +2.0499999956238408e+00 -2.8764820795484869e-02 -5.5088642635275153e-01 +5.6460027316448062e-03
2.1000000000000005e+00 +8.5388782711512050e+00 +0.0000000000000000e+00 +2.0999999952957067e+00 -2.8765390992480745e-02 -5.5090188671586704e-01 +5.6455946118567921e-03
2.1500000000000004e+00 +8.5388724049046072e+00 +0.0000000000000000e+00 +2.1499999949515622e+00 -2.8765981770502391e-02 -5.5091769450773032e-01 +5.6451881577399780e-03
2.2000000000000002e+00 +8.5388664005696029e+00 +0.0000000000000000e+00 +2.1999999945910260e+00 -2.8766592995785288e-02 -5.5093384781217636e-01 +5.6447833947095389e-03
2.2500000000000000e+00 +8.5388602581421438e+00 +0.0000000000000000e+00 +2.2499999942137161e+00 -2.8767224534565851e-02 -5.5095034471305038e-01 +5.6443803481809555e-03
2.2999999999999998e+00 +8.5388539776180945e+00 +0.0000000000000000e+00 +2.2999999938192506e+00 -2.8767876253081404e-02 -5.5096718329420957e-01 +5.6439790435700238e-03
2.3499999999999996e+00 +8.5388475589932344e+00 +0.0000000000000000e+00 +2.3499999934072471e+00 -2.8768548017570197e-02 -5.5098436163952125e-01 +5.6435795062928463e-03
2.3999999999999995e+00 +8.5388410022632577e+00 +0.0000000000000000e+00 +2.3999999929773241e+00 -2.8769239694271434e-02 -5.5100187783286381e-01 +5.6431817617658550e-03
2.4499999999999993e+00 +8.5388343074237749e+00 +0.0000000000000000e+00 +2.4499999925290994e+00 -2.8769951149425217e-02 -5.5101972995812520e-01 +5.6427858354058018e-03
2.4999999999999991e+00 +8.5388274744703097e+00 +0.0000000000000000e+00 +2.4999999920621909e+00 -2.8770682249272657e-02 -5.5103791609920383e-01 +5.6423917526297702e-03
2.5499999999999989e+00 +8.5388205033983056e+00 +0.0000000000000000e+00 +2.5499999915762164e+00 -2.8771432860055807e-02 -5.5105643434000795e-01 +5.6419995388551896e-03
2.5999999999999988e+00 +8.5388133942031192e+00 +0.0000000000000000e+00 +2.5999999910707938e+00 -2.8772202848017688e-02 -5.5107528276445517e-01 +5.6416092194998173e-03
2.6499999999999986e+00 +8.5388061468800291e+00 +0.0000000000000000e+00 +2.6499999905455409e+00 -2.8772992079402294e-02 -5.5109445945647284e-01 +5.6412208199817741e-03
2.6999999999999984e+00 +8.5387987614242267e+00 +0.0000000000000000e+00 +2.6999999900000753e+00 -2.8773800420454628e-02 -5.5111396249999633e-01 +5.6408343657195223e-03
2.7499999999999982e+00 +8.5387912378308233e+00 +0.0000000000000000e+00 +2.7499999894340146e+00 -2.8774627737420681e-02 -5.5113378997897100e-01 +5.6404498821318889e-03
2.7999999999999980e+00 +8.5387835760948505e+00 +0.0000000000000000e+00 +2.7999999888469769e+00 -2.8775473896547436e-02 -5.5115393997735018e-01 +5.6400673946380648e-03
2.8499999999999979e+00 +8.5387757762112564e+00 +0.0000000000000000e+00 +2.8499999882385789e+00 -2.8776338764082924e-02 -5.5117441057909544e-01 +5.6396869286576062e-03
2.8999999999999977e+00 +8.5387678381749108e+00 +0.0000000000000000e+00 +2.8999999876084388e+00 -2.8777222206276182e-02 -5.5119519986817678e-01 +5.6393085096104493e-03
2.9499999999999975e+00 +8.5387597619806037e+00 +0.0000000000000000e+00 +2.9499999869561737e+00 -2.8778124089377282e-02 -5.5121630592857196e-01 +5.6389321629169119e-03
2.9999999999999973e+00 +8.5387515476230433e+00 +0.0000000000000000e+00 +2.9999999862814013e+00 -2.8779044279637327e-02 -5.5123772684426597e-01 +5.6385579139976941e-03
3.0499999999999972e+00 +8.5387431950968615e+00 +0.0000000000000000e+00 +3.0499999855837383e+00 -2.8779982643308496e-02 -5.5125946069925180e-01 +5.6381857882738893e-03
3.0999999999999970e+00 +8.5387347043966120e+00 +0.0000000000000000e+00 +3.0999999848628024e+00 -2.8780939046644000e-02 -5.5128150557752909e-01 +5.6378158111669834e-03
3.1499999999999968e+00 +8.5387260755167667e+00 +0.0000000000000000e+00 +3.1499999841182107e+00 -2.8781913355898137e-02 -5.5130385956310457e-01 +5.6374480080988746e-03
3.1999999999999966e+00 +8.5387173084517247e+00 +0.0000000000000000e+00 +3.1999999833495805e+00 -2.8782905437326287e-02 -5.5132652073999155e-01 +5.6370824044918583e-03
3.2499999999999964e+00 +8.5387084031958054e+00 +0.0000000000000000e+00 +3.2499999825565289e+00 -2.8783915157184901e-02 -5.5134948719220933e-01 +5.6367190257686503e-03
3.2999999999999963e+00 +8.5386993597432514e+00 +0.0000000000000000e+00 +3.2999999817386727e+00 -2.8784942381731519e-02 -5.5137275700378419e-01 +5.6363578973523806e-03
3.3499999999999961e+00 +8.5386901780882312e+00 +0.0000000000000000e+00 +3.3499999808956291e+00 -2.8785986977224818e-02 -5.5139632825874796e-01 +5.6359990446666081e-03
3.3999999999999959e+00 +8.5386808582248364e+00 +0.0000000000000000e+00 +3.3999999800270149e+00 -2.8787048809924557e-02 -5.5142019904113782e-01 +5.6356424931353196e-03
3.4499999999999957e+00 +8.5386714001470843e+00 +0.0000000000000000e+00 +3.4499999791324467e+00 -2.8788127746091616e-02 -5.5144436743499636e-01 +5.6352882681829312e-03
3.4999999999999956e+00 +8.5386618038489175e+00 +0.0000000000000000e+00 +3.4999999782115414e+00 -2.8789223651988036e-02 -5.5146883152437220e-01 +5.6349363952343081e-03
3.5499999999999954e+00 +8.5386520693242023e+00 +0.0000000000000000e+00 +3.5499999772639157e+00 -2.8790336393876962e-02 -5.5149358939331761e-01 +5.6345868997147571e-03
3.5999999999999952e+00 +8.5386421965667356e+00 +0.0000000000000000e+00 +3.5999999762891863e+00 -2.8791465838022699e-02 -5.5151863912589061e-01 +5.6342398070500354e-03
3.6499999999999950e+00 +8.5386321855702381e+00 +0.0000000000000000e+00 +3.6499999752869701e+00 -2.8792611850690725e-02 -5.5154397880615347e-01 +5.6338951426663638e-03
3.6999999999999948e+00 +8.5386220363283574e+00 +0.0000000000000000e+00 +3.6999999742568832e+00 -2.8793774298147671e-02 -5.5156960651817233e-01 +5.6335529319904163e-03
3.7499999999999947e+00 +8.5386117488346702e+00 +0.0000000000000000e+00 +3.7499999731985421e+00 -2.8794953046661315e-02 -5.5159552034601733e-01 +5.6332132004493409e-03
3.7999999999999945e+00 +8.5386013230826823e+00 +0.0000000000000000e+00 +3.7999999721115629e+00 -2.8796147962500677e-02 -5.5162171837376284e-01 +5.6328759734707544e-03
3.8499999999999943e+00 +8.5385907590658263e+00 +0.0000000000000000e+00 +3.8499999709955626e+00 -2.8797358911935914e-02 -5.5164819868548587e-01 +5.6325412764827608e-03
3.8999999999999941e+00 +8.5385800567774659e+00 +0.0000000000000000e+00 +3.8999999698501568e+00 -2.8798585761238428e-02 -5.5167495936526745e-01 +5.6322091349139377e-03
3.9499999999999940e+00 +8.5385692162108917e+00 +0.0000000000000000e+00 +3.9499999686749621e+00 -2.8799828376680790e-02 -5.5170199849719148e-01 +5.6318795741933537e-03
3.9999999999999938e+00 +8.5385582373593287e+00 +0.0000000000000000e+00 +3.9999999674695941e+00 -2.8801086624536842e-02 -5.5172931416534421e-01 +5.6315526197505874e-03
4.0499999999999936e+00 +8.5385471202159291e+00 +0.0000000000000000e+00 +4.0499999662336696e+00 -2.8802360373235282e-02 -5.5175690431021185e-01 +5.6312282933644094e-03
4.0999999999999934e+00 +8.5385358647737775e+00 +0.0000000000000000e+00 +4.0999999649668037e+00 -2.8803649499820526e-02 -5.5178476629787032e-01 +5.6309066022085848e-03
4.1499999999999932e+00 +8.5385244710258910e+00 +0.0000000000000000e+00 +4.1499999636686127e+00 -2.8804953883490889e-02 -5.5181289735079586e-01 +5.6305875498051990e-03
4.1999999999999931e+00 +8.5385129389652175e+00 +0.0000000000000000e+00 +4.1999999623387128e+00 -2.8806273403444792e-02 -5.5184129469146892e-01 +5.6302711396758551e-03
4.2499999999999929e+00 +8.5385012685846409e+00 +0.0000000000000000e+00 +4.2499999609767194e+00 -2.8807607938880701e-02 -5.5186995554237406e-01 +5.6299573753416507e-03
4.2999999999999927e+00 +8.5384894598769776e+00 +0.0000000000000000e+00 +4.2999999595822480e+00 -2.8808957368997131e-02 -5.5189887712599872e-01 +5.6296462603231522e-03
4.3499999999999925e+00 +8.5384775128349766e+00 +0.0000000000000000e+00 +4.3499999581549140e+00 -2.8810321572992643e-02 -5.5192805666483502e-01 +5.6293377981403766e-03
4.3999999999999924e+00 +8.5384654274513245e+00 +0.0000000000000000e+00 +4.3999999566943329e+00 -2.8811700430065760e-02 -5.5195749138137684e-01 +5.6290319923127585e-03
4.4499999999999922e+00 +8.5384532037186460e+00 +0.0000000000000000e+00 +4.4499999552001208e+00 -2.8813093819414978e-02 -5.5198717849812240e-01 +5.6287288463591351e-03
4.4999999999999920e+00 +8.5384408416294981e+00 +0.0000000000000000e+00 +4.4999999536718924e+00 -2.8814501620238738e-02 -5.5201711523757224e-01 +5.6284283637977189e-03
4.5499999999999918e+00 +8.5384283411763775e+00 +0.0000000000000000e+00 +4.5499999521092631e+00 -2.8815923711735424e-02 -5.5204729882222991e-01 +5.6281305481460670e-03
4.5999999999999917e+00 +8.5384157023517187e+00 +0.0000000000000000e+00 +4.5999999505118483e+00 -2.8817359973103258e-02 -5.5207772647460174e-01 +5.6278354029210779e-03
4.6499999999999915e+00 +8.5384029251478957e+00 +0.0000000000000000e+00 +4.6499999488792625e+00 -2.8818810283540389e-02 -5.5210839541719581e-01 +5.6275429316389389e-03
4.6999999999999913e+00 +8.5383900095572205e+00 +0.0000000000000000e+00 +4.6999999472111220e+00 -2.8820274522244737e-02 -5.5213930287252289e-01 +5.6272531378151218e-03
4.7499999999999911e+00 +8.5383769555719464e+00 +0.0000000000000000e+00 +4.7499999455070405e+00 -2.8821752568414100e-02 -5.5217044606309540e-01 +5.6269660249643515e-03
4.7999999999999909e+00 +8.5383637631842682e+00 +0.0000000000000000e+00 +4.7999999437666334e+00 -2.8823244301246026e-02 -5.5220182221142877e-01 +5.6266815966005863e-03
4.8499999999999908e+00 +8.5383504323863200e+00 +0.0000000000000000e+00 +4.8499999419895161e+00 -2.8824749599937850e-02 -5.5223342854003865e-01 +5.6263998562369952e-03
4.8999999999999906e+00 +8.5383369631701811e+00 +0.0000000000000000e+00 +4.8999999401753023e+00 -2.8826268343686637e-02 -5.5226526227144279e-01 +5.6261208073859264e-03
4.9499999999999904e+00 +8.5383233555278721e+00 +0.0000000000000000e+00 +4.9499999383236073e+00 -2.8827800411689156e-02 -5.5229732062816050e-01 +5.6258444535588819e-03
4.9999999999999902e+00 +8.5383096094513586e+00 +0.0000000000000000e+00 +4.9999999364340448e+00 -2.8829345683141876e-02 -5.5232960083271176e-01 +5.6255707982665092e-03
5.0499999999999901e+00 +8.5382957249325493e+00 +0.0000000000000000e+00 +5.0499999345062303e+00 -2.8830904037240930e-02 -5.5236210010761821e-01 +5.6252998450185597e-03
5.0999999999999899e+00 +8.5382817019632977e+00 +0.0000000000000000e+00 +5.0999999325397773e+00 -2.8832475353182070e-02 -5.5239481567540150e-01 +5.6250315973238743e-03
5.1499999999999897e+00 +8.5382675405354043e+00 +0.0000000000000000e+00 +5.1499999305343005e+00 -2.8834059510160694e-02 -5.5242774475858447e-01 +5.6247660586903597e-03
5.1999999999999895e+00 +8.5382532406406160e+00 +0.0000000000000000e+00 +5.1999999284894143e+00 -2.8835656387371740e-02 -5.5246088457968989e-01 +5.6245032326249569e-03
5.2499999999999893e+00 +8.5382388022706248e+00 +0.0000000000000000e+00 +5.2499999264047332e+00 -2.8837265864009740e-02 -5.5249423236124118e-01 +5.6242431226336273e-03
5.2999999999999892e+00 +8.5382242254170730e+00 +0.0000000000000000e+00 +5.2999999242798710e+00 -2.8838887819268744e-02 -5.5252778532576174e-01 +5.6239857322213215e-03
5.3499999999999890e+00 +8.5382095100715514e+00 +0.0000000000000000e+00 +5.3499999221144412e+00 -2.8840522132342349e-02 -5.5256154069577501e-01 +5.6237310648919528e-03
5.3999999999999888e+00 +8.5381946562255990e+00 +0.0000000000000000e+00 +5.3999999199080575e+00 -2.8842168682423570e-02 -5.5259549569380373e-01 +5.6234791241483876e-03
5.4499999999999886e+00 +8.5381796638707055e+00 +0.0000000000000000e+00 +5.4499999176603344e+00 -2.8843827348704928e-02 -5.5262964754237043e-01 +5.6232299134924019e-03
5.4999999999999885e+00 +8.5381645329983105e+00 +0.0000000000000000e+00 +5.4999999153708856e+00 -2.8845498010378379e-02 -5.5266399346399719e-01 +5.6229834364246731e-03
5.5499999999999883e+00 +8.5381492635998040e+00 +0.0000000000000000e+00 +5.5499999130393238e+00 -2.8847180546635258e-02 -5.5269853068120467e-01 +5.6227396964447472e-03
5.5999999999999881e+00 +8.5381338556665298e+00 +0.0000000000000000e+00 +5.5999999106652636e+00 -2.8848874836666292e-02 -5.5273325641651327e-01 +5.6224986970510177e-03
5.6499999999999879e+00 +8.5381183091897856e+00 +0.0000000000000000e+00 +5.6499999082483185e+00 -2.8850580759661591e-02 -5.5276816789244176e-01 +5.6222604417407026e-03
5.6999999999999877e+00 +8.5381026241608193e+00 +0.0000000000000000e+00 +5.6999999057881015e+00 -2.8852298194810565e-02 -5.5280326233150734e-01 +5.6220249340098163e-03
5.7499999999999876e+00 +8.5380868005708361e+00 +0.0000000000000000e+00 +5.7499999032842251e+00 -2.8854027021301937e-02 -5.5283853695622676e-01 +5.6217921773531526e-03
5.7999999999999874e+00 +8.5380708384109933e+00 +0.0000000000000000e+00 +5.7999999007363039e+00 -2.8855767118323727e-02 -5.5287398898911355e-01 +5.6215621752642546e-03
5.8499999999999872e+00 +8.5380547376724056e+00 +0.0000000000000000e+00 +5.8499998981439498e+00 -2.8857518365063169e-02 -5.5290961565268004e-01 +5.6213349312353861e-03
5.8999999999999870e+00 +8.5380384983461433e+00 +0.0000000000000000e+00 +5.8999998955067765e+00 -2.8859280640706773e-02 -5.5294541416943699e-01 +5.6211104487575245e-03
