# multipoles
# s[mm] polynom_b[n=0][T/m^n] polynom_b[n=1][T/m^n] polynom_b[n=2][T/m^n] polynom_b[n=3][T/m^n] polynom_b[n=4][T/m^n] polynom_b[n=5][T/m^n] polynom_b[n=6][T/m^n] 
-0.0000000000000000e+00 -5.5309318704408172e-01 +7.2435899186887882e+00 +6.2153056536112947e+00 -1.8267691118256110e+02 -1.3996818117461547e+04 +9.1412433615735942e+05 +1.0259626627433181e+08 
-5.0000000000000003e-02 -5.5309334139299393e-01 +7.2436191592795369e+00 +6.2063545311794366e+00 -1.8334707492131341e+02 -1.3813712612305821e+04 +9.1798337131589081e+05 +1.0151209287914641e+08 
-1.0000000000000001e-01 -5.5309388701125550e-01 +7.2436675406004198e+00 +6.1967405975498222e+00 -1.8394958136233964e+02 -1.3626835588465668e+04 +9.2141529756662261e+05 +1.0040551493794858e+08 
-1.4999999999999999e-01 -5.5309482324181281e-01 +7.2437350423566294e+00 +6.1864832115817068e+00 -1.8448558382276022e+02 -1.3436535249735820e+04 +9.2442812144133588e+05 +9.9278547644862607e+07 
-2.0000000000000001e-01 -5.5309614942771168e-01 +7.2438216442489152e+00 +6.1756017345603098e+00 -1.8495623541960148e+02 -1.3243159863578781e+04 +9.2702984787226212e+05 +9.8133206618967950e+07 
-2.5000000000000000e-01 -5.5309786491189372e-01 +7.2439273259853643e+00 +6.1641155247451191e+00 -1.8536268952349550e+02 -1.3047057615887945e+04 +9.2922848383966740e+05 +9.6971506928172082e+07 
-2.9999999999999999e-01 -5.5309996903740710e-01 +7.2440520672720075e+00 +6.1520439428990450e+00 -1.8570609940195297e+02 -1.2848576768560613e+04 +9.3103203551703331e+05 +9.5795464186484262e+07 
-3.4999999999999998e-01 -5.5310246114730655e-01 +7.2441958478155479e+00 +6.1394063476451093e+00 -1.8598761829646105e+02 -1.2648065521514418e+04 +9.3244850876440539e+05 +9.4607093568218231e+07 
-4.0000000000000002e-01 -5.5310534058458183e-01 +7.2443586473241419e+00 +6.1262220970935699e+00 -1.8620839949872976e+02 -1.2445872064702422e+04 +9.3348590997188259e+05 +9.3408410198914811e+07 
-4.5000000000000001e-01 -5.5310860669232442e-01 +7.2445404455045814e+00 +6.1125105505429520e+00 -1.8636959620365792e+02 -1.2242344622434857e+04 +9.3415224466973648e+05 +9.2201429442454442e+07 
-5.0000000000000000e-01 -5.5311225881361459e-01 +7.2447412220694449e+00 +6.0982910668763477e+00 -1.8647236181016680e+02 -1.2037831407076625e+04 +9.3445552006721450e+05 +9.0988166578825384e+07 
-5.5000000000000004e-01 -5.5311629629151704e-01 +7.2449609567256630e+00 +6.0835830045047556e+00 -1.8651784945756353e+02 -1.1832680626018857e+04 +9.3440374125440849e+05 +8.9770636882971689e+07 
-5.9999999999999998e-01 -5.5312071846918265e-01 +7.2451996291863008e+00 +6.0684057196248684e+00 -1.8650721251140425e+02 -1.1627240423914354e+04 +9.3400491518059641e+05 +8.8550855196116507e+07 
-6.5000000000000002e-01 -5.5312552468972298e-01 +7.2454572191606417e+00 +6.0527785725534695e+00 -1.8644160414836182e+02 -1.1421859055313093e+04 +9.3326704724546452e+05 +8.7330837092915401e+07 
-6.9999999999999996e-01 -5.5313071429624228e-01 +7.2457337063609950e+00 +6.0367209197917431e+00 -1.8632217763503039e+02 -1.1216884680000694e+04 +9.3219814357573679e+05 +8.6112597541926637e+07 
-7.5000000000000000e-01 -5.5313628663192593e-01 +7.2460290704993771e+00 +6.0202521201082666e+00 -1.8615008621464619e+02 -1.1012665518583797e+04 +9.3080621015974483e+05 +8.4898151917371511e+07 
-8.0000000000000004e-01 -5.5314224103994336e-01 +7.2463432912890298e+00 +6.0033915305876731e+00 -1.8592648313062799e+02 -1.0809549743929865e+04 +9.2909925291048829e+05 +8.3689515264322817e+07 
-8.4999999999999998e-01 -5.5314857686348262e-01 +7.2466763484418051e+00 +5.9861585093607781e+00 -1.8565252155354773e+02 -1.0607885562522753e+04 +9.2708527719460928e+05 +8.2488702873763010e+07 
-9.0000000000000002e-01 -5.5315529344573600e-01 +7.2470282216708695e+00 +5.9685724124812802e+00 -1.8532935468822683e+02 -1.0408021126608906e+04 +9.2477228869872075e+05 +8.1297729674596116e+07 
-9.4999999999999996e-01 -5.5316239012990454e-01 +7.2473988906927893e+00 +5.9506525986669070e+00 -1.8495813583356770e+02 -1.0210304656185441e+04 +9.2216829382070771e+05 +8.0118611040891185e+07 
-1.0000000000000000e+00 -5.5316986625924969e-01 +7.2477883352164536e+00 +5.9324184216822404e+00 -1.8454001796413039e+02 -1.0015084248349749e+04 +9.1928129634334135e+05 +7.8953361554005265e+07 
-1.0500000000000000e+00 -5.5317772117702102e-01 +7.2481965349613624e+00 +5.9138892431709618e+00 -1.8407615445948215e+02 -9.8227082034753312e+03 +9.1611930338543956e+05 +7.7803997133412629e+07 
-1.1000000000000001e+00 -5.5318595422643790e-01 +7.2486234696384111e+00 +5.8950844176016322e+00 -1.8356769831638019e+02 -9.6335246381852721e+03 +9.1269031892240711e+05 +7.6672532493385971e+07 
-1.1499999999999999e+00 -5.5319456475080397e-01 +7.2490691189627077e+00 +5.8760233015895880e+00 -1.8301580268009175e+02 -9.4478817235038969e+03 +9.0900234813532466e+05 +7.5560982703267202e+07 
-1.2000000000000000e+00 -5.5320355209341399e-01 +7.2495334626491781e+00 +5.8567252526022946e+00 -1.8242162066952318e+02 -9.2661276570214650e+03 +9.0506339603090577e+05 +7.4471363022265807e+07 
-1.2500000000000000e+00 -5.5321291559757568e-01 +7.2500164804121807e+00 +5.8372096270002105e+00 -1.8178630535809168e+02 -9.0886106035910107e+03 +9.0088146725751774e+05 +7.3405688478414208e+07 
-1.3000000000000000e+00 -5.5322265460661169e-01 +7.2505181519654913e+00 +5.8174957817824735e+00 -1.8111100975769511e+02 -8.9156787535251533e+03 +8.9646456591911812e+05 +7.2365974303823262e+07 
-1.3500000000000001e+00 -5.5323276846386116e-01 +7.2510384570265431e+00 +5.7976030735687818e+00 -1.8039688702949172e+02 -8.7476802811759717e+03 +8.9182069744080771e+05 +7.1354235597482577e+07 
-1.3999999999999999e+00 -5.5324325651265238e-01 +7.2515773753069475e+00 +5.7775508590006304e+00 -1.7964509004697973e+02 -8.5849633636126982e+03 +8.8695786479938915e+05 +7.0372487486394912e+07 
-1.4500000000000000e+00 -5.5325411809640157e-01 +7.2521348865226951e+00 +5.7573584941451790e+00 -1.7885677186726218e+02 -8.4278761687717069e+03 +8.8188407257387880e+05 +6.9422745057555214e+07 
-1.5000000000000000e+00 -5.5326535255844700e-01 +7.2527109703885175e+00 +5.7370453365148251e+00 -1.7803308545759052e+02 -8.2767668969433962e+03 +8.7660732458727784e+05 +6.8507023591936037e+07 
-1.5500000000000000e+00 -5.5327695924220677e-01 +7.2533056066177082e+00 +5.7166307413497472e+00 -1.7717518371344437e+02 -8.1319836926165744e+03 +8.7113562409758929e+05 +6.7627338015398040e+07 
-1.6000000000000001e+00 -5.5328893749110220e-01 +7.2539187749239105e+00 +5.6961340668490603e+00 -1.7628421951620231e+02 -7.9938747818918509e+03 +8.6547697423053090e+05 +6.6785703806743540e+07 
-1.6499999999999999e+00 -5.5330128664855371e-01 +7.2545504550215050e+00 +5.6755746676200935e+00 -1.7536134576227684e+02 -7.8627882900920167e+03 +8.5963937828424259e+05 +6.5984135752239361e+07 
-1.7000000000000000e+00 -5.5331400605801795e-01 +7.2552006266231110e+00 +5.6549719026059471e+00 -1.7440771526516812e+02 -7.7390724649436888e+03 +8.5363083891293744e+05 +6.5224649484293684e+07 
-1.7500000000000000e+00 -5.5332709506294209e-01 +7.2558692694425933e+00 +5.6343451260358082e+00 -1.7342448084560351e+02 -7.6230754244127193e+03 +8.4745935876454529e+05 +6.4509259748278998e+07 
-1.8000000000000000e+00 -5.5334055300678231e-01 +7.2565563631923347e+00 +5.6137136962190581e+00 -1.7241279527549247e+02 -7.5151453997797462e+03 +8.4113294022677629e+05 +6.3839982065533847e+07 
-1.8500000000000001e+00 -5.5335437923305542e-01 +7.2572618875833150e+00 +5.5930969696362398e+00 -1.7137381122598003e+02 -7.4156305706886678e+03 +8.3465958475885936e+05 +6.3218831600687847e+07 
-1.8999999999999999e+00 -5.5336857308528253e-01 +7.2579858223293909e+00 +5.5725143013690595e+00 -1.7030868149014071e+02 -7.3248790816820901e+03 +8.2804729494155571e+05 +6.2647823289056234e+07 
-1.9500000000000000e+00 -5.5338313390693927e-01 +7.2587281471398697e+00 +5.5519850497143359e+00 -1.6921855862892528e+02 -7.2432391653029836e+03 +8.2130407137069362e+05 +6.2128972666322768e+07 
-2.0000000000000000e+00 -5.5339806104159506e-01 +7.2594888417258874e+00 +5.5315285732091235e+00 -1.6810459528688207e+02 -7.1710590612895458e+03 +8.1443791542798083e+05 +6.1664295317565046e+07 
-2.0499999999999998e+00 -5.5341335356814958e-01 +7.2602678655421302e+00 +5.5111586021229222e+00 -1.6696781692905597e+02 -7.1085601534888965e+03 +8.0745578831563611e+05 +6.1255059763835572e+07 
-2.1000000000000001e+00 -5.5342900950341667e-01 +7.2610650994679702e+00 +5.4908663714820793e+00 -1.6580873964047615e+02 -7.0554570849076781e+03 +8.0036046150356263e+05 +6.0899554330676153e+07 
-2.1499999999999999e+00 -5.5344502659762917e-01 +7.2618804015815970e+00 +5.4706376828214216e+00 -1.6462775703941301e+02 -7.0113372804205892e+03 +7.9315365075149271e+05 +6.0595319840660304e+07 
-2.2000000000000002e+00 -5.5346140260111687e-01 +7.2627136299585473e+00 +5.4504583393191401e+00 -1.6342526261603263e+02 -6.9757882132952391e+03 +7.8583707069521432e+05 +6.0339897459215589e+07 
-2.2500000000000000e+00 -5.5347813526420131e-01 +7.2635646426757683e+00 +5.4303141450848358e+00 -1.6220164989888491e+02 -6.9483973791332710e+03 +7.7841243628464243e+05 +6.0130828490955539e+07 
-2.2999999999999998e+00 -5.5349522233722381e-01 +7.2644332978115456e+00 +5.4101909012472982e+00 -1.6095731246689155e+02 -6.9287521975916716e+03 +7.7088146293849067e+05 +5.9965653745634988e+07 
-2.3500000000000001e+00 -5.5351266157049250e-01 +7.2653194534449508e+00 +5.3900744149822231e+00 -1.5969264391312575e+02 -6.9164402479250411e+03 +7.6324586618706479e+05 +5.9841915093977369e+07 
-2.3999999999999999e+00 -5.5353045071436269e-01 +7.2662229676536692e+00 +5.3699504855535771e+00 -1.5840803775096427e+02 -6.9110488964999358e+03 +7.5550736086497025e+05 +5.9757152975012429e+07 
-2.4500000000000002e+00 -5.5354858751917990e-01 +7.2671436985176836e+00 +5.3498049183369716e+00 -1.5710388758855100e+02 -6.9121656772318756e+03 +7.4766766266004089e+05 +5.9708908966775626e+07 
-2.5000000000000000e+00 -5.5356706973536074e-01 +7.2680815041177649e+00 +5.3296235152228979e+00 -1.5578058705026197e+02 -6.9193780280031715e+03 +7.3972848736340355e+05 +5.9694723990704499e+07 
-2.5499999999999998e+00 -5.5358589511326428e-01 +7.2690362425335131e+00 +5.3093920798083341e+00 -1.5443852969479568e+02 -6.9322734316845435e+03 +7.3169155023671023e+05 +5.9712139268158376e+07 
-2.6000000000000001e+00 -5.5360506140324839e-01 +7.2700077718461262e+00 +5.2890964141186139e+00 -1.5307810913638292e+02 -6.9504393315422249e+03 +7.2355856700663443e+05 +5.9758695763002910e+07 
-2.6499999999999999e+00 -5.5362456635577562e-01 +7.2709959501411046e+00 +5.2687223226365179e+00 -1.5169971916489962e+02 -6.9734632355499516e+03 +7.1533125488542288e+05 +5.9831934871267073e+07 
-2.7000000000000002e+00 -5.5364440772120271e-01 +7.2720006354965676e+00 +5.2482556080003704e+00 -1.5030375323606702e+02 -7.0009326008872849e+03 +7.0701132826918398e+05 +5.9929397640125990e+07 
-2.7500000000000000e+00 -5.5366458324996770e-01 +7.2730216860007602e+00 +5.2276820718630734e+00 -1.4889060522962097e+02 -7.0324348613673264e+03 +6.9860050512287102e+05 +6.0048624970902652e+07 
-2.7999999999999998e+00 -5.5368509069253258e-01 +7.2740589597358580e+00 +5.2069875179207967e+00 -1.4746066875774554e+02 -7.0675575008560818e+03 +6.9010050116738281e+05 +6.0187158084741861e+07 
-2.8500000000000001e+00 -5.5370592779928052e-01 +7.2751123147879149e+00 +5.1861577488976485e+00 -1.4601433758401996e+02 -7.1058879815114078e+03 +6.8151303341410926e+05 +6.0342538071477324e+07 
-2.8999999999999999e+00 -5.5372709232068829e-01 +7.2761816092435900e+00 +5.1651785678646203e+00 -1.4455200548922627e+02 -7.1470137718147935e+03 +6.7283981900214183e+05 +6.0512306054673165e+07 
-2.9500000000000002e+00 -5.5374858200719745e-01 +7.2772667011901362e+00 +5.1440357753711945e+00 -1.4307406626528140e+02 -7.1905222732500697e+03 +6.6408257515198807e+05 +6.0694002705243580e+07 
-3.0000000000000000e+00 -5.5377039460929134e-01 +7.2783674487129391e+00 +5.1227151769548627e+00 -1.4158091362422934e+02 -7.2360010173112996e+03 +6.5524301846130250e+05 +6.0885169557992049e+07 
-3.0499999999999998e+00 -5.5379252787740030e-01 +7.2794837099042793e+00 +5.1012025733647803e+00 -1.4007294154882200e+02 -7.2830374160761676e+03 +6.4632286774486129e+05 +6.1083347375626855e+07 
-3.1000000000000001e+00 -5.5381497956207271e-01 +7.2806153428534746e+00 +5.0794837691425689e+00 -1.3855054389857634e+02 -7.3312189707612361e+03 +6.3732384080890310e+05 +6.1286077475782998e+07 
-3.1499999999999999e+00 -5.5383774741375935e-01 +7.2817622056502129e+00 +5.0575445652941795e+00 -1.3701411453902665e+02 -7.3801330970790823e+03 +6.2824765552748565e+05 +6.1490900634200118e+07 
-3.2000000000000002e+00 -5.5386082918294932e-01 +7.2829241563875300e+00 +5.0353707630933009e+00 -1.3546404746700389e+02 -7.4293672101446646e+03 +6.1909603085677605e+05 +6.1695357590436429e+07 
-3.2500000000000000e+00 -5.5388422262013226e-01 +7.2841010531578405e+00 +5.0129481673293395e+00 -1.3390073664502486e+02 -7.4785088248920501e+03 +6.0987068545945652e+05 +6.1896989782201402e+07 
-3.2999999999999998e+00 -5.5390792547584233e-01 +7.2852927540545558e+00 +4.9902625801325531e+00 -1.3232457606794321e+02 -7.5271453807164398e+03 +6.0057333825778367e+05 +6.2093338116989225e+07 
-3.3500000000000001e+00 -5.5393193550061293e-01 +7.2864991171736362e+00 +4.9672998019771750e+00 -1.3073595984561663e+02 -7.5748642726505177e+03 +5.9120570917766250e+05 +6.2281943208280206e+07 
-3.3999999999999999e+00 -5.5395625044493524e-01 +7.2877200006119649e+00 +4.9440456386367480e+00 -1.2913528210215924e+02 -7.6212530360337787e+03 +5.8176951821354986e+05 +6.2460346604830191e+07 
-3.4500000000000002e+00 -5.5398086805934788e-01 +7.2889552624641425e+00 +4.9204858894014682e+00 -1.2752293688077897e+02 -7.6658990348662592e+03 +5.7226648473830055e+05 +6.2626088711407222e+07 
-3.5000000000000000e+00 -5.5400578609439566e-01 +7.2902047608342375e+00 +4.8966063577574923e+00 -1.2589931859643804e+02 -7.7083897411542794e+03 +5.6269833115448791e+05 +6.2776710643483795e+07 
-3.5499999999999998e+00 -5.5403100230061753e-01 +7.2914683538137890e+00 +4.8723928453610981e+00 -1.2426482114799130e+02 -7.7483125807265524e+03 +5.5306677561434743e+05 +6.2909753217001639e+07 
-3.6000000000000001e+00 -5.5405651442859483e-01 +7.2927458995116394e+00 +4.8478311552611526e+00 -1.2261983915829974e+02 -7.7852550109257318e+03 +5.4337354229953198e+05 +6.3022757435521200e+07 
-3.6499999999999999e+00 -5.5408232022880199e-01 +7.2940372560245290e+00 +4.8229070896695916e+00 -1.2096476672621375e+02 -7.8188044728045370e+03 +5.3362035100238759e+05 +6.3113264219594970e+07 
-3.6999999999999900e+00 -5.5410841745186989e-01 +7.2953422814579003e+00 +4.7976064490100665e+00 -1.1929999832718191e+02 -7.8485483523802823e+03 +5.2380892467115162e+05 +6.3178814090666085e+07 
-3.7499999999999898e+00 -5.5413480384835168e-01 +7.2966608339169188e+00 +4.7719150377196655e+00 -1.1762592840746021e+02 -7.8740741435674772e+03 +5.1394098597252037e+05 +6.3216948296367705e+07 
-3.7999999999999901e+00 -5.5416147716878683e-01 +7.2979927715080235e+00 +4.7458186569178462e+00 -1.1594295147081721e+02 -7.8949692508837907e+03 +5.0401825807130197e+05 +6.3225207483455151e+07 
-3.8499999999999899e+00 -5.5418843516380356e-01 +7.2993379523364954e+00 +4.7193031088261748e+00 -1.1425146198156652e+02 -7.9108211109593085e+03 +4.9404246383431565e+05 +6.3201132522981346e+07 
-3.8999999999999901e+00 -5.5421567558393581e-01 +7.3006962345128743e+00 +4.6923541961020279e+00 -1.1255185460912365e+02 -7.9212171637352121e+03 +4.8401532778706425e+05 +6.3142264276962601e+07 
-3.9499999999999900e+00 -5.5424319617981177e-01 +7.3020674761456048e+00 +4.6649577190590925e+00 -1.1084452394107566e+02 -7.9257447900572288e+03 +4.7393857378917810e+05 +6.3046143224363513e+07 
-3.9999999999999898e+00 -5.5427099470197150e-01 +7.3034515353466753e+00 +4.6370994804133217e+00 -1.0912986470331968e+02 -7.9239914342592974e+03 +4.6381392686385446e+05 +6.2910310269379579e+07 
-4.0499999999999901e+00 -5.5429906880395396e-01 +7.3048482717467635e+00 +4.6087699407759848e+00 -1.0740853518491183e+02 -7.9156504342063390e+03 +4.5364504207215994e+05 +6.2732952063240334e+07 
-4.0999999999999899e+00 -5.5432741575227462e-01 +7.3062575427616858e+00 +4.5799784370743470e+00 -1.0568222535624140e+02 -7.9008326571758762e+03 +4.4344315155953902e+05 +6.2514791651199833e+07 
-4.1499999999999897e+00 -5.5435603271702938e-01 +7.3076792032143896e+00 +4.5507391334900387e+00 -1.0395288028144623e+02 -7.8797524458065254e+03 +4.3322135734627425e+05 +6.2257178633015007e+07 
-4.1999999999999904e+00 -5.5438491686844682e-01 +7.3091131079216849e+00 +4.5210661886790788e+00 -1.0222244479358693e+02 -7.8526239828795105e+03 +4.2299275946066203e+05 +6.1961461494884141e+07 
-4.2499999999999902e+00 -5.5441406537664817e-01 +7.3105591117004041e+00 +4.4909737612701015e+00 -1.0049286372275938e+02 -7.8196614534842547e+03 +4.1277045787929825e+05 +6.1628988751228146e+07 
-4.2999999999999901e+00 -5.5444347541181083e-01 +7.3120170693700484e+00 +4.4604760147646116e+00 -9.8766082023234688e+01 -7.7810791696329952e+03 +4.0256755362413585e+05 +6.1261109753802069e+07 
-4.3499999999999899e+00 -5.5447314414410875e-01 +7.3134868357471685e+00 +4.4295871117664305e+00 -9.7044044532190071e+01 -7.7370914140282230e+03 +3.9239714672507992e+05 +6.0859173636790134e+07 
-4.3999999999999897e+00 -5.5450306874366895e-01 +7.3149682656475292e+00 +4.3983212111699270e+00 -9.5328696071532264e+01 -7.6879123680266948e+03 +3.8227233713729604e+05 +6.0424528843448497e+07 
-4.4499999999999904e+00 -5.5453324638072821e-01 +7.3164612138884815e+00 +4.3666924768177813e+00 -9.3621981528984520e+01 -7.6337563409035301e+03 +3.7220622528746596e+05 +5.9958524660290144e+07 
-4.4999999999999902e+00 -5.5456367422543329e-01 +7.3179655352849924e+00 +4.3347150710283096e+00 -9.1925845703346496e+01 -7.5748375997607309e+03 +3.6221191088888585e+05 +5.9462510081209362e+07 
-4.5499999999999901e+00 -5.5459434944795172e-01 +7.3194810846521374e+00 +4.3024031593675423e+00 -9.0242233422587105e+01 -7.5113704925390221e+03 +3.5230249394548900e+05 +5.8937834621821202e+07 
-4.5999999999999899e+00 -5.5462526921847499e-01 +7.3210077168031971e+00 +4.2697709028600910e+00 -8.8573089437079915e+01 -7.4435692474006246e+03 +3.4249107374893344e+05 +5.8385846996199325e+07 
-4.6499999999999897e+00 -5.5465643070719428e-01 +7.3225452865541341e+00 +4.2368324662503776e+00 -8.6920358625410529e+01 -7.3716481810637360e+03 +3.3279075067095883e+05 +5.7807896473865166e+07 
-4.6999999999999904e+00 -5.5468783108433639e-01 +7.3240936487158885e+00 +4.2036020169744912e+00 -8.5285985678268119e+01 -7.2958216842105903e+03 +3.2321462355149892e+05 +5.7205332821665265e+07 
-4.7499999999999902e+00 -5.5471946752002366e-01 +7.3256526581004389e+00 +4.1700937174865444e+00 -8.3671915323852375e+01 -7.2163040070656780e+03 +3.1377579148048221e+05 +5.6579504840680130e+07 
-4.7999999999999901e+00 -5.5475133718447978e-01 +7.3272221695206019e+00 +4.1363217347023324e+00 -8.2080092362887910e+01 -7.1333095154120347e+03 +3.0448735422663752e+05 +5.5931762086374924e+07 
-4.8499999999999899e+00 -5.5478343724788048e-01 +7.3288020377860752e+00 +4.1023002368421331e+00 -8.0512461458970961e+01 -7.0470526125065644e+03 +2.9536241033261549e+05 +5.5263454379309259e+07 
-4.8999999999999897e+00 -5.5481576488048934e-01 +7.3303921177073388e+00 +4.0680433883602340e+00 -7.8970967347199689e+01 -6.9577475849480015e+03 +2.8641405901698233e+05 +5.4575930692569137e+07 
-4.9499999999999904e+00 -5.5484831725240102e-01 +7.3319922640932278e+00 +4.0335653579061450e+00 -7.7457554680096223e+01 -6.8656088384514269e+03 +2.7765539871614188e+05 +5.3870540824603476e+07 
-4.9999999999999902e+00 -5.5488109153390142e-01 +7.3336023317525019e+00 +3.9988803150449468e+00 -7.5974168147401073e+01 -6.7708507935156422e+03 +2.6909952823651477e+05 +5.3148634634747788e+07 
-5.0499999999999901e+00 -5.5491408489749139e-01 +7.3352221670444830e+00 +3.9640028441059418e+00 -7.4522759738316665e+01 -6.6736875251716419e+03 +2.6075953853193321e+05 +5.2411560033543639e+07 
