# multipoles
# s[mm] polynom_b[n=0][T/m^n] polynom_b[n=1][T/m^n] polynom_b[n=2][T/m^n] polynom_b[n=3][T/m^n] polynom_b[n=4][T/m^n] polynom_b[n=5][T/m^n] polynom_b[n=6][T/m^n] 
+0.0000000000000000e+00 -5.7795772161200376e-01 +7.6028368618346933e+00 +5.8737329901864888e+00 -5.1582999813542578e+01 +8.7956163142963032e+03 +1.0293299736139621e+05 -5.6474868726264745e+07 
-5.0000000000000003e-02 -5.7795840723138736e-01 +7.6028645326305595e+00 +5.8756304669395591e+00 -5.1843808461873394e+01 +8.7326037653636722e+03 +1.0479575378045264e+05 -5.6005369798835695e+07 
-1.0000000000000001e-01 -5.7795946362074757e-01 +7.6029131624599957e+00 +5.8767108956473155e+00 -5.2100611895530349e+01 +8.6784278364222537e+03 +1.0658983326849638e+05 -5.5593330126195006e+07 
-1.5000000000000002e-01 -5.7796089011859952e-01 +7.6029826662366053e+00 +5.8769868302768726e+00 -5.2353356357331883e+01 +8.6328043577265544e+03 +1.0831780917072674e+05 -5.5236899776419371e+07 
-2.0000000000000001e-01 -5.7796268606345413e-01 +7.6030729588746446e+00 +5.8764708198359692e+00 -5.2601988105082214e+01 +8.5954493027644621e+03 +1.0998225502463314e+05 -5.4934229818389952e+07 
-2.5000000000000000e-01 -5.7796485079384974e-01 +7.6031839552897678e+00 +5.8751754156413680e+00 -5.2846453399834026e+01 +8.5660785762336582e+03 +1.1158574430269108e+05 -5.4683470831031017e+07 
-2.9999999999999999e-01 -5.7796738364835132e-01 +7.6033155703990642e+00 +5.8731131704748023e+00 -5.3086698554935346e+01 +8.5444080479993627e+03 +1.1313085100243990e+05 -5.4482773177540898e+07 
-3.4999999999999998e-01 -5.7797028396551675e-01 +7.6034677191193172e+00 +5.8702966327165003e+00 -5.3322669832297187e+01 +8.5301537044087399e+03 +1.1462014866711869e+05 -5.4330287996178426e+07 
-3.9999999999999997e-01 -5.7797355108394399e-01 +7.6036403163697015e+00 +5.8667383547707397e+00 -5.3554313568511020e+01 +8.5230314226380160e+03 +1.1605621147984416e+05 -5.4224165685079359e+07 
-4.4999999999999996e-01 -5.7797718434224266e-01 +7.6038332770698585e+00 +5.8624508878652213e+00 -5.3781576087076310e+01 +8.5227571155338665e+03 +1.1744161350012753e+05 -5.4162556901055567e+07 
-4.9999999999999994e-01 -5.7798118307903557e-01 +7.6040465161389026e+00 +5.8574467825147343e+00 -5.4004403674977006e+01 +8.5290467137697015e+03 +1.1877892855195973e+05 -5.4143612412879899e+07 
-5.4999999999999993e-01 -5.7798554663296187e-01 +7.6042799485003663e+00 +5.8517385895190799e+00 -5.4222742762706694e+01 +8.5416161381282527e+03 +1.2007073160340056e+05 -5.4165482918202817e+07 
-5.9999999999999998e-01 -5.7799027434267647e-01 +7.6045334890740399e+00 +5.8453388590499333e+00 -5.4436539598953367e+01 +8.5601813279109720e+03 +1.2131959612788659e+05 -5.4226319241589084e+07 
-6.5000000000000002e-01 -5.7799536554686981e-01 +7.6048070527850236e+00 +5.8382601445193583e+00 -5.4645740623270278e+01 +8.5844581369662010e+03 +1.2252809718070590e+05 -5.4324271641722314e+07 
-7.0000000000000007e-01 -5.7800081958421745e-01 +7.6051005545548422e+00 +5.8305149938975820e+00 -5.4850292112486386e+01 +8.6141625629461996e+03 +1.2369880852553702e+05 -5.4457491333764985e+07 
-7.5000000000000011e-01 -5.7800663579342626e-01 +7.6054139093104727e+00 +5.8221159577445789e+00 -5.5050140522364835e+01 +8.6490105365882046e+03 +1.2483430533006581e+05 -5.4624129099194661e+07 
-8.0000000000000016e-01 -5.7801281351323486e-01 +7.6057470319777769e+00 +5.8130755891754573e+00 -5.5245232251929792e+01 +8.6887179174534613e+03 +1.2593716237023889e+05 -5.4822335224623196e+07 
-8.5000000000000020e-01 -5.7801935208237476e-01 +7.6060998374792543e+00 +5.8034064374153411e+00 -5.5435513522569003e+01 +8.7330006690924220e+03 +1.2700995290746895e+05 -5.5050260700369641e+07 
-9.0000000000000024e-01 -5.7802625083960357e-01 +7.6064722407440719e+00 +5.7931210530892905e+00 -5.5620930811108451e+01 +8.7815747197694000e+03 +1.2805525234471205e+05 -5.5306056287185743e+07 
-9.5000000000000029e-01 -5.7803350912370388e-01 +7.6068641566993325e+00 +5.7822319886890838e+00 -5.5801430469264481e+01 +8.8341559442512607e+03 +1.2907563500026175e+05 -5.5587872374691933e+07 
-1.0000000000000002e+00 -5.7804112627344484e-01 +7.6072755002745351e+00 +5.7707517912882507e+00 -5.5976958941449126e+01 +8.8904603638572353e+03 +1.3007367604979362e+05 -5.5893860343840234e+07 
-1.0500000000000003e+00 -5.7804910162764478e-01 +7.6077061863989481e+00 +5.7586930136529286e+00 -5.6147462613718488e+01 +8.9502038503800777e+03 +1.3105195009432091e+05 -5.6222170584482349e+07 
-1.1000000000000003e+00 -5.7805743452513203e-01 +7.6081561299984619e+00 +5.7460682081127308e+00 -5.6312887723511665e+01 +9.0131022789440412e+03 +1.3201303057305067e+05 -5.6570953477576584e+07 
-1.1500000000000004e+00 -5.7806612430472726e-01 +7.6086252460079891e+00 +5.7328899225662093e+00 -5.6473180837640932e+01 +9.0788716476557183e+03 +1.3295949358949362e+05 -5.6938360249177977e+07 
-1.2000000000000004e+00 -5.7807517030528599e-01 +7.6091134493564683e+00 +5.7191707079425136e+00 -5.6628288264251509e+01 +9.1472278753530245e+03 +1.3389391316234894e+05 -5.7322541601843722e+07 
-1.2500000000000004e+00 -5.7808457186568663e-01 +7.6096206549738756e+00 +5.7049231170244648e+00 -5.6778156310626578e+01 +9.2178868261277748e+03 +1.3481886324121061e+05 -5.7721647852749757e+07 
-1.3000000000000005e+00 -5.7809432832480545e-01 +7.6101467777941600e+00 +5.6901596991533836e+00 -5.6922731433452199e+01 +9.2905644575955776e+03 +1.3573691903804147e+05 -5.8133829954201065e+07 
-1.3500000000000005e+00 -5.7810443902153719e-01 +7.6106917327491725e+00 +5.6748930044576849e+00 -5.7061959980283646e+01 +9.3649767060215800e+03 +1.3665065488773538e+05 -5.8557238718038328e+07 
-1.4000000000000006e+00 -5.7811490329479631e-01 +7.6112554347711043e+00 +5.6591355841337725e+00 -5.7195788272545599e+01 +9.4408394740817130e+03 +1.3756264485561775e+05 -5.8990024710871018e+07 
-1.4500000000000006e+00 -5.7812572048350952e-01 +7.6118377987933394e+00 +5.6428999881821209e+00 -5.7324162653925356e+01 +9.5178687026166917e+03 +1.3847546317232371e+05 -5.9430338785482198e+07 
-1.5000000000000007e+00 -5.7813688992662593e-01 +7.6124387397527347e+00 +5.6261987683566588e+00 -5.7447029594275897e+01 +9.5957802816429758e+03 +1.3939168514279815e+05 -5.9876331437982917e+07 
-1.5500000000000007e+00 -5.7814841096310510e-01 +7.6130581725799509e+00 +5.6090444758343230e+00 -5.7564335281668200e+01 +9.6742901134627991e+03 +1.4031388374861848e+05 -6.0326153239598520e+07 
-1.6000000000000008e+00 -5.7816028293191490e-01 +7.6136960122126327e+00 +5.5914496605820849e+00 -5.7676026153779937e+01 +9.7531141318067585e+03 +1.4124463396893896e+05 -6.0777954970458806e+07 
-1.6500000000000008e+00 -5.7817250517204200e-01 +7.6143521735837334e+00 +5.5734268729779366e+00 -5.7782048437151246e+01 +9.8319682645870162e+03 +1.4218650906470497e+05 -6.1229887396798968e+07 
-1.7000000000000008e+00 -5.7818507702249489e-01 +7.6150265716303052e+00 +5.5549886653114697e+00 -5.7882348502737770e+01 +9.9105683778501643e+03 +1.4314208349182198e+05 -6.1680100828721806e+07 
-1.7500000000000009e+00 -5.7819799782228354e-01 +7.6157191212872943e+00 +5.5361475868663135e+00 -5.7976872598403382e+01 +9.9886304278903226e+03 +1.4411393063889098e+05 -6.2126746226377934e+07 
-1.8000000000000009e+00 -5.7821126691043723e-01 +7.6164297374935845e+00 +5.5169161888373175e+00 -5.8065567108383057e+01 +1.0065870306402287e+04 +1.4510462500844250e+05 -6.2567974065165877e+07 
-1.8500000000000010e+00 -5.7822488362601288e-01 +7.6171583351812586e+00 +5.4973070239402508e+00 -5.8148378123929461e+01 +1.0142003874523252e+04 +1.4611673872554619e+05 -6.3001934660888933e+07 
-1.9000000000000010e+00 -5.7823884730805664e-01 +7.6179048292911462e+00 +5.4773326411684939e+00 -5.8225252057594659e+01 +1.0216747082326085e+04 +1.4715284651012349e+05 -6.3426778885370709e+07 
-1.9500000000000011e+00 -5.7825315729564952e-01 +7.6186691347593269e+00 +5.4570055925719396e+00 -5.8296135103798029e+01 +1.0289815805734504e+04 +1.4821552127498141e+05 -6.3840657149951257e+07 
-2.0000000000000009e+00 -5.7826781292787854e-01 +7.6194511665207711e+00 +5.4363384295072086e+00 -5.8360973377248818e+01 +1.0360925930535093e+04 +1.4930733524302268e+05 -6.4241719898824222e+07 
-2.0500000000000007e+00 -5.7828281333000864e-01 +7.6202508335130021e+00 +5.4153439229325802e+00 -5.8419810904484201e+01 +1.0429818862706887e+04 +1.5043082500664840e+05 -6.4628334377134956e+07 
-2.1000000000000005e+00 -5.7829815677167862e-01 +7.6210680155198460e+00 +5.3940358392782217e+00 -5.8473134507813924e+01 +1.0496342569514583e+04 +1.5158865726949484e+05 -6.4999747032154948e+07 
-2.1500000000000004e+00 -5.7831384130851449e-01 +7.6219025837576497e+00 +5.3724282242623502e+00 -5.8521555344537738e+01 +1.0560373064032065e+04 +1.5278359940015423e+05 -6.5355428920346960e+07 
-2.2000000000000002e+00 -5.7832986499618588e-01 +7.6227544094408612e+00 +5.3505351287342293e+00 -5.8565684472083802e+01 +1.0621786225811571e+04 +1.5401841789543227e+05 -6.5694850212982282e+07 
-2.2500000000000000e+00 -5.7834622589034890e-01 +7.6236233637857671e+00 +5.3283705990861749e+00 -5.8606133021472992e+01 +1.0680458054884602e+04 +1.5529587991561252e+05 -6.6017481897888415e+07 
-2.2999999999999998e+00 -5.7836292204667572e-01 +7.6245093180063837e+00 +5.3059486829961733e+00 -5.8643512013639970e+01 +1.0736264513390282e+04 +1.5661875171287384e+05 -6.6322794696465723e+07 
-2.3499999999999996e+00 -5.7837995152085819e-01 +7.6254121433163435e+00 +5.2832834295467448e+00 -5.8678432446243811e+01 +1.0789081524820471e+04 +1.5798979936706225e+05 -6.6610259065027729e+07 
-2.3999999999999995e+00 -5.7839731236860192e-01 +7.6263317109316988e+00 +5.2603888876544005e+00 -5.8711505419754637e+01 +1.0838785024750758e+04 +1.5941178989227905e+05 -6.6879345572707556e+07 
-2.4499999999999993e+00 -5.7841500264561219e-01 +7.6272678920659018e+00 +5.2372791050489296e+00 -5.8743341909473877e+01 +1.0885250974530029e+04 +1.6088748924196183e+05 -6.7129524940527737e+07 
-2.4999999999999991e+00 -5.7843302040760780e-01 +7.6282205579337514e+00 +5.2139681295016604e+00 -5.8774552940103845e+01 +1.0928355335953773e+04 +1.6241966381393874e+05 -6.7360267897170246e+07 
-2.5499999999999989e+00 -5.7845136371032368e-01 +7.6291895797460123e+00 +5.1904700100888999e+00 -5.8805749371613672e+01 +1.0967974036100559e+04 +1.6401107869292196e+05 -6.7571044940640628e+07 
-2.5999999999999988e+00 -5.7847003060950064e-01 +7.6301748287197579e+00 +5.1667987948632907e+00 -5.8837542320371881e+01 +1.1003983032955533e+04 +1.6566450113371678e+05 -6.7761326792535514e+07 
-2.6499999999999986e+00 -5.7848901916089934e-01 +7.6311761760644012e+00 +5.1429685336017616e+00 -5.8870542575552896e+01 +1.1036258234473396e+04 +1.6738269567796410e+05 -6.7930583818672359e+07 
-2.6999999999999984e+00 -5.7850832742028069e-01 +7.6321934929940598e+00 +5.1189932745611575e+00 -5.8905361127118752e+01 +1.1064675593099228e+04 +1.6916842860549613e+05 -6.8078286705280453e+07 
-2.7499999999999982e+00 -5.7852795344342356e-01 +7.6332266507197604e+00 +5.0948870674063693e+00 -5.8942608829683422e+01 +1.1089111022197982e+04 +1.7102446508509989e+05 -6.8203905866920114e+07 
-2.7999999999999980e+00 -5.7854789528610062e-01 +7.6342755204524062e+00 +5.0706639588386091e+00 -5.8982896545700811e+01 +1.1109440517394234e+04 +1.7295357045103094e+05 -6.8306912283775777e+07 
-2.8499999999999979e+00 -5.7856815100411219e-01 +7.6353399734045633e+00 +5.0463379991201238e+00 -5.9026835191230305e+01 +1.1125539977298096e+04 +1.7495851044711805e+05 -6.8386776279253095e+07 
-2.8999999999999977e+00 -5.7858871865327299e-01 +7.6364198807845565e+00 +5.0219232392124438e+00 -5.9075035511491542e+01 +1.1137285281587074e+04 +1.7704204947351606e+05 -6.8442968044866845e+07 
-2.9499999999999975e+00 -5.7860959628938180e-01 +7.6375151138010731e+00 +4.9974337255286372e+00 -5.9128108276777375e+01 +1.1144552438969467e+04 +1.7920695221113393e+05 -6.8474958672946408e+07 
-2.9999999999999973e+00 -5.7863078196826645e-01 +7.6386255436643156e+00 +4.9728835086284748e+00 -5.9186664319935531e+01 +1.1147217339401579e+04 +1.8145598388321229e+05 -6.8482218424303204e+07 
-3.0499999999999972e+00 -5.7865227374576911e-01 +7.6397510415815617e+00 +4.9482866397166880e+00 -5.9251314350537058e+01 +1.1145155860617460e+04 +1.8379190872184339e+05 -6.8464217497830093e+07 
-3.0999999999999970e+00 -5.7867406967771118e-01 +7.6408914787614410e+00 +4.9236571649706038e+00 -5.9322669151645322e+01 +1.1138244015162361e+04 +1.8621749166398682e+05 -6.8420426999750823e+07 
-3.1499999999999968e+00 -5.7869616781995714e-01 +7.6420467264072238e+00 +4.8990091364640858e+00 -5.9401339283068339e+01 +1.1126357660496476e+04 +1.8873549582753502e+05 -6.8350317004055560e+07 
-3.1999999999999966e+00 -5.7871856622836737e-01 +7.6432166557283709e+00 +4.8743566042174331e+00 -5.9487935560109158e+01 +1.1109372711039812e+04 +1.9134868644875055e+05 -6.8253357975845262e+07 
-3.2499999999999964e+00 -5.7874126295879835e-01 +7.6444011379274972e+00 +4.8497136169132071e+00 -5.9583068549209223e+01 +1.1087165108771769e+04 +1.9405982688343228e+05 -6.8129020532276869e+07 
-3.2999999999999963e+00 -5.7876425606712778e-01 +7.6456000442097567e+00 +4.8250942247575201e+00 -5.9687348897806778e+01 +1.1059610767603504e+04 +1.9687168107173193e+05 -6.7976775153223187e+07 
-3.3499999999999961e+00 -5.7878754360925078e-01 +7.6468132457781435e+00 +4.8005124799032872e+00 -5.9801387195418364e+01 +1.1026585546489754e+04 +1.9978701262456347e+05 -6.7796091934715688e+07 
-3.3999999999999959e+00 -5.7881112364103782e-01 +7.6480406138314132e+00 +4.7759824293296189e+00 -5.9925793858813229e+01 +1.0987965440391836e+04 +2.0280858374627974e+05 -6.7586441879276007e+07 
-3.4499999999999957e+00 -5.7883499421840279e-01 +7.6492820195758151e+00 +4.7515181261726571e+00 -6.0061179633769804e+01 +1.0943626282369476e+04 +2.0593915945536352e+05 -6.7347294908859804e+07 
-3.4999999999999956e+00 -5.7885915339724658e-01 +7.6505373342076517e+00 +4.7271336198796430e+00 -6.0208154851007180e+01 +1.0893444009814444e+04 +2.0918150133172574e+05 -6.7078121671818383e+07 
-3.5499999999999954e+00 -5.7888359923349186e-01 +7.6518064289260526e+00 +4.7028429629945139e+00 -6.0367329989362858e+01 +1.0837294472679652e+04 +2.1253837232237222e+05 -6.6778392208839901e+07 
-3.5999999999999952e+00 -5.7890832978304785e-01 +7.6530891749293639e+00 +4.6786602041968823e+00 -6.0539315500370364e+01 +1.0775053630134626e+04 +2.1601253516394217e+05 -6.6447577315775394e+07 
-3.6499999999999950e+00 -5.7893334310183997e-01 +7.6543854434165155e+00 +4.6545993943424468e+00 -6.0724721879757027e+01 +1.0706597380479825e+04 +2.1960675306027953e+05 -6.6085147369231895e+07 
-3.6999999999999948e+00 -5.7895863724581920e-01 +7.6556951055795590e+00 +4.6306745871988717e+00 -6.0924159343498552e+01 +1.0631801548957174e+04 +2.2332378690425510e+05 -6.5690572272489309e+07 
-3.7499999999999947e+00 -5.7898421027090996e-01 +7.6570180326137507e+00 +4.6068998312076808e+00 -6.1138238276823841e+01 +1.0550542104461359e+04 +2.2716639916130147e+05 -6.5263322899026044e+07 
-3.7999999999999945e+00 -5.7901006023306523e-01 +7.6583540957125109e+00 +4.5832891788971839e+00 -6.1367568988269745e+01 +1.0462694904463111e+04 +2.3113735163713404e+05 -6.4802869361966774e+07 
-3.8499999999999943e+00 -5.7903618518824729e-01 +7.6597031660671666e+00 +4.5598566833251803e+00 -6.1612761732513945e+01 +1.0368135797280749e+04 +2.3523940583219193e+05 -6.4308681733310349e+07 
-3.8999999999999941e+00 -5.7906258319240500e-01 +7.6610651148682782e+00 +4.5366163941489264e+00 -6.1874426740944159e+01 +1.0266740725219341e+04 +2.3947532308037337e+05 -6.3780230727956511e+07 
-3.9499999999999940e+00 -5.7908925230151331e-01 +7.6624398133048892e+00 +4.5135823652908424e+00 -6.2153174203365296e+01 +1.0158385511268727e+04 +2.4384786444576221e+05 -6.3216986236567989e+07 
-3.9999999999999938e+00 -5.7911619057153652e-01 +7.6638271325634664e+00 +4.4907686472648454e+00 -6.2449614236487655e+01 +1.0042946079066907e+04 +2.4835979054789702e+05 -6.2618418857688338e+07 
-4.0499999999999936e+00 -5.7914339588001662e-01 +7.6652269341179773e+00 +4.4681835178383649e+00 -6.2764140892243930e+01 +9.9203956592116701e+03 +2.5301239382906645e+05 -6.1984479009558924e+07 
-4.0999999999999934e+00 -5.7917086539000096e-01 +7.6666390334120189e+00 +4.4458125684362324e+00 -6.3096179423784520e+01 +9.7910890938665088e+03 +2.5780020092895953e+05 -6.1316984318684474e+07 
-4.1499999999999932e+00 -5.7919859608569368e-01 +7.6680632325805611e+00 +4.4236358385850529e+00 -6.3444887291037510e+01 +9.6554745398997693e+03 +2.6271582375386573e+05 -6.0618204427599758e+07 
-4.1999999999999931e+00 -5.7922658495129919e-01 +7.6694993337621122e+00 +4.4016333674604233e+00 -6.3809422112647667e+01 +9.5140001610276704e+03 +2.6775187545537896e+05 -5.9890409001841083e+07 
-4.2499999999999929e+00 -5.7925482897102309e-01 +7.6709471390881845e+00 +4.3797851944714523e+00 -6.4188941204504971e+01 +9.3671141146012960e+03 +2.7290096658920194e+05 -5.9135867664826833e+07 
-4.2999999999999927e+00 -5.7928332512907943e-01 +7.6724064506980616e+00 +4.3580713600605057e+00 -6.4582602199785583e+01 +9.2152645287190426e+03 +2.7815571026207093e+05 -5.8356849831388958e+07 
-4.3499999999999925e+00 -5.7931207040966826e-01 +7.6738770707322068e+00 +4.3364719018615840e+00 -6.4989562769232023e+01 +9.0588996085734507e+03 +2.8350871980753547e+05 -5.7555625440531075e+07 
-4.3999999999999924e+00 -5.7934106179700118e-01 +7.6753588013296561e+00 +4.3149668593758843e+00 -6.5408980526175768e+01 +8.8984675085635499e+03 +2.8895260801965313e+05 -5.6734464082897574e+07 
-4.4499999999999922e+00 -5.7937029627529035e-01 +7.6768514446330087e+00 +4.2935362720582688e+00 -6.5840013213505216e+01 +8.7344163832377471e+03 +2.9447998864300555e+05 -5.5895635342518441e+07 
-4.4999999999999920e+00 -5.7939977082873462e-01 +7.6783548027858490e+00 +4.2721601768644506e+00 -6.6281818630634589e+01 +8.5671944541271059e+03 +3.0008347590165801e+05 -5.5041409250822477e+07 
-4.5499999999999918e+00 -5.7942948244154890e-01 +7.6798686779322374e+00 +4.2508186136835224e+00 -6.6733554564348552e+01 +8.3972498642535102e+03 +3.0575568370568193e+05 -5.4174055309281893e+07 
-4.5999999999999917e+00 -5.7945942809793538e-01 +7.6813928722225935e+00 +4.2294916202758177e+00 -6.7194379075146841e+01 +8.2250308088914135e+03 +3.1148922821658832e+05 -5.3295843347282588e+07 
-4.6499999999999915e+00 -5.7948960478209499e-01 +7.6829271878003151e+00 +4.2081592336048637e+00 -6.7663449927842819e+01 +8.0509855114018410e+03 +3.1727672305911046e+05 -5.2409043405806281e+07 
-4.6999999999999913e+00 -5.7952000947824256e-01 +7.6844714268216752e+00 +4.1868014936450555e+00 -6.8139925397643808e+01 +7.8755621099429391e+03 +3.2311078591550916e+05 -5.1515924932155788e+07 
-4.7499999999999911e+00 -5.7955063917056560e-01 +7.6860253914342609e+00 +4.1653984356392053e+00 -6.8622963419411207e+01 +7.6992088690314486e+03 +3.2898403165611351e+05 -5.0618758218736075e+07 
-4.7999999999999909e+00 -5.7958149084327348e-01 +7.6875888837937874e+00 +4.1439300987068366e+00 -6.9111722237484145e+01 +7.5223739481068942e+03 +3.3488907752356678e+05 -4.9719812840081118e+07 
-4.8499999999999908e+00 -5.7961256148055673e-01 +7.6891617060564208e+00 +4.1223765189324828e+00 -6.9605360108556553e+01 +7.3455055892328128e+03 +3.4081854076369212e+05 -4.8821358929701559e+07 
-4.8999999999999906e+00 -5.7964384806660907e-01 +7.6907436603801216e+00 +4.1007177329099163e+00 -7.0103035374271101e+01 +7.1690520221442475e+03 +3.4676503927615291e+05 -4.7925666538584806e+07 
-4.9499999999999904e+00 -5.7967534758562289e-01 +7.6923345489240926e+00 +4.0789337777630372e+00 -7.0603906404977252e+01 +6.9934614560679674e+03 +3.5272119101741165e+05 -4.7035005549979948e+07 
-4.9999999999999902e+00 -5.7970705702178771e-01 +7.6939341738490912e+00 +4.0570046901880978e+00 -7.1107131650829558e+01 +6.8191821165465781e+03 +3.5867961459493369e+05 -4.6151645974039122e+07 
-5.0499999999999901e+00 -5.7973897335928581e-01 +7.6955423373221450e+00 +4.0349105061861916e+00 -7.1611869780785199e+01 +6.6466622419093574e+03 +3.6463293014765286e+05 -4.5277857877035074e+07 
