# trajectory
# s[mm] rx[mm] ry[mm] rz[mm] px[rad] py[rad] pz[rad]
0.0000000000000000e+00 +8.5269999999999992e+00 +0.0000000000000000e+00 +0.0000000000000000e+00 +0.0000000000000000e+00 +0.0000000000000000e+00 +1.0000000000000000e+00
-5.0000000000000003e-02 +8.5269999309763840e+00 +0.0000000000000000e+00 -4.9999999999936477e-02 +2.7609451872787266e-06 +0.0000000000000000e+00 +9.9999999999618860e-01
-1.0000000000000001e-01 +8.5269997239054103e+00 +0.0000000000000000e+00 -9.9999999999491815e-02 +5.5218945787042198e-06 +0.0000000000000000e+00 +9.9999999998475431e-01
-1.5000000000000002e-01 +8.5269993787868259e+00 +0.0000000000000000e+00 -1.4999999999828487e-01 +8.2828499391373131e-06 +0.0000000000000000e+00 +9.9999999996569722e-01
-2.0000000000000001e-01 +8.5269988956202880e+00 +0.0000000000000000e+00 -1.9999999999593449e-01 +1.1043813030435364e-05 +0.0000000000000000e+00 +9.9999999993901711e-01
-2.5000000000000000e-01 +8.5269982744053650e+00 +0.0000000000000000e+00 -2.4999999999205952e-01 +1.3804785611452332e-05 +0.0000000000000000e+00 +9.9999999990471400e-01
-2.9999999999999999e-01 +8.5269975151415398e+00 +0.0000000000000000e+00 -2.9999999998627880e-01 +1.6565769438038865e-05 +0.0000000000000000e+00 +9.9999999986278765e-01
-3.4999999999999998e-01 +8.5269966178282051e+00 +0.0000000000000000e+00 -3.4999999997821118e-01 +1.9326766263042378e-05 +0.0000000000000000e+00 +9.9999999981323806e-01
-3.9999999999999997e-01 +8.5269955824646679e+00 +0.0000000000000000e+00 -3.9999999996747554e-01 +2.2087777836307138e-05 +0.0000000000000000e+00 +9.9999999975606502e-01
-4.4999999999999996e-01 +8.5269944090501468e+00 +0.0000000000000000e+00 -4.4999999995369067e-01 +2.4848805904674338e-05 +0.0000000000000000e+00 +9.9999999969126840e-01
-4.9999999999999994e-01 +8.5269930975837731e+00 +0.0000000000000000e+00 -4.9999999993647537e-01 +2.7609852211982182e-05 +0.0000000000000000e+00 +9.9999999961884800e-01
-5.4999999999999993e-01 +8.5269916480645929e+00 +0.0000000000000000e+00 -5.4999999991544846e-01 +3.0370918499065968e-05 +0.0000000000000000e+00 +9.9999999953880359e-01
-5.9999999999999998e-01 +8.5269900604915616e+00 +0.0000000000000000e+00 -5.9999999989022867e-01 +3.3132006503758165e-05 +0.0000000000000000e+00 +9.9999999945113505e-01
-6.5000000000000002e-01 +8.5269883348635513e+00 +0.0000000000000000e+00 -6.4999999986043488e-01 +3.5893117960888490e-05 +0.0000000000000000e+00 +9.9999999935584205e-01
-7.0000000000000007e-01 +8.5269864711793453e+00 +0.0000000000000000e+00 -6.9999999982568584e-01 +3.8654254602283991e-05 +0.0000000000000000e+00 +9.9999999925292427e-01
-7.5000000000000011e-01 +8.5269844694376413e+00 +0.0000000000000000e+00 -7.4999999978560028e-01 +4.1415418156769115e-05 +0.0000000000000000e+00 +9.9999999914238158e-01
-8.0000000000000016e-01 +8.5269823296370522e+00 +0.0000000000000000e+00 -7.9999999973979696e-01 +4.4176610350165806e-05 +0.0000000000000000e+00 +9.9999999902421355e-01
-8.5000000000000020e-01 +8.5269800517761016e+00 +0.0000000000000000e+00 -8.4999999968789453e-01 +4.6937832905293565e-05 +0.0000000000000000e+00 +9.9999999889841995e-01
-9.0000000000000024e-01 +8.5269776358532283e+00 +0.0000000000000000e+00 -8.9999999962951183e-01 +4.9699087541969536e-05 +0.0000000000000000e+00 +9.9999999876500034e-01
-9.5000000000000029e-01 +8.5269750818667855e+00 +0.0000000000000000e+00 -9.4999999956426751e-01 +5.2460375977008576e-05 +0.0000000000000000e+00 +9.9999999862395450e-01
-1.0000000000000002e+00 +8.5269723898150396e+00 +0.0000000000000000e+00 -9.9999999949178020e-01 +5.5221699924223335e-05 +0.0000000000000000e+00 +9.9999999847528198e-01
-1.0500000000000003e+00 +8.5269695596961732e+00 +0.0000000000000000e+00 -1.0499999994116687e+00 +5.7983061094424337e-05 +0.0000000000000000e+00 +9.9999999831898234e-01
-1.1000000000000003e+00 +8.5269665915082822e+00 +0.0000000000000000e+00 -1.0999999993235514e+00 +6.0744461195420043e-05 +0.0000000000000000e+00 +9.9999999815505525e-01
-1.1500000000000004e+00 +8.5269634852493770e+00 +0.0000000000000000e+00 -1.1499999992270471e+00 +6.3505901932016943e-05 +0.0000000000000000e+00 +9.9999999798350026e-01
-1.2000000000000004e+00 +8.5269602409173828e+00 +0.0000000000000000e+00 -1.1999999991217742e+00 +6.6267385006019613e-05 +0.0000000000000000e+00 +9.9999999780431692e-01
-1.2500000000000004e+00 +8.5269568585101414e+00 +0.0000000000000000e+00 -1.2499999990073516e+00 +6.9028912116230801e-05 +0.0000000000000000e+00 +9.9999999761750469e-01
-1.3000000000000005e+00 +8.5269533380254092e+00 +0.0000000000000000e+00 -1.2999999988833977e+00 +7.1790484958451505e-05 +0.0000000000000000e+00 +9.9999999742306322e-01
-1.3500000000000005e+00 +8.5269496794608557e+00 +0.0000000000000000e+00 -1.3499999987495308e+00 +7.4552105225481025e-05 +0.0000000000000000e+00 +9.9999999722099187e-01
-1.4000000000000006e+00 +8.5269458828140685e+00 +0.0000000000000000e+00 -1.3999999986053697e+00 +7.7313774607117066e-05 +0.0000000000000000e+00 +9.9999999701129016e-01
-1.4500000000000006e+00 +8.5269419480825484e+00 +0.0000000000000000e+00 -1.4499999984505327e+00 +8.0075494790155782e-05 +0.0000000000000000e+00 +9.9999999679395757e-01
-1.5000000000000007e+00 +8.5269378752637142e+00 +0.0000000000000000e+00 -1.4999999982846384e+00 +8.2837267458391866e-05 +0.0000000000000000e+00 +9.9999999656899352e-01
-1.5500000000000007e+00 +8.5269336643548996e+00 +0.0000000000000000e+00 -1.5499999981073049e+00 +8.5599094292618613e-05 +0.0000000000000000e+00 +9.9999999633639747e-01
-1.6000000000000008e+00 +8.5269293153533550e+00 +0.0000000000000000e+00 -1.5999999979181510e+00 +8.8360976970628015e-05 +0.0000000000000000e+00 +9.9999999609616885e-01
-1.6500000000000008e+00 +8.5269248282562451e+00 +0.0000000000000000e+00 -1.6499999977167947e+00 +9.1122917167210776e-05 +0.0000000000000000e+00 +9.9999999584830701e-01
-1.7000000000000008e+00 +8.5269202030606515e+00 +0.0000000000000000e+00 -1.6999999975028546e+00 +9.3884916554156449e-05 +0.0000000000000000e+00 +9.9999999559281127e-01
-1.7500000000000009e+00 +8.5269154397635738e+00 +0.0000000000000000e+00 -1.7499999972759488e+00 +9.6646976800253458e-05 +0.0000000000000000e+00 +9.9999999532968098e-01
-1.8000000000000009e+00 +8.5269105383619284e+00 +0.0000000000000000e+00 -1.7999999970356955e+00 +9.9409099571289198e-05 +0.0000000000000000e+00 +9.9999999505891546e-01
-1.8500000000000010e+00 +8.5269054988525461e+00 +0.0000000000000000e+00 -1.8499999967817131e+00 +1.0217128653005009e-04 +0.0000000000000000e+00 +9.9999999478051405e-01
-1.9000000000000010e+00 +8.5269003212321781e+00 +0.0000000000000000e+00 -1.8999999965136196e+00 +1.0493353933632165e-04 +0.0000000000000000e+00 +9.9999999449447607e-01
-1.9500000000000011e+00 +8.5268950054974884e+00 +0.0000000000000000e+00 -1.9499999962310333e+00 +1.0769585964688855e-04 +0.0000000000000000e+00 +9.9999999420080077e-01
-2.0000000000000009e+00 +8.5268895516450609e+00 +0.0000000000000000e+00 -1.9999999959335724e+00 +1.1045824911553471e-04 +0.0000000000000000e+00 +9.9999999389948746e-01
-2.0500000000000007e+00 +8.5268839596713963e+00 +0.0000000000000000e+00 -2.0499999956208548e+00 +1.1322070939278254e-04 +0.0000000000000000e+00 +9.9999999359053537e-01
-2.1000000000000005e+00 +8.5268782295729135e+00 +0.0000000000000000e+00 -2.0999999952924986e+00 +1.1598324212302405e-04 +0.0000000000000000e+00 +9.9999999327394362e-01
-2.1500000000000004e+00 +8.5268723613459496e+00 +0.0000000000000000e+00 -2.1499999949481219e+00 +1.1874584894165203e-04 +0.0000000000000000e+00 +9.9999999294971154e-01
-2.2000000000000002e+00 +8.5268663549867583e+00 +0.0000000000000000e+00 -2.1999999945873423e+00 +1.2150853147479923e-04 +0.0000000000000000e+00 +9.9999999261783823e-01
-2.2500000000000000e+00 +8.5268602104915132e+00 +0.0000000000000000e+00 -2.2499999942097784e+00 +1.2427129133933847e-04 +0.0000000000000000e+00 +9.9999999227832292e-01
-2.2999999999999998e+00 +8.5268539278563082e+00 +0.0000000000000000e+00 -2.2999999938150473e+00 +1.2703413014288268e-04 +0.0000000000000000e+00 +9.9999999193116473e-01
-2.3499999999999996e+00 +8.5268475070771572e+00 +0.0000000000000000e+00 -2.3499999934027671e+00 +1.2979704948378498e-04 +0.0000000000000000e+00 +9.9999999157636277e-01
-2.3999999999999995e+00 +8.5268409481499923e+00 +0.0000000000000000e+00 -2.3999999929725560e+00 +1.3256005095113867e-04 +0.0000000000000000e+00 +9.9999999121391625e-01
-2.4499999999999993e+00 +8.5268342510706674e+00 +0.0000000000000000e+00 -2.4499999925240314e+00 +1.3532313612477735e-04 +0.0000000000000000e+00 +9.9999999084382418e-01
-2.4999999999999991e+00 +8.5268274158349584e+00 +0.0000000000000000e+00 -2.4999999920568112e+00 +1.3808630657527495e-04 +0.0000000000000000e+00 +9.9999999046608579e-01
-2.5499999999999989e+00 +8.5268204424385630e+00 +0.0000000000000000e+00 -2.5499999915705129e+00 +1.4084956386394579e-04 +0.0000000000000000e+00 +9.9999999008069995e-01
-2.5999999999999988e+00 +8.5268133308770988e+00 +0.0000000000000000e+00 -2.5999999910647538e+00 +1.4361290954284463e-04 +0.0000000000000000e+00 +9.9999998968766590e-01
-2.6499999999999986e+00 +8.5268060811461091e+00 +0.0000000000000000e+00 -2.6499999905391518e+00 +1.4637634515476667e-04 +0.0000000000000000e+00 +9.9999998928698253e-01
-2.6999999999999984e+00 +8.5267986932410587e+00 +0.0000000000000000e+00 -2.6999999899933247e+00 +1.4913987223324777e-04 +0.0000000000000000e+00 +9.9999998887864894e-01
-2.7499999999999982e+00 +8.5267911671573362e+00 +0.0000000000000000e+00 -2.7499999894268896e+00 +1.5190349230256427e-04 +0.0000000000000000e+00 +9.9999998846266414e-01
-2.7999999999999980e+00 +8.5267835028902539e+00 +0.0000000000000000e+00 -2.7999999888394638e+00 +1.5466720687773319e-04 +0.0000000000000000e+00 +9.9999998803902712e-01
-2.8499999999999979e+00 +8.5267757004350493e+00 +0.0000000000000000e+00 -2.8499999882306648e+00 +1.5743101746451224e-04 +0.0000000000000000e+00 +9.9999998760773690e-01
-2.8999999999999977e+00 +8.5267677597868836e+00 +0.0000000000000000e+00 -2.8999999876001099e+00 +1.6019492555939985e-04 +0.0000000000000000e+00 +9.9999998716879246e-01
-2.9499999999999975e+00 +8.5267596809408435e+00 +0.0000000000000000e+00 -2.9499999869474163e+00 +1.6295893264963528e-04 +0.0000000000000000e+00 +9.9999998672219270e-01
-2.9999999999999973e+00 +8.5267514638919444e+00 +0.0000000000000000e+00 -2.9999999862722015e+00 +1.6572304021319857e-04 +0.0000000000000000e+00 +9.9999998626793651e-01
-3.0499999999999972e+00 +8.5267431086351237e+00 +0.0000000000000000e+00 -3.0499999855740825e+00 +1.6848724971881067e-04 +0.0000000000000000e+00 +9.9999998580602290e-01
-3.0999999999999970e+00 +8.5267346151652497e+00 +0.0000000000000000e+00 -3.0999999848526762e+00 +1.7125156262593340e-04 +0.0000000000000000e+00 +9.9999998533645074e-01
-3.1499999999999968e+00 +8.5267259834771139e+00 +0.0000000000000000e+00 -3.1499999841076001e+00 +1.7401598038476959e-04 +0.0000000000000000e+00 +9.9999998485921882e-01
-3.1999999999999966e+00 +8.5267172135654388e+00 +0.0000000000000000e+00 -3.1999999833384707e+00 +1.7678050443626305e-04 +0.0000000000000000e+00 +9.9999998437432613e-01
-3.2499999999999964e+00 +8.5267083054248740e+00 +0.0000000000000000e+00 -3.2499999825449049e+00 +1.7954513621209865e-04 +0.0000000000000000e+00 +9.9999998388177158e-01
-3.2999999999999963e+00 +8.5266992590499981e+00 +0.0000000000000000e+00 -3.2999999817265198e+00 +1.8230987713470235e-04 +0.0000000000000000e+00 +9.9999998338155394e-01
-3.3499999999999961e+00 +8.5266900744353187e+00 +0.0000000000000000e+00 -3.3499999808829322e+00 +1.8507472861724122e-04 +0.0000000000000000e+00 +9.9999998287367198e-01
-3.3999999999999959e+00 +8.5266807515752703e+00 +0.0000000000000000e+00 -3.3999999800137588e+00 +1.8783969206362351e-04 +0.0000000000000000e+00 +9.9999998235812460e-01
-3.4499999999999957e+00 +8.5266712904642219e+00 +0.0000000000000000e+00 -3.4499999791186164e+00 +1.9060476886849866e-04 +0.0000000000000000e+00 +9.9999998183491057e-01
-3.4999999999999956e+00 +8.5266616910964714e+00 +0.0000000000000000e+00 -3.4999999781971218e+00 +1.9336996041725737e-04 +0.0000000000000000e+00 +9.9999998130402867e-01
-3.5499999999999954e+00 +8.5266519534662457e+00 +0.0000000000000000e+00 -3.5499999772488913e+00 +1.9613526808603160e-04 +0.0000000000000000e+00 +9.9999998076547780e-01
-3.5999999999999952e+00 +8.5266420775677041e+00 +0.0000000000000000e+00 -3.5999999762735415e+00 +1.9890069324169464e-04 +0.0000000000000000e+00 +9.9999998021925662e-01
-3.6499999999999950e+00 +8.5266320633949402e+00 +0.0000000000000000e+00 -3.6499999752706889e+00 +2.0166623724186114e-04 +0.0000000000000000e+00 +9.9999997966536391e-01
-3.6999999999999948e+00 +8.5266219109419765e+00 +0.0000000000000000e+00 -3.6999999742399501e+00 +2.0443190143488711e-04 +0.0000000000000000e+00 +9.9999997910379834e-01
-3.7499999999999947e+00 +8.5266116202027700e+00 +0.0000000000000000e+00 -3.7499999731809410e+00 +2.0719768715987000e-04 +0.0000000000000000e+00 +9.9999997853455869e-01
-3.7999999999999945e+00 +8.5266011911712116e+00 +0.0000000000000000e+00 -3.7999999720932780e+00 +2.0996359574664870e-04 +0.0000000000000000e+00 +9.9999997795764373e-01
-3.8499999999999943e+00 +8.5265906238411251e+00 +0.0000000000000000e+00 -3.8499999709765773e+00 +2.1272962851580360e-04 +0.0000000000000000e+00 +9.9999997737305202e-01
-3.8999999999999941e+00 +8.5265799182062683e+00 +0.0000000000000000e+00 -3.8999999698304553e+00 +2.1549578677865656e-04 +0.0000000000000000e+00 +9.9999997678078234e-01
-3.9499999999999940e+00 +8.5265690742603333e+00 +0.0000000000000000e+00 -3.9499999686545277e+00 +2.1826207183727101e-04 +0.0000000000000000e+00 +9.9999997618083336e-01
-3.9999999999999938e+00 +8.5265580919969484e+00 +0.0000000000000000e+00 -3.9999999674484106e+00 +2.2102848498445197e-04 +0.0000000000000000e+00 +9.9999997557320375e-01
-4.0499999999999936e+00 +8.5265469714096778e+00 +0.0000000000000000e+00 -4.0499999662117201e+00 +2.2379502750352538e-04 +0.0000000000000000e+00 +9.9999997495789217e-01
-4.0999999999999934e+00 +8.5265357124920200e+00 +0.0000000000000000e+00 -4.0999999649440717e+00 +2.2656170066591102e-04 +0.0000000000000000e+00 +9.9999997433489718e-01
-4.1499999999999932e+00 +8.5265243152374115e+00 +0.0000000000000000e+00 -4.1499999636450813e+00 +2.2932850572869525e-04 +0.0000000000000000e+00 +9.9999997370421745e-01
-4.1999999999999931e+00 +8.5265127796392264e+00 +0.0000000000000000e+00 -4.1999999623143651e+00 +2.3209544393441045e-04 +0.0000000000000000e+00 +9.9999997306585164e-01
-4.2499999999999929e+00 +8.5265011056907785e+00 +0.0000000000000000e+00 -4.2499999609515386e+00 +2.3486251651103499e-04 +0.0000000000000000e+00 +9.9999997241979832e-01
-4.2999999999999927e+00 +8.5264892933853158e+00 +0.0000000000000000e+00 -4.2999999595562173e+00 +2.3762972467199323e-04 +0.0000000000000000e+00 +9.9999997176605615e-01
-4.3499999999999925e+00 +8.5264773427160314e+00 +0.0000000000000000e+00 -4.3499999581280164e+00 +2.4039706961615550e-04 +0.0000000000000000e+00 +9.9999997110462358e-01
-4.3999999999999924e+00 +8.5264652536760543e+00 +0.0000000000000000e+00 -4.3999999566665515e+00 +2.4316455252783813e-04 +0.0000000000000000e+00 +9.9999997043549926e-01
-4.4499999999999922e+00 +8.5264530262584586e+00 +0.0000000000000000e+00 -4.4499999551714380e+00 +2.4593217457680346e-04 +0.0000000000000000e+00 +9.9999996975868177e-01
-4.4999999999999920e+00 +8.5264406604562577e+00 +0.0000000000000000e+00 -4.4999999536422912e+00 +2.4869993691825978e-04 +0.0000000000000000e+00 +9.9999996907416966e-01
-4.5499999999999918e+00 +8.5264281562624085e+00 +0.0000000000000000e+00 -4.5499999520787267e+00 +2.5146784069286142e-04 +0.0000000000000000e+00 +9.9999996838196148e-01
-4.5999999999999917e+00 +8.5264155136698125e+00 +0.0000000000000000e+00 -4.5999999504803588e+00 +2.5423588702670860e-04 +0.0000000000000000e+00 +9.9999996768205579e-01
-4.6499999999999915e+00 +8.5264027326713112e+00 +0.0000000000000000e+00 -4.6499999488468031e+00 +2.5700407703134752e-04 +0.0000000000000000e+00 +9.9999996697445104e-01
-4.6999999999999913e+00 +8.5263898132596960e+00 +0.0000000000000000e+00 -4.6999999471776750e+00 +2.5977241180377041e-04 +0.0000000000000000e+00 +9.9999996625914589e-01
-4.7499999999999911e+00 +8.5263767554276999e+00 +0.0000000000000000e+00 -4.7499999454725890e+00 +2.6254089242641534e-04 +0.0000000000000000e+00 +9.9999996553613868e-01
-4.7999999999999909e+00 +8.5263635591680043e+00 +0.0000000000000000e+00 -4.7999999437311605e+00 +2.6530951996716636e-04 +0.0000000000000000e+00 +9.9999996480542808e-01
-4.8499999999999908e+00 +8.5263502244732372e+00 +0.0000000000000000e+00 -4.8499999419530040e+00 +2.6807829547935338e-04 +0.0000000000000000e+00 +9.9999996406701253e-01
-4.8999999999999906e+00 +8.5263367513359736e+00 +0.0000000000000000e+00 -4.8999999401377341e+00 +2.7084722000175228e-04 +0.0000000000000000e+00 +9.9999996332089047e-01
-4.9499999999999904e+00 +8.5263231397487367e+00 +0.0000000000000000e+00 -4.9499999382849653e+00 +2.7361629455858484e-04 +0.0000000000000000e+00 +9.9999996256706036e-01
-4.9999999999999902e+00 +8.5263093897040001e+00 +0.0000000000000000e+00 -4.9999999363943122e+00 +2.7638552015951857e-04 +0.0000000000000000e+00 +9.9999996180552075e-01
-5.0499999999999901e+00 +8.5262955011941859e+00 +0.0000000000000000e+00 -5.0499999344653892e+00 +2.7915489779966696e-04 +0.0000000000000000e+00 +9.9999996103627009e-01
-5.0999999999999899e+00 +8.5262814742116682e+00 +0.0000000000000000e+00 -5.0999999324978109e+00 +2.8192442845958923e-04 +0.0000000000000000e+00 +9.9999996025930682e-01
-5.1499999999999897e+00 +8.5262673087487730e+00 +0.0000000000000000e+00 -5.1499999304911919e+00 +2.8469411310529043e-04 +0.0000000000000000e+00 +9.9999995947462950e-01
-5.1999999999999895e+00 +8.5262530047977751e+00 +0.0000000000000000e+00 -5.1999999284451457e+00 +2.8746395268822134e-04 +0.0000000000000000e+00 +9.9999995868223646e-01
-5.2499999999999893e+00 +8.5262385623509065e+00 +0.0000000000000000e+00 -5.2499999263592869e+00 +2.9023394814527858e-04 +0.0000000000000000e+00 +9.9999995788212614e-01
-5.2999999999999892e+00 +8.5262239814003475e+00 +0.0000000000000000e+00 -5.2999999242332301e+00 +2.9300410039880437e-04 +0.0000000000000000e+00 +9.9999995707429701e-01
-5.3499999999999890e+00 +8.5262092619382379e+00 +0.0000000000000000e+00 -5.3499999220665879e+00 +2.9577441035658671e-04 +0.0000000000000000e+00 +9.9999995625874749e-01
-5.3999999999999888e+00 +8.5261944039566693e+00 +0.0000000000000000e+00 -5.3999999198589759e+00 +2.9854487891185918e-04 +0.0000000000000000e+00 +9.9999995543547604e-01
-5.4499999999999886e+00 +8.5261794074476889e+00 +0.0000000000000000e+00 -5.4499999176100067e+00 +3.0131550694330106e-04 +0.0000000000000000e+00 +9.9999995460448099e-01
-5.4999999999999885e+00 +8.5261642724033031e+00 +0.0000000000000000e+00 -5.4999999153192949e+00 +3.0408629531503714e-04 +0.0000000000000000e+00 +9.9999995376576079e-01
-5.5499999999999883e+00 +8.5261489988154722e+00 +0.0000000000000000e+00 -5.5499999129864541e+00 +3.0685724487663785e-04 +0.0000000000000000e+00 +9.9999995291931387e-01
-5.5999999999999881e+00 +8.5261335866761154e+00 +0.0000000000000000e+00 -5.5999999106110980e+00 +3.0962835646311906e-04 +0.0000000000000000e+00 +9.9999995206513859e-01
-5.6499999999999879e+00 +8.5261180359771114e+00 +0.0000000000000000e+00 -5.6499999081928394e+00 +3.1239963089494213e-04 +0.0000000000000000e+00 +9.9999995120323337e-01
-5.6999999999999877e+00 +8.5261023467102977e+00 +0.0000000000000000e+00 -5.6999999057312927e+00 +3.1517106897801394e-04 +0.0000000000000000e+00 +9.9999995033359668e-01
-5.7499999999999876e+00 +8.5260865188674728e+00 +0.0000000000000000e+00 -5.7499999032260707e+00 +3.1794267150368668e-04 +0.0000000000000000e+00 +9.9999994945622683e-01
-5.7999999999999874e+00 +8.5260705524403946e+00 +0.0000000000000000e+00 -5.7999999006767871e+00 +3.2071443924875796e-04 +0.0000000000000000e+00 +9.9999994857112218e-01
-5.8499999999999872e+00 +8.5260544474207816e+00 +0.0000000000000000e+00 -5.8499998980830545e+00 +3.2348637297547066e-04 +0.0000000000000000e+00 +9.9999994767828115e-01
