# multipoles
# s[mm] polynom_b[n=0][T/m^n] polynom_b[n=1][T/m^n] polynom_b[n=2][T/m^n] polynom_b[n=3][T/m^n] polynom_b[n=4][T/m^n] polynom_b[n=5][T/m^n] polynom_b[n=6][T/m^n] 
+0.0000000000000000e+00 -5.5246105093507369e-01 +7.2797953284109580e+00 +4.5431960509335241e+00 +2.2139285276424312e+00 -5.4331221413155890e+02 -2.9663344790479261e+05 +9.3665829393204022e+06 
+5.0000000000000003e-02 -5.5246180608462148e-01 +7.2798972962318969e+00 +4.5379083063848205e+00 +1.9143646092234743e+00 -4.4950635904122140e+02 -2.9476888028786646e+05 +8.7336870743796378e+06 
+1.0000000000000001e-01 -5.5246289430912543e-01 +7.2800174964340769e+00 +4.5322815539160706e+00 +1.6165752354132132e+00 -3.5582900029464906e+02 -2.9290766329263436e+05 +8.0970721568047535e+06 
+1.5000000000000002e-01 -5.5246431467747403e-01 +7.2801558293479278e+00 +4.5263203023214631e+00 +1.3215033906170124e+00 -2.6240983971310459e+02 -2.9105520309638302e+05 +7.4577186222193800e+06 
+2.0000000000000001e-01 -5.5246606625853323e-01 +7.2803121953010876e+00 +4.5200290544496502e+00 +1.0300921916393426e+00 -1.6937842637288736e+02 -2.8921690692911885e+05 +6.8166059029453835e+06 
+2.5000000000000000e-01 -5.5246814812121681e-01 +7.2804864946239727e+00 +4.5134123185570427e+00 +7.4328466441004071e-01 -7.6864451888419936e+01 -2.8739818126194790e+05 +6.1747143800393408e+06 
+2.9999999999999999e-01 -5.5247055933444822e-01 +7.2806786276466759e+00 +4.5064746016808277e+00 +4.6202387923362376e-01 +1.5002424763597848e+01 -2.8560443295867986e+05 +5.5330242178035285e+06 
+3.4999999999999998e-01 -5.5247329896714803e-01 +7.2808884946994201e+00 +4.4992204077669893e+00 +1.8725291863482940e-01 +1.0609262850486223e+02 -2.8384106894176570e+05 +4.8925150086123589e+06 
+3.9999999999999997e-01 -5.5247636608827533e-01 +7.2811159961135967e+00 +4.4916542453223611e+00 -8.0085163112954744e-02 +1.9627645652024853e+02 -2.8211349588894384e+05 +4.2541672254515812e+06 
+4.4999999999999996e-01 -5.5247975976679375e-01 +7.2813610322206124e+00 +4.4837806202194193e+00 -3.3904729147969254e-01 +2.8542428404057733e+02 -2.8042712062093598e+05 +3.6189607881637858e+06 
+4.9999999999999994e-01 -5.5248347907167372e-01 +7.2816235033515468e+00 +4.4756040374731079e+00 -5.8869034355588667e-01 +3.7340650237141722e+02 -2.7878735039913811e+05 +2.9878755345388576e+06 
+5.4999999999999993e-01 -5.5248752307191240e-01 +7.2819033098405743e+00 +4.4671290039483083e+00 -8.2807130645413718e-01 +4.6009345689725251e+02 -2.7719959155035065e+05 +2.3618915950192376e+06 
+5.9999999999999998e-01 -5.5249189083652350e-01 +7.2822003520193794e+00 +4.4583600271598396e+00 -1.0562470450331298e+00 +5.4535546899599569e+02 -2.7566925138964033e+05 +1.7419892894866248e+06 
+6.5000000000000002e-01 -5.5249658143451863e-01 +7.2825145302208387e+00 +4.4493016108188863e+00 -1.2722744503902821e+00 +6.2906297291500186e+02 -2.7420173700720922e+05 +1.1291481333985180e+06 
+7.0000000000000007e-01 -5.5250159393492837e-01 +7.2828457447793786e+00 +4.4399582605825847e+00 -1.4752104490210751e+00 +7.1108633683837718e+02 -2.7280245522171794e+05 +5.2434814068994834e+05 
+7.5000000000000011e-01 -5.5250692740681595e-01 +7.2831938960288110e+00 +4.4303344847633834e+00 -1.6641119149483681e+00 +7.9129586226621211e+02 -2.7147681330404949e+05 -7.1430243065307339e+04 
+8.0000000000000016e-01 -5.5251258091923583e-01 +7.2835588843039973e+00 +4.4204347874329821e+00 -1.8380357523563728e+00 +8.6956196707006620e+02 -2.7023021821831033e+05 -6.5720736797826644e+05 
+8.5000000000000020e-01 -5.5251855354127466e-01 +7.2839406099380293e+00 +4.4102636758636580e+00 -1.9960387575162459e+00 +9.4575498006789496e+02 -2.6906807788308855e+05 -1.2320029698662402e+06 
+9.0000000000000024e-01 -5.5252484434201377e-01 +7.2843389732679800e+00 +4.3998256546889865e+00 -2.1371778750629629e+00 +1.0197452947044518e+03 -2.6799579895086522e+05 -1.7948372009372630e+06 
+9.5000000000000029e-01 -5.5253145239055301e-01 +7.2847538746288700e+00 +4.3891252281621798e+00 -2.2605099325785378e+00 +1.0914033232822283e+03 -2.6701878908271861e+05 -2.3447303696031016e+06 
+1.0000000000000002e+00 -5.5253837675602324e-01 +7.2851852143576101e+00 +4.3781669045299729e+00 -2.3650918201957780e+00 +1.1605993614052497e+03 -2.6614245539574022e+05 -2.8807019650263293e+06 
+1.0500000000000003e+00 -5.5254561650754785e-01 +7.2856328927896907e+00 +4.3669551880452309e+00 -2.4499803372392184e+00 +1.2272038129991495e+03 -2.6537220579323842e+05 -3.4017722095748037e+06 
+1.1000000000000003e+00 -5.5255317071427201e-01 +7.2860968102612844e+00 +4.3554945841623711e+00 -2.5142322910844590e+00 +1.2910870516191239e+03 -2.6471344809996936e+05 -3.9069611301768175e+06 
+1.1500000000000004e+00 -5.5256103844534987e-01 +7.2865768671113509e+00 +4.3437895976167571e+00 -2.5569045800356345e+00 +1.3521194665634466e+03 -2.6417158940414200e+05 -4.3952888441621335e+06 
+1.2000000000000004e+00 -5.5256921876994924e-01 +7.2870729636761276e+00 +4.3318447336841794e+00 -2.5770539620680255e+00 +1.4101714281545367e+03 -2.6375203797489800e+05 -4.8657753275867207e+06 
+1.2500000000000004e+00 -5.5257771075725881e-01 +7.2875850002917577e+00 +4.3196644983496659e+00 -2.5737371688976260e+00 +1.4651132921968517e+03 -2.6346020229796966e+05 -5.3174404740639143e+06 
+1.3000000000000005e+00 -5.5258651347646304e-01 +7.2881128773005859e+00 +4.3072533950593561e+00 -2.5460111545571560e+00 +1.5168154751840063e+03 -2.6330148907767329e+05 -5.7493045591361551e+06 
+1.3500000000000005e+00 -5.5259562599678069e-01 +7.2886564950382828e+00 +4.2946159305636549e+00 -2.4929325851541737e+00 +1.5651483086153708e+03 -2.6328130735735415e+05 -6.1603873007002352e+06 
+1.4000000000000006e+00 -5.5260504738742322e-01 +7.2892157538448883e+00 +4.2817566085348888e+00 -2.4135582783624221e+00 +1.6099822007226621e+03 -2.6340506496022455e+05 -6.5497089108876260e+06 
+1.4500000000000006e+00 -5.5261477671761616e-01 +7.2897905540584693e+00 +4.2686799323967568e+00 -2.3069449368507482e+00 +1.6511875679901332e+03 -2.6367817071315215e+05 -6.9162896646850444e+06 
+1.5000000000000007e+00 -5.5262481305661282e-01 +7.2903807960209770e+00 +4.2553904087744634e+00 -2.1721494066525628e+00 +1.6886347349242649e+03 -2.6410603223933873e+05 -7.2591491938753678e+06 
+1.5500000000000007e+00 -5.5263515547366193e-01 +7.2909863800695014e+00 +4.2418925407378731e+00 -2.0082283006397441e+00 +1.7221941251694377e+03 -2.6469405914401461e+05 -7.5773078144958038e+06 
+1.6000000000000008e+00 -5.5264580303803412e-01 +7.2916072065464448e+00 +4.2281908335755967e+00 -1.8142384356215879e+00 +1.7517360962746670e+03 -2.6544765931867319e+05 -7.8697853733702619e+06 
+1.6500000000000008e+00 -5.5265675481900511e-01 +7.2922431757904906e+00 +4.2142897907439947e+00 -1.5892364437255249e+00 +1.7771310550846931e+03 -2.6637224223755352e+05 -8.1356020460779881e+06 
+1.7000000000000008e+00 -5.5266800988586062e-01 +7.2928941881443894e+00 +4.2001939158507797e+00 -1.3322790865109848e+00 +1.7982494010060302e+03 -2.6747321637305047e+05 -8.3737779505425310e+06 
+1.7500000000000009e+00 -5.5267956730790402e-01 +7.2935601439470492e+00 +4.1859077133645490e+00 -1.0424229577934105e+00 +1.8149615085559835e+03 -2.6875599154333468e+05 -8.5833330299777631e+06 
+1.8000000000000009e+00 -5.5269142615444677e-01 +7.2942409435429756e+00 +4.1714356867801108e+00 -7.1872485346790371e-01 +1.8271377770602935e+03 -2.7022597593642637e+05 -8.7632873880104553e+06 
+1.8500000000000010e+00 -5.5270358549480891e-01 +7.2949364872702640e+00 +4.1567823392693439e+00 -3.6024127064196315e-01 +1.8346486119817300e+03 -2.7188858027253341e+05 -8.9126611622257121e+06 
+1.9000000000000010e+00 -5.5271604439832900e-01 +7.2956466754721623e+00 +4.1419521752942350e+00 +3.3971101674592025e-02 +1.8373643802779409e+03 -2.7374921369292203e+05 -9.0304742169804089e+06 
+1.9500000000000011e+00 -5.5272880193434337e-01 +7.2963714084934725e+00 +4.1269496967366406e+00 +4.6485554004396845e-01 +1.8351555175276862e+03 -2.7581328509256290e+05 -9.1157468769585695e+06 
+2.0000000000000009e+00 -5.5274185717221025e-01 +7.2971105866742958e+00 +4.1117794074034508e+00 +9.3335553609946520e-01 +1.8278924041708715e+03 -2.7808620516157127e+05 -9.1674990822729766e+06 
+2.0500000000000007e+00 -5.5275520901452646e-01 +7.2978641147066918e+00 +4.0964436354184857e+00 +1.4399273700446757e+00 +1.8155202447043393e+03 -2.8057051415606559e+05 -9.1852428102169335e+06 
+2.1000000000000005e+00 -5.5276885569672196e-01 +7.2986319114693581e+00 +4.0809358860748048e+00 +1.9830309116231994e+00 +1.7982970906077787e+03 -2.8325706257485383e+05 -9.1705382534363084e+06 
+2.1500000000000004e+00 -5.5278279528743413e-01 +7.2994138985987682e+00 +4.0652474357902282e+00 +2.5606140185484705e+00 +1.7765626403972867e+03 -2.8613372557523096e+05 -9.1254778335123993e+06 
+2.2000000000000002e+00 -5.5279702585529555e-01 +7.3002099977350863e+00 +4.0493695574975579e+00 +3.1706244131217716e+00 +1.7506566914913062e+03 -2.8918837722993776e+05 -9.0521546515162103e+06 
+2.2500000000000000e+00 -5.5281154546896438e-01 +7.3010201305140781e+00 +4.0332935277469142e+00 +3.8110100115347825e+00 +1.7209189401453482e+03 -2.9240889322043461e+05 -8.9526611158629730e+06 
+2.2999999999999998e+00 -5.5282635219709464e-01 +7.3018442185767736e+00 +4.0170106202024414e+00 +4.4797185179446872e+00 +1.6876891636622581e+03 -2.9578314745493338e+05 -8.8290901941980254e+06 
+2.3499999999999996e+00 -5.5284144410835800e-01 +7.3026821835612177e+00 +4.0005121100016456e+00 +5.1746977847985018e+00 +1.6513071007110382e+03 -2.9929901513838419e+05 -8.6835345962910615e+06 
+2.3999999999999995e+00 -5.5285681927143171e-01 +7.3035339471093970e+00 +3.9837892717276016e+00 +5.8938954930579204e+00 +1.6121125049960883e+03 -3.0294436997355230e+05 -8.5180871362423953e+06 
+2.4499999999999993e+00 -5.5287247575501508e-01 +7.3043994308606468e+00 +3.9668333817425472e+00 +6.6352594558222791e+00 +1.5704450875491632e+03 -3.0670708682353294e+05 -8.3348403574894601e+06 
+2.4999999999999991e+00 -5.5288841162780888e-01 +7.3052785564572771e+00 +3.9496357155714423e+00 +7.3967373721007297e+00 +1.5266445784715152e+03 -3.1057503959535243e+05 -8.1358869210477006e+06 
+2.5499999999999989e+00 -5.5290462495851245e-01 +7.3061712455422434e+00 +3.9321875467728029e+00 +8.1762769186779867e+00 +1.4810507652968784e+03 -3.1453610201499995e+05 -7.9233198935067654e+06 
+2.5999999999999988e+00 -5.5292111381585385e-01 +7.3070774197586275e+00 +3.9144801522729460e+00 +8.9718257693593895e+00 +1.4340033455452190e+03 -3.1857814776255400e+05 -7.6992317347351117e+06 
+2.6499999999999986e+00 -5.5293787626855762e-01 +7.3079970007492072e+00 +3.8965048067271923e+00 +9.7813316331627966e+00 +1.3858420836613484e+03 -3.2268905086578534e+05 -7.4657153801033413e+06 
+2.6999999999999984e+00 -5.5295491038538203e-01 +7.3089299101595451e+00 +3.8782527896628523e+00 +1.0602742101016011e+01 +1.3369066087783979e+03 -3.2685668434677686e+05 -7.2248628358790763e+06 
+2.7499999999999982e+00 -5.5297221423505361e-01 +7.3098760696373501e+00 +3.8597153731178087e+00 +1.1434004675024292e+01 +1.2875367585509803e+03 -3.3106892047199741e+05 -6.9787675407596352e+06 
+2.7999999999999980e+00 -5.5298978588634462e-01 +7.3108354008252290e+00 +3.8408838358528654e+00 +1.2273067081408737e+01 +1.2380721921174791e+03 -3.3531363339692086e+05 -6.7295217401871858e+06 
+2.8499999999999979e+00 -5.5300762340800336e-01 +7.3118078253718375e+00 +3.8217494510140249e+00 +1.3117876801994029e+01 +1.1888527198523743e+03 -3.3957869525496784e+05 -6.4792186988446834e+06 
+2.8999999999999977e+00 -5.5302572486882340e-01 +7.3127932649241822e+00 +3.8023034983667054e+00 +1.3966381387302929e+01 +1.1402179779624519e+03 -3.4385197873755265e+05 -6.2299505234103976e+06 
+2.9499999999999975e+00 -5.5304408833759178e-01 +7.3137916411334460e+00 +3.7825372550470004e+00 +1.4816528214164006e+01 +1.0925076773272908e+03 -3.4812135509518516e+05 -5.9838098381041903e+06 
+2.9999999999999973e+00 -5.5306271188309453e-01 +7.3148028756467429e+00 +3.7624419969552503e+00 +1.5666264834121204e+01 +1.0460615606467484e+03 -3.5237469702299370e+05 -5.7428894762172475e+06 
+3.0499999999999972e+00 -5.5308159357413933e-01 +7.3158268901140238e+00 +3.7420090021670602e+00 +1.6513538680565706e+01 +1.0012193210863309e+03 -3.5659987623607647e+05 -5.5092819726244221e+06 
+3.0999999999999970e+00 -5.5310073147953653e-01 +7.3168636061895205e+00 +3.7212295480294872e+00 +1.7356297023169237e+01 +9.5832067154084120e+02 -3.6078476314344589e+05 -5.2850799950045310e+06 
+3.1499999999999968e+00 -5.5312012366810770e-01 +7.3179129455208169e+00 +3.7000949127642131e+00 +1.8192487384299834e+01 +9.1770530398922972e+02 -3.6491723015207151e+05 -5.0723760791332070e+06 
+3.1999999999999966e+00 -5.5313976820867239e-01 +7.3189748297652049e+00 +3.6785963729150675e+00 +1.9020056906402232e+01 +8.7971296026166294e+02 -3.6898514660949772e+05 -4.8732631173317097e+06 
+3.2499999999999964e+00 -5.5315966317008025e-01 +7.3200491805768371e+00 +3.6567252090849989e+00 +1.9836952848172565e+01 +8.4468327703187617e+02 -3.7297638277792896e+05 -4.6898333053820757e+06 
+3.2999999999999963e+00 -5.5317980662117150e-01 +7.3211359196068670e+00 +3.6344726992019178e+00 +2.0641122591537211e+01 +8.1295596565052369e+02 -3.7687880992975552e+05 -4.5241793556517903e+06 
+3.3499999999999961e+00 -5.5320019663080466e-01 +7.3222349685140351e+00 +3.6118301230951286e+00 +2.1430513199303459e+01 +7.8487069089430099e+02 -3.8068029669282062e+05 -4.3783936817651978e+06 
+3.3999999999999959e+00 -5.5322083126783506e-01 +7.3233462489543042e+00 +3.5887887591768366e+00 +2.2203071864398076e+01 +7.6076715766888492e+02 -3.8436871283793688e+05 -4.2545689767762264e+06 
+3.4499999999999957e+00 -5.5324170860112876e-01 +7.3244696825845557e+00 +3.5653398862903454e+00 +2.2956745715347417e+01 +7.4098506818865985e+02 -3.8793192750503338e+05 -4.1547979496225119e+06 
+3.4999999999999956e+00 -5.5326282669956284e-01 +7.3256051910655282e+00 +3.5414747846041670e+00 +2.3689481726084349e+01 +7.2586408743248546e+02 -3.9135780858786480e+05 -4.0811730509024728e+06 
+3.5499999999999954e+00 -5.5328418363203469e-01 +7.3267526960562757e+00 +3.5171847365641282e+00 +2.4399226931169171e+01 +7.1574382669055365e+02 -3.9463422446790925e+05 -4.0357863978637024e+06 
+3.5999999999999952e+00 -5.5330577746743204e-01 +7.3279121192184569e+00 +3.4924610217776348e+00 +2.5083928265086904e+01 +7.1096398086191766e+02 -3.9774904273845826e+05 -4.0207307020626278e+06 
+3.6499999999999950e+00 -5.5332760627464839e-01 +7.3290833822114241e+00 +3.4672949203004300e+00 +2.5741532742193311e+01 +7.1186423164029281e+02 -4.0069013161648333e+05 -4.0380985778169106e+06 
+3.6999999999999948e+00 -5.5334966812259601e-01 +7.3302664066993959e+00 +3.4416777145651665e+00 +2.6369987156815345e+01 +7.1878420312614458e+02 -4.0344535744398134e+05 -4.0899822775017894e+06 
+3.7499999999999947e+00 -5.5337196108018649e-01 +7.3314611143469710e+00 +3.4156006855250851e+00 +2.6967238292064938e+01 +7.3206356725216858e+02 -4.0600258651464497e+05 -4.1784744046313409e+06 
+3.7999999999999945e+00 -5.5339448321634122e-01 +7.3326674268195022e+00 +3.3890551153591892e+00 +2.7531232896695919e+01 +7.5204196538672261e+02 -4.0834968484689511e+05 -4.3056673674567034e+06 
+3.8499999999999943e+00 -5.5341723260000153e-01 +7.3338852657820173e+00 +3.3620322887621619e+00 +2.8059917715492350e+01 +7.7905897822074417e+02 -4.1047451839711663e+05 -4.4736531918875817e+06 
+3.8999999999999941e+00 -5.5344020730008425e-01 +7.3351145529010298e+00 +3.3345234852106986e+00 +2.8551239413590057e+01 +8.1345433077355904e+02 -4.1236495240612584e+05 -4.6845248893656898e+06 
+3.9499999999999940e+00 -5.5346340538554095e-01 +7.3363552098460412e+00 +3.3065199901535265e+00 +2.9003144544809384e+01 +8.5556758926528539e+02 -4.1400885128901736e+05 -4.9403744103053631e+06 
+3.9999999999999938e+00 -5.5348682492532675e-01 +7.3376071582867999e+00 +3.2780130876434832e+00 +2.9413579627910757e+01 +9.0573837427170213e+02 -4.1539407905028132e+05 -5.2432941289159395e+06 
+4.0499999999999936e+00 -5.5351046391406500e-01 +7.3388703009307719e+00 +3.2489993634062393e+00 +2.9781033863613548e+01 +9.6418027541311994e+02 -4.1651190389621683e+05 -5.5946235253815753e+06 
+4.0999999999999934e+00 -5.5353432004926040e-01 +7.3401444568795995e+00 +3.2194977085808971e+00 +3.0106206946478075e+01 +1.0305725808548100e+03 -4.1736725773466018e+05 -5.9925018553550709e+06 
+4.1499999999999932e+00 -5.5355839095425008e-01 +7.3414294223361418e+00 +3.1895329053771855e+00 +3.0390362336740804e+01 +1.1044528975806763e+03 -4.1796850477944477e+05 -6.4342179770977078e+06 
+4.1999999999999931e+00 -5.5358267425235774e-01 +7.3427249934990106e+00 +3.1591297330032302e+00 +3.0634763654202374e+01 +1.1853589166694933e+03 -4.1832401056460483e+05 -6.9170613231002763e+06 
+4.2499999999999929e+00 -5.5360716756691708e-01 +7.3440309665721957e+00 +3.1283129727003329e+00 +3.0840674307447635e+01 +1.2728282719930419e+03 -4.1844213893825031e+05 -7.4383209279294452e+06 
+4.2999999999999927e+00 -5.5363186852126556e-01 +7.3453471377518849e+00 +3.0971074059246235e+00 +3.1009358001173400e+01 +1.3663985933533215e+03 -4.1833125610977557e+05 -7.9952858055413645e+06 
+4.3499999999999925e+00 -5.5365677473872787e-01 +7.3466733032370000e+00 +3.0655378125837882e+00 +3.1142078334940315e+01 +1.4656075444759865e+03 -4.1799972746361414e+05 -8.5852451645519864e+06 
+4.3999999999999924e+00 -5.5368188384263695e-01 +7.3480092592214019e+00 +3.0336289735074371e+00 +3.1240099102303631e+01 +1.5699927707391271e+03 -4.1745591994987219e+05 -9.2054881167971157e+06 
+4.4499999999999922e+00 -5.5370719345630603e-01 +7.3493548019012298e+00 +3.0014056665661637e+00 +3.1304683991834715e+01 +1.6790919879777066e+03 -4.1670819963077951e+05 -9.8533042064467706e+06 
+4.4999999999999920e+00 -5.5373270120307694e-01 +7.3507097274693809e+00 +2.9688926747775604e+00 +3.1337096824357197e+01 +1.7924427764670736e+03 -4.1576493368171307e+05 -1.0525982077366129e+07 
+4.5499999999999918e+00 -5.5375840470626847e-01 +7.3520738321180925e+00 +2.9361147769525253e+00 +3.1338601433923621e+01 +1.9095828286370422e+03 -4.1463448934536800e+05 -1.1220811120983629e+07 
+4.5999999999999917e+00 -5.5378430158920344e-01 +7.3534469120373487e+00 +2.9030967532767984e+00 +3.1310461731420073e+01 +2.0300497963617279e+03 -4.1332523446621798e+05 -1.1935080441775192e+07 
+4.6499999999999915e+00 -5.5381038947520000e-01 +7.3548287634143517e+00 +2.8698633834477447e+00 +3.1253941750794070e+01 +2.1533813412803856e+03 -4.1184553796845675e+05 -1.2666079193127040e+07 
+4.6999999999999913e+00 -5.5383666598757808e-01 +7.3562191824374663e+00 +2.8364394478097052e+00 +3.1170305447453092e+01 +2.2791151069308862e+03 -4.1020376802883367e+05 -1.3411096402835183e+07 
+4.7499999999999911e+00 -5.5386312874965271e-01 +7.3576179652910119e+00 +2.8028497255830871e+00 +3.1060816942377937e+01 +2.4067887689100135e+03 -4.0840829421542690e+05 -1.4167421316490920e+07 
+4.7999999999999909e+00 -5.5388977538473272e-01 +7.3590249081570098e+00 +2.7691189965257652e+00 +3.0926740445395172e+01 +2.5359399785874721e+03 -4.0646748684198782e+05 -1.4932342981646840e+07 
+4.8499999999999908e+00 -5.5391660351611682e-01 +7.3604398072184019e+00 +2.7352720381869018e+00 +3.0769340104876409e+01 +2.6661064494002621e+03 -4.0438971565136948e+05 -1.5703150866736596e+07 
+4.8999999999999906e+00 -5.5394361076712217e-01 +7.3618624586537731e+00 +2.7013336319765004e+00 +3.0589880240871050e+01 +2.7968257916434077e+03 -4.0218335180913861e+05 -1.6477133749030776e+07 
+4.9499999999999904e+00 -5.5397079476104616e-01 +7.3632926586407104e+00 +2.6673285570285756e+00 +3.0389625198762673e+01 +2.9276356663386459e+03 -3.9985676665400178e+05 -1.7251580704339821e+07 
+4.9999999999999902e+00 -5.5399815312116985e-01 +7.3647302033540321e+00 +2.6332815895311592e+00 +3.0169839440944102e+01 +3.0580738173711284e+03 -3.9741833255147812e+05 -1.8023781375687417e+07 
+5.0499999999999901e+00 -5.5402568347080039e-01 +7.3661748889681782e+00 +2.5992175110105409e+00 +2.9931787405872672e+01 +3.1876778435038109e+03 -3.9487642154203530e+05 -1.8791024421639472e+07 
