# multipoles
# s[mm] polynom_b[n=0][T/m^n] polynom_b[n=1][T/m^n] polynom_b[n=2][T/m^n] polynom_b[n=3][T/m^n] polynom_b[n=4][T/m^n] polynom_b[n=5][T/m^n] polynom_b[n=6][T/m^n] 
+0.0000000000000000e+00 -5.2292490576514306e-01 +6.8560966228180886e+00 +5.0035409913331490e+00 -4.7790841468566834e+00 -3.1960551287521844e+03 -3.1502543292902008e+05 +1.4636447343153853e+07 
-5.0000000000000003e-02 -5.2293220148544350e-01 +6.8565243807035454e+00 +4.9932087642616549e+00 -4.3996938297702481e+00 -3.1868844736557071e+03 -3.1697848834075738e+05 +1.4543924377555775e+07 
-1.0000000000000001e-01 -5.2293985663432418e-01 +6.8569718144768705e+00 +4.9824246951631022e+00 -4.0314810164205550e+00 -3.1758918504375129e+03 -3.1883652469732368e+05 +1.4436693778841045e+07 
-1.5000000000000002e-01 -5.2294786967519147e-01 +6.8574388082659281e+00 +4.9711911456801854e+00 -3.6741930411702493e+00 -3.1630960967945421e+03 -3.2060123793249979e+05 +1.4315048424751278e+07 
-2.0000000000000001e-01 -5.2295623907144795e-01 +6.8579252462034228e+00 +4.9595104743425242e+00 -3.3275774110813541e+00 -3.1485159665505030e+03 -3.2227432255363534e+05 +1.4179280621765336e+07 
-2.5000000000000000e-01 -5.2296496328651765e-01 +6.8584310124164434e+00 +4.9473850401848134e+00 -2.9913813836771377e+00 -3.1321702267787359e+03 -3.2385747509380482e+05 +1.4029682766524145e+07 
-2.9999999999999999e-01 -5.2297404078383525e-01 +6.8589559910380764e+00 +4.9348172012905271e+00 -2.6653524356517724e+00 -3.1140776169673527e+03 -3.2535239028186846e+05 +1.3866547060208727e+07 
-3.4999999999999998e-01 -5.2298347002685674e-01 +6.8595000661997760e+00 +4.9218093171921913e+00 -2.3492379598079856e+00 -3.0942569206844769e+03 -3.2676076351171359e+05 +1.3690166019459244e+07 
-3.9999999999999997e-01 -5.2299324947905523e-01 +6.8600631220363226e+00 +4.9083637467557217e+00 -2.0427854580336806e+00 -3.0727268968045819e+03 -3.2808428928111383e+05 +1.3500831970558940e+07 
-4.4999999999999996e-01 -5.2300337760392335e-01 +6.8606450426777155e+00 +4.8944828500389317e+00 -1.7457422160410387e+00 -3.0495063375963132e+03 -3.2932466385277110e+05 +1.3298837464562004e+07 
-4.9999999999999994e-01 -5.2301385286495861e-01 +6.8612457122574426e+00 +4.8801689854374688e+00 -1.4578556367200115e+00 -3.0246139957937698e+03 -3.3048358253211086e+05 +1.3084474808759740e+07 
-5.4999999999999993e-01 -5.2302467372567196e-01 +6.8618650149124987e+00 +4.8654245104606142e+00 -1.1788732501532797e+00 -2.9980685919712414e+03 -3.3156273954901891e+05 +1.2858036058075892e+07 
-5.9999999999999998e-01 -5.2303583864961489e-01 +6.8625028347774100e+00 +4.8502517871696993e+00 -9.0854245719458127e-01 -2.9698889733977662e+03 -3.3256383021883073e+05 +1.2619814140329378e+07 
-6.5000000000000002e-01 -5.2304734610032144e-01 +6.8631590559873032e+00 +4.8346531721613895e+00 -6.4661066771512687e-01 -2.9400938406121513e+03 -3.3348854975227005e+05 +1.2370100992787510e+07 
-7.0000000000000007e-01 -5.2305919454137029e-01 +6.8638335626768221e+00 +4.8186310270489594e+00 -3.9282524716943207e-01 -2.9087020276859862e+03 -3.3433859373537893e+05 +1.2109189446085053e+07 
-7.5000000000000011e-01 -5.2307138243632723e-01 +6.8645262389843174e+00 +4.8021877086816911e+00 -1.4693368930374154e-01 -2.8757322410859556e+03 -3.3511565670723445e+05 +1.1837371472503487e+07 
-8.0000000000000016e-01 -5.2308390824879603e-01 +6.8652369690493176e+00 +4.7853255778958808e+00 +9.1316481851889411e-02 -2.8412032933940877e+03 -3.3582143295063311e+05 +1.1554939755879378e+07 
-8.5000000000000020e-01 -5.2309677044238123e-01 +6.8659656370066307e+00 +4.7680469930775891e+00 +3.2217795842697500e-01 -2.8051339319567937e+03 -3.3645761851992144e+05 +1.1262186540912895e+07 
-9.0000000000000024e-01 -5.2310996748070726e-01 +6.8667121269950551e+00 +4.7503543137995976e+00 +5.4590328909404895e-01 -2.7675429369081485e+03 -3.3702590830385784e+05 +1.0959404295958534e+07 
-9.5000000000000029e-01 -5.2312349782742207e-01 +6.8674763231563354e+00 +4.7322499010176378e+00 +7.6274492254506410e-01 -2.7284491229463324e+03 -3.3752799636411062e+05 +1.0646885712141497e+07 
-1.0000000000000002e+00 -5.2313735994615695e-01 +6.8682581096283579e+00 +4.7137361105009763e+00 +9.7295548422754707e-01 -2.6878711684963964e+03 -3.3796557821522054e+05 +1.0324922574036546e+07 
-1.0500000000000003e+00 -5.2315155230060040e-01 +6.8690573705521167e+00 +4.6948153054463395e+00 +1.1767874965105849e+00 -2.6458279486681431e+03 -3.3834034854756721e+05 +9.9938079781443756e+06 
-1.1000000000000003e+00 -5.2316607335441834e-01 +6.8698739900688111e+00 +4.6754898427787985e+00 +1.3744934908696782e+00 -2.6023381722784288e+03 -3.3865400211972423e+05 +9.6538339112507571e+06 
-1.1500000000000004e+00 -5.2318092157131324e-01 +6.8707078523201295e+00 +4.6557620833778985e+00 +1.5663259987520919e+00 -2.5574206530096690e+03 -3.3890823370185314e+05 +9.3052930584217738e+06 
-1.2000000000000004e+00 -5.2319609541498691e-01 +6.8715588414484143e+00 +4.6356343858107989e+00 +1.7525375475284901e+00 -2.5110941437392648e+03 -3.3910473804594955e+05 +8.9484777001543604e+06 
-1.2500000000000004e+00 -5.2321159334915612e-01 +6.8724268415964707e+00 +4.6151091087508114e+00 +1.9333806615378275e+00 -2.4633773978048152e+03 -3.3924520987961988e+05 +8.5836801097104866e+06 
-1.3000000000000005e+00 -5.2322741383756033e-01 +6.8733117369062029e+00 +4.5941886128616636e+00 +2.1091079216457316e+00 -2.4142892275357558e+03 -3.3933134440996102e+05 +8.2111929800475622e+06 
-1.3500000000000005e+00 -5.2324355534394695e-01 +6.8742134115238676e+00 +4.5728752573674107e+00 +2.2799717521265657e+00 -2.3638483994959051e+03 -3.3936483557225933e+05 +7.8313086678046240e+06 
-1.4000000000000006e+00 -5.2326001633206942e-01 +6.8751317495933542e+00 +4.5511714008986726e+00 +2.4462246913645189e+00 -2.3120736701816136e+03 -3.3934737824958842e+05 +7.4443194823726080e+06 
-1.4500000000000006e+00 -5.2327679526571702e-01 +6.8760666352579154e+00 +4.5290794057312116e+00 +2.6081193251582189e+00 -2.2589838908672596e+03 -3.3928066773880355e+05 +7.0505183604562655e+06 
-1.5000000000000007e+00 -5.2329389060865183e-01 +6.8770179526666224e+00 +4.5066016273830760e+00 +2.7659080170743882e+00 -2.2045977328442300e+03 -3.3916639752058039e+05 +6.6501970317557957e+06 
-1.5500000000000007e+00 -5.2331130082469102e-01 +6.8779855859634642e+00 +4.4837404289152154e+00 +2.9198433619109410e+00 -2.1489340699021654e+03 -3.3900626300383528e+05 +6.2436485873777326e+06 
-1.6000000000000008e+00 -5.2332902437762929e-01 +6.8789694192948145e+00 +4.4604981672553539e+00 +3.0701778636179404e+00 -2.0920116139839179e+03 -3.3880195882782870e+05 +5.8311650433870116e+06 
-1.6500000000000008e+00 -5.2334705973129581e-01 +6.8799693368094195e+00 +4.4368772031254471e+00 +3.2171639653250415e+00 -2.0338491733621745e+03 -3.3855517922356416e+05 +5.4130390370952636e+06 
-1.7000000000000008e+00 -5.2336540534952880e-01 +6.8809852226552248e+00 +4.4128798968691187e+00 +3.3610541415991650e+00 -1.9744655503462129e+03 -3.3826761862740305e+05 +4.9895631850534938e+06 
-1.7500000000000009e+00 -5.2338405969615953e-01 +6.8820169609797057e+00 +4.3885086055771865e+00 +3.5021009233567266e+00 -1.9138794601332563e+03 -3.3794097202803916e+05 +4.5610295177439293e+06 
-1.8000000000000009e+00 -5.2340302123505877e-01 +6.8830644359337061e+00 +4.3637656912354323e+00 +3.6405567012211750e+00 -1.8521097490954496e+03 -3.3757693321833096e+05 +4.1277309454458589e+06 
-1.8500000000000010e+00 -5.2342228843009508e-01 +6.8841275316642001e+00 +4.3386535133744344e+00 +3.7766740575460109e+00 -1.7891751977681054e+03 -3.3717719764127274e+05 +3.6899599382195366e+06 
-1.9000000000000010e+00 -5.2344185974513990e-01 +6.8852061323233462e+00 +4.3131744302023867e+00 +3.9107053726604804e+00 -1.7250945512100768e+03 -3.3674345908652287e+05 +3.2480087227569344e+06 
-1.9500000000000011e+00 -5.2346173364408688e-01 +6.8863001220610478e+00 +4.2873308019152212e+00 +4.0429031389336663e+00 -1.6598866117170890e+03 -3.3627741229569219e+05 +2.8021699305037525e+06 
-2.0000000000000009e+00 -5.2348190859084454e-01 +6.8874093850280351e+00 +4.2611249889956140e+00 +4.1735198304964669e+00 -1.5935701832913908e+03 -3.3578075188477157e+05 +2.3527361782914950e+06 
-2.0500000000000007e+00 -5.2350238289344075e-01 +6.8885337954247641e+00 +4.2345603731921768e+00 +4.3027630926672691e+00 -1.5261751880197514e+03 -3.3525501800780348e+05 +1.9000201937446797e+06 
-2.1000000000000005e+00 -5.2352315423634443e-01 +6.8896731834580880e+00 +4.2076446941731476e+00 +4.4306380067442737e+00 -1.4577745691931800e+03 -3.3470093459739088e+05 +1.4444089009118336e+06 
-2.1500000000000004e+00 -5.2354422014810020e-01 +6.8908273672971969e+00 +4.1803868497358314e+00 +4.5570923525069320e+00 -1.3884514548256452e+03 -3.3411897022166883e+05 +9.8630477195833018e+05 
-2.2000000000000002e+00 -5.2356557815726668e-01 +6.8919961651124337e+00 +4.1527957384427401e+00 +4.6820738623081590e+00 -1.3182889929875892e+03 -3.3350959303995722e+05 +5.2611041747912578e+05 
-2.2500000000000000e+00 -5.2358722579240180e-01 +6.8931793950729761e+00 +4.1248802576307462e+00 +4.8055303340755522e+00 -1.2473702997900662e+03 -3.3287327178326482e+05 +6.4228232663869640e+04 
-2.2999999999999998e+00 -5.2360916058208407e-01 +6.8943768753481001e+00 +4.0966493064095548e+00 +4.9274095647893974e+00 -1.1757785360959647e+03 -3.3221047514825431e+05 -3.9893909510278504e+05 
-2.3499999999999996e+00 -5.2363138005489329e-01 +6.8955884241075838e+00 +4.0681117830681961e+00 +5.0476593503205436e+00 -1.1035968428833303e+03 -3.3152167186429829e+05 -8.6298900368322222e+05 
-2.3999999999999995e+00 -5.2365388173941418e-01 +6.8968138595217017e+00 +4.0392765854248109e+00 +5.1662274614210988e+00 -1.0309083493300484e+03 -3.3080733039906045e+05 -1.3275190074723302e+06 
-2.4499999999999993e+00 -5.2367666316425066e-01 +6.8980529997598037e+00 +4.0101526128026093e+00 +5.2830617243075402e+00 -9.5779621880568880e+02 -3.3006791971252853e+05 -1.7921264131160546e+06 
-2.4999999999999991e+00 -5.2369972185799996e-01 +6.8993056629922487e+00 +3.9807487631177616e+00 +5.3981099318455090e+00 -8.8434358556745588e+02 -3.2930390849892818e+05 -2.2564086924099992e+06 
-2.5499999999999989e+00 -5.2372305534927499e-01 +6.9005716673867958e+00 +3.9510739351167330e+00 +5.5113199850629337e+00 -8.1063360073279728e+02 -3.2851576630432170e+05 -2.7199632212409885e+06 
-2.5999999999999988e+00 -5.2374666116668611e-01 +6.9018508311159934e+00 +3.9211370262269711e+00 +5.6226395980802941e+00 -7.3674938037095751e+02 -3.2770396115992329e+05 -3.1823876123158988e+06 
-2.6499999999999986e+00 -5.2377053683885444e-01 +6.9031429723497943e+00 +3.8909469344492247e+00 +5.7320166021662056e+00 -6.6277405514314034e+02 -3.2686896206664469e+05 -3.6432793811558210e+06 
-2.6999999999999984e+00 -5.2379467989442019e-01 +6.9044479092563655e+00 +3.8605125602360388e+00 +5.8393988993613233e+00 -5.8879082251598595e+02 -3.2601123857756972e+05 -4.1022355894583561e+06 
-2.7499999999999982e+00 -5.2381908786200126e-01 +6.9057654600065055e+00 +3.8298427992926691e+00 +5.9447342937042427e+00 -5.1488275443693999e+02 -3.2513125945261284e+05 -4.5588541361920070e+06 
-2.7999999999999980e+00 -5.2384375827025231e-01 +6.9070954427695073e+00 +3.7989465521666115e+00 +6.0479706529057600e+00 -4.4113304464483025e+02 -3.2422949395799811e+05 -5.0127321330625881e+06 
-2.8499999999999979e+00 -5.2386868864781733e-01 +6.9084376757146533e+00 +3.7678327176789059e+00 +6.1490558507176276e+00 -3.6762485346025608e+02 -3.2330641141783015e+05 -5.4634668641389143e+06 
-2.8999999999999977e+00 -5.2389387652333586e-01 +6.9097919770109453e+00 +3.7365101918260062e+00 +6.2479377850655462e+00 -2.9444125088020195e+02 -3.2236248138275306e+05 -5.9106562792741451e+06 
-2.9499999999999975e+00 -5.2391931942546810e-01 +6.9111581648288611e+00 +3.7049878743782894e+00 +6.3445642753221856e+00 -2.2166541893516776e+02 -3.2139817266177043e+05 -6.3538975307213189e+06 
-2.9999999999999973e+00 -5.2394501488287648e-01 +6.9125360573360464e+00 +3.6732746637612035e+00 +6.4388832800404305e+00 -1.4938049582525471e+02 -3.2041395529324777e+05 -6.7927880938581014e+06 
-3.0499999999999972e+00 -5.2397096042422220e-01 +6.9139254727028545e+00 +3.6413794582922785e+00 +6.5308426387224250e+00 -7.7669620432596446e+01 -3.1941029828131729e+05 -7.2269254286844237e+06 
-3.0999999999999970e+00 -5.2399715357816745e-01 +6.9153262290963324e+00 +3.6093111553529154e+00 +6.6203903312394425e+00 -6.6159073399867676e+00 -3.1838767179448914e+05 -7.6559071497551268e+06 
-3.1499999999999968e+00 -5.2402359187339931e-01 +6.9167381446862226e+00 +3.5770786558972660e+00 +6.7074742243861456e+00 +6.3697438810165245e+01 -3.1734654505223315e+05 -8.0793302925981460e+06 
-3.1999999999999966e+00 -5.2405027283857852e-01 +6.9181610376392451e+00 +3.5446908560900199e+00 +6.7920423152228198e+00 +1.3318733569435429e+02 -3.1628738835655566e+05 -8.4967926879553590e+06 
-3.2499999999999964e+00 -5.2407719400238006e-01 +6.9195947261247195e+00 +3.5121566535905440e+00 +6.8740424877871336e+00 +2.0177066669284912e+02 -3.1521067103807046e+05 -8.9078919583643340e+06 
-3.2999999999999963e+00 -5.2410435289349666e-01 +6.9210390283082690e+00 +3.4794849490406881e+00 +6.9534227826098629e+00 +2.6936423062743143e+02 -3.1411686373976583e+05 -9.3122251392071526e+06 
-3.3499999999999961e+00 -5.2413174704060728e-01 +6.9224937623576777e+00 +3.4466846399075250e+00 +7.0301311493772332e+00 +3.3588491495461818e+02 -3.1300643633331248e+05 -9.7093898741672616e+06 
-3.3999999999999959e+00 -5.2415937397239076e-01 +6.9239587464399870e+00 +3.4137646231759398e+00 +7.1041155630721349e+00 +4.0124962174976787e+02 -3.1187985887925414e+05 -1.0098983911907984e+07 
-3.4499999999999957e+00 -5.2418723121754507e-01 +6.9254337987211567e+00 +3.3807337991297248e+00 +7.1753240451286038e+00 +4.6537516031903124e+02 -3.1073760182419344e+05 -1.0480604358487692e+07 
-3.4999999999999956e+00 -5.2421531630476470e-01 +6.9269187373671990e+00 +3.3476010664883837e+00 +7.2437046129640121e+00 +5.2817838848359418e+02 -3.0958013557173032e+05 -1.0853848670512961e+07 
-3.5499999999999954e+00 -5.2424362676272984e-01 +6.9284133805435388e+00 +3.3143753221231371e+00 +7.3092052992312819e+00 +5.8957620688696409e+02 -3.0840793061511469e+05 -1.1218314568149840e+07 
-3.5999999999999952e+00 -5.2427216012013600e-01 +6.9299175464156662e+00 +3.2810654643951396e+00 +7.3717741385551729e+00 +6.4948548247071949e+02 -3.0722145748399524e+05 -1.1573599564391714e+07 
-3.6499999999999950e+00 -5.2430091390568123e-01 +6.9314310531458423e+00 +3.2476803922176214e+00 +7.4313592848432419e+00 +7.0782306738680541e+02 -3.0602118764706678e+05 -1.1919301074211992e+07 
-3.6999999999999948e+00 -5.2432988564806549e-01 +6.9329537189001282e+00 +3.2142290050496212e+00 +7.4879087414778667e+00 +7.6450579414641356e+02 -3.0480759134832490e+05 -1.2255016358513094e+07 
-3.7499999999999947e+00 -5.2435907287597572e-01 +6.9344853618422198e+00 +3.1807201994115473e+00 +7.5413705917525560e+00 +8.1945058141899312e+02 -3.0358113943889103e+05 -1.2580343286868133e+07 
-3.7999999999999945e+00 -5.2438847311811454e-01 +6.9360258001340966e+00 +3.1471628747236591e+00 +7.5916929976492549e+00 +8.7257426649976389e+02 -3.0234230345607217e+05 -1.2894879163505331e+07 
-3.8499999999999943e+00 -5.2441808390317002e-01 +6.9375748519383791e+00 +3.1135659279887506e+00 +7.6388240738729660e+00 +9.2379375343403740e+02 -3.0109155446711153e+05 -1.3198221752981938e+07 
-3.8999999999999941e+00 -5.2444790275985353e-01 +6.9391323354154153e+00 +3.0799382599136402e+00 +7.6827120360154275e+00 +9.7302584706121161e+02 -2.9982936441723612e+05 -1.3489968144480411e+07 
-3.9499999999999940e+00 -5.2447792721683606e-01 +6.9406980687281337e+00 +3.0462887647582755e+00 +7.7233049735755985e+00 +1.0201875246636911e+03 -2.9855620414756751e+05 -1.3769716591576481e+07 
-3.9999999999999938e+00 -5.2450815480284030e-01 +6.9422718700367048e+00 +3.0126263453052404e+00 +7.7605510922471526e+00 +1.0651955384077146e+03 -2.9727254543706123e+05 -1.4037063836023740e+07 
-4.0499999999999936e+00 -5.2453858300256728e-01 +6.9438535579973850e+00 +2.9789587441150380e+00 +7.7944283170499915e+00 +1.1079967480230409e+03 -2.9597889007930603e+05 -1.4291770926159134e+07 
-4.0999999999999934e+00 -5.2456920912478056e-01 +6.9454429517173573e+00 +2.9452890701542027e+00 +7.8250258870501934e+00 +1.1486563029102720e+03 -2.9467598233654938e+05 -1.4534249520487418e+07 
-4.1499999999999932e+00 -5.2460003043430803e-01 +6.9470398700338079e+00 +2.9116192847856324e+00 +7.8524590148133768e+00 +1.1872682994570262e+03 -2.9336465418998216e+05 -1.4765071116727138e+07 
-4.1999999999999931e+00 -5.2463104419592843e-01 +6.9486441317816796e+00 +2.8779513403874026e+00 +7.8768429756327816e+00 +1.2239270811591082e+03 -2.9204573809193732e+05 -1.4984808896445695e+07 
-4.2499999999999929e+00 -5.2466224767444736e-01 +6.9502555557967804e+00 +2.8442871948805362e+00 +7.8982930043389121e+00 +1.2587268365398638e+03 -2.9072006618808955e+05 -1.5194034972395781e+07 
-4.2999999999999927e+00 -5.2469363813465908e-01 +6.9518739609139653e+00 +2.8106288038826421e+00 +7.9169243529852054e+00 +1.2917618222668659e+03 -2.8938847074353544e+05 -1.5393321940256054e+07 
-4.3499999999999925e+00 -5.2472521284135176e-01 +6.9534991659674343e+00 +2.7769781228459105e+00 +7.9328522877651704e+00 +1.3231262957639537e+03 -2.8805178413993615e+05 -1.5583242387749922e+07 
-4.3999999999999924e+00 -5.2475696905931424e-01 +6.9551309897925826e+00 +2.7433371076432600e+00 +7.9461920052230575e+00 +1.3529145032450913e+03 -2.8671083816827019e+05 -1.5764368826087838e+07 
-4.4499999999999922e+00 -5.2478890405333978e-01 +6.9567692512235020e+00 +2.7097077153571809e+00 +7.9570587392745420e+00 +1.3812206581348246e+03 -2.8536646492662450e+05 -1.5937273543306760e+07 
-4.4999999999999920e+00 -5.2482101508819934e-01 +6.9584137690940926e+00 +2.6760918997805678e+00 +7.9655677057456762e+00 +1.4081390626455402e+03 -2.8401949632620875e+05 -1.6102529427678594e+07 
-4.5499999999999918e+00 -5.2485329942868997e-01 +6.9600643622389526e+00 +2.6424916196972448e+00 +7.9718340840139117e+00 +1.4337638858458338e+03 -2.8267076401540043e+05 -1.6260708474254049e+07 
-4.5999999999999917e+00 -5.2488575433957307e-01 +6.9617208494918366e+00 +2.6089088283358604e+00 +7.9759730616218967e+00 +1.4581894448364358e+03 -2.8132109967394214e+05 -1.6412383669248646e+07 
-4.6499999999999915e+00 -5.2491837708562883e-01 +6.9633830496864890e+00 +2.5753454828188085e+00 +7.9780998069251590e+00 +1.4815099509440815e+03 -2.7997133482244133e+05 -1.6558127280024348e+07 
-4.6999999999999913e+00 -5.2495116493162197e-01 +6.9650507816547327e+00 +2.5418035384665569e+00 +7.9783295448780001e+00 +1.5038196638105901e+03 -2.7862230143119366e+05 -1.6698511901537534e+07 
-4.7499999999999911e+00 -5.2498411514232457e-01 +6.9667238642324749e+00 +2.5082849525676991e+00 +7.9767773115676937e+00 +1.5252127910868603e+03 -2.7727482991428283e+05 -1.6834109780229144e+07 
-4.7999999999999909e+00 -5.2501722498248327e-01 +6.9684021162490977e+00 +2.4747916783858459e+00 +7.9735583815519426e+00 +1.5457836497743365e+03 -2.7592975260278489e+05 -1.6965493902878579e+07 
-4.8499999999999908e+00 -5.2505049171685581e-01 +6.9700853565394594e+00 +2.4413256724492078e+00 +7.9687877929221278e+00 +1.5656264655584007e+03 -2.7458789993393864e+05 -1.7093236627315640e+07 
-4.8999999999999906e+00 -5.2508391261020015e-01 +6.9717734039365666e+00 +2.4078888919288115e+00 +7.9625806283375686e+00 +1.5848354493719760e+03 -2.7325010265822220e+05 -1.7217910221214537e+07 
-4.9499999999999904e+00 -5.2511748492725252e-01 +6.9734660772709720e+00 +2.3744832913767522e+00 +7.9550520452103051e+00 +1.6035048799109520e+03 -2.7191719213619013e+05 -1.7340087398481563e+07 
-4.9999999999999902e+00 -5.2515120593275766e-01 +6.9751631953738009e+00 +2.3411108271906533e+00 +7.9463171575102987e+00 +1.6217289891634634e+03 -2.7058999937582831e+05 -1.7460340566998482e+07 
-5.0499999999999901e+00 -5.2518507289143723e-01 +6.9768645770772268e+00 +2.3077734535502721e+00 +7.9364910045329449e+00 +1.6396020652758971e+03 -2.6926935474276094e+05 -1.7579242503195353e+07 
