# field on trajectory
# s[mm] rx[mm] ry[mm] rz[mm] bx[T] by[T] bz[T]
0.0000000000000000e+00 +8.5389999999999997e+00 +0.0000000000000000e+00 +0.0000000000000000e+00 -2.7565372504735435e-02 -5.2474198927223981e-01 +5.0114706338124431e-03
-5.0000000000000003e-02 +8.5389999308239748e+00 +0.0000000000000000e+00 -4.9999999999936200e-02 -2.7564977556895989e-02 -5.2474071838671543e-01 +5.0092614125937440e-03
-1.0000000000000001e-01 +8.5389997232961061e+00 +0.0000000000000000e+00 -9.9999999999489581e-02 -2.7564594354627461e-02 -5.2473978984838143e-01 +5.0070602348321605e-03
-1.5000000000000002e-01 +8.5389993774166388e+00 +0.0000000000000000e+00 -1.4999999999827729e-01 -2.7564222949627761e-02 -5.2473920314562972e-01 +5.0048672207765130e-03
-2.0000000000000001e-01 +8.5389988931857292e+00 +0.0000000000000000e+00 -1.9999999999591656e-01 -2.7563863393595043e-02 -5.2473895776687052e-01 +5.0026824906760714e-03
-2.5000000000000000e-01 +8.5389982706034413e+00 +0.0000000000000000e+00 -2.4999999999202452e-01 -2.7563515738227688e-02 -5.2473905320053060e-01 +5.0005061647805556e-03
-2.9999999999999999e-01 +8.5389975096697484e+00 +0.0000000000000000e+00 -2.9999999998621840e-01 -2.7563180035224347e-02 -5.2473948893505429e-01 +4.9983383633401563e-03
-3.4999999999999998e-01 +8.5389966103845367e+00 +0.0000000000000000e+00 -3.4999999997811532e-01 -2.7562856336283907e-02 -5.2474026445890287e-01 +4.9961792066055260e-03
-3.9999999999999997e-01 +8.5389955727476021e+00 +0.0000000000000000e+00 -3.9999999996733249e-01 -2.7562544693105581e-02 -5.2474137926055442e-01 +4.9940288148278061e-03
-4.4999999999999996e-01 +8.5389943967586497e+00 +0.0000000000000000e+00 -4.4999999995348705e-01 -2.7562245157388903e-02 -5.2474283282850431e-01 +4.9918873082586256e-03
-4.9999999999999994e-01 +8.5389930824172975e+00 +0.0000000000000000e+00 -4.9999999993619615e-01 -2.7561957780833701e-02 -5.2474462465126370e-01 +4.9897548071501157e-03
-5.4999999999999993e-01 +8.5389916297230730e+00 +0.0000000000000000e+00 -5.4999999991507698e-01 -2.7561682615140234e-02 -5.2474675421736150e-01 +4.9876314317549107e-03
-5.9999999999999998e-01 +8.5389900386754150e+00 +0.0000000000000000e+00 -5.9999999988974673e-01 -2.7561419712009060e-02 -5.2474922101534316e-01 +4.9855173023261668e-03
-6.5000000000000002e-01 +8.5389883092736714e+00 +0.0000000000000000e+00 -6.4999999985982249e-01 -2.7561169123141202e-02 -5.2475202453376979e-01 +4.9834125391175609e-03
-7.0000000000000007e-01 +8.5389864415171051e+00 +0.0000000000000000e+00 -6.9999999982492134e-01 -2.7560930900238048e-02 -5.2475516426121960e-01 +4.9813172623833103e-03
-7.5000000000000011e-01 +8.5389844354048865e+00 +0.0000000000000000e+00 -7.4999999978466048e-01 -2.7560705095001498e-02 -5.2475863968628678e-01 +4.9792315923781767e-03
-8.0000000000000016e-01 +8.5389822909361008e+00 +0.0000000000000000e+00 -7.9999999973865710e-01 -2.7560491759133811e-02 -5.2476245029758195e-01 +4.9771556493574650e-03
-8.5000000000000020e-01 +8.5389800081097427e+00 +0.0000000000000000e+00 -8.4999999968652817e-01 -2.7560290944337842e-02 -5.2476659558373151e-01 +4.9750895535770534e-03
-9.0000000000000024e-01 +8.5389775869247195e+00 +0.0000000000000000e+00 -8.9999999962789090e-01 -2.7560102702316867e-02 -5.2477107503337828e-01 +4.9730334252933829e-03
-9.5000000000000029e-01 +8.5389750273798484e+00 +0.0000000000000000e+00 -9.4999999956236225e-01 -2.7559927084774723e-02 -5.2477588813518083e-01 +4.9709873847634829e-03
-1.0000000000000002e+00 +8.5389723294738626e+00 +0.0000000000000000e+00 -9.9999999948955931e-01 -2.7559764143415780e-02 -5.2478103437781309e-01 +4.9689515522449591e-03
-1.0500000000000003e+00 +8.5389694932054052e+00 +0.0000000000000000e+00 -1.0499999994090992e+00 -2.7559613929944979e-02 -5.2478651324996550e-01 +4.9669260479960229e-03
-1.1000000000000003e+00 +8.5389665185730301e+00 +0.0000000000000000e+00 -1.0999999993205989e+00 -2.7559476496067825e-02 -5.2479232424034361e-01 +4.9649109922754939e-03
-1.1500000000000004e+00 +8.5389634055752062e+00 +0.0000000000000000e+00 -1.1499999992236754e+00 -2.7559351893490468e-02 -5.2479846683766918e-01 +4.9629065053427993e-03
-1.2000000000000004e+00 +8.5389601542103151e+00 +0.0000000000000000e+00 -1.1999999991179457e+00 -2.7559240173919655e-02 -5.2480494053067817e-01 +4.9609127074579989e-03
-1.2500000000000004e+00 +8.5389567644766480e+00 +0.0000000000000000e+00 -1.2499999990030268e+00 -2.7559141389062798e-02 -5.2481174480812298e-01 +4.9589297188817787e-03
-1.3000000000000005e+00 +8.5389532363724125e+00 +0.0000000000000000e+00 -1.2999999988785356e+00 -2.7559055590627976e-02 -5.2481887915877101e-01 +4.9569576598754717e-03
-1.3500000000000005e+00 +8.5389495698957276e+00 +0.0000000000000000e+00 -1.3499999987440892e+00 -2.7558982830323930e-02 -5.2482634307140452e-01 +4.9549966507010596e-03
-1.4000000000000006e+00 +8.5389457650446250e+00 +0.0000000000000000e+00 -1.3999999985993044e+00 -2.7558923159860152e-02 -5.2483413603482110e-01 +4.9530468116211861e-03
-1.4500000000000006e+00 +8.5389418218170494e+00 +0.0000000000000000e+00 -1.4499999984437979e+00 -2.7558876630946846e-02 -5.2484225753783342e-01 +4.9511082628991626e-03
-1.5000000000000007e+00 +8.5389377402108604e+00 +0.0000000000000000e+00 -1.4999999982771868e+00 -2.7558843295294976e-02 -5.2485070706926906e-01 +4.9491811247989797e-03
-1.5500000000000007e+00 +8.5389335202238286e+00 +0.0000000000000000e+00 -1.5499999980990880e+00 -2.7558823204616254e-02 -5.2485948411796990e-01 +4.9472655175853125e-03
-1.6000000000000008e+00 +8.5389291618536411e+00 +0.0000000000000000e+00 -1.5999999979091182e+00 -2.7558816410623226e-02 -5.2486858817279247e-01 +4.9453615615235357e-03
-1.6500000000000008e+00 +8.5389246650978983e+00 +0.0000000000000000e+00 -1.6499999977068942e+00 -2.7558822965029220e-02 -5.2487801872260909e-01 +4.9434693768797252e-03
-1.7000000000000008e+00 +8.5389200299541130e+00 +0.0000000000000000e+00 -1.6999999974920326e+00 -2.7558842919548385e-02 -5.2488777525630492e-01 +4.9415890839206748e-03
-1.7500000000000009e+00 +8.5389152564197133e+00 +0.0000000000000000e+00 -1.7499999972641502e+00 -2.7558876325895775e-02 -5.2489785726278093e-01 +4.9397208029138976e-03
-1.8000000000000009e+00 +8.5389103444920416e+00 +0.0000000000000000e+00 -1.7999999970228640e+00 -2.7558923235787288e-02 -5.2490826423095149e-01 +4.9378646541276393e-03
-1.8500000000000010e+00 +8.5389052941683534e+00 +0.0000000000000000e+00 -1.8499999967677903e+00 -2.7558983700939715e-02 -5.2491899564974531e-01 +4.9360207578308868e-03
-1.9000000000000010e+00 +8.5389001054458191e+00 +0.0000000000000000e+00 -1.8999999964985459e+00 -2.7559057773070786e-02 -5.2493005100810564e-01 +4.9341892342933775e-03
-1.9500000000000011e+00 +8.5388947783215237e+00 +0.0000000000000000e+00 -1.9499999962147474e+00 -2.7559145503899162e-02 -5.2494142979499026e-01 +4.9323702037856066e-03
-2.0000000000000009e+00 +8.5388893127924668e+00 +0.0000000000000000e+00 -1.9999999959160113e+00 -2.7559246945144431e-02 -5.2495313149936873e-01 +4.9305637865788366e-03
-2.0500000000000007e+00 +8.5388837088555647e+00 +0.0000000000000000e+00 -2.0499999956019543e+00 -2.7559362127911304e-02 -5.2496515539426081e-01 +4.9287700959847426e-03
-2.1000000000000005e+00 +8.5388779665076466e+00 +0.0000000000000000e+00 -2.0999999952721926e+00 -2.7559491000841683e-02 -5.2497749988883313e-01 +4.9269892174742761e-03
-2.1500000000000004e+00 +8.5388720857454583e+00 +0.0000000000000000e+00 -2.1499999949263429e+00 -2.7559633491962141e-02 -5.2499016317629754e-01 +4.9252212295587058e-03
-2.2000000000000002e+00 +8.5388660665656602e+00 +0.0000000000000000e+00 -2.1999999945640218e+00 -2.7559789529299841e-02 -5.2500314344987742e-01 +4.9234662107499562e-03
-2.2500000000000000e+00 +8.5388599089648309e+00 +0.0000000000000000e+00 -2.2499999941848454e+00 -2.7559959040882452e-02 -5.2501643890280603e-01 +4.9217242395606297e-03
-2.2999999999999998e+00 +8.5388536129394641e+00 +0.0000000000000000e+00 -2.2999999937884299e+00 -2.7560141954738208e-02 -5.2503004772832795e-01 +4.9199953945039980e-03
-2.3499999999999996e+00 +8.5388471784859714e+00 +0.0000000000000000e+00 -2.3499999933743920e+00 -2.7560338198895879e-02 -5.2504396811969722e-01 +4.9182797540940053e-03
-2.3999999999999995e+00 +8.5388406056006847e+00 +0.0000000000000000e+00 -2.3999999929423477e+00 -2.7560547701384774e-02 -5.2505819827017830e-01 +4.9165773968452677e-03
-2.4499999999999993e+00 +8.5388338942798505e+00 +0.0000000000000000e+00 -2.4499999924919136e+00 -2.7560770390234701e-02 -5.2507273637304519e-01 +4.9148884012730730e-03
-2.4999999999999991e+00 +8.5388270445196373e+00 +0.0000000000000000e+00 -2.4999999920227056e+00 -2.7561006193476012e-02 -5.2508758062158112e-01 +4.9132128458933980e-03
-2.5499999999999989e+00 +8.5388200563161298e+00 +0.0000000000000000e+00 -2.5499999915343396e+00 -2.7561255039139546e-02 -5.2510272920907930e-01 +4.9115508092228829e-03
-2.5999999999999988e+00 +8.5388129296653350e+00 +0.0000000000000000e+00 -2.5999999910264320e+00 -2.7561516855256658e-02 -5.2511818032884139e-01 +4.9099023697788602e-03
-2.6499999999999986e+00 +8.5388056645631778e+00 +0.0000000000000000e+00 -2.6499999904985989e+00 -2.7561791569859214e-02 -5.2513393217417781e-01 +4.9082676060793334e-03
-2.6999999999999984e+00 +8.5387982610055069e+00 +0.0000000000000000e+00 -2.6999999899504563e+00 -2.7562079110979541e-02 -5.2514998293840731e-01 +4.9066465966429926e-03
-2.7499999999999982e+00 +8.5387907189880892e+00 +0.0000000000000000e+00 -2.7499999893816200e+00 -2.7562379406650475e-02 -5.2516633081485786e-01 +4.9050394199892126e-03
-2.7999999999999980e+00 +8.5387830385066152e+00 +0.0000000000000000e+00 -2.7999999887917060e+00 -2.7562692384905326e-02 -5.2518297399686420e-01 +4.9034461546380494e-03
-2.8499999999999979e+00 +8.5387752195566975e+00 +0.0000000000000000e+00 -2.8499999881803304e+00 -2.7563017973777873e-02 -5.2519991067776983e-01 +4.9018668791102520e-03
-2.8999999999999977e+00 +8.5387672621338702e+00 +0.0000000000000000e+00 -2.8999999875471087e+00 -2.7563356101302363e-02 -5.2521713905092504e-01 +4.9003016719272518e-03
-2.9499999999999975e+00 +8.5387591662335911e+00 +0.0000000000000000e+00 -2.9499999868916569e+00 -2.7563706695513512e-02 -5.2523465730968821e-01 +4.8987506116111752e-03
-2.9999999999999973e+00 +8.5387509318512418e+00 +0.0000000000000000e+00 -2.9999999862135902e+00 -2.7564069684446458e-02 -5.2525246364742439e-01 +4.8972137766848337e-03
-3.0499999999999972e+00 +8.5387425589821273e+00 +0.0000000000000000e+00 -3.0499999855125250e+00 -2.7564444996136837e-02 -5.2527055625750507e-01 +4.8956912456717353e-03
-3.0999999999999970e+00 +8.5387340476214764e+00 +0.0000000000000000e+00 -3.0999999847880764e+00 -2.7564832558620661e-02 -5.2528893333330862e-01 +4.8941830970960776e-03
-3.1499999999999968e+00 +8.5387253977644448e+00 +0.0000000000000000e+00 -3.1499999840398600e+00 -2.7565232299934447e-02 -5.2530759306822050e-01 +4.8926894094827606e-03
-3.1999999999999966e+00 +8.5387166094061140e+00 +0.0000000000000000e+00 -3.1999999832674915e+00 -2.7565644148115100e-02 -5.2532653365563087e-01 +4.8912102613573750e-03
-3.2499999999999964e+00 +8.5387076825414887e+00 +0.0000000000000000e+00 -3.2499999824705865e+00 -2.7566068031199931e-02 -5.2534575328893685e-01 +4.8897457312462147e-03
-3.2999999999999963e+00 +8.5386986171655028e+00 +0.0000000000000000e+00 -3.2999999816487602e+00 -2.7566503877226697e-02 -5.2536525016154068e-01 +4.8882958976762701e-03
-3.3499999999999961e+00 +8.5386894132730156e+00 +0.0000000000000000e+00 -3.3499999808016279e+00 -2.7566951614233559e-02 -5.2538502246685015e-01 +4.8868608391752300e-03
-3.3999999999999959e+00 +8.5386800708588133e+00 +0.0000000000000000e+00 -3.3999999799288050e+00 -2.7567411170259078e-02 -5.2540506839827761e-01 +4.8854406342714917e-03
-3.4499999999999957e+00 +8.5386705899176114e+00 +0.0000000000000000e+00 -3.4499999790299065e+00 -2.7567882473342197e-02 -5.2542538614924150e-01 +4.8840353614941559e-03
-3.4999999999999956e+00 +8.5386609704440524e+00 +0.0000000000000000e+00 -3.4999999781045479e+00 -2.7568365451522265e-02 -5.2544597391316372e-01 +4.8826450993730234e-03
-3.5499999999999954e+00 +8.5386512124327094e+00 +0.0000000000000000e+00 -3.5499999771523441e+00 -2.7568860032839010e-02 -5.2546682988347104e-01 +4.8812699264386096e-03
-3.5999999999999952e+00 +8.5386413158780829e+00 +0.0000000000000000e+00 -3.5999999761729100e+00 -2.7569366145332549e-02 -5.2548795225359446e-01 +4.8799099212221350e-03
-3.6499999999999950e+00 +8.5386312807746041e+00 +0.0000000000000000e+00 -3.6499999751658612e+00 -2.7569883717043327e-02 -5.2550933921696885e-01 +4.8785651622555264e-03
-3.6999999999999948e+00 +8.5386211071166329e+00 +0.0000000000000000e+00 -3.6999999741308121e+00 -2.7570412676012228e-02 -5.2553098896703287e-01 +4.8772357280714284e-03
-3.7499999999999947e+00 +8.5386107948984638e+00 +0.0000000000000000e+00 -3.7499999730673776e+00 -2.7570952950280409e-02 -5.2555289969722785e-01 +4.8759216972031937e-03
-3.7999999999999945e+00 +8.5386003441143181e+00 +0.0000000000000000e+00 -3.7999999719751729e+00 -2.7571504467889450e-02 -5.2557506960099953e-01 +4.8746231481848921e-03
-3.8499999999999943e+00 +8.5385897547583518e+00 +0.0000000000000000e+00 -3.8499999708538124e+00 -2.7572067156881232e-02 -5.2559749687179547e-01 +4.8733401595513091e-03
-3.8999999999999941e+00 +8.5385790268246513e+00 +0.0000000000000000e+00 -3.8999999697029106e+00 -2.7572640945297988e-02 -5.2562017970306707e-01 +4.8720728098379466e-03
-3.9499999999999940e+00 +8.5385681603072374e+00 +0.0000000000000000e+00 -3.9499999685220826e+00 -2.7573225761182301e-02 -5.2564311628826743e-01 +4.8708211775810280e-03
-3.9999999999999938e+00 +8.5385571552000616e+00 +0.0000000000000000e+00 -3.9999999673109428e+00 -2.7573821532577029e-02 -5.2566630482085142e-01 +4.8695853413174900e-03
-4.0499999999999936e+00 +8.5385460114970098e+00 +0.0000000000000000e+00 -4.0499999660691053e+00 -2.7574428177371685e-02 -5.2568974339435248e-01 +4.8683653643385701e-03
-4.0999999999999934e+00 +8.5385347291919036e+00 +0.0000000000000000e+00 -4.0999999647961856e+00 -2.7575045572841014e-02 -5.2571342970260670e-01 +4.8671612489503933e-03
-4.1499999999999932e+00 +8.5385233082784975e+00 +0.0000000000000000e+00 -4.1499999634917968e+00 -2.7575673586106270e-02 -5.2573736133952931e-01 +4.8659729822133476e-03
-4.1999999999999931e+00 +8.5385117487504818e+00 +0.0000000000000000e+00 -4.1999999621555535e+00 -2.7576312084288998e-02 -5.2576153589903840e-01 +4.8648005511885686e-03
-4.2499999999999929e+00 +8.5385000506014830e+00 +0.0000000000000000e+00 -4.2499999607870702e+00 -2.7576960934510959e-02 -5.2578595097505587e-01 +4.8636439429379499e-03
-4.2999999999999927e+00 +8.5384882138250635e+00 +0.0000000000000000e+00 -4.2999999593859615e+00 -2.7577620003894229e-02 -5.2581060416150738e-01 +4.8625031445241381e-03
-4.3499999999999925e+00 +8.5384762384147237e+00 +0.0000000000000000e+00 -4.3499999579518409e+00 -2.7578289159561072e-02 -5.2583549305232002e-01 +4.8613781430105439e-03
-4.3999999999999924e+00 +8.5384641243639017e+00 +0.0000000000000000e+00 -4.3999999564843222e+00 -2.7578968268634034e-02 -5.2586061524142569e-01 +4.8602689254613387e-03
-4.4499999999999922e+00 +8.5384518716659752e+00 +0.0000000000000000e+00 -4.4499999549830198e+00 -2.7579657198235866e-02 -5.2588596832275691e-01 +4.8591754789414502e-03
-4.4999999999999920e+00 +8.5384394803142580e+00 +0.0000000000000000e+00 -4.4999999534475474e+00 -2.7580355815489562e-02 -5.2591154989025080e-01 +4.8580977905165797e-03
-4.5499999999999918e+00 +8.5384269503020054e+00 +0.0000000000000000e+00 -4.5499999518775196e+00 -2.7581063987518341e-02 -5.2593735753784521e-01 +4.8570358472531929e-03
-4.5999999999999917e+00 +8.5384142816224138e+00 +0.0000000000000000e+00 -4.5999999502725490e+00 -2.7581781581445607e-02 -5.2596338885948091e-01 +4.8559896362185273e-03
-4.6499999999999915e+00 +8.5384014742686212e+00 +0.0000000000000000e+00 -4.6499999486322503e+00 -2.7582508464394986e-02 -5.2598964144910054e-01 +4.8549591444805931e-03
-4.6999999999999913e+00 +8.5383885282337051e+00 +0.0000000000000000e+00 -4.6999999469562361e+00 -2.7583244503490287e-02 -5.2601611290064787e-01 +4.8539443591081718e-03
-4.7499999999999911e+00 +8.5383754435106862e+00 +0.0000000000000000e+00 -4.7499999452441202e+00 -2.7583989565855508e-02 -5.2604280080806975e-01 +4.8529452671708245e-03
-4.7999999999999909e+00 +8.5383622200925284e+00 +0.0000000000000000e+00 -4.7999999434955161e+00 -2.7584743518614847e-02 -5.2606970276531273e-01 +4.8519618557388922e-03
-4.8499999999999908e+00 +8.5383488579721387e+00 +0.0000000000000000e+00 -4.8499999417100375e+00 -2.7585506228892661e-02 -5.2609681636632577e-01 +4.8509941118834938e-03
-4.8999999999999906e+00 +8.5383353571423672e+00 +0.0000000000000000e+00 -4.8999999398872971e+00 -2.7586277563813454e-02 -5.2612413920505874e-01 +4.8500420226765340e-03
-4.9499999999999904e+00 +8.5383217175960127e+00 +0.0000000000000000e+00 -4.9499999380269086e+00 -2.7587057390501924e-02 -5.2615166887546216e-01 +4.8491055751907052e-03
-4.9999999999999902e+00 +8.5383079393258150e+00 +0.0000000000000000e+00 -4.9999999361284857e+00 -2.7587845576082914e-02 -5.2617940297148758e-01 +4.8481847564994882e-03
-5.0499999999999901e+00 +8.5382940223244628e+00 +0.0000000000000000e+00 -5.0499999341916402e+00 -2.7588641987681378e-02 -5.2620733908708661e-01 +4.8472795536771461e-03
-5.0999999999999899e+00 +8.5382799665845912e+00 +0.0000000000000000e+00 -5.0999999322159857e+00 -2.7589446492422443e-02 -5.2623547481621191e-01 +4.8463899537987461e-03
-5.1499999999999897e+00 +8.5382657720987822e+00 +0.0000000000000000e+00 -5.1499999302011350e+00 -2.7590258957431359e-02 -5.2626380775281612e-01 +4.8455159439401447e-03
-5.1999999999999895e+00 +8.5382514388595645e+00 +0.0000000000000000e+00 -5.1999999281467018e+00 -2.7591079249833471e-02 -5.2629233549085164e-01 +4.8446575111779936e-03
-5.2499999999999893e+00 +8.5382369668594169e+00 +0.0000000000000000e+00 -5.2499999260522978e+00 -2.7591907236754289e-02 -5.2632105562427089e-01 +4.8438146425897463e-03
-5.2999999999999892e+00 +8.5382223560907686e+00 +0.0000000000000000e+00 -5.2999999239175359e+00 -2.7592742785319365e-02 -5.2634996574702630e-01 +4.8429873252536599e-03
-5.3499999999999890e+00 +8.5382076065459955e+00 +0.0000000000000000e+00 -5.3499999217420289e+00 -2.7593585762654398e-02 -5.2637906345306917e-01 +4.8421755462487890e-03
-5.3999999999999888e+00 +8.5381927182174273e+00 +0.0000000000000000e+00 -5.3999999195253894e+00 -2.7594436035885177e-02 -5.2640834633635070e-01 +4.8413792926550025e-03
-5.4499999999999886e+00 +8.5381776910973439e+00 +0.0000000000000000e+00 -5.4499999172672302e+00 -2.7595293472137541e-02 -5.2643781199082107e-01 +4.8405985515529723e-03
-5.4999999999999885e+00 +8.5381625251779756e+00 +0.0000000000000000e+00 -5.4999999149671632e+00 -2.7596157938537459e-02 -5.2646745801042916e-01 +4.8398333100241843e-03
-5.5499999999999883e+00 +8.5381472204515063e+00 +0.0000000000000000e+00 -5.5499999126248003e+00 -2.7597029302210911e-02 -5.2649728198912304e-01 +4.8390835551509340e-03
-5.5999999999999881e+00 +8.5381317769100740e+00 +0.0000000000000000e+00 -5.5999999102397542e+00 -2.7597907430283983e-02 -5.2652728152084949e-01 +4.8383492740163318e-03
-5.6499999999999879e+00 +8.5381161945457684e+00 +0.0000000000000000e+00 -5.6499999078116376e+00 -2.7598792189882804e-02 -5.2655745419955302e-01 +4.8376304537043092e-03
-5.6999999999999877e+00 +8.5381004733506334e+00 +0.0000000000000000e+00 -5.6999999053400616e+00 -2.7599683448133547e-02 -5.2658779761917740e-01 +4.8369270812996159e-03
-5.7499999999999876e+00 +8.5380846133166699e+00 +0.0000000000000000e+00 -5.7499999028246389e+00 -2.7600581072162428e-02 -5.2661830937366383e-01 +4.8362391438878235e-03
-5.7999999999999874e+00 +8.5380686144358329e+00 +0.0000000000000000e+00 -5.7999999002649805e+00 -2.7601484929095695e-02 -5.2664898705695140e-01 +4.8355666285553271e-03
-5.8499999999999872e+00 +8.5380524767000345e+00 +0.0000000000000000e+00 -5.8499998976606991e+00 -2.7602394886059624e-02 -5.2667982826297743e-01 +4.8349095223893480e-03
