# multipoles
# s[mm] polynom_b[n=0][T/m^n] polynom_b[n=1][T/m^n] polynom_b[n=2][T/m^n] polynom_b[n=3][T/m^n] polynom_b[n=4][T/m^n] polynom_b[n=5][T/m^n] polynom_b[n=6][T/m^n] 
-0.0000000000000000e+00 -5.7697283622634876e-01 +7.5448156752067010e+00 +6.7136990811098700e+00 -6.3034957246003074e+01 -1.5067693818036905e+04 +2.3491319566309321e+04 +1.0759657554207975e+08 
-5.0000000000000003e-02 -5.7697377600095157e-01 +7.5448086641682481e+00 +6.7119748649548194e+00 -6.2705557905322941e+01 -1.5008082496099365e+04 +2.0644927877437876e+04 +1.0727143849532233e+08 
-1.0000000000000001e-01 -5.7697515214556916e-01 +7.5448254589355406e+00 +6.7096189477335306e+00 -6.2365635460021160e+01 -1.4947016696794217e+04 +1.7731629070319534e+04 +1.0694425740103269e+08 
-1.4999999999999999e-01 -5.7697696377723828e-01 +7.5448660006650652e+00 +6.7066404626960656e+00 -6.2015968416065000e+01 -1.4884644115858151e+04 +1.4758377398357319e+04 +1.0661565229702567e+08 
-2.0000000000000001e-01 -5.7697921001293950e-01 +7.5449302305179282e+00 +6.7030485466892662e+00 -6.1657335420930799e+01 -1.4821112547689310e+04 +1.1732128234208551e+04 +1.0628624389186321e+08 
-2.5000000000000000e-01 -5.7698188996976041e-01 +7.5450180896562582e+00 +6.6988523321948890e+00 -6.1290515129206788e+01 -1.4756569666201523e+04 +8.6598369914261802e+03 +1.0595665206991023e+08 
-2.9999999999999999e-01 -5.7698500276474418e-01 +7.5451295192410974e+00 +6.6940609548119578e+00 -6.0916286107680421e+01 -1.4691163232504707e+04 +5.5484583316680546e+03 +1.0562749731640846e+08 
-3.4999999999999998e-01 -5.7698854751497308e-01 +7.5452644604366963e+00 +6.6886835488020484e+00 -6.0535427017119467e+01 -1.4625040971744382e+04 +2.4049476692500625e+03 +1.0529939987266541e+08 
-4.0000000000000002e-01 -5.7699252333756290e-01 +7.5454228544109094e+00 +6.6827292505122902e+00 -6.0148716633404739e+01 -1.4558350664335627e+04 -7.6373862255950075e+02 +1.0497298034971517e+08 
-4.5000000000000001e-01 -5.7699692934965541e-01 +7.5456046423223970e+00 +6.6762071923385218e+00 -5.9756933315367874e+01 -1.4491239984852135e+04 -3.9506476380124163e+03 +1.0464885864665432e+08 
-5.0000000000000000e-01 -5.7700176466837350e-01 +7.5458097653452549e+00 +6.6691265098848396e+00 -5.9360856017732154e+01 -1.4423856695007460e+04 -7.1488215617486130e+03 +1.0432765524982104e+08 
-5.5000000000000004e-01 -5.7700702841085771e-01 +7.5460381646430523e+00 +6.6614963378370726e+00 -5.8961263213602038e+01 -1.4356348530191344e+04 -1.0351306607281389e+04 +1.0400999046345009e+08 
-5.9999999999999998e-01 -5.7701271969435564e-01 +7.5462897813828222e+00 +6.6533258123867292e+00 -5.8558933497178238e+01 -1.4288863271286569e+04 -1.3551147947280771e+04 +1.0369648491447920e+08 
-6.5000000000000002e-01 -5.7701883763603545e-01 +7.5465645567371933e+00 +6.6446240660218541e+00 -5.8154645651556045e+01 -1.4221548592998350e+04 -1.6741389209798774e+04 +1.0338775848864304e+08 
-6.9999999999999996e-01 -5.7702538135315939e-01 +7.5468624318731612e+00 +6.6354002349606223e+00 -5.7749178191230094e+01 -1.4154552273881887e+04 -1.9915076259064786e+04 +1.0308443178452690e+08 
-7.5000000000000000e-01 -5.7703234996291874e-01 +7.5471833479641086e+00 +6.6256634543527220e+00 -5.7343309844851852e+01 -1.4088022067275921e+04 -2.3065253211746403e+04 +1.0278712524150157e+08 
-8.0000000000000004e-01 -5.7703974258262380e-01 +7.5475272461800813e+00 +6.6154228568571938e+00 -5.6937819187462509e+01 -1.4022105652157255e+04 -2.6184965411242352e+04 +1.0249645876726462e+08 
-8.4999999999999998e-01 -5.7704755832954135e-01 +7.5478940676943624e+00 +6.6046875789476545e+00 -5.6533484883018133e+01 -1.3956950816139924e+04 -2.9267257483416070e+04 +1.0221305302472873e+08 
-9.0000000000000002e-01 -5.7705579632097392e-01 +7.5482837536779739e+00 +6.5934667553101711e+00 -5.6131085457185556e+01 -1.3892705297464961e+04 -3.2305175226814288e+04 +1.0193752833525452e+08 
-9.4999999999999996e-01 -5.7706445567428044e-01 +7.5486962453095119e+00 +6.5817695219151640e+00 -5.5731399725390482e+01 -1.3829516866587028e+04 -3.5291762007434430e+04 +1.0167050522896004e+08 
-1.0000000000000000e+00 -5.7707353550673801e-01 +7.5491314837603234e+00 +6.5696050119133327e+00 -5.5335206162680947e+01 -1.3767533221034084e+04 -3.8220063990803086e+04 +1.0141260374927413e+08 
-1.0500000000000000e+00 -5.7708303493574897e-01 +7.5495894102043728e+00 +6.5569823623063277e+00 -5.4943283320878976e+01 -1.3706902160249587e+04 -4.1083126715828352e+04 +1.0116444462282312e+08 
-1.1000000000000001e+00 -5.7709295307872477e-01 +7.5500699658215407e+00 +6.5439107087551580e+00 -5.4556409950834379e+01 -1.3647771450186940e+04 -4.3873994107379316e+04 +1.0092664835451110e+08 
-1.1499999999999999e+00 -5.7710328905301900e-01 +7.5505730917849982e+00 +6.5303991826496306e+00 -5.4175364505264881e+01 -1.3590288736673514e+04 -4.6585712468141945e+04 +1.0069983461786245e+08 
-1.2000000000000000e+00 -5.7711404197607874e-01 +7.5510987292733684e+00 +6.5164569239877403e+00 -5.3800925620769476e+01 -1.3534601899841395e+04 -4.9211326612830286e+04 +1.0048462467226318e+08 
-1.2500000000000000e+00 -5.7712521096532288e-01 +7.5516468194640023e+00 +6.5020930647011888e+00 -5.3433871849034787e+01 -1.3480858604688317e+04 -5.1743882024897444e+04 +1.0028163833282903e+08 
-1.3000000000000000e+00 -5.7713679513825844e-01 +7.5522173035364588e+00 +6.4873167439175816e+00 -5.3074981798322860e+01 -1.3429206708112859e+04 -5.4176423728168316e+04 +1.0009149669925131e+08 
-1.3500000000000001e+00 -5.7714879361229288e-01 +7.5528101226677444e+00 +6.4721370946534176e+00 -5.2725033934395000e+01 -1.3379793902351017e+04 -5.6501997881858319e+04 +9.9914819755223021e+07 
-1.3999999999999999e+00 -5.7716120550498240e-01 +7.5534252180363675e+00 +6.4565632532778352e+00 -5.2384806763344756e+01 -1.3332767967763726e+04 -5.8713650284717631e+04 +9.9752228070410997e+07 
-1.4500000000000000e+00 -5.7717402993380884e-01 +7.5540625308239191e+00 +6.4406043550013425e+00 -5.2055078864073486e+01 -1.3288276656778542e+04 -6.0804426172572748e+04 +9.9604342028733909e+07 
-1.5000000000000000e+00 -5.7718726601632064e-01 +7.5547220022122525e+00 +6.4242695379960395e+00 -5.1736628818239396e+01 -1.3246467798227888e+04 -6.2767370644296352e+04 +9.9471782521870002e+07 
-1.5500000000000000e+00 -5.7720091287006392e-01 +7.5554035733787543e+00 +6.4075679377153936e+00 -5.1430234976293846e+01 -1.3207489152118264e+04 -6.4595530736932531e+04 +9.9355169983732969e+07 
-1.6000000000000001e+00 -5.7721496961263219e-01 +7.5561071855047279e+00 +6.3905086891942204e+00 -5.1136675821917301e+01 -1.3171488460443941e+04 -6.6281952352454959e+04 +9.9255124700399205e+07 
-1.6499999999999999e+00 -5.7722943536155624e-01 +7.5568327797736146e+00 +6.3731009281583972e+00 -5.0856729892228181e+01 -1.3138613485950620e+04 -6.7819680914563782e+04 +9.9172267099313959e+07 
-1.7000000000000000e+00 -5.7724430923451198e-01 +7.5575802973658783e+00 +6.3553537938647011e+00 -5.0591175572798115e+01 -1.3109012093065610e+04 -6.9201763074531656e+04 +9.9107218320997015e+07 
-1.7500000000000000e+00 -5.7725959034911911e-01 +7.5583496794626281e+00 +6.3372764216051278e+00 -5.0340791244073728e+01 -1.3082832027503002e+04 -7.0421245494759525e+04 +9.9060598647200644e+07 
-1.8000000000000000e+00 -5.7727527782296417e-01 +7.5591408672478497e+00 +6.3188779478180281e+00 -5.0106355374206970e+01 -1.3060221072540586e+04 -7.1471174046010521e+04 +9.9033028640113100e+07 
-1.8500000000000001e+00 -5.7729137077374149e-01 +7.5599538019022559e+00 +6.3001675104225239e+00 -4.9888646257705254e+01 -1.3041327051067350e+04 -7.2344596060651704e+04 +9.9025129121431217e+07 
-1.8999999999999999e+00 -5.7730786831916570e-01 +7.5607884246115518e+00 +6.2811542474632542e+00 -4.9688442377694138e+01 -1.3026297784630377e+04 -7.3034557212190513e+04 +9.9037520884216681e+07 
-1.9500000000000000e+00 -5.7732476957685974e-01 +7.5616446765555816e+00 +6.2618472931398346e+00 -4.9506521935454408e+01 -1.3015280996386982e+04 -7.3534105471844901e+04 +9.9070824068326578e+07 
-2.0000000000000000e+00 -5.7734192508393467e-01 +7.5625149481979763e+00 +6.2424218249289076e+00 -4.9344731095807106e+01 -1.3008415163934111e+04 -7.3836655793546495e+04 +9.9124821119336724e+07 
-2.0499999999999998e+00 -5.7735947428341428e-01 +7.5634062450591726e+00 +6.2227185410871977e+00 -4.9201075144467715e+01 -1.3005489009476074e+04 -7.3950952577193370e+04 +9.9198935908278197e+07 
-2.1000000000000001e+00 -5.7737741483454963e-01 +7.5643183831659249e+00 +6.2027396031055266e+00 -4.9074962430211663e+01 -1.3006353739778473e+04 -7.3882815361292669e+04 +9.9292135430301115e+07 
-2.1499999999999999e+00 -5.7739574439656149e-01 +7.5652511785476406e+00 +6.1824871694135268e+00 -4.8965801391732924e+01 -1.3010860478579025e+04 -7.3638062955647634e+04 +9.9403386121328533e+07 
-2.2000000000000002e+00 -5.7741446062870339e-01 +7.5662044472311152e+00 +6.1619633971285381e+00 -4.8873000354473199e+01 -1.3018860316796674e+04 -7.3222515047091219e+04 +9.9531654207913816e+07 
-2.2500000000000000e+00 -5.7743356119027545e-01 +7.5671780052453030e+00 +6.1411704448593003e+00 -4.8795967710552013e+01 -1.3030204386234471e+04 -7.2641990780996770e+04 +9.9675906190041289e+07 
-2.2999999999999998e+00 -5.7745304374055884e-01 +7.5681716686191987e+00 +6.1201104743567365e+00 -4.8734111841866870e+01 -1.3044743897719687e+04 -7.1902309335738944e+04 +9.9835109082430288e+07 
-2.3500000000000001e+00 -5.7747290593888778e-01 +7.5691852533821837e+00 +6.0987856407617480e+00 -4.8686841147346371e+01 -1.3062329889124741e+04 -7.1009289690794278e+04 +1.0000822874966884e+08 
-2.3999999999999999e+00 -5.7749314544450825e-01 +7.5702185755618912e+00 +6.0771981053867021e+00 -4.8653563925923592e+01 -1.3082813562065665e+04 -6.9968751646942779e+04 +1.0019423215169455e+08 
-2.4500000000000002e+00 -5.7751375991678933e-01 +7.5712714511909214e+00 +6.0553500250892194e+00 -4.8633688681468300e+01 -1.3106046000665980e+04 -6.8786513278405706e+04 +1.0039208546687183e+08 
-2.5000000000000000e+00 -5.7753474701504715e-01 +7.5723436962956479e+00 +6.0332435595952889e+00 -4.8626623650091176e+01 -1.3131878362316544e+04 -6.7468394818201676e+04 +1.0060075534829415e+08 
-2.5499999999999998e+00 -5.7755610439862592e-01 +7.5734351269084668e+00 +6.0108808667039808e+00 -4.8631777311210961e+01 -1.3160161754731771e+04 -6.6020214452855464e+04 +1.0081920812732552e+08 
-2.6000000000000001e+00 -5.7757782972694860e-01 +7.5745455590576043e+00 +5.9882641064750688e+00 -4.8648557968429927e+01 -1.3190747345617907e+04 -6.4447791784953617e+04 +1.0104641053372437e+08 
-2.6499999999999999e+00 -5.7759992065931265e-01 +7.5756748087727859e+00 +5.9653954344475784e+00 -4.8676373967750109e+01 -1.3223486182689527e+04 -6.2756946059114001e+04 +1.0128132849476589e+08 
-2.7000000000000002e+00 -5.7762237485510559e-01 +7.5768226920867239e+00 +5.9422770104882954e+00 -4.8714633790288083e+01 -1.3258229432301114e+04 -6.0953495312890176e+04 +1.0152292874761605e+08 
-2.7500000000000000e+00 -5.7764518997375813e-01 +7.5779890250294679e+00 +5.9189109946579102e+00 -4.8762745795943999e+01 -1.3294828256696017e+04 -5.9043258575008513e+04 +1.0177017796482781e+08 
-2.7999999999999998e+00 -5.7766836367463115e-01 +7.5791736236297131e+00 +5.8952995432635413e+00 -4.8820118290926033e+01 -1.3333133725406100e+04 -5.7032055248174111e+04 +1.0202204222708876e+08 
-2.8500000000000001e+00 -5.7769189361716300e-01 +7.5803763039202980e+00 +5.8714448145082550e+00 -4.8886159739038710e+01 -1.3372996956640709e+04 -5.4925703452946160e+04 +1.0227748793552755e+08 
-2.8999999999999999e+00 -5.7771577746076508e-01 +7.5815968819308956e+00 +5.8473489652065878e+00 -4.8960278485685166e+01 -1.3414269032028820e+04 -5.2730022187263254e+04 +1.0253548124714176e+08 
-2.9500000000000002e+00 -5.7774001286483001e-01 +7.5828351736925352e+00 +5.8230141563566846e+00 -4.9041882930673879e+01 -1.3456801142473636e+04 -5.0450829944723402e+04 +1.0279498904401651e+08 
-3.0000000000000000e+00 -5.7776459748883402e-01 +7.5840909952374229e+00 +5.7984425431139055e+00 -4.9130381514271789e+01 -1.3500444324818680e+04 -4.8093944910612678e+04 +1.0305497718262146e+08 
-3.0499999999999998e+00 -5.7778952899222547e-01 +7.5853641625959689e+00 +5.7736362837259136e+00 -4.9225182618901520e+01 -1.3545049699990737e+04 -4.5665185630901644e+04 +1.0331441209160721e+08 
-3.1000000000000001e+00 -5.7781480503443938e-01 +7.5866544917972041e+00 +5.7485975370952129e+00 -4.9325694561324518e+01 -1.3590468402391809e+04 -4.3170371187655604e+04 +1.0357226027533244e+08 
-3.1499999999999999e+00 -5.7784042327498986e-01 +7.5879617988763997e+00 +5.7233284599215555e+00 -4.9431325926819127e+01 -1.3636551507882705e+04 -4.0615318391990506e+04 +1.0382748784726776e+08 
-3.2000000000000002e+00 -5.7786638137325508e-01 +7.5892858998620776e+00 +5.6978312085708893e+00 -4.9541485021790294e+01 -1.3683150090421725e+04 -3.8005846303510538e+04 +1.0407906093615164e+08 
-3.2500000000000000e+00 -5.7789267698875124e-01 +7.5906266107848310e+00 +5.6721079418273685e+00 -4.9655580252477058e+01 -1.3730115278208645e+04 -3.5347773094299708e+04 +1.0432594599622677e+08 
-3.2999999999999998e+00 -5.7791930778098566e-01 +7.5919837476783130e+00 +5.6461608158575780e+00 -4.9773020156329267e+01 -1.3777298134643081e+04 -3.2646915818732712e+04 +1.0456710907031953e+08 
-3.3500000000000001e+00 -5.7794627140945121e-01 +7.5933571265717621e+00 +5.6199919881980218e+00 -4.9893213094933721e+01 -1.3824549763054159e+04 -2.9909092927365113e+04 +1.0480151648131573e+08 
-3.3999999999999999e+00 -5.7797356553362089e-01 +7.5947465634964875e+00 +5.5936036161023601e+00 -5.0015567519689831e+01 -1.3871721254350954e+04 -2.7140122099015680e+04 +1.0502813445274846e+08 
-3.4500000000000002e+00 -5.7800118781301757e-01 +7.5961518744839234e+00 +5.5669978540791760e+00 -5.0139491911052666e+01 -1.3918663621691758e+04 -2.4345820674674997e+04 +1.0524592866975842e+08 
-3.5000000000000000e+00 -5.7802913590714056e-01 +7.5975728755633201e+00 +5.5401768619854872e+00 -5.0264394651527127e+01 -1.3965228033031966e+04 -2.1532006810028161e+04 +1.0545386590772966e+08 
-3.5499999999999998e+00 -5.7805740747548151e-01 +7.5990093827689371e+00 +5.5131427918162412e+00 -5.0389684362689060e+01 -1.4011265438346249e+04 -1.8704496567053182e+04 +1.0565091144703120e+08 
-3.6000000000000001e+00 -5.7808600017764611e-01 +7.6004612121307247e+00 +5.4858978043705005e+00 -5.0514769488362042e+01 -1.4056627020811296e+04 -1.5869107474244469e+04 +1.0583603213005376e+08 
-3.6499999999999999e+00 -5.7811491167305595e-01 +7.6019281796779614e+00 +5.4584440520768442e+00 -5.0639058460048716e+01 -1.4101163747399421e+04 -1.3031657077350530e+04 +1.0600819337698422e+08 
-3.6999999999999900e+00 -5.7814413962133526e-01 +7.6034101014416251e+00 +5.4307836920778385e+00 -5.0761959797046899e+01 -1.4144726703715769e+04 -1.0197962167737784e+04 +1.0616636138026543e+08 
-3.7499999999999898e+00 -5.7817368168193994e-01 +7.6049067934530505e+00 +5.4029188804662187e+00 -5.0882882054725002e+01 -1.4187166952469888e+04 -7.3738391183188214e+03 +1.0630950220044859e+08 
-3.7999999999999901e+00 -5.7820353551446912e-01 +7.6064180717416727e+00 +5.3748517731055054e+00 -5.1001233716796747e+01 -1.4228335547716952e+04 -4.5651049150104809e+03 +1.0643658183401120e+08 
-3.8499999999999899e+00 -5.7823369877845554e-01 +7.6079437523382731e+00 +5.3465845229486364e+00 -5.1116423354508846e+01 -1.4268083465003268e+04 -1.7775756817435115e+03 +1.0654656574698333e+08 
-3.8999999999999901e+00 -5.7826416913343703e-01 +7.6094836512730542e+00 +5.3181192880498616e+00 -5.1227859512935758e+01 -1.4306261818229143e+04 +9.8293220537150626e+02 +1.0663842034700219e+08 
-3.9499999999999900e+00 -5.7829494419437588e-01 +7.6110375836497699e+00 +5.2894580448880166e+00 -5.1334982934016544e+01 -1.4342729214559065e+04 +3.7109306215121846e+03 +1.0671119060397479e+08 
-3.9999999999999898e+00 -5.7832602105905140e-01 +7.6126053443375872e+00 +5.2606011924469156e+00 -5.1437466861744980e+01 -1.4377434438656926e+04 +6.4037305073900316e+03 +1.0676483726998554e+08 
-4.0499999999999901e+00 -5.7835739649191586e-01 +7.6141867106347210e+00 +5.2315483844179989e+00 -5.1535068990781838e+01 -1.4410385844642218e+04 +9.0599720404820600e+03 +1.0679991302207434e+08 
-4.0999999999999899e+00 -5.7838906725189299e-01 +7.6157814593489919e+00 +5.2022992728881103e+00 -5.1627545882628276e+01 -1.4441592768444512e+04 +1.1678298768683406e+04 +1.0681697999349645e+08 
-4.1499999999999897e+00 -5.7842103009804957e-01 +7.6173893672855115e+00 +5.1728535162102531e+00 -5.1714653963886548e+01 -1.4471064721429917e+04 +1.4257352944257276e+04 +1.0681660152650313e+08 
-4.1999999999999904e+00 -5.7845328178928923e-01 +7.6190102112543547e+00 +5.1432107668754448e+00 -5.1796149869192938e+01 -1.4498811047283596e+04 +1.6795778543091481e+04 +1.0679933979545680e+08 
-4.2499999999999902e+00 -5.7848581908460439e-01 +7.6206437680629984e+00 +5.1133706791133111e+00 -5.1871790103291410e+01 -1.4524841144303737e+04 +1.9292218304565420e+04 +1.0676575737394699e+08 
-4.2999999999999901e+00 -5.7851863874294684e-01 +7.6222898145206157e+00 +5.0833329094471651e+00 -5.1941331254732653e+01 -1.4549164472041908e+04 +2.1745315667850165e+04 +1.0671641724731100e+08 
-4.3499999999999899e+00 -5.7855173752328537e-01 +7.6239481274366909e+00 +5.0530971131006117e+00 -5.2004529890351357e+01 -1.4571790461611057e+04 +2.4153713681650108e+04 +1.0665188223459172e+08 
-4.3999999999999897e+00 -5.7858511218461250e-01 +7.6256184836190686e+00 +5.0226629433287382e+00 -5.2061142515446583e+01 -1.4592728480837428e+04 +2.6516054856880543e+04 +1.0657271469139832e+08 
-4.4499999999999904e+00 -5.7861875948589025e-01 +7.6273006598808708e+00 +4.9920300542597094e+00 -5.2110925846642147e+01 -1.4611987932294705e+04 +2.8830983345684010e+04 +1.0647947724843620e+08 
-4.4999999999999902e+00 -5.7865267618604910e-01 +7.6289944330312061e+00 +4.9611981036658142e+00 -5.2153636413035301e+01 -1.4629578311779938e+04 +3.1097141616085933e+04 +1.0637273314914124e+08 
-4.5499999999999901e+00 -5.7868685904415451e-01 +7.6306995798831840e+00 +4.9301667444499406e+00 -5.2189030913628976e+01 -1.4645508988571901e+04 +3.3313173440482504e+04 +1.0625304480036017e+08 
-4.5999999999999899e+00 -5.7872130481903183e-01 +7.6324158772473343e+00 +4.8989356309971246e+00 -5.2216865928412410e+01 -1.4659789371651908e+04 +3.5477721541298917e+04 +1.0612097488035518e+08 
-4.6499999999999897e+00 -5.7875601026973000e-01 +7.6341431019372132e+00 +4.8675044187591814e+00 -5.2236898145907347e+01 -1.4672428900632029e+04 +3.7589429340489274e+04 +1.0597708627783446e+08 
-4.6999999999999904e+00 -5.7879097215520736e-01 +7.6358810307661384e+00 +4.8358727618696591e+00 -5.2248884249726210e+01 -1.4683436978751395e+04 +3.9646940160311737e+04 +1.0582194163630570e+08 
-4.7499999999999902e+00 -5.7882618723438983e-01 +7.6376294405474168e+00 +4.8040403142762447e+00 -5.2252580904626228e+01 -1.4692823008739115e+04 +4.1648897027308376e+04 +1.0565610361404179e+08 
-4.7999999999999901e+00 -5.7886165226626252e-01 +7.6393881080947317e+00 +4.7720067311743914e+00 -5.2247744786782263e+01 -1.4700596426611033e+04 +4.3593942932716272e+04 +1.0548013509262541e+08 
-4.8499999999999899e+00 -5.7889736400981384e-01 +7.6411568102244649e+00 +4.7397716687417528e+00 -5.2234132675679056e+01 -1.4706766696993955e+04 +4.5480721596741329e+04 +1.0529459915621209e+08 
-4.8999999999999897e+00 -5.7893331922386915e-01 +7.6429353237532984e+00 +4.7073347794498126e+00 -5.2211501345096096e+01 -1.4711343183595372e+04 +4.7307876543469676e+04 +1.0510005820456706e+08 
-4.9499999999999904e+00 -5.7896927013340671e-01 +7.6447113435942917e+00 +4.6749166442268493e+00 -5.2179861690993960e+01 -1.4714320469291402e+04 +4.9062354447416670e+04 +1.0489846965886180e+08 
-4.9999999999999902e+00 -5.7900545487690591e-01 +7.6464966041205233e+00 +4.6422987166565903e+00 -5.2138845568303637e+01 -1.4715743891127930e+04 +5.0755340519470134e+04 +1.0468910373470767e+08 
-5.0499999999999901e+00 -5.7904187027834486e-01 +7.6482908866305364e+00 +4.6094806589235606e+00 -5.2088214650718086e+01 -1.4715622712953538e+04 +5.2385505306749474e+04 +1.0447251218189253e+08 
