# trajectory
# s[mm] rx[mm] ry[mm] rz[mm] px[rad] py[rad] pz[rad]
0.0000000000000000e+00 +8.2850000000000001e+00 +0.0000000000000000e+00 +0.0000000000000000e+00 +0.0000000000000000e+00 +0.0000000000000000e+00 +1.0000000000000000e+00
-5.0000000000000003e-02 +8.2849999308677820e+00 +0.0000000000000000e+00 -4.9999999999936276e-02 +2.7652875885169314e-06 +0.0000000000000000e+00 +9.9999999999617661e-01
-1.0000000000000001e-01 +8.2849997234713388e+00 +0.0000000000000000e+00 -9.9999999999490219e-02 +5.5305693201228237e-06 +0.0000000000000000e+00 +9.9999999998470646e-01
-1.5000000000000002e-01 +8.2849993778109177e+00 +0.0000000000000000e+00 -1.4999999999827948e-01 +8.2958470287691637e-06 +0.0000000000000000e+00 +9.9999999996558953e-01
-2.0000000000000001e-01 +8.2849988938866730e+00 +0.0000000000000000e+00 -1.9999999999592172e-01 +1.1061122546457761e-05 +0.0000000000000000e+00 +9.9999999993882582e-01
-2.5000000000000000e-01 +8.2849982716986688e+00 +0.0000000000000000e+00 -2.4999999999203459e-01 +1.3826397703240834e-05 +0.0000000000000000e+00 +9.9999999990441535e-01
-2.9999999999999999e-01 +8.2849975112468783e+00 +0.0000000000000000e+00 -2.9999999998623578e-01 +1.6591674327221107e-05 +0.0000000000000000e+00 +9.9999999986235810e-01
-3.4999999999999998e-01 +8.2849966125311809e+00 +0.0000000000000000e+00 -3.4999999997814296e-01 +1.9356954244551892e-05 +0.0000000000000000e+00 +9.9999999981265408e-01
-3.9999999999999997e-01 +8.2849955755513687e+00 +0.0000000000000000e+00 -3.9999999996737373e-01 +2.2122239279437182e-05 +0.0000000000000000e+00 +9.9999999975530318e-01
-4.4999999999999996e-01 +8.2849944003071379e+00 +0.0000000000000000e+00 -4.4999999995354578e-01 +2.4887531254131738e-05 +0.0000000000000000e+00 +9.9999999969030529e-01
-4.9999999999999994e-01 +8.2849930867980977e+00 +0.0000000000000000e+00 -4.9999999993627675e-01 +2.7652831988941180e-05 +0.0000000000000000e+00 +9.9999999961766028e-01
-5.4999999999999993e-01 +8.2849916350237631e+00 +0.0000000000000000e+00 -5.4999999991518433e-01 +3.0418143302222064e-05 +0.0000000000000000e+00 +9.9999999953736807e-01
-5.9999999999999998e-01 +8.2849900449835605e+00 +0.0000000000000000e+00 -5.9999999988988606e-01 +3.3183467010381983e-05 +0.0000000000000000e+00 +9.9999999944942852e-01
-6.5000000000000002e-01 +8.2849883166768254e+00 +0.0000000000000000e+00 -6.4999999985999968e-01 +3.5948804927879641e-05 +0.0000000000000000e+00 +9.9999999935384143e-01
-7.0000000000000007e-01 +8.2849864501028012e+00 +0.0000000000000000e+00 -6.9999999982514272e-01 +3.8714158867224940e-05 +0.0000000000000000e+00 +9.9999999925060667e-01
-7.5000000000000011e-01 +8.2849844452606423e+00 +0.0000000000000000e+00 -7.4999999978493281e-01 +4.1479530638979074e-05 +0.0000000000000000e+00 +9.9999999913972404e-01
-8.0000000000000016e-01 +8.2849823021494107e+00 +0.0000000000000000e+00 -7.9999999973898761e-01 +4.4244922051754595e-05 +0.0000000000000000e+00 +9.9999999902119319e-01
-8.5000000000000020e-01 +8.2849800207680797e+00 +0.0000000000000000e+00 -8.4999999968692463e-01 +4.7010334912215513e-05 +0.0000000000000000e+00 +9.9999999889501401e-01
-9.0000000000000024e-01 +8.2849776011155321e+00 +0.0000000000000000e+00 -8.9999999962836152e-01 +4.9775771025077365e-05 +0.0000000000000000e+00 +9.9999999876118606e-01
-9.5000000000000029e-01 +8.2849750431905598e+00 +0.0000000000000000e+00 -9.4999999956291581e-01 +5.2541232193107308e-05 +0.0000000000000000e+00 +9.9999999861970923e-01
-1.0000000000000002e+00 +8.2849723469918644e+00 +0.0000000000000000e+00 -9.9999999949020502e-01 +5.5306720217124189e-05 +0.0000000000000000e+00 +9.9999999847058307e-01
-1.0500000000000003e+00 +8.2849695125180602e+00 +0.0000000000000000e+00 -1.0499999994098466e+00 +5.8072236895998642e-05 +0.0000000000000000e+00 +9.9999999831380737e-01
-1.1000000000000003e+00 +8.2849665397676677e+00 +0.0000000000000000e+00 -1.0999999993214582e+00 +6.0837784026653144e-05 +0.0000000000000000e+00 +9.9999999814938179e-01
-1.1500000000000004e+00 +8.2849634287391201e+00 +0.0000000000000000e+00 -1.1499999992246572e+00 +6.3603363404062126e-05 +0.0000000000000000e+00 +9.9999999797730588e-01
-1.2000000000000004e+00 +8.2849601794307599e+00 +0.0000000000000000e+00 -1.1999999991190613e+00 +6.6368976821252004e-05 +0.0000000000000000e+00 +9.9999999779757920e-01
-1.2500000000000004e+00 +8.2849567918408411e+00 +0.0000000000000000e+00 -1.2499999990042876e+00 +6.9134626069301320e-05 +0.0000000000000000e+00 +9.9999999761020153e-01
-1.3000000000000005e+00 +8.2849532659675269e+00 +0.0000000000000000e+00 -1.2999999988799538e+00 +7.1900312937340754e-05 +0.0000000000000000e+00 +9.9999999741517231e-01
-1.3500000000000005e+00 +8.2849496018088917e+00 +0.0000000000000000e+00 -1.3499999987456772e+00 +7.4666039212553241e-05 +0.0000000000000000e+00 +9.9999999721249111e-01
-1.4000000000000006e+00 +8.2849457993629194e+00 +0.0000000000000000e+00 -1.3999999986010754e+00 +7.7431806680174059e-05 +0.0000000000000000e+00 +9.9999999700215747e-01
-1.4500000000000006e+00 +8.2849418586275068e+00 +0.0000000000000000e+00 -1.4499999984457654e+00 +8.0197617123490850e-05 +0.0000000000000000e+00 +9.9999999678417095e-01
-1.5000000000000007e+00 +8.2849377796004600e+00 +0.0000000000000000e+00 -1.4999999982793648e+00 +8.2963472323843745e-05 +0.0000000000000000e+00 +9.9999999655853100e-01
-1.5500000000000007e+00 +8.2849335622794982e+00 +0.0000000000000000e+00 -1.5499999981014909e+00 +8.5729374060625402e-05 +0.0000000000000000e+00 +9.9999999632523706e-01
-1.6000000000000008e+00 +8.2849292066622482e+00 +0.0000000000000000e+00 -1.5999999979117610e+00 +8.8495324111281134e-05 +0.0000000000000000e+00 +9.9999999608428869e-01
-1.6500000000000008e+00 +8.2849247127462515e+00 +0.0000000000000000e+00 -1.6499999977097921e+00 +9.1261324251308901e-05 +0.0000000000000000e+00 +9.9999999583568522e-01
-1.7000000000000008e+00 +8.2849200805289591e+00 +0.0000000000000000e+00 -1.6999999974952018e+00 +9.4027376254259451e-05 +0.0000000000000000e+00 +9.9999999557942609e-01
-1.7500000000000009e+00 +8.2849153100077331e+00 +0.0000000000000000e+00 -1.7499999972676070e+00 +9.6793481891736374e-05 +0.0000000000000000e+00 +9.9999999531551076e-01
-1.8000000000000009e+00 +8.2849104011798467e+00 +0.0000000000000000e+00 -1.7999999970266252e+00 +9.9559642933396138e-05 +0.0000000000000000e+00 +9.9999999504393855e-01
-1.8500000000000010e+00 +8.2849053540424862e+00 +0.0000000000000000e+00 -1.8499999967718732e+00 +1.0232586114694820e-04 +0.0000000000000000e+00 +9.9999999476470891e-01
-1.9000000000000010e+00 +8.2849001685927490e+00 +0.0000000000000000e+00 -1.8999999965029684e+00 +1.0509213829815508e-04 +0.0000000000000000e+00 +9.9999999447782106e-01
-1.9500000000000011e+00 +8.2848948448276438e+00 +0.0000000000000000e+00 -1.9499999962195276e+00 +1.0785847615083235e-04 +0.0000000000000000e+00 +9.9999999418327434e-01
-2.0000000000000009e+00 +8.2848893827440921e+00 +0.0000000000000000e+00 -1.9999999959211681e+00 +1.1062487646684885e-04 +0.0000000000000000e+00 +9.9999999388106808e-01
-2.0500000000000007e+00 +8.2848837823389267e+00 +0.0000000000000000e+00 -2.0499999956075068e+00 +1.1339134100583519e-04 +0.0000000000000000e+00 +9.9999999357120162e-01
-2.1000000000000005e+00 +8.2848780436088916e+00 +0.0000000000000000e+00 -2.0999999952781607e+00 +1.1615787152197864e-04 +0.0000000000000000e+00 +9.9999999325367417e-01
-2.1500000000000004e+00 +8.2848721665506453e+00 +0.0000000000000000e+00 -2.1499999949327466e+00 +1.1892446976081777e-04 +0.0000000000000000e+00 +9.9999999292848496e-01
-2.2000000000000002e+00 +8.2848661511607578e+00 +0.0000000000000000e+00 -2.1999999945708817e+00 +1.2169113745895119e-04 +0.0000000000000000e+00 +9.9999999259563321e-01
-2.2500000000000000e+00 +8.2848599974357136e+00 +0.0000000000000000e+00 -2.2499999941921822e+00 +1.2445787634403756e-04 +0.0000000000000000e+00 +9.9999999225511815e-01
-2.2999999999999998e+00 +8.2848537053719085e+00 +0.0000000000000000e+00 -2.2999999937962654e+00 +1.2722468813479567e-04 +0.0000000000000000e+00 +9.9999999190693900e-01
-2.3499999999999996e+00 +8.2848472749656565e+00 +0.0000000000000000e+00 -2.3499999933827480e+00 +1.2999157454100454e-04 +0.0000000000000000e+00 +9.9999999155109487e-01
-2.3999999999999995e+00 +8.2848407062131830e+00 +0.0000000000000000e+00 -2.3999999929512468e+00 +1.3275853726350348e-04 +0.0000000000000000e+00 +9.9999999118758498e-01
-2.4499999999999993e+00 +8.2848339991106297e+00 +0.0000000000000000e+00 -2.4499999925013785e+00 +1.3552557799419209e-04 +0.0000000000000000e+00 +9.9999999081640845e-01
-2.4999999999999991e+00 +8.2848271536540548e+00 +0.0000000000000000e+00 -2.4999999920327598e+00 +1.3829269841603040e-04 +0.0000000000000000e+00 +9.9999999043756438e-01
-2.5499999999999989e+00 +8.2848201698394313e+00 +0.0000000000000000e+00 -2.5499999915450071e+00 +1.4105990020303889e-04 +0.0000000000000000e+00 +9.9999999005105189e-01
-2.5999999999999988e+00 +8.2848130476626505e+00 +0.0000000000000000e+00 -2.5999999910377372e+00 +1.4382718502029855e-04 +0.0000000000000000e+00 +9.9999998965686998e-01
-2.6499999999999986e+00 +8.2848057871195184e+00 +0.0000000000000000e+00 -2.6499999905105662e+00 +1.4659455452395095e-04 +0.0000000000000000e+00 +9.9999998925501787e-01
-2.6999999999999984e+00 +8.2847983882057594e+00 +0.0000000000000000e+00 -2.6999999899631111e+00 +1.4936201036119833e-04 +0.0000000000000000e+00 +9.9999998884549446e-01
-2.7499999999999982e+00 +8.2847908509170161e+00 +0.0000000000000000e+00 -2.7499999893949880e+00 +1.5212955417030362e-04 +0.0000000000000000e+00 +9.9999998842829885e-01
-2.7999999999999980e+00 +8.2847831752488492e+00 +0.0000000000000000e+00 -2.7999999888058134e+00 +1.5489718758059050e-04 +0.0000000000000000e+00 +9.9999998800343015e-01
-2.8499999999999979e+00 +8.2847753611967381e+00 +0.0000000000000000e+00 -2.8499999881952034e+00 +1.5766491221244348e-04 +0.0000000000000000e+00 +9.9999998757088726e-01
-2.8999999999999977e+00 +8.2847674087560819e+00 +0.0000000000000000e+00 -2.8999999875627744e+00 +1.6043272967730793e-04 +0.0000000000000000e+00 +9.9999998713066918e-01
-2.9499999999999975e+00 +8.2847593179221981e+00 +0.0000000000000000e+00 -2.9499999869081424e+00 +1.6320064157769021e-04 +0.0000000000000000e+00 +9.9999998668277479e-01
-2.9999999999999973e+00 +8.2847510886903244e+00 +0.0000000000000000e+00 -2.9999999862309239e+00 +1.6596864950715762e-04 +0.0000000000000000e+00 +9.9999998622720321e-01
-3.0499999999999972e+00 +8.2847427210556202e+00 +0.0000000000000000e+00 -3.0499999855307349e+00 +1.6873675505033853e-04 +0.0000000000000000e+00 +9.9999998576395321e-01
-3.0999999999999970e+00 +8.2847342150131666e+00 +0.0000000000000000e+00 -3.0999999848071913e+00 +1.7150495978292241e-04 +0.0000000000000000e+00 +9.9999998529302381e-01
-3.1499999999999968e+00 +8.2847255705579634e+00 +0.0000000000000000e+00 -3.1499999840599093e+00 +1.7427326527165991e-04 +0.0000000000000000e+00 +9.9999998481441388e-01
-3.1999999999999966e+00 +8.2847167876849337e+00 +0.0000000000000000e+00 -3.1999999832885049e+00 +1.7704167307436286e-04 +0.0000000000000000e+00 +9.9999998432812232e-01
-3.2499999999999964e+00 +8.2847078663889242e+00 +0.0000000000000000e+00 -3.2499999824925938e+00 +1.7981018473990439e-04 +0.0000000000000000e+00 +9.9999998383414801e-01
-3.2999999999999963e+00 +8.2846988066647036e+00 +0.0000000000000000e+00 -3.2999999816717920e+00 +1.8257880180821897e-04 +0.0000000000000000e+00 +9.9999998333248985e-01
-3.3499999999999961e+00 +8.2846896085069623e+00 +0.0000000000000000e+00 -3.3499999808257148e+00 +1.8534752581030238e-04 +0.0000000000000000e+00 +9.9999998282314662e-01
-3.3999999999999959e+00 +8.2846802719103163e+00 +0.0000000000000000e+00 -3.3999999799539786e+00 +1.8811635826821189e-04 +0.0000000000000000e+00 +9.9999998230611720e-01
-3.4499999999999957e+00 +8.2846707968693032e+00 +0.0000000000000000e+00 -3.4499999790561988e+00 +1.9088530069506624e-04 +0.0000000000000000e+00 +9.9999998178140026e-01
-3.4999999999999956e+00 +8.2846611833783879e+00 +0.0000000000000000e+00 -3.4999999781319908e+00 +1.9365435459504568e-04 +0.0000000000000000e+00 +9.9999998124899470e-01
-3.5499999999999954e+00 +8.2846514314319606e+00 +0.0000000000000000e+00 -3.5499999771809700e+00 +1.9642352146339207e-04 +0.0000000000000000e+00 +9.9999998070889928e-01
-3.5999999999999952e+00 +8.2846415410243335e+00 +0.0000000000000000e+00 -3.5999999762027524e+00 +1.9919280278640885e-04 +0.0000000000000000e+00 +9.9999998016111280e-01
-3.6499999999999950e+00 +8.2846315121497494e+00 +0.0000000000000000e+00 -3.6499999751969532e+00 +2.0196220004146121e-04 +0.0000000000000000e+00 +9.9999997960563403e-01
-3.6999999999999948e+00 +8.2846213448023729e+00 +0.0000000000000000e+00 -3.6999999741631875e+00 +2.0473171469697599e-04 +0.0000000000000000e+00 +9.9999997904246163e-01
-3.7499999999999947e+00 +8.2846110389762977e+00 +0.0000000000000000e+00 -3.7499999731010711e+00 +2.0750134821244186e-04 +0.0000000000000000e+00 +9.9999997847159439e-01
-3.7999999999999945e+00 +8.2846005946655463e+00 +0.0000000000000000e+00 -3.7999999720102187e+00 +2.1027110203840932e-04 +0.0000000000000000e+00 +9.9999997789303097e-01
-3.8499999999999943e+00 +8.2845900118640650e+00 +0.0000000000000000e+00 -3.8499999708902459e+00 +2.1304097761649072e-04 +0.0000000000000000e+00 +9.9999997730677004e-01
-3.8999999999999941e+00 +8.2845792905657305e+00 +0.0000000000000000e+00 -3.8999999697407675e+00 +2.1581097637936035e-04 +0.0000000000000000e+00 +9.9999997671281038e-01
-3.9499999999999940e+00 +8.2845684307643488e+00 +0.0000000000000000e+00 -3.9499999685613987e+00 +2.1858109975075442e-04 +0.0000000000000000e+00 +9.9999997611115055e-01
-3.9999999999999938e+00 +8.2845574324536546e+00 +0.0000000000000000e+00 -3.9999999673517541e+00 +2.2135134914547119e-04 +0.0000000000000000e+00 +9.9999997550178921e-01
-4.0499999999999936e+00 +8.2845462956273099e+00 +0.0000000000000000e+00 -4.0499999661114492e+00 +2.2412172596913827e-04 +0.0000000000000000e+00 +9.9999997488472503e-01
-4.0999999999999934e+00 +8.2845350202789092e+00 +0.0000000000000000e+00 -4.0999999648400980e+00 +2.2689223161565333e-04 +0.0000000000000000e+00 +9.9999997425995668e-01
-4.1499999999999932e+00 +8.2845236064019776e+00 +0.0000000000000000e+00 -4.1499999635373159e+00 +2.2966286746462468e-04 +0.0000000000000000e+00 +9.9999997362748272e-01
-4.1999999999999931e+00 +8.2845120539899693e+00 +0.0000000000000000e+00 -4.1999999622027175e+00 +2.3243363488113862e-04 +0.0000000000000000e+00 +9.9999997298730170e-01
-4.2499999999999929e+00 +8.2845003630362726e+00 +0.0000000000000000e+00 -4.2499999608359174e+00 +2.3520453521575947e-04 +0.0000000000000000e+00 +9.9999997233941229e-01
-4.2999999999999927e+00 +8.2844885335342084e+00 +0.0000000000000000e+00 -4.2999999594365299e+00 +2.3797556980452954e-04 +0.0000000000000000e+00 +9.9999997168381305e-01
-4.3499999999999925e+00 +8.2844765654770320e+00 +0.0000000000000000e+00 -4.3499999580041697e+00 +2.4074673996896917e-04 +0.0000000000000000e+00 +9.9999997102050253e-01
-4.3999999999999924e+00 +8.2844644588579310e+00 +0.0000000000000000e+00 -4.3999999565384513e+00 +2.4351804701607671e-04 +0.0000000000000000e+00 +9.9999997034947929e-01
-4.4499999999999922e+00 +8.2844522136700274e+00 +0.0000000000000000e+00 -4.4499999550389893e+00 +2.4628949223832851e-04 +0.0000000000000000e+00 +9.9999996967074190e-01
-4.4999999999999920e+00 +8.2844398299063826e+00 +0.0000000000000000e+00 -4.4999999535053972e+00 +2.4906107691367895e-04 +0.0000000000000000e+00 +9.9999996898428889e-01
-4.5499999999999918e+00 +8.2844273075599908e+00 +0.0000000000000000e+00 -4.5499999519372896e+00 +2.5183280230556038e-04 +0.0000000000000000e+00 +9.9999996829011872e-01
-4.5999999999999917e+00 +8.2844146466237856e+00 +0.0000000000000000e+00 -4.5999999503342801e+00 +2.5460466966288321e-04 +0.0000000000000000e+00 +9.9999996758822995e-01
-4.6499999999999915e+00 +8.2844018470906384e+00 +0.0000000000000000e+00 -4.6499999486959833e+00 +2.5737668022003581e-04 +0.0000000000000000e+00 +9.9999996687862103e-01
-4.6999999999999913e+00 +8.2843889089533569e+00 +0.0000000000000000e+00 -4.6999999470220128e+00 +2.6014883519688456e-04 +0.0000000000000000e+00 +9.9999996616129050e-01
-4.7499999999999911e+00 +8.2843758322046916e+00 +0.0000000000000000e+00 -4.7499999453119832e+00 +2.6292113579877386e-04 +0.0000000000000000e+00 +9.9999996543623693e-01
-4.7999999999999909e+00 +8.2843626168373312e+00 +0.0000000000000000e+00 -4.7999999435655081e+00 +2.6569358321652602e-04 +0.0000000000000000e+00 +9.9999996470345864e-01
-4.8499999999999908e+00 +8.2843492628439037e+00 +0.0000000000000000e+00 -4.8499999417822002e+00 +2.6846617862644136e-04 +0.0000000000000000e+00 +9.9999996396295421e-01
-4.8999999999999906e+00 +8.2843357702169822e+00 +0.0000000000000000e+00 -4.8999999399616740e+00 +2.7123892319029811e-04 +0.0000000000000000e+00 +9.9999996321472195e-01
-4.9499999999999904e+00 +8.2843221389490793e+00 +0.0000000000000000e+00 -4.9499999381035433e+00 +2.7401181805535241e-04 +0.0000000000000000e+00 +9.9999996245876044e-01
-4.9999999999999902e+00 +8.2843083690326527e+00 +0.0000000000000000e+00 -4.9999999362074217e+00 +2.7678486435433840e-04 +0.0000000000000000e+00 +9.9999996169506811e-01
-5.0499999999999901e+00 +8.2842944604601012e+00 +0.0000000000000000e+00 -5.0499999342729218e+00 +2.7955806320546810e-04 +0.0000000000000000e+00 +9.9999996092364329e-01
-5.0999999999999899e+00 +8.2842804132237706e+00 +0.0000000000000000e+00 -5.0999999322996574e+00 +2.8233141571243131e-04 +0.0000000000000000e+00 +9.9999996014448445e-01
-5.1499999999999897e+00 +8.2842662273159515e+00 +0.0000000000000000e+00 -5.1499999302872412e+00 +2.8510492296439577e-04 +0.0000000000000000e+00 +9.9999995935759001e-01
-5.1999999999999895e+00 +8.2842519027288777e+00 +0.0000000000000000e+00 -5.1999999282352869e+00 +2.8787858603600703e-04 +0.0000000000000000e+00 +9.9999995856295842e-01
-5.2499999999999893e+00 +8.2842374394547331e+00 +0.0000000000000000e+00 -5.2499999261434080e+00 +2.9065240598738848e-04 +0.0000000000000000e+00 +9.9999995776058803e-01
-5.2999999999999892e+00 +8.2842228374856468e+00 +0.0000000000000000e+00 -5.2999999240112166e+00 +2.9342638386414122e-04 +0.0000000000000000e+00 +9.9999995695047716e-01
-5.3499999999999890e+00 +8.2842080968136980e+00 +0.0000000000000000e+00 -5.3499999218383261e+00 +2.9620052069734412e-04 +0.0000000000000000e+00 +9.9999995613262427e-01
-5.3999999999999888e+00 +8.2841932174309107e+00 +0.0000000000000000e+00 -5.3999999196243493e+00 +2.9897481750355376e-04 +0.0000000000000000e+00 +9.9999995530702768e-01
-5.4499999999999886e+00 +8.2841781993292631e+00 +0.0000000000000000e+00 -5.4499999173688991e+00 +3.0174927528480447e-04 +0.0000000000000000e+00 +9.9999995447368584e-01
-5.4999999999999885e+00 +8.2841630425006816e+00 +0.0000000000000000e+00 -5.4999999150715881e+00 +3.0452389502860815e-04 +0.0000000000000000e+00 +9.9999995363259708e-01
-5.5499999999999883e+00 +8.2841477469370446e+00 +0.0000000000000000e+00 -5.5499999127320292e+00 +3.0729867770795438e-04 +0.0000000000000000e+00 +9.9999995278375975e-01
-5.5999999999999881e+00 +8.2841323126301791e+00 +0.0000000000000000e+00 -5.5999999103498350e+00 +3.1007362428131031e-04 +0.0000000000000000e+00 +9.9999995192717217e-01
-5.6499999999999879e+00 +8.2841167395718678e+00 +0.0000000000000000e+00 -5.6499999079246175e+00 +3.1284873569262060e-04 +0.0000000000000000e+00 +9.9999995106283268e-01
-5.6999999999999877e+00 +8.2841010277538469e+00 +0.0000000000000000e+00 -5.6999999054559893e+00 +3.1562401287130751e-04 +0.0000000000000000e+00 +9.9999995019073962e-01
-5.7499999999999876e+00 +8.2840851771678032e+00 +0.0000000000000000e+00 -5.7499999029435624e+00 +3.1839945673227063e-04 +0.0000000000000000e+00 +9.9999994931089131e-01
-5.7999999999999874e+00 +8.2840691878053807e+00 +0.0000000000000000e+00 -5.7999999003869496e+00 +3.2117506817588701e-04 +0.0000000000000000e+00 +9.9999994842328610e-01
-5.8499999999999872e+00 +8.2840530596581772e+00 +0.0000000000000000e+00 -5.8499998977857617e+00 +3.2395084808801115e-04 +0.0000000000000000e+00 +9.9999994752792232e-01
