# field on trajectory
# s[mm] rx[mm] ry[mm] rz[mm] bx[T] by[T] bz[T]
0.0000000000000000e+00 +8.5980000000000008e+00 +0.0000000000000000e+00 +0.0000000000000000e+00 -2.8318301605753594e-02 -5.5074425459398624e-01 +5.7801773728714074e-03
5.0000000000000003e-02 +8.5979999309209596e+00 +0.0000000000000000e+00 +4.9999999999936373e-02 -2.8318077167086633e-02 -5.5074625126140553e-01 +5.7802108293347138e-03
1.0000000000000001e-01 +8.5979997236834880e+00 +0.0000000000000000e+00 +9.9999999999490996e-02 -2.8317869361769724e-02 -5.5074860990631536e-01 +5.7802433469677705e-03
1.5000000000000002e-01 +8.5979993782869943e+00 +0.0000000000000000e+00 +1.4999999999828212e-01 -2.8317678297783221e-02 -5.5075132964522377e-01 +5.7802748931458882e-03
2.0000000000000001e-01 +8.5979988947307948e+00 +0.0000000000000000e+00 +1.9999999999592794e-01 -2.8317504083108035e-02 -5.5075440959465638e-01 +5.7803054352444684e-03
2.5000000000000000e-01 +8.5979982730141185e+00 +0.0000000000000000e+00 +2.4999999999204672e-01 -2.8317346825725488e-02 -5.5075784887115509e-01 +5.7803349406389927e-03
2.9999999999999999e-01 +8.5979975131361019e+00 +0.0000000000000000e+00 +2.9999999998625665e-01 -2.8317206633617493e-02 -5.5076164659127835e-01 +5.7803633767050102e-03
3.4999999999999998e-01 +8.5979966150957932e+00 +0.0000000000000000e+00 +3.4999999997817599e-01 -2.8317083614766533e-02 -5.5076580187160107e-01 +5.7803907108181151e-03
3.9999999999999997e-01 +8.5979955788921494e+00 +0.0000000000000000e+00 +3.9999999996742291e-01 -2.8316977877155695e-02 -5.5077031382871422e-01 +5.7804169103539372e-03
4.4999999999999996e-01 +8.5979944045240391e+00 +0.0000000000000000e+00 +4.4999999995361561e-01 -2.8316889528768759e-02 -5.5077518157922534e-01 +5.7804419426881306e-03
4.9999999999999994e-01 +8.5979930919902401e+00 +0.0000000000000000e+00 +4.9999999993637229e-01 -2.8316818677590179e-02 -5.5078040423975738e-01 +5.7804657751963475e-03
5.4999999999999993e-01 +8.5979916412894433e+00 +0.0000000000000000e+00 +5.4999999991531101e-01 -2.8316765431605162e-02 -5.5078598092694930e-01 +5.7804883752542429e-03
5.9999999999999998e-01 +8.5979900524202488e+00 +0.0000000000000000e+00 +5.9999999989005004e-01 -2.8316729898799683e-02 -5.5079191075745537e-01 +5.7805097102374406e-03
6.5000000000000002e-01 +8.5979883253811700e+00 +0.0000000000000000e+00 +6.4999999986020751e-01 -2.8316712187160548e-02 -5.5079819284794573e-01 +5.7805297475215355e-03
7.0000000000000007e-01 +8.5979864601706311e+00 +0.0000000000000000e+00 +6.9999999982540151e-01 -2.8316712404675405e-02 -5.5080482631510586e-01 +5.7805484544820630e-03
7.5000000000000011e-01 +8.5979844567869677e+00 +0.0000000000000000e+00 +7.4999999978525012e-01 -2.8316730659332850e-02 -5.5081181027563642e-01 +5.7805657984945028e-03
8.0000000000000016e-01 +8.5979823152284283e+00 +0.0000000000000000e+00 +7.9999999973937153e-01 -2.8316767059122352e-02 -5.5081914384625263e-01 +5.7805817469342435e-03
8.5000000000000020e-01 +8.5979800354931726e+00 +0.0000000000000000e+00 +8.4999999968738371e-01 -2.8316821712034399e-02 -5.5082682614368472e-01 +5.7805962671765854e-03
9.0000000000000024e-01 +8.5979776175792733e+00 +0.0000000000000000e+00 +8.9999999962890476e-01 -2.8316894726060481e-02 -5.5083485628467810e-01 +5.7806093265967253e-03
9.5000000000000029e-01 +8.5979750614847177e+00 +0.0000000000000000e+00 +9.4999999956355263e-01 -2.8316986209193169e-02 -5.5084323338599273e-01 +5.7806208925697267e-03
1.0000000000000002e+00 +8.5979723672074027e+00 +0.0000000000000000e+00 +9.9999999949094542e-01 -2.8317096269426110e-02 -5.5085195656440222e-01 +5.7806309324705272e-03
1.0500000000000003e+00 +8.5979695347451397e+00 +0.0000000000000000e+00 +1.0499999994107010e+00 -2.8317225014754109e-02 -5.5086102493669475e-01 +5.7806394136739030e-03
1.1000000000000003e+00 +8.5979665640956551e+00 +0.0000000000000000e+00 +1.0999999993224374e+00 -2.8317372553173108e-02 -5.5087043761967358e-01 +5.7806463035544667e-03
1.1500000000000004e+00 +8.5979634552565880e+00 +0.0000000000000000e+00 +1.1499999992257728e+00 -2.8317538992680327e-02 -5.5088019373015440e-01 +5.7806515694866552e-03
1.2000000000000004e+00 +8.5979602082254907e+00 +0.0000000000000000e+00 +1.1999999991203247e+00 -2.8317724441274193e-02 -5.5089029238496789e-01 +5.7806551788447081e-03
1.2500000000000004e+00 +8.5979568229998282e+00 +0.0000000000000000e+00 +1.2499999990057113e+00 -2.8317929006954460e-02 -5.5090073270095763e-01 +5.7806570990026531e-03
1.3000000000000005e+00 +8.5979532995769841e+00 +0.0000000000000000e+00 +1.2999999988815503e+00 -2.8318152797722200e-02 -5.5091151379498138e-01 +5.7806572973342976e-03
1.3500000000000005e+00 +8.5979496379542528e+00 +0.0000000000000000e+00 +1.3499999987474596e+00 -2.8318395921579895e-02 -5.5092263478390968e-01 +5.7806557412132089e-03
1.4000000000000006e+00 +8.5979458381288438e+00 +0.0000000000000000e+00 +1.3999999986030569e+00 -2.8318658486531388e-02 -5.5093409478462618e-01 +5.7806523980127051e-03
1.4500000000000006e+00 +8.5979419000978830e+00 +0.0000000000000000e+00 +1.4499999984479601e+00 -2.8318940600582043e-02 -5.5094589291402873e-01 +5.7806472351058366e-03
1.5000000000000007e+00 +8.5979378238584108e+00 +0.0000000000000000e+00 +1.4999999982817869e+00 -2.8319242371738669e-02 -5.5095802828902607e-01 +5.7806402198653699e-03
1.5500000000000007e+00 +8.5979336094073844e+00 +0.0000000000000000e+00 +1.5499999981041550e+00 -2.8319563908009639e-02 -5.5097050002654191e-01 +5.7806313196637829e-03
1.6000000000000008e+00 +8.5979292567416739e+00 +0.0000000000000000e+00 +1.5999999979146822e+00 -2.8319905317404890e-02 -5.5098330724351074e-01 +5.7806205018732350e-03
1.6500000000000008e+00 +8.5979247658580658e+00 +0.0000000000000000e+00 +1.6499999977129860e+00 -2.8320266707935998e-02 -5.5099644905688083e-01 +5.7806077338655708e-03
1.7000000000000008e+00 +8.5979201367532649e+00 +0.0000000000000000e+00 +1.6999999974986839e+00 -2.8320648187616142e-02 -5.5100992458361153e-01 +5.7805929830122881e-03
1.7500000000000009e+00 +8.5979153694238892e+00 +0.0000000000000000e+00 +1.7499999972713938e+00 -2.8321049864460265e-02 -5.5102373294067553e-01 +5.7805762166845357e-03
1.8000000000000009e+00 +8.5979104638664765e+00 +0.0000000000000000e+00 +1.7999999970307330e+00 -2.8321471846485008e-02 -5.5103787324505649e-01 +5.7805574022531028e-03
1.8500000000000010e+00 +8.5979054200774794e+00 +0.0000000000000000e+00 +1.8499999967763190e+00 -2.8321914241708785e-02 -5.5105234461375074e-01 +5.7805365070883810e-03
1.9000000000000010e+00 +8.5979002380532670e+00 +0.0000000000000000e+00 +1.8999999965077694e+00 -2.8322377158151838e-02 -5.5106714616376573e-01 +5.7805134985603763e-03
1.9500000000000011e+00 +8.5978949177901267e+00 +0.0000000000000000e+00 +1.9499999962247014e+00 -2.8322860703836255e-02 -5.5108227701212043e-01 +5.7804883440386859e-03
2.0000000000000009e+00 +8.5978894592842625e+00 +0.0000000000000000e+00 +1.9999999959267327e+00 -2.8323364986786032e-02 -5.5109773627584557e-01 +5.7804610108924785e-03
2.0500000000000007e+00 +8.5978838625317966e+00 +0.0000000000000000e+00 +2.0499999956134802e+00 -2.8323890063885162e-02 -5.5111352285177395e-01 +5.7804314772619495e-03
2.1000000000000005e+00 +8.5978781275287695e+00 +0.0000000000000000e+00 +2.0999999952845618e+00 -2.8324435787451290e-02 -5.5112963475591192e-01 +5.7803997643728604e-03
2.1500000000000004e+00 +8.5978722542711381e+00 +0.0000000000000000e+00 +2.1499999949395945e+00 -2.8325001958660483e-02 -5.5114606978406855e-01 +5.7803659042223688e-03
2.2000000000000002e+00 +8.5978662427547814e+00 +0.0000000000000000e+00 +2.1999999945781954e+00 -2.8325588378688888e-02 -5.5116282573206210e-01 +5.7803299288075923e-03
2.2500000000000000e+00 +8.5978600929754947e+00 +0.0000000000000000e+00 +2.2499999941999818e+00 -2.8326194848712776e-02 -5.5117990039572284e-01 +5.7802918701256372e-03
2.2999999999999998e+00 +8.5978538049289952e+00 +0.0000000000000000e+00 +2.2999999938045708e+00 -2.8326821169908381e-02 -5.5119729157089037e-01 +5.7802517601735952e-03
2.3499999999999996e+00 +8.5978473786109202e+00 +0.0000000000000000e+00 +2.3499999933915792e+00 -2.8327467143451905e-02 -5.5121499705341659e-01 +5.7802096309485605e-03
2.3999999999999995e+00 +8.5978408140168288e+00 +0.0000000000000000e+00 +2.3999999929606242e+00 -2.8328132570519391e-02 -5.5123301463916075e-01 +5.7801655144476341e-03
2.4499999999999993e+00 +8.5978341111422019e+00 +0.0000000000000000e+00 +2.4499999925113229e+00 -2.8328817252286698e-02 -5.5125134212399451e-01 +5.7801194426679407e-03
2.4999999999999991e+00 +8.5978272699824405e+00 +0.0000000000000000e+00 +2.4999999920432923e+00 -2.8329520989929410e-02 -5.5126997730379812e-01 +5.7800714476066370e-03
2.5499999999999989e+00 +8.5978202905328711e+00 +0.0000000000000000e+00 +2.5499999915561493e+00 -2.8330243584622782e-02 -5.5128891797446189e-01 +5.7800215612609221e-03
2.5999999999999988e+00 +8.5978131727887419e+00 +0.0000000000000000e+00 +2.5999999910495104e+00 -2.8330984837541689e-02 -5.5130816193188570e-01 +5.7799698156280489e-03
2.6499999999999986e+00 +8.5978059167452248e+00 +0.0000000000000000e+00 +2.6499999905229927e+00 -2.8331744549860496e-02 -5.5132770697197941e-01 +5.7799162427053354e-03
2.6999999999999984e+00 +8.5977985223974187e+00 +0.0000000000000000e+00 +2.6999999899762130e+00 -2.8332522522753058e-02 -5.5134755089066045e-01 +5.7798608744901682e-03
2.7499999999999982e+00 +8.5977909897403446e+00 +0.0000000000000000e+00 +2.7499999894087881e+00 -2.8333318557392646e-02 -5.5136769148385700e-01 +5.7798037429800274e-03
2.7999999999999980e+00 +8.5977833187689487e+00 +0.0000000000000000e+00 +2.7999999888203342e+00 -2.8334132454951845e-02 -5.5138812654750546e-01 +5.7797448801724825e-03
2.8499999999999979e+00 +8.5977755094781063e+00 +0.0000000000000000e+00 +2.8499999882104681e+00 -2.8334964016602501e-02 -5.5140885387755123e-01 +5.7796843180652150e-03
2.8999999999999977e+00 +8.5977675618626197e+00 +0.0000000000000000e+00 +2.8999999875788061e+00 -2.8335813043515668e-02 -5.5142987126994814e-01 +5.7796220886560173e-03
2.9499999999999975e+00 +8.5977594759172149e+00 +0.0000000000000000e+00 +2.9499999869249649e+00 -2.8336679336861542e-02 -5.5145117652065900e-01 +5.7795582239428154e-03
2.9999999999999973e+00 +8.5977512516365469e+00 +0.0000000000000000e+00 +2.9999999862485609e+00 -2.8337562697809359e-02 -5.5147276742565410e-01 +5.7794927559236707e-03
3.0499999999999972e+00 +8.5977428890151995e+00 +0.0000000000000000e+00 +3.0499999855492108e+00 -2.8338462927527359e-02 -5.5149464178091245e-01 +5.7794257165967883e-03
3.0999999999999970e+00 +8.5977343880476873e+00 +0.0000000000000000e+00 +3.0999999848265305e+00 -2.8339379827182733e-02 -5.5151679738242110e-01 +5.7793571379605446e-03
3.1499999999999968e+00 +8.5977257487284504e+00 +0.0000000000000000e+00 +3.1499999840801363e+00 -2.8340313197941513e-02 -5.5153923202617472e-01 +5.7792870520134770e-03
3.1999999999999966e+00 +8.5977169710518613e+00 +0.0000000000000000e+00 +3.1999999833096444e+00 -2.8341262840968554e-02 -5.5156194350817600e-01 +5.7792154907543086e-03
3.2499999999999964e+00 +8.5977080550122249e+00 +0.0000000000000000e+00 +3.2499999825146708e+00 -2.8342228557427393e-02 -5.5158492962443473e-01 +5.7791424861819481e-03
3.2999999999999963e+00 +8.5976990006037735e+00 +0.0000000000000000e+00 +3.2999999816948318e+00 -2.8343210148480291e-02 -5.5160818817096857e-01 +5.7790680702955151e-03
3.3499999999999961e+00 +8.5976898078206716e+00 +0.0000000000000000e+00 +3.3499999808497432e+00 -2.8344207415288061e-02 -5.5163171694380253e-01 +5.7789922750943346e-03
3.3999999999999959e+00 +8.5976804766570183e+00 +0.0000000000000000e+00 +3.3999999799790213e+00 -2.8345220159010052e-02 -5.5165551373896771e-01 +5.7789151325779572e-03
3.4499999999999957e+00 +8.5976710071068450e+00 +0.0000000000000000e+00 +3.4499999790822815e+00 -2.8346248180804105e-02 -5.5167957635250375e-01 +5.7788366747461685e-03
3.4999999999999956e+00 +8.5976613991641138e+00 +0.0000000000000000e+00 +3.4999999781591398e+00 -2.8347291281826403e-02 -5.5170390258045532e-01 +5.7787569335989953e-03
3.5499999999999954e+00 +8.5976516528227229e+00 +0.0000000000000000e+00 +3.5499999772092119e+00 -2.8348349263231518e-02 -5.5172849021887549e-01 +5.7786759411367307e-03
3.5999999999999952e+00 +8.5976417680765049e+00 +0.0000000000000000e+00 +3.5999999762321138e+00 -2.8349421926172229e-02 -5.5175333706382201e-01 +5.7785937293599156e-03
3.6499999999999950e+00 +8.5976317449192265e+00 +0.0000000000000000e+00 +3.6499999752274608e+00 -2.8350509071799528e-02 -5.5177844091136063e-01 +5.7785103302693793e-03
3.6999999999999948e+00 +8.5976215833445906e+00 +0.0000000000000000e+00 +3.6999999741948688e+00 -2.8351610501262555e-02 -5.5180379955756220e-01 +5.7784257758662413e-03
3.7499999999999947e+00 +8.5976112833462359e+00 +0.0000000000000000e+00 +3.7499999731339533e+00 -2.8352726015708492e-02 -5.5182941079850423e-01 +5.7783400981519066e-03
3.7999999999999945e+00 +8.5976008449177392e+00 +0.0000000000000000e+00 +3.7999999720443296e+00 -2.8353855416282492e-02 -5.5185527243026933e-01 +5.7782533291281012e-03
3.8499999999999943e+00 +8.5975902680526115e+00 +0.0000000000000000e+00 +3.8499999709256127e+00 -2.8354998504127673e-02 -5.5188138224894667e-01 +5.7781655007968623e-03
3.8999999999999941e+00 +8.5975795527443033e+00 +0.0000000000000000e+00 +3.8999999697774186e+00 -2.8356155080384998e-02 -5.5190773805063031e-01 +5.7780766451605596e-03
3.9499999999999940e+00 +8.5975686989862030e+00 +0.0000000000000000e+00 +3.9499999685993621e+00 -2.8357324946193200e-02 -5.5193433763142019e-01 +5.7779867942218998e-03
3.9999999999999938e+00 +8.5975577067716387e+00 +0.0000000000000000e+00 +3.9999999673910582e+00 -2.8358507902688783e-02 -5.5196117878742124e-01 +5.7778959799839481e-03
4.0499999999999936e+00 +8.5975465760938761e+00 +0.0000000000000000e+00 +4.0499999661521224e+00 -2.8359703773077671e-02 -5.5198825921711292e-01 +5.7778042300856286e-03
4.0999999999999934e+00 +8.5975353069461224e+00 +0.0000000000000000e+00 +4.0999999648821692e+00 -2.8360912468851959e-02 -5.5201557622845265e-01 +5.7777115547081453e-03
4.1499999999999932e+00 +8.5975238993215264e+00 +0.0000000000000000e+00 +4.1499999635808145e+00 -2.8362133923576057e-02 -5.5204312703176772e-01 +5.7776179596684043e-03
4.1999999999999931e+00 +8.5975123532131743e+00 +0.0000000000000000e+00 +4.1999999622476727e+00 -2.8363368070815215e-02 -5.5207090883738763e-01 +5.7775234507835161e-03
4.2499999999999929e+00 +8.5975006686140993e+00 +0.0000000000000000e+00 +4.2499999608823584e+00 -2.8364614844135418e-02 -5.5209891885564177e-01 +5.7774280338707970e-03
4.2999999999999927e+00 +8.5974888455172742e+00 +0.0000000000000000e+00 +4.2999999594844862e+00 -2.8365874177103526e-02 -5.5212715429685999e-01 +5.7773317147477715e-03
4.3499999999999925e+00 +8.5974768839156166e+00 +0.0000000000000000e+00 +4.3499999580536715e+00 -2.8367146003287221e-02 -5.5215561237137234e-01 +5.7772344992321825e-03
4.3999999999999924e+00 +8.5974647838019873e+00 +0.0000000000000000e+00 +4.3999999565895278e+00 -2.8368430256255104e-02 -5.5218429028950844e-01 +5.7771363931419994e-03
4.4499999999999922e+00 +8.5974525451691921e+00 +0.0000000000000000e+00 +4.4499999550916707e+00 -2.8369726869576672e-02 -5.5221318526159868e-01 +5.7770374022954145e-03
4.4999999999999920e+00 +8.5974401680099835e+00 +0.0000000000000000e+00 +4.4999999535597137e+00 -2.8371035776822387e-02 -5.5224229449797146e-01 +5.7769375325108507e-03
4.5499999999999918e+00 +8.5974276523170587e+00 +0.0000000000000000e+00 +4.5499999519932723e+00 -2.8372356911563687e-02 -5.5227161520895529e-01 +5.7768367896069758e-03
4.5999999999999917e+00 +8.5974149980830639e+00 +0.0000000000000000e+00 +4.5999999503919602e+00 -2.8373690207373008e-02 -5.5230114460487734e-01 +5.7767351794026922e-03
4.6499999999999915e+00 +8.5974022053005896e+00 +0.0000000000000000e+00 +4.6499999487553909e+00 -2.8375035597823832e-02 -5.5233087989606300e-01 +5.7766327077171491e-03
4.6999999999999913e+00 +8.5973892739621771e+00 +0.0000000000000000e+00 +4.6999999470831799e+00 -2.8376393016490746e-02 -5.5236081829283623e-01 +5.7765293803697573e-03
4.7499999999999911e+00 +8.5973762040603177e+00 +0.0000000000000000e+00 +4.7499999453749409e+00 -2.8377762396949377e-02 -5.5239095700551899e-01 +5.7764252031801706e-03
4.7999999999999909e+00 +8.5973629955874493e+00 +0.0000000000000000e+00 +4.7999999436302874e+00 -2.8379143672776535e-02 -5.5242129324443157e-01 +5.7763201819683177e-03
4.8499999999999908e+00 +8.5973496485359640e+00 +0.0000000000000000e+00 +4.8499999418488331e+00 -2.8380536777550158e-02 -5.5245182421989081e-01 +5.7762143225543851e-03
4.8999999999999906e+00 +8.5973361628982019e+00 +0.0000000000000000e+00 +4.8999999400301926e+00 -2.8381941644849414e-02 -5.5248254714221190e-01 +5.7761076307588409e-03
4.9499999999999904e+00 +8.5973225386664556e+00 +0.0000000000000000e+00 +4.9499999381739794e+00 -2.8383358208254668e-02 -5.5251345922170614e-01 +5.7760001124024223e-03
4.9999999999999902e+00 +8.5973087758329712e+00 +0.0000000000000000e+00 +4.9999999362798073e+00 -2.8384786401347527e-02 -5.5254455766868249e-01 +5.7758917733061500e-03
5.0499999999999901e+00 +8.5972948743899487e+00 +0.0000000000000000e+00 +5.0499999343472899e+00 -2.8386226157710904e-02 -5.5257583969344559e-01 +5.7757826192913362e-03
5.0999999999999899e+00 +8.5972808343295384e+00 +0.0000000000000000e+00 +5.0999999323760408e+00 -2.8387677410929030e-02 -5.5260730250629619e-01 +5.7756726561795811e-03
5.1499999999999897e+00 +8.5972666556438497e+00 +0.0000000000000000e+00 +5.1499999303656736e+00 -2.8389140094587477e-02 -5.5263894331753205e-01 +5.7755618897927831e-03
5.1999999999999895e+00 +8.5972523383249460e+00 +0.0000000000000000e+00 +5.1999999283158012e+00 -2.8390614142273170e-02 -5.5267075933744614e-01 +5.7754503259531470e-03
5.2499999999999893e+00 +8.5972378823648441e+00 +0.0000000000000000e+00 +5.2499999262260371e+00 -2.8392099487574460e-02 -5.5270274777632611e-01 +5.7753379704831732e-03
5.2999999999999892e+00 +8.5972232877555221e+00 +0.0000000000000000e+00 +5.2999999240959950e+00 -2.8393596064081150e-02 -5.5273490584445606e-01 +5.7752248292056918e-03
5.3499999999999890e+00 +8.5972085544889119e+00 +0.0000000000000000e+00 +5.3499999219252876e+00 -2.8395103805384469e-02 -5.5276723075211409e-01 +5.7751109079438321e-03
5.3999999999999888e+00 +8.5971936825569042e+00 +0.0000000000000000e+00 +5.3999999197135278e+00 -2.8396622645077179e-02 -5.5279971970957320e-01 +5.7749962125210590e-03
5.4499999999999886e+00 +8.5971786719513492e+00 +0.0000000000000000e+00 +5.4499999174603291e+00 -2.8398152516753553e-02 -5.5283236992710105e-01 +5.7748807487611629e-03
5.4999999999999885e+00 +8.5971635226640579e+00 +0.0000000000000000e+00 +5.4999999151653043e+00 -2.8399693354009426e-02 -5.5286517861495910e-01 +5.7747645224882583e-03
5.5499999999999883e+00 +8.5971482346867987e+00 +0.0000000000000000e+00 +5.5499999128280662e+00 -2.8401245090442222e-02 -5.5289814298340267e-01 +5.7746475395268042e-03
5.5999999999999881e+00 +8.5971328080113025e+00 +0.0000000000000000e+00 +5.5999999104482265e+00 -2.8402807659650989e-02 -5.5293126024268058e-01 +5.7745298057016014e-03
5.6499999999999879e+00 +8.5971172426292632e+00 +0.0000000000000000e+00 +5.6499999080253991e+00 -2.8404380995236397e-02 -5.5296452760303572e-01 +5.7744113268377948e-03
5.6999999999999877e+00 +8.5971015385323337e+00 +0.0000000000000000e+00 +5.6999999055591966e+00 -2.8405965030800846e-02 -5.5299794227470278e-01 +5.7742921087608826e-03
5.7499999999999876e+00 +8.5970856957121331e+00 +0.0000000000000000e+00 +5.7499999030492308e+00 -2.8407559699948414e-02 -5.5303150146791091e-01 +5.7741721572967279e-03
5.7999999999999874e+00 +8.5970697141602432e+00 +0.0000000000000000e+00 +5.7999999004951146e+00 -2.8409164936284904e-02 -5.5306520239287993e-01 +5.7740514782715444e-03
5.8499999999999872e+00 +8.5970535938682104e+00 +0.0000000000000000e+00 +5.8499998978964607e+00 -2.8410780673417926e-02 -5.5309904225982331e-01 +5.7739300775119179e-03
5.8999999999999870e+00 +8.5970373348275455e+00 +0.0000000000000000e+00 +5.8999998952528809e+00 -2.8412406844956887e-02 -5.5313301827894612e-01 +5.7738079608448149e-03
