# multipoles
# s[mm] polynom_b[n=0][T/m^n] polynom_b[n=1][T/m^n] polynom_b[n=2][T/m^n] polynom_b[n=3][T/m^n] polynom_b[n=4][T/m^n] polynom_b[n=5][T/m^n] polynom_b[n=6][T/m^n] 
-0.0000000000000000e+00 -5.7898331960248806e-01 +7.6137960777309734e+00 +5.9888943441160256e+00 -3.1074895130974355e+01 -2.9822483434137688e+01 -1.9866874054620077e+05 -8.1923004998225952e+06 
-5.0000000000000003e-02 -5.7898345363944459e-01 +7.6137721727614363e+00 +5.9938385335456879e+00 -3.1648783128848528e+01 -9.1605902692057242e+01 -1.9422066732744745e+05 -7.8655216033347622e+06 
-1.0000000000000001e-01 -5.7898395865118812e-01 +7.6137688407187376e+00 +5.9985037253458575e+00 -3.2225026010736705e+01 -1.5770328142848138e+02 -1.8975520946067758e+05 -7.5126159058857104e+06 
-1.4999999999999999e-01 -5.7898483388221222e-01 +7.6137860088436442e+00 +6.0028843694892169e+00 -3.2803237804969605e+01 -2.2792691289158239e+02 -1.8527444389092945e+05 -7.1348461571568847e+06 
-2.0000000000000001e-01 -5.7898607857704987e-01 +7.6138236043779450e+00 +6.0069749172668674e+00 -3.3383032546962355e+01 -3.0208912396279550e+02 -1.8078044751075123e+05 -6.7334748902865490e+06 
-2.5000000000000000e-01 -5.7898769198027455e-01 +7.6138815545633944e+00 +6.0107698195077255e+00 -3.3964024236849113e+01 -3.8000223216144786e+02 -1.7627529753223932e+05 -6.3097646870816052e+06 
-2.9999999999999999e-01 -5.7898967333644691e-01 +7.6139597866451743e+00 +6.0142635263939068e+00 -3.4545826991799075e+01 -4.6147853416643068e+02 -1.7176107015144144e+05 -5.8649782835928937e+06 
-3.4999999999999998e-01 -5.7899202189008792e-01 +7.6140582278652245e+00 +6.0174504882942994e+00 -3.5128054755355556e+01 -5.4633033283427551e+02 -1.6723984303345421e+05 -5.4003783730416894e+06 
-4.0000000000000002e-01 -5.7899473688587433e-01 +7.6141768054677108e+00 +6.0203251556754207e+00 -3.5710321539711863e+01 -6.3436993748854752e+02 -1.6271369326551288e+05 -4.9172275859571407e+06 
-4.5000000000000001e-01 -5.7899781756834601e-01 +7.6143154466975655e+00 +6.0228819807965328e+00 -3.6292241359982086e+01 -7.2540969901949131e+02 -1.5818469786493879e+05 -4.4167883021320822e+06 
-5.0000000000000000e-01 -5.7900126318218070e-01 +7.6144740788000931e+00 +6.0251154136258611e+00 -3.6873428206199186e+01 -8.1926191296066327e+02 -1.5365493412649506e+05 -3.9003232493161513e+06 
-5.5000000000000004e-01 -5.7900507297199277e-01 +7.6146526290209389e+00 +6.0270199041656580e+00 -3.7453496062178473e+01 -9.1573887062162521e+02 -1.4912647932997943e+05 -3.3690952049042988e+06 
-5.9999999999999998e-01 -5.7900924618249394e-01 +7.6148510246055698e+00 +6.0285899024759528e+00 -3.8032058872404349e+01 -1.0146528704267894e+03 -1.4460141110366076e+05 -2.8243668755744477e+06 
-6.5000000000000002e-01 -5.7901378205828669e-01 +7.6150691928035483e+00 +6.0298198605660325e+00 -3.8608730716650321e+01 -1.1158162577204330e+03 -1.4008180594076304e+05 -2.2674006755427285e+06 
-6.9999999999999996e-01 -5.7901867984412225e-01 +7.6153070608619613e+00 +6.0307042296368358e+00 -3.9183125547441406e+01 -1.2190413594369509e+03 -1.3556974138686742e+05 -1.6994591299757571e+06 
-7.5000000000000000e-01 -5.7902393878467218e-01 +7.6155645560282021e+00 +6.0312374587532451e+00 -3.9754857308103880e+01 -1.3241404466416034e+03 -1.3106729501767007e+05 -1.1218051338506797e+06 
-8.0000000000000004e-01 -5.7902955812466006e-01 +7.6158416055508162e+00 +6.0314139983980848e+00 -4.0323539945109857e+01 -1.4309258250372577e+03 -1.2657654443166511e+05 -5.3570136575474369e+05 
-8.4999999999999998e-01 -5.7903553710885258e-01 +7.6161381366807106e+00 +6.0312282989548827e+00 -4.0888787481628157e+01 -1.5392097993283396e+03 -1.2209956656928040e+05 +5.7589495915549356e+04 
-9.0000000000000002e-01 -5.7904187498201087e-01 +7.6164540766695978e+00 +6.0306748120843281e+00 -4.1450213955821866e+01 -1.6488047110777197e+03 -1.1763843818196065e+05 +6.5680503153267049e+05 
-9.4999999999999996e-01 -5.7904857098886864e-01 +7.6167893527641182e+00 +6.0297479864209160e+00 -4.2007433154497875e+01 -1.7595228175220261e+03 -1.1319523814701661e+05 +1.2606822415172025e+06 
-1.0000000000000000e+00 -5.7905562437423141e-01 +7.6171438922200565e+00 +6.0284422761132532e+00 -4.2560059224869661e+01 -1.8711765259161029e+03 -1.0877204230571253e+05 +1.8679591395915330e+06 
-1.0500000000000000e+00 -5.7906303438289886e-01 +7.6175176222862913e+00 +6.0267521262514556e+00 -4.3107705991071619e+01 -1.9835779985399331e+03 -1.0437092921003680e+05 +2.4773720846488783e+06 
-1.1000000000000001e+00 -5.7907080025965207e-01 +7.6179104702184244e+00 +6.0246719909580246e+00 -4.3649987542636794e+01 -2.0965396449916980e+03 -9.9993975129823855e+04 +3.0876591188730779e+06 
-1.1499999999999999e+00 -5.7907892124939275e-01 +7.6183223632702086e+00 +6.0221963183527825e+00 -4.4186517855098664e+01 -2.2098737095392812e+03 -9.5643257328225605e+04 +3.6975571531728432e+06 
-1.2000000000000000e+00 -5.7908739659691588e-01 +7.6187532286944979e+00 +6.0193195594245390e+00 -4.4716910839278761e+01 -2.3233925154043050e+03 -9.1320853570971347e+04 +4.3058036365500055e+06 
-1.2500000000000000e+00 -5.7909622554708495e-01 +7.6192029937480292e+00 +6.0160361647154890e+00 -4.5240780554294176e+01 -2.4369083728317996e+03 -8.7028840329538099e+04 +4.9111359269639198e+06 
-1.3000000000000000e+00 -5.7910540734479954e-01 +7.6196715856849240e+00 +6.0123405841340309e+00 -4.5757740905914666e+01 -2.5502335783628173e+03 -8.2769295410576116e+04 +5.5122912999787461e+06 
-1.3500000000000001e+00 -5.7911494123494878e-01 +7.6201589317623775e+00 +6.0082272675469719e+00 -4.6267405922847090e+01 -2.6631804262394876e+03 -7.8544295489690907e+04 +6.1080070101196328e+06 
-1.3999999999999999e+00 -5.7912482646237762e-01 +7.6206649592378817e+00 +6.0036906641413639e+00 -4.6769389598618332e+01 -2.7755611913730163e+03 -7.4355917603421476e+04 +6.6970201788263740e+06 
-1.4500000000000000e+00 -5.7913506227206424e-01 +7.6211895953690902e+00 +5.9987252249118725e+00 -4.7263305922565600e+01 -2.8871882005084867e+03 -7.0206238760121574e+04 +7.2780682850769022e+06 
-1.5000000000000000e+00 -5.7914564790893541e-01 +7.6217327674155966e+00 +5.9933253985241288e+00 -4.7748768942488702e+01 -2.9978737147574298e+03 -6.6097335437353657e+04 +7.8498883535165908e+06 
-1.5500000000000000e+00 -5.7915658261792025e-01 +7.6222944026362862e+00 +5.9874856367130427e+00 -4.8225392641603662e+01 -3.1074300820519084e+03 -6.2031284668239437e+04 +8.4112180101061165e+06 
-1.6000000000000001e+00 -5.7916786564396561e-01 +7.6228744282913752e+00 +5.9812003866785064e+00 -4.8692791037384758e+01 -3.2156695257245410e+03 -5.8010163169234431e+04 +8.9607940290615428e+06 
-1.6499999999999999e+00 -5.7917949623207676e-01 +7.6234727716416275e+00 +5.9744640986980215e+00 -4.9150578155258103e+01 -3.3224043542134068e+03 -5.4036047537686733e+04 +9.4973537648504414e+06 
-1.7000000000000000e+00 -5.7919147362722223e-01 +7.6240893599497817e+00 +5.9672712236084839e+00 -4.9598368063115110e+01 -3.4274468888491206e+03 -5.0111014040299546e+04 +1.0019634648665389e+07 
-1.7500000000000000e+00 -5.7920379707441905e-01 +7.6247241204776373e+00 +5.9596162087141415e+00 -5.0035774781227872e+01 -3.5306093602344604e+03 -4.6237139273122899e+04 +1.0526373518862819e+07 
-1.8000000000000000e+00 -5.7921646581866404e-01 +7.6253769804881459e+00 +5.9514935050259190e+00 -5.0462412344004221e+01 -3.6317040971350898e+03 -4.2416499713989491e+04 +1.1016307863776343e+07 
-1.8500000000000001e+00 -5.7922947910498335e-01 +7.6260478672463243e+00 +5.9428975615366459e+00 -5.0877894850411096e+01 -3.7305433757405599e+03 -3.8651171275244014e+04 +1.1488174823237525e+07 
-1.8999999999999999e+00 -5.7924283617843886e-01 +7.6267367080166837e+00 +5.9338228257960886e+00 -5.1281836368952682e+01 -3.8269394317139768e+03 -3.4943230051839477e+04 +1.1940711257442212e+07 
-1.9500000000000000e+00 -5.7925653628407581e-01 +7.6274434300660880e+00 +5.9242637500243163e+00 -5.1673851019765422e+01 -3.9207046279442256e+03 -3.1294751764721506e+04 +1.2372654886339210e+07 
-2.0000000000000000e+00 -5.7927057866697163e-01 +7.6281679606591890e+00 +5.9142147799446940e+00 -5.2053552834818433e+01 -4.0116511543221354e+03 -2.7707812736081203e+04 +1.2782742271345027e+07 
-2.0499999999999998e+00 -5.7928496236877147e-01 +7.6289102174236536e+00 +5.9036718811306867e+00 -5.2420732762120963e+01 -4.0996285228464949e+03 -2.4183324711940691e+04 +1.3170011772847379e+07 
-2.1000000000000001e+00 -5.7929968561472855e-01 +7.6296700803708353e+00 +5.8926370594215323e+00 -5.2775858480863171e+01 -4.1846332002894815e+03 -2.0717891375903087e+04 +1.3534694665264711e+07 
-2.1499999999999999e+00 -5.7931474642537939e-01 +7.6304474168594494e+00 +5.8811140145728613e+00 -5.3119563337658619e+01 -4.2666980169594499e+03 -1.7307131302200829e+04 +1.3877318890439324e+07 
-2.2000000000000002e+00 -5.7933014282132289e-01 +7.6312420942535280e+00 +5.8691064454197983e+00 -5.3452480858240563e+01 -4.3458557738536356e+03 -1.3946661737209824e+04 +1.4198412173123844e+07 
-2.2500000000000000e+00 -5.7934587282310057e-01 +7.6320539799116105e+00 +5.8566180535882539e+00 -5.3775244331897916e+01 -4.4221393524676105e+03 -1.0632101830249772e+04 +1.4498502804189570e+07 
-2.2999999999999998e+00 -5.7936193445127038e-01 +7.6328829411973098e+00 +5.8436525366484595e+00 -5.4088487243864719e+01 -4.4955815211579329e+03 -7.3590691194570154e+03 +1.4778118292599611e+07 
-2.3500000000000001e+00 -5.7937832572639436e-01 +7.6337288454731436e+00 +5.8302135959254846e+00 -5.4392842998822800e+01 -4.5662151495952821e+03 -4.1231819102563568e+03 +1.5037786831401754e+07 
-2.3999999999999999e+00 -5.7939504466909686e-01 +7.6345915600994596e+00 +5.8163049318086761e+00 -5.4688944918431055e+01 -4.6340730817630383e+03 -9.2005910647397070e+02 +1.5278036438992755e+07 
-2.4500000000000002e+00 -5.7941208929994903e-01 +7.6354709524449431e+00 +5.8019302436500695e+00 -5.4977426627647553e+01 -4.6991881347153467e+03 +2.2546827596248058e+03 +1.5499394953017125e+07 
-2.5000000000000000e+00 -5.7942945763961839e-01 +7.6363668898711010e+00 +5.7870932314054970e+00 -5.5258921453442241e+01 -4.7615931438543048e+03 +5.4054247183509979e+03 +1.5702390344010221e+07 
-2.5499999999999998e+00 -5.7944714770865513e-01 +7.6372792397433997e+00 +5.7717975968934789e+00 -5.5534062862199725e+01 -4.8213209919898354e+03 +8.5365489333662717e+03 +1.5887550889537215e+07 
-2.6000000000000001e+00 -5.7946515752776029e-01 +7.6382078694289506e+00 +5.7560470372356738e+00 -5.5803484375015714e+01 -4.8784044342669486e+03 +1.1652437946852642e+04 +1.6055404001281200e+07 
-2.6499999999999999e+00 -5.7948348511756664e-01 +7.6391526462928816e+00 +5.7398452558302022e+00 -5.6067819409011236e+01 -4.9328763968627545e+03 +1.4757473421797540e+04 +1.6206478250544704e+07 
-2.7000000000000002e+00 -5.7950212849871741e-01 +7.6401134377026416e+00 +5.7231959511981607e+00 -5.6327701464220929e+01 -4.9847696756824425e+03 +1.7856037664283136e+04 +1.6341301335858637e+07 
-2.7500000000000000e+00 -5.7952108569188199e-01 +7.6410901110261253e+00 +5.7061028247584460e+00 -5.6583764047785863e+01 -5.0341171407271313e+03 +2.0952513023775267e+04 +1.6460401437257474e+07 
-2.7999999999999998e+00 -5.7954035471770560e-01 +7.6420825336313714e+00 +5.6885695771543050e+00 -5.6836640648842064e+01 -5.0809516420712098e+03 +2.4051281628097622e+04 +1.6564306602615116e+07 
-2.8500000000000001e+00 -5.7955993359689550e-01 +7.6430905728866003e+00 +5.6705999086772225e+00 -5.7086964758601702e+01 -5.1253060228676504e+03 +2.7156725598425717e+04 +1.6653544845019674e+07 
-2.8999999999999999e+00 -5.7957982035015987e-01 +7.6441140961626362e+00 +5.6521975231027737e+00 -5.7335369959262280e+01 -5.1672132166045649e+03 +3.0273227769309196e+04 +1.6728644770711079e+07 
-2.9500000000000002e+00 -5.7960001299817354e-01 +7.6451529708277155e+00 +5.6333661167895492e+00 -5.7582489699930633e+01 -5.2067059572121289e+03 +3.3405169783107529e+04 +1.6790133639049765e+07 
-3.0000000000000000e+00 -5.7962050956165811e-01 +7.6462070642539315e+00 +5.6141093930645329e+00 -5.7828957590307702e+01 -5.2438171677370656e+03 +3.6556934602789879e+04 +1.6838539993504539e+07 
-3.0499999999999998e+00 -5.7964130806129854e-01 +7.6472762438131339e+00 +5.5944310524962688e+00 -5.8075407211915540e+01 -5.2785796974336190e+03 +3.9732904916813721e+04 +1.6874391876217991e+07 
-3.1000000000000001e+00 -5.7966240651785994e-01 +7.6483603768754778e+00 +5.5743347981649576e+00 -5.8322472057664967e+01 -5.3110264585575205e+03 +4.2937462571107528e+04 +1.6898217739511862e+07 
-3.1499999999999999e+00 -5.7968380295206590e-01 +7.6494593308131336e+00 +5.5538243295371110e+00 -5.8570785700231347e+01 -5.3411902682529253e+03 +4.6174990079155163e+04 +1.6910545401248235e+07 
-3.2000000000000002e+00 -5.7970549538466243e-01 +7.6505729730007008e+00 +5.5329033490732931e+00 -5.8820981793312370e+01 -5.3691040240075063e+03 +4.9449870528026237e+04 +1.6911903217353109e+07 
-3.2500000000000000e+00 -5.7972748183636924e-01 +7.6517011708105152e+00 +5.5115755581842514e+00 -5.9073693879705850e+01 -5.3948005976699342e+03 +5.2766486007714324e+04 +1.6902819383176498e+07 
-3.2999999999999998e+00 -5.7974976032797876e-01 +7.6528437916172081e+00 +5.4898446596207098e+00 -5.9329555601151043e+01 -5.4183128888643905e+03 +5.6129219439040469e+04 +1.6883822246592157e+07 
-3.3500000000000001e+00 -5.7977232888027674e-01 +7.6540007027958605e+00 +5.4677143544162670e+00 -5.9589200598671539e+01 -5.4396737593660637e+03 +5.9542453613289355e+04 +1.6855439933555368e+07 
-3.3999999999999999e+00 -5.7979518551398113e-01 +7.6551717717197061e+00 +5.4451883447843246e+00 -5.9853262416500471e+01 -5.4589160958608290e+03 +6.3010570453646469e+04 +1.6818200708769992e+07 
-3.4500000000000002e+00 -5.7981832824987767e-01 +7.6563568657676182e+00 +5.4222703341581786e+00 -6.0122374831254831e+01 -5.4760728204614297e+03 +6.6537953761453100e+04 +1.6772633088332413e+07 
-3.5000000000000000e+00 -5.7984175510877278e-01 +7.6575558523149647e+00 +5.3989640236933862e+00 -6.0397171465210867e+01 -5.4911767931673457e+03 +7.0128985987571694e+04 +1.6719265162977122e+07 
-3.5499999999999998e+00 -5.7986546411147588e-01 +7.6587685987365042e+00 +5.3752731190951382e+00 -6.0678285903444994e+01 -5.5042609975262912e+03 +7.3788049205400908e+04 +1.6658625861271484e+07 
-3.6000000000000001e+00 -5.7988945327876840e-01 +7.6599949724115142e+00 +5.3512013194643995e+00 -6.0966351908950763e+01 -5.5153582336510899e+03 +7.7519526886978565e+04 +1.6591242853911880e+07 
-3.6499999999999999e+00 -5.7991372063147073e-01 +7.6612348407180173e+00 +5.3267523306688389e+00 -6.1262003175296329e+01 -5.5245014883271215e+03 +8.1327801821782647e+04 +1.6517645083770424e+07 
-3.6999999999999900e+00 -5.7993826419035521e-01 +7.6624880710336267e+00 +5.3019298537363824e+00 -6.1565873380971247e+01 -5.5317236170134493e+03 +8.5217256645075802e+04 +1.6438360606521154e+07 
-3.7499999999999898e+00 -5.7996308197631607e-01 +7.6637545307380188e+00 +5.2767375953906912e+00 -6.1878596277436699e+01 -5.5370576251174134e+03 +8.9192274487157658e+04 +1.6353918475442169e+07 
-3.7999999999999901e+00 -5.7998817201010622e-01 +7.6650340872099045e+00 +5.2511792564314543e+00 -6.2200805567829363e+01 -5.5405363595983499e+03 +9.3257238015308860e+04 +1.6264846676538846e+07 
-3.8499999999999899e+00 -5.8001353231261654e-01 +7.6663266078314543e+00 +5.2252585414246875e+00 -6.2533135083853111e+01 -5.5421927672831771e+03 +9.7416530830370350e+04 +1.6171673865306780e+07 
-3.8999999999999901e+00 -5.8003916090459806e-01 +7.6676319599819402e+00 +5.1989791543865227e+00 -6.2876218542114763e+01 -5.5420597833228767e+03 +1.0167453556760801e+05 +1.6074928628417203e+07 
-3.9499999999999900e+00 -5.8006505580698631e-01 +7.6689500110423214e+00 +5.1723448013229207e+00 -6.3230689713088317e+01 -5.5401703919044148e+03 +1.0603563516425235e+05 +1.5975139865802711e+07 
-3.9999999999999898e+00 -5.8009121504056516e-01 +7.6702806283957781e+00 +5.1453591853380702e+00 -6.3597182446136976e+01 -5.5365574970314319e+03 +1.1050421316094005e+05 +1.5872835931807294e+07 
-4.0499999999999901e+00 -5.8011763651352433e-01 +7.6716236709128447e+00 +5.1180269429888909e+00 -6.3976089781449858e+01 -5.5312529538726021e+03 +1.1508262335280726e+05 +1.5768442073092796e+07 
-4.0999999999999899e+00 -5.8014431768196850e-01 +7.6729789579025098e+00 +5.0903567043399374e+00 -6.4366933581733761e+01 -5.5242899825747872e+03 +1.1976594259400776e+05 +1.5662026811877536e+07 
-4.1499999999999897e+00 -5.8017125588882179e-01 +7.6743462973856245e+00 +5.0623581834207778e+00 -6.4769040578777847e+01 -5.5157033082001062e+03 +1.2454762758330599e+05 +1.5553581216963511e+07 
-4.1999999999999904e+00 -5.8019844847696489e-01 +7.6757254973789344e+00 +5.0340410962001618e+00 -6.5181737339998179e+01 -5.5055277070401153e+03 +1.2942113355818036e+05 +1.5443096710635412e+07 
-4.2499999999999902e+00 -5.8022589278934500e-01 +7.6771163659013437e+00 +5.0054151557402138e+00 -6.5604350555809873e+01 -5.4937978829920539e+03 +1.3437991686148976e+05 +1.5330564254646050e+07 
-4.2999999999999901e+00 -5.8025358616880884e-01 +7.6785187109708248e+00 +4.9764900762367699e+00 -6.6036206863292435e+01 -5.4805485619774672e+03 +1.3941743331560146e+05 +1.5215974927471019e+07 
-4.3499999999999899e+00 -5.8028152595827998e-01 +7.6799323406057942e+00 +4.9472755709311018e+00 -6.6476632961868745e+01 -5.4658144503443064e+03 +1.4452713937212809e+05 +1.5099319703334473e+07 
-4.3999999999999897e+00 -5.8030970950067029e-01 +7.6813570628206236e+00 +4.9177813555365448e+00 -6.6924955378383302e+01 -5.4496303181237954e+03 +1.4970249000658776e+05 +1.4980589980539866e+07 
-4.4499999999999904e+00 -5.8033813413884217e-01 +7.6827926856344320e+00 +4.8880171418483433e+00 -6.7380500865748417e+01 -5.4320308307739670e+03 +1.5493694212818140e+05 +1.4859776458854036e+07 
-4.4999999999999902e+00 -5.8036679721572659e-01 +7.6842390170598733e+00 +4.8579926443942574e+00 -6.7842595920361845e+01 -5.4130507298672637e+03 +1.6022395052319614e+05 +1.4736870362045277e+07 
-4.5499999999999901e+00 -5.8039569607422314e-01 +7.6856958651140443e+00 +4.8277175761092073e+00 -6.8310567241574546e+01 -5.3927247092367143e+03 +1.6555697167304790e+05 +1.4611862582763053e+07 
-4.5999999999999899e+00 -5.8042482805725493e-01 +7.6871630378111098e+00 +4.7972016500314121e+00 -6.8783741427651009e+01 -5.3710874698023590e+03 +1.7092946126311304e+05 +1.4484744077557797e+07 
-4.6499999999999897e+00 -5.8045419050763214e-01 +7.6886403431651038e+00 +4.7664545787461110e+00 -6.9261445089915682e+01 -5.3481736987142012e+03 +1.7633487511561904e+05 +1.4355505710553991e+07 
-4.6999999999999904e+00 -5.8048378076834217e-01 +7.6901275891880401e+00 +4.7354860765382130e+00 -6.9743004784105494e+01 -5.3240181300484110e+03 +1.8176666861095859e+05 +1.4224138673013881e+07 
-4.7499999999999902e+00 -5.8051359618221221e-01 +7.6916245838938808e+00 +4.7043058545742236e+00 -7.0227747155796521e+01 -5.2986554133969785e+03 +1.8721829789050366e+05 +1.4090633583789131e+07 
-4.7999999999999901e+00 -5.8054363409219190e-01 +7.6931311352932950e+00 +4.6729236255446471e+00 -7.0714998747458409e+01 -5.2721202376432657e+03 +1.9268321828305555e+05 +1.3954981331372945e+07 
-4.8499999999999899e+00 -5.8057389184108676e-01 +7.6946470513976077e+00 +4.6413491024326019e+00 -7.1204086147907717e+01 -5.2444473053410256e+03 +1.9815488554652053e+05 +1.3817172917383892e+07 
-4.8999999999999897e+00 -5.8060436677185856e-01 +7.6961721402170333e+00 +4.6095919954809590e+00 -7.1694335925770645e+01 -5.2156712363015768e+03 +2.0362675526850548e+05 +1.3677198760331182e+07 
-4.9499999999999904e+00 -5.8063505622737199e-01 +7.6977062097611153e+00 +4.5776620188156896e+00 -7.2185074655506924e+01 -5.1858267646211771e+03 +2.0909228317975512e+05 +1.3535050089920964e+07 
-4.9999999999999902e+00 -5.8066595755045780e-01 +7.6992490680369112e+00 +4.5455688805280561e+00 -7.2675628813738342e+01 -5.1549484578834490e+03 +2.1454492414996168e+05 +1.3390717003053302e+07 
-5.0499999999999901e+00 -5.8069706808649835e-01 +7.7008005150565992e+00 +4.5133226929663053e+00 -7.3165333027152258e+01 -5.1230711522615820e+03 +2.1997813636423385e+05 +1.3244191942840887e+07 
