# field on trajectory
# s[mm] rx[mm] ry[mm] rz[mm] bx[T] by[T] bz[T]
0.0000000000000000e+00 +8.3650000000000002e+00 +0.0000000000000000e+00 +0.0000000000000000e+00 -2.8769674624106491e-02 -5.2440077247078232e-01 +5.3245863407069237e-03
-5.0000000000000003e-02 +8.3649999310373140e+00 +0.0000000000000000e+00 -4.9999999999936581e-02 -2.8770067764363964e-02 -5.2440268967854364e-01 +5.3278511352701247e-03
-1.0000000000000001e-01 +8.3649997241489018e+00 +0.0000000000000000e+00 -9.9999999999492689e-02 -2.8770484352309673e-02 -5.2440498134436209e-01 +5.3311102909079340e-03
-1.5000000000000002e-01 +8.3649993793341615e+00 +0.0000000000000000e+00 -1.4999999999828786e-01 -2.8770924471332376e-02 -5.2440764653519489e-01 +5.3343635968708530e-03
-2.0000000000000001e-01 +8.3649988965923932e+00 +0.0000000000000000e+00 -1.9999999999594162e-01 -2.8771388204821630e-02 -5.2441068431801574e-01 +5.3376108424089998e-03
-2.5000000000000000e-01 +8.3649982759227974e+00 +0.0000000000000000e+00 -2.4999999999207345e-01 -2.8771875636167735e-02 -5.2441409375981674e-01 +5.3408518167720768e-03
-2.9999999999999999e-01 +8.3649975173244773e+00 +0.0000000000000000e+00 -2.9999999998630289e-01 -2.8772386848761877e-02 -5.2441787392760653e-01 +5.3440863092093739e-03
-3.4999999999999998e-01 +8.3649966207964379e+00 +0.0000000000000000e+00 -3.4999999997824938e-01 -2.8772921925996026e-02 -5.2442202388841075e-01 +5.3473141089697279e-03
-3.9999999999999997e-01 +8.3649955863375869e+00 +0.0000000000000000e+00 -3.9999999996753244e-01 -2.8773480951263131e-02 -5.2442654270927158e-01 +5.3505350053015370e-03
-4.4999999999999996e-01 +8.3649944139467376e+00 +0.0000000000000000e+00 -4.4999999995377160e-01 -2.8774064007956984e-02 -5.2443142945724863e-01 +5.3537487874527169e-03
-4.9999999999999994e-01 +8.3649931036226040e+00 +0.0000000000000000e+00 -4.9999999993658628e-01 -2.8774671179472400e-02 -5.2443668319941728e-01 +5.3569552446706961e-03
-5.4999999999999993e-01 +8.3649916553638057e+00 +0.0000000000000000e+00 -5.4999999991559589e-01 -2.8775302549205167e-02 -5.2444230300287020e-01 +5.3601541662024075e-03
-5.9999999999999998e-01 +8.3649900691688632e+00 +0.0000000000000000e+00 -5.9999999989041986e-01 -2.8775958200552128e-02 -5.2444828793471587e-01 +5.3633453412942709e-03
-6.5000000000000002e-01 +8.3649883450362026e+00 +0.0000000000000000e+00 -6.4999999986067769e-01 -2.8776638216911166e-02 -5.2445463706207951e-01 +5.3665285591921593e-03
-7.0000000000000007e-01 +8.3649864829641540e+00 +0.0000000000000000e+00 -6.9999999982598871e-01 -2.8777342681681275e-02 -5.2446134945210199e-01 +5.3697036091414083e-03
-7.5000000000000011e-01 +8.3649844829509519e+00 +0.0000000000000000e+00 -7.4999999978597232e-01 -2.8778071678262591e-02 -5.2446842417194017e-01 +5.3728702803867824e-03
-8.0000000000000016e-01 +8.3649823449947363e+00 +0.0000000000000000e+00 -7.9999999974024782e-01 -2.8778825290056403e-02 -5.2447586028876714e-01 +5.3760283621724679e-03
-8.5000000000000020e-01 +8.3649800690935514e+00 +0.0000000000000000e+00 -8.4999999968843465e-01 -2.8779603600465244e-02 -5.2448365686977161e-01 +5.3791776437420577e-03
-9.0000000000000024e-01 +8.3649776552453456e+00 +0.0000000000000000e+00 -8.9999999963015220e-01 -2.8780406692892842e-02 -5.2449181298215874e-01 +5.3823179143385304e-03
-9.5000000000000029e-01 +8.3649751034479749e+00 +0.0000000000000000e+00 -9.4999999956501968e-01 -2.8781234650744204e-02 -5.2450032769314714e-01 +5.3854489632042370e-03
-1.0000000000000002e+00 +8.3649724136991992e+00 +0.0000000000000000e+00 -9.9999999949265628e-01 -2.8782087557425680e-02 -5.2450920006997326e-01 +5.3885705795808855e-03
-1.0500000000000003e+00 +8.3649695859966844e+00 +0.0000000000000000e+00 -1.0499999994126814e+00 -2.8782965496344948e-02 -5.2451842917988756e-01 +5.3916825527095284e-03
-1.1000000000000003e+00 +8.3649666203380040e+00 +0.0000000000000000e+00 -1.0999999993247143e+00 -2.8783868550911012e-02 -5.2452801409015493e-01 +5.3947846718305362e-03
-1.1500000000000004e+00 +8.3649635167206355e+00 +0.0000000000000000e+00 -1.1499999992283740e+00 -2.8784796804534364e-02 -5.2453795386805735e-01 +5.3978767261835979e-03
-1.2000000000000004e+00 +8.3649602751419678e+00 +0.0000000000000000e+00 -1.1999999991232799e+00 -2.8785750340626911e-02 -5.2454824758089025e-01 +5.4009585050076919e-03
-1.2500000000000004e+00 +8.3649568955992901e+00 +0.0000000000000000e+00 -1.2499999990090509e+00 -2.8786729242602015e-02 -5.2455889429596392e-01 +5.4040297975410743e-03
-1.3000000000000005e+00 +8.3649533780898047e+00 +0.0000000000000000e+00 -1.2999999988853064e+00 -2.8787733593874619e-02 -5.2456989308060453e-01 +5.4070903930212716e-03
-1.3500000000000005e+00 +8.3649497226106178e+00 +0.0000000000000000e+00 -1.3499999987516653e+00 -2.8788763477861145e-02 -5.2458124300215114e-01 +5.4101400806850454e-03
-1.4000000000000006e+00 +8.3649459291587451e+00 +0.0000000000000000e+00 -1.3999999986077467e+00 -2.8789818977979633e-02 -5.2459294312795868e-01 +5.4131786497683991e-03
-1.4500000000000006e+00 +8.3649419977311084e+00 +0.0000000000000000e+00 -1.4499999984531695e+00 -2.8790900177649733e-02 -5.2460499252539561e-01 +5.4162058895065434e-03
-1.5000000000000007e+00 +8.3649379283245384e+00 +0.0000000000000000e+00 -1.4999999982875529e+00 -2.8792007160292760e-02 -5.2461739026184495e-01 +5.4192215891338963e-03
-1.5500000000000007e+00 +8.3649337209357739e+00 +0.0000000000000000e+00 -1.5499999981105159e+00 -2.8793140009331725e-02 -5.2463013540470382e-01 +5.4222255378840577e-03
-1.6000000000000008e+00 +8.3649293755614647e+00 +0.0000000000000000e+00 -1.5999999979216772e+00 -2.8794298808191315e-02 -5.2464322702138300e-01 +5.4252175249897882e-03
-1.6500000000000008e+00 +8.3649248921981663e+00 +0.0000000000000000e+00 -1.6499999977206559e+00 -2.8795483640298037e-02 -5.2465666417930779e-01 +5.4281973396830153e-03
-1.7000000000000008e+00 +8.3649202708423438e+00 +0.0000000000000000e+00 -1.6999999975070708e+00 -2.8796694589080133e-02 -5.2467044594591639e-01 +5.4311647711947943e-03
-1.7500000000000009e+00 +8.3649155114903735e+00 +0.0000000000000000e+00 -1.7499999972805407e+00 -2.8797931737967707e-02 -5.2468457138866142e-01 +5.4341196087552990e-03
-1.8000000000000009e+00 +8.3649106141385410e+00 +0.0000000000000000e+00 -1.7999999970406844e+00 -2.8799195170392713e-02 -5.2469903957500841e-01 +5.4370616415938223e-03
-1.8500000000000010e+00 +8.3649055787830395e+00 +0.0000000000000000e+00 -1.8499999967871203e+00 -2.8800484969788990e-02 -5.2471384957243694e-01 +5.4399906589387278e-03
-1.9000000000000010e+00 +8.3649004054199754e+00 +0.0000000000000000e+00 -1.8999999965194676e+00 -2.8801801219592336e-02 -5.2472900044843895e-01 +5.4429064500174703e-03
-1.9500000000000011e+00 +8.3648950940453624e+00 +0.0000000000000000e+00 -1.9499999962373447e+00 -2.8803144003240466e-02 -5.2474449127052036e-01 +5.4458088040565539e-03
-2.0000000000000009e+00 +8.3648896446551273e+00 +0.0000000000000000e+00 -1.9999999959403703e+00 -2.8804513404173157e-02 -5.2476032110619963e-01 +5.4486975102815286e-03
-2.0500000000000007e+00 +8.3648840572451064e+00 +0.0000000000000000e+00 -2.0499999956281627e+00 -2.8805909445831009e-02 -5.2477648881846417e-01 +5.4515723654960432e-03
-2.1000000000000005e+00 +8.3648783318110471e+00 +0.0000000000000000e+00 -2.0999999953003408e+00 -2.8807331911651624e-02 -5.2479299245213784e-01 +5.4544331968190488e-03
-2.1500000000000004e+00 +8.3648724683486080e+00 +0.0000000000000000e+00 -2.1499999949565232e+00 -2.8808780525072162e-02 -5.2480982984751168e-01 +5.4572798389474538e-03
-2.2000000000000002e+00 +8.3648664668533623e+00 +0.0000000000000000e+00 -2.1999999945963280e+00 -2.8810255009530352e-02 -5.2482699884488793e-01 +5.4601121265770427e-03
-2.2500000000000000e+00 +8.3648603273207929e+00 +0.0000000000000000e+00 -2.2499999942193734e+00 -2.8811755088464442e-02 -5.2484449728457916e-01 +5.4629298944024272e-03
-2.2999999999999998e+00 +8.3648540497462989e+00 +0.0000000000000000e+00 -2.2999999938252782e+00 -2.8813280485313141e-02 -5.2486232300691005e-01 +5.4657329771170418e-03
-2.3499999999999996e+00 +8.3648476341251907e+00 +0.0000000000000000e+00 -2.3499999934136602e+00 -2.8814830923515580e-02 -5.2488047385221459e-01 +5.4685212094131175e-03
-2.3999999999999995e+00 +8.3648410804526954e+00 +0.0000000000000000e+00 -2.3999999929841382e+00 -2.8816406126511249e-02 -5.2489894766083800e-01 +5.4712944259816525e-03
-2.4499999999999993e+00 +8.3648343887239545e+00 +0.0000000000000000e+00 -2.4499999925363301e+00 -2.8818005817739946e-02 -5.2491774227313515e-01 +5.4740524615123952e-03
-2.4999999999999991e+00 +8.3648275589340244e+00 +0.0000000000000000e+00 -2.4999999920698537e+00 -2.8819629720641709e-02 -5.2493685552947134e-01 +5.4767951506938242e-03
-2.5499999999999989e+00 +8.3648205910778781e+00 +0.0000000000000000e+00 -2.5499999915843277e+00 -2.8821277558656822e-02 -5.2495628527022131e-01 +5.4795223282131213e-03
-2.5999999999999988e+00 +8.3648134851504050e+00 +0.0000000000000000e+00 -2.5999999910793696e+00 -2.8822949055225651e-02 -5.2497602933576981e-01 +5.4822338287561518e-03
-2.6499999999999986e+00 +8.3648062411464128e+00 +0.0000000000000000e+00 -2.6499999905545977e+00 -2.8824643933788720e-02 -5.2499608556651023e-01 +5.4849294870074391e-03
-2.6999999999999984e+00 +8.3647988590606257e+00 +0.0000000000000000e+00 -2.6999999900096299e+00 -2.8826361917786592e-02 -5.2501645180284617e-01 +5.4876091376501492e-03
-2.7499999999999982e+00 +8.3647913388876880e+00 +0.0000000000000000e+00 -2.7499999894440839e+00 -2.8828102730659780e-02 -5.2503712588518958e-01 +5.4902726153660559e-03
-2.7999999999999980e+00 +8.3647836806221623e+00 +0.0000000000000000e+00 -2.7999999888575777e+00 -2.8829866095848779e-02 -5.2505810565396149e-01 +5.4929197548355332e-03
-2.8499999999999979e+00 +8.3647758842585311e+00 +0.0000000000000000e+00 -2.8499999882497291e+00 -2.8831651736793952e-02 -5.2507938894959127e-01 +5.4955503907375232e-03
-2.8999999999999977e+00 +8.3647679497911955e+00 +0.0000000000000000e+00 -2.8999999876201557e+00 -2.8833459376935520e-02 -5.2510097361251662e-01 +5.4981643577495173e-03
-2.9499999999999975e+00 +8.3647598772144782e+00 +0.0000000000000000e+00 -2.9499999869684750e+00 -2.8835288739713440e-02 -5.2512285748318421e-01 +5.5007614905475287e-03
-2.9999999999999973e+00 +8.3647516665226256e+00 +0.0000000000000000e+00 -2.9999999862943043e+00 -2.8837139548567446e-02 -5.2514503840204807e-01 +5.5033416238060790e-03
-3.0499999999999972e+00 +8.3647433177098023e+00 +0.0000000000000000e+00 -3.0499999855972617e+00 -2.8839011526936915e-02 -5.2516751420956997e-01 +5.5059045921981697e-03
-3.0999999999999970e+00 +8.3647348307700966e+00 +0.0000000000000000e+00 -3.0999999848769644e+00 -2.8840904398260873e-02 -5.2519028274621971e-01 +5.5084502303952591e-03
-3.1499999999999968e+00 +8.3647262056975205e+00 +0.0000000000000000e+00 -3.1499999841330295e+00 -2.8842817885977926e-02 -5.2521334185247448e-01 +5.5109783730672495e-03
-3.1999999999999966e+00 +8.3647174424860093e+00 +0.0000000000000000e+00 -3.1999999833650747e+00 -2.8844751713526153e-02 -5.2523668936881807e-01 +5.5134888548824448e-03
-3.2499999999999964e+00 +8.3647085411294242e+00 +0.0000000000000000e+00 -3.2499999825727173e+00 -2.8846705604343135e-02 -5.2526032313574256e-01 +5.5159815105075482e-03
-3.2999999999999963e+00 +8.3646995016215460e+00 +0.0000000000000000e+00 -3.2999999817555743e+00 -2.8848679281865876e-02 -5.2528424099374582e-01 +5.5184561746076327e-03
-3.3499999999999961e+00 +8.3646903239560864e+00 +0.0000000000000000e+00 -3.3499999809132630e+00 -2.8850672469530710e-02 -5.2530844078333228e-01 +5.5209126818461145e-03
-3.3999999999999959e+00 +8.3646810081266807e+00 +0.0000000000000000e+00 -3.3999999800454002e+00 -2.8852684890773306e-02 -5.2533292034501344e-01 +5.5233508668847383e-03
-3.4499999999999957e+00 +8.3646715541268897e+00 +0.0000000000000000e+00 -3.4499999791516029e+00 -2.8854716269028562e-02 -5.2535767751930706e-01 +5.5257705643835470e-03
-3.4999999999999956e+00 +8.3646619619502012e+00 +0.0000000000000000e+00 -3.4999999782314886e+00 -2.8856766327730616e-02 -5.2538271014673610e-01 +5.5281716090008620e-03
-3.5499999999999954e+00 +8.3646522315900320e+00 +0.0000000000000000e+00 -3.5499999772846733e+00 -2.8858834790312728e-02 -5.2540801606783039e-01 +5.5305538353932681e-03
-3.5999999999999952e+00 +8.3646423630397280e+00 +0.0000000000000000e+00 -3.5999999763107744e+00 -2.8860921380207266e-02 -5.2543359312312488e-01 +5.5329170782155790e-03
-3.6499999999999950e+00 +8.3646323562925602e+00 +0.0000000000000000e+00 -3.6499999753094086e+00 -2.8863025820845638e-02 -5.2545943915315962e-01 +5.5352611721208199e-03
-3.6999999999999948e+00 +8.3646222113417306e+00 +0.0000000000000000e+00 -3.6999999742801926e+00 -2.8865147835658262e-02 -5.2548555199848090e-01 +5.5375859517602152e-03
-3.7499999999999947e+00 +8.3646119281803735e+00 +0.0000000000000000e+00 -3.7499999732227427e+00 -2.8867287148074468e-02 -5.2551192949963932e-01 +5.5398912517831429e-03
-3.7999999999999945e+00 +8.3646015068015487e+00 +0.0000000000000000e+00 -3.7999999721366753e+00 -2.8869443481522507e-02 -5.2553856949719058e-01 +5.5421769068371377e-03
-3.8499999999999943e+00 +8.3645909471982520e+00 +0.0000000000000000e+00 -3.8499999710216071e+00 -2.8871616559429446e-02 -5.2556546983169483e-01 +5.5444427515678471e-03
-3.8999999999999941e+00 +8.3645802493634065e+00 +0.0000000000000000e+00 -3.8999999698771544e+00 -2.8873806105221129e-02 -5.2559262834371689e-01 +5.5466886206190285e-03
-3.9499999999999940e+00 +8.3645694132898694e+00 +0.0000000000000000e+00 -3.9499999687029335e+00 -2.8876011842322153e-02 -5.2562004287382602e-01 +5.5489143486325103e-03
-3.9999999999999938e+00 +8.3645584389704322e+00 +0.0000000000000000e+00 -3.9999999674985607e+00 -2.8878233494155751e-02 -5.2564771126259491e-01 +5.5511197702481736e-03
-4.0499999999999936e+00 +8.3645473263978154e+00 +0.0000000000000000e+00 -4.0499999662636519e+00 -2.8880470794091079e-02 -5.2567563127138806e-01 +5.5533047451147028e-03
-4.0999999999999934e+00 +8.3645360755646774e+00 +0.0000000000000000e+00 -4.0999999649978234e+00 -2.8882723515285365e-02 -5.2570380034472075e-01 +5.5554692329223823e-03
-4.1499999999999932e+00 +8.3645246864636089e+00 +0.0000000000000000e+00 -4.1499999637006910e+00 -2.8884991440842892e-02 -5.2573221584789875e-01 +5.5576132183713040e-03
-4.1999999999999931e+00 +8.3645131590871369e+00 +0.0000000000000000e+00 -4.1999999623718711e+00 -2.8887274353867728e-02 -5.2576087514622960e-01 +5.5597366861606067e-03
-4.2499999999999929e+00 +8.3645014934277224e+00 +0.0000000000000000e+00 -4.2499999610109791e+00 -2.8889572037463795e-02 -5.2578977560502427e-01 +5.5618396209884879e-03
-4.2999999999999927e+00 +8.3644896894777663e+00 +0.0000000000000000e+00 -4.2999999596176304e+00 -2.8891884274734762e-02 -5.2581891458959507e-01 +5.5639220075521974e-03
-4.3499999999999925e+00 +8.3644777472296035e+00 +0.0000000000000000e+00 -4.3499999581914413e+00 -2.8894210848784154e-02 -5.2584828946525741e-01 +5.5659838305480679e-03
-4.3999999999999924e+00 +8.3644656666755086e+00 +0.0000000000000000e+00 -4.3999999567320272e+00 -2.8896551542715188e-02 -5.2587789759732761e-01 +5.5680250746715093e-03
-4.4499999999999922e+00 +8.3644534478076942e+00 +0.0000000000000000e+00 -4.4499999552390035e+00 -2.8898906139630916e-02 -5.2590773635112420e-01 +5.5700457246170244e-03
-4.4999999999999920e+00 +8.3644410906183122e+00 +0.0000000000000000e+00 -4.4999999537119866e+00 -2.8901274422634092e-02 -5.2593780309196692e-01 +5.5720457650782103e-03
-4.5499999999999918e+00 +8.3644285950994544e+00 +0.0000000000000000e+00 -4.5499999521505909e+00 -2.8903656174827239e-02 -5.2596809518517673e-01 +5.5740251807477837e-03
-4.5999999999999917e+00 +8.3644159612431537e+00 +0.0000000000000000e+00 -4.5999999505544320e+00 -2.8906051179312581e-02 -5.2599860999607551e-01 +5.5759839563175768e-03
-4.6499999999999915e+00 +8.3644031890413846e+00 +0.0000000000000000e+00 -4.6499999489231243e+00 -2.8908459219192065e-02 -5.2602934488998587e-01 +5.5779220764785439e-03
-4.6999999999999913e+00 +8.3643902784860646e+00 +0.0000000000000000e+00 -4.6999999472562841e+00 -2.8910880077567310e-02 -5.2606029723223113e-01 +5.5798395259207892e-03
-4.7499999999999911e+00 +8.3643772295690511e+00 +0.0000000000000000e+00 -4.7499999455535260e+00 -2.8913313537539644e-02 -5.2609146438813492e-01 +5.5817362893335505e-03
-4.7999999999999909e+00 +8.3643640422821477e+00 +0.0000000000000000e+00 -4.7999999438144645e+00 -2.8915759382210082e-02 -5.2612284372302109e-01 +5.5836123514052321e-03
-4.8499999999999908e+00 +8.3643507166171016e+00 +0.0000000000000000e+00 -4.8499999420387150e+00 -2.8918217394679261e-02 -5.2615443260221284e-01 +5.5854676968233952e-03
-4.8999999999999906e+00 +8.3643372525656048e+00 +0.0000000000000000e+00 -4.8999999402258920e+00 -2.8920687358047481e-02 -5.2618622839103357e-01 +5.5873023102747882e-03
-4.9499999999999904e+00 +8.3643236501192941e+00 +0.0000000000000000e+00 -4.9499999383756101e+00 -2.8923169055414699e-02 -5.2621822845480670e-01 +5.5891161764453322e-03
-4.9999999999999902e+00 +8.3643099092697533e+00 +0.0000000000000000e+00 -4.9999999364874848e+00 -2.8925662269880456e-02 -5.2625043015885320e-01 +5.5909092800201458e-03
-5.0499999999999901e+00 +8.3642960300085125e+00 +0.0000000000000000e+00 -5.0499999345611295e+00 -2.8928166784543921e-02 -5.2628283086849492e-01 +5.5926816056835540e-03
-5.0999999999999899e+00 +8.3642820123270507e+00 +0.0000000000000000e+00 -5.0999999325961598e+00 -2.8930682382503854e-02 -5.2631542794905117e-01 +5.5944331381190841e-03
-5.1499999999999897e+00 +8.3642678562167951e+00 +0.0000000000000000e+00 -5.1499999305921893e+00 -2.8933208846858606e-02 -5.2634821876584104e-01 +5.5961638620095023e-03
-5.1999999999999895e+00 +8.3642535616691198e+00 +0.0000000000000000e+00 -5.1999999285488325e+00 -2.8935745960706083e-02 -5.2638120068418082e-01 +5.5978737620367841e-03
-5.2499999999999893e+00 +8.3642391286753526e+00 +0.0000000000000000e+00 -5.2499999264657031e+00 -2.8938293507143768e-02 -5.2641437106938582e-01 +5.5995628228821641e-03
-5.2999999999999892e+00 +8.3642245572267679e+00 +0.0000000000000000e+00 -5.2999999243424156e+00 -2.8940851269268663e-02 -5.2644772728676903e-01 +5.6012310292261102e-03
-5.3499999999999890e+00 +8.3642098473145925e+00 +0.0000000000000000e+00 -5.3499999221785846e+00 -2.8943419030177352e-02 -5.2648126670164153e-01 +5.6028783657483677e-03
-5.3999999999999888e+00 +8.3641949989300048e+00 +0.0000000000000000e+00 -5.3999999199738236e+00 -2.8945996572965878e-02 -5.2651498667931085e-01 +5.6045048171279284e-03
-5.4499999999999886e+00 +8.3641800120641374e+00 +0.0000000000000000e+00 -5.4499999177277463e+00 -2.8948583680729837e-02 -5.2654888458508342e-01 +5.6061103680430822e-03
-5.4999999999999885e+00 +8.3641648867080729e+00 +0.0000000000000000e+00 -5.4999999154399664e+00 -2.8951180136564281e-02 -5.2658295778426134e-01 +5.6076950031713878e-03
-5.5499999999999883e+00 +8.3641496228528514e+00 +0.0000000000000000e+00 -5.5499999131100974e+00 -2.8953785723563767e-02 -5.2661720364214426e-01 +5.6092587071897120e-03
-5.5999999999999881e+00 +8.3641342204894649e+00 +0.0000000000000000e+00 -5.5999999107377532e+00 -2.8956400224822314e-02 -5.2665161952402839e-01 +5.6108014647742238e-03
-5.6499999999999879e+00 +8.3641186796088629e+00 +0.0000000000000000e+00 -5.6499999083225472e+00 -2.8959023423433407e-02 -5.2668620279520661e-01 +5.6123232606004022e-03
-5.6999999999999877e+00 +8.3641030002019487e+00 +0.0000000000000000e+00 -5.6999999058640931e+00 -2.8961655102489957e-02 -5.2672095082096770e-01 +5.6138240793430529e-03
-5.7499999999999876e+00 +8.3640871822595848e+00 +0.0000000000000000e+00 -5.7499999033620037e+00 -2.8964295045084326e-02 -5.2675586096659688e-01 +5.6153039056763207e-03
-5.7999999999999874e+00 +8.3640712257725873e+00 +0.0000000000000000e+00 -5.7999999008158927e+00 -2.8966943034308273e-02 -5.2679093059737392e-01 +5.6167627242736879e-03
-5.8499999999999872e+00 +8.3640551307317335e+00 +0.0000000000000000e+00 -5.8499998982253736e+00 -2.8969598853252964e-02 -5.2682615707857594e-01 +5.6182005198079817e-03
