# trajectory
# s[mm] rx[mm] ry[mm] rz[mm] px[rad] py[rad] pz[rad]
0.0000000000000000e+00 +8.2850000000000001e+00 +0.0000000000000000e+00 +0.0000000000000000e+00 +0.0000000000000000e+00 +0.0000000000000000e+00 +1.0000000000000000e+00
5.0000000000000003e-02 +8.2849999306255135e+00 +0.0000000000000000e+00 +4.9999999999935832e-02 -2.7749809535626035e-06 +0.0000000000000000e+00 +9.9999999999614975e-01
1.0000000000000001e-01 +8.2849997225017447e+00 +0.0000000000000000e+00 +9.9999999999486638e-02 -5.5499715861508662e-06 +0.0000000000000000e+00 +9.9999999998459888e-01
1.5000000000000002e-01 +8.2849993756281641e+00 +0.0000000000000000e+00 +1.4999999999826738e-01 -8.3249737053201257e-06 +0.0000000000000000e+00 +9.9999999996534739e-01
2.0000000000000001e-01 +8.2849988900041520e+00 +0.0000000000000000e+00 +1.9999999999589302e-01 -1.1099989114036221e-05 +0.0000000000000000e+00 +9.9999999993839506e-01
2.5000000000000000e-01 +8.2849982656290013e+00 +0.0000000000000000e+00 +2.4999999999197853e-01 -1.3875019610675561e-05 +0.0000000000000000e+00 +9.9999999990374189e-01
2.9999999999999999e-01 +8.2849975025019109e+00 +0.0000000000000000e+00 +2.9999999998613885e-01 -1.6650066989025219e-05 +0.0000000000000000e+00 +9.9999999986138766e-01
3.4999999999999998e-01 +8.2849966006219926e+00 +0.0000000000000000e+00 +3.4999999997798892e-01 -1.9425133038283004e-05 +0.0000000000000000e+00 +9.9999999981133214e-01
3.9999999999999997e-01 +8.2849955599882676e+00 +0.0000000000000000e+00 +3.9999999996714369e-01 -2.2200219543057549e-05 +0.0000000000000000e+00 +9.9999999975357512e-01
4.4999999999999996e-01 +8.2849943805996684e+00 +0.0000000000000000e+00 +4.4999999995321804e-01 -2.4975328283368382e-05 +0.0000000000000000e+00 +9.9999999968811648e-01
4.9999999999999994e-01 +8.2849930624550385e+00 +0.0000000000000000e+00 +4.9999999993582694e-01 -2.7750461034646014e-05 +0.0000000000000000e+00 +9.9999999961495600e-01
5.4999999999999993e-01 +8.2849916055531345e+00 +0.0000000000000000e+00 +5.4999999991458526e-01 -3.0525619567732015e-05 +0.0000000000000000e+00 +9.9999999953409335e-01
5.9999999999999998e-01 +8.2849900098926224e+00 +0.0000000000000000e+00 +5.9999999988910790e-01 -3.3300805648879081e-05 +0.0000000000000000e+00 +9.9999999944552820e-01
6.5000000000000002e-01 +8.2849882754720809e+00 +0.0000000000000000e+00 +6.4999999985900969e-01 -3.6076021039751137e-05 +0.0000000000000000e+00 +9.9999999934926043e-01
7.0000000000000007e-01 +8.2849864022900004e+00 +0.0000000000000000e+00 +6.9999999982390548e-01 -3.8851267497423386e-05 +0.0000000000000000e+00 +9.9999999924528959e-01
7.5000000000000011e-01 +8.2849843903447837e+00 +0.0000000000000000e+00 +7.4999999978341025e-01 -4.1626546774382414e-05 +0.0000000000000000e+00 +9.9999999913361537e-01
8.0000000000000016e-01 +8.2849822396347470e+00 +0.0000000000000000e+00 +7.9999999973713865e-01 -4.4401860618526243e-05 +0.0000000000000000e+00 +9.9999999901423742e-01
8.5000000000000020e-01 +8.2849799501581174e+00 +0.0000000000000000e+00 +8.4999999968470552e-01 -4.7177210773164417e-05 +0.0000000000000000e+00 +9.9999999888715541e-01
9.0000000000000024e-01 +8.2849775219130350e+00 +0.0000000000000000e+00 +8.9999999962572574e-01 -4.9952598977018083e-05 +0.0000000000000000e+00 +9.9999999875236889e-01
9.5000000000000029e-01 +8.2849749548975566e+00 +0.0000000000000000e+00 +9.4999999955981396e-01 -5.2728026964220062e-05 +0.0000000000000000e+00 +9.9999999860987754e-01
1.0000000000000002e+00 +8.2849722491096482e+00 +0.0000000000000000e+00 +9.9999999948658502e-01 -5.5503496464314917e-05 +0.0000000000000000e+00 +9.9999999845968091e-01
1.0500000000000003e+00 +8.2849694045471907e+00 +0.0000000000000000e+00 +1.0499999994056537e+00 -5.8279009202259034e-05 +0.0000000000000000e+00 +9.9999999830177855e-01
1.1000000000000003e+00 +8.2849664212079794e+00 +0.0000000000000000e+00 +1.0999999993166345e+00 -6.1054566898420691e-05 +0.0000000000000000e+00 +9.9999999813616991e-01
1.1500000000000004e+00 +8.2849632990897231e+00 +0.0000000000000000e+00 +1.1499999992191423e+00 -6.3830171268580146e-05 +0.0000000000000000e+00 +9.9999999796285455e-01
1.2000000000000004e+00 +8.2849600381900466e+00 +0.0000000000000000e+00 +1.1999999991127916e+00 -6.6605824023929688e-05 +0.0000000000000000e+00 +9.9999999778183202e-01
1.2500000000000004e+00 +8.2849566385064861e+00 +0.0000000000000000e+00 +1.2499999989971970e+00 -6.9381526871073739e-05 +0.0000000000000000e+00 +9.9999999759310176e-01
1.3000000000000005e+00 +8.2849531000364962e+00 +0.0000000000000000e+00 +1.2999999988719733e+00 -7.2157281512028878e-05 +0.0000000000000000e+00 +9.9999999739666323e-01
1.3500000000000005e+00 +8.2849494227774443e+00 +0.0000000000000000e+00 +1.3499999987367348e+00 -7.4933089644223965e-05 +0.0000000000000000e+00 +9.9999999719251587e-01
1.4000000000000006e+00 +8.2849456067266125e+00 +0.0000000000000000e+00 +1.3999999985910963e+00 -7.7708952960500179e-05 +0.0000000000000000e+00 +9.9999999698065911e-01
1.4500000000000006e+00 +8.2849416518811996e+00 +0.0000000000000000e+00 +1.4499999984346721e+00 -8.0484873149111116e-05 +0.0000000000000000e+00 +9.9999999676109241e-01
1.5000000000000007e+00 +8.2849375582383207e+00 +0.0000000000000000e+00 +1.4999999982670769e+00 -8.3260851893722827e-05 +0.0000000000000000e+00 +9.9999999653381511e-01
1.5500000000000007e+00 +8.2849333257950057e+00 +0.0000000000000000e+00 +1.5499999980879251e+00 -8.6036890873413899e-05 +0.0000000000000000e+00 +9.9999999629882652e-01
1.6000000000000008e+00 +8.2849289545482012e+00 +0.0000000000000000e+00 +1.5999999978968311e+00 -8.8812991762675540e-05 +0.0000000000000000e+00 +9.9999999605612611e-01
1.6500000000000008e+00 +8.2849244444947701e+00 +0.0000000000000000e+00 +1.6499999976934092e+00 -9.1589156231411631e-05 +0.0000000000000000e+00 +9.9999999580571308e-01
1.7000000000000008e+00 +8.2849197956314917e+00 +0.0000000000000000e+00 +1.6999999974772739e+00 -9.4365385944938790e-05 +0.0000000000000000e+00 +9.9999999554758678e-01
1.7500000000000009e+00 +8.2849150079550604e+00 +0.0000000000000000e+00 +1.7499999972480393e+00 -9.7141682563986476e-05 +0.0000000000000000e+00 +9.9999999528174655e-01
1.8000000000000009e+00 +8.2849100814620922e+00 +0.0000000000000000e+00 +1.7999999970053200e+00 -9.9918047744697005e-05 +0.0000000000000000e+00 +9.9999999500819170e-01
1.8500000000000010e+00 +8.2849050161491160e+00 +0.0000000000000000e+00 +1.8499999967487299e+00 -1.0269448313862565e-04 +0.0000000000000000e+00 +9.9999999472692136e-01
1.9000000000000010e+00 +8.2848998120125810e+00 +0.0000000000000000e+00 +1.8999999964778835e+00 -1.0547099039274070e-04 +0.0000000000000000e+00 +9.9999999443793486e-01
1.9500000000000011e+00 +8.2848944690488526e+00 +0.0000000000000000e+00 +1.9499999961923948e+00 -1.0824757114942351e-04 +0.0000000000000000e+00 +9.9999999414123142e-01
2.0000000000000009e+00 +8.2848889872542149e+00 +0.0000000000000000e+00 +1.9999999958918779e+00 -1.1102422704646862e-04 +0.0000000000000000e+00 +9.9999999383681026e-01
2.0500000000000007e+00 +8.2848833666248698e+00 +0.0000000000000000e+00 +2.0499999955759471e+00 -1.1380095971679104e-04 +0.0000000000000000e+00 +9.9999999352467051e-01
2.1000000000000005e+00 +8.2848776071569379e+00 +0.0000000000000000e+00 +2.0999999952442163e+00 -1.1657777078520649e-04 +0.0000000000000000e+00 +9.9999999320481137e-01
2.1500000000000004e+00 +8.2848717088464578e+00 +0.0000000000000000e+00 +2.1499999948962998e+00 -1.1935466186521159e-04 +0.0000000000000000e+00 +9.9999999287723207e-01
2.2000000000000002e+00 +8.2848656716893903e+00 +0.0000000000000000e+00 +2.1999999945318112e+00 -1.2213163455869125e-04 +0.0000000000000000e+00 +9.9999999254193161e-01
2.2500000000000000e+00 +8.2848594956816157e+00 +0.0000000000000000e+00 +2.2499999941503646e+00 -1.2490869045591867e-04 +0.0000000000000000e+00 +9.9999999219890923e-01
2.2999999999999998e+00 +8.2848531808189332e+00 +0.0000000000000000e+00 +2.2999999937515736e+00 -1.2768583113555539e-04 +0.0000000000000000e+00 +9.9999999184816402e-01
2.3499999999999996e+00 +8.2848467270970634e+00 +0.0000000000000000e+00 +2.3499999933350524e+00 -1.3046305816465141e-04 +0.0000000000000000e+00 +9.9999999148969498e-01
2.3999999999999995e+00 +8.2848401345116507e+00 +0.0000000000000000e+00 +2.3999999929004145e+00 -1.3324037309864520e-04 +0.0000000000000000e+00 +9.9999999112350124e-01
2.4499999999999993e+00 +8.2848334030582613e+00 +0.0000000000000000e+00 +2.4499999924472737e+00 -1.3601777748136376e-04 +0.0000000000000000e+00 +9.9999999074958190e-01
2.4999999999999991e+00 +8.2848265327323851e+00 +0.0000000000000000e+00 +2.4999999919752440e+00 -1.3879527284502263e-04 +0.0000000000000000e+00 +9.9999999036793596e-01
2.5499999999999989e+00 +8.2848195235294355e+00 +0.0000000000000000e+00 +2.5499999914839386e+00 -1.4157286071022601e-04 +0.0000000000000000e+00 +9.9999998997856243e-01
2.5999999999999988e+00 +8.2848123754447478e+00 +0.0000000000000000e+00 +2.5999999909729712e+00 -1.4435054258596678e-04 +0.0000000000000000e+00 +9.9999998958146030e-01
2.6499999999999986e+00 +8.2848050884735844e+00 +0.0000000000000000e+00 +2.6499999904419558e+00 -1.4712831996962654e-04 +0.0000000000000000e+00 +9.9999998917662858e-01
2.6999999999999984e+00 +8.2847976626111333e+00 +0.0000000000000000e+00 +2.6999999898905052e+00 -1.4990619434697563e-04 +0.0000000000000000e+00 +9.9999998876406626e-01
2.7499999999999982e+00 +8.2847900978525075e+00 +0.0000000000000000e+00 +2.7499999893182334e+00 -1.5268416719217329e-04 +0.0000000000000000e+00 +9.9999998834377235e-01
2.7999999999999980e+00 +8.2847823941927476e+00 +0.0000000000000000e+00 +2.7999999887247538e+00 -1.5546223996776756e-04 +0.0000000000000000e+00 +9.9999998791574574e-01
2.8499999999999979e+00 +8.2847745516268212e+00 +0.0000000000000000e+00 +2.8499999881096794e+00 -1.5824041412469542e-04 +0.0000000000000000e+00 +9.9999998747998542e-01
2.8999999999999977e+00 +8.2847665701496211e+00 +0.0000000000000000e+00 +2.8999999874726234e+00 -1.6101869110228285e-04 +0.0000000000000000e+00 +9.9999998703649029e-01
2.9499999999999975e+00 +8.2847584497559730e+00 +0.0000000000000000e+00 +2.9499999868131996e+00 -1.6379707232824474e-04 +0.0000000000000000e+00 +9.9999998658525924e-01
2.9999999999999973e+00 +8.2847501904406275e+00 +0.0000000000000000e+00 +2.9999999861310207e+00 -1.6657555921868514e-04 +0.0000000000000000e+00 +9.9999998612629126e-01
3.0499999999999972e+00 +8.2847417921982665e+00 +0.0000000000000000e+00 +3.0499999854256998e+00 -1.6935415317809708e-04 +0.0000000000000000e+00 +9.9999998565958514e-01
3.0999999999999970e+00 +8.2847332550235020e+00 +0.0000000000000000e+00 +3.0999999846968502e+00 -1.7213285559936279e-04 +0.0000000000000000e+00 +9.9999998518513977e-01
3.1499999999999968e+00 +8.2847245789108754e+00 +0.0000000000000000e+00 +3.1499999839440846e+00 -1.7491166786375365e-04 +0.0000000000000000e+00 +9.9999998470295393e-01
3.1999999999999966e+00 +8.2847157638548623e+00 +0.0000000000000000e+00 +3.1999999831670163e+00 -1.7769059134093026e-04 +0.0000000000000000e+00 +9.9999998421302660e-01
3.2499999999999964e+00 +8.2847068098498653e+00 +0.0000000000000000e+00 +3.2499999823652583e+00 -1.8046962738894244e-04 +0.0000000000000000e+00 +9.9999998371535648e-01
3.2999999999999963e+00 +8.2846977168902249e+00 +0.0000000000000000e+00 +3.2999999815384231e+00 -1.8324877735422933e-04 +0.0000000000000000e+00 +9.9999998320994243e-01
3.3499999999999961e+00 +8.2846884849702089e+00 +0.0000000000000000e+00 +3.3499999806861234e+00 -1.8602804257161935e-04 +0.0000000000000000e+00 +9.9999998269678336e-01
3.3999999999999959e+00 +8.2846791140840246e+00 +0.0000000000000000e+00 +3.3999999798079723e+00 -1.8880742436433033e-04 +0.0000000000000000e+00 +9.9999998217587793e-01
3.4499999999999957e+00 +8.2846696042258081e+00 +0.0000000000000000e+00 +3.4499999789035822e+00 -1.9158692404396945e-04 +0.0000000000000000e+00 +9.9999998164722492e-01
3.4999999999999956e+00 +8.2846599553896336e+00 +0.0000000000000000e+00 +3.4999999779725659e+00 -1.9436654291053336e-04 +0.0000000000000000e+00 +9.9999998111082311e-01
3.5499999999999954e+00 +8.2846501675695094e+00 +0.0000000000000000e+00 +3.5499999770145356e+00 -1.9714628225240814e-04 +0.0000000000000000e+00 +9.9999998056667128e-01
3.5999999999999952e+00 +8.2846402407593800e+00 +0.0000000000000000e+00 +3.5999999760291037e+00 -1.9992614334636937e-04 +0.0000000000000000e+00 +9.9999998001476820e-01
3.6499999999999950e+00 +8.2846301749531257e+00 +0.0000000000000000e+00 +3.6499999750158829e+00 -2.0270612745758217e-04 +0.0000000000000000e+00 +9.9999997945511254e-01
3.6999999999999948e+00 +8.2846199701445631e+00 +0.0000000000000000e+00 +3.6999999739744855e+00 -2.0548623583960122e-04 +0.0000000000000000e+00 +9.9999997888770298e-01
3.7499999999999947e+00 +8.2846096263274500e+00 +0.0000000000000000e+00 +3.7499999729045239e+00 -2.0826646973437073e-04 +0.0000000000000000e+00 +9.9999997831253828e-01
3.7999999999999945e+00 +8.2845991434954787e+00 +0.0000000000000000e+00 +3.7999999718056103e+00 -2.1104683037222462e-04 +0.0000000000000000e+00 +9.9999997772961713e-01
3.8499999999999943e+00 +8.2845885216422808e+00 +0.0000000000000000e+00 +3.8499999706773567e+00 -2.1382731897188638e-04 +0.0000000000000000e+00 +9.9999997713893829e-01
3.8999999999999941e+00 +8.2845777607614295e+00 +0.0000000000000000e+00 +3.8999999695193748e+00 -2.1660793674046919e-04 +0.0000000000000000e+00 +9.9999997654050032e-01
3.9499999999999940e+00 +8.2845668608464340e+00 +0.0000000000000000e+00 +3.9499999683312770e+00 -2.1938868487347596e-04 +0.0000000000000000e+00 +9.9999997593430190e-01
3.9999999999999938e+00 +8.2845558218907485e+00 +0.0000000000000000e+00 +3.9999999671126756e+00 -2.2216956455479929e-04 +0.0000000000000000e+00 +9.9999997532034168e-01
4.0499999999999936e+00 +8.2845446438877666e+00 +0.0000000000000000e+00 +4.0499999658631820e+00 -2.2495057695667077e-04 +0.0000000000000000e+00 +9.9999997469861834e-01
4.0999999999999934e+00 +8.2845333268308217e+00 +0.0000000000000000e+00 +4.0999999645824081e+00 -2.2773172323910284e-04 +0.0000000000000000e+00 +9.9999997406913044e-01
4.1499999999999932e+00 +8.2845218707131920e+00 +0.0000000000000000e+00 +4.1499999632699653e+00 -2.3051300454933051e-04 +0.0000000000000000e+00 +9.9999997343187663e-01
4.1999999999999931e+00 +8.2845102755280973e+00 +0.0000000000000000e+00 +4.1999999619254664e+00 -2.3329442202176066e-04 +0.0000000000000000e+00 +9.9999997278685560e-01
4.2499999999999929e+00 +8.2844985412687020e+00 +0.0000000000000000e+00 +4.2499999605485215e+00 -2.3607597677797199e-04 +0.0000000000000000e+00 +9.9999997213406588e-01
4.2999999999999927e+00 +8.2844866679281139e+00 +0.0000000000000000e+00 +4.2999999591387432e+00 -2.3885766992671510e-04 +0.0000000000000000e+00 +9.9999997147350606e-01
4.3499999999999925e+00 +8.2844746554993858e+00 +0.0000000000000000e+00 +4.3499999576957427e+00 -2.4163950256391237e-04 +0.0000000000000000e+00 +9.9999997080517466e-01
4.3999999999999924e+00 +8.2844625039755151e+00 +0.0000000000000000e+00 +4.3999999562191308e+00 -2.4442147577265802e-04 +0.0000000000000000e+00 +9.9999997012907038e-01
4.4499999999999922e+00 +8.2844502133494480e+00 +0.0000000000000000e+00 +4.4499999547085194e+00 -2.4720359062321812e-04 +0.0000000000000000e+00 +9.9999996944519165e-01
4.4999999999999920e+00 +8.2844377836140755e+00 +0.0000000000000000e+00 +4.4999999531635204e+00 -2.4998584817303049e-04 +0.0000000000000000e+00 +9.9999996875353714e-01
4.5499999999999918e+00 +8.2844252147622353e+00 +0.0000000000000000e+00 +4.5499999515837439e+00 -2.5276824946670484e-04 +0.0000000000000000e+00 +9.9999996805410529e-01
4.5999999999999917e+00 +8.2844125067867154e+00 +0.0000000000000000e+00 +4.5999999499688009e+00 -2.5555079553602259e-04 +0.0000000000000000e+00 +9.9999996734689467e-01
4.6499999999999915e+00 +8.2843996596802523e+00 +0.0000000000000000e+00 +4.6499999483183032e+00 -2.5833348739993695e-04 +0.0000000000000000e+00 +9.9999996663190382e-01
4.6999999999999913e+00 +8.2843866734355291e+00 +0.0000000000000000e+00 +4.6999999466318618e+00 -2.6111632606457284e-04 +0.0000000000000000e+00 +9.9999996590913132e-01
4.7499999999999911e+00 +8.2843735480451830e+00 +0.0000000000000000e+00 +4.7499999449090868e+00 -2.6389931252322697e-04 +0.0000000000000000e+00 +9.9999996517857559e-01
4.7999999999999909e+00 +8.2843602835017975e+00 +0.0000000000000000e+00 +4.7999999431495892e+00 -2.6668244775636776e-04 +0.0000000000000000e+00 +9.9999996444023520e-01
4.8499999999999908e+00 +8.2843468797979121e+00 +0.0000000000000000e+00 +4.8499999413529800e+00 -2.6946573273163528e-04 +0.0000000000000000e+00 +9.9999996369410860e-01
4.8999999999999906e+00 +8.2843333369260144e+00 +0.0000000000000000e+00 +4.8999999395188700e+00 -2.7224916840384129e-04 +0.0000000000000000e+00 +9.9999996294019433e-01
4.9499999999999904e+00 +8.2843196548785460e+00 +0.0000000000000000e+00 +4.9499999376468695e+00 -2.7503275571496915e-04 +0.0000000000000000e+00 +9.9999996217849074e-01
4.9999999999999902e+00 +8.2843058336479007e+00 +0.0000000000000000e+00 +4.9999999357365894e+00 -2.7781649559417389e-04 +0.0000000000000000e+00 +9.9999996140899650e-01
5.0499999999999901e+00 +8.2842918732264277e+00 +0.0000000000000000e+00 +5.0499999337876398e+00 -2.8060038895778210e-04 +0.0000000000000000e+00 +9.9999996063170993e-01
5.0999999999999899e+00 +8.2842777736064317e+00 +0.0000000000000000e+00 +5.0999999317996307e+00 -2.8338443670929185e-04 +0.0000000000000000e+00 +9.9999995984662959e-01
5.1499999999999897e+00 +8.2842635347801696e+00 +0.0000000000000000e+00 +5.1499999297721732e+00 -2.8616863973937286e-04 +0.0000000000000000e+00 +9.9999995905375383e-01
5.1999999999999895e+00 +8.2842491567398557e+00 +0.0000000000000000e+00 +5.1999999277048765e+00 -2.8895299892586627e-04 +0.0000000000000000e+00 +9.9999995825308119e-01
5.2499999999999893e+00 +8.2842346394776598e+00 +0.0000000000000000e+00 +5.2499999255973515e+00 -2.9173751513378472e-04 +0.0000000000000000e+00 +9.9999995744461012e-01
5.2999999999999892e+00 +8.2842199829857108e+00 +0.0000000000000000e+00 +5.2999999234492075e+00 -2.9452218921531217e-04 +0.0000000000000000e+00 +9.9999995662833896e-01
5.3499999999999890e+00 +8.2842051872560933e+00 +0.0000000000000000e+00 +5.3499999212600553e+00 -2.9730702200980405e-04 +0.0000000000000000e+00 +9.9999995580426626e-01
5.3999999999999888e+00 +8.2841902522808510e+00 +0.0000000000000000e+00 +5.3999999190295043e+00 -3.0009201434378713e-04 +0.0000000000000000e+00 +9.9999995497239036e-01
5.4499999999999886e+00 +8.2841751780519868e+00 +0.0000000000000000e+00 +5.4499999167571644e+00 -3.0287716703095944e-04 +0.0000000000000000e+00 +9.9999995413270970e-01
5.4999999999999885e+00 +8.2841599645614625e+00 +0.0000000000000000e+00 +5.4999999144426450e+00 -3.0566248087219027e-04 +0.0000000000000000e+00 +9.9999995328522273e-01
5.5499999999999883e+00 +8.2841446118012012e+00 +0.0000000000000000e+00 +5.5499999120855561e+00 -3.0844795665552010e-04 +0.0000000000000000e+00 +9.9999995242992779e-01
5.5999999999999881e+00 +8.2841291197630849e+00 +0.0000000000000000e+00 +5.5999999096855078e+00 -3.1123359515616063e-04 +0.0000000000000000e+00 +9.9999995156682331e-01
5.6499999999999879e+00 +8.2841134884389600e+00 +0.0000000000000000e+00 +5.6499999072421083e+00 -3.1401939713649471e-04 +0.0000000000000000e+00 +9.9999995069590775e-01
5.6999999999999877e+00 +8.2840977178206341e+00 +0.0000000000000000e+00 +5.6999999047549679e+00 -3.1680536334607618e-04 +0.0000000000000000e+00 +9.9999994981717943e-01
5.7499999999999876e+00 +8.2840818078998755e+00 +0.0000000000000000e+00 +5.7499999022236956e+00 -3.1959149452162990e-04 +0.0000000000000000e+00 +9.9999994893063682e-01
5.7999999999999874e+00 +8.2840657586684188e+00 +0.0000000000000000e+00 +5.7999998996479007e+00 -3.2237779138705175e-04 +0.0000000000000000e+00 +9.9999994803627823e-01
5.8499999999999872e+00 +8.2840495701179631e+00 +0.0000000000000000e+00 +5.8499998970271925e+00 -3.2516425465340851e-04 +0.0000000000000000e+00 +9.9999994713410212e-01
5.8999999999999870e+00 +8.2840332422401683e+00 +0.0000000000000000e+00 +5.8999998943611800e+00 -3.2795088501893783e-04 +0.0000000000000000e+00 +9.9999994622410682e-01
