# field on trajectory
# s[mm] rx[mm] ry[mm] rz[mm] bx[T] by[T] bz[T]
0.0000000000000000e+00 +8.5270000000000206e+00 +0.0000000000000000e+00 +0.0000000000000000e+00 -2.6780027965460956e-02 -5.2469980190719523e-01 +5.4290225940298508e-03
5.0000000000000003e-02 +8.5269999309457507e+00 +0.0000000000000000e+00 +4.9999999999936401e-02 -2.6779860418366930e-02 -5.2470142912703355e-01 +5.4296356077311531e-03
1.0000000000000001e-01 +8.5269997237846802e+00 +0.0000000000000000e+00 +9.9999999999491399e-02 -2.6779706314709443e-02 -5.2470340170582175e-01 +5.4302465750499735e-03
1.4999999999999999e-01 +8.5269993785186706e+00 +0.0000000000000000e+00 +1.4999999999828301e-01 -2.6779565682834686e-02 -5.2470571866685545e-01 +5.4308554613281945e-03
2.0000000000000001e-01 +8.5269988951477007e+00 +0.0000000000000000e+00 +1.9999999999593099e-01 -2.6779438551089128e-02 -5.2470837903345791e-01 +5.4314622319077688e-03
2.5000000000000000e-01 +8.5269982736681396e+00 +0.0000000000000000e+00 +2.4999999999205300e-01 -2.6779324947820229e-02 -5.2471138182899346e-01 +5.4320668521308435e-03
2.9999999999999999e-01 +8.5269975140799907e+00 +0.0000000000000000e+00 +2.9999999998626697e-01 -2.6779224901374056e-02 -5.2471472607681613e-01 +5.4326692873392151e-03
3.4999999999999998e-01 +8.5269966163905302e+00 +0.0000000000000000e+00 +3.4999999997819298e-01 -2.6779138440094084e-02 -5.2471841080024584e-01 +5.4332695028740429e-03
4.0000000000000002e-01 +8.5269955805888493e+00 +0.0000000000000000e+00 +3.9999999996744801e-01 -2.6779065592330120e-02 -5.2472243502274285e-01 +5.4338674640777539e-03
4.5000000000000001e-01 +8.5269944066858407e+00 +0.0000000000000000e+00 +4.4999999995365197e-01 -2.6779006386424543e-02 -5.2472679776763165e-01 +5.4344631362910276e-03
5.0000000000000000e-01 +8.5269930946742498e+00 +0.0000000000000000e+00 +4.9999999993642202e-01 -2.6778960850726279e-02 -5.2473149805837704e-01 +5.4350564848557976e-03
5.5000000000000004e-01 +8.5269916445577092e+00 +0.0000000000000000e+00 +5.4999999991537796e-01 -2.6778929013580772e-02 -5.2473653491838324e-01 +5.4356474751130531e-03
5.9999999999999998e-01 +8.5269900563289394e+00 +0.0000000000000000e+00 +5.9999999989013697e-01 -2.6778910903337741e-02 -5.2474190737114468e-01 +5.4362360724044849e-03
6.5000000000000002e-01 +8.5269883299988596e+00 +0.0000000000000000e+00 +6.4999999986031898e-01 -2.6778906548341030e-02 -5.2474761444004414e-01 +5.4368222420702597e-03
6.9999999999999996e-01 +8.5269864655601904e+00 +0.0000000000000000e+00 +6.9999999982554195e-01 -2.6778915976941462e-02 -5.2475365514860417e-01 +5.4374059494517830e-03
7.5000000000000000e-01 +8.5269844630165608e+00 +0.0000000000000000e+00 +7.4999999978542398e-01 -2.6778939217486798e-02 -5.2476002852028658e-01 +5.4379871598894767e-03
8.0000000000000004e-01 +8.5269823223679904e+00 +0.0000000000000000e+00 +7.9999999973958402e-01 -2.6778976298326842e-02 -5.2476673357859160e-01 +5.4385658387238788e-03
8.4999999999999998e-01 +8.5269800436108198e+00 +0.0000000000000000e+00 +8.4999999968764095e-01 -2.6779027247813617e-02 -5.2477376934705877e-01 +5.4391419512956297e-03
9.0000000000000002e-01 +8.5269776267450705e+00 +0.0000000000000000e+00 +8.9999999962921295e-01 -2.6779092094298868e-02 -5.2478113484921607e-01 +5.4397154629449275e-03
9.4999999999999996e-01 +8.5269750717743609e+00 +0.0000000000000000e+00 +9.4999999956391801e-01 -2.6779170866134166e-02 -5.2478882910857927e-01 +5.4402863390114941e-03
1.0000000000000000e+00 +8.5269723786986997e+00 +0.0000000000000000e+00 +9.9999999949137597e-01 -2.6779263591673565e-02 -5.2479685114870367e-01 +5.4408545448351433e-03
1.0500000000000000e+00 +8.5269695475144491e+00 +0.0000000000000000e+00 +1.0499999994111999e+00 -2.6779370299273686e-02 -5.2480519999318165e-01 +5.4414200457557635e-03
1.1000000000000001e+00 +8.5269665782288904e+00 +0.0000000000000000e+00 +1.0999999993230201e+00 -2.6779491017288763e-02 -5.2481387466554452e-01 +5.4419828071122058e-03
1.1499999999999999e+00 +8.5269634708311095e+00 +0.0000000000000000e+00 +1.1499999992264500e+00 -2.6779625774080818e-02 -5.2482287418946094e-01 +5.4425427942444825e-03
1.2000000000000000e+00 +8.5269602253283701e+00 +0.0000000000000000e+00 +1.1999999991210999e+00 -2.6779774598007188e-02 -5.2483219758848743e-01 +5.4430999724910034e-03
1.2500000000000000e+00 +8.5269568417206791e+00 +0.0000000000000000e+00 +1.2499999990065900e+00 -2.6779937517429384e-02 -5.2484184388624244e-01 +5.4436543071904962e-03
1.3000000000000000e+00 +8.5269533200044005e+00 +0.0000000000000000e+00 +1.2999999988825499e+00 -2.6780114560711981e-02 -5.2485181210638354e-01 +5.4442057636817261e-03
1.3500000000000001e+00 +8.5269496601795307e+00 +0.0000000000000000e+00 +1.3499999987485900e+00 -2.6780305756220198e-02 -5.2486210127255373e-01 +5.4447543073029327e-03
1.3999999999999999e+00 +8.5269458622533403e+00 +0.0000000000000000e+00 +1.3999999986043401e+00 -2.6780511132318670e-02 -5.2487271040835903e-01 +5.4452999033915437e-03
1.4500000000000000e+00 +8.5269419262185693e+00 +0.0000000000000000e+00 +1.4499999984494001e+00 -2.6780730717379183e-02 -5.2488363853751729e-01 +5.4458425172858281e-03
1.5000000000000000e+00 +8.5269378520752106e+00 +0.0000000000000000e+00 +1.4999999982833900e+00 -2.6780964539773178e-02 -5.2489488468370837e-01 +5.4463821143232380e-03
1.5500000000000000e+00 +8.5269336398268898e+00 +0.0000000000000000e+00 +1.5499999981059500e+00 -2.6781212627873103e-02 -5.2490644787059837e-01 +5.4469186598406624e-03
1.6000000000000001e+00 +8.5269292894736299e+00 +0.0000000000000000e+00 +1.5999999979166799e+00 -2.6781475010055008e-02 -5.2491832712188968e-01 +5.4474521191749722e-03
1.6499999999999999e+00 +8.5269248010117700e+00 +0.0000000000000000e+00 +1.6499999977152000e+00 -2.6781751714698748e-02 -5.2493052146132257e-01 +5.4479824576630382e-03
1.7000000000000000e+00 +8.5269201744449692e+00 +0.0000000000000000e+00 +1.6999999975011300e+00 -2.6782042770184120e-02 -5.2494302991259667e-01 +5.4485096406408501e-03
1.7500000000000000e+00 +8.5269154097695701e+00 +0.0000000000000000e+00 +1.7499999972740901e+00 -2.6782348204896188e-02 -5.2495585149947410e-01 +5.4490336334446568e-03
1.8000000000000000e+00 +8.5269105069892195e+00 +0.0000000000000000e+00 +1.7999999970336999e+00 -2.6782668047220192e-02 -5.2496898524567681e-01 +5.4495544014098261e-03
1.8500000000000001e+00 +8.5269054661039299e+00 +0.0000000000000000e+00 +1.8499999967795799e+00 -2.6783002325545528e-02 -5.2498243017496293e-01 +5.4500719098716779e-03
1.8999999999999999e+00 +8.5269002871100401e+00 +0.0000000000000000e+00 +1.8999999965113501e+00 -2.6783351068265807e-02 -5.2499618531112680e-01 +5.4505861241654725e-03
1.9500000000000000e+00 +8.5268949700112007e+00 +0.0000000000000000e+00 +1.9499999962286201e+00 -2.6783714303775148e-02 -5.2501024967792254e-01 +5.4510970096255749e-03
2.0000000000000000e+00 +8.5268895148037700e+00 +0.0000000000000000e+00 +1.9999999959310100e+00 -2.6784092060473341e-02 -5.2502462229916458e-01 +5.4516045315865496e-03
2.0499999999999998e+00 +8.5268839213858900e+00 +0.0000000000000000e+00 +2.0499999956181298e+00 -2.6784484366075844e-02 -5.2503930202774451e-01 +5.4521086531274139e-03
2.1000000000000001e+00 +8.5268781896593300e+00 +0.0000000000000000e+00 +2.0999999952895898e+00 -2.6784891245411772e-02 -5.2505428703008894e-01 +5.4526093282757102e-03
2.1499999999999999e+00 +8.5268723196240899e+00 +0.0000000000000000e+00 +2.1499999949449999e+00 -2.6785312722554671e-02 -5.2506957530034271e-01 +5.4531065087884438e-03
2.2000000000000002e+00 +8.5268663112729008e+00 +0.0000000000000000e+00 +2.1999999945839801e+00 -2.6785748821580836e-02 -5.2508516483271073e-01 +5.4536001464229279e-03
2.2500000000000000e+00 +8.5268601646093902e+00 +0.0000000000000000e+00 +2.2499999942061502e+00 -2.6786199566562925e-02 -5.2510105362133286e-01 +5.4540901929353847e-03
2.2999999999999998e+00 +8.5268538796335598e+00 +0.0000000000000000e+00 +2.2999999938111202e+00 -2.6786664981574875e-02 -5.2511723966038326e-01 +5.4545766000820492e-03
2.3500000000000001e+00 +8.5268474563490599e+00 +0.0000000000000000e+00 +2.3499999933985198e+00 -2.6787145090689347e-02 -5.2513372094402055e-01 +5.4550593196186223e-03
2.3999999999999999e+00 +8.5268408947522403e+00 +0.0000000000000000e+00 +2.3999999929679601e+00 -2.6787639917981439e-02 -5.2515049546646408e-01 +5.4555383033011041e-03
2.4500000000000002e+00 +8.5268341948467405e+00 +0.0000000000000000e+00 +2.4499999925190501e+00 -2.6788149487523439e-02 -5.2516756122189079e-01 +5.4560135028846714e-03
2.5000000000000000e+00 +8.5268273566252901e+00 +0.0000000000000000e+00 +2.4999999920514302e+00 -2.6788673823391201e-02 -5.2518491620456320e-01 +5.4564848701250824e-03
2.5499999999999998e+00 +8.5268203800987994e+00 +0.0000000000000000e+00 +2.5499999915646900e+00 -2.6789212949653845e-02 -5.2520255840862684e-01 +5.4569523567764263e-03
2.6000000000000001e+00 +8.5268132652563509e+00 +0.0000000000000000e+00 +2.5999999910584699e+00 -2.6789766890387614e-02 -5.2522048582838743e-01 +5.4574159145942183e-03
2.6499999999999999e+00 +8.5268060121015896e+00 +0.0000000000000000e+00 +2.6499999905323701e+00 -2.6790335669663153e-02 -5.2523869645805865e-01 +5.4578754953325840e-03
2.7000000000000002e+00 +8.5267986206345103e+00 +0.0000000000000000e+00 +2.6999999899860101e+00 -2.6790919311551670e-02 -5.2525718829188717e-01 +5.4583310507456571e-03
2.7500000000000000e+00 +8.5267910908551094e+00 +0.0000000000000000e+00 +2.7499999894190199e+00 -2.6791517840123735e-02 -5.2527595932412952e-01 +5.4587825325873186e-03
2.7999999999999998e+00 +8.5267834227670392e+00 +0.0000000000000000e+00 +2.7999999888310101e+00 -2.6792131279447736e-02 -5.2529500754902436e-01 +5.4592298926108857e-03
2.8500000000000001e+00 +8.5267756163666508e+00 +0.0000000000000000e+00 +2.8499999882215898e+00 -2.6792759653593762e-02 -5.2531433096086932e-01 +5.4596730825699821e-03
2.8999999999999999e+00 +8.5267676716539391e+00 +0.0000000000000000e+00 +2.8999999875903901e+00 -2.6793402986629616e-02 -5.2533392755394559e-01 +5.4601120542176777e-03
2.9500000000000002e+00 +8.5267595886289200e+00 +0.0000000000000000e+00 +2.9499999869370299e+00 -2.6794061302622026e-02 -5.2535379532254134e-01 +5.4605467593067704e-03
3.0000000000000000e+00 +8.5267513672915793e+00 +0.0000000000000000e+00 +2.9999999862611100e+00 -2.6794734625636547e-02 -5.2537393226095297e-01 +5.4609771495897925e-03
3.0499999999999998e+00 +8.5267430076455604e+00 +0.0000000000000000e+00 +3.0499999855622502e+00 -2.6795422979736236e-02 -5.2539433636345934e-01 +5.4614031768187125e-03
3.1000000000000001e+00 +8.5267345096872305e+00 +0.0000000000000000e+00 +3.0999999848400801e+00 -2.6796126388985316e-02 -5.2541500562439714e-01 +5.4618247927458001e-03
3.1499999999999999e+00 +8.5267258734165807e+00 +0.0000000000000000e+00 +3.1499999840942201e+00 -2.6796844877445353e-02 -5.2543593803808553e-01 +5.4622419491227687e-03
3.2000000000000002e+00 +8.5267170988336094e+00 +0.0000000000000000e+00 +3.1999999833242700e+00 -2.6797578469176374e-02 -5.2545713159885121e-01 +5.4626545977010518e-03
3.2500000000000000e+00 +8.5267081859419704e+00 +0.0000000000000000e+00 +3.2499999825298600e+00 -2.6798327188235539e-02 -5.2547858430100192e-01 +5.4630626902315302e-03
3.2999999999999998e+00 +8.5266991347380099e+00 +0.0000000000000000e+00 +3.2999999817106000e+00 -2.6799091058680866e-02 -5.2550029413890387e-01 +5.4634661784653746e-03
3.3500000000000001e+00 +8.5266899452181004e+00 +0.0000000000000000e+00 +3.3499999808661101e+00 -2.6799870104568607e-02 -5.2552225910692896e-01 +5.4638650141534727e-03
3.3999999999999999e+00 +8.5266806173895002e+00 +0.0000000000000000e+00 +3.3999999799960099e+00 -2.6800664349949335e-02 -5.2554447719938191e-01 +5.4642591490455927e-03
3.4500000000000002e+00 +8.5266711512522306e+00 +0.0000000000000000e+00 +3.4499999790999101e+00 -2.6801473818874193e-02 -5.2556694641062252e-01 +5.4646485348917896e-03
3.5000000000000000e+00 +8.5266615468026394e+00 +0.0000000000000000e+00 +3.4999999781774398e+00 -2.6802298535393627e-02 -5.2558966473504354e-01 +5.4650331234421187e-03
3.5499999999999998e+00 +8.5266518040407409e+00 +0.0000000000000000e+00 +3.5499999772282100e+00 -2.6803138523554610e-02 -5.2561263016701854e-01 +5.4654128664460705e-03
3.6000000000000001e+00 +8.5266419229665207e+00 +0.0000000000000000e+00 +3.5999999762518402e+00 -2.6803993807401966e-02 -5.2563584070092761e-01 +5.4657877156528588e-03
3.6499999999999999e+00 +8.5266319035799807e+00 +0.0000000000000000e+00 +3.6499999752479400e+00 -2.6804864410978173e-02 -5.2565929433115621e-01 +5.4661576228114137e-03
3.6999999999999900e+00 +8.5266217458847695e+00 +0.0000000000000000e+00 +3.6999999742161398e+00 -2.6805750358322097e-02 -5.2568298905207056e-01 +5.4665225396700982e-03
3.7499999999999898e+00 +8.5266114498736005e+00 +0.0000000000000000e+00 +3.7499999731560498e+00 -2.6806651673473965e-02 -5.2570692285811904e-01 +5.4668824179778435e-03
3.7999999999999901e+00 +8.5266010155537497e+00 +0.0000000000000000e+00 +3.7999999720672801e+00 -2.6807568380466301e-02 -5.2573109374365434e-01 +5.4672372094821597e-03
3.8499999999999899e+00 +8.5265904429179500e+00 +0.0000000000000000e+00 +3.8499999709494599e+00 -2.6808500503334109e-02 -5.2575549970313573e-01 +5.4675868659314099e-03
3.8999999999999901e+00 +8.5265797319771099e+00 +0.0000000000000000e+00 +3.8999999698022001e+00 -2.6809448066103296e-02 -5.2578013873090101e-01 +5.4679313390722491e-03
3.9499999999999900e+00 +8.5265688827203103e+00 +0.0000000000000000e+00 +3.9499999686251202e+00 -2.6810411092804610e-02 -5.2580500882144621e-01 +5.4682705806527463e-03
3.9999999999999898e+00 +8.5265578951548395e+00 +0.0000000000000000e+00 +3.9999999674178399e+00 -2.6811389607459477e-02 -5.2583010796914453e-01 +5.4686045424192651e-03
4.0499999999999901e+00 +8.5265467692734092e+00 +0.0000000000000000e+00 +4.0499999661799704e+00 -2.6812383580020423e-02 -5.2585543404584323e-01 +5.4689331881243647e-03
4.0999999999999899e+00 +8.5265355050833005e+00 +0.0000000000000000e+00 +4.0999999649111301e+00 -2.6813392764148430e-02 -5.2588098443275777e-01 +5.4692565295406384e-03
4.1499999999999897e+00 +8.5265241025808791e+00 +0.0000000000000000e+00 +4.1499999636109504e+00 -2.6814416859437477e-02 -5.2590675638854345e-01 +5.4695745904465689e-03
4.1999999999999904e+00 +8.5265125617697795e+00 +0.0000000000000000e+00 +4.1999999622790298e+00 -2.6815455565479832e-02 -5.2593274717180105e-01 +5.4698873946197090e-03
4.2499999999999902e+00 +8.5265008826427202e+00 +0.0000000000000000e+00 +4.2499999609149901e+00 -2.6816508581872414e-02 -5.2595895404120396e-01 +5.4701949658380973e-03
4.2999999999999901e+00 +8.5264890652069898e+00 +0.0000000000000000e+00 +4.2999999595184599e+00 -2.6817575608207928e-02 -5.2598537425531944e-01 +5.4704973278782675e-03
4.3499999999999899e+00 +8.5264771094589396e+00 +0.0000000000000000e+00 +4.3499999580890396e+00 -2.6818656344083806e-02 -5.2601200507278667e-01 +5.4707945045172372e-03
4.3999999999999897e+00 +8.5264650153985695e+00 +0.0000000000000000e+00 +4.3999999566263703e+00 -2.6819750489097134e-02 -5.2603884375221321e-01 +5.4710865195313520e-03
4.4499999999999904e+00 +8.5264527830295300e+00 +0.0000000000000000e+00 +4.4499999551300400e+00 -2.6820857742844709e-02 -5.2606588755217698e-01 +5.4713733966963102e-03
4.4999999999999902e+00 +8.5264404123481707e+00 +0.0000000000000000e+00 +4.4999999535996897e+00 -2.6821977804926900e-02 -5.2609313373129984e-01 +5.4716551597879873e-03
4.5499999999999901e+00 +8.5264279033544899e+00 +0.0000000000000000e+00 +4.5499999520349199e+00 -2.6823110374943813e-02 -5.2612057954817337e-01 +5.4719318325815976e-03
4.5999999999999899e+00 +8.5264152560448601e+00 +0.0000000000000000e+00 +4.5999999504353601e+00 -2.6824255152497905e-02 -5.2614822226140623e-01 +5.4722034388522420e-03
4.6499999999999897e+00 +8.5264024704301793e+00 +0.0000000000000000e+00 +4.6499999488006196e+00 -2.6825411837187646e-02 -5.2617605912949994e-01 +5.4724700023735043e-03
4.6999999999999904e+00 +8.5263895464995603e+00 +0.0000000000000000e+00 +4.6999999471303298e+00 -2.6826580128620273e-02 -5.2620408741110025e-01 +5.4727315469202762e-03
4.7499999999999902e+00 +8.5263764842602505e+00 +0.0000000000000000e+00 +4.7499999454240900e+00 -2.6827759726397844e-02 -5.2623230436471824e-01 +5.4729880962656316e-03
4.7999999999999901e+00 +8.5263632837050007e+00 +0.0000000000000000e+00 +4.7999999436815299e+00 -2.6828950330128720e-02 -5.2626070724895946e-01 +5.4732396741833866e-03
4.8499999999999899e+00 +8.5263499448447000e+00 +0.0000000000000000e+00 +4.8499999419022597e+00 -2.6830151639416079e-02 -5.2628929332229257e-01 +5.4734863044455318e-03
4.8999999999999897e+00 +8.5263364676684397e+00 +0.0000000000000000e+00 +4.8999999400859000e+00 -2.6831363353872061e-02 -5.2631805984333058e-01 +5.4737280108253499e-03
4.9499999999999904e+00 +8.5263228521798702e+00 +0.0000000000000000e+00 +4.9499999382320699e+00 -2.6832585173104984e-02 -5.2634700407057544e-01 +5.4739648170945921e-03
4.9999999999999902e+00 +8.5263090983826295e+00 +0.0000000000000000e+00 +4.9999999363403900e+00 -2.6833816796724502e-02 -5.2637612326251959e-01 +5.4741967470245912e-03
5.0499999999999901e+00 +8.5262952059529198e+00 +0.0000000000000000e+00 +5.0499999344103799e+00 -2.6835057924457034e-02 -5.2640541467993374e-01 +5.4744238244118157e-03
5.0999999999999899e+00 +8.5262811745706095e+00 +0.0000000000000000e+00 +5.0999999324415599e+00 -2.6836308256029218e-02 -5.2643487558355451e-01 +5.4746460730520528e-03
5.1499999999999897e+00 +8.5262670042357094e+00 +0.0000000000000000e+00 +5.1499999304335597e+00 -2.6837567491056299e-02 -5.2646450323187177e-01 +5.4748635167156945e-03
5.1999999999999904e+00 +8.5262526949518396e+00 +0.0000000000000000e+00 +5.1999999283859903e+00 -2.6838835329153717e-02 -5.2649429488333854e-01 +5.4750761791724127e-03
5.2499999999999902e+00 +8.5262382467153692e+00 +0.0000000000000000e+00 +5.2499999262984600e+00 -2.6840111469940958e-02 -5.2652424779644758e-01 +5.4752840841920340e-03
5.2999999999999901e+00 +8.5262236595299292e+00 +0.0000000000000000e+00 +5.2999999241705797e+00 -2.6841395613036462e-02 -5.2655435922962857e-01 +5.4754872555433766e-03
5.3499999999999899e+00 +8.5262089333882596e+00 +0.0000000000000000e+00 +5.3499999220019703e+00 -2.6842687458064091e-02 -5.2658462644137560e-01 +5.4756857169956877e-03
5.3999999999999897e+00 +8.5261940682976292e+00 +0.0000000000000000e+00 +5.3999999197922497e+00 -2.6843986704644197e-02 -5.2661504669006820e-01 +5.4758794923166296e-03
5.4499999999999904e+00 +8.5261790642507496e+00 +0.0000000000000000e+00 +5.4499999175410201e+00 -2.6845293052403837e-02 -5.2664561723417480e-01 +5.4760686052745663e-03
5.4999999999999902e+00 +8.5261639212585596e+00 +0.0000000000000000e+00 +5.4999999152479004e+00 -2.6846606200965361e-02 -5.2667633533202285e-01 +5.4762530796360030e-03
5.5499999999999901e+00 +8.5261486393137602e+00 +0.0000000000000000e+00 +5.5499999129125097e+00 -2.6847925849959212e-02 -5.2670719824205436e-01 +5.4764329391684121e-03
5.5999999999999899e+00 +8.5261332184127205e+00 +0.0000000000000000e+00 +5.5999999105344500e+00 -2.6849251699016263e-02 -5.2673820322267062e-01 +5.4766082076385470e-03
5.6499999999999897e+00 +8.5261176585627307e+00 +0.0000000000000000e+00 +5.6499999081133403e+00 -2.6850583447765312e-02 -5.2676934753218274e-01 +5.4767789088118364e-03
5.6999999999999904e+00 +8.5261019597637606e+00 +0.0000000000000000e+00 +5.6999999056488004e+00 -2.6851920795839507e-02 -5.2680062842893738e-01 +5.4769450664538437e-03
5.7499999999999902e+00 +8.5260861220122006e+00 +0.0000000000000000e+00 +5.7499999031404396e+00 -2.6853263442875093e-02 -5.2683204317129173e-01 +5.4771067043299431e-03
5.7999999999999901e+00 +8.5260701453080401e+00 +0.0000000000000000e+00 +5.7999999005878804e+00 -2.6854611088508944e-02 -5.2686358901756192e-01 +5.4772638462047751e-03
5.8499999999999899e+00 +8.5260540296512808e+00 +0.0000000000000000e+00 +5.8499998979907204e+00 -2.6855963432379747e-02 -5.2689526322604863e-01 +5.4774165158425134e-03
5.8999999999999897e+00 +8.5260377750455500e+00 +0.0000000000000000e+00 +5.8999998953485804e+00 -2.6857320174126870e-02 -5.2692706305500925e-01 +5.4775647370065720e-03
