# multipoles
# s[mm] polynom_b[n=0][T/m^n] polynom_b[n=1][T/m^n] polynom_b[n=2][T/m^n] polynom_b[n=3][T/m^n] polynom_b[n=4][T/m^n] polynom_b[n=5][T/m^n] polynom_b[n=6][T/m^n] 
+0.0000000000000000e+00 -5.7981721210932291e-01 +7.5702335938425129e+00 +6.4237625153465192e+00 -3.5027544670418564e+01 -7.8392136550109763e+03 -2.1534841950146429e+05 +5.1732190433543205e+07 
-5.0000000000000003e-02 -5.7981868484559895e-01 +7.5702443071621968e+00 +6.4270083734450871e+00 -3.5117472394594749e+01 -7.8994007437646396e+03 -2.1435839714748674e+05 +5.2037341254398488e+07 
-1.0000000000000001e-01 -5.7982056202841570e-01 +7.5702761889615671e+00 +6.4299917085942484e+00 -3.5206614469348615e+01 -7.9634692545451398e+03 -2.1332809540218581e+05 +5.2361742142188475e+07 
-1.5000000000000002e-01 -5.7982284275775642e-01 +7.5703292002429459e+00 +6.4327031539843071e+00 -3.5294913613516073e+01 -8.0311758724634319e+03 -2.1225884908222067e+05 +5.2704037479708038e+07 
-2.0000000000000001e-01 -5.7982552613366745e-01 +7.5704033020072696e+00 +6.4351333505342723e+00 -3.5382312439078682e+01 -8.1022774870094718e+03 -2.1115199397075185e+05 +5.3062873010730818e+07 
-2.5000000000000000e-01 -5.7982861125618879e-01 +7.5704984552586616e+00 +6.4372729351994424e+00 -3.5468753691012694e+01 -8.1765308858423177e+03 -2.1000886461901222e+05 +5.3436893810153536e+07 
-2.9999999999999999e-01 -5.7983209722539064e-01 +7.5706146209984837e+00 +6.4391125465957764e+00 -3.5554179956882187e+01 -8.2536928959596189e+03 -2.0883079693654302e+05 +5.3824745196308017e+07 
-3.4999999999999998e-01 -5.7983598314135365e-01 +7.5707517602318770e+00 +6.4406428225814309e+00 -3.5638533959490644e+01 -8.3335203294486219e+03 -2.0761912567714151e+05 +5.4225072405402534e+07 
-3.9999999999999997e-01 -5.7984026810418166e-01 +7.5709098339617382e+00 +6.4418544015583432e+00 -3.5721758299422582e+01 -8.4157700121581438e+03 -2.0637518659693695e+05 +5.4636520764046349e+07 
-4.4999999999999996e-01 -5.7984495121399782e-01 +7.5710888031951473e+00 +6.4427379222509726e+00 -3.5803795724703100e+01 -8.5001987760356988e+03 -2.0510031423023125e+05 +5.5057735626901232e+07 
-4.9999999999999994e-01 -5.7985003157093362e-01 +7.5712886289361307e+00 +6.4432840212235680e+00 -3.5884588826798321e+01 -8.5865633942231725e+03 -2.0379584439637998e+05 +5.5487361950317211e+07 
-5.4999999999999993e-01 -5.7985550827514321e-01 +7.5715092721903998e+00 +6.4434833367187148e+00 -3.5964080252609129e+01 -8.6746206897004486e+03 -2.0246311240999337e+05 +5.5924045041458137e+07 
-5.9999999999999998e-01 -5.7986138042680324e-01 +7.5717506939635513e+00 +6.4433265071019861e+00 -3.6042212594693304e+01 -8.7641274838809113e+03 -2.0110345411568441e+05 +5.6366430178326905e+07 
-6.5000000000000002e-01 -5.7986764712611016e-01 +7.5720128552645125e+00 +6.4428041717160527e+00 -3.6118928592689208e+01 -8.8548406316463042e+03 -1.9971820398806789e+05 +5.6813162891954705e+07 
-7.0000000000000007e-01 -5.7987430747326862e-01 +7.5722957171003626e+00 +6.4419069674440683e+00 -3.6194170845209555e+01 -8.9465169118016911e+03 -1.9830869781967151e+05 +5.7262888160144806e+07 
-7.5000000000000011e-01 -5.7988136056850081e-01 +7.5725992404794669e+00 +6.4406255320963970e+00 -3.6267882002132083e+01 -9.0389131389355061e+03 -1.9687627087837120e+05 +5.7714251242486790e+07 
-8.0000000000000016e-01 -5.7988880551205546e-01 +7.5729233864116550e+00 +6.4389505040792718e+00 -3.6340004743656515e+01 -9.1317861338094262e+03 -1.9542225819149052e+05 +5.8165897403291546e+07 
-8.5000000000000020e-01 -5.7989664140419006e-01 +7.5732681159050985e+00 +6.4368725208192883e+00 -3.6410481651035148e+01 -9.2248926973669586e+03 -1.9394799561469661e+05 +5.8616471796807356e+07 
-9.0000000000000024e-01 -5.7990486734519153e-01 +7.5736333899711061e+00 +6.4343822219274527e+00 -3.6479255417551727e+01 -9.3179896895511356e+03 -1.9245481804839615e+05 +5.9064619975417562e+07 
-9.5000000000000029e-01 -5.7991348243534901e-01 +7.5740191696216463e+00 +6.4314702439297022e+00 -3.6546268733495452e+01 -9.4108338815777861e+03 -1.9094406043227631e+05 +5.9508986869319990e+07 
-1.0000000000000002e+00 -5.7992248577497885e-01 +7.5744254158694426e+00 +6.4281272252757242e+00 -3.6611464297217374e+01 -9.5031821023558296e+03 -1.8941705763244967e+05 +5.9948217821684651e+07 
-1.0500000000000003e+00 -5.7993187646442257e-01 +7.5748520897237475e+00 +6.4243438058965134e+00 -3.6674784637391888e+01 -9.5947912177023954e+03 -1.8787514591292295e+05 +6.0380958412421636e+07 
-1.1000000000000003e+00 -5.7994165360401495e-01 +7.5752991522020112e+00 +6.4201106213208394e+00 -3.6736172600784357e+01 -9.6854179767522073e+03 -1.8631965889439400e+05 +6.0805853440382004e+07 
-1.1500000000000004e+00 -5.7995181629411796e-01 +7.5757665643170240e+00 +6.4154183090827903e+00 -3.6795570807033570e+01 -9.7748191824724054e+03 -1.8475193211922504e+05 +6.1221548067220122e+07 
-1.2000000000000004e+00 -5.7996236363512421e-01 +7.5762542870836409e+00 +6.4102575085824762e+00 -3.6852921944353810e+01 -9.8627516856657912e+03 -1.8317330052129022e+05 +6.1626687768167861e+07 
-1.2500000000000004e+00 -5.7997329472743719e-01 +7.5767622815199243e+00 +6.4046188586294468e+00 -3.6908168814044636e+01 -9.9489723231857715e+03 -1.8158509808872914e+05 +6.2019917928767808e+07 
-1.3000000000000005e+00 -5.7998460867146528e-01 +7.5772905086421298e+00 +6.3984929953998018e+00 -3.6961254106430864e+01 -1.0033237859534112e+04 -1.7998865977613395e+05 +6.2399883444838159e+07 
-1.3500000000000005e+00 -5.7999630456764573e-01 +7.5778389294674566e+00 +6.3918705576939940e+00 -3.7012120537987656e+01 -1.0115305133257707e+04 -1.7838532027680948e+05 +6.2765229722835317e+07 
-1.4000000000000006e+00 -5.8000838151643030e-01 +7.5784075050151056e+00 +6.3847421836074583e+00 -3.7060710879773218e+01 -1.0194930960424508e+04 -1.7677641385255719e+05 +6.3114602001552165e+07 
-1.4500000000000006e+00 -5.8002083861828369e-01 +7.5789961963047219e+00 +6.3770985103539406e+00 -3.7106967901808652e+01 -1.0271872135373331e+04 -1.7516327476226882e+05 +6.3446645386356853e+07 
-1.5000000000000007e+00 -5.8003367497369207e-01 +7.5796049643564842e+00 +6.3689301764365673e+00 -3.7150834354102841e+01 -1.0345885488003341e+04 -1.7354723750881539e+05 +6.3760005221155830e+07 
-1.5500000000000007e+00 -5.8004688968315588e-01 +7.5802337701960463e+00 +6.3602278192880801e+00 -3.7192253218683547e+01 -1.0416727814402895e+04 -1.7192963456624880e+05 +6.4053326604115672e+07 
-1.6000000000000008e+00 -5.8006048184719294e-01 +7.5808825748412447e+00 +6.3509820768839553e+00 -3.7231167109154711e+01 -1.0484155929881310e+04 -1.7031180153729458e+05 +6.4325254780985586e+07 
-1.6500000000000008e+00 -5.8007445056634677e-01 +7.5815513393188310e+00 +6.3411835886479482e+00 -3.7267518992573365e+01 -1.0547926688163827e+04 -1.6869507109492595e+05 +6.4574435255403087e+07 
-1.7000000000000008e+00 -5.8008879494114685e-01 +7.5822400246522665e+00 +6.3308229884825211e+00 -3.7301251678412420e+01 -1.0607796792087634e+04 -1.6708077719922774e+05 +6.4799512504512295e+07 
-1.7500000000000009e+00 -5.8010351407218252e-01 +7.5829485918692257e+00 +6.3198909182650649e+00 -3.7332308123680342e+01 -1.0663523162388699e+04 -1.6547025262735880e+05 +6.4999132486168735e+07 
-1.8000000000000009e+00 -5.8011860706002283e-01 +7.5836770019940580e+00 +6.3083780130502101e+00 -3.7360631131803032e+01 -1.0714862534630631e+04 -1.6386483139480159e+05 +6.5171939907636926e+07 
-1.8500000000000010e+00 -5.8013407300527775e-01 +7.5844252160577907e+00 +6.2962749120638097e+00 -3.7386163750747976e+01 -1.0761571752148080e+04 -1.6226584555458155e+05 +6.5316580181139424e+07 
-1.9000000000000010e+00 -5.8014991100856728e-01 +7.5851931950881522e+00 +6.2835722539659695e+00 -3.7408848881931647e+01 -1.0803407652976759e+04 -1.6067462832404021e+05 +6.5431698726905756e+07 
-1.9500000000000011e+00 -5.8016612017050395e-01 +7.5859809001155707e+00 +6.2702606726646355e+00 -3.7428629497662087e+01 -1.0840126937851515e+04 -1.5909251241717796e+05 +6.5515940000390828e+07 
-2.0000000000000009e+00 -5.8018269959176072e-01 +7.5867882921716028e+00 +6.2563308099119235e+00 -3.7445448616521503e+01 -1.0871486520469918e+04 -1.5752083008909287e+05 +6.5567949902014107e+07 
-2.0500000000000007e+00 -5.8019964814450586e-01 +7.5876153137512956e+00 +6.2417765100392248e+00 -3.7459251620110308e+01 -1.0897306830398140e+04 -1.5596074339292003e+05 +6.5586718712436676e+07 
-2.1000000000000005e+00 -5.8021696378705834e-01 +7.5884618262617431e+00 +6.2266049832402537e+00 -3.7470006724993127e+01 -1.0917663303334521e+04 -1.5441258877173637e+05 +6.5572616320597962e+07 
-2.1500000000000004e+00 -5.8023464424934112e-01 +7.5893276691188323e+00 +6.2108269329623162e+00 -3.7477692738266377e+01 -1.0932695394021270e+04 -1.5287645414586662e+05 +6.5526358251247399e+07 
-2.2000000000000002e+00 -5.8025268726126478e-01 +7.5902126817310815e+00 +6.1944530580642629e+00 -3.7482288130893032e+01 -1.0942542428839932e+04 -1.5135243028569777e+05 +6.5448659142138027e+07 
-2.2500000000000000e+00 -5.8027109055276738e-01 +7.5911167035139338e+00 +6.1774940600713988e+00 -3.7483771672495813e+01 -1.0947343810557330e+04 -1.4984060537644470e+05 +6.5340234168626226e+07 
-2.2999999999999998e+00 -5.8028985185378812e-01 +7.5920395738771136e+00 +6.1599606384148746e+00 -3.7482121865171031e+01 -1.0947238882863505e+04 -1.4834106985814509e+05 +6.5201798094151169e+07 
-2.3499999999999996e+00 -5.8030896889428951e-01 +7.5929811322355913e+00 +6.1418634946525659e+00 -3.7477317414945233e+01 -1.0942367049748982e+04 -1.4685391245378178e+05 +6.5034066101523429e+07 
-2.3999999999999995e+00 -5.8032843940425394e-01 +7.5939412180017429e+00 +6.1232133310253447e+00 -3.7469336904636222e+01 -1.0932867726547340e+04 -1.4537922290563426e+05 +6.4837753421233974e+07 
-2.4499999999999993e+00 -5.8034826111364579e-01 +7.5949196705887205e+00 +6.1040208455753016e+00 -3.7458158933181558e+01 -1.0918880225841709e+04 -1.4391709080633149e+05 +6.4613574629868269e+07 
-2.4999999999999991e+00 -5.8036843175246711e-01 +7.5959163294126446e+00 +6.0842967400270220e+00 -3.7443762225559418e+01 -1.0900543952568481e+04 -1.4246760462287345e+05 +6.4362244902565531e+07 
-2.5499999999999989e+00 -5.8038894905072858e-01 +7.5969310338858591e+00 +6.0640517159589971e+00 -3.7426125307026062e+01 -1.0877998310477436e+04 -1.4103085457494634e+05 +6.4084479415367343e+07 
-2.5999999999999988e+00 -5.8040981073843778e-01 +7.5979636234222570e+00 +6.0432964725717113e+00 -3.7405226774295578e+01 -1.0851382640025295e+04 -1.3960693018810838e+05 +6.3780992918914959e+07 
-2.6499999999999986e+00 -5.8043101454561663e-01 +7.5990139374366787e+00 +6.0220417090377181e+00 -3.7381045255312600e+01 -1.0820836275393900e+04 -1.3819592069729645e+05 +6.3452500099985547e+07 
-2.6999999999999984e+00 -5.8045255820232700e-01 +7.6000818153458916e+00 +6.0002981302656622e+00 -3.7353559435629556e+01 -1.0786498714135310e+04 -1.3679791487907927e+05 +6.3099716784388185e+07 
-2.7499999999999982e+00 -5.8047443943859434e-01 +7.6011670965609763e+00 +5.9780764327568034e+00 -3.7322747750321483e+01 -1.0748509221835688e+04 -1.3541300357340256e+05 +6.2723357206356779e+07 
-2.7999999999999980e+00 -5.8049665598449329e-01 +7.6022696204993885e+00 +5.9553873195088789e+00 -3.7288588896893529e+01 -1.0707007239843555e+04 -1.3404127538810050e+05 +6.2324136793125249e+07 
-2.8499999999999979e+00 -5.8051920557007619e-01 +7.6033892265771890e+00 +5.9322414882703010e+00 -3.7251061500118020e+01 -1.0662132069759233e+04 -1.3268281952455346e+05 +6.1902770030813232e+07 
-2.8999999999999977e+00 -5.8054208592544798e-01 +7.6045257542059890e+00 +5.9086496438436491e+00 -3.7210143987817467e+01 -1.0614023201635579e+04 -1.3133772680565758e+05 +6.1459972674889557e+07 
-2.9499999999999975e+00 -5.8056529478066932e-01 +7.6056790428049847e+00 +5.8846224820749740e+00 -3.7165815100739778e+01 -1.0562819887573867e+04 -1.3000608540473126e+05 +6.0996458883815303e+07 
-2.9999999999999973e+00 -5.8058882986586335e-01 +7.6068489317864385e+00 +5.8601707078526388e+00 -3.7118053269642253e+01 -1.0508661622605259e+04 -1.2868798608055206e+05 +6.0512944455717884e+07 
-3.0499999999999972e+00 -5.8061268891111506e-01 +7.6080352605656598e+00 +5.8353050173323133e+00 -3.7066837061393990e+01 -1.0451687660540185e+04 -1.2738351837118405e+05 +6.0010143533970363e+07 
-3.0999999999999970e+00 -5.8063686964656369e-01 +7.6092378685590560e+00 +5.8100361152926823e+00 -3.7012145060163597e+01 -1.0392037496888865e+04 -1.2609277172672345e+05 +5.9488771931700476e+07 
-3.1499999999999968e+00 -5.8066136980230532e-01 +7.6104565951805956e+00 +5.7843746969281513e+00 -3.6953955752981230e+01 -1.0329850362288000e+04 -1.2481583632216199e+05 +5.8949543646245852e+07 
-3.1999999999999966e+00 -5.8068618710850561e-01 +7.6116912798453251e+00 +5.7583314684556326e+00 -3.6892247664156457e+01 -1.0265265789405770e+04 -1.2355280198730089e+05 +5.8393174734798841e+07 
-3.2499999999999964e+00 -5.8071131929528719e-01 +7.6129417619688908e+00 +5.7319171268740838e+00 -3.6826999327120618e+01 -1.0198423060319614e+04 -1.2230375849037645e+05 +5.7820379551568687e+07 
-3.2999999999999963e+00 -5.8073676409280595e-01 +7.6142078809647451e+00 +5.7051423735053026e+00 -3.6758189183288984e+01 -1.0129461572376384e+04 -1.2106879631256891e+05 +5.7231873225070924e+07 
-3.3499999999999961e+00 -5.8076251923121469e-01 +7.6154894762486309e+00 +5.6780179079835227e+00 -3.6685795773840532e+01 -1.0058520680236603e+04 -1.1984800501856675e+05 +5.6628370605452761e+07 
-3.3999999999999959e+00 -5.8078858244067988e-01 +7.6167863872323824e+00 +5.6505544308821207e+00 -3.6609797449253243e+01 -9.9857397646777499e+03 -1.1864147582279252e+05 +5.6010586724070609e+07 
-3.4499999999999957e+00 -5.8081495145138018e-01 +7.6180984533328573e+00 +5.6227626434658582e+00 -3.6530172779940223e+01 -9.9112582215950770e+03 -1.1744929802578206e+05 +5.5379236696287021e+07 
-3.4999999999999956e+00 -5.8084162399348749e-01 +7.6194255139633214e+00 +5.5946532448857846e+00 -3.6446900176683300e+01 -9.8352153937467774e+03 -1.1627156222096187e+05 +5.4735035295769617e+07 
-3.5499999999999954e+00 -5.8086859779719824e-01 +7.6207674085359756e+00 +5.5662369370721061e+00 -3.6359958007741248e+01 -9.7577506974186836e+03 -1.1510835930839303e+05 +5.4078697784935780e+07 
-3.5999999999999952e+00 -5.8089587059269499e-01 +7.6221239764646800e+00 +5.5375244185096628e+00 -3.6269324695912566e+01 -9.6790034577010611e+03 -1.1395977973925955e+05 +5.3410938818939224e+07 
-3.6499999999999950e+00 -5.8092344011018737e-01 +7.6234950571628071e+00 +5.5085263911093030e+00 -3.6174978650687045e+01 -9.5991130913100023e+03 -1.1282591399894733e+05 +5.2732473667253599e+07 
-3.6999999999999948e+00 -5.8095130407987616e-01 +7.6248804900411455e+00 +5.4792535541124883e+00 -3.6076898159382566e+01 -9.5182189409307921e+03 -1.1170685359505081e+05 +5.2044017089794941e+07 
-3.7499999999999947e+00 -5.8097946023197311e-01 +7.6262801145150982e+00 +5.4497166079086572e+00 -3.5975061717086440e+01 -9.4364603842675660e+03 -1.1060268820226679e+05 +5.1346284098579392e+07 
-3.7999999999999945e+00 -5.8100790629669585e-01 +7.6276937699936544e+00 +5.4199262526850873e+00 -3.5869447528150552e+01 -9.3539767936955213e+03 -1.0951350994976326e+05 +5.0639989670689262e+07 
-3.8499999999999943e+00 -5.8103664000427457e-01 +7.6291212958882326e+00 +5.3898931897935061e+00 -3.5760033914830046e+01 -9.2709075702753325e+03 -1.0843940988403567e+05 +4.9925848964415461e+07 
-3.8999999999999941e+00 -5.8106565908492958e-01 +7.6305625316107060e+00 +5.3596281179103160e+00 -3.5646799200441961e+01 -9.1873920458975863e+03 -1.0738047906441701e+05 +4.9204576684610516e+07 
-3.9499999999999940e+00 -5.8109496126889881e-01 +7.6320173165703045e+00 +5.3291417378894401e+00 -3.5529721624148031e+01 -9.1035696078464625e+03 -1.0633680910683268e+05 +4.8476887892437331e+07 
-3.9999999999999938e+00 -5.8112454428642990e-01 +7.6334854901785061e+00 +5.2984447516596296e+00 -3.5408779478837133e+01 -9.0195796778557742e+03 -1.0530849126729269e+05 +4.7743497907416411e+07 
-4.0499999999999936e+00 -5.8115440576101340e-01 +7.6349668858150315e+00 +5.2675469563833186e+00 -3.5284008330499709e+01 -8.9355538846012605e+03 -1.0429518430404810e+05 +4.7005158520352416e+07 
-4.0999999999999934e+00 -5.8118454288943378e-01 +7.6364613068876182e+00 +5.2364549578234199e+00 -3.5155612634748181e+01 -8.8515919532381522e+03 -1.0329555582335268e+05 +4.6262762704791196e+07 
-4.1499999999999932e+00 -5.8121495276184565e-01 +7.6379685478488222e+00 +5.2051746824502070e+00 -3.5023825499366993e+01 -8.7677854284286022e+03 -1.0230821165552294e+05 +4.5517238516681165e+07 
-4.1999999999999931e+00 -5.8124563246840821e-01 +7.6394884031514545e+00 +5.1737120571776911e+00 -3.4888880058577911e+01 -8.6842258647056169e+03 -1.0133175748796434e+05 +4.4769514079513699e+07 
-4.2499999999999929e+00 -5.8127657909927977e-01 +7.6410206672480001e+00 +5.1420730090504012e+00 -3.4751009419594055e+01 -8.6010048270457264e+03 -1.0036479934013332e+05 +4.4020517615675934e+07 
-4.2999999999999927e+00 -5.8130778974462882e-01 +7.6425651345922070e+00 +5.1102634660352964e+00 -3.4610446734238813e+01 -8.5182138960430511e+03 -9.9405942935629369e+04 +4.3271177415742740e+07 
-4.3499999999999925e+00 -5.8133926149461046e-01 +7.6441215996366925e+00 +5.0782893540192955e+00 -3.4467425107007827e+01 -8.4359446033341192e+03 -9.8453794447425957e+04 +4.2522421470816053e+07 
-4.3999999999999924e+00 -5.8137099143938997e-01 +7.6456898568343403e+00 +5.0461566006326324e+00 -3.4322177649620862e+01 -8.3542885244500103e+03 -9.7506960053959003e+04 +4.1775178051581003e+07 
-4.4499999999999922e+00 -5.8140297666913332e-01 +7.6472697006381392e+00 +5.0138711331412358e+00 -3.4174937471995094e+01 -8.2733372236205305e+03 -9.6564046039593159e+04 +4.1030375350861065e+07 
-4.4999999999999920e+00 -5.8143521427399358e-01 +7.6488609255016780e+00 +4.9814388770376166e+00 -3.4025937706422781e+01 -8.1931822203072534e+03 -9.5623658569740364e+04 +4.0288941269172035e+07 
-4.5499999999999918e+00 -5.8146770134414838e-01 +7.6504633258762444e+00 +4.9488657622414172e+00 -3.3875411398416517e+01 -8.1139151536116624e+03 -9.4684404557994654e+04 +3.9551804516736604e+07 
-4.5999999999999917e+00 -5.8150043496975068e-01 +7.6520766962155822e+00 +4.9161577139206676e+00 -3.3723591666647920e+01 -8.0356275310187248e+03 -9.3744890499892557e+04 +3.8819892902353421e+07 
-4.6499999999999915e+00 -5.8153341224096933e-01 +7.6537008309733690e+00 +4.8833206606631547e+00 -3.3570711644932700e+01 -7.9584109535658199e+03 -9.2803722764079052e+04 +3.8094134870638728e+07 
-4.6999999999999913e+00 -5.8156663024797273e-01 +7.6553355246020072e+00 +4.8503605310418374e+00 -3.3417004406755623e+01 -7.8823570233359387e+03 -9.1859508328597483e+04 +3.7375458880082816e+07 
-4.7499999999999911e+00 -5.8160008608091085e-01 +7.6569805715543184e+00 +4.8172832509270727e+00 -3.3262703035935495e+01 -7.8075572698831993e+03 -9.0910854184849959e+04 +3.6664792900726058e+07 
-4.7999999999999909e+00 -5.8163377682994388e-01 +7.6586357662833171e+00 +4.7840947477179565e+00 -3.3108040628591574e+01 -7.7341032598766660e+03 -8.9956367298709840e+04 +3.5963065138770007e+07 
-4.8499999999999908e+00 -5.8166769958523767e-01 +7.6603009032418150e+00 +4.7508009506321685e+00 -3.2953250267939282e+01 -7.6620866103586095e+03 -8.8994654837473703e+04 +3.5271204143263832e+07 
-4.8999999999999906e+00 -5.8170185143694830e-01 +7.6619757768824606e+00 +4.7174077877440999e+00 -3.2798565029359118e+01 -7.5915989123851123e+03 -8.8024324135553514e+04 +3.4590138309938170e+07 
-4.9499999999999904e+00 -5.8173622947521308e-01 +7.6636601816579075e+00 +4.6839211841162873e+00 -3.2644217987436924e+01 -7.5227316716269597e+03 -8.7043982624619937e+04 +3.3920795440605760e+07 
-4.9999999999999902e+00 -5.8177083079020409e-01 +7.6653539120223044e+00 +4.6503470714048571e+00 -3.2490442280600639e+01 -7.4555765702740882e+03 -8.6052237299558168e+04 +3.3264104523603275e+07 
-5.0499999999999901e+00 -5.8180565247205818e-01 +7.6670567624257178e+00 +4.6166913755135264e+00 -3.2337470870851625e+01 -7.3902251364089052e+03 -8.5047696743887645e+04 +3.2620993513711464e+07 
