# multipoles
# s[mm] polynom_b[n=0][T/m^n] polynom_b[n=1][T/m^n] polynom_b[n=2][T/m^n] polynom_b[n=3][T/m^n] polynom_b[n=4][T/m^n] polynom_b[n=5][T/m^n] polynom_b[n=6][T/m^n] 
+0.0000000000000000e+00 -5.5762562535186089e-01 +7.3223037262468527e+00 +4.3390642228697542e+00 -2.7559822390834224e+01 +1.4160268883508759e+04 -1.3328273175172578e+05 -6.8833400957849309e+07 
-5.0000000000000003e-02 -5.5762606970146389e-01 +7.3223632170549626e+00 +4.3357831677202965e+00 -2.8317991234340340e+01 +1.4193113568520726e+04 -1.2838080116902968e+05 -6.8944492720562160e+07 
-1.0000000000000001e-01 -5.5762685010504476e-01 +7.3224406026779842e+00 +4.3323279580699490e+00 -2.9066895564437250e+01 +1.4220025137346349e+04 -1.2347604287730170e+05 -6.9017388337591738e+07 
-1.5000000000000002e-01 -5.5762796583802121e-01 +7.3225358242508287e+00 +4.3286979497230558e+00 -2.9806583396906653e+01 +1.4241114795655478e+04 -1.1856877731640653e+05 -6.9052934739171833e+07 
-2.0000000000000001e-01 -5.5762941617580575e-01 +7.3226488229125968e+00 +4.3248924950540593e+00 -3.0537102866026686e+01 +1.4256493841187186e+04 -1.1365932408772971e+05 -6.9051979476509959e+07 
-2.5000000000000000e-01 -5.5763120039384317e-01 +7.3227795398019913e+00 +4.3209109490308935e+00 -3.1258502088628866e+01 +1.4266273501401134e+04 -1.0874800282019998e+05 -6.9015369625945583e+07 
-2.9999999999999999e-01 -5.5763331776759162e-01 +7.3229279160558649e+00 +4.3167526667766198e+00 -3.1970829068576514e+01 +1.4270564995879120e+04 -1.0383513413648738e+05 -6.8943952199535996e+07 
-3.4999999999999998e-01 -5.5763576757251676e-01 +7.3230938928135378e+00 +4.3124170016671117e+00 -3.2674131887491015e+01 +1.4269479594209673e+04 -9.8921038014037360e+04 -6.8838574558819622e+07 
-3.9999999999999997e-01 -5.5763854908410659e-01 +7.3232774112139198e+00 +4.3079033084981324e+00 -3.3368458587563559e+01 +1.4263128525466091e+04 -9.4006034738212096e+04 -6.8700083785283983e+07 
-4.4999999999999996e-01 -5.5764166157785766e-01 +7.3234784123969918e+00 +4.3032109407471832e+00 -3.4053857221207707e+01 +1.4251623055121234e+04 -8.9090444561369251e+04 -6.8529327211440757e+07 
-4.9999999999999994e-01 -5.5764510432928283e-01 +7.3236968375021663e+00 +4.2983392525412096e+00 -3.4730375805354647e+01 +1.4235074427425552e+04 -8.4174587972640235e+04 -6.8327152014966294e+07 
-5.4999999999999993e-01 -5.5764887661391749e-01 +7.3239326276709207e+00 +4.2932875988263550e+00 -3.5398062410543574e+01 +1.4213593866939744e+04 -7.9258785052406820e+04 -6.8094405248612851e+07 
-5.9999999999999998e-01 -5.5765297770729672e-01 +7.3241857240409232e+00 +4.2880553322517656e+00 -3.6056964930511818e+01 +1.4187292657160846e+04 -7.4343357314884779e+04 -6.7831934354733407e+07 
-6.5000000000000002e-01 -5.5765740688499421e-01 +7.3244560677563753e+00 +4.2826418093655025e+00 -3.6707131503463209e+01 +1.4156281979322086e+04 -6.9428624281211247e+04 -6.7540586098749250e+07 
-7.0000000000000007e-01 -5.5766216342257502e-01 +7.3247435999564656e+00 +4.2770463829530154e+00 -3.7348610035276373e+01 +1.4120673111341834e+04 -6.4514907374681999e+04 -6.7221207880264416e+07 
-7.5000000000000011e-01 -5.5766724659562517e-01 +7.3250482617841541e+00 +4.2712684065803321e+00 -3.7981448572173463e+01 +1.4080577313356498e+04 -5.9602526843448977e+04 -6.6874646994344540e+07 
-8.0000000000000016e-01 -5.5767265567975222e-01 +7.3253699943783817e+00 +4.2653072354893080e+00 -3.8605694972498100e+01 +1.4036105795888487e+04 -5.4691804474922494e+04 -6.6501750385763779e+07 
-8.5000000000000020e-01 -5.5767838995056984e-01 +7.3257087388862345e+00 +4.2591622228136146e+00 -3.9221397398677027e+01 +1.3987369830367883e+04 -4.9783059583560702e+04 -6.6103365425922081e+07 
-9.0000000000000024e-01 -5.5768444868371947e-01 +7.3260644364465906e+00 +4.2528327247395286e+00 -3.9828603663575699e+01 +1.3934480600590690e+04 -4.4876614319251355e+04 -6.5680338877247192e+07 
-9.5000000000000029e-01 -5.5769083115483042e-01 +7.3264370282027320e+00 +4.2463180924215331e+00 -4.0427361745642450e+01 +1.3877549428519649e+04 -3.9972789444696617e+04 -6.5233518444979653e+07 
-1.0000000000000002e+00 -5.5769753663956600e-01 +7.3268264552987867e+00 +4.2396176805755976e+00 -4.1017719621402080e+01 +1.3816687539090179e+04 -3.5071905778863227e+04 -6.4763751177492499e+07 
-1.0500000000000003e+00 -5.5770456441361327e-01 +7.3272326588783834e+00 +4.2327308454228261e+00 -4.1599725247001963e+01 +1.3752006117401821e+04 -3.0174284234035949e+04 -6.4271883857975505e+07 
-1.1000000000000003e+00 -5.5771191375264950e-01 +7.3276555800868373e+00 +4.2256569394424055e+00 -4.2173426610032841e+01 +1.3683616445477939e+04 -2.5280245519624597e+04 -6.3758763910556562e+07 
-1.1500000000000004e+00 -5.5771958393237275e-01 +7.3280951600633841e+00 +4.2183953160877197e+00 -4.2738871444393858e+01 +1.3611629780522029e+04 -2.0390112357472979e+04 -6.3225238598871917e+07 
-1.2000000000000004e+00 -5.5772757422851160e-01 +7.3285513399567606e+00 +4.2109453314726508e+00 -4.3296107848650401e+01 +1.3536157309676337e+04 -1.5504204490539460e+04 -6.2672154719290413e+07 
-1.2500000000000004e+00 -5.5773588391678364e-01 +7.3290240609106956e+00 +4.2033063377831761e+00 -4.3845183698077598e+01 +1.3457310323035745e+04 -1.0622843466783952e+04 -6.2100359757584415e+07 
-1.3000000000000005e+00 -5.5774451227292976e-01 +7.3295132640705019e+00 +4.1954776888221588e+00 -4.4386146922417360e+01 +1.3375200065611245e+04 -5.7463503546488573e+03 -6.1510700885699160e+07 
-1.3500000000000005e+00 -5.5775345857271830e-01 +7.3300188905800177e+00 +4.1874587406053196e+00 -4.4919045363584189e+01 +1.3289937725384283e+04 -8.7504696371528655e+02 -6.0904024905373923e+07 
-1.4000000000000006e+00 -5.5776272209191169e-01 +7.3305408815868329e+00 +4.1792488458399530e+00 -4.5443927005809748e+01 +1.3201634578679641e+04 +3.9907461071482649e+03 -6.0281179211430982e+07 
-1.4500000000000006e+00 -5.5777230210628437e-01 +7.3310791782361102e+00 +4.1708473570974682e+00 -4.5960839716123829e+01 +1.3110401901746631e+04 +8.8507073117302771e+03 -5.9643011183939107e+07 
-1.5000000000000007e+00 -5.5778219789164218e-01 +7.3316337216755736e+00 +4.1622536297483785e+00 -4.6469831463400382e+01 +1.3016350900464766e+04 +1.3704516012010785e+04 -5.8990367749848321e+07 
-1.5500000000000007e+00 -5.5779240872379710e-01 +7.3322044530475488e+00 +4.1534670186131670e+00 -4.6970949951096330e+01 +1.2919592789649556e+04 +1.8551849295262986e+04 -5.8324095876272254e+07 
-1.6000000000000008e+00 -5.5780293387856916e-01 +7.3327913135019864e+00 +4.1444868769403218e+00 -4.7464243217585512e+01 +1.2820238829372958e+04 +2.3392387175400101e+04 -5.7645042845304579e+07 
-1.6500000000000008e+00 -5.5781377263178966e-01 +7.3333942441855156e+00 +4.1353125578946823e+00 -4.7949759117664009e+01 +1.2718400281573420e+04 +2.8225808053368630e+04 -5.6954055952516429e+07 
-1.7000000000000008e+00 -5.5782492425930452e-01 +7.3340131862449827e+00 +4.1259434149732570e+00 -4.8427545522031899e+01 +1.2614188398099932e+04 +3.3051790568332071e+04 -5.6251982422990538e+07 
-1.7500000000000009e+00 -5.5783638803698188e-01 +7.3346480808277317e+00 +4.1163788031577768e+00 -4.8897650296372369e+01 +1.2507714390718967e+04 +3.7870013304467240e+04 -5.5539669209816121e+07 
-1.8000000000000009e+00 -5.5784816324069886e-01 +7.3352988690823349e+00 +4.1066180770297436e+00 -4.9360121347697820e+01 +1.2399089481278683e+04 +4.2680155220062137e+04 -5.4817963335040711e+07 
-1.8500000000000010e+00 -5.5786024914632459e-01 +7.3359654921572606e+00 +4.0966605873101889e+00 -4.9815006575761629e+01 +1.2288424994759209e+04 +4.7481895292933899e+04 -5.4087712511807494e+07 
-1.9000000000000010e+00 -5.5787264502977874e-01 +7.3366478911993003e+00 +4.0865056910470914e+00 -5.0262353782435355e+01 +1.2175832089996969e+04 +5.2274911658060133e+04 -5.3349763350931354e+07 
-1.9500000000000011e+00 -5.5788535016695673e-01 +7.3373460073562811e+00 +4.0761527397287871e+00 -5.0702210811824806e+01 +1.2061422067459314e+04 +5.7058882876259020e+04 -5.2604963389428727e+07 
-2.0000000000000009e+00 -5.5789836383379121e-01 +7.3380597817805713e+00 +4.0656010882743550e+00 -5.1134625671678485e+01 +1.1945306141009576e+04 +6.1833488845887172e+04 -5.1854159600564755e+07 
-2.0500000000000007e+00 -5.5791168509850142e-01 +7.3387891441106419e+00 +4.0548502068034091e+00 -5.1559658254732547e+01 +1.1827585702431266e+04 +6.6598558085977609e+04 -5.1098096345523477e+07 
-2.1000000000000005e+00 -5.5792531219852515e-01 +7.3395339721836814e+00 +4.0439003723897224e+00 -5.1977399965356661e+01 +1.1708322558020687e+04 +7.1354328024500559e+04 -5.0337106985281490e+07 
-2.1500000000000004e+00 -5.5793924316363430e-01 +7.3402941294350068e+00 +4.0327521592785898e+00 -5.2387946061903982e+01 +1.1587568531909061e+04 +7.6101087406760169e+04 -4.9571421769946486e+07 
-2.2000000000000002e+00 -5.5795347602362411e-01 +7.3410694792982047e+00 +4.0214061443169618e+00 -5.2791391721952373e+01 +1.1465375374153196e+04 +8.0839124302656332e+04 -4.8801270432652481e+07 
-2.2500000000000000e+00 -5.5796800880829456e-01 +7.3418598852121502e+00 +4.0098629031048656e+00 -5.3187832317079121e+01 +1.1341794870817566e+04 +8.5568728346112170e+04 -4.8026882958374448e+07 
-2.2999999999999998e+00 -5.5798283954744710e-01 +7.3426652106144177e+00 +3.9981230101410410e+00 -5.3577363175213662e+01 +1.1216878837184262e+04 +9.0290188902909664e+04 -4.7248489533316217e+07 
-2.3499999999999996e+00 -5.5799796627089948e-01 +7.3434853189383880e+00 +3.9861870405977196e+00 -5.3960079418469007e+01 +1.1090679069995203e+04 +9.5003793550620176e+04 -4.6466320211962305e+07 
-2.3999999999999995e+00 -5.5801338700849390e-01 +7.3443200736249743e+00 +3.9740555728326510e+00 -5.4336076480858296e+01 +1.0963247278851326e+04 +9.9709832514334077e+04 -4.5680604461054608e+07 
-2.4499999999999993e+00 -5.5802909979005710e-01 +7.3451693381113046e+00 +3.9617291804497996e+00 -5.4705449625776652e+01 +1.0834635302440698e+04 +1.0440859458441756e+05 -4.4891572620528623e+07 
-2.4999999999999991e+00 -5.5804510264543206e-01 +7.3460329758324017e+00 +3.9492084385740607e+00 -5.5068294023639396e+01 +1.0704894937735471e+04 +1.0910036781056545e+05 -4.4099454750090107e+07 
-2.5499999999999989e+00 -5.5806139360446871e-01 +7.3469108502270082e+00 +3.9364939218803521e+00 -5.5424704985265649e+01 +1.0574077992341978e+04 +1.1378544139278264e+05 -4.3304480972523935e+07 
-2.5999999999999988e+00 -5.5807797069704124e-01 +7.3478028247358331e+00 +3.9235862076536252e+00 -5.5774777885161363e+01 +1.0442236207175139e+04 +1.1846410503159362e+05 -4.2506880977942735e+07 
-2.6499999999999986e+00 -5.5809483195301823e-01 +7.3487087627962939e+00 +3.9104858712183419e+00 -5.6118607968416498e+01 +1.0309421368615949e+04 +1.2313664741905571e+05 -4.1706884734275512e+07 
-2.6999999999999984e+00 -5.5811197540227320e-01 +7.3496285278456366e+00 +3.8971934866268807e+00 -5.6456290453930073e+01 +1.0175685304942708e+04 +1.2780335700249139e+05 -4.0904722524544537e+07 
-2.7499999999999982e+00 -5.5812939907470271e-01 +7.3505619833239617e+00 +3.8837096308712598e+00 -5.6787920669688518e+01 +1.0041079762363084e+04 +1.3246452312451057e+05 -4.0100624065937646e+07 
-2.7999999999999980e+00 -5.5814710100019804e-01 +7.3515089926709321e+00 +3.8700348788380188e+00 -5.7113593923402995e+01 +9.9056565391954537e+03 +1.3712043499218588e+05 -3.9294819409730226e+07 
-2.8499999999999979e+00 -5.5816507920866454e-01 +7.3524694193260922e+00 +3.8561698061227472e+00 -5.7433405497663657e+01 +9.7694674220159977e+03 +1.4177138155170632e+05 -3.8487538559301682e+07 
-2.8999999999999977e+00 -5.5818333173000889e-01 +7.3534431267286831e+00 +3.8421149879370295e+00 -5.7747450664856650e+01 +9.6325641971510031e+03 +1.4641765170880823e+05 -3.7679011474104762e+07 
-2.9499999999999975e+00 -5.5820185659415544e-01 +7.3544299783189775e+00 +3.8278710002575482e+00 -5.8055824731710352e+01 +9.4949986434292587e+03 +1.5105953465112424e+05 -3.6869468115975328e+07 
-2.9999999999999973e+00 -5.5822065183102310e-01 +7.3554298375370388e+00 +3.8134384176004406e+00 -5.8358622987796331e+01 +9.3568225684117042e+03 +1.5569731941954631e+05 -3.6059138598300986e+07 
-3.0499999999999972e+00 -5.5823971547054485e-01 +7.3564425678238772e+00 +3.7988178157784067e+00 -5.8655940750014338e+01 +9.2180877487449743e+03 +1.6033129525539983e+05 -3.5248252845953703e+07 
-3.0999999999999970e+00 -5.5825904554265771e-01 +7.3574680326214681e+00 +3.7840097699392463e+00 -5.8947873371582304e+01 +9.0788459757819055e+03 +1.6496175171665003e+05 -3.4437040867509522e+07 
-3.1499999999999968e+00 -5.5827864007731831e-01 +7.3585060953670132e+00 +3.7690148571682194e+00 -5.9234516010744137e+01 +8.9391489954160479e+03 +1.6958897677448843e+05 -3.3625732393281788e+07 
-3.1999999999999966e+00 -5.5829849710446211e-01 +7.3595566195057360e+00 +3.7538336506255332e+00 -5.9515964133925507e+01 +8.7990486478201237e+03 +1.7421326088211878e+05 -3.2814557744640317e+07 
-3.2499999999999964e+00 -5.5831861465406696e-01 +7.3606194684779362e+00 +3.7384667286533158e+00 -5.9792313014521881e+01 +8.6585966472944438e+03 +1.7883489295396005e+05 -3.2003746449502617e+07 
-3.2999999999999963e+00 -5.5833899075607651e-01 +7.3616945057237055e+00 +3.7229146639300739e+00 -6.0063657900795398e+01 +8.5178448457186914e+03 +1.8345416164851183e+05 -3.1193528905393701e+07 
-3.3499999999999961e+00 -5.5835962344046552e-01 +7.3627815946875232e+00 +3.7071780322487831e+00 -6.0330094224744897e+01 +8.3768450249885518e+03 +1.8807135717184728e+05 -3.0384135093445152e+07 
-3.3999999999999959e+00 -5.5838051073721351e-01 +7.3638805988091649e+00 +3.6912574101595732e+00 -6.0591717214438397e+01 +8.2356489353077905e+03 +1.9268676801382378e+05 -2.9575794734746888e+07 
-3.4499999999999957e+00 -5.5840165067630698e-01 +7.3649913815334678e+00 +3.6751533740791382e+00 -6.0848622302952400e+01 +8.0943083377398816e+03 +1.9730068436105197e+05 -2.8768737655750364e+07 
-3.4999999999999956e+00 -5.5842304128772591e-01 +7.3661138063019722e+00 +3.6588664985800565e+00 -6.1100904780015107e+01 +7.9528750384639443e+03 +2.0191339518985592e+05 -2.7963193968451254e+07 
-3.5499999999999954e+00 -5.5844468060145014e-01 +7.3672477365572098e+00 +3.6423973573201045e+00 -6.1348659991718350e+01 +7.8114008695789362e+03 +2.0652519002309811e+05 -2.7159393966210838e+07 
-3.5999999999999952e+00 -5.5846656664748651e-01 +7.3683930357418541e+00 +3.6257465278277037e+00 -6.1591983251211275e+01 +7.6699375587902423e+03 +2.1113635794984063e+05 -2.6357567237444650e+07 
-3.6499999999999950e+00 -5.5848869745583207e-01 +7.3695495673014628e+00 +3.6089145848491184e+00 -6.1830970016788150e+01 +7.5285369104940301e+03 +2.1574718937784663e+05 -2.5557943894496344e+07 
-3.6999999999999948e+00 -5.5851107105648490e-01 +7.3707171946760246e+00 +3.5919021031245388e+00 -6.2065715508477716e+01 +7.3872507242559614e+03 +2.2035797271345198e+05 -2.4760753999438338e+07 
-3.7499999999999947e+00 -5.5853368547947169e-01 +7.3718957813141577e+00 +3.5747096612071538e+00 -6.2296315286818889e+01 +7.2461307023599475e+03 +2.2496899910788774e+05 -2.3966226980097122e+07 
-3.7999999999999945e+00 -5.5855653875478761e-01 +7.3730851906564050e+00 +3.5573378312681734e+00 -6.2522864590044605e+01 +7.1052287171926746e+03 +2.2958055710718370e+05 -2.3174593402219441e+07 
-3.8499999999999943e+00 -5.5857962891244872e-01 +7.3742852861458106e+00 +3.5397871893606765e+00 -6.2745458751434043e+01 +6.9645965325856914e+03 +2.3419293599553511e+05 -2.2386083089657877e+07 
-3.8999999999999941e+00 -5.5860295398248527e-01 +7.3754959312307857e+00 +3.5220583123128595e+00 -6.2964193329457309e+01 +6.8242858981014006e+03 +2.3880642692750343e+05 -2.1600925791630335e+07 
-3.9499999999999940e+00 -5.5862651199491986e-01 +7.3767169893541453e+00 +3.5041517757284160e+00 -6.3179163643295631e+01 +6.6843485909333758e+03 +2.4342131905333520e+05 -2.0819351423646670e+07 
-3.9999999999999938e+00 -5.5865030097977630e-01 +7.3779483239608403e+00 +3.4860681546783554e+00 -6.3390465097959371e+01 +6.5448364034935685e+03 +2.4803790223877560e+05 -2.0041590006280355e+07 
-4.0499999999999936e+00 -5.5867431887899976e-01 +7.3791897925810614e+00 +3.4678086170901565e+00 -6.3598030893349431e+01 +6.4057918336116118e+03 +2.5265509996778468e+05 -1.9267830371422283e+07 
-4.0999999999999934e+00 -5.5869856328179579e-01 +7.3804412241646054e+00 +3.4493769687264000e+00 -6.3801158748660896e+01 +6.2672139934560764e+03 +2.5726647889855327e+05 -1.8498040919007387e+07 
-4.1499999999999932e+00 -5.5872303168910731e-01 +7.3817024392577881e+00 +3.4307777616950110e+00 -6.3998989967997304e+01 +6.1290895324237617e+03 +2.6186427989775533e+05 -1.7732120626360800e+07 
-4.1999999999999931e+00 -5.5874772160184871e-01 +7.3829732584103702e+00 +3.4120155430689429e+00 -6.4190666012075667e+01 +5.9914052357041628e+03 +2.6644074509477068e+05 -1.6969969379799031e+07 
-4.2499999999999929e+00 -5.5877263052095882e-01 +7.3842535021696714e+00 +3.3930948639046834e+00 -6.4375328239662423e+01 +5.8541477814041009e+03 +2.7098811575466080e+05 -1.6211486340484412e+07 
-4.2999999999999927e+00 -5.5879775594736747e-01 +7.3855429910848658e+00 +3.3740202733311544e+00 -6.4552118092333572e+01 +5.7173038974788251e+03 +2.7549863382863067e+05 -1.5456570991472853e+07 
-4.3499999999999925e+00 -5.5882309538199260e-01 +7.3868415457035379e+00 +3.3547963187062209e+00 -6.4720176960057742e+01 +5.5808603564055029e+03 +2.7996454088395019e+05 -1.4705123101812335e+07 
-4.3999999999999924e+00 -5.5884864632577902e-01 +7.3881489865740031e+00 +3.3354275517529448e+00 -6.4878646253172519e+01 +5.4448038158156805e+03 +2.8437807858451555e+05 -1.3957041673747014e+07 
-4.4499999999999922e+00 -5.5887440627963847e-01 +7.3894651342421893e+00 +3.3159185182532691e+00 -6.5026667296092455e+01 +5.3091210910898262e+03 +2.8873148791763396e+05 -1.3212226757627515e+07 
-4.4999999999999920e+00 -5.5890037274449667e-01 +7.3907898092573454e+00 +3.2962737667006508e+00 -6.5163381547642786e+01 +5.1737989212637594e+03 +2.9301701094317302e+05 -1.2470577873105444e+07 
-4.5499999999999918e+00 -5.5892654322128021e-01 +7.3921228321656800e+00 +3.2764978456942515e+00 -6.5287930367502682e+01 +5.0388240435269026e+03 +2.9722688897460903e+05 -1.1731994526985174e+07 
-4.5999999999999917e+00 -5.5895291521090484e-01 +7.3934640235138511e+00 +3.2565953019624696e+00 -6.5399455126610263e+01 +4.9041832434985781e+03 +3.0135336335550877e+05 -1.0996376540679853e+07 
-4.6499999999999915e+00 -5.5897948621430016e-01 +7.3948132038495640e+00 +3.2365706847829272e+00 -6.5497097245386286e+01 +4.7698632364299910e+03 +3.0538867583988525e+05 -1.0263623247861190e+07 
-4.6999999999999913e+00 -5.5900625373237511e-01 +7.3961701937190076e+00 +3.2164285400693342e+00 -6.5579998092732467e+01 +4.6358508298872930e+03 +3.0932506776139379e+05 -9.5336346109612342e+06 
-4.7499999999999911e+00 -5.5903321526603744e-01 +7.3975348136689263e+00 +3.1961734136240851e+00 -6.5647299069866676e+01 +4.5021328283599232e+03 +3.1315478072153701e+05 -8.8063105374309644e+06 
-4.7999999999999909e+00 -5.5906036831620309e-01 +7.3989068842443872e+00 +3.1758098531465655e+00 -6.5698141515416978e+01 +4.3686959874767954e+03 +3.1687005579355179e+05 -8.0815506140396772e+06 
-4.8499999999999908e+00 -5.5908771038378136e-01 +7.4002862259923567e+00 +3.1553424050161123e+00 -6.5731666850875840e+01 +4.2355270966723037e+03 +3.2046313471447269e+05 -7.3592546386222858e+06 
-4.8999999999999906e+00 -5.5911523896967685e-01 +7.4016726594558264e+00 +3.1347756156096587e+00 -6.5747016352233985e+01 +4.1026129428579461e+03 +3.2392625804914330e+05 -6.6393223808279969e+06 
-4.9499999999999904e+00 -5.5914295157477079e-01 +7.4030660051842831e+00 +3.1141140272347063e+00 -6.5743331569217716e+01 +3.9699404222116968e+03 +3.2725166860557219e+05 -5.9216543378012497e+06 
-4.9999999999999902e+00 -5.5917084569998221e-01 +7.4044660837186784e+00 +3.0933621894956493e+00 -6.5719753708203257e+01 +3.8374962321155153e+03 +3.3043160634385282e+05 -5.2061496528713843e+06 
-5.0499999999999901e+00 -5.5919891884618467e-01 +7.4058727156041897e+00 +3.0725246442102816e+00 -6.5675424155398005e+01 +3.7052672786771295e+03 +3.3345831268312648e+05 -4.4927088665665379e+06 
