# trajectory
# s[mm] rx[mm] ry[mm] rz[mm] px[rad] py[rad] pz[rad]
0.0000000000000000e+00 +8.2850000000000001e+00 +0.0000000000000000e+00 +0.0000000000000000e+00 +0.0000000000000000e+00 +0.0000000000000000e+00 +1.0000000000000000e+00
-5.0000000000000003e-02 +8.2849999306493167e+00 +0.0000000000000000e+00 -4.9999999999935874e-02 +2.7740276905669500e-06 +0.0000000000000000e+00 +9.9999999999615241e-01
-1.0000000000000001e-01 +8.2849997225971794e+00 +0.0000000000000000e+00 -9.9999999999486985e-02 +5.5480584348794142e-06 +0.0000000000000000e+00 +9.9999999998460953e-01
-1.5000000000000002e-01 +8.2849993758433946e+00 +0.0000000000000000e+00 -1.4999999999826857e-01 +8.3220939061326335e-06 +0.0000000000000000e+00 +9.9999999996537137e-01
-2.0000000000000001e-01 +8.2849988903876834e+00 +0.0000000000000000e+00 -1.9999999999589585e-01 +1.1096135773837508e-05 +0.0000000000000000e+00 +9.9999999993843791e-01
-2.5000000000000000e-01 +8.2849982662296835e+00 +0.0000000000000000e+00 -2.4999999999198408e-01 +1.3870185703820678e-05 +0.0000000000000000e+00 +9.9999999990380894e-01
-2.9999999999999999e-01 +8.2849975033689507e+00 +0.0000000000000000e+00 -2.9999999998614846e-01 +1.6644245358224601e-05 +0.0000000000000000e+00 +9.9999999986148447e-01
-3.4999999999999998e-01 +8.2849966018049575e+00 +0.0000000000000000e+00 -3.4999999997800424e-01 +1.9418316395507629e-05 +0.0000000000000000e+00 +9.9999999981146437e-01
-3.9999999999999997e-01 +8.2849955615370927e+00 +0.0000000000000000e+00 -3.9999999996716662e-01 +2.2192400470444079e-05 +0.0000000000000000e+00 +9.9999999975374854e-01
-4.4999999999999996e-01 +8.2849943825646655e+00 +0.0000000000000000e+00 -4.4999999995325080e-01 +2.4966499234124314e-05 +0.0000000000000000e+00 +9.9999999968833686e-01
-4.9999999999999994e-01 +8.2849930648868977e+00 +0.0000000000000000e+00 -4.9999999993587202e-01 +2.7740614333954820e-05 +0.0000000000000000e+00 +9.9999999961522901e-01
-5.4999999999999993e-01 +8.2849916085029331e+00 +0.0000000000000000e+00 -5.4999999991464543e-01 +3.0514747413658270e-05 +0.0000000000000000e+00 +9.9999999953442498e-01
-5.9999999999999998e-01 +8.2849900134118304e+00 +0.0000000000000000e+00 -5.9999999988918629e-01 +3.3288900113273607e-05 +0.0000000000000000e+00 +9.9999999944592444e-01
-6.5000000000000002e-01 +8.2849882796125680e+00 +0.0000000000000000e+00 -6.4999999985910961e-01 +3.6063074069156119e-05 +0.0000000000000000e+00 +9.9999999934972716e-01
-7.0000000000000007e-01 +8.2849864071040429e+00 +0.0000000000000000e+00 -6.9999999982403072e-01 +3.8837270913977511e-05 +0.0000000000000000e+00 +9.9999999924583305e-01
-7.5000000000000011e-01 +8.2849843958850684e+00 +0.0000000000000000e+00 -7.4999999978356469e-01 +4.1611492276725967e-05 +0.0000000000000000e+00 +9.9999999913424176e-01
-8.0000000000000016e-01 +8.2849822459543798e+00 +0.0000000000000000e+00 -7.9999999973732661e-01 +4.4385739782706234e-05 +0.0000000000000000e+00 +9.9999999901495296e-01
-8.5000000000000020e-01 +8.2849799573106289e+00 +0.0000000000000000e+00 -8.4999999968493167e-01 +4.7160015053539696e-05 +0.0000000000000000e+00 +9.9999999888796642e-01
-9.0000000000000024e-01 +8.2849775299523856e+00 +0.0000000000000000e+00 -8.9999999962599497e-01 +4.9934319707164436e-05 +0.0000000000000000e+00 +9.9999999875328183e-01
-9.5000000000000029e-01 +8.2849749638781418e+00 +0.0000000000000000e+00 -9.4999999956013159e-01 +5.2708655357835305e-05 +0.0000000000000000e+00 +9.9999999861089883e-01
-1.0000000000000002e+00 +8.2849722590863060e+00 +0.0000000000000000e+00 -9.9999999948695661e-01 +5.5483023616124014e-05 +0.0000000000000000e+00 +9.9999999846081711e-01
-1.0500000000000003e+00 +8.2849694155752100e+00 +0.0000000000000000e+00 -1.0499999994060851e+00 +5.8257426088919174e-05 +0.0000000000000000e+00 +9.9999999830303621e-01
-1.1000000000000003e+00 +8.2849664333431008e+00 +0.0000000000000000e+00 -1.0999999993171321e+00 +6.1031864379426385e-05 +0.0000000000000000e+00 +9.9999999813755580e-01
-1.1500000000000004e+00 +8.2849633123881485e+00 +0.0000000000000000e+00 -1.1499999992197125e+00 +6.3806340087168298e-05 +0.0000000000000000e+00 +9.9999999796437555e-01
-1.2000000000000004e+00 +8.2849600527084419e+00 +0.0000000000000000e+00 -1.1999999991134414e+00 +6.6580854807984693e-05 +0.0000000000000000e+00 +9.9999999778349491e-01
-1.2500000000000004e+00 +8.2849566543019915e+00 +0.0000000000000000e+00 -1.2499999989979336e+00 +6.9355410134032533e-05 +0.0000000000000000e+00 +9.9999999759491354e-01
-1.3000000000000005e+00 +8.2849531171667259e+00 +0.0000000000000000e+00 -1.2999999988728044e+00 +7.2130007653786041e-05 +0.0000000000000000e+00 +9.9999999739863099e-01
-1.3500000000000005e+00 +8.2849494413004958e+00 +0.0000000000000000e+00 -1.3499999987376685e+00 +7.4904648952036775e-05 +0.0000000000000000e+00 +9.9999999719464683e-01
-1.4000000000000006e+00 +8.2849456267010737e+00 +0.0000000000000000e+00 -1.3999999985921407e+00 +7.7679335609893676e-05 +0.0000000000000000e+00 +9.9999999698296049e-01
-1.4500000000000006e+00 +8.2849416733661521e+00 +0.0000000000000000e+00 -1.4499999984358360e+00 +8.0454069204783139e-05 +0.0000000000000000e+00 +9.9999999676357143e-01
-1.5000000000000007e+00 +8.2849375812933452e+00 +0.0000000000000000e+00 -1.4999999982683694e+00 +8.3228851310449093e-05 +0.0000000000000000e+00 +9.9999999653647920e-01
-1.5500000000000007e+00 +8.2849333504801876e+00 +0.0000000000000000e+00 -1.5499999980893555e+00 +8.6003683496953042e-05 +0.0000000000000000e+00 +9.9999999630168324e-01
-1.6000000000000008e+00 +8.2849289809241355e+00 +0.0000000000000000e+00 -1.5999999978984092e+00 +8.8778567330674175e-05 +0.0000000000000000e+00 +9.9999999605918299e-01
-1.6500000000000008e+00 +8.2849244726225670e+00 +0.0000000000000000e+00 -1.6499999976951454e+00 +9.1553504374309376e-05 +0.0000000000000000e+00 +9.9999999580897792e-01
-1.7000000000000008e+00 +8.2849198255727838e+00 +0.0000000000000000e+00 -1.6999999974791786e+00 +9.4328496186873323e-05 +0.0000000000000000e+00 +9.9999999555106744e-01
-1.7500000000000009e+00 +8.2849150397720095e+00 +0.0000000000000000e+00 -1.7499999972501237e+00 +9.7103544323698537e-05 +0.0000000000000000e+00 +9.9999999528545092e-01
-1.8000000000000009e+00 +8.2849101152173876e+00 +0.0000000000000000e+00 -1.7999999970075953e+00 +9.9878650336435455e-05 +0.0000000000000000e+00 +9.9999999501212766e-01
-1.8500000000000010e+00 +8.2849050519059855e+00 +0.0000000000000000e+00 -1.8499999967512080e+00 +1.0265381577305248e-04 +0.0000000000000000e+00 +9.9999999473109713e-01
-1.9000000000000010e+00 +8.2848998498347939e+00 +0.0000000000000000e+00 -1.8999999964805765e+00 +1.0542904217783606e-04 +0.0000000000000000e+00 +9.9999999444235865e-01
-1.9500000000000011e+00 +8.2848945090007255e+00 +0.0000000000000000e+00 -1.9499999961953154e+00 +1.0820433109139075e-04 +0.0000000000000000e+00 +9.9999999414591145e-01
-2.0000000000000009e+00 +8.2848890294006168e+00 +0.0000000000000000e+00 -1.9999999958950392e+00 +1.1097968405063925e-04 +0.0000000000000000e+00 +9.9999999384175497e-01
-2.0500000000000007e+00 +8.2848834110312275e+00 +0.0000000000000000e+00 -2.0499999955793622e+00 +1.1375510258856693e-04 +0.0000000000000000e+00 +9.9999999352988844e-01
-2.1000000000000005e+00 +8.2848776538892395e+00 +0.0000000000000000e+00 -2.0999999952478992e+00 +1.1653058823141079e-04 +0.0000000000000000e+00 +9.9999999321031108e-01
-2.1500000000000004e+00 +8.2848717579712599e+00 +0.0000000000000000e+00 -2.1499999949002646e+00 +1.1930614249584849e-04 +0.0000000000000000e+00 +9.9999999288302222e-01
-2.2000000000000002e+00 +8.2848657232738212e+00 +0.0000000000000000e+00 -2.1999999945360726e+00 +1.2208176688874276e-04 +0.0000000000000000e+00 +9.9999999254802108e-01
-2.2500000000000000e+00 +8.2848595497933779e+00 +0.0000000000000000e+00 -2.2499999941549378e+00 +1.2485746290714152e-04 +0.0000000000000000e+00 +9.9999999220530700e-01
-2.2999999999999998e+00 +8.2848532375263115e+00 +0.0000000000000000e+00 -2.2999999937564746e+00 +1.2763323203827790e-04 +0.0000000000000000e+00 +9.9999999185487909e-01
-2.3499999999999996e+00 +8.2848467864689308e+00 +0.0000000000000000e+00 -2.3499999933402971e+00 +1.3040907575957025e-04 +0.0000000000000000e+00 +9.9999999149673657e-01
-2.3999999999999995e+00 +8.2848401966174681e+00 +0.0000000000000000e+00 -2.3999999929060194e+00 +1.3318499553862230e-04 +0.0000000000000000e+00 +9.9999999113087856e-01
-2.4499999999999993e+00 +8.2848334679680846e+00 +0.0000000000000000e+00 -2.4499999924532561e+00 +1.3596099283322307e-04 +0.0000000000000000e+00 +9.9999999075730428e-01
-2.4999999999999991e+00 +8.2848266005168689e+00 +0.0000000000000000e+00 -2.4999999919816212e+00 +1.3873706909134701e-04 +0.0000000000000000e+00 +9.9999999037601284e-01
-2.5499999999999989e+00 +8.2848195942598366e+00 +0.0000000000000000e+00 -2.5499999914907288e+00 +1.4151322575115398e-04 +0.0000000000000000e+00 +9.9999998998700346e-01
-2.5999999999999988e+00 +8.2848124491929305e+00 +0.0000000000000000e+00 -2.5999999909801930e+00 +1.4428946424098937e-04 +0.0000000000000000e+00 +9.9999998959027525e-01
-2.6499999999999986e+00 +8.2848051653120240e+00 +0.0000000000000000e+00 -2.6499999904496279e+00 +1.4706578597938408e-04 +0.0000000000000000e+00 +9.9999998918582733e-01
-2.6999999999999984e+00 +8.2847977426129216e+00 +0.0000000000000000e+00 -2.6999999898986471e+00 +1.4984219237505457e-04 +0.0000000000000000e+00 +9.9999998877365870e-01
-2.7499999999999982e+00 +8.2847901810913527e+00 +0.0000000000000000e+00 -2.7499999893268647e+00 +1.5261868482690293e-04 +0.0000000000000000e+00 +9.9999998835376858e-01
-2.7999999999999980e+00 +8.2847824807429813e+00 +0.0000000000000000e+00 -2.7999999887338949e+00 +1.5539526472401686e-04 +0.0000000000000000e+00 +9.9999998792615585e-01
-2.8499999999999979e+00 +8.2847746415634003e+00 +0.0000000000000000e+00 -2.8499999881193516e+00 +1.5817193344566980e-04 +0.0000000000000000e+00 +9.9999998749081975e-01
-2.8999999999999977e+00 +8.2847666635481332e+00 +0.0000000000000000e+00 -2.8999999874828482e+00 +1.6094869236132087e-04 +0.0000000000000000e+00 +9.9999998704775928e-01
-2.9499999999999975e+00 +8.2847585466926379e+00 +0.0000000000000000e+00 -2.9499999868239986e+00 +1.6372554283061497e-04 +0.0000000000000000e+00 +9.9999998659697342e-01
-2.9999999999999973e+00 +8.2847502909923012e+00 +0.0000000000000000e+00 -2.9999999861424165e+00 +1.6650248620338280e-04 +0.0000000000000000e+00 +9.9999998613846119e-01
-3.0499999999999972e+00 +8.2847418964424460e+00 +0.0000000000000000e+00 -3.0499999854377156e+00 +1.6927952381964086e-04 +0.0000000000000000e+00 +9.9999998567222159e-01
-3.0999999999999970e+00 +8.2847333630383257e+00 +0.0000000000000000e+00 -3.0999999847095094e+00 +1.7205665700959158e-04 +0.0000000000000000e+00 +9.9999998519825362e-01
-3.1499999999999968e+00 +8.2847246907751302e+00 +0.0000000000000000e+00 -3.1499999839574118e+00 +1.7483388709362325e-04 +0.0000000000000000e+00 +9.9999998471655616e-01
-3.1999999999999966e+00 +8.2847158796479796e+00 +0.0000000000000000e+00 -3.1999999831810362e+00 +1.7761121538231004e-04 +0.0000000000000000e+00 +9.9999998422712832e-01
-3.2499999999999964e+00 +8.2847069296519322e+00 +0.0000000000000000e+00 -3.2499999823799959e+00 +1.8038864317641216e-04 +0.0000000000000000e+00 +9.9999998372996890e-01
-3.2999999999999963e+00 +8.2846978407819805e+00 +0.0000000000000000e+00 -3.2999999815539041e+00 +1.8316617176687578e-04 +0.0000000000000000e+00 +9.9999998322507699e-01
-3.3499999999999961e+00 +8.2846886130330528e+00 +0.0000000000000000e+00 -3.3499999807023744e+00 +1.8594380243483306e-04 +0.0000000000000000e+00 +9.9999998271245139e-01
-3.3999999999999959e+00 +8.2846792464000139e+00 +0.0000000000000000e+00 -3.3999999798250200e+00 +1.8872153645160225e-04 +0.0000000000000000e+00 +9.9999998219209107e-01
-3.4499999999999957e+00 +8.2846697408776642e+00 +0.0000000000000000e+00 -3.4499999789214546e+00 +1.9149937507868765e-04 +0.0000000000000000e+00 +9.9999998166399495e-01
-3.4999999999999956e+00 +8.2846600964607422e+00 +0.0000000000000000e+00 -3.4999999779912909e+00 +1.9427731956777965e-04 +0.0000000000000000e+00 +9.9999998112816180e-01
-3.5499999999999954e+00 +8.2846503131439224e+00 +0.0000000000000000e+00 -3.5499999770341422e+00 +1.9705537116075479e-04 +0.0000000000000000e+00 +9.9999998058459061e-01
-3.5999999999999952e+00 +8.2846403909218207e+00 +0.0000000000000000e+00 -3.5999999760496211e+00 +1.9983353108967572e-04 +0.0000000000000000e+00 +9.9999998003328017e-01
-3.6499999999999950e+00 +8.2846303297889889e+00 +0.0000000000000000e+00 -3.6499999750373409e+00 +2.0261180057679128e-04 +0.0000000000000000e+00 +9.9999997947422936e-01
-3.6999999999999948e+00 +8.2846201297399169e+00 +0.0000000000000000e+00 -3.6999999739969147e+00 +2.0539018083453651e-04 +0.0000000000000000e+00 +9.9999997890743697e-01
-3.7499999999999947e+00 +8.2846097907690393e+00 +0.0000000000000000e+00 -3.7499999729279554e+00 +2.0816867306553267e-04 +0.0000000000000000e+00 +9.9999997833290188e-01
-3.7999999999999945e+00 +8.2845993128707249e+00 +0.0000000000000000e+00 -3.7999999718300757e+00 +2.1094727846258723e-04 +0.0000000000000000e+00 +9.9999997775062299e-01
-3.8499999999999943e+00 +8.2845886960392878e+00 +0.0000000000000000e+00 -3.8499999707028887e+00 +2.1372599820869390e-04 +0.0000000000000000e+00 +9.9999997716059896e-01
-3.8999999999999941e+00 +8.2845779402689796e+00 +0.0000000000000000e+00 -3.8999999695460068e+00 +2.1650483347703271e-04 +0.0000000000000000e+00 +9.9999997656282869e-01
-3.9499999999999940e+00 +8.2845670455539953e+00 +0.0000000000000000e+00 -3.9499999683590428e+00 +2.1928378543096993e-04 +0.0000000000000000e+00 +9.9999997595731083e-01
-3.9999999999999938e+00 +8.2845560118884727e+00 +0.0000000000000000e+00 -3.9999999671416089e+00 +2.2206285522405816e-04 +0.0000000000000000e+00 +9.9999997534404428e-01
-4.0499999999999936e+00 +8.2845448392664895e+00 +0.0000000000000000e+00 -4.0499999658933179e+00 +2.2484204399992691e-04 +0.0000000000000000e+00 +9.9999997472302771e-01
-4.0999999999999934e+00 +8.2845335276820702e+00 +0.0000000000000000e+00 -4.0999999646137821e+00 +2.2762135289107911e-04 +0.0000000000000000e+00 +9.9999997409425989e-01
-4.1499999999999932e+00 +8.2845220771291803e+00 +0.0000000000000000e+00 -4.1499999633026148e+00 +2.3040078301768768e-04 +0.0000000000000000e+00 +9.9999997345773961e-01
-4.1999999999999931e+00 +8.2845104876017306e+00 +0.0000000000000000e+00 -4.1999999619594268e+00 +2.3318033548748606e-04 +0.0000000000000000e+00 +9.9999997281346553e-01
-4.2499999999999929e+00 +8.2844987590935748e+00 +0.0000000000000000e+00 -4.2499999605838319e+00 +2.3596001139576829e-04 +0.0000000000000000e+00 +9.9999997216143643e-01
-4.2999999999999927e+00 +8.2844868915985153e+00 +0.0000000000000000e+00 -4.2999999591754410e+00 +2.3873981182538894e-04 +0.0000000000000000e+00 +9.9999997150165099e-01
-4.3499999999999925e+00 +8.2844748851102992e+00 +0.0000000000000000e+00 -4.3499999577338677e+00 +2.4151973784676314e-04 +0.0000000000000000e+00 +9.9999997083410797e-01
-4.3999999999999924e+00 +8.2844627396226205e+00 +0.0000000000000000e+00 -4.3999999562587231e+00 +2.4429979051786657e-04 +0.0000000000000000e+00 +9.9999997015880604e-01
-4.4499999999999922e+00 +8.2844504551291198e+00 +0.0000000000000000e+00 -4.4499999547496190e+00 +2.4707997088423540e-04 +0.0000000000000000e+00 +9.9999996947574388e-01
-4.4999999999999920e+00 +8.2844380316233863e+00 +0.0000000000000000e+00 -4.4999999532061681e+00 +2.4986027997896647e-04 +0.0000000000000000e+00 +9.9999996878492015e-01
-4.5499999999999918e+00 +8.2844254690989594e+00 +0.0000000000000000e+00 -4.5499999516279814e+00 +2.5264071882271705e-04 +0.0000000000000000e+00 +9.9999996808633351e-01
-4.5999999999999917e+00 +8.2844127675493251e+00 +0.0000000000000000e+00 -4.5999999500146718e+00 +2.5542128842370498e-04 +0.0000000000000000e+00 +9.9999996737998265e-01
-4.6499999999999915e+00 +8.2843999269679216e+00 +0.0000000000000000e+00 -4.6499999483658501e+00 +2.5820198977770858e-04 +0.0000000000000000e+00 +9.9999996666586610e-01
-4.6999999999999913e+00 +8.2843869473481355e+00 +0.0000000000000000e+00 -4.6999999466811291e+00 +2.6098282386806669e-04 +0.0000000000000000e+00 +9.9999996594398266e-01
-4.7499999999999911e+00 +8.2843738286833055e+00 +0.0000000000000000e+00 -4.7499999449601189e+00 +2.6376379166567868e-04 +0.0000000000000000e+00 +9.9999996521433088e-01
-4.7999999999999909e+00 +8.2843605709667241e+00 +0.0000000000000000e+00 -4.7999999432024323e+00 +2.6654489412900430e-04 +0.0000000000000000e+00 +9.9999996447690942e-01
-4.8499999999999908e+00 +8.2843471741916321e+00 +0.0000000000000000e+00 -4.8499999414076802e+00 +2.6932613220406390e-04 +0.0000000000000000e+00 +9.9999996373171696e-01
-4.8999999999999906e+00 +8.2843336383512280e+00 +0.0000000000000000e+00 -4.8999999395754745e+00 +2.7210750682443816e-04 +0.0000000000000000e+00 +9.9999996297875204e-01
-4.9499999999999904e+00 +8.2843199634386586e+00 +0.0000000000000000e+00 -4.9499999377054262e+00 +2.7488901891126823e-04 +0.0000000000000000e+00 +9.9999996221801324e-01
-4.9999999999999902e+00 +8.2843061494470298e+00 +0.0000000000000000e+00 -4.9999999357971463e+00 +2.7767066937325571e-04 +0.0000000000000000e+00 +9.9999996144949921e-01
-5.0499999999999901e+00 +8.2842921963693996e+00 +0.0000000000000000e+00 -5.0499999338502466e+00 +2.8045245910666256e-04 +0.0000000000000000e+00 +9.9999996067320862e-01
-5.0999999999999899e+00 +8.2842781041987834e+00 +0.0000000000000000e+00 -5.0999999318643381e+00 +2.8323438899531111e-04 +0.0000000000000000e+00 +9.9999995988913992e-01
-5.1499999999999897e+00 +8.2842638729281504e+00 +0.0000000000000000e+00 -5.1499999298390309e+00 +2.8601645991058406e-04 +0.0000000000000000e+00 +9.9999995909729178e-01
-5.1999999999999895e+00 +8.2842495025504270e+00 +0.0000000000000000e+00 -5.1999999277739368e+00 +2.8879867271142438e-04 +0.0000000000000000e+00 +9.9999995829766275e-01
-5.2499999999999893e+00 +8.2842349930584991e+00 +0.0000000000000000e+00 -5.2499999256686669e+00 +2.9158102824433543e-04 +0.0000000000000000e+00 +9.9999995749025139e-01
-5.2999999999999892e+00 +8.2842203444452096e+00 +0.0000000000000000e+00 -5.2999999235228321e+00 +2.9436352734338078e-04 +0.0000000000000000e+00 +9.9999995667505626e-01
-5.3499999999999890e+00 +8.2842055567033590e+00 +0.0000000000000000e+00 -5.3499999213360425e+00 +2.9714617083018423e-04 +0.0000000000000000e+00 +9.9999995585207591e-01
-5.3999999999999888e+00 +8.2841906298257069e+00 +0.0000000000000000e+00 -5.3999999191079100e+00 +2.9992895951392988e-04 +0.0000000000000000e+00 +9.9999995502130890e-01
-5.4499999999999886e+00 +8.2841755638049737e+00 +0.0000000000000000e+00 -5.4499999168380437e+00 +3.0271189419136190e-04 +0.0000000000000000e+00 +9.9999995418275378e-01
-5.4999999999999885e+00 +8.2841603586338408e+00 +0.0000000000000000e+00 -5.4999999145260556e+00 +3.0549497564678478e-04 +0.0000000000000000e+00 +9.9999995333640912e-01
-5.5499999999999883e+00 +8.2841450143049489e+00 +0.0000000000000000e+00 -5.5499999121715549e+00 +3.0827820465206297e-04 +0.0000000000000000e+00 +9.9999995248227347e-01
-5.5999999999999881e+00 +8.2841295308109029e+00 +0.0000000000000000e+00 -5.5999999097741524e+00 +3.1106158196662112e-04 +0.0000000000000000e+00 +9.9999995162034527e-01
-5.6499999999999879e+00 +8.2841139081442687e+00 +0.0000000000000000e+00 -5.6499999073334592e+00 +3.1384510833744382e-04 +0.0000000000000000e+00 +9.9999995075062309e-01
-5.6999999999999877e+00 +8.2840981462975734e+00 +0.0000000000000000e+00 -5.6999999048490846e+00 +3.1662878449907584e-04 +0.0000000000000000e+00 +9.9999994987310548e-01
-5.7499999999999876e+00 +8.2840822452633098e+00 +0.0000000000000000e+00 -5.7499999023206394e+00 +3.1941261117362179e-04 +0.0000000000000000e+00 +9.9999994898779088e-01
-5.7999999999999874e+00 +8.2840662050339358e+00 +0.0000000000000000e+00 -5.7999998997477338e+00 +3.2219658907074625e-04 +0.0000000000000000e+00 +9.9999994809467796e-01
-5.8499999999999872e+00 +8.2840500256018714e+00 +0.0000000000000000e+00 -5.8499998971299769e+00 +3.2498071888767378e-04 +0.0000000000000000e+00 +9.9999994719376506e-01
