# multipoles
# s[mm] polynom_b[n=0][T/m^n] polynom_b[n=1][T/m^n] polynom_b[n=2][T/m^n] polynom_b[n=3][T/m^n] polynom_b[n=4][T/m^n] polynom_b[n=5][T/m^n] polynom_b[n=6][T/m^n] 
+0.0000000000000000e+00 -5.5226938011122306e-01 +7.2597571094306099e+00 +4.9222262871287485e+00 -6.6072931806867913e+01 +9.2117330931407068e+01 +2.3337530198817611e+04 +2.6659281268537864e+06 
+5.0000000000000003e-02 -5.5226888705337396e-01 +7.2597734375362641e+00 +4.9179610800976219e+00 -6.6331720632666773e+01 +1.9631788832156352e+02 +2.4915346340382664e+04 +1.9853582523532580e+06 
+1.0000000000000001e-01 -5.5226873992346914e-01 +7.2598090516341198e+00 +4.9130323429883171e+00 -6.6597577454950851e+01 +3.0613082498768534e+02 +2.6562428364368134e+04 +1.2718304739651321e+06 
+1.4999999999999999e-01 -5.5226893807938848e-01 +7.2598638673363665e+00 +4.9074634682095288e+00 -6.6869859317375457e+01 +4.2103450001200360e+02 +2.8275023093585198e+04 +5.2846620051915478e+05 
+2.0000000000000001e-01 -5.5226948087912286e-01 +7.2599378002607136e+00 +4.9012778531621262e+00 -6.7147923474577667e+01 +5.4050713914404196e+02 +3.0049379133629158e+04 -2.4161226565182122e+05 
+2.5000000000000000e-01 -5.5227036768056093e-01 +7.2600307660250083e+00 +4.8944988932601454e+00 -6.7431127139950732e+01 +6.6402701967615747e+02 +3.1881744680380340e+04 -1.0352829635533079e+06 
+2.9999999999999999e-01 -5.5227159784167990e-01 +7.2601426802451723e+00 +4.8871499826927280e+00 -6.7718827435837412e+01 +7.9107245495581594e+02 +3.3768367243671921e+04 -1.8494241904900034e+06 
+3.4999999999999998e-01 -5.5227317072047855e-01 +7.2602734585396567e+00 +4.8792545165938499e+00 -6.8010381546367157e+01 +9.2112173156619849e+02 +3.5705494767652599e+04 -2.6809140555207157e+06 
+4.0000000000000002e-01 -5.5227508567489747e-01 +7.2604230165268335e+00 +4.8708358914777330e+00 -6.8305146633313711e+01 +1.0536530976658576e+03 +3.7689375069234120e+04 -3.5266304082784853e+06 
+4.5000000000000001e-01 -5.5227734206296131e-01 +7.2605912698266541e+00 +4.8619175014679969e+00 -6.8602479891869010e+01 +1.1881448690874249e+03 +3.9716256203782570e+04 -4.3834515668789744e+06 
+5.0000000000000000e-01 -5.5227993924268715e-01 +7.2607781340600965e+00 +4.8525227422475119e+00 -6.8901738537338346e+01 +1.3240753124055077e+03 +4.1782386428414684e+04 -5.2482554914559107e+06 
+5.5000000000000004e-01 -5.5228287657208897e-01 +7.2609835248484034e+00 +4.8426750095879116e+00 -6.9202279762868628e+01 +1.4609227028541347e+03 +4.3884013791890771e+04 -6.1179202423616843e+06 
+5.9999999999999998e-01 -5.5228615340925957e-01 +7.2612073578120935e+00 +4.8323976981830041e+00 -6.9503460701086752e+01 +1.5981653308105156e+03 +4.6017385811383072e+04 -6.9893239321849141e+06 
+6.5000000000000002e-01 -5.5228976911223748e-01 +7.2614495485734345e+00 +4.8217142031703224e+00 -6.9804638537002120e+01 +1.7352814852211573e+03 +4.8178750492694184e+04 -7.8593447037313199e+06 
+6.9999999999999996e-01 -5.5229372303907687e-01 +7.2617100127542669e+00 +4.8106479205306201e+00 -7.0105170403195487e+01 +1.8717494267678776e+03 +5.0364355372035905e+04 -8.7248604889874421e+06 
+7.5000000000000000e-01 -5.5229801454789562e-01 +7.2619886659780803e+00 +4.7992222454209026e+00 -7.0404413468673212e+01 +2.0070474391817320e+03 +5.2570448257550408e+04 -9.5827493803703580e+06 
+8.0000000000000004e-01 -5.5230264299679366e-01 +7.2622854238686685e+00 +4.7874605717697198e+00 -7.0701724903270730e+01 +2.1406538399122187e+03 +5.4793277040567758e+04 -1.0429889700673288e+07 
+8.4999999999999998e-01 -5.5230760774389998e-01 +7.2626002020476150e+00 +4.7753862964897591e+00 -7.0996461748677504e+01 +2.2720468616502958e+03 +5.7029088505016778e+04 -1.1263159185177039e+07 
+9.0000000000000002e-01 -5.5231290814734602e-01 +7.2629329161401639e+00 +4.7630228139402115e+00 -7.1287981158789520e+01 +2.4007048107805217e+03 +5.9274130318071919e+04 -1.2079436086536778e+07 
+9.4999999999999996e-01 -5.5231854356525922e-01 +7.2632834817704621e+00 +4.7503935201357343e+00 -7.1575640231775083e+01 +2.5261059438254215e+03 +6.1524649763022324e+04 -1.2875598300296111e+07 
+1.0000000000000000e+00 -5.5232451335585087e-01 +7.2636518145611166e+00 +4.7375218095349707e+00 -7.1858795971948425e+01 +2.6477285605244924e+03 +6.3776893318345872e+04 -1.3648524021852868e+07 
+1.0500000000000000e+00 -5.5233081687726759e-01 +7.2640378301381432e+00 +4.7244310765945432e+00 -7.2136805485726697e+01 +2.7650509580834682e+03 +6.6027108263923932e+04 -1.4395091418343669e+07 
+1.1000000000000001e+00 -5.5233745348768482e-01 +7.2644414441236034e+00 +4.7111447182857891e+00 -7.2409025697614283e+01 +2.8775513675694929e+03 +6.8271540429725952e+04 -1.5112178217371980e+07 
+1.1499999999999999e+00 -5.5234442254533000e-01 +7.2648625721431541e+00 +4.6976861290270699e+00 -7.2674813652361948e+01 +2.9847080880862341e+03 +7.0506436611648300e+04 -1.5796662606392533e+07 
+1.2000000000000000e+00 -5.5235172340842176e-01 +7.2653011298204309e+00 +4.6840787042985461e+00 -7.2933526287610249e+01 +3.0859993859635565e+03 +7.2728042745054074e+04 -1.6445422534805534e+07 
+1.2500000000000000e+00 -5.5235935543518677e-01 +7.2657570327804697e+00 +4.6703458382047236e+00 -7.3184520560313459e+01 +3.1809035653655196e+03 +7.4932604872291515e+04 -1.7055336210429277e+07 
+1.3000000000000000e+00 -5.5236731798388128e-01 +7.2662301966462612e+00 +4.6565109274204710e+00 -7.3427153321315913e+01 +3.2688988630853951e+03 +7.7116368187160071e+04 -1.7623281394527413e+07 
+1.3500000000000001e+00 -5.5237561041275063e-01 +7.2667205370419810e+00 +4.6425973652685437e+00 -7.3660781448694635e+01 +3.3494635983842736e+03 +7.9275578123634361e+04 -1.8146136376814071e+07 
+1.3999999999999999e+00 -5.5238423208004817e-01 +7.2672279695914490e+00 +4.6286285477534443e+00 -7.3884761770084310e+01 +3.4220760261735036e+03 +8.1406479675861236e+04 -1.8620779043764815e+07 
+1.4500000000000000e+00 -5.5239318234411261e-01 +7.2677524099169206e+00 +4.6146278703797856e+00 -7.4098451025280866e+01 +3.4862144041958045e+03 +8.3505317101821740e+04 -1.9044087258799892e+07 
+1.5000000000000000e+00 -5.5240246056317921e-01 +7.2682937736421422e+00 +4.6006187263875402e+00 -7.4301205991344958e+01 +3.5413570562989144e+03 +8.5568335010476207e+04 -1.9412939353635941e+07 
+1.5500000000000000e+00 -5.5241206609560101e-01 +7.2688519763892856e+00 +4.5866245136620964e+00 -7.4492383348506323e+01 +3.5869821765472925e+03 +8.7591777159239471e+04 -1.9724212765681297e+07 
+1.6000000000000001e+00 -5.5242199829968242e-01 +7.2694269337811113e+00 +4.5726686238541099e+00 -7.4671339778933074e+01 +3.6225681277617505e+03 +8.9571887356003281e+04 -1.9974786076724898e+07 
+1.6499999999999999e+00 -5.5243225653377204e-01 +7.2700185614385155e+00 +4.5587744541406563e+00 -7.4837431852769555e+01 +3.6475931212435603e+03 +9.1504908450084185e+04 -2.0161536835135147e+07 
+1.7000000000000000e+00 -5.5244284015621548e-01 +7.2706267749815137e+00 +4.5449653987882765e+00 -7.4990016083554465e+01 +3.6615354468011251e+03 +9.3387082843587414e+04 -2.0281343119714119e+07 
+1.7500000000000000e+00 -5.5245374852536733e-01 +7.2712514900348530e+00 +4.5312648518253882e+00 -7.5128449156489495e+01 +3.6638733955826738e+03 +9.5214654367964657e+04 -2.0331083000789404e+07 
+1.8000000000000000e+00 -5.5246498099957775e-01 +7.2718926222127021e+00 +4.5176962086615751e+00 -7.5252087279179563e+01 +3.6540852230039859e+03 +9.6983862866308424e+04 -2.0307634311956294e+07 
+1.8500000000000001e+00 -5.5247653693725773e-01 +7.2725500871382502e+00 +4.5042828638096193e+00 -7.5360287020691203e+01 +3.6316492081237889e+03 +9.8690951207396516e+04 -2.0207875046792660e+07 
+1.8999999999999999e+00 -5.5248841569684337e-01 +7.2732238004286227e+00 +4.4910482145258541e+00 -7.5452404662343213e+01 +3.5960435497033600e+03 +1.0033215984813735e+05 -2.0028682632137768e+07 
+1.9500000000000000e+00 -5.5250061663666705e-01 +7.2739136777024438e+00 +4.4780156511640730e+00 -7.5527796524770977e+01 +3.5467466358705860e+03 +1.0190372959970358e+05 -1.9766935786758330e+07 
+2.0000000000000000e+00 -5.5251313911519073e-01 +7.2746196345747540e+00 +4.4652085709837150e+00 -7.5585818757911952e+01 +3.4832366622212367e+03 +1.0340189987165833e+05 -1.9419511902301896e+07 
+2.0499999999999998e+00 -5.5252598224743699e-01 +7.2753415821098768e+00 +4.4526422622291655e+00 -7.5625948443127740e+01 +3.4051940148289264e+03 +1.0482334321826838e+05 -1.8984498702446152e+07 
+2.1000000000000001e+00 -5.5253914417116057e-01 +7.2760794160596900e+00 +4.4402991811346375e+00 -7.5648178075028000e+01 +3.3131151722613686e+03 +1.0616650389455419e+05 -1.8464865754291926e+07 
+2.1499999999999999e+00 -5.5255262277876283e-01 +7.2768330259190632e+00 +4.4281536586258197e+00 -7.5652641045166959e+01 +3.2077025789939980e+03 +1.0743027400975618e+05 -1.7864813302818865e+07 
+2.2000000000000002e+00 -5.5256641596271672e-01 +7.2776023011920818e+00 +4.4161800221144834e+00 -7.5639471106783674e+01 +3.0896587763195530e+03 +1.0861354860691669e+05 -1.7188542250432327e+07 
+2.2500000000000000e+00 -5.5258052161548254e-01 +7.2783871313780857e+00 +4.4043525998078037e+00 -7.5608801795030260e+01 +2.9596862831250314e+03 +1.0971522090292096e+05 -1.6440253345625430e+07 
+2.2999999999999998e+00 -5.5259493762956957e-01 +7.2791874059806130e+00 +4.3926457215805401e+00 -7.5560766813645117e+01 +2.8184875753525002e+03 +1.1073418553781667e+05 -1.5624147051631093e+07 
+2.3500000000000001e+00 -5.5260966189740435e-01 +7.2800030145015491e+00 +4.3810337154184111e+00 -7.5495499771510012e+01 +2.6667651767864413e+03 +1.1166933633568007e+05 -1.4744424144813210e+07 
+2.3999999999999999e+00 -5.5262469231150380e-01 +7.2808338464460629e+00 +4.3694909088339102e+00 -7.5413134405766229e+01 +2.5052216275005530e+03 +1.1251956818079665e+05 -1.3805285521629620e+07 
+2.4500000000000002e+00 -5.5264002676434620e-01 +7.2816797913174973e+00 +4.3579916305625401e+00 -7.5313804365645936e+01 +2.3345594317471246e+03 +1.1328377525025865e+05 -1.2810931826469241e+07 
+2.5000000000000000e+00 -5.5265566314849690e-01 +7.2825407386250003e+00 +4.3465102088934566e+00 -7.5197643519682799e+01 +2.1554811067471846e+03 +1.1396085347156633e+05 -1.1765563794709120e+07 
+2.5499999999999998e+00 -5.5267159935644838e-01 +7.2834165778740516e+00 +4.3350209714771548e+00 -7.5064785580753437e+01 +1.9686891867678369e+03 +1.1454969753971370e+05 -1.0673382273868348e+07 
+2.6000000000000001e+00 -5.5268783328071769e-01 +7.2843071985711401e+00 +4.3234982484170619e+00 -7.4915364285052206e+01 +1.7748861419834764e+03 +1.1504920230464343e+05 -9.5385876861173455e+06 
+2.6499999999999999e+00 -5.5270436281387691e-01 +7.2852124902281581e+00 +4.3119163642659890e+00 -7.4749513592926334e+01 +1.5747745886125247e+03 +1.1545826449041034e+05 -8.3653814236224405e+06 
+2.7000000000000002e+00 -5.5272118584843355e-01 +7.2861323423553364e+00 +4.3002496488018886e+00 -7.4567367356863599e+01 +1.3690570060894636e+03 +1.1577577984423222e+05 -7.1579639717709171e+06 
+2.7500000000000000e+00 -5.5273830027696680e-01 +7.2870666444632244e+00 +4.2884724291345178e+00 -7.4369059467479516e+01 +1.1584359449214376e+03 +1.1600064453342004e+05 -5.9205362907222817e+06 
+2.7999999999999998e+00 -5.5275570399207363e-01 +7.2880152860664289e+00 +4.2765590336179917e+00 -7.4154723947922363e+01 +9.4361392273184401e+02 +1.1613175572253446e+05 -4.6572991180604389e+06 
+2.8500000000000001e+00 -5.5277339488626798e-01 +7.2889781566792049e+00 +4.2644837888922948e+00 -7.3924494819133088e+01 +7.2529350024398002e+02 +1.1616801063742991e+05 -3.3724534700528346e+06 
+2.8999999999999999e+00 -5.5279137085216568e-01 +7.2899551458187215e+00 +4.2522210234527575e+00 -7.3678506184158536e+01 +5.0417719451912137e+02 +1.1610830705475580e+05 -2.0702000920653001e+06 
+2.9500000000000002e+00 -5.5280962978234949e-01 +7.2909461430026070e+00 +4.2397450637184910e+00 -7.3416892184194182e+01 +2.8096757390572191e+02 +1.1595154316298311e+05 -7.5474005681146786e+05 
+3.0000000000000000e+00 -5.5282816956941550e-01 +7.2919510377469958e+00 +4.2270302362328955e+00 -7.3139786886769457e+01 +5.6367208255832978e+01 +1.1569661651689668e+05 +5.6972553990697092e+05 
+3.0499999999999998e+00 -5.5284698810595101e-01 +7.2929697195755834e+00 +4.2140508698230352e+00 -7.2847324655408613e+01 -1.6892139547349655e+02 +1.1534242708141704e+05 +1.8989960289553979e+06 
+3.1000000000000001e+00 -5.5286608328461662e-01 +7.2940020780087389e+00 +4.2007812908967379e+00 -7.2539639712309082e+01 -3.9419566751417062e+02 +1.1488787362687678e+05 +3.2288703293436090e+06 
+3.1499999999999999e+00 -5.5288545299800551e-01 +7.2950480025729769e+00 +4.1871958260064002e+00 -7.2216866537070388e+01 -6.1875303634440968e+02 +1.1433185710486263e+05 +4.5551473301595934e+06 
+3.2000000000000002e+00 -5.5290509513873587e-01 +7.2961073827925000e+00 +4.1732688005003533e+00 -7.1879139498354974e+01 -8.4189089966716608e+02 +1.1367327748562102e+05 +5.8736257186640687e+06 
+3.2500000000000000e+00 -5.5292500759942986e-01 +7.2971801081949756e+00 +4.1589745434281467e+00 -7.1526593111187779e+01 -1.0629067527602858e+03 +1.1291103598068458e+05 +7.1801048367441818e+06 
+3.2999999999999998e+00 -5.5294518827274219e-01 +7.2982660683091201e+00 +4.1442873795047008e+00 -7.1159361926024246e+01 -1.2810979769158971e+03 +1.1204403405988529e+05 +8.4703832664729357e+06 
+3.3500000000000001e+00 -5.5296563505135954e-01 +7.2993651526669909e+00 +4.1291816370175969e+00 -7.0777580630690963e+01 -1.4957620435367091e+03 +1.1107117431896811e+05 +9.7402601805826593e+06 
+3.3999999999999999e+00 -5.5298634582786710e-01 +7.3004772508012765e+00 +4.1136316397738950e+00 -7.0381383934205004e+01 -1.7061963061143792e+03 +1.0999135953680663e+05 +1.0985533964240117e+07 
+3.4500000000000002e+00 -5.5300731849496465e-01 +7.3016022522467496e+00 +4.0976117160029242e+00 -6.9970906630476918e+01 -1.9116982344386408e+03 +1.0880349316845629e+05 +1.2202003782573637e+07 
+3.5000000000000000e+00 -5.5302855094530745e-01 +7.3027400465419747e+00 +4.0810961900294247e+00 -6.9546283671974578e+01 -2.1115651953884576e+03 +1.0750647997966727e+05 +1.3385468116745185e+07 
+3.5499999999999998e+00 -5.5305004107157607e-01 +7.3038905232242968e+00 +4.0640593890488734e+00 -6.9107649957651034e+01 -2.3050946266127057e+03 +1.0609922428936834e+05 +1.4531725900275173e+07 
+3.6000000000000001e+00 -5.5307178676646807e-01 +7.3050535718352343e+00 +4.0464756374757060e+00 -6.8655140558231821e+01 -2.4915838920258111e+03 +1.0458063180029790e+05 +1.5636575577528996e+07 
+3.6499999999999999e+00 -5.5309378592258973e-01 +7.3062290819196214e+00 +4.0283192616154002e+00 -6.8188890675727791e+01 -2.6703304092634539e+03 +1.0294960930227704e+05 +1.6695815969673021e+07 
+3.6999999999999900e+00 -5.5311603643270790e-01 +7.3074169430220532e+00 +4.0095645865168494e+00 -6.7709035520198157e+01 -2.8406315559624782e+03 +1.0120506366450099e+05 +1.7705245603594188e+07 
+3.7499999999999898e+00 -5.5313853618949671e-01 +7.3086170446899983e+00 +3.9901859384196547e+00 -6.7215710406825394e+01 -3.0017847416479117e+03 +9.9345902586930024e+04 +1.8660663227984466e+07 
+3.7999999999999901e+00 -5.5316128308562806e-01 +7.3098292764755621e+00 +3.9701576423609239e+00 -6.6709050841755257e+01 -3.1530873425232103e+03 +9.7371035310810868e+04 +1.9557867361360461e+07 
+3.8499999999999899e+00 -5.5318427501384315e-01 +7.3110535279293458e+00 +3.9494540207682522e+00 -6.6189192297587525e+01 -3.2938366653708026e+03 +9.5279370891920931e+04 +2.0392656060976330e+07 
+3.8999999999999901e+00 -5.5320750986681599e-01 +7.3122896886073292e+00 +3.9280494013072045e+00 -6.5656270438127152e+01 -3.4233301525286852e+03 +9.3069819827996951e+04 +2.1160828282395177e+07 
+3.9499999999999900e+00 -5.5323098553731243e-01 +7.3135376480665935e+00 +3.9059181084938528e+00 -6.5110421003757068e+01 -3.5408651608223227e+03 +9.0741293323679682e+04 +2.1858182401639715e+07 
+3.9999999999999898e+00 -5.5325469991798515e-01 +7.3147972958672920e+00 +3.8830344648382633e+00 -6.4551779849113316e+01 -3.6457389959962138e+03 +8.8292703472629306e+04 +2.2480516466308359e+07 
+4.0499999999999901e+00 -5.5327865086271288e-01 +7.3160685131942449e+00 +3.8593805175595133e+00 -6.3980634283319873e+01 -3.7374281984242257e+03 +8.5724451135199095e+04 +2.3024704716480810e+07 
+4.0999999999999899e+00 -5.5330283607161179e-01 +7.3173511404176832e+00 +3.8349700453898690e+00 -6.3397838093491764e+01 -3.8161282780473493e+03 +8.3042812022914804e+04 +2.3491916717224043e+07 
+4.1499999999999897e+00 -5.5332725320676102e-01 +7.3186450058895778e+00 +3.8098250106059401e+00 -6.2804380212281501e+01 -3.8822156296834728e+03 +8.0255525133211675e+04 +2.3884397317908365e+07 
+4.1999999999999904e+00 -5.5335189993042466e-01 +7.3199499379600717e+00 +3.7839673795771533e+00 -6.2201249524986935e+01 -3.9360667518450969e+03 +7.7370329024905150e+04 +2.4204392049253546e+07 
+4.2499999999999902e+00 -5.5337677390472728e-01 +7.3212657649779969e+00 +3.7574191129099064e+00 -6.1589434862418315e+01 -3.9780579904080059e+03 +7.4394961786410204e+04 +2.4454145423185196e+07 
+4.2999999999999901e+00 -5.5340187279184960e-01 +7.3225923152928143e+00 +3.7302021760877624e+00 -6.0969925089723759e+01 -4.0085658187796921e+03 +7.1337161789690144e+04 +2.4635902795738224e+07 
+4.3499999999999899e+00 -5.5342719425396036e-01 +7.3239294172515352e+00 +3.7023385328844225e+00 -6.0343708997177970e+01 -4.0279666649506830e+03 +6.8204666846298045e+04 +2.4751909216475844e+07 
+4.3999999999999897e+00 -5.5345273595319389e-01 +7.3252768992043418e+00 +3.6738501456801362e+00 -5.9711775497397326e+01 -4.0366369197047184e+03 +6.5005215719624961e+04 +2.4804409483934008e+07 
+4.4499999999999904e+00 -5.5347849555179485e-01 +7.3266345894946623e+00 +3.6447589817249146e+00 -5.9075113242428074e+01 -4.0349530976100004e+03 +6.1746545023711253e+04 +2.4795649204621639e+07 
+4.4999999999999902e+00 -5.5350447071189313e-01 +7.3280023164690471e+00 +3.6150870030048305e+00 -5.8434711028624008e+01 -4.0232915772817350e+03 +5.8436392612262338e+04 +2.4727873086532772e+07 
+4.5499999999999901e+00 -5.5353065909565224e-01 +7.3293799084736442e+00 +3.5848561772451069e+00 -5.7791557643320630e+01 -4.0020288870429868e+03 +5.5082496234364640e+04 +2.4603326828005686e+07 
+4.5999999999999899e+00 -5.5355705836525426e-01 +7.3307671938494616e+00 +3.5540884666314367e+00 -5.7146641683899396e+01 -3.9715414076884335e+03 +5.1692592106499622e+04 +2.4424255136887219e+07 
+4.6499999999999897e+00 -5.5358366618288279e-01 +7.3321640009413622e+00 +3.5228058379382299e+00 -5.6500951910413491e+01 -3.9322056372229713e+03 +4.8274417758278520e+04 +2.4192903487442557e+07 
+4.6999999999999904e+00 -5.5361048021073267e-01 +7.3335701580895387e+00 +3.4910302562168214e+00 -5.5855476907172161e+01 -3.8843980322227976e+03 +4.4835709274297231e+04 +2.3911517090374015e+07 
+4.7499999999999902e+00 -5.5363749811093177e-01 +7.3349854936357541e+00 +3.4587836889943531e+00 -5.5211205350235041e+01 -3.8284951105887480e+03 +4.1384203561360016e+04 +2.3582341546746824e+07 
+4.7999999999999901e+00 -5.5366471754566449e-01 +7.3364098359164753e+00 +3.4260881001008383e+00 -5.4569125696670532e+01 -3.7648732932762769e+03 +3.7927635648390940e+04 +2.3207621815554857e+07 
+4.8499999999999899e+00 -5.5369213617709412e-01 +7.3378430132742025e+00 +3.3929654591288938e+00 -5.3930226678134112e+01 -3.6939091481964238e+03 +3.4473742880719758e+04 +2.2789603811257839e+07 
+4.8999999999999897e+00 -5.5371975166744725e-01 +7.3392848540415860e+00 +3.3594377290180599e+00 -5.3295496638482199e+01 -3.6159790678117711e+03 +3.1030259393686069e+04 +2.2330532276822843e+07 
+4.9499999999999904e+00 -5.5374756167880101e-01 +7.3407351865566319e+00 +3.3255268799964979e+00 -5.2665924149824065e+01 -3.5314596423268304e+03 +2.7604921204967566e+04 +2.1832653295592844e+07 
+4.9999999999999902e+00 -5.5377556387339122e-01 +7.3421938391508537e+00 +3.2912548772909025e+00 -5.2042497549880970e+01 -3.4407273191177374e+03 +2.4205462430931057e+04 +2.1298211951839384e+07 
+5.0499999999999901e+00 -5.5380375591569497e-01 +7.3436606329447223e+00 +3.2566440666715386e+00 -5.1426213086401475e+01 -3.3441585484050765e+03 +2.0839619232036097e+04 +2.0729453575325564e+07 
