# multipoles
# s[mm] polynom_b[n=0][T/m^n] polynom_b[n=1][T/m^n] polynom_b[n=2][T/m^n] polynom_b[n=3][T/m^n] polynom_b[n=4][T/m^n] polynom_b[n=5][T/m^n] polynom_b[n=6][T/m^n] 
+0.0000000000000000e+00 -5.5137308621788739e-01 +7.2196336071357941e+00 +6.5404416457073653e+00 -1.4747963552580202e+02 -1.8087683636940237e+04 +7.0686280724462715e+05 +1.1973705949998134e+08 
+5.0000000000000003e-02 -5.5137274586290008e-01 +7.2196443372101129e+00 +6.5508631837085431e+00 -1.4727709956851604e+02 -1.8307953870463607e+04 +7.0682849926013383e+05 +1.2093097087143277e+08 
+1.0000000000000001e-01 -5.5137280591139770e-01 +7.2196772743480109e+00 +6.5606478881682868e+00 -1.4708520810117096e+02 -1.8526424498966066e+04 +7.0690989408499817e+05 +1.2211678263159284e+08 
+1.5000000000000002e-01 -5.5137326554982724e-01 +7.2197323508242421e+00 +6.5697969923024804e+00 -1.4690356816393313e+02 -1.8743042994849191e+04 +7.0710225526751101e+05 +1.2329416193207277e+08 
+2.0000000000000001e-01 -5.5137412396462926e-01 +7.2198094989173418e+00 +6.5783117244357179e+00 -1.4673178691418696e+02 -1.8957756695634027e+04 +7.0740084729668556e+05 +1.2446277500244011e+08 
+2.5000000000000000e-01 -5.5137538034229150e-01 +7.2199086509052046e+00 +6.5861933180992533e+00 -1.4656947144873723e+02 -1.9170513078978751e+04 +7.0780093415394169e+05 +1.2562228901500078e+08 
+2.9999999999999999e-01 -5.5137703386930526e-01 +7.2200297390637687e+00 +6.5934430041575265e+00 -1.4641622876430870e+02 -1.9381259551661100e+04 +7.0829777903500595e+05 +1.2677237066758919e+08 
+3.4999999999999998e-01 -5.5137908373218458e-01 +7.2201726956762453e+00 +6.6000620144128153e+00 -1.4627166610126790e+02 -1.9589943546358987e+04 +7.0888664704384352e+05 +1.2791268683313829e+08 
+3.9999999999999997e-01 -5.5138152911746274e-01 +7.2203374530213393e+00 +6.6060515803997442e+00 -1.4613539050186370e+02 -1.9796512485192539e+04 +7.0956280171961768e+05 +1.2904290430014837e+08 
+4.4999999999999996e-01 -5.5138436921168565e-01 +7.2205239433795709e+00 +6.6114129331086904e+00 -1.4600700903277271e+02 -2.0000913779252256e+04 +7.1032150672373560e+05 +1.3016268979532808e+08 
+4.9999999999999994e-01 -5.5138760320143065e-01 +7.2207320990353434e+00 +6.6161473055532838e+00 -1.4588612890396564e+02 -2.0203094892836900e+04 +7.1115802695024188e+05 +1.3127171040081908e+08 
+5.4999999999999993e-01 -5.5139123027327741e-01 +7.2209618522725245e+00 +6.6202559279564461e+00 -1.4577235726292477e+02 -2.0403003212493197e+04 +7.1206762672353350e+05 +1.3236963266134897e+08 
+5.9999999999999998e-01 -5.5139524961383524e-01 +7.2212131353730227e+00 +6.6237400326864986e+00 -1.4566530114402721e+02 -2.0600586184619129e+04 +7.1304556943055254e+05 +1.3345612353383119e+08 
+6.5000000000000002e-01 -5.5139966040972610e-01 +7.2214858806242281e+00 +6.6266008510787247e+00 -1.4556456777961060e+02 -2.0795791226393070e+04 +7.1408712008760683e+05 +1.3453084977246094e+08 
+7.0000000000000007e-01 -5.5140446184758773e-01 +7.2217800203105993e+00 +6.6288396139665666e+00 -1.4546976425753959e+02 -2.0988565740795766e+04 +7.1518754254005628e+05 +1.3559347803344458e+08 
+7.5000000000000011e-01 -5.5140965311408840e-01 +7.2220954867215204e+00 +6.6304575549103557e+00 -1.4538049781742069e+02 -2.1178857209021411e+04 +7.1634210178053880e+05 +1.3664367551865846e+08 
+8.0000000000000016e-01 -5.5141523339590282e-01 +7.2224322121418654e+00 +6.6314559047945041e+00 -1.4529637550874543e+02 -2.1366613031919984e+04 +7.1754606133530929e+05 +1.3768110885580036e+08 
+8.5000000000000020e-01 -5.5142120187971966e-01 +7.2227901288627754e+00 +6.6318358942016236e+00 -1.4521700459529563e+02 -2.1551780606748449e+04 +7.1879468642355769e+05 +1.3870544466644838e+08 
+9.0000000000000024e-01 -5.5142755775225860e-01 +7.2231691691737847e+00 +6.6315987561906740e+00 -1.4514199224492035e+02 -2.1734307397773035e+04 +7.2008324146713142e+05 +1.3971635002589741e+08 
+9.5000000000000029e-01 -5.5143430020024564e-01 +7.2235692653636976e+00 +6.6307457212964866e+00 -1.4507094556792759e+02 -2.1914140796392370e+04 +7.2140699040219921e+05 +1.4071349149882212e+08 
+1.0000000000000002e+00 -5.5144142841042987e-01 +7.2239903497271287e+00 +6.6292780220516034e+00 -1.4500347188773668e+02 -2.2091228255215479e+04 +7.2276119891870685e+05 +1.4169653609132823e+08 
+1.0500000000000003e+00 -5.5144894156957480e-01 +7.2244323545545734e+00 +6.6271968890902748e+00 -1.4493917833082591e+02 -2.2265517166669622e+04 +7.2414113108178100e+05 +1.4266515037374750e+08 
+1.1000000000000003e+00 -5.5145683886446506e-01 +7.2248952121386578e+00 +6.6245035550938267e+00 -1.4487767208030129e+02 -2.2436954984933822e+04 +7.2554205139380868e+05 +1.4361900135188460e+08 
+1.1500000000000004e+00 -5.5146511948189647e-01 +7.2253788547746831e+00 +6.6211992505668285e+00 -1.4481856040110461e+02 -2.2605489100427836e+04 +7.2695922502057673e+05 +1.4455775558926517e+08 
+1.2000000000000004e+00 -5.5147378260868529e-01 +7.2258832147561378e+00 +6.6172852073848647e+00 -1.4476145046320789e+02 -2.2771066943686303e+04 +7.2838791635825264e+05 +1.4548107992973423e+08 
+1.2500000000000004e+00 -5.5148282743165389e-01 +7.2264082243814851e+00 +6.6127626548601288e+00 -1.4470594961135302e+02 -2.2933635873067113e+04 +7.2982339122527302e+05 +1.4638864072047773e+08 
+1.3000000000000005e+00 -5.5149225313767070e-01 +7.2269538159442588e+00 +6.6076328280749319e+00 -1.4465166495706575e+02 -2.3093143406074330e+04 +7.3126091348039382e+05 +1.4728010539806789e+08 
+1.3500000000000005e+00 -5.5150205891359894e-01 +7.2275199217442205e+00 +6.6018969576241044e+00 -1.4459820384315003e+02 -2.3249536933077645e+04 +7.3269574889157864e+05 +1.4815514051807916e+08 
+1.4000000000000006e+00 -5.5151224394631293e-01 +7.2281064740785084e+00 +6.5955562734512263e+00 -1.4454517348512866e+02 -2.3402763831406239e+04 +7.3412316218767432e+05 +1.4901341256697059e+08 
+1.4500000000000006e+00 -5.5152280742270832e-01 +7.2287134052474498e+00 +6.5886120061819060e+00 -1.4449218119959693e+02 -2.3552771495220350e+04 +7.3553841889936244e+05 +1.4985458814190006e+08 
+1.5000000000000007e+00 -5.5153374852971249e-01 +7.2293406475505204e+00 +6.5810653890414796e+00 -1.4443883424257925e+02 -2.3699507386877624e+04 +7.3693678404642630e+05 +1.5067833429334164e+08 
+1.5500000000000007e+00 -5.5154506645425061e-01 +7.2299881332879892e+00 +6.5729176521228716e+00 -1.4438473988221085e+02 -2.3842918885319621e+04 +7.3831352275198291e+05 +1.5148431751338595e+08 
+1.6000000000000008e+00 -5.5155676038326384e-01 +7.2306557947613035e+00 +6.5641700253790969e+00 -1.4432950541288051e+02 -2.3982953366244674e+04 +7.3966390035822522e+05 +1.5227220427929062e+08 
+1.6500000000000008e+00 -5.5156882950372921e-01 +7.2313435642731259e+00 +6.5548237419010862e+00 -1.4427273813927707e+02 -2.4119558286665175e+04 +7.4098318220806227e+05 +1.5304166160500744e+08 
+1.7000000000000008e+00 -5.5158127300261783e-01 +7.2320513741280585e+00 +6.5448800311509947e+00 -1.4421404544565826e+02 -2.4252681006622006e+04 +7.4226663439224649e+05 +1.5379235585512146e+08 
+1.7500000000000009e+00 -5.5159409006692794e-01 +7.2327791566281006e+00 +6.5343401243111892e+00 -1.4415303457303253e+02 -2.4382268932839208e+04 +7.4350952175068762e+05 +1.5452395371456996e+08 
+1.8000000000000009e+00 -5.5160727988366898e-01 +7.2335268440795657e+00 +6.5232052520188644e+00 -1.4408931291896133e+02 -2.4508269458086710e+04 +7.4470711041083129e+05 +1.5523612177758455e+08 
+1.8500000000000010e+00 -5.5162084163987024e-01 +7.2342943687861228e+00 +6.5114766453135218e+00 -1.4402248774771621e+02 -2.4630629982683899e+04 +7.4585466538988356e+05 +1.5592852667910480e+08 
+1.9000000000000010e+00 -5.5163477452257292e-01 +7.2350816630570849e+00 +6.4991555343315248e+00 -1.4395216654070182e+02 -2.4749297882514347e+04 +7.4694745350018400e+05 +1.5660083489270765e+08 
+1.9500000000000011e+00 -5.5164907771883420e-01 +7.2358886591960285e+00 +6.4862431497484092e+00 -1.4387795651578296e+02 -2.4864220552274659e+04 +7.4798073935466981e+05 +1.5725271303878048e+08 
+2.0000000000000009e+00 -5.5166375041573135e-01 +7.2367152895133540e+00 +6.4727407223213484e+00 -1.4379946515238800e+02 -2.4975345379904862e+04 +7.4894978973093478e+05 +1.5788382765882939e+08 
+2.0500000000000007e+00 -5.5167879156692501e-01 +7.2375614693590853e+00 +6.4586494119441600e+00 -1.4371633356514073e+02 -2.5082605845029437e+04 +7.4985062843734457e+05 +1.5849374370664185e+08 
+2.1000000000000005e+00 -5.5169419919255092e-01 +7.2384270403267070e+00 +6.4439705975160422e+00 -1.4362835932810611e+02 -2.5185879757254326e+04 +7.5068240275606525e+05 +1.5908160574155799e+08 
+2.1500000000000004e+00 -5.5170997107937603e-01 +7.2393118240937264e+00 +6.4287058410816265e+00 -1.4353538556051120e+02 -2.5285030787008804e+04 +7.5144506752854609e+05 +1.5964644842880633e+08 
+2.2000000000000002e+00 -5.5172610501421160e-01 +7.2402156423396624e+00 +6.4128567102468850e+00 -1.4343725546432262e+02 -2.5379922752042501e+04 +7.5213857831135427e+05 +1.6018730741756096e+08 
+2.2500000000000000e+00 -5.5174259878385734e-01 +7.2411383167431032e+00 +6.3964247686279423e+00 -1.4333381220101370e+02 -2.5470419365129106e+04 +7.5276289036681317e+05 +1.6070321765920478e+08 
+2.2999999999999998e+00 -5.5175945017513650e-01 +7.2420796689860980e+00 +6.3794115815582151e+00 -1.4322489903930745e+02 -2.5556384385308924e+04 +7.5331795976066776e+05 +1.6119321441900280e+08 
+2.3499999999999996e+00 -5.5177665697487988e-01 +7.2430395207488631e+00 +6.3618187134958006e+00 -1.4311035919306229e+02 -2.5637681542274186e+04 +7.5380374224304943e+05 +1.6165633273825264e+08 
+2.3999999999999995e+00 -5.5179421696992648e-01 +7.2440176937102647e+00 +6.3436477287953545e+00 -1.4299003579047150e+02 -2.5714174572527831e+04 +7.5422019278154895e+05 +1.6209160774363929e+08 
+2.4499999999999993e+00 -5.5181212794712575e-01 +7.2450140095573818e+00 +6.3249001911553204e+00 -1.4286377229993721e+02 -2.5785727187747616e+04 +7.5456726921197725e+05 +1.6249807436520773e+08 
+2.4999999999999991e+00 -5.5183038769335235e-01 +7.2460282899684767e+00 +6.3055776669520345e+00 -1.4273141181318348e+02 -2.5852203174676590e+04 +7.5484492624736740e+05 +1.6287476805022573e+08 
+2.5499999999999989e+00 -5.5184899399546483e-01 +7.2470603566306835e+00 +6.2856817177033149e+00 -1.4259279778540622e+02 -2.5913466186406800e+04 +7.5505312164711009e+05 +1.6322072333141261e+08 
+2.5999999999999988e+00 -5.5186794464035782e-01 +7.2481100312271707e+00 +6.2652139097414947e+00 -1.4244777349211239e+02 -2.5969380012649373e+04 +7.5519181165277283e+05 +1.6353497569187129e+08 
+2.6499999999999986e+00 -5.5188723741492818e-01 +7.2491771354417516e+00 +6.2441758073256493e+00 -1.4229618225297708e+02 -2.6019808378163016e+04 +7.5526095298389148e+05 +1.6381656013864893e+08 
+2.6999999999999984e+00 -5.5190687010607975e-01 +7.2502614909609129e+00 +6.2225689744856227e+00 -1.4213786746564040e+02 -2.6064615007438042e+04 +7.5526050291996519e+05 +1.6406451170082456e+08 
+2.7499999999999982e+00 -5.5192684050072005e-01 +7.2513629194686748e+00 +6.2003949746116760e+00 -1.4197267244968285e+02 -2.6103663610610540e+04 +7.5519041821943433e+05 +1.6427786531802481e+08 
+2.7999999999999980e+00 -5.5194714638577769e-01 +7.2524812426545635e+00 +6.1776553723983723e+00 -1.4180044072082876e+02 -2.6136817926872380e+04 +7.5505065716997068e+05 +1.6445565610300258e+08 
+2.8499999999999979e+00 -5.5196778554818615e-01 +7.2536162822035921e+00 +6.1543517317439242e+00 -1.4162101563690433e+02 -2.6163941675727350e+04 +7.5484117690126353e+05 +1.6459691904310530e+08 
+2.8999999999999977e+00 -5.5198875577487949e-01 +7.2547678598047396e+00 +6.1304856156407990e+00 -1.4143424068824982e+02 -2.6184898554707546e+04 +7.5456193554854207e+05 +1.6470068898081878e+08 
+2.9499999999999975e+00 -5.5201005485281140e-01 +7.2559357971460274e+00 +6.1060585883866700e+00 -1.4123995935478766e+02 -2.6199552296094778e+04 +7.5421289129432163e+05 +1.6476600099516982e+08 
+2.9999999999999973e+00 -5.5203168056893870e-01 +7.2571199159153457e+00 +6.0810722135068582e+00 -1.4103801509029876e+02 -2.6207766609900471e+04 +7.5379400205652497e+05 +1.6479189000505427e+08 
+3.0499999999999972e+00 -5.5205363071022950e-01 +7.2583200378056656e+00 +6.0555280551186614e+00 -1.4082825156358101e+02 -2.6209405225767125e+04 +7.5330522757057170e+05 +1.6477739107674745e+08 
+3.0999999999999970e+00 -5.5207590306366505e-01 +7.2595359845028353e+00 +6.0294276779379574e+00 -1.4061051215649658e+02 -2.6204331885536641e+04 +7.5274652524981333e+05 +1.6472153933927163e+08 
+3.1499999999999968e+00 -5.5209849541620204e-01 +7.2607675777005394e+00 +6.0027726409305391e+00 -1.4038464057703433e+02 -2.6192410177162401e+04 +7.5211785523609200e+05 +1.6462336888858113e+08 
+3.1999999999999966e+00 -5.5212140555485911e-01 +7.2620146390882558e+00 +5.9755645132321691e+00 -1.4015048035644290e+02 -2.6173503969668025e+04 +7.5141917621174757e+05 +1.6448191574213913e+08 
+3.2499999999999964e+00 -5.5214463126661295e-01 +7.2632769903593175e+00 +5.9478048545127216e+00 -1.3990787519849988e+02 -2.6147476867764526e+04 +7.5065044835591712e+05 +1.6429621409432074e+08 
+3.2999999999999963e+00 -5.5216817033846810e-01 +7.2645544532043207e+00 +5.9194952283974072e+00 -1.3965666869585337e+02 -2.6114192588093727e+04 +7.4981163094502408e+05 +1.6406529891553703e+08 
+3.3499999999999961e+00 -5.5219202055743877e-01 +7.2658468493148574e+00 +5.8906371986651473e+00 -1.3939670448550436e+02 -2.6073514849493666e+04 +7.4890268365730357e+05 +1.6378820518279117e+08 
+3.3999999999999959e+00 -5.5221617971053993e-01 +7.2671540003894615e+00 +5.8612323288410453e+00 -1.3912782649628838e+02 -2.6025307370302799e+04 +7.4792356859688892e+05 +1.6346396788939884e+08 
+3.4499999999999957e+00 -5.5224064558478947e-01 +7.2684757281160337e+00 +5.8312821810409226e+00 -1.3884987823768657e+02 -2.5969433824103035e+04 +7.4687424450140819e+05 +1.6309162169935408e+08 
+3.4999999999999956e+00 -5.5226541596721490e-01 +7.2698118541912216e+00 +5.8007883181554130e+00 -1.3856270357873132e+02 -2.5905757909867636e+04 +7.4575467307210830e+05 +1.6267020146602672e+08 
+3.5499999999999954e+00 -5.5229048864485075e-01 +7.2711622003110437e+00 +5.7697523031613676e+00 -1.3826614637220501e+02 -2.5834143326045396e+04 +7.4456481591439480e+05 +1.6219874202232707e+08 
+3.5999999999999952e+00 -5.5231586140474320e-01 +7.2725265881684829e+00 +5.7381757006423317e+00 -1.3796005035264290e+02 -2.5754453820549399e+04 +7.4330463369254896e+05 +1.6167627855856201e+08 
+3.6499999999999950e+00 -5.5234153203391156e-01 +7.2739048394601973e+00 +5.7060600688574512e+00 -1.3764425943108839e+02 -2.5666552967115258e+04 +7.4197408862554142e+05 +1.6110184507134876e+08 
+3.6999999999999948e+00 -5.5236749831942744e-01 +7.2752967758831719e+00 +5.6734069742134041e+00 -1.3731861752974763e+02 -2.5570304556232022e+04 +7.4057314300216828e+05 +1.6047447700873050e+08 
+3.7499999999999947e+00 -5.5239375804833413e-01 +7.2767022191331128e+00 +5.6402179779856425e+00 -1.3698296852729004e+02 -2.5465572250350488e+04 +7.3910175879756047e+05 +1.5979320899090415e+08 
+3.7999999999999945e+00 -5.5242030900769112e-01 +7.2781209909066904e+00 +5.6064946427887188e+00 -1.3663715638283290e+02 -2.5352219739673001e+04 +7.3755989879718516e+05 +1.5905707579042697e+08 
+3.8499999999999943e+00 -5.5244714898455149e-01 +7.2795529129009138e+00 +5.5722385294295549e+00 -1.3628102504864449e+02 -2.5230110668183268e+04 +7.3594752563716948e+05 +1.5826511187391147e+08 
+3.8999999999999941e+00 -5.5247427576598152e-01 +7.2809978068156509e+00 +5.5374512007061751e+00 -1.3591441863318298e+02 -2.5099108740247735e+04 +7.3426460339101276e+05 +1.5741635214213946e+08 
+3.9499999999999940e+00 -5.5250168713906322e-01 +7.2824554943473503e+00 +5.5021342206186823e+00 -1.3553718110558162e+02 -2.4959077682359119e+04 +7.3251109496160795e+05 +1.5650983159954318e+08 
+3.9999999999999938e+00 -5.5252938089085069e-01 +7.2839257971953453e+00 +5.4662891487195528e+00 -1.3514915657711515e+02 -2.4809881112744773e+04 +7.3068696453541482e+05 +1.5554458456243783e+08 
+4.0499999999999936e+00 -5.5255735469329958e-01 +7.2854085407733677e+00 +5.4299201399020740e+00 -1.3475039025223444e+02 -2.4651469345535155e+04 +7.2879333557409595e+05 +1.5452022558213952e+08 
+4.0999999999999934e+00 -5.5258560575901083e-01 +7.2869035564514828e+00 +5.3930418128275921e+00 -1.3434162562969169e+02 -2.4484135902987869e+04 +7.2683537826166069e+05 +1.5343867756336465e+08 
+4.1499999999999932e+00 -5.5261413118605440e-01 +7.2884106748698123e+00 +5.3556714581735632e+00 -1.3392375498065735e+02 -2.4308259730061989e+04 +7.2481912267416704e+05 +1.5230244046252021e+08 
+4.1999999999999931e+00 -5.5264292807250615e-01 +7.2899297266687233e+00 +5.3178263679880482e+00 -1.3349767056459052e+02 -2.4124219811691753e+04 +7.2275059861960576e+05 +1.5111401452202606e+08 
+4.2499999999999929e+00 -5.5267199351645480e-01 +7.2914605424862131e+00 +5.2795238360130838e+00 -1.3306426456402653e+02 -2.3932395176319606e+04 +7.2063583534144168e+05 +1.4987590026989162e+08 
+4.2999999999999927e+00 -5.5270132461598465e-01 +7.2930029529641622e+00 +5.2407811545887846e+00 -1.3262442929609281e+02 -2.3733164811249993e+04 +7.1848086308120226e+05 +1.4859059794671476e+08 
+4.3499999999999925e+00 -5.5273091846918343e-01 +7.2945567887390226e+00 +5.2016156167361718e+00 -1.3217905685476399e+02 -2.3526907723304626e+04 +7.1629171021913073e+05 +1.4726060792644212e+08 
+4.3999999999999924e+00 -5.5276077217414676e-01 +7.2961218804477417e+00 +5.1620445168572564e+00 -1.3172903935025278e+02 -2.3314002957776967e+04 +7.1407440523627994e+05 +1.4588843084840980e+08 
+4.4499999999999922e+00 -5.5279088282894606e-01 +7.2976980587297477e+00 +5.1220851445214839e+00 -1.3127526898781389e+02 -2.3094829426733086e+04 +7.1183497735352127e+05 +1.4447656644343239e+08 
+4.4999999999999920e+00 -5.5282124753170625e-01 +7.2992851542199739e+00 +5.0817547986886407e+00 -1.3081863778094583e+02 -2.2869766291652111e+04 +7.0957945415235194e+05 +1.4302751611016005e+08 
+4.5499999999999918e+00 -5.5285186338050840e-01 +7.3008829975559308e+00 +5.0410707708349172e+00 -1.3036003785123961e+02 -2.2639192517454714e+04 +7.0731386409508227e+05 +1.4154377994254792e+08 
+4.5999999999999917e+00 -5.5288272747344558e-01 +7.3024914193717807e+00 +5.0000503543474260e+00 -1.2990036116897096e+02 -2.2403487116851880e+04 +7.0504423432041472e+05 +1.4002785834118971e+08 
+4.6499999999999915e+00 -5.5291383690862206e-01 +7.3041102503030775e+00 +4.9587108445749095e+00 -1.2944049976106260e+02 -2.2163029153721916e+04 +7.0277659239687247e+05 +1.3848225204796347e+08 
+4.6999999999999913e+00 -5.5294518878414656e-01 +7.3057393209836512e+00 +4.9170695378519387e+00 -1.2898134557077935e+02 -2.1918197718218904e+04 +7.0051696513193264e+05 +1.3690946197940555e+08 
+4.7499999999999911e+00 -5.5297678019809882e-01 +7.3073784620461240e+00 +4.8751437252826326e+00 -1.2852379050299589e+02 -2.1669371757433779e+04 +6.9827137902142538e+05 +1.3531198808088604e+08 
+4.7999999999999909e+00 -5.5300860824860387e-01 +7.3090275041234873e+00 +4.8329507064328947e+00 -1.2806872645477497e+02 -2.1416930448695086e+04 +6.9604586038412340e+05 +1.3369233186156897e+08 
+4.8499999999999908e+00 -5.5304067003375335e-01 +7.3106862778457788e+00 +4.7905077751912710e+00 -1.2761704520508906e+02 -2.1161252813257292e+04 +6.9384643453310931e+05 +1.3205299376253425e+08 
+4.8999999999999906e+00 -5.5307296265164341e-01 +7.3123546138468463e+00 +4.7478322263673052e+00 -1.2716963868852710e+02 -2.0902717896211456e+04 +6.9167912803052447e+05 +1.3039647438466626e+08 
+4.9499999999999904e+00 -5.5310548320037889e-01 +7.3140323427529239e+00 +4.7049413567140359e+00 -1.2672739851167201e+02 -2.0641704794433976e+04 +6.8954996463554492e+05 +1.2872527467746140e+08 
+4.9999999999999902e+00 -5.5313822877806462e-01 +7.3157192951947740e+00 +4.6618524632961744e+00 -1.2629121647304173e+02 -2.0378592612390963e+04 +6.8746496967304801e+05 +1.2704189563900979e+08 
+5.0499999999999901e+00 -5.5317119648280089e-01 +7.3174153017997927e+00 +4.6185828427967586e+00 -1.2586198422087557e+02 -2.0113760441115974e+04 +6.8543016714138968e+05 +1.2534883816250271e+08 
