# field on trajectory
# s[mm] rx[mm] ry[mm] rz[mm] bx[T] by[T] bz[T]
0.0000000000000000e+00 +8.5389999999999997e+00 +0.0000000000000000e+00 +0.0000000000000000e+00 -2.9147607255297449e-02 -5.4998635358636272e-01 +5.3378667407123249e-03
-5.0000000000000003e-02 +8.5389999310722047e+00 +0.0000000000000000e+00 -4.9999999999936658e-02 -2.9148098924719364e-02 -5.4999399796019965e-01 +5.3394169729683843e-03
-1.0000000000000001e-01 +8.5389997242875282e+00 +0.0000000000000000e+00 -9.9999999999493216e-02 -2.9148613836698648e-02 -5.5000201818742578e-01 +5.3409692332135614e-03
-1.5000000000000002e-01 +8.5389993796439594e+00 +0.0000000000000000e+00 -1.4999999999828958e-01 -2.9149151838366711e-02 -5.5001041280217033e-01 +5.3425234123030303e-03
-2.0000000000000001e-01 +8.5389988971393933e+00 +0.0000000000000000e+00 -1.9999999999594564e-01 -2.9149712776854804e-02 -5.5001918033858144e-01 +5.3440794010921342e-03
-2.5000000000000000e-01 +8.5389982767716344e+00 +0.0000000000000000e+00 -2.4999999999208125e-01 -2.9150296499294074e-02 -5.5002831933082375e-01 +5.3456370904363783e-03
-2.9999999999999999e-01 +8.5389975185383911e+00 +0.0000000000000000e+00 -2.9999999998631621e-01 -2.9150902852815578e-02 -5.5003782831307979e-01 +5.3471963711913843e-03
-3.4999999999999998e-01 +8.5389966224372795e+00 +0.0000000000000000e+00 -3.4999999997827042e-01 -2.9151531684550345e-02 -5.5004770581954832e-01 +5.3487571342128951e-03
-3.9999999999999997e-01 +8.5389955884658235e+00 +0.0000000000000000e+00 -3.9999999996756364e-01 -2.9152182841629393e-02 -5.5005795038444660e-01 +5.3503192703567327e-03
-4.4999999999999996e-01 +8.5389944166214562e+00 +0.0000000000000000e+00 -4.4999999995381562e-01 -2.9152856171183801e-02 -5.5006856054200692e-01 +5.3518826704787937e-03
-4.9999999999999994e-01 +8.5389931069015184e+00 +0.0000000000000000e+00 -4.9999999993664612e-01 -2.9153551520344705e-02 -5.5007953482647831e-01 +5.3534472254350143e-03
-5.4999999999999993e-01 +8.5389916593032584e+00 +0.0000000000000000e+00 -5.4999999991567483e-01 -2.9154268736243393e-02 -5.5009087177212657e-01 +5.3550128260813562e-03
-5.9999999999999998e-01 +8.5389900738238360e+00 +0.0000000000000000e+00 -5.9999999989052155e-01 -2.9155007666011295e-02 -5.5010256991323336e-01 +5.3565793632737915e-03
-6.5000000000000002e-01 +8.5389883504603183e+00 +0.0000000000000000e+00 -6.4999999986080592e-01 -2.9155768156780032e-02 -5.5011462778409559e-01 +5.3581467278682616e-03
-7.0000000000000007e-01 +8.5389864892096821e+00 +0.0000000000000000e+00 -6.9999999982614758e-01 -2.9156550055681484e-02 -5.5012704391902578e-01 +5.3597148107206822e-03
-7.5000000000000011e-01 +8.5389844900688168e+00 +0.0000000000000000e+00 -7.4999999978616605e-01 -2.9157353209847820e-02 -5.5013981685235269e-01 +5.3612835026869065e-03
-8.0000000000000016e-01 +8.5389823530345197e+00 +0.0000000000000000e+00 -7.9999999974048108e-01 -2.9158177466411476e-02 -5.5015294511841917e-01 +5.3628526946226992e-03
-8.5000000000000020e-01 +8.5389800781035010e+00 +0.0000000000000000e+00 -8.4999999968871209e-01 -2.9159022672505291e-02 -5.5016642725158316e-01 +5.3644222773837312e-03
-9.0000000000000024e-01 +8.5389776652723803e+00 +0.0000000000000000e+00 -8.9999999963047872e-01 -2.9159888675262511e-02 -5.5018026178621759e-01 +5.3659921418255478e-03
-9.5000000000000029e-01 +8.5389751145376920e+00 +0.0000000000000000e+00 -9.4999999956540038e-01 -2.9160775321816775e-02 -5.5019444725670963e-01 +5.3675621788035477e-03
-1.0000000000000002e+00 +8.5389724258958797e+00 +0.0000000000000000e+00 -9.9999999949309659e-01 -2.9161682459302233e-02 -5.5020898219746095e-01 +5.3691322791729647e-03
-1.0500000000000003e+00 +8.5389695993433001e+00 +0.0000000000000000e+00 -1.0499999994131868e+00 -2.9162609934853537e-02 -5.5022386514288657e-01 +5.3707023337888522e-03
-1.1000000000000003e+00 +8.5389666348762212e+00 +0.0000000000000000e+00 -1.0999999993252902e+00 -2.9163557595605891e-02 -5.5023909462741583e-01 +5.3722722335060469e-03
-1.1500000000000004e+00 +8.5389635324908273e+00 +0.0000000000000000e+00 -1.1499999992290264e+00 -2.9164525288695127e-02 -5.5025466918549171e-01 +5.3738418691791643e-03
-1.2000000000000004e+00 +8.5389602921832157e+00 +0.0000000000000000e+00 -1.1999999991240147e+00 -2.9165512861257653e-02 -5.5027058735157031e-01 +5.3754111316625620e-03
-1.2500000000000004e+00 +8.5389569139493950e+00 +0.0000000000000000e+00 -1.2499999990098742e+00 -2.9166520160430601e-02 -5.5028684766012081e-01 +5.3769799118103352e-03
-1.3000000000000005e+00 +8.5389533977852903e+00 +0.0000000000000000e+00 -1.2999999988862243e+00 -2.9167547033351809e-02 -5.5030344864562541e-01 +5.3785481004762813e-03
-1.3500000000000005e+00 +8.5389497436867394e+00 +0.0000000000000000e+00 -1.3499999987526841e+00 -2.9168593327159847e-02 -5.5032038884257917e-01 +5.3801155885138882e-03
-1.4000000000000006e+00 +8.5389459516494988e+00 +0.0000000000000000e+00 -1.3999999986088727e+00 -2.9169658888994084e-02 -5.5033766678548957e-01 +5.3816822667763029e-03
-1.4500000000000006e+00 +8.5389420216692358e+00 +0.0000000000000000e+00 -1.4499999984544094e+00 -2.9170743565994747e-02 -5.5035528100887587e-01 +5.3832480261163237e-03
-1.5000000000000007e+00 +8.5389379537415362e+00 +0.0000000000000000e+00 -1.4999999982889132e+00 -2.9171847205302900e-02 -5.5037323004726979e-01 +5.3848127573863690e-03
-1.5500000000000007e+00 +8.5389337478619005e+00 +0.0000000000000000e+00 -1.5499999981120032e+00 -2.9172969654060542e-02 -5.5039151243521545e-01 +5.3863763514384599e-03
-1.6000000000000008e+00 +8.5389294040257457e+00 +0.0000000000000000e+00 -1.5999999979232982e+00 -2.9174110759410610e-02 -5.5041012670726752e-01 +5.3879386991241979e-03
-1.6500000000000008e+00 +8.5389249222284072e+00 +0.0000000000000000e+00 -1.6499999977224171e+00 -2.9175270368497035e-02 -5.5042907139799235e-01 +5.3894996912947461e-03
-1.7000000000000008e+00 +8.5389203024651366e+00 +0.0000000000000000e+00 -1.6999999975089790e+00 -2.9176448328464780e-02 -5.5044834504196793e-01 +5.3910592188008023e-03
-1.7500000000000009e+00 +8.5389155447311023e+00 +0.0000000000000000e+00 -1.7499999972826028e+00 -2.9177644486459885e-02 -5.5046794617378259e-01 +5.3926171724925868e-03
-1.8000000000000009e+00 +8.5389106490213926e+00 +0.0000000000000000e+00 -1.7999999970429073e+00 -2.9178858689629480e-02 -5.5048787332803550e-01 +5.3941734432198110e-03
-1.8500000000000010e+00 +8.5389056153310108e+00 +0.0000000000000000e+00 -1.8499999967895109e+00 -2.9180090785121873e-02 -5.5050812503933721e-01 +5.3957279218316695e-03
-1.9000000000000010e+00 +8.5389004436548834e+00 +0.0000000000000000e+00 -1.8999999965220327e+00 -2.9181340620086520e-02 -5.5052869984230723e-01 +5.3972804991767997e-03
-1.9500000000000011e+00 +8.5388951339878520e+00 +0.0000000000000000e+00 -1.9499999962400911e+00 -2.9182608041674128e-02 -5.5054959627157618e-01 +5.3988310661032832e-03
-2.0000000000000009e+00 +8.5388896863246782e+00 +0.0000000000000000e+00 -1.9999999959433050e+00 -2.9183892897036698e-02 -5.5057081286178389e-01 +5.4003795134586049e-03
-2.0500000000000007e+00 +8.5388841006600451e+00 +0.0000000000000000e+00 -2.0499999956312926e+00 -2.9185195047404494e-02 -5.5059234793882994e-01 +5.4019257385136254e-03
-2.1000000000000005e+00 +8.5388783769885546e+00 +0.0000000000000000e+00 -2.0999999953036728e+00 -2.9186514410317117e-02 -5.5061419899362163e-01 +5.4034696642345998e-03
-2.1500000000000004e+00 +8.5388725153047300e+00 +0.0000000000000000e+00 -2.1499999949600634e+00 -2.9187850917392396e-02 -5.5063636330832522e-01 +5.4050112200114209e-03
-2.2000000000000002e+00 +8.5388665156030150e+00 +0.0000000000000000e+00 -2.1999999946000832e+00 -2.9189204500249227e-02 -5.5065883816511607e-01 +5.4065503352336564e-03
-2.2500000000000000e+00 +8.5388603778777785e+00 +0.0000000000000000e+00 -2.2499999942233506e+00 -2.9190575090507823e-02 -5.5068162084617966e-01 +5.4080869392905536e-03
-2.2999999999999998e+00 +8.5388541021233078e+00 +0.0000000000000000e+00 -2.2999999938294837e+00 -2.9191962619789544e-02 -5.5070470863370879e-01 +5.4096209615710298e-03
-2.3499999999999996e+00 +8.5388476883338171e+00 +0.0000000000000000e+00 -2.3499999934181011e+00 -2.9193367019717028e-02 -5.5072809880990581e-01 +5.4111523314636810e-03
-2.3999999999999995e+00 +8.5388411365034429e+00 +0.0000000000000000e+00 -2.3999999929888203e+00 -2.9194788221914181e-02 -5.5075178865698105e-01 +5.4126809783567702e-03
-2.4499999999999993e+00 +8.5388344466262485e+00 +0.0000000000000000e+00 -2.4499999925412599e+00 -2.9196226158006204e-02 -5.5077577545715339e-01 +5.4142068316382248e-03
-2.4999999999999991e+00 +8.5388276186962209e+00 +0.0000000000000000e+00 -2.4999999920750375e+00 -2.9197680759619631e-02 -5.5080005649264918e-01 +5.4157298206956514e-03
-2.5499999999999989e+00 +8.5388206527072743e+00 +0.0000000000000000e+00 -2.5499999915897718e+00 -2.9199151958382359e-02 -5.5082462904570317e-01 +5.4172498749163077e-03
-2.5999999999999988e+00 +8.5388135486532502e+00 +0.0000000000000000e+00 -2.5999999910850802e+00 -2.9200639685923627e-02 -5.5084949039855735e-01 +5.4187669236871322e-03
-2.6499999999999986e+00 +8.5388063065279169e+00 +0.0000000000000000e+00 -2.6499999905605804e+00 -2.9202143873874115e-02 -5.5087463783346113e-01 +5.4202808963947123e-03
-2.6999999999999984e+00 +8.5387989263249722e+00 +0.0000000000000000e+00 -2.6999999900158906e+00 -2.9203664453865873e-02 -5.5090006863267071e-01 +5.4217917224253006e-03
-2.7499999999999982e+00 +8.5387914080380405e+00 +0.0000000000000000e+00 -2.7499999894506284e+00 -2.9205201357532500e-02 -5.5092578007845028e-01 +5.4232993311648095e-03
-2.7999999999999980e+00 +8.5387837516606773e+00 +0.0000000000000000e+00 -2.7999999888644114e+00 -2.9206754516508966e-02 -5.5095176945306956e-01 +5.4248036519988080e-03
-2.8499999999999979e+00 +8.5387759571863686e+00 +0.0000000000000000e+00 -2.8499999882568572e+00 -2.9208323862431815e-02 -5.5097803403880574e-01 +5.4263046143125191e-03
-2.8999999999999977e+00 +8.5387680246085313e+00 +0.0000000000000000e+00 -2.8999999876275835e+00 -2.9209909326939103e-02 -5.5100457111794188e-01 +5.4278021474908240e-03
-2.9499999999999975e+00 +8.5387599539205148e+00 +0.0000000000000000e+00 -2.9499999869762075e+00 -2.9211510841670410e-02 -5.5103137797276691e-01 +5.4292961809182467e-03
-2.9999999999999973e+00 +8.5387517451155990e+00 +0.0000000000000000e+00 -2.9999999863023468e+00 -2.9213128338266954e-02 -5.5105845188557689e-01 +5.4307866439789769e-03
-3.0499999999999972e+00 +8.5387433981869982e+00 +0.0000000000000000e+00 -3.0499999856056186e+00 -2.9214761748371496e-02 -5.5108579013867187e-01 +5.4322734660568334e-03
-3.0999999999999970e+00 +8.5387349131278611e+00 +0.0000000000000000e+00 -3.0999999848856405e+00 -2.9216411003628481e-02 -5.5111339001435888e-01 +5.4337565765352983e-03
-3.1499999999999968e+00 +8.5387262899312688e+00 +0.0000000000000000e+00 -3.1499999841420294e+00 -2.9218076035683983e-02 -5.5114124879494941e-01 +5.4352359047974939e-03
-3.1999999999999966e+00 +8.5387175285902384e+00 +0.0000000000000000e+00 -3.1999999833744024e+00 -2.9219756776185754e-02 -5.5116936376276049e-01 +5.4367113802261833e-03
-3.2499999999999964e+00 +8.5387086290977230e+00 +0.0000000000000000e+00 -3.2499999825823767e+00 -2.9221453156783265e-02 -5.5119773220011348e-01 +5.4381829322037714e-03
-3.2999999999999963e+00 +8.5386995914466119e+00 +0.0000000000000000e+00 -3.2999999817655694e+00 -2.9223165109127720e-02 -5.5122635138933540e-01 +5.4396504901123065e-03
-3.3499999999999961e+00 +8.5386904156297341e+00 +0.0000000000000000e+00 -3.3499999809235974e+00 -2.9224892564872065e-02 -5.5125521861275661e-01 +5.4411139833334754e-03
-3.3999999999999959e+00 +8.5386811016398507e+00 +0.0000000000000000e+00 -3.3999999800560774e+00 -2.9226635455671061e-02 -5.5128433115271269e-01 +5.4425733412485962e-03
-3.4499999999999957e+00 +8.5386716494696664e+00 +0.0000000000000000e+00 -3.4499999791626261e+00 -2.9228393713181245e-02 -5.5131368629154254e-01 +5.4440284932386271e-03
-3.4999999999999956e+00 +8.5386620591118234e+00 +0.0000000000000000e+00 -3.4999999782428604e+00 -2.9230167269061004e-02 -5.5134328131158938e-01 +5.4454793686841583e-03
-3.5499999999999954e+00 +8.5386523305589037e+00 +0.0000000000000000e+00 -3.5499999772963968e+00 -2.9231956054970594e-02 -5.5137311349519991e-01 +5.4469258969654082e-03
-3.5999999999999952e+00 +8.5386424638034306e+00 +0.0000000000000000e+00 -3.5999999763228523e+00 -2.9233760002572124e-02 -5.5140318012472422e-01 +5.4483680074622299e-03
-3.6499999999999950e+00 +8.5386324588378670e+00 +0.0000000000000000e+00 -3.6499999753218431e+00 -2.9235579043529667e-02 -5.5143347848251578e-01 +5.4498056295541018e-03
-3.6999999999999948e+00 +8.5386223156546190e+00 +0.0000000000000000e+00 -3.6999999742929854e+00 -2.9237413109509183e-02 -5.5146400585093125e-01 +5.4512386926201277e-03
-3.7499999999999947e+00 +8.5386120342460359e+00 +0.0000000000000000e+00 -3.7499999732358957e+00 -2.9239262132178624e-02 -5.5149475951232974e-01 +5.4526671260390399e-03
-3.7999999999999945e+00 +8.5386016146044081e+00 +0.0000000000000000e+00 -3.7999999721501903e+00 -2.9241126043207919e-02 -5.5152573674907301e-01 +5.4540908591891868e-03
-3.8499999999999943e+00 +8.5385910567219732e+00 +0.0000000000000000e+00 -3.8499999710354853e+00 -2.9243004774268996e-02 -5.5155693484352519e-01 +5.4555098214485471e-03
-3.8999999999999941e+00 +8.5385803605909096e+00 +0.0000000000000000e+00 -3.8999999698913972e+00 -2.9244898257035846e-02 -5.5158835107805293e-01 +5.4569239421947075e-03
-3.9499999999999940e+00 +8.5385695262033430e+00 +0.0000000000000000e+00 -3.9499999687175418e+00 -2.9246806423184519e-02 -5.5161998273502499e-01 +5.4583331508048834e-03
-3.9999999999999938e+00 +8.5385585535513453e+00 +0.0000000000000000e+00 -3.9999999675135349e+00 -2.9248729204393149e-02 -5.5165182709681104e-01 +5.4597373766558949e-03
-4.0499999999999936e+00 +8.5385474426269354e+00 +0.0000000000000000e+00 -4.0499999662789925e+00 -2.9250666502143047e-02 -5.5168388142776492e-01 +5.4611365584137104e-03
-4.0999999999999934e+00 +8.5385361934220771e+00 +0.0000000000000000e+00 -4.0999999650135308e+00 -2.9252618097120632e-02 -5.5171614292016702e-01 +5.4625306719021244e-03
-4.1499999999999932e+00 +8.5385248059286862e+00 +0.0000000000000000e+00 -4.1499999637167644e+00 -2.9254583739812486e-02 -5.5174860874827802e-01 +5.4639197022342588e-03
-4.1999999999999931e+00 +8.5385132801386252e+00 +0.0000000000000000e+00 -4.1999999623883104e+00 -2.9256563180704073e-02 -5.5178127608635641e-01 +5.4653036345230369e-03
-4.2499999999999929e+00 +8.5385016160437051e+00 +0.0000000000000000e+00 -4.2499999610277834e+00 -2.9258556170279709e-02 -5.5181414210865898e-01 +5.4666824538811614e-03
-4.2999999999999927e+00 +8.5384898136356888e+00 +0.0000000000000000e+00 -4.2999999596347989e+00 -2.9260562459022411e-02 -5.5184720398943976e-01 +5.4680561454211437e-03
-4.3499999999999925e+00 +8.5384778729062880e+00 +0.0000000000000000e+00 -4.3499999582089730e+00 -2.9262581797413902e-02 -5.5188045890294990e-01 +5.4694246942552883e-03
-4.3999999999999924e+00 +8.5384657938471697e+00 +0.0000000000000000e+00 -4.3999999567499204e+00 -2.9264613935934509e-02 -5.5191390402343798e-01 +5.4707880854957119e-03
-4.4499999999999922e+00 +8.5384535764499496e+00 +0.0000000000000000e+00 -4.4499999552572564e+00 -2.9266658625063079e-02 -5.5194753652514839e-01 +5.4721463042543307e-03
-4.4999999999999920e+00 +8.5384412207061970e+00 +0.0000000000000000e+00 -4.4999999537305966e+00 -2.9268715615276924e-02 -5.5198135358232248e-01 +5.4734993356428761e-03
-4.5499999999999918e+00 +8.5384287266074370e+00 +0.0000000000000000e+00 -4.5499999521695553e+00 -2.9270784657051744e-02 -5.5201535236919763e-01 +5.4748471647728947e-03
-4.5999999999999917e+00 +8.5384160941451483e+00 +0.0000000000000000e+00 -4.5999999505737481e+00 -2.9272865500861566e-02 -5.5204953006000679e-01 +5.4761897767557580e-03
-4.6499999999999915e+00 +8.5384033233107637e+00 +0.0000000000000000e+00 -4.6499999489427903e+00 -2.9274957897178638e-02 -5.5208388382897822e-01 +5.4775271567026442e-03
-4.6999999999999913e+00 +8.5383904140956730e+00 +0.0000000000000000e+00 -4.6999999472762957e+00 -2.9277061596473399e-02 -5.5211841085033575e-01 +5.4788592897245733e-03
-4.7499999999999911e+00 +8.5383773664912219e+00 +0.0000000000000000e+00 -4.7499999455738795e+00 -2.9279176349214404e-02 -5.5215310829829789e-01 +5.4801861609323878e-03
-4.7999999999999909e+00 +8.5383641804887134e+00 +0.0000000000000000e+00 -4.7999999438351573e+00 -2.9281301905868216e-02 -5.5218797334707803e-01 +5.4815077554367653e-03
-4.8499999999999908e+00 +8.5383508560794077e+00 +0.0000000000000000e+00 -4.8499999420597426e+00 -2.9283438016899352e-02 -5.5222300317088335e-01 +5.4828240583482202e-03
-4.8999999999999906e+00 +8.5383373932545261e+00 +0.0000000000000000e+00 -4.8999999402472501e+00 -2.9285584432770215e-02 -5.5225819494391526e-01 +5.4841350547770997e-03
-4.9499999999999904e+00 +8.5383237920052473e+00 +0.0000000000000000e+00 -4.9499999383972941e+00 -2.9287740903941060e-02 -5.5229354584036872e-01 +5.4854407298336096e-03
-4.9999999999999902e+00 +8.5383100523227107e+00 +0.0000000000000000e+00 -4.9999999365094894e+00 -2.9289907180869847e-02 -5.5232905303443292e-01 +5.4867410686277925e-03
-5.0499999999999901e+00 +8.5382961741980168e+00 +0.0000000000000000e+00 -5.0499999345834503e+00 -2.9292083014012218e-02 -5.5236471370028917e-01 +5.4880360562695454e-03
-5.0999999999999899e+00 +8.5382821576222270e+00 +0.0000000000000000e+00 -5.0999999326187906e+00 -2.9294268153821405e-02 -5.5240052501211223e-01 +5.4893256778686186e-03
-5.1499999999999897e+00 +8.5382680025863653e+00 +0.0000000000000000e+00 -5.1499999306151238e+00 -2.9296462350748183e-02 -5.5243648414406865e-01 +5.4906099185346230e-03
-5.1999999999999895e+00 +8.5382537090814203e+00 +0.0000000000000000e+00 -5.1999999285720646e+00 -2.9298665355240765e-02 -5.5247258827031853e-01 +5.4918887633770321e-03
-5.2499999999999893e+00 +8.5382392770983415e+00 +0.0000000000000000e+00 -5.2499999264892274e+00 -2.9300876917744790e-02 -5.5250883456501287e-01 +5.4931621975051860e-03
-5.2999999999999892e+00 +8.5382247066280428e+00 +0.0000000000000000e+00 -5.2999999243662250e+00 -2.9303096788703138e-02 -5.5254522020229480e-01 +5.4944302060282854e-03
-5.3499999999999890e+00 +8.5382099976614043e+00 +0.0000000000000000e+00 -5.3499999222026720e+00 -2.9305324718555993e-02 -5.5258174235629853e-01 +5.4956927740554143e-03
-5.3999999999999888e+00 +8.5381951501892726e+00 +0.0000000000000000e+00 -5.3999999199981819e+00 -2.9307560457740675e-02 -5.5261839820114922e-01 +5.4969498866955287e-03
-5.4499999999999886e+00 +8.5381801642024602e+00 +0.0000000000000000e+00 -5.4499999177523675e+00 -2.9309803756691604e-02 -5.5265518491096355e-01 +5.4982015290574648e-03
-5.4999999999999885e+00 +8.5381650396917461e+00 +0.0000000000000000e+00 -5.4999999154648433e+00 -2.9312054365840237e-02 -5.5269209965984833e-01 +5.4994476862499425e-03
-5.5499999999999883e+00 +8.5381497766478791e+00 +0.0000000000000000e+00 -5.5499999131352222e+00 -2.9314312035614975e-02 -5.5272913962189985e-01 +5.5006883433815698e-03
-5.5999999999999881e+00 +8.5381343750615741e+00 +0.0000000000000000e+00 -5.5999999107631178e+00 -2.9316576516441102e-02 -5.5276630197120591e-01 +5.5019234855608464e-03
-5.6499999999999879e+00 +8.5381188349235160e+00 +0.0000000000000000e+00 -5.6499999083481427e+00 -2.9318847558740702e-02 -5.5280358388184225e-01 +5.5031530978961653e-03
-5.6999999999999877e+00 +8.5381031562243610e+00 +0.0000000000000000e+00 -5.6999999058899107e+00 -2.9321124912932608e-02 -5.5284098252787484e-01 +5.5043771654958171e-03
-5.7499999999999876e+00 +8.5380873389547354e+00 +0.0000000000000000e+00 -5.7499999033880345e+00 -2.9323408329432327e-02 -5.5287849508335907e-01 +5.5055956734679935e-03
-5.7999999999999874e+00 +8.5380713831052368e+00 +0.0000000000000000e+00 -5.7999999008421268e+00 -2.9325697558651925e-02 -5.5291611872233759e-01 +5.5068086069207925e-03
-5.8499999999999872e+00 +8.5380552886664347e+00 +0.0000000000000000e+00 -5.8499998982518013e+00 -2.9327992351000014e-02 -5.5295385061884295e-01 +5.5080159509622246e-03
