# field on trajectory
# s[mm] rx[mm] ry[mm] rz[mm] bx[T] by[T] bz[T]
0.0000000000000000e+00 +8.5270000000000206e+00 +0.0000000000000000e+00 +0.0000000000000000e+00 -3.0952340487062219e-02 -5.8092864367391028e-01 +5.6112733771030753e-03
5.0000000000000003e-02 +8.5269999273587000e+00 +0.0000000000000000e+00 +5.1282051281982703e-02 -3.0952669489286919e-02 -5.8092951091992007e-01 +5.6113581982179797e-03
1.0000000000000001e-01 +8.5269997094401297e+00 +0.0000000000000000e+00 +1.0256410256355400e-01 -3.0953015152578017e-02 -5.8093071293434795e-01 +5.6114555734039758e-03
1.4999999999999999e-01 +8.5269993462388793e+00 +0.0000000000000000e+00 +1.5384615384430200e-01 -3.0953377340606731e-02 -5.8093224929241360e-01 +5.6115654877237431e-03
2.0000000000000001e-01 +8.5269988377622195e+00 +0.0000000000000000e+00 +2.0512820512381499e-01 -3.0953755917041040e-02 -5.8093411956925578e-01 +5.6116879262395917e-03
2.5000000000000000e-01 +8.5269981840028795e+00 +0.0000000000000000e+00 +2.5641025640168202e-01 -3.0954150745556963e-02 -5.8093632334014045e-01 +5.6118228740154761e-03
2.9999999999999999e-01 +8.5269973849644902e+00 +0.0000000000000000e+00 +3.0769230767749101e-01 -3.0954561689827794e-02 -5.8093886018026475e-01 +5.6119703161151063e-03
3.4999999999999998e-01 +8.5269964406470500e+00 +0.0000000000000000e+00 +3.5897435895083102e-01 -3.0954988613530132e-02 -5.8094172966486968e-01 +5.6121302376030257e-03
4.0000000000000002e-01 +8.5269953510505694e+00 +0.0000000000000000e+00 +4.1025641022129000e-01 -3.0955431380342263e-02 -5.8094493136921199e-01 +5.6123026235443477e-03
4.5000000000000001e-01 +8.5269941161714105e+00 +0.0000000000000000e+00 +4.6153846148845601e-01 -3.0955889853945602e-02 -5.8094846486859042e-01 +5.6124874590050087e-03
5.0000000000000000e-01 +8.5269927360132005e+00 +0.0000000000000000e+00 +5.1282051275191798e-01 -3.0956363898020037e-02 -5.8095232973826549e-01 +5.6126847290509860e-03
5.5000000000000004e-01 +8.5269912105795793e+00 +0.0000000000000000e+00 +5.6410256401126402e-01 -3.0956853376246835e-02 -5.8095652555351129e-01 +5.6128944187488110e-03
5.9999999999999998e-01 +8.5269895398632798e+00 +0.0000000000000000e+00 +6.1538461526608301e-01 -3.0957358152313205e-02 -5.8096105188970204e-01 +5.6131165131663848e-03
6.5000000000000002e-01 +8.5269877238679292e+00 +0.0000000000000000e+00 +6.6666666651596296e-01 -3.0957878089903013e-02 -5.8096590832214279e-01 +5.6133509973713700e-03
6.9999999999999996e-01 +8.5269857625899004e+00 +0.0000000000000000e+00 +7.1794871776049296e-01 -3.0958413052704359e-02 -5.8097109442621142e-01 +5.6135978564325270e-03
7.5000000000000000e-01 +8.5269836560364602e+00 +0.0000000000000000e+00 +7.6923076899926102e-01 -3.0958962904401796e-02 -5.8097660977721510e-01 +5.6138570754183780e-03
8.0000000000000004e-01 +8.5269814042003400e+00 +0.0000000000000000e+00 +8.2051282023185501e-01 -3.0959527508686968e-02 -5.8098245395058989e-01 +5.6141286393990705e-03
8.4999999999999998e-01 +8.5269790070851705e+00 +0.0000000000000000e+00 +8.7179487145786405e-01 -3.0960106729247868e-02 -5.8098862652170269e-01 +5.6144125334445204e-03
9.0000000000000002e-01 +8.5269764646909607e+00 +0.0000000000000000e+00 +9.2307692267687602e-01 -3.0960700429774782e-02 -5.8099512706596368e-01 +5.6147087426254641e-03
9.4999999999999996e-01 +8.5269737770140601e+00 +0.0000000000000000e+00 +9.7435897388848103e-01 -3.0961308473960256e-02 -5.8100195515882624e-01 +5.6150172520134760e-03
1.0000000000000000e+00 +8.5269709440617607e+00 +0.0000000000000000e+00 +1.0256410250922601e+00 -3.0961930725492873e-02 -5.8100911037567515e-01 +5.6153380466798788e-03
1.0500000000000000e+00 +8.5269679658304103e+00 +0.0000000000000000e+00 +1.0769230762878199e+00 -3.0962567048066339e-02 -5.8101659229199476e-01 +5.6156711116973641e-03
1.1000000000000001e+00 +8.5269648423163709e+00 +0.0000000000000000e+00 +1.1282051274747300e+00 -3.0963217305374827e-02 -5.8102440048328408e-01 +5.6160164321391887e-03
1.1499999999999999e+00 +8.5269615735232893e+00 +0.0000000000000000e+00 +1.1794871786525800e+00 -3.0963881361109811e-02 -5.8103253452500192e-01 +5.6163739930786237e-03
1.2000000000000000e+00 +8.5269581594511692e+00 +0.0000000000000000e+00 +1.2307692298209700e+00 -3.0964559078964528e-02 -5.8104099399264952e-01 +5.6167437795897742e-03
1.2500000000000000e+00 +8.5269546000999998e+00 +0.0000000000000000e+00 +1.2820512809794800e+00 -3.0965250322632469e-02 -5.8104977846174422e-01 +5.6171257767473025e-03
1.3000000000000000e+00 +8.5269508954661397e+00 +0.0000000000000000e+00 +1.3333333321277101e+00 -3.0965954955808700e-02 -5.8105888750784607e-01 +5.6175199696266980e-03
1.3500000000000001e+00 +8.5269470455568808e+00 +0.0000000000000000e+00 +1.3846153832652299e+00 -3.0966672842183757e-02 -5.8106832070644676e-01 +5.6179263433032041e-03
1.3999999999999999e+00 +8.5269430503649293e+00 +0.0000000000000000e+00 +1.4358974343916400e+00 -3.0967403845454152e-02 -5.8107807763316432e-01 +5.6183448828536981e-03
1.4500000000000000e+00 +8.5269389098939392e+00 +0.0000000000000000e+00 +1.4871794855065199e+00 -3.0968147829311701e-02 -5.8108815786354839e-01 +5.6187755733548067e-03
1.5000000000000000e+00 +8.5269346241439106e+00 +0.0000000000000000e+00 +1.5384615366094700e+00 -3.0968904657449451e-02 -5.8109856097319157e-01 +5.6192183998839806e-03
1.5500000000000000e+00 +8.5269301931148203e+00 +0.0000000000000000e+00 +1.5897435877000701e+00 -3.0969674193560153e-02 -5.8110928653770189e-01 +5.6196733475192351e-03
1.6000000000000001e+00 +8.5269256168030605e+00 +0.0000000000000000e+00 +1.6410256387779201e+00 -3.0970456301337605e-02 -5.8112033413273034e-01 +5.6201404013394071e-03
1.6499999999999999e+00 +8.5269208952158806e+00 +0.0000000000000000e+00 +1.6923076898425899e+00 -3.0971250844470555e-02 -5.8113170333385888e-01 +5.6206195464230816e-03
1.7000000000000000e+00 +8.5269160283460206e+00 +0.0000000000000000e+00 +1.7435897408936800e+00 -3.0972057686653193e-02 -5.8114339371679635e-01 +5.6211107678504789e-03
1.7500000000000000e+00 +8.5269110161934805e+00 +0.0000000000000000e+00 +1.7948717919307799e+00 -3.0972876691576012e-02 -5.8115540485721096e-01 +5.6216140507018390e-03
1.8000000000000000e+00 +8.5269058587655309e+00 +0.0000000000000000e+00 +1.8461538429534701e+00 -3.0973707722925632e-02 -5.8116773633073016e-01 +5.6221293800574118e-03
1.8500000000000001e+00 +8.5269005560585391e+00 +0.0000000000000000e+00 +1.8974358939613500e+00 -3.0974550644392407e-02 -5.8118038771307956e-01 +5.6226567409988146e-03
1.8999999999999999e+00 +8.5268951080688602e+00 +0.0000000000000000e+00 +1.9487179449540000e+00 -3.0975405319665725e-02 -5.8119335858000065e-01 +5.6231961186082235e-03
1.9500000000000000e+00 +8.5268895148037700e+00 +0.0000000000000000e+00 +1.9999999959310100e+00 -3.0976271612429336e-02 -5.8120664850716575e-01 +5.6237474979675553e-03
2.0000000000000000e+00 +8.5268838253941794e+00 +0.0000000000000000e+00 +2.0508474532398102e+00 -3.0977141926809493e-02 -5.8122014011379142e-01 +5.6243060297601951e-03
2.0499999999999998e+00 +8.5268779929429002e+00 +0.0000000000000000e+00 +2.1016949105324101e+00 -3.0978023557883112e-02 -5.8123394280853302e-01 +5.6248762727644924e-03
2.1000000000000001e+00 +8.5268720174499304e+00 +0.0000000000000000e+00 +2.1525423678083899e+00 -3.0978916534847894e-02 -5.8124805441958072e-01 +5.6254581536488487e-03
2.1499999999999999e+00 +8.5268658989189099e+00 +0.0000000000000000e+00 +2.2033898250673700e+00 -3.0979820886900374e-02 -5.8126247277510845e-01 +5.6260515990815777e-03
2.2000000000000002e+00 +8.5268596373498404e+00 +0.0000000000000000e+00 +2.2542372823089400e+00 -3.0980736643238964e-02 -5.8127719570332748e-01 +5.6266565357313983e-03
2.2500000000000000e+00 +8.5268532327390893e+00 +0.0000000000000000e+00 +2.3050847395326799e+00 -3.0981663833063954e-02 -5.8129222103248757e-01 +5.6272728902674466e-03
2.2999999999999998e+00 +8.5268466850902804e+00 +0.0000000000000000e+00 +2.3559321967382099e+00 -3.0982602485572990e-02 -5.8130754659079198e-01 +5.6279005893584274e-03
2.3500000000000001e+00 +8.5268399943961395e+00 +0.0000000000000000e+00 +2.4067796539251201e+00 -3.0983552629968630e-02 -5.8132317020653690e-01 +5.6285395596739384e-03
2.3999999999999999e+00 +8.5268331606675893e+00 +0.0000000000000000e+00 +2.4576271110930099e+00 -3.0984514295446203e-02 -5.8133908970788772e-01 +5.6291897278822898e-03
2.4500000000000002e+00 +8.5268261838973594e+00 +0.0000000000000000e+00 +2.5084745682414700e+00 -3.0985487511209123e-02 -5.8135530292315940e-01 +5.6298510206531996e-03
2.5000000000000000e+00 +8.5268190640890698e+00 +0.0000000000000000e+00 +2.5593220253701001e+00 -3.0986472306456583e-02 -5.8137180768059082e-01 +5.6305233646556044e-03
2.5499999999999998e+00 +8.5268118012427294e+00 +0.0000000000000000e+00 +2.6101694824785100e+00 -3.0987468710389779e-02 -5.8138860180845797e-01 +5.6312066865587054e-03
2.6000000000000001e+00 +8.5268043953510606e+00 +0.0000000000000000e+00 +2.6610169395662799e+00 -3.0988476752213379e-02 -5.8140568313510044e-01 +5.6319009130322501e-03
2.6499999999999999e+00 +8.5267968464213499e+00 +0.0000000000000000e+00 +2.7118643966330200e+00 -3.0989496461126365e-02 -5.8142304948875356e-01 +5.6326059707448419e-03
2.7000000000000002e+00 +8.5267891544535797e+00 +0.0000000000000000e+00 +2.7627118536783102e+00 -3.0990527866331281e-02 -5.8144069869771708e-01 +5.6333217863655822e-03
2.7500000000000000e+00 +8.5267813194441295e+00 +0.0000000000000000e+00 +2.8135593107017698e+00 -3.0991570997032633e-02 -5.8145862859032549e-01 +5.6340482865637692e-03
2.7999999999999998e+00 +8.5267733413966198e+00 +0.0000000000000000e+00 +2.8644067677029899e+00 -3.0992625882432377e-02 -5.8147683699486474e-01 +5.6347853980080551e-03
2.8500000000000001e+00 +8.5267652203074196e+00 +0.0000000000000000e+00 +2.9152542246815600e+00 -3.0993692551736025e-02 -5.8149532173968410e-01 +5.6355330473675230e-03
2.8999999999999999e+00 +8.5267569561765395e+00 +0.0000000000000000e+00 +2.9661016816370900e+00 -3.0994771034148022e-02 -5.8151408065311105e-01 +5.6362911613108318e-03
2.9500000000000002e+00 +8.5267485490112396e+00 +0.0000000000000000e+00 +3.0169491385691698e+00 -3.0995861358870315e-02 -5.8153311156342324e-01 +5.6370596665059414e-03
3.0000000000000000e+00 +8.5267399988042598e+00 +0.0000000000000000e+00 +3.0677965954773900e+00 -3.0996963555111473e-02 -5.8155241229901722e-01 +5.6378384896217260e-03
3.0499999999999998e+00 +8.5267313055555896e+00 +0.0000000000000000e+00 +3.1186440523613599e+00 -3.0998077652077554e-02 -5.8157198068823901e-01 +5.6386275573263077e-03
3.1000000000000001e+00 +8.5267224692688597e+00 +0.0000000000000000e+00 +3.1694915092206801e+00 -3.0999203678973616e-02 -5.8159181455941256e-01 +5.6394267962873081e-03
3.1499999999999999e+00 +8.5267134899368102e+00 +0.0000000000000000e+00 +3.2203389660549400e+00 -3.1000341665009902e-02 -5.8161191174095173e-01 +5.6402361331729369e-03
3.2000000000000002e+00 +8.5267043675703498e+00 +0.0000000000000000e+00 +3.2711864228637300e+00 -3.1001491639389520e-02 -5.8163227006113438e-01 +5.6410554946497507e-03
3.2500000000000000e+00 +8.5266951021658297e+00 +0.0000000000000000e+00 +3.3220338796466700e+00 -3.1002653631322315e-02 -5.8165288734835652e-01 +5.6418848073851325e-03
3.2999999999999998e+00 +8.5266856937196298e+00 +0.0000000000000000e+00 +3.3728813364033301e+00 -3.1003827670018736e-02 -5.8167376143101823e-01 +5.6427239980461575e-03
3.3500000000000001e+00 +8.5266761422317394e+00 +0.0000000000000000e+00 +3.4237287931333298e+00 -3.1005013784688264e-02 -5.8169489013749631e-01 +5.6435729932992947e-03
3.3999999999999999e+00 +8.5266664477057894e+00 +0.0000000000000000e+00 +3.4745762498362600e+00 -3.1006212004539499e-02 -5.8171627129614445e-01 +5.6444317198103919e-03
3.4500000000000002e+00 +8.5266566101381596e+00 +0.0000000000000000e+00 +3.5254237065117100e+00 -3.1007422358784703e-02 -5.8173790273537485e-01 +5.6453001042454792e-03
3.5000000000000000e+00 +8.5266466295324808e+00 +0.0000000000000000e+00 +3.5762711631592898e+00 -3.1008644876633722e-02 -5.8175978228354841e-01 +5.6461780732696386e-03
3.5499999999999998e+00 +8.5266365058887494e+00 +0.0000000000000000e+00 +3.6271186197785901e+00 -3.1009879587298575e-02 -5.8178190776905758e-01 +5.6470655535478297e-03
3.6000000000000001e+00 +8.5266262391996896e+00 +0.0000000000000000e+00 +3.6779660763692101e+00 -3.1011126519995019e-02 -5.8180427702035398e-01 +5.6479624717451294e-03
3.6499999999999999e+00 +8.5266158294762100e+00 +0.0000000000000000e+00 +3.7288135329307499e+00 -3.1012385703931791e-02 -5.8182688786575221e-01 +5.6488687545247695e-03
3.6999999999999900e+00 +8.5266052767074108e+00 +0.0000000000000000e+00 +3.7796609894627999e+00 -3.1013657168327522e-02 -5.8184973813373764e-01 +5.6497843285511860e-03
3.7499999999999898e+00 +8.5265945809042005e+00 +0.0000000000000000e+00 +3.8305084459649699e+00 -3.1014940942392318e-02 -5.8187282565262965e-01 +5.6507091204866453e-03
3.7999999999999901e+00 +8.5265837420592998e+00 +0.0000000000000000e+00 +3.8813559024368498e+00 -3.1016237055344672e-02 -5.8189614825089109e-01 +5.6516430569942900e-03
3.8499999999999899e+00 +8.5265727601727104e+00 +0.0000000000000000e+00 +3.9322033588780299e+00 -3.1017545536400702e-02 -5.8191970375692970e-01 +5.6525860647361785e-03
3.8999999999999901e+00 +8.5265616352480702e+00 +0.0000000000000000e+00 +3.9830508152881201e+00 -3.1018866414775730e-02 -5.8194348999912759e-01 +5.6535380703735287e-03
3.9499999999999900e+00 +8.5265503672853793e+00 +0.0000000000000000e+00 +4.0338982716667102e+00 -3.1020199709101654e-02 -5.8196750480226589e-01 +5.6544990009490866e-03
3.9999999999999898e+00 +8.5265389562773599e+00 +0.0000000000000000e+00 +4.0847457280134103e+00 -3.1021545314955132e-02 -5.8199174594898151e-01 +5.6554687879446387e-03
4.0499999999999901e+00 +8.5265274022313005e+00 +0.0000000000000000e+00 +4.1355931843278002e+00 -3.1022903048514235e-02 -5.8201621119457325e-01 +5.6564473657048763e-03
4.0999999999999899e+00 +8.5265157051508105e+00 +0.0000000000000000e+00 +4.1864406406094901e+00 -3.1024272724635774e-02 -5.8204089829391592e-01 +5.6574346686230053e-03
4.1499999999999897e+00 +8.5265038650250098e+00 +0.0000000000000000e+00 +4.2372880968580704e+00 -3.1025654158183168e-02 -5.8206580500199723e-01 +5.6584306310938541e-03
4.1999999999999904e+00 +8.5264918818611495e+00 +0.0000000000000000e+00 +4.2881355530731398e+00 -3.1027047164012667e-02 -5.8209092907366622e-01 +5.6594351875113641e-03
4.2499999999999902e+00 +8.5264797556556005e+00 +0.0000000000000000e+00 +4.3389830092543002e+00 -3.1028451556985543e-02 -5.8211626826385554e-01 +5.6604482722708467e-03
4.2999999999999901e+00 +8.5264674864120007e+00 +0.0000000000000000e+00 +4.3898304654011504e+00 -3.1029867151960506e-02 -5.8214182032744344e-01 +5.6614698197676007e-03
4.3499999999999899e+00 +8.5264550741303502e+00 +0.0000000000000000e+00 +4.4406779215132799e+00 -3.1031293763798262e-02 -5.8216758301933613e-01 +5.6624997643977592e-03
4.3999999999999897e+00 +8.5264425188070199e+00 +0.0000000000000000e+00 +4.4915253775902899e+00 -3.1032731207361539e-02 -5.8219355409446727e-01 +5.6635380405583120e-03
4.4499999999999904e+00 +8.5264298204419902e+00 +0.0000000000000000e+00 +4.5423728336317897e+00 -3.1034179297512010e-02 -5.8221973130774274e-01 +5.6645845826465450e-03
4.4999999999999902e+00 +8.5264169790425495e+00 +0.0000000000000000e+00 +4.5932202896373502e+00 -3.1035637849108705e-02 -5.8224611241401192e-01 +5.6656393250597795e-03
4.5499999999999901e+00 +8.5264039945941494e+00 +0.0000000000000000e+00 +4.6440677456066002e+00 -3.1037106677020442e-02 -5.8227269516829150e-01 +5.6667022021976458e-03
4.5999999999999899e+00 +8.5263908671149693e+00 +0.0000000000000000e+00 +4.6949152015391098e+00 -3.1038585596102605e-02 -5.8229947732534482e-01 +5.6677731484578468e-03
4.6499999999999897e+00 +8.5263775965941004e+00 +0.0000000000000000e+00 +4.7457626574344998e+00 -3.1040074421223422e-02 -5.8232645664015881e-01 +5.6688520982409894e-03
4.6999999999999904e+00 +8.5263641830315500e+00 +0.0000000000000000e+00 +4.7966101132923500e+00 -3.1041572967246953e-02 -5.8235363086763481e-01 +5.6699389859474810e-03
4.7499999999999902e+00 +8.5263506264309399e+00 +0.0000000000000000e+00 +4.8474575691122697e+00 -3.1043081049036240e-02 -5.8238099776264418e-01 +5.6710337459781116e-03
4.7999999999999901e+00 +8.5263369267886393e+00 +0.0000000000000000e+00 +4.8983050248938502e+00 -3.1044598481457884e-02 -5.8240855508011269e-01 +5.6721363127349121e-03
4.8499999999999899e+00 +8.5263230841010191e+00 +0.0000000000000000e+00 +4.9491524806366902e+00 -3.1046125079378963e-02 -5.8243630057496454e-01 +5.6732466206206051e-03
4.8999999999999897e+00 +8.5263090983826295e+00 +0.0000000000000000e+00 +4.9999999363403900e+00 -3.1047660657659359e-02 -5.8246423200197972e-01 +5.6743646040371938e-03
4.9499999999999904e+00 +8.5262950649157592e+00 +0.0000000000000000e+00 +5.0505049848957304e+00 -3.1049194602484672e-02 -5.8249215718198566e-01 +5.6754825923575111e-03
4.9999999999999902e+00 +8.5262808896768494e+00 +0.0000000000000000e+00 +5.1010100334114901e+00 -3.1050737043342092e-02 -5.8252026138853386e-01 +5.6766080242396646e-03
5.0499999999999901e+00 +8.5262665726659197e+00 +0.0000000000000000e+00 +5.1515150818872497e+00 -3.1052287798814138e-02 -5.8254854242156295e-01 +5.6777408354053384e-03
5.0999999999999899e+00 +8.5262521138793108e+00 +0.0000000000000000e+00 +5.2020201303226203e+00 -3.1053846687485440e-02 -5.8257699808103736e-01 +5.6788809615772500e-03
5.1499999999999897e+00 +8.5262375133206696e+00 +0.0000000000000000e+00 +5.2525251787172103e+00 -3.1055413527938017e-02 -5.8260562616686162e-01 +5.6800283384783020e-03
5.1999999999999904e+00 +8.5262227709863492e+00 +0.0000000000000000e+00 +5.3030302270706198e+00 -3.1056988138757468e-02 -5.8263442447899305e-01 +5.6811829018327152e-03
5.2499999999999902e+00 +8.5262078868836397e+00 +0.0000000000000000e+00 +5.3535352753824403e+00 -3.1058570338525219e-02 -5.8266339081730045e-01 +5.6823445873646385e-03
5.2999999999999901e+00 +8.5261928610125306e+00 +0.0000000000000000e+00 +5.4040403236522803e+00 -3.1060159945826320e-02 -5.8269252298170493e-01 +5.6835133307995807e-03
5.3499999999999899e+00 +8.5261776933584805e+00 +0.0000000000000000e+00 +5.4545453718797399e+00 -3.1061756779252474e-02 -5.8272181877223683e-01 +5.6846890678649989e-03
5.3999999999999897e+00 +8.5261623839360308e+00 +0.0000000000000000e+00 +5.5050504200644301e+00 -3.1063360657383569e-02 -5.8275127598869603e-01 +5.6858717342868747e-03
5.4499999999999904e+00 +8.5261469327415398e+00 +0.0000000000000000e+00 +5.5555554682059496e+00 -3.1064971398807664e-02 -5.8278089243101838e-01 +5.6870612657934430e-03
5.4999999999999902e+00 +8.5261313397750200e+00 +0.0000000000000000e+00 +5.6060605163038897e+00 -3.1066588822111826e-02 -5.8281066589910824e-01 +5.6882575981135009e-03
5.5499999999999901e+00 +8.5261156050328299e+00 +0.0000000000000000e+00 +5.6565655643578596e+00 -3.1068212745885126e-02 -5.8284059419289080e-01 +5.6894606669769809e-03
5.5999999999999899e+00 +8.5260997285186004e+00 +0.0000000000000000e+00 +5.7070706123674597e+00 -3.1069842988714090e-02 -5.8287067511223134e-01 +5.6906704081141129e-03
5.6499999999999897e+00 +8.5260837102287006e+00 +0.0000000000000000e+00 +5.7575756603323001e+00 -3.1071479369188824e-02 -5.8290090645704529e-01 +5.6918867572565762e-03
5.6999999999999904e+00 +8.5260675501704100e+00 +0.0000000000000000e+00 +5.8080807082519703e+00 -3.1073121705895327e-02 -5.8293128602715738e-01 +5.6931096501360769e-03
5.7499999999999902e+00 +8.5260512483400799e+00 +0.0000000000000000e+00 +5.8585857561260797e+00 -3.1074769817424724e-02 -5.8296181162247185e-01 +5.6943390224861012e-03
5.7999999999999901e+00 +8.5260348047340795e+00 +0.0000000000000000e+00 +5.9090908039542303e+00 -3.1076423522368678e-02 -5.8299248104288648e-01 +5.6955748100410430e-03
5.8499999999999899e+00 +8.5260182193524106e+00 +0.0000000000000000e+00 +5.9595958517360303e+00 -3.1078082639317800e-02 -5.8302329208826387e-01 +5.6968169485359437e-03
5.8999999999999897e+00 +8.5260014921987004e+00 +0.0000000000000000e+00 +6.0101008994710599e+00 -3.1079746986971482e-02 -5.8305424255804406e-01 +5.6980653736420873e-03
