# field on trajectory
# s[mm] rx[mm] ry[mm] rz[mm] bx[T] by[T] bz[T]
0.0000000000000000e+00 +8.5389999999999997e+00 +0.0000000000000000e+00 +0.0000000000000000e+00 -2.7552248526114331e-02 -5.2384893639542285e-01 +4.5250267265769563e-03
5.0000000000000003e-02 +8.5389999309416567e+00 +0.0000000000000000e+00 +4.9999999999936408e-02 -2.7553444001192213e-02 -5.2384875949633225e-01 +4.5250758944292814e-03
1.0000000000000001e-01 +8.5389997237666417e+00 +0.0000000000000000e+00 +9.9999999999491301e-02 -2.7554658470391149e-02 -5.2384894564310225e-01 +4.5251399330349818e-03
1.5000000000000002e-01 +8.5389993784749052e+00 +0.0000000000000000e+00 +1.4999999999828315e-01 -2.7555891828681515e-02 -5.2384949389683544e-01 +4.5252188721617362e-03
2.0000000000000001e-01 +8.5389988950663032e+00 +0.0000000000000000e+00 +1.9999999999593041e-01 -2.7557143971033739e-02 -5.2385040331865118e-01 +4.5253127415780100e-03
2.5000000000000000e-01 +8.5389982735405976e+00 +0.0000000000000000e+00 +2.4999999999205158e-01 -2.7558414792418415e-02 -5.2385167296968471e-01 +4.5254215710530538e-03
2.9999999999999999e-01 +8.5389975138974510e+00 +0.0000000000000000e+00 +2.9999999998626509e-01 -2.7559704187806393e-02 -5.2385330191108870e-01 +4.5255453903569219e-03
3.4999999999999998e-01 +8.5389966161364352e+00 +0.0000000000000000e+00 +3.4999999997818942e-01 -2.7561012052168703e-02 -5.2385528920403124e-01 +4.5256842292604365e-03
3.9999999999999997e-01 +8.5389955802570263e+00 +0.0000000000000000e+00 +3.9999999996744307e-01 -2.7562338280476717e-02 -5.2385763390969697e-01 +4.5258381175352020e-03
4.4999999999999996e-01 +8.5389944062586061e+00 +0.0000000000000000e+00 +4.4999999995364443e-01 -2.7563682767702127e-02 -5.2386033508928653e-01 +4.5260070849536052e-03
4.9999999999999994e-01 +8.5389930941404621e+00 +0.0000000000000000e+00 +4.9999999993641198e-01 -2.7565045408816991e-02 -5.2386339180401620e-01 +4.5261911612887980e-03
5.4999999999999993e-01 +8.5389916439017899e+00 +0.0000000000000000e+00 +5.4999999991536419e-01 -2.7566426098793822e-02 -5.2386680311511924e-01 +4.5263903763147033e-03
5.9999999999999998e-01 +8.5389900555416887e+00 +0.0000000000000000e+00 +5.9999999989011943e-01 -2.7567824732605595e-02 -5.2387056808384391e-01 +4.5266047598060168e-03
6.5000000000000002e-01 +8.5389883290591655e+00 +0.0000000000000000e+00 +6.4999999986029611e-01 -2.7569241205225796e-02 -5.2387468577145457e-01 +4.5268343415381862e-03
7.0000000000000007e-01 +8.5389864644531350e+00 +0.0000000000000000e+00 +6.9999999982551264e-01 -2.7570675411628495e-02 -5.2387915523923134e-01 +4.5270791512874260e-03
7.5000000000000011e-01 +8.5389844617224195e+00 +0.0000000000000000e+00 +7.4999999978538745e-01 -2.7572127246788317e-02 -5.2388397554846922e-01 +4.5273392188306975e-03
8.0000000000000016e-01 +8.5389823208657472e+00 +0.0000000000000000e+00 +7.9999999973953884e-01 -2.7573596605680605e-02 -5.2388914576048029e-01 +4.5276145739457244e-03
8.5000000000000020e-01 +8.5389800418817554e+00 +0.0000000000000000e+00 +8.4999999968758522e-01 -2.7575083383281327e-02 -5.2389466493659076e-01 +4.5279052464109668e-03
9.0000000000000024e-01 +8.5389776247689895e+00 +0.0000000000000000e+00 +8.9999999962914501e-01 -2.7576587474567222e-02 -5.2390053213814225e-01 +4.5282112660056367e-03
9.5000000000000029e-01 +8.5389750695259021e+00 +0.0000000000000000e+00 +9.4999999956383641e-01 -2.7578108774515823e-02 -5.2390674642649260e-01 +4.5285326625096895e-03
1.0000000000000002e+00 +8.5389723761508556e+00 +0.0000000000000000e+00 +9.9999999949127782e-01 -2.7579647178105487e-02 -5.2391330686301407e-01 +4.5288694657038102e-03
1.0500000000000003e+00 +8.5389695446421197e+00 +0.0000000000000000e+00 +1.0499999994110876e+00 -2.7581202580315437e-02 -5.2392021250909393e-01 +4.5292217053694243e-03
1.1000000000000003e+00 +8.5389665749978718e+00 +0.0000000000000000e+00 +1.0999999993228837e+00 -2.7582774876125822e-02 -5.2392746242613542e-01 +4.5295894112886877e-03
1.1500000000000004e+00 +8.5389634672162025e+00 +0.0000000000000000e+00 +1.1499999992262848e+00 -2.7584363960517728e-02 -5.2393505567555532e-01 +4.5299726132444779e-03
1.2000000000000004e+00 +8.5389602212951097e+00 +0.0000000000000000e+00 +1.1999999991209089e+00 -2.7585969728473277e-02 -5.2394299131878685e-01 +4.5303713410204012e-03
1.2500000000000004e+00 +8.5389568372325009e+00 +0.0000000000000000e+00 +1.2499999990063742e+00 -2.7587592074975624e-02 -5.2395126841727713e-01 +4.5307856244007861e-03
1.3000000000000005e+00 +8.5389533150261947e+00 +0.0000000000000000e+00 +1.2999999988822988e+00 -2.7589230895009031e-02 -5.2395988603248722e-01 +4.5312154931706674e-03
1.3500000000000005e+00 +8.5389496546739174e+00 +0.0000000000000000e+00 +1.3499999987483011e+00 -2.7590886083558905e-02 -5.2396884322589488e-01 +4.5316609771158091e-03
1.4000000000000006e+00 +8.5389458561733083e+00 +0.0000000000000000e+00 +1.3999999986039990e+00 -2.7592557535611836e-02 -5.2397813905899049e-01 +4.5321221060226728e-03
1.4500000000000006e+00 +8.5389419195219176e+00 +0.0000000000000000e+00 +1.4499999984490108e+00 -2.7594245146155615e-02 -5.2398777259327955e-01 +4.5325989096784303e-03
1.5000000000000007e+00 +8.5389378447172035e+00 +0.0000000000000000e+00 +1.4999999982829546e+00 -2.7595948810179349e-02 -5.2399774289028245e-01 +4.5330914178709561e-03
1.5500000000000007e+00 +8.5389336317565387e+00 +0.0000000000000000e+00 +1.5499999981054484e+00 -2.7597668422673430e-02 -5.2400804901153286e-01 +4.5335996603888210e-03
1.6000000000000008e+00 +8.5389292806372055e+00 +0.0000000000000000e+00 +1.5999999979161101e+00 -2.7599403878629650e-02 -5.2401869001857981e-01 +4.5341236670212968e-03
1.6500000000000008e+00 +8.5389247913563988e+00 +0.0000000000000000e+00 +1.6499999977145579e+00 -2.7601155073041173e-02 -5.2402966497298509e-01 +4.5346634675583440e-03
1.7000000000000008e+00 +8.5389201639112233e+00 +0.0000000000000000e+00 +1.6999999975004094e+00 -2.7602921900902636e-02 -5.2404097293632623e-01 +4.5352190917906160e-03
1.7500000000000009e+00 +8.5389153982987001e+00 +0.0000000000000000e+00 +1.7499999972732829e+00 -2.7604704257210157e-02 -5.2405261297019257e-01 +4.5357905695094436e-03
1.8000000000000009e+00 +8.5389104945157577e+00 +0.0000000000000000e+00 +1.7999999970327962e+00 -2.7606502036961422e-02 -5.2406458413618939e-01 +4.5363779305068498e-03
1.8500000000000010e+00 +8.5389054525592414e+00 +0.0000000000000000e+00 +1.8499999967785670e+00 -2.7608315135155700e-02 -5.2407688549593479e-01 +4.5369812045755308e-03
1.9000000000000010e+00 +8.5389002724259075e+00 +0.0000000000000000e+00 +1.8999999965102132e+00 -2.7610143446793856e-02 -5.2408951611106036e-01 +4.5376004215088523e-03
1.9500000000000011e+00 +8.5388949541124273e+00 +0.0000000000000000e+00 +1.9499999962273526e+00 -2.7611986866878477e-02 -5.2410247504321184e-01 +4.5382356111008616e-03
2.0000000000000009e+00 +8.5388894976153829e+00 +0.0000000000000000e+00 +1.9999999959296031e+00 -2.7613845290413837e-02 -5.2411576135404814e-01 +4.5388868031462706e-03
2.0500000000000007e+00 +8.5388839029312713e+00 +0.0000000000000000e+00 +2.0499999956165822e+00 -2.7615718620255927e-02 -5.2412937394152981e-01 +4.5395540100041602e-03
2.1000000000000005e+00 +8.5388781700565026e+00 +0.0000000000000000e+00 +2.0999999952879076e+00 -2.7617606790661966e-02 -5.2414331104877931e-01 +4.5402371742891004e-03
2.1500000000000004e+00 +8.5388722989874033e+00 +0.0000000000000000e+00 +2.1499999949431974e+00 -2.7619509743740025e-02 -5.2415757075521896e-01 +4.5409362211799786e-03
2.2000000000000002e+00 +8.5388662897202146e+00 +0.0000000000000000e+00 +2.1999999945820687e+00 -2.7621427421599041e-02 -5.2417215114028148e-01 +4.5416510758563003e-03
2.2500000000000000e+00 +8.5388601422510906e+00 +0.0000000000000000e+00 +2.2499999942041389e+00 -2.7623359766348759e-02 -5.2418705028341195e-01 +4.5423816634981842e-03
2.2999999999999998e+00 +8.5388538565761039e+00 +0.0000000000000000e+00 +2.2999999938090259e+00 -2.7625306720099756e-02 -5.2420226626406430e-01 +4.5431279092863486e-03
2.3499999999999996e+00 +8.5388474326912434e+00 +0.0000000000000000e+00 +2.3499999933963469e+00 -2.7627268224963409e-02 -5.2421779716170525e-01 +4.5438897384021161e-03
2.3999999999999995e+00 +8.5388408705924146e+00 +0.0000000000000000e+00 +2.3999999929657196e+00 -2.7629244223051852e-02 -5.2423364105581016e-01 +4.5446670760273949e-03
2.4499999999999993e+00 +8.5388341702754396e+00 +0.0000000000000000e+00 +2.4499999925167613e+00 -2.7631234656478040e-02 -5.2424979602586497e-01 +4.5454598473446857e-03
2.4999999999999991e+00 +8.5388273317360586e+00 +0.0000000000000000e+00 +2.4999999920490890e+00 -2.7633239467355655e-02 -5.2426626015136646e-01 +4.5462679775370701e-03
2.5499999999999989e+00 +8.5388203549699302e+00 +0.0000000000000000e+00 +2.5499999915623204e+00 -2.7635258597799119e-02 -5.2428303151182054e-01 +4.5470913917882048e-03
2.5999999999999988e+00 +8.5388132399726349e+00 +0.0000000000000000e+00 +2.5999999910560727e+00 -2.7637291989923606e-02 -5.2430010818674255e-01 +4.5479300152823209e-03
2.6499999999999986e+00 +8.5388059867396677e+00 +0.0000000000000000e+00 +2.6499999905299627e+00 -2.7639339585844996e-02 -5.2431748825565816e-01 +4.5487837732042079e-03
2.6999999999999984e+00 +8.5387985952664494e+00 +0.0000000000000000e+00 +2.6999999899836080e+00 -2.7641401327679855e-02 -5.2433516979810102e-01 +4.5496525907392157e-03
2.7499999999999982e+00 +8.5387910655483150e+00 +0.0000000000000000e+00 +2.7499999894166254e+00 -2.7643477157545462e-02 -5.2435315089361523e-01 +4.5505363930732545e-03
2.7999999999999980e+00 +8.5387833975805254e+00 +0.0000000000000000e+00 +2.7999999888286320e+00 -2.7645567017559769e-02 -5.2437142962175243e-01 +4.5514351053927773e-03
2.8499999999999979e+00 +8.5387755913582613e+00 +0.0000000000000000e+00 +2.8499999882192451e+00 -2.7647670849841370e-02 -5.2439000406207370e-01 +4.5523486528847796e-03
2.8999999999999977e+00 +8.5387676468766269e+00 +0.0000000000000000e+00 +2.8999999875880813e+00 -2.7649788596509500e-02 -5.2440887229414834e-01 +4.5532769607367933e-03
2.9499999999999975e+00 +8.5387595641306451e+00 +0.0000000000000000e+00 +2.9499999869347575e+00 -2.7651920199684054e-02 -5.2442803239755365e-01 +4.5542199541368858e-03
2.9999999999999973e+00 +8.5387513431152655e+00 +0.0000000000000000e+00 +2.9999999862588904e+00 -2.7654065601485516e-02 -5.2444748245187534e-01 +4.5551775582736431e-03
3.0499999999999972e+00 +8.5387429838253599e+00 +0.0000000000000000e+00 +3.0499999855600972e+00 -2.7656224744034993e-02 -5.2446722053670713e-01 +4.5561496983361786e-03
3.0999999999999970e+00 +8.5387344862557253e+00 +0.0000000000000000e+00 +3.0999999848379942e+00 -2.7658397569454186e-02 -5.2448724473164954e-01 +4.5571362995141130e-03
3.1499999999999968e+00 +8.5387258504010806e+00 +0.0000000000000000e+00 +3.1499999840921986e+00 -2.7660584019865330e-02 -5.2450755311631148e-01 +4.5581372869975849e-03
3.1999999999999966e+00 +8.5387170762560718e+00 +0.0000000000000000e+00 +3.1999999833223263e+00 -2.7662784037391263e-02 -5.2452814377030843e-01 +4.5591525859772237e-03
3.2499999999999964e+00 +8.5387081638152704e+00 +0.0000000000000000e+00 +3.2499999825279944e+00 -2.7664997564155348e-02 -5.2454901477326354e-01 +4.5601821216441655e-03
3.2999999999999963e+00 +8.5386991130731751e+00 +0.0000000000000000e+00 +3.2999999817088193e+00 -2.7667224542281512e-02 -5.2457016420480684e-01 +4.5612258191900365e-03
3.3499999999999961e+00 +8.5386899240242080e+00 +0.0000000000000000e+00 +3.3499999808644172e+00 -2.7669464913894146e-02 -5.2459159014457424e-01 +4.5622836038069501e-03
3.3999999999999959e+00 +8.5386805966627204e+00 +0.0000000000000000e+00 +3.3999999799944045e+00 -2.7671718621118183e-02 -5.2461329067220874e-01 +4.5633554006874943e-03
3.4499999999999957e+00 +8.5386711309829906e+00 +0.0000000000000000e+00 +3.4499999790983975e+00 -2.7673985606079057e-02 -5.2463526386735970e-01 +4.5644411350247429e-03
3.4999999999999956e+00 +8.5386615269792259e+00 +0.0000000000000000e+00 +3.4999999781760125e+00 -2.7676265810902649e-02 -5.2465750780968223e-01 +4.5655407320122302e-03
3.5499999999999954e+00 +8.5386517846455625e+00 +0.0000000000000000e+00 +3.5499999772268658e+00 -2.7678559177715303e-02 -5.2468002057883756e-01 +4.5666541168439562e-03
3.5999999999999952e+00 +8.5386419039760639e+00 +0.0000000000000000e+00 +3.5999999762505737e+00 -2.7680865648643832e-02 -5.2470280025449256e-01 +4.5677812147143799e-03
3.6499999999999950e+00 +8.5386318849647243e+00 +0.0000000000000000e+00 +3.6499999752467520e+00 -2.7683185165815468e-02 -5.2472584491631968e-01 +4.5689219508184171e-03
3.6999999999999948e+00 +8.5386217276054666e+00 +0.0000000000000000e+00 +3.6999999742150167e+00 -2.7685517671357879e-02 -5.2474915264399657e-01 +4.5700762503514264e-03
3.7499999999999947e+00 +8.5386114318921464e+00 +0.0000000000000000e+00 +3.7499999731549836e+00 -2.7687863107399100e-02 -5.2477272151720533e-01 +4.5712440385092031e-03
3.7999999999999945e+00 +8.5386009978185502e+00 +0.0000000000000000e+00 +3.7999999720662685e+00 -2.7690221416067612e-02 -5.2479654961563460e-01 +4.5724252404879913e-03
3.8499999999999943e+00 +8.5385904253783966e+00 +0.0000000000000000e+00 +3.8499999709484878e+00 -2.7692592539492224e-02 -5.2482063501897624e-01 +4.5736197814844537e-03
3.8999999999999941e+00 +8.5385797145653335e+00 +0.0000000000000000e+00 +3.8999999698012568e+00 -2.7694976419802137e-02 -5.2484497580692679e-01 +4.5748275866956843e-03
3.9499999999999940e+00 +8.5385688653729446e+00 +0.0000000000000000e+00 +3.9499999686241911e+00 -2.7697372999126897e-02 -5.2486957005918822e-01 +4.5760485813191934e-03
3.9999999999999938e+00 +8.5385578777947462e+00 +0.0000000000000000e+00 +3.9999999674169064e+00 -2.7699782219596378e-02 -5.2489441585546526e-01 +4.5772826905529041e-03
4.0499999999999936e+00 +8.5385467518241871e+00 +0.0000000000000000e+00 +4.0499999661790183e+00 -2.7702204000342030e-02 -5.2491951118059521e-01 +4.5785298389836703e-03
4.0999999999999934e+00 +8.5385354874546504e+00 +0.0000000000000000e+00 +4.0999999649101424e+00 -2.7704638168500467e-02 -5.2494485363993026e-01 +4.5797899487528141e-03
4.1499999999999932e+00 +8.5385240846794535e+00 +0.0000000000000000e+00 +4.1499999636098934e+00 -2.7707084528209820e-02 -5.2497044074395105e-01 +4.5810629413905006e-03
4.1999999999999931e+00 +8.5385125434918514e+00 +0.0000000000000000e+00 +4.1999999622778876e+00 -2.7709542883608568e-02 -5.2499627000314131e-01 +4.5823487384272317e-03
4.2499999999999929e+00 +8.5385008638850355e+00 +0.0000000000000000e+00 +4.2499999609137395e+00 -2.7712013038835529e-02 -5.2502233892798622e-01 +4.5836472613938204e-03
4.2999999999999927e+00 +8.5384890458521312e+00 +0.0000000000000000e+00 +4.2999999595170646e+00 -2.7714494798029801e-02 -5.2504864502897208e-01 +4.5849584318213912e-03
4.3499999999999925e+00 +8.5384770893862036e+00 +0.0000000000000000e+00 +4.3499999580874782e+00 -2.7716987965330838e-02 -5.2507518581658696e-01 +4.5862821712413671e-03
4.3999999999999924e+00 +8.5384649944802540e+00 +0.0000000000000000e+00 +4.3999999566245949e+00 -2.7719492344878378e-02 -5.2510195880131905e-01 +4.5876184011854667e-03
4.4499999999999922e+00 +8.5384527611272247e+00 +0.0000000000000000e+00 +4.4499999551280300e+00 -2.7722007740812415e-02 -5.2512896149365818e-01 +4.5889670431856992e-03
4.4999999999999920e+00 +8.5384403893199945e+00 +0.0000000000000000e+00 +4.4999999535973982e+00 -2.7724533957273260e-02 -5.2515619140409375e-01 +4.5903280187743426e-03
4.5499999999999918e+00 +8.5384278790513868e+00 +0.0000000000000000e+00 +4.5499999520323140e+00 -2.7727070798401438e-02 -5.2518364604311618e-01 +4.5917012494839544e-03
4.5999999999999917e+00 +8.5384152303141612e+00 +0.0000000000000000e+00 +4.5999999504323927e+00 -2.7729618068337746e-02 -5.2521132292121553e-01 +4.5930866568473540e-03
4.6499999999999915e+00 +8.5384024431010221e+00 +0.0000000000000000e+00 +4.6499999487972481e+00 -2.7732175571223212e-02 -5.2523921954888120e-01 +4.5944841623976156e-03
4.6999999999999913e+00 +8.5383895174046138e+00 +0.0000000000000000e+00 +4.6999999471264955e+00 -2.7734743111199073e-02 -5.2526733343660326e-01 +4.5958936876680598e-03
4.7499999999999911e+00 +8.5383764532175235e+00 +0.0000000000000000e+00 +4.7499999454197495e+00 -2.7737320492406802e-02 -5.2529566209486978e-01 +4.5973151541922530e-03
4.7999999999999909e+00 +8.5383632505322833e+00 +0.0000000000000000e+00 +4.7999999436766245e+00 -2.7739907518988038e-02 -5.2532420303416860e-01 +4.5987484835039935e-03
4.8499999999999908e+00 +8.5383499093413668e+00 +0.0000000000000000e+00 +4.8499999418967343e+00 -2.7742503995084634e-02 -5.2535295376498625e-01 +4.6001935971372986e-03
4.8999999999999906e+00 +8.5383364296371962e+00 +0.0000000000000000e+00 +4.8999999400796943e+00 -2.7745109724838585e-02 -5.2538191179780769e-01 +4.6016504166264127e-03
4.9499999999999904e+00 +8.5383228114121348e+00 +0.0000000000000000e+00 +4.9499999382251181e+00 -2.7747724512392092e-02 -5.2541107464311654e-01 +4.6031188635057875e-03
4.9999999999999902e+00 +8.5383090546584945e+00 +0.0000000000000000e+00 +4.9999999363326193e+00 -2.7750348161887445e-02 -5.2544043981139399e-01 +4.6045988593100742e-03
5.0499999999999901e+00 +8.5382951593685323e+00 +0.0000000000000000e+00 +5.0499999344018125e+00 -2.7752980477467128e-02 -5.2547000481311912e-01 +4.6060903255741217e-03
5.0999999999999899e+00 +8.5382811255344535e+00 +0.0000000000000000e+00 +5.0999999324323113e+00 -2.7755621263273716e-02 -5.2549976715876889e-01 +4.6075931838329672e-03
5.1499999999999897e+00 +8.5382669531484119e+00 +0.0000000000000000e+00 +5.1499999304237303e+00 -2.7758270323449897e-02 -5.2552972435881795e-01 +4.6091073556218292e-03
5.1999999999999895e+00 +8.5382526422025098e+00 +0.0000000000000000e+00 +5.1999999283756821e+00 -2.7760927462138471e-02 -5.2555987392373749e-01 +4.6106327624760935e-03
5.2499999999999893e+00 +8.5382381926887962e+00 +0.0000000000000000e+00 +5.2499999262877814e+00 -2.7763592483482310e-02 -5.2559021336399536e-01 +4.6121693259313134e-03
5.2999999999999892e+00 +8.5382236045992741e+00 +0.0000000000000000e+00 +5.2999999241596418e+00 -2.7766265191624371e-02 -5.2562074019005656e-01 +4.6137169675232008e-03
5.3499999999999890e+00 +8.5382088779258929e+00 +0.0000000000000000e+00 +5.3499999219908769e+00 -2.7768945390707678e-02 -5.2565145191238249e-01 +4.6152756087876161e-03
5.3999999999999888e+00 +8.5381940126605578e+00 +0.0000000000000000e+00 +5.3999999197810995e+00 -2.7771632884875296e-02 -5.2568234604143060e-01 +4.6168451712605618e-03
5.4499999999999886e+00 +8.5381790087951224e+00 +0.0000000000000000e+00 +5.4499999175299241e+00 -2.7774327478270321e-02 -5.2571342008765432e-01 +4.6184255764781731e-03
5.4999999999999885e+00 +8.5381638663213941e+00 +0.0000000000000000e+00 +5.4999999152369625e+00 -2.7777028975035888e-02 -5.2574467156150251e-01 +4.6200167459767138e-03
5.5499999999999883e+00 +8.5381485852311325e+00 +0.0000000000000000e+00 +5.5499999129018294e+00 -2.7779737179315138e-02 -5.2577609797341940e-01 +4.6216186012925653e-03
5.5999999999999881e+00 +8.5381331655160526e+00 +0.0000000000000000e+00 +5.5999999105241374e+00 -2.7782451895251241e-02 -5.2580769683384510e-01 +4.6232310639622238e-03
5.6499999999999879e+00 +8.5381176071678233e+00 +0.0000000000000000e+00 +5.6499999081034993e+00 -2.7785172926987293e-02 -5.2583946565321404e-01 +4.6248540555222824e-03
5.6999999999999877e+00 +8.5381019101780691e+00 +0.0000000000000000e+00 +5.6999999056395287e+00 -2.7787900078666421e-02 -5.2587140194195536e-01 +4.6264874975094350e-03
5.7499999999999876e+00 +8.5380860745383682e+00 +0.0000000000000000e+00 +5.7499999031318376e+00 -2.7790633154431702e-02 -5.2590350321049295e-01 +4.6281313114604674e-03
5.7999999999999874e+00 +8.5380701002402599e+00 +0.0000000000000000e+00 +5.7999999005800396e+00 -2.7793371958426155e-02 -5.2593576696924504e-01 +4.6297854189122399e-03
5.8499999999999872e+00 +8.5380539872752355e+00 +0.0000000000000000e+00 +5.8499998979837473e+00 -2.7796116294792752e-02 -5.2596819072862377e-01 +4.6314497414016893e-03
5.8999999999999870e+00 +8.5380377356347470e+00 +0.0000000000000000e+00 +5.8999998953425727e+00 -2.7798865967674374e-02 -5.2600077199903472e-01 +4.6331242004658173e-03
