# multipoles
# s[mm] polynom_b[n=0][T/m^n] polynom_b[n=1][T/m^n] polynom_b[n=2][T/m^n] polynom_b[n=3][T/m^n] polynom_b[n=4][T/m^n] polynom_b[n=5][T/m^n] polynom_b[n=6][T/m^n] 
+0.0000000000000000e+00 -5.2359943021506905e-01 +6.8370872487615992e+00 +5.8993293312865509e+00 -1.0240680267203979e+01 -1.5928384288851159e+03 -1.7658636005952925e+05 +6.3769840728082256e+06 
-5.0000000000000003e-02 -5.2359969080756941e-01 +6.8370783774045627e+00 +5.8998888391002504e+00 -1.0595836359711557e+01 -1.5944609567233206e+03 -1.7464240865164160e+05 +6.4133092927541854e+06 
-1.0000000000000001e-01 -5.2360033802094363e-01 +6.8370920351362034e+00 +5.8995056948791094e+00 -1.0975744935956046e+01 -1.5867101494490614e+03 -1.7256304393195125e+05 +6.3978642233526884e+06 
-1.5000000000000002e-01 -5.2360137131144280e-01 +6.8371280941966450e+00 +5.8982033243366470e+00 -1.1378756115478097e+01 -1.5700073888565742e+03 -1.7035674841679906e+05 +6.3328946581156282e+06 
-2.0000000000000001e-01 -5.2360279013534972e-01 +6.8371864268233287e+00 +5.8960051553497062e+00 -1.1803219873464522e+01 -1.5447741118513063e+03 -1.6803200584315264e+05 +6.2206467523384336e+06 
-2.5000000000000000e-01 -5.2360459394893766e-01 +6.8372669052551016e+00 +5.8929346108702259e+00 -1.2247486223376589e+01 -1.5114316246938458e+03 -1.6559729958831440e+05 +6.0633657890002020e+06 
-2.9999999999999999e-01 -5.2360678220853807e-01 +6.8373694017336080e+00 +5.8890151208171089e+00 -1.2709905247546184e+01 -1.4704014184248540e+03 -1.6306111254278512e+05 +5.8632982860182365e+06 
-3.4999999999999998e-01 -5.2360935437046352e-01 +6.8374937884992262e+00 +5.8842701084928768e+00 -1.3188826956513534e+01 -1.4221048046678734e+03 -1.6043192815378317e+05 +5.6226895465505086e+06 
-3.9999999999999997e-01 -5.2361230989106877e-01 +6.8376399377940009e+00 +5.8787230017167715e+00 -1.3682601395211016e+01 -1.3669632202595169e+03 -1.5771822960732839e+05 +5.3437857327983836e+06 
-4.4999999999999996e-01 -5.2361564822671680e-01 +6.8378077218621689e+00 +5.8723972261710520e+00 -1.4189578667186280e+01 -1.3053980389463472e+03 -1.5492849962156120e+05 +5.0288325593450628e+06 
-4.9999999999999994e-01 -5.2361936883379345e-01 +6.8379970129474721e+00 +5.8653162083978936e+00 -1.4708108829517430e+01 -1.2378306578112265e+03 -1.5207122129323334e+05 +4.6800759009139035e+06 
-5.4999999999999993e-01 -5.2362347116868913e-01 +6.8382076832965168e+00 +5.8575033732089503e+00 -1.5236542028158670e+01 -1.1646824330299512e+03 -1.4915487698583843e+05 +4.2997613755937591e+06 
-5.9999999999999998e-01 -5.2362795468783674e-01 +6.8384396051550080e+00 +5.8489821490329197e+00 -1.5773228339425595e+01 -1.0863748106487039e+03 -1.4618794965768681e+05 +3.8901351792331529e+06 
-6.5000000000000002e-01 -5.2363281884766399e-01 +6.8386926507693691e+00 +5.8397759604910133e+00 -1.6316517845650331e+01 -1.0033291373301788e+03 -1.4317892219927718e+05 +3.4534428517489238e+06 
-7.0000000000000007e-01 -5.2363806310462313e-01 +6.8389666923879888e+00 +5.8299082338248605e+00 -1.6864760683689038e+01 -9.1596680398272474e+02 -1.4013627704560533e+05 +2.9919302275162321e+06 
-7.5000000000000011e-01 -5.2364368691518970e-01 +6.8392616022585742e+00 +5.8194023961139401e+00 -1.7416306927833098e+01 -8.2470922626939080e+02 -1.3706849716985886e+05 +2.5078433218455324e+06 
-8.0000000000000016e-01 -5.2364968973585124e-01 +6.8395772526299492e+00 +5.8082818733862451e+00 -1.7969506683563598e+01 -7.2997778694614840e+02 -1.3398406523805353e+05 +2.0034279056997783e+06 
-8.5000000000000020e-01 -5.2365607102310396e-01 +6.8399135157533912e+00 +5.7965700904867790e+00 -1.8522710119093990e+01 -6.3219384206200277e+02 -1.3089146344671273e+05 +1.4809295904248019e+06 
-9.0000000000000024e-01 -5.2366283023347771e-01 +6.8402702638762882e+00 +5.7842904748358679e+00 -1.9074267223744901e+01 -5.3177881429221611e+02 -1.2779917541375801e+05 +9.4259442648047430e+05 
-9.5000000000000029e-01 -5.2366996682350142e-01 +6.8406473692515171e+00 +5.7714664511536862e+00 -1.9622528191833734e+01 -4.2915405690441725e+02 -1.2471568305538803e+05 +3.9066800512491557e+05 
-1.0000000000000002e+00 -5.2367748024973593e-01 +6.8410447041287306e+00 +5.7581214464449753e+00 -2.0165843048060360e+01 -3.2474098336819833e+02 -1.2164946971053885e+05 -1.7260367841698401e+05 
-1.0500000000000003e+00 -5.2368536996875037e-01 +6.8414621407594698e+00 +5.7442788866372663e+00 -2.0702561882632974e+01 -2.1896098087026783e+02 -1.1860901811914118e+05 -7.4497480165794096e+05 
-1.1000000000000003e+00 -5.2369363543712688e-01 +6.8418995513954020e+00 +5.7299621969515506e+00 -2.1231034764549715e+01 -1.1223541959046402e+02 -1.1560281119597220e+05 -1.3241996468676359e+06 
-1.1500000000000004e+00 -5.2370227611145914e-01 +6.8423568082877892e+00 +5.7151948017822365e+00 -2.1749611717336673e+01 -4.9856448733658452e+00 -1.1263933222076930e+05 -1.9080326775427582e+06 
-1.2000000000000004e+00 -5.2371129144837680e-01 +6.8428337836887332e+00 +5.7000001289212587e+00 -2.2256642783610701e+01 +1.0236690144344834e+02 -1.0972706427440034e+05 -2.4942276862055175e+06 
-1.2500000000000004e+00 -5.2372068090450552e-01 +6.8433303498516178e+00 +5.6844016028619571e+00 -2.2750478030235115e+01 +2.0940086601279583e+02 -1.0687449024099248e+05 -3.0805390648501655e+06 
-1.3000000000000005e+00 -5.2373044393648482e-01 +6.8438463790266582e+00 +5.6684226475716226e+00 -2.3229467378496135e+01 +3.1569490850633923e+02 -1.0409009414539965e+05 -3.6647212889324245e+06 
-1.3500000000000005e+00 -5.2374058000098134e-01 +6.8443817434674612e+00 +5.6520866892521804e+00 -2.3691960862810564e+01 +4.2082762610554062e+02 -1.0138235908578837e+05 -4.2445284070038889e+06 
-1.4000000000000006e+00 -5.2375108855468533e-01 +6.8449363154258638e+00 +5.6354171551578398e+00 -2.4136308427571748e+01 +5.2437758720540171e+02 -9.8759768845142986e+04 -4.8177142719744211e+06 
-1.4500000000000006e+00 -5.2376196905426509e-01 +6.8455099671536646e+00 +5.6184374665023249e+00 -2.4560859988909243e+01 +6.2592351763097508e+02 -9.6230807446197126e+04 -5.3820337819783138e+06 
-1.5000000000000007e+00 -5.2377322095643974e-01 +6.8461025709030334e+00 +5.6011710503654060e+00 -2.4963965471815506e+01 +7.2504398623575526e+02 -9.3803958743331415e+04 -5.9352407812005961e+06 
-1.5500000000000007e+00 -5.2378484371793288e-01 +6.8467139989261838e+00 +5.5836413317816938e+00 -2.5343974765035789e+01 +8.2131761642992660e+02 -9.1487706936533432e+04 -6.4750894829519726e+06 
-1.6000000000000008e+00 -5.2379683679546407e-01 +6.8473441234725989e+00 +5.5658717332218997e+00 -2.5699237646941544e+01 +9.1432309115707858e+02 -8.9290537015524460e+04 -6.9993344681051457e+06 
-1.6500000000000008e+00 -5.2380919964578809e-01 +6.8479928167960367e+00 +5.5478856797976110e+00 -2.6028104038346374e+01 +1.0036390285460180e+03 -8.7220932810632381e+04 -7.5057299065085426e+06 
-1.7000000000000008e+00 -5.2382193172566938e-01 +6.8486599511459572e+00 +5.5297065964603354e+00 -2.6328923669063620e+01 +1.0888440412014916e+03 -8.5287379678578451e+04 -7.9920298956597829e+06 
-1.7500000000000009e+00 -5.2383503249187613e-01 +6.8493453987729733e+00 +5.5113579059398274e+00 -2.6600046301098175e+01 +1.1695168039718512e+03 -8.3498362656913829e+04 -8.4559889656762667e+06 
-1.8000000000000009e+00 -5.2384850140120309e-01 +6.8500490319269902e+00 +5.4928630331106696e+00 -2.6839821651898813e+01 +1.2452359277540766e+03 -8.1862367101397584e+04 -8.8953611915668193e+06 
-1.8500000000000010e+00 -5.2386233791044989e-01 +6.8507707228586341e+00 +5.4742454012097648e+00 -2.7046599444924873e+01 +1.3155800669471612e+03 -8.0387878297493575e+04 -9.3079009469052106e+06 
-1.9000000000000010e+00 -5.2387654147642482e-01 +6.8515103438141356e+00 +5.4555284324988316e+00 -2.7218729210591384e+01 +1.3801278980536606e+03 -7.9083383063656176e+04 -9.6913627372596469e+06 
-1.9500000000000011e+00 -5.2389111155596157e-01 +6.8522677670432737e+00 +5.4367355513983675e+00 -2.7354560616480708e+01 +1.4384580360926384e+03 -7.7957367007983310e+04 -1.0043500647292113e+07 
-2.0000000000000009e+00 -5.2390604760589410e-01 +6.8530428647940100e+00 +5.4178901797220576e+00 -2.7452443230145935e+01 +1.4901491637488905e+03 -7.7018316545800044e+04 -1.0362069207983403e+07 
-2.0500000000000007e+00 -5.2392134881000274e-01 +6.8538355125887565e+00 +5.3990105260814376e+00 -2.7511135289348495e+01 +1.5348845751426115e+03 -7.6272567863533317e+04 -1.0645364467008879e+07 
-2.1000000000000005e+00 -5.2393701325976816e-01 +6.8546455931589767e+00 +5.3800938730711980e+00 -2.7531007042904864e+01 +1.5727769084551960e+03 -7.5718218352687254e+04 -1.0893905257077811e+07 
-2.1500000000000004e+00 -5.2395303877361965e-01 +6.8554729895825499e+00 +5.3611322661951268e+00 -2.7512827025705942e+01 +1.6040487562923563e+03 -7.5351395976395244e+04 -1.1108779263227096e+07 
-2.2000000000000002e+00 -5.2396942316997830e-01 +6.8563175849333913e+00 +5.3421177483873983e+00 -2.7457363593928616e+01 +1.6289227715957600e+03 -7.5168230192862175e+04 -1.1291074545143636e+07 
-2.2500000000000000e+00 -5.2398616426730593e-01 +6.8571792622880112e+00 +5.3230423669001112e+00 -2.7365385194636719e+01 +1.6476214954070554e+03 -7.5164849706356938e+04 -1.1441878423782496e+07 
-2.2999999999999998e+00 -5.2400325988405538e-01 +6.8580579047211891e+00 +5.3038981652982287e+00 -2.7237660182037093e+01 +1.6603675673824705e+03 -7.5337384012312657e+04 -1.1562278882918535e+07 
-2.3499999999999996e+00 -5.2402070783870447e-01 +6.8589533953108059e+00 +5.2846771899032827e+00 -2.7074957026439421e+01 +1.6673835479755865e+03 -7.5681961630245234e+04 -1.1653363353796355e+07 
-2.3999999999999995e+00 -5.2403850594973578e-01 +6.8598656171340835e+00 +5.2653714852853977e+00 -2.6878044146750522e+01 +1.6688920496255146e+03 -7.6194711548042833e+04 -1.1716219638246126e+07 
-2.4499999999999993e+00 -5.2405665203562968e-01 +6.8607944532672693e+00 +5.2459730936207896e+00 -2.6647689905322625e+01 +1.6651157472028019e+03 -7.6871763221493311e+04 -1.1751935949870430e+07 
-2.4999999999999991e+00 -5.2407514391490595e-01 +6.8617397867903511e+00 +5.2264740623905448e+00 -2.6384662810918286e+01 +1.6562771703568451e+03 -7.7709244884123953e+04 -1.1761599516903579e+07 
-2.5499999999999989e+00 -5.2409397940607583e-01 +6.8627015007811130e+00 +5.2068664353438301e+00 -2.6089731256253650e+01 +1.6425989500473675e+03 -7.8703285768555652e+04 -1.1746298252131905e+07 
-2.5999999999999988e+00 -5.2411315632767408e-01 +6.8636794783182715e+00 +5.1871422582438536e+00 -2.5763663657318830e+01 +1.6243036651054647e+03 -7.9850014934245512e+04 -1.1707119726520602e+07 
-2.6499999999999986e+00 -5.2413267249822804e-01 +6.8646736024840456e+00 +5.1672935741361750e+00 -2.5407228563399737e+01 +1.6016139617354497e+03 -8.1145560332893408e+04 -1.1645151942619855e+07 
-2.6999999999999984e+00 -5.2415252573629945e-01 +6.8656837563567130e+00 +5.1473124296963286e+00 -2.5021194338074611e+01 +1.5747523946249264e+03 -8.2586051501008231e+04 -1.1561482310761020e+07 
-2.7499999999999982e+00 -5.2417271386044029e-01 +6.8667098230194004e+00 +5.1271908683129048e+00 -2.4606329536790479e+01 +1.5439416027246630e+03 -8.4167616382079766e+04 -1.1457198792063374e+07 
-2.7999999999999980e+00 -5.2419323468921919e-01 +6.8677516855511858e+00 +5.1069209344093052e+00 -2.4163402523238492e+01 +1.5094041983057477e+03 -8.5886384558969716e+04 -1.1333389173230030e+07 
-2.8499999999999979e+00 -5.2421408604122832e-01 +6.8688092270383621e+00 +5.0864946750580433e+00 -2.3693181951959819e+01 +1.4713627207568986e+03 -8.7738483207252051e+04 -1.1191140744740676e+07 
-2.8999999999999977e+00 -5.2423526573504442e-01 +6.8698823305613104e+00 +5.0659041322535874e+00 -2.3196436220016800e+01 +1.4300398491525634e+03 -8.9720041652301996e+04 -1.1031541747600889e+07 
-2.9499999999999975e+00 -5.2425677158927708e-01 +6.8709708792049149e+00 +5.0451413526220579e+00 -2.2673933881189686e+01 +1.3856581358516312e+03 -9.1827187999834423e+04 -1.0855679563288528e+07 
-2.9999999999999973e+00 -5.2427860142252836e-01 +6.8720747560538715e+00 +5.0241983794675571e+00 -2.2126443485140356e+01 +1.3384402232208733e+03 -9.4056050356343156e+04 -1.0664642180946834e+07 
-3.0499999999999972e+00 -5.2430075305342361e-01 +6.8731938441939482e+00 +5.0030672587048519e+00 -2.1554733597870808e+01 +1.2886086826209173e+03 -9.6402756769733591e+04 -1.0459517108023822e+07 
-3.0999999999999970e+00 -5.2432322430059142e-01 +6.8743280267116242e+00 +4.9817400350815797e+00 -2.0959572806627442e+01 +1.2363861186238278e+03 -9.8863435127135541e+04 -1.0241392082633339e+07 
-3.1499999999999968e+00 -5.2434601298265981e-01 +6.8754771866923869e+00 +4.9602087515835560e+00 -2.0341729641189065e+01 +1.1819951833851410e+03 -1.0143421383199544e+05 -1.0011355164111746e+07 
-3.1999999999999966e+00 -5.2436911691828947e-01 +6.8766412072252479e+00 +4.9384654557350389e+00 -1.9701972766708408e+01 +1.1256584054295195e+03 -1.0411122018747832e+05 -9.7704935736570135e+06 
-3.2499999999999964e+00 -5.2439253392613361e-01 +6.8778199713989308e+00 +4.9165021917906300e+00 -1.9041070818189663e+01 +1.0675984024568213e+03 -1.0689058180848577e+05 -9.5198951338215284e+06 
-3.2999999999999963e+00 -5.2441626182485046e-01 +6.8790133623022740e+00 +4.8943110036672701e+00 -1.8359792426638691e+01 +1.0080378029248254e+03 -1.0976842636036992e+05 -9.2606477504695747e+06 
-3.3499999999999961e+00 -5.2444029843311579e-01 +6.8802212630278934e+00 +4.8718839366856761e+00 -1.7658906361563080e+01 +9.4719919819165023e+02 -1.1274088042354911e+05 -8.9938390789140817e+06 
-3.3999999999999959e+00 -5.2446464156962003e-01 +6.8814435566631467e+00 +4.8492130376266402e+00 -1.6939181163293320e+01 +8.8530513699456537e+02 -1.1580407250422383e+05 -8.7205564736888055e+06 
-3.4499999999999957e+00 -5.2448928905304337e-01 +6.8826801263033506e+00 +4.8262903496086427e+00 -1.6201385687395181e+01 +8.2257827333447437e+02 -1.1895412856168183e+05 -8.4418880239278097e+06 
-3.4999999999999956e+00 -5.2451423870207847e-01 +6.8839308550407736e+00 +4.8031079172351632e+00 -1.5446288657170017e+01 +7.5924121410758312e+02 -1.2218717566339197e+05 -8.1589214749526922e+06 
-3.5499999999999954e+00 -5.2453948833544395e-01 +6.8851956259696738e+00 +4.7796577876179596e+00 -1.4674658860712217e+01 +6.9551650790802364e+02 -1.2549934040735092e+05 -7.8727442115376350e+06 
-3.5999999999999952e+00 -5.2456503577184466e-01 +6.8864743221851281e+00 +4.7559320048140563e+00 -1.3887265104446284e+01 +6.3162677852017055e+02 -1.2888674930401769e+05 -7.5844440986878332e+06 
-3.6499999999999950e+00 -5.2459087883001165e-01 +6.8877668267823218e+00 +4.7319226156356589e+00 -1.3084876192851237e+01 +5.6779458340226381e+02 -1.3234552891100931e+05 -7.2951085841985987e+06 
-3.6999999999999948e+00 -5.2461701532866301e-01 +6.8890730228587209e+00 +4.7076216639849280e+00 -1.2268261014341402e+01 +5.0424255146546398e+02 -1.3587180513912989e+05 -7.0058255686215851e+06 
-3.7499999999999947e+00 -5.2464344308653099e-01 +6.8903927935128575e+00 +4.6830211942742732e+00 -1.1438188482767984e+01 +4.4119330752286510e+02 -1.3946170376825900e+05 -6.7176829616786484e+06 
-3.7999999999999945e+00 -5.2467015992237864e-01 +6.8917260218425058e+00 +4.6581132559216103e+00 -1.0595427475700518e+01 +3.7886933451104875e+02 -1.4311135090981325e+05 -6.4317676875138711e+06 
-3.8499999999999943e+00 -5.2469716365493646e-01 +6.8930725909493713e+00 +4.6328898909894232e+00 -9.7407470193292820e+00 +3.1749331989945665e+02 -1.4681687151506098e+05 -6.1491680747756101e+06 
-3.8999999999999941e+00 -5.2472445210297347e-01 +6.8944323839354507e+00 +4.6073431475361630e+00 -8.8749161400097201e+00 +2.5728778665753242e+02 -1.5057439060314561e+05 -5.8709713281160081e+06 
-3.9499999999999940e+00 -5.2475202308524693e-01 +6.8958052839005157e+00 +4.5814650701307960e+00 -7.9987037682052593e+00 +1.9847535714242599e+02 -1.5438003400710222e+05 -5.5982653442572616e+06 
-3.9999999999999938e+00 -5.2477987442052287e-01 +6.8971911739497314e+00 +4.5552477041796999e+00 -7.1128790295585569e+00 +1.4127862896855737e+02 -1.5822992605762446e+05 -5.3321378390679499e+06 
-4.0499999999999936e+00 -5.2480800382580772e-01 +6.8985899326019409e+00 +4.5286861040383366e+00 -6.2182888231451861e+00 +8.5864818871404324e+01 -1.6211972654408566e+05 -5.0733916957150018e+06 
-4.0999999999999934e+00 -5.2483640861122882e-01 +6.9000014132825109e+00 +4.5017876854639027e+00 -5.3161338756072620e+00 +3.2182922916648060e+01 -1.6604284017474070e+05 -4.8217099145577587e+06 
-4.1499999999999932e+00 -5.2486508598524739e-01 +6.9014254614564781e+00 +4.4745630595308068e+00 -4.4077155694465366e+00 -1.9871684475506886e+01 -1.6999201018126160e+05 -4.5765014278063392e+06 
-4.1999999999999931e+00 -5.2489403315634742e-01 +6.9028619225895200e+00 +4.4470228409727177e+00 -3.4943353137455584e+00 -7.0403726794141775e+01 -1.7395997971117561e+05 -4.3371744938569395e+06 
-4.2499999999999929e+00 -5.2492324733301499e-01 +6.9043106421467577e+00 +4.4191776442076689e+00 -2.5772945014190829e+00 -1.1951791385119427e+02 -1.7793949204179173e+05 -4.1031374837846225e+06 
-4.2999999999999927e+00 -5.2495272572373830e-01 +6.9057714655947056e+00 +4.3910380838648271e+00 -1.6578946000258632e+00 -1.6731896186097430e+02 -1.8192328979564426e+05 -3.8737987201599353e+06 
-4.3499999999999925e+00 -5.2498246553699368e-01 +6.9072442383977792e+00 +4.3626147719268191e+00 -7.3743698432456750e-01 -2.1391151026498378e+02 -1.8590411640960397e+05 -3.6485670642762682e+06 
-4.3999999999999924e+00 -5.2501246398129853e-01 +6.9087288060197967e+00 +4.3339183271431736e+00 +1.8277698712031021e-01 -2.5940037956702849e+02 -1.8987471543956472e+05 -3.4268501568104895e+06 
-4.4499999999999922e+00 -5.2504271826512616e-01 +6.9102250139240216e+00 +4.3049593604557943e+00 +1.1014459728629022e+00 -3.0389017623332273e+02 -1.9382783060388869e+05 -3.2080570979702449e+06 
-4.4999999999999920e+00 -5.2507322559698977e-01 +6.9117327075751591e+00 +4.2757484893349673e+00 +2.0172685528069034e+00 -3.4748568079899826e+02 -1.9775620491902294e+05 -2.9915958163713971e+06 
-4.5499999999999918e+00 -5.2510398318538332e-01 +6.9132517324349569e+00 +4.2462963280360073e+00 +2.9289434359640825e+00 -3.9029158443074334e+02 -2.0165258253652876e+05 -2.7768748553150189e+06 
-4.5999999999999917e+00 -5.2513498823881477e-01 +6.9147819339685110e+00 +4.2166134926856325e+00 +3.8351691768997491e+00 -4.3241262679637254e+02 -2.0550970630136746e+05 -2.5633024317223052e+06 
-4.6499999999999915e+00 -5.2516623796579343e-01 +6.9163231576357580e+00 +4.1867105995143170e+00 +4.7346445281704570e+00 -4.7395354213394921e+02 -2.0932032067545378e+05 -2.3502868334962465e+06 
-4.6999999999999913e+00 -5.2519772957482713e-01 +6.9178752488981186e+00 +4.1565982650940372e+00 +5.6260681846464111e+00 -5.1501908015170818e+02 -2.1307716969461658e+05 -2.1372362155076344e+06 
-4.7499999999999911e+00 -5.2522946027442108e-01 +6.9194380532163073e+00 +4.1262871043924223e+00 +6.5081388463418728e+00 -5.5571393292619996e+02 -2.1677299739752623e+05 -1.9235591756475235e+06 
-4.7999999999999909e+00 -5.2526142727309078e-01 +6.9210114160519343e+00 +4.0957877351358034e+00 +7.3795551678328941e+00 -5.9614287334864503e+02 -2.2040054744381775e+05 -1.7086637386597670e+06 
-4.8499999999999908e+00 -5.2529362777935396e-01 +6.9225951828640468e+00 +4.0651107753169873e+00 +8.2390159035755630e+00 -6.3641067352315986e+02 -2.2395256436160512e+05 -1.4919579657547420e+06 
-4.8999999999999906e+00 -5.2532605900172158e-01 +6.9241891991105957e+00 +4.0342668412068514e+00 +9.0852198323876294e+00 -6.7662205305314615e+02 -2.2742179282856485e+05 -1.2728502904620150e+06 
-4.9499999999999904e+00 -5.2535871814871193e-01 +6.9257933102511933e+00 +4.0032665515756767e+00 +9.9168656562452373e+00 -7.1688180420084041e+02 -2.3080097692390578e+05 -1.0507486356181123e+06 
-4.9999999999999902e+00 -5.2539160242883520e-01 +6.9274073617433718e+00 +3.9721205229243610e+00 +1.0732652151861380e+01 -7.5729464551451599e+02 -2.3408286134353705e+05 -8.2506146515602898e+05 
-5.0499999999999901e+00 -5.2542470905062222e-01 +6.9290311990438367e+00 +3.9408393761632343e+00 +1.1531278101113113e+01 -7.9796541444104878e+02 -2.3726019077793075e+05 -5.9519644022938341e+05 
