# multipoles
# s[mm] polynom_b[n=0][T/m^n] polynom_b[n=1][T/m^n] polynom_b[n=2][T/m^n] polynom_b[n=3][T/m^n] polynom_b[n=4][T/m^n] polynom_b[n=5][T/m^n] polynom_b[n=6][T/m^n] 
+0.0000000000000000e+00 -5.7928448174799130e-01 +7.6065806534266942e+00 +5.9001848865968212e+00 -3.4124089536011525e+01 +7.0071811225717747e+03 -2.1283742241387835e+05 -5.1473492284492791e+07 
+5.0000000000000003e-02 -5.7928458678246109e-01 +7.6065488176859404e+00 +5.9013592300091702e+00 -3.4328927743257061e+01 +7.0162443431703814e+03 -2.1215125282815495e+05 -5.1552537000204504e+07 
+1.0000000000000001e-01 -5.7928506143149339e-01 +7.6065378920736881e+00 +5.9020303699625174e+00 -3.4542646352072907e+01 +7.0237011123564052e+03 -2.1140859167452151e+05 -5.1614759317935482e+07 
+1.5000000000000002e-01 -5.7928590504079280e-01 +7.6065477765337093e+00 +5.9022025533158580e+00 -3.4763832937849457e+01 +7.0295678907171732e+03 -2.1061722407802337e+05 -5.1660513293244779e+07 
+2.0000000000000001e-01 -5.7928711695610469e-01 +7.6065783710088271e+00 +5.9018800312155575e+00 -3.4991075012333603e+01 +7.0338610223115329e+03 -2.0978493568244480e+05 -5.1690152192569785e+07 
+2.5000000000000000e-01 -5.7928869652318149e-01 +7.6066295754421516e+00 +5.9010670528145930e+00 -3.5222960061084834e+01 +7.0365969063114017e+03 -2.0891951237711977e+05 -5.1704029659625895e+07 
+2.9999999999999999e-01 -5.7929064308779754e-01 +7.6067012897771917e+00 +5.8997678679452124e+00 -3.5458075538533350e+01 +7.0377919254688195e+03 -2.0802874038423109e+05 -5.1702499233861141e+07 
+3.4999999999999998e-01 -5.7929295599573527e-01 +7.6067934139628219e+00 +5.8979867248778746e+00 -3.5695009110031869e+01 +7.0374625008882222e+03 -2.0712040411833543e+05 -5.1685914698434636e+07 
+3.9999999999999997e-01 -5.7929563459279221e-01 +7.6069058479441658e+00 +5.8957278713782717e+00 -3.5932348231102232e+01 +7.0356250710311233e+03 -2.0620228982687314e+05 -5.1654629969641805e+07 
+4.4999999999999996e-01 -5.7929867822480352e-01 +7.6070384916668301e+00 +5.8929955588424177e+00 -3.6168680354194038e+01 +7.0322959744197560e+03 -2.0528218376427612e+05 -5.1608998279561631e+07 
+4.9999999999999994e-01 -5.7930208623761081e-01 +7.6071912450789414e+00 +5.8897940370235116e+00 -3.6402593004496239e+01 +7.0274915923118679e+03 -2.0436787159475414e+05 -5.1549373145604141e+07 
+5.4999999999999993e-01 -5.7930585797705980e-01 +7.6073640081313414e+00 +5.8861275531037691e+00 -3.6632673788028796e+01 +7.0212283762514189e+03 -2.0346713832945010e+05 -5.1476108560582742e+07 
+5.9999999999999998e-01 -5.7930999278903117e-01 +7.6075566807695427e+00 +5.8820003573943032e+00 -3.6857510047367505e+01 +7.0135226947994843e+03 -2.0258777121865109e+05 -5.1389557965513565e+07 
+6.5000000000000002e-01 -5.7931449001940860e-01 +7.6077691629468811e+00 +5.8774166981351312e+00 -3.7075689429967404e+01 +7.0043909671725478e+03 -2.0173755494326632e+05 -5.1290075121829830e+07 
+7.0000000000000007e-01 -5.7931934901410276e-01 +7.6080013546117646e+00 +5.8723808250797864e+00 -3.7285799341038469e+01 +6.9938495746190083e+03 -2.0092427624352663e+05 -5.1178013546876743e+07 
+7.5000000000000011e-01 -5.7932456911903729e-01 +7.6082531557177893e+00 +5.8668969873167462e+00 -3.7486427375600371e+01 +6.9819149158686241e+03 -2.0015572026745454e+05 -5.1053726876246728e+07 
+8.0000000000000016e-01 -5.7933014968014596e-01 +7.6085244662131561e+00 +5.8609694331359883e+00 -3.7676160879223922e+01 +6.9686034068091685e+03 -1.9943967422605230e+05 -5.0917568842703365e+07 
+8.5000000000000020e-01 -5.7933609004338871e-01 +7.6088151860544277e+00 +5.8546024121658515e+00 -3.7853587503588180e+01 +6.9539314301087752e+03 -1.9878392284248513e+05 -5.0769892969407260e+07 
+9.0000000000000024e-01 -5.7934238955473460e-01 +7.6091252151932922e+00 +5.8478001728690536e+00 -3.8017294673120006e+01 +6.9379153971540509e+03 -1.9819625271026877e+05 -5.0611052960956126e+07 
+9.5000000000000029e-01 -5.7934904756016625e-01 +7.6094544535837141e+00 +5.8405669632774364e+00 -3.8165869890915040e+01 +6.9205717304293730e+03 -1.9768444972845190e+05 -5.0441402597950600e+07 
+1.0000000000000002e+00 -5.7935606340568524e-01 +7.6098028011793621e+00 +5.8329070321509624e+00 -3.8297900597656707e+01 +6.9019168299577859e+03 -1.9725630039718776e+05 -5.0261295499581277e+07 
+1.0500000000000003e+00 -5.7936343643732235e-01 +7.6101701579364001e+00 +5.8248246301009718e+00 -3.8411974325789579e+01 +6.8819670468763316e+03 -1.9691959039855376e+05 -5.0071084957556419e+07 
+1.1000000000000003e+00 -5.7937116600108673e-01 +7.6105564238096868e+00 +5.8163240016711999e+00 -3.8506678525959323e+01 +6.8607388917343678e+03 -1.9668210609292216e+05 -4.9871125329445802e+07 
+1.1500000000000004e+00 -5.7937925144304347e-01 +7.6109614987555689e+00 +5.8074093978098773e+00 -3.8580600678126331e+01 +6.8382487049590300e+03 -1.9655163360962193e+05 -4.9661769829616465e+07 
+1.2000000000000004e+00 -5.7938769210924990e-01 +7.6113852827325292e+00 +5.7980850659671974e+00 -3.8632328336875666e+01 +6.8145129162966032e+03 -1.9653595841492276e+05 -4.9443372263200961e+07 
+1.2500000000000004e+00 -5.7939648734578431e-01 +7.6118276756948120e+00 +5.7883552543369889e+00 -3.8660448833801247e+01 +6.7895479338772784e+03 -1.9664286790343863e+05 -4.9216286281794012e+07 
+1.3000000000000005e+00 -5.7940563649873866e-01 +7.6122885776011300e+00 +5.7782242106559698e+00 -3.8663549688046466e+01 +6.7633701773334878e+03 -1.9688014779476449e+05 -4.8980865613247022e+07 
+1.3500000000000005e+00 -5.7941513891421048e-01 +7.6127678884091941e+00 +5.7676961811338625e+00 -3.8640218334065231e+01 +6.7359961059542538e+03 -1.9725558456911959e+05 -4.8737464249888338e+07 
+1.4000000000000006e+00 -5.7942499393833491e-01 +7.6132655080807830e+00 +5.7567754154174899e+00 -3.8589042358727546e+01 +6.7074420861158469e+03 -1.9777696341251867e+05 -4.8486435555704705e+07 
+1.4500000000000006e+00 -5.7943520091723832e-01 +7.6137813365715443e+00 +5.7454661597618202e+00 -3.8508609062138383e+01 +6.6777245687559252e+03 -1.9845207190340586e+05 -4.8228133443779379e+07 
+1.5000000000000007e+00 -5.7944575919707619e-01 +7.6143152738420543e+00 +5.7337726621354044e+00 -3.8397505943133787e+01 +6.6468599617274285e+03 -1.9928869588366873e+05 -4.7962911548617870e+07 
+1.5500000000000007e+00 -5.7945666812400098e-01 +7.6148672198530072e+00 +5.7216991675832398e+00 -3.8254320465361623e+01 +6.6148647473963838e+03 -2.0029462155281819e+05 -4.7691123992207982e+07 
+1.6000000000000008e+00 -5.7946792704419914e-01 +7.6154370745636832e+00 +5.7092499249320490e+00 -3.8077640026616010e+01 +6.5817553007501256e+03 -2.0147763556699024e+05 -4.7413124154658660e+07 
+1.6500000000000008e+00 -5.7947953530386098e-01 +7.6160247379355068e+00 +5.6964291805754650e+00 -3.7866052081313526e+01 +6.5475480640295227e+03 -2.0284552414256945e+05 -4.7129265877079479e+07 
+1.7000000000000008e+00 -5.7949149224918495e-01 +7.6166301099304379e+00 +5.6832411797299232e+00 -3.7618144093830168e+01 +6.5122595096742598e+03 -2.0440607335449365e+05 -4.6839903201989338e+07 
+1.7500000000000009e+00 -5.7950379722639123e-01 +7.6172530905076341e+00 +5.6696901692199875e+00 -3.7332503385136313e+01 +6.4759060604655679e+03 -2.0616707046481836e+05 -4.6545389814192951e+07 
+1.8000000000000009e+00 -5.7951644958171000e-01 +7.6178935796305121e+00 +5.6557803946311989e+00 -3.7007717440688097e+01 +6.4385041741751429e+03 -2.0813630132066793e+05 -4.6246079642790534e+07 
+1.8500000000000010e+00 -5.7952944866138500e-01 +7.6185514772622609e+00 +5.6415161021424920e+00 -3.6642373701597329e+01 +6.4000702831075205e+03 -2.1032155217428505e+05 -4.5942326411767550e+07 
+1.9000000000000010e+00 -5.7954279381166851e-01 +7.6192266833651416e+00 +5.6269015362353354e+00 -3.6235059574329973e+01 +6.3606208689955211e+03 -2.1273060943481489e+05 -4.5634484194650315e+07 
+1.9500000000000011e+00 -5.7955648437884244e-01 +7.6199190979013371e+00 +5.6119409442927051e+00 -3.5784362425089483e+01 +6.3201723306513868e+03 -2.1537125990084480e+05 -4.5322906490733050e+07 
+2.0000000000000009e+00 -5.7957051970917806e-01 +7.6206286208326883e+00 +5.5966385693875784e+00 -3.5288869603655208e+01 +6.2787411805138627e+03 -2.1825129039478046e+05 -4.5007947559184194e+07 
+2.0500000000000007e+00 -5.7958489894691156e-01 +7.6213551543080076e+00 +5.5809996408308375e+00 -3.4747754328086735e+01 +6.2363289210887779e+03 -2.2137487675296117e+05 -4.4689853082039751e+07 
+2.1000000000000005e+00 -5.7959962042855762e-01 +7.6220986035899321e+00 +5.5650333887632693e+00 -3.4162537914758886e+01 +6.1928898715222531e+03 -2.2473184402816315e+05 -4.4368510925475389e+07 
+2.1500000000000004e+00 -5.7961468228884838e-01 +7.6228588733348337e+00 +5.5487500703830541e+00 -3.3535331386356347e+01 +6.1483696784990061e+03 -2.2830844978108135e+05 -4.4043737765758678e+07 
+2.2000000000000002e+00 -5.7963008266251770e-01 +7.6236358682001422e+00 +5.5321599412476612e+00 -3.2868245795879517e+01 +6.1027140339712178e+03 -2.3209095132937655e+05 -4.3715350592739135e+07 
+2.2500000000000000e+00 -5.7964581968433715e-01 +7.6244294928392407e+00 +5.5152732614001829e+00 -3.2163392035530570e+01 +6.0558685086045543e+03 -2.3606560722687782e+05 -4.3383165573082097e+07 
+2.2999999999999998e+00 -5.7966189148905056e-01 +7.6252396519091956e+00 +5.4981002838877284e+00 -3.1422881131863718e+01 +6.0077788628045137e+03 -2.4021867493085310e+05 -4.3047000163943142e+07 
+2.3499999999999996e+00 -5.7967829621145306e-01 +7.6260662500646399e+00 +5.4806512688271161e+00 -3.0648824007283704e+01 +5.9583906664968563e+03 -2.4453641270574671e+05 -4.2706670538088337e+07 
+2.3999999999999995e+00 -5.7969503198632688e-01 +7.6269091919617651e+00 +5.4629364720878248e+00 -2.9843331639688177e+01 +5.9076496040613310e+03 -2.4900507833526481e+05 -4.2361993642532393e+07 
+2.4499999999999993e+00 -5.7971209694847081e-01 +7.6277683822560265e+00 +5.4449661506113873e+00 -2.9008514981548444e+01 +5.8555013313551026e+03 -2.5361092973817259e+05 -4.2012786235574149e+07 
+2.4999999999999991e+00 -5.7972948923270784e-01 +7.6286437256026369e+00 +5.4267505633373174e+00 -2.8146484948091182e+01 +5.8018914541751110e+03 -2.5834022519249268e+05 -4.1658864754657686e+07 
+2.5499999999999989e+00 -5.7974720697386040e-01 +7.6295351266554539e+00 +5.4082999674810992e+00 -2.7259352427876998e+01 +5.7467656226717681e+03 -2.6317922302563296e+05 -4.1300045929703586e+07 
+2.5999999999999988e+00 -5.7976524830676590e-01 +7.6304424900718457e+00 +5.3896246210559564e+00 -2.6349228419766526e+01 +5.6900694671150186e+03 -2.6811418074463471e+05 -4.0936146364923351e+07 
+2.6499999999999986e+00 -5.7978361136626433e-01 +7.6313657205056913e+00 +5.3707347804767336e+00 -2.5418223800102918e+01 +5.6317486634664083e+03 -2.7313135673636844e+05 -4.0566982985612862e+07 
+2.6999999999999984e+00 -5.7980229428723362e-01 +7.6323047226113392e+00 +5.3516407072230949e+00 -2.4468449456283185e+01 +5.5717487510284200e+03 -2.7821700927318126e+05 -4.0192371795403279e+07 
+2.7499999999999982e+00 -5.7982129520452852e-01 +7.6332594010436345e+00 +5.3323526567742281e+00 -2.3502016287830326e+01 +5.5100154342185788e+03 -2.8335739652987110e+05 -3.9812129928739995e+07 
+2.7999999999999980e+00 -5.7984061225303885e-01 +7.6342296604554409e+00 +5.3128808895214847e+00 -2.2521035125359766e+01 +5.4464942828078938e+03 -2.8853877715314424e+05 -3.9426073604749560e+07 
+2.8499999999999979e+00 -5.7986024356766430e-01 +7.6352154055012180e+00 +5.2932356652409771e+00 -2.1527616859018639e+01 +5.3811308891103263e+03 -2.9374740927507100e+05 -3.9034019218272097e+07 
+2.8999999999999977e+00 -5.7988018728328472e-01 +7.6362165408346758e+00 +5.2734272388568728e+00 -2.0523872353597696e+01 +5.3138709755205573e+03 -2.9896955119175656e+05 -3.8635784042756312e+07 
+2.9499999999999975e+00 -5.7990044153484055e-01 +7.6372329711091309e+00 +5.2534658748531449e+00 -1.9511912462628676e+01 +5.2446600052756739e+03 -3.0419146122939751e+05 -3.8231183598935239e+07 
+2.9999999999999973e+00 -5.7992100445724892e-01 +7.6382646009759396e+00 +5.2333618310003667e+00 -1.8493847962769394e+01 +5.1734436329682885e+03 -3.0939939829941466e+05 -3.7820034742256716e+07 
+3.0499999999999972e+00 -5.7994187418544363e-01 +7.6393113350913833e+00 +5.2131253670715445e+00 -1.7471789835620498e+01 +5.1001674541045450e+03 -3.1457961958915344e+05 -3.7402153908576556e+07 
+3.0999999999999970e+00 -5.7996304885436911e-01 +7.6403730781033632e+00 +5.1927667431970308e+00 -1.6447848724309342e+01 +5.0247770593952491e+03 -3.1971838502093760e+05 -3.6977357526457235e+07 
+3.1499999999999968e+00 -5.7998452659899458e-01 +7.6414497346637971e+00 +5.1722962222177316e+00 -1.5424135453533394e+01 +4.9472179689023460e+03 -3.2480195292562002e+05 -3.6545461557191506e+07 
+3.1999999999999966e+00 -5.8000630555427068e-01 +7.6425412094229737e+00 +5.1517240623659131e+00 -1.4402760767291300e+01 +4.8674358278967293e+03 -3.2981658234091301e+05 -3.6106282813478090e+07 
+3.2499999999999964e+00 -5.8002838385518207e-01 +7.6436474070341864e+00 +5.1310605262516278e+00 -1.3385835564725559e+01 +4.7853761680921170e+03 -3.3474853086094401e+05 -3.5659637361377954e+07 
+3.2999999999999963e+00 -5.8005075963671060e-01 +7.6447682321473760e+00 +5.1103158749751509e+00 -1.2375470605604777e+01 +4.7009845615020058e+03 -3.3958405722974165e+05 -3.5205341538929038e+07 
+3.3499999999999961e+00 -5.8007343103385978e-01 +7.6459035894070100e+00 +5.0895003716472278e+00 -1.1373776431427068e+01 +4.6142065313440371e+03 -3.4430942194216960e+05 -3.4743211377673306e+07 
+3.3999999999999959e+00 -5.8009639618163367e-01 +7.6470533834678678e+00 +5.0686242783822211e+00 -1.0382864024852676e+01 +4.5249876311543330e+03 -3.4891088177335978e+05 -3.4273063132244073e+07 
+3.4499999999999957e+00 -5.8011965321504733e-01 +7.6482175189761632e+00 +5.0476978579246170e+00 -9.4048440280333327e+00 +4.4332733984576971e+03 -3.5337469624416914e+05 -3.3794712952797428e+07 
+3.4999999999999956e+00 -5.8014320026911548e-01 +7.6493959005771996e+00 +5.0267313717798290e+00 -8.4418270537288080e+00 +4.3390094057708502e+03 -3.5768712507420446e+05 -3.3307977233795136e+07 
+3.5499999999999954e+00 -5.8016703547888870e-01 +7.6505884329189078e+00 +5.0057350865180537e+00 -7.4959238397764274e+00 +4.2421410946214755e+03 -3.6183442688516458e+05 -3.2812671511285774e+07 
+3.5999999999999952e+00 -5.8019115697939805e-01 +7.6517950206486978e+00 +4.9847192636728712e+00 -6.5692451247749641e+00 +4.1426140480713784e+03 -3.6580286018825456e+05 -3.2308612299691740e+07 
+3.6499999999999950e+00 -5.8021556290570397e-01 +7.6530155684110559e+00 +4.9636941693926779e+00 -5.6639015241375814e+00 +4.0403737231846821e+03 -3.6957868452307320e+05 -3.1795615260676675e+07 
+3.6999999999999948e+00 -5.8024025139286839e-01 +7.6542499808521098e+00 +4.9426700690455165e+00 -4.7820037509435114e+00 +3.9353656003160190e+03 -3.7314815849781327e+05 -3.1273496223601371e+07 
+3.7499999999999947e+00 -5.8026522057595309e-01 +7.6554981626137639e+00 +4.9216572261710638e+00 -3.9256623615847430e+00 +3.8275352198567898e+03 -3.7649754195274017e+05 -3.0742071466379598e+07 
+3.7999999999999945e+00 -5.8029046859004141e-01 +7.6567600183399822e+00 +4.9006659075840631e+00 -3.0969880082846215e+00 +3.7168280323835525e+03 -3.7961309388939751e+05 -3.0201156658585478e+07 
+3.8499999999999943e+00 -5.8031599357021524e-01 +7.6580354526735785e+00 +4.8797063787192885e+00 -2.2980913178373186e+00 +3.6031895296603307e+03 -3.8248107344356726e+05 -2.9650567763676338e+07 
+3.8999999999999941e+00 -5.8034179365158833e-01 +7.6593243702561207e+00 +4.8587889097343391e+00 -1.5310828855457566e+00 +3.4865650809038630e+03 -3.8508773993403662e+05 -2.9090119942225140e+07 
+3.9499999999999940e+00 -5.8036786696924281e-01 +7.6606266757274515e+00 +4.8379237638837838e+00 -7.9807325705941545e-01 +3.3669002476096666e+03 -3.8741935301967704e+05 -2.8519629675560545e+07 
+3.9999999999999938e+00 -5.8039421165830607e-01 +7.6619422737278464e+00 +4.8171212118794813e+00 -1.0117301612407759e-01 +3.2441403923766957e+03 -3.8946217192686087e+05 -2.7938912111888498e+07 
+4.0499999999999936e+00 -5.8042082566724496e-01 +7.6632710475572621e+00 +4.7963864378625418e+00 +5.5816830310053522e-01 +3.1183105494578331e+03 -3.9120721823201759e+05 -2.7348151816165432e+07 
+4.0999999999999934e+00 -5.8044770619630603e-01 +7.6646127869082079e+00 +4.7757051541536661e+00 +1.1812640093982927e+00 +2.9897275924180917e+03 -3.9266553384065139e+05 -2.6748815201724965e+07 
+4.1499999999999932e+00 -5.8047485025825996e-01 +7.6659672559446266e+00 +4.7550584450129554e+00 +1.7701499740025690e+00 +2.8587744151145353e+03 -3.9385342910616519e+05 -2.6142638117658716e+07 
+4.1999999999999931e+00 -5.8050225486587370e-01 +7.6673342188324884e+00 +4.7344273939165538e+00 +2.3268619950658698e+00 +2.7258339295618885e+03 -3.9478721393161925e+05 -2.5531356512503378e+07 
+4.2499999999999929e+00 -5.8052991703192225e-01 +7.6687134397389860e+00 +4.7137930854568424e+00 +2.8534358270899296e+00 +2.5912890167007031e+03 -3.9548319795359712e+05 -2.4916706118681211e+07 
+4.2999999999999927e+00 -5.8055783376916892e-01 +7.6701046828318811e+00 +4.6931366016394263e+00 +3.3519072262527176e+00 +2.4555226268939664e+03 -3.9595769096676377e+05 -2.4300423130379599e+07 
+4.3499999999999925e+00 -5.8058600209037259e-01 +7.6715077122825175e+00 +4.6724390241402372e+00 +3.8243117941026692e+00 +2.3189177147013770e+03 -3.9622700153451087e+05 -2.3684243748507928e+07 
+4.3999999999999924e+00 -5.8061441900830790e-01 +7.6729222922629114e+00 +4.6516814370025488e+00 +4.2726851317702002e+00 +2.1818571698940113e+03 -3.9630743839240872e+05 -2.3069903728006221e+07 
+4.4499999999999922e+00 -5.8064308153573840e-01 +7.6743481869445951e+00 +4.6308449220653420e+00 +4.6990628574336943e+00 +2.0447239409543399e+03 -3.9621531046746584e+05 -2.2459139209213559e+07 
+4.4999999999999920e+00 -5.8067198668541520e-01 +7.6757851605050060e+00 +4.6099105593188092e+00 +5.1054803707125513e+00 +1.9079010220993848e+03 -3.9596692505506368e+05 -2.1853686624855179e+07 
+4.5499999999999918e+00 -5.8070113147010249e-01 +7.6772329771208403e+00 +4.5888594308109152e+00 +5.4939731183385110e+00 +1.7717713528523163e+03 -3.9557858998852759e+05 -2.1255282032704320e+07 
+4.5999999999999917e+00 -5.8073051290254629e-01 +7.6786914009702496e+00 +4.5676726156319791e+00 +5.8665764792959241e+00 +1.6367179486696612e+03 -3.9506661257587431e+05 -2.0665661985805895e+07 
+4.6499999999999915e+00 -5.8076012799551313e-01 +7.6801601962342998e+00 +4.5463311964456636e+00 +6.2253257411641112e+00 +1.5031237264654326e+03 -3.9444729958475631e+05 -2.0086562354482945e+07 
+4.6999999999999913e+00 -5.8078997376174124e-01 +7.6816391270960640e+00 +4.5248162513120667e+00 +6.5722561285533212e+00 +1.3713717249613305e+03 -3.9373695741101570e+05 -1.9519719819028866e+07 
+4.7499999999999911e+00 -5.8082004721397462e-01 +7.6831279577401226e+00 +4.5031088592920829e+00 +6.9094028012271664e+00 +1.2418449548474237e+03 -3.9295189200337825e+05 -1.8966870858587790e+07 
+4.7999999999999909e+00 -5.8085034536496172e-01 +7.6846264523535357e+00 +4.4811901006864296e+00 +7.2388008327521316e+00 +1.1149263888759824e+03 -3.9210840874655393e+05 -1.8429751673298083e+07 
+4.8499999999999908e+00 -5.8088086522742022e-01 +7.6861343751255031e+00 +4.4590410505910345e+00 +7.5624852275926733e+00 +9.9099913970331079e+02 -3.9122281263364357e+05 -1.7910099399809614e+07 
+4.8999999999999906e+00 -5.8091160381409268e-01 +7.6876514902467994e+00 +4.4366427889985607e+00 +7.8824909423748304e+00 +8.7044618443853449e+02 -3.9031140841862909e+05 -1.7409650239919510e+07 
+4.9499999999999904e+00 -5.8094255813770479e-01 +7.6891775619103582e+00 +4.4139763932260614e+00 +8.2008528545736450e+00 +7.5365056934183065e+02 -3.8939050035969383e+05 -1.6930140843090575e+07 
+4.9999999999999902e+00 -5.8097372521097079e-01 +7.6907123543113238e+00 +4.3910229390883941e+00 +8.5196057565627701e+00 +6.4099537732227702e+02 -3.8847639212409320e+05 -1.6473308082990469e+07 
+5.0499999999999901e+00 -5.8100510204659372e-01 +7.6922556316481545e+00 +4.3677635009105105e+00 +8.8407843331166394e+00 +5.3286373197771934e+02 -3.8758538671969500e+05 -1.6040889106393602e+07 
