# field on trajectory
# s[mm] rx[mm] ry[mm] rz[mm] bx[T] by[T] bz[T]
0.0000000000000000e+00 +8.5269999999999992e+00 +0.0000000000000000e+00 +0.0000000000000000e+00 -2.8383899318314476e-02 -5.5585257296266288e-01 +5.5369604203980138e-03
5.0000000000000003e-02 +8.5269999306545667e+00 +0.0000000000000000e+00 +4.9999999999935887e-02 -2.8383968359117672e-02 -5.5585247487283507e-01 +5.5368480412266970e-03
1.0000000000000001e-01 +8.5269997226182692e+00 +0.0000000000000000e+00 +9.9999999999487055e-02 -2.8384050039715818e-02 -5.5585270911724660e-01 +5.5367402048394519e-03
1.5000000000000002e-01 +8.5269993758910498e+00 +0.0000000000000000e+00 +1.4999999999826882e-01 -2.8384144423902198e-02 -5.5585327499600690e-01 +5.5366368793980641e-03
2.0000000000000001e-01 +8.5269988904727665e+00 +0.0000000000000000e+00 +1.9999999999589649e-01 -2.8384251575470545e-02 -5.5585417180924057e-01 +5.5365380330644589e-03
2.5000000000000000e-01 +8.5269982663631971e+00 +0.0000000000000000e+00 +2.4999999999198533e-01 -2.8384371558215143e-02 -5.5585539885708823e-01 +5.5364436340007098e-03
2.9999999999999999e-01 +8.5269975035620327e+00 +0.0000000000000000e+00 +2.9999999998615062e-01 -2.8384504435930769e-02 -5.5585695543970681e-01 +5.5363536503690129e-03
3.4999999999999998e-01 +8.5269966020688877e+00 +0.0000000000000000e+00 +3.4999999997800768e-01 -2.8384650272412739e-02 -5.5585884085726711e-01 +5.5362680503316906e-03
3.9999999999999997e-01 +8.5269955618832896e+00 +0.0000000000000000e+00 +3.9999999996717178e-01 -2.8384809131456943e-02 -5.5586105440995692e-01 +5.5361868020511844e-03
4.4999999999999996e-01 +8.5269943830046877e+00 +0.0000000000000000e+00 +4.4999999995325823e-01 -2.8384981076859824e-02 -5.5586359539797903e-01 +5.5361098736900422e-03
4.9999999999999994e-01 +8.5269930654324479e+00 +0.0000000000000000e+00 +4.9999999993588223e-01 -2.8385166172418409e-02 -5.5586646312155130e-01 +5.5360372334109110e-03
5.4999999999999993e-01 +8.5269916091658544e+00 +0.0000000000000000e+00 +5.4999999991465909e-01 -2.8385364481930360e-02 -5.5586965688090706e-01 +5.5359688493765297e-03
5.9999999999999998e-01 +8.5269900142041095e+00 +0.0000000000000000e+00 +5.9999999988920405e-01 -2.8385576069193931e-02 -5.5587317597629615e-01 +5.5359046897497368e-03
6.5000000000000002e-01 +8.5269882805463357e+00 +0.0000000000000000e+00 +6.4999999985913237e-01 -2.8385800998008033e-02 -5.5587701970798176e-01 +5.5358447226934310e-03
7.0000000000000007e-01 +8.5269864081915738e+00 +0.0000000000000000e+00 +6.9999999982405925e-01 -2.8386039332172198e-02 -5.5588118737624348e-01 +5.5357889163705912e-03
7.5000000000000011e-01 +8.5269843971387846e+00 +0.0000000000000000e+00 +7.4999999978359988e-01 -2.8386291135486661e-02 -5.5588567828137558e-01 +5.5357372389442583e-03
8.0000000000000016e-01 +8.5269822473868473e+00 +0.0000000000000000e+00 +7.9999999973736946e-01 -2.8386556471752311e-02 -5.5589049172368743e-01 +5.5356896585775275e-03
8.5000000000000020e-01 +8.5269799589345610e+00 +0.0000000000000000e+00 +8.4999999968498330e-01 -2.8386835404770779e-02 -5.5589562700350370e-01 +5.5356461434335454e-03
9.0000000000000024e-01 +8.5269775317806431e+00 +0.0000000000000000e+00 +8.9999999962605648e-01 -2.8387127998344384e-02 -5.5590108342116407e-01 +5.5356066616754967e-03
9.5000000000000029e-01 +8.5269749659237348e+00 +0.0000000000000000e+00 +9.4999999956020420e-01 -2.8387434316276192e-02 -5.5590686027702285e-01 +5.5355711814665991e-03
1.0000000000000002e+00 +8.5269722613623919e+00 +0.0000000000000000e+00 +9.9999999948704166e-01 -2.8387754422370022e-02 -5.5591295687144970e-01 +5.5355396709701014e-03
1.0500000000000003e+00 +8.5269694180950957e+00 +0.0000000000000000e+00 +1.0499999994061839e+00 -2.8388088380430426e-02 -5.5591937250482826e-01 +5.5355120983492552e-03
1.1000000000000003e+00 +8.5269664361202437e+00 +0.0000000000000000e+00 +1.0999999993172462e+00 -2.8388436254262794e-02 -5.5592610647755825e-01 +5.5354884317673422e-03
1.1500000000000004e+00 +8.5269633154361575e+00 +0.0000000000000000e+00 +1.1499999992198435e+00 -2.8388798107673294e-02 -5.5593315809005306e-01 +5.5354686393876374e-03
1.2000000000000004e+00 +8.5269600560410765e+00 +0.0000000000000000e+00 +1.1999999991135910e+00 -2.8389174004468883e-02 -5.5594052664274096e-01 +5.5354526893734062e-03
1.2500000000000004e+00 +8.5269566579331624e+00 +0.0000000000000000e+00 +1.2499999989981037e+00 -2.8389564008457401e-02 -5.5594821143606521e-01 +5.5354405498879095e-03
1.3000000000000005e+00 +8.5269531211104983e+00 +0.0000000000000000e+00 +1.2999999988729964e+00 -2.8389968183447495e-02 -5.5595621177048338e-01 +5.5354321890943902e-03
1.3500000000000005e+00 +8.5269494455710877e+00 +0.0000000000000000e+00 +1.3499999987378846e+00 -2.8390386593248693e-02 -5.5596452694646770e-01 +5.5354275751560537e-03
1.4000000000000006e+00 +8.5269456313128558e+00 +0.0000000000000000e+00 +1.3999999985923828e+00 -2.8390819301671415e-02 -5.5597315626450494e-01 +5.5354266762360814e-03
1.4500000000000006e+00 +8.5269416783336496e+00 +0.0000000000000000e+00 +1.4499999984361063e+00 -2.8391266372526969e-02 -5.5598209902509599e-01 +5.5354294604976024e-03
1.5000000000000007e+00 +8.5269375866312380e+00 +0.0000000000000000e+00 +1.4999999982686700e+00 -2.8391727869627570e-02 -5.5599135452875614e-01 +5.5354358961037112e-03
1.5500000000000007e+00 +8.5269333562033101e+00 +0.0000000000000000e+00 +1.5499999980896888e+00 -2.8392203856786372e-02 -5.5600092207601581e-01 +5.5354459512174268e-03
1.6000000000000008e+00 +8.5269289870474800e+00 +0.0000000000000000e+00 +1.5999999978987776e+00 -2.8392694397817494e-02 -5.5601080096741851e-01 +5.5354595940017119e-03
1.6500000000000008e+00 +8.5269244791612842e+00 +0.0000000000000000e+00 +1.6499999976955511e+00 -2.8393199556535978e-02 -5.5602099050352294e-01 +5.5354767926194580e-03
1.7000000000000008e+00 +8.5269198325421787e+00 +0.0000000000000000e+00 +1.6999999974796243e+00 -2.8393719396757881e-02 -5.5603148998490126e-01 +5.5354975152334751e-03
1.7500000000000009e+00 +8.5269150471875435e+00 +0.0000000000000000e+00 +1.7499999972506119e+00 -2.8394253982300242e-02 -5.5604229871214017e-01 +5.5355217300064848e-03
1.8000000000000009e+00 +8.5269101230946838e+00 +0.0000000000000000e+00 +1.7999999970081291e+00 -2.8394803376981095e-02 -5.5605341598584024e-01 +5.5355494051011122e-03
1.8500000000000010e+00 +8.5269050602608250e+00 +0.0000000000000000e+00 +1.8499999967517902e+00 -2.8395367644619567e-02 -5.5606484110661658e-01 +5.5355805086798847e-03
1.9000000000000010e+00 +8.5268998586831160e+00 +0.0000000000000000e+00 +1.8999999964812100e+00 -2.8395946849035746e-02 -5.5607657337509730e-01 +5.5356150089052158e-03
1.9500000000000011e+00 +8.5268945183586293e+00 +0.0000000000000000e+00 +1.9499999961960033e+00 -2.8396541054050831e-02 -5.5608861209192517e-01 +5.5356528739393960e-03
2.0000000000000009e+00 +8.5268890392843613e+00 +0.0000000000000000e+00 +1.9999999958957848e+00 -2.8397150323487122e-02 -5.5610095655775693e-01 +5.5356940719446020e-03
2.0500000000000007e+00 +8.5268834214572315e+00 +0.0000000000000000e+00 +2.0499999955801691e+00 -2.8397774699323124e-02 -5.5611360586430014e-01 +5.5357385790882688e-03
2.1000000000000005e+00 +8.5268776648740854e+00 +0.0000000000000000e+00 +2.0999999952487705e+00 -2.8398414136159025e-02 -5.5612655826742530e-01 +5.5357864035593830e-03
2.1500000000000004e+00 +8.5268717695316898e+00 +0.0000000000000000e+00 +2.1499999949012039e+00 -2.8399068566750729e-02 -5.5613981181405292e-01 +5.5358375615524444e-03
2.2000000000000002e+00 +8.5268657354267390e+00 +0.0000000000000000e+00 +2.1999999945370834e+00 -2.8399737923854682e-02 -5.5615336455111219e-01 +5.5358920692620984e-03
2.2500000000000000e+00 +8.5268595625558508e+00 +0.0000000000000000e+00 +2.2499999941560240e+00 -2.8400422140227748e-02 -5.5616721452554452e-01 +5.5359499428831354e-03
2.2999999999999998e+00 +8.5268532509155701e+00 +0.0000000000000000e+00 +2.2999999937576399e+00 -2.8401121148627344e-02 -5.5618135978430128e-01 +5.5360111986105026e-03
2.3499999999999996e+00 +8.5268468005023657e+00 +0.0000000000000000e+00 +2.3499999933415454e+00 -2.8401834881811271e-02 -5.5619579837434430e-01 +5.5360758526393225e-03
2.3999999999999995e+00 +8.5268402113126367e+00 +0.0000000000000000e+00 +2.3999999929073552e+00 -2.8402563272537804e-02 -5.5621052834264462e-01 +5.5361439211648886e-03
2.4499999999999993e+00 +8.5268334833427080e+00 +0.0000000000000000e+00 +2.4499999924546834e+00 -2.8403306253565568e-02 -5.5622554773618371e-01 +5.5362154203826780e-03
2.4999999999999991e+00 +8.5268266165888331e+00 +0.0000000000000000e+00 +2.4999999919831444e+00 -2.8404063757653635e-02 -5.5624085460195249e-01 +5.5362903664883710e-03
2.5499999999999989e+00 +8.5268196110471912e+00 +0.0000000000000000e+00 +2.5499999914923523e+00 -2.8404835717561427e-02 -5.5625644698695120e-01 +5.5363687756778438e-03
2.5999999999999988e+00 +8.5268124667138938e+00 +0.0000000000000000e+00 +2.5999999909819214e+00 -2.8405622066048714e-02 -5.5627232293818929e-01 +5.5364506641471896e-03
2.6499999999999986e+00 +8.5268051835849779e+00 +0.0000000000000000e+00 +2.6499999904514655e+00 -2.8406422735875608e-02 -5.5628848050268487e-01 +5.5365360480927146e-03
2.6999999999999984e+00 +8.5267977616564128e+00 +0.0000000000000000e+00 +2.6999999899005993e+00 -2.8407237659802527e-02 -5.5630491772746515e-01 +5.5366249437109674e-03
2.7499999999999982e+00 +8.5267902009240970e+00 +0.0000000000000000e+00 +2.7499999893289364e+00 -2.8408066770590192e-02 -5.5632163265956558e-01 +5.5367173671987289e-03
2.7999999999999980e+00 +8.5267825013838614e+00 +0.0000000000000000e+00 +2.7999999887360913e+00 -2.8408910000999585e-02 -5.5633862334603024e-01 +5.5368133347530246e-03
2.8499999999999979e+00 +8.5267746630314658e+00 +0.0000000000000000e+00 +2.8499999881216778e+00 -2.8409767283791978e-02 -5.5635588783391066e-01 +5.5369128625711427e-03
2.8999999999999977e+00 +8.5267666858626026e+00 +0.0000000000000000e+00 +2.8999999874853093e+00 -2.8410638551728842e-02 -5.5637342417026703e-01 +5.5370159668506379e-03
2.9499999999999975e+00 +8.5267585698728965e+00 +0.0000000000000000e+00 +2.9499999868266005e+00 -2.8411523737571862e-02 -5.5639123040216665e-01 +5.5371226637893345e-03
2.9999999999999973e+00 +8.5267503150579049e+00 +0.0000000000000000e+00 +2.9999999861451645e+00 -2.8412422774082957e-02 -5.5640930457668458e-01 +5.5372329695853456e-03
3.0499999999999972e+00 +8.5267419214131177e+00 +0.0000000000000000e+00 +3.0499999854406159e+00 -2.8413335594024199e-02 -5.5642764474090289e-01 +5.5373469004370724e-03
3.0999999999999970e+00 +8.5267333889339589e+00 +0.0000000000000000e+00 +3.0999999847125679e+00 -2.8414262130157828e-02 -5.5644624894191086e-01 +5.5374644725432213e-03
3.1499999999999968e+00 +8.5267247176157870e+00 +0.0000000000000000e+00 +3.1499999839606341e+00 -2.8415202315246239e-02 -5.5646511522680486e-01 +5.5375857021028076e-03
3.1999999999999966e+00 +8.5267159074538945e+00 +0.0000000000000000e+00 +3.1999999831844286e+00 -2.8416156082051922e-02 -5.5648424164268750e-01 +5.5377106053151630e-03
3.2499999999999964e+00 +8.5267069584435102e+00 +0.0000000000000000e+00 +3.2499999823835646e+00 -2.8417123363337484e-02 -5.5650362623666749e-01 +5.5378391983799541e-03
3.2999999999999963e+00 +8.5266978705797971e+00 +0.0000000000000000e+00 +3.2999999815576557e+00 -2.8418104091865608e-02 -5.5652326705586064e-01 +5.5379714974971806e-03
3.3499999999999961e+00 +8.5266886438578542e+00 +0.0000000000000000e+00 +3.3499999807063157e+00 -2.8419098200399062e-02 -5.5654316214738775e-01 +5.5381075188671866e-03
3.3999999999999959e+00 +8.5266792782727183e+00 +0.0000000000000000e+00 +3.3999999798291576e+00 -2.8420105621700623e-02 -5.5656330955837641e-01 +5.5382472786906752e-03
3.4499999999999957e+00 +8.5266697738193624e+00 +0.0000000000000000e+00 +3.4499999789257951e+00 -2.8421126288533119e-02 -5.5658370733595885e-01 +5.5383907931687111e-03
3.4999999999999956e+00 +8.5266601304926954e+00 +0.0000000000000000e+00 +3.4999999779958415e+00 -2.8422160133659388e-02 -5.5660435352727322e-01 +5.5385380785027295e-03
3.5499999999999954e+00 +8.5266503482875677e+00 +0.0000000000000000e+00 +3.5499999770389099e+00 -2.8423207089842226e-02 -5.5662524617946285e-01 +5.5386891508945549e-03
3.5999999999999952e+00 +8.5266404271987675e+00 +0.0000000000000000e+00 +3.5999999760546140e+00 -2.8424267089844434e-02 -5.5664638333967531e-01 +5.5388440265463955e-03
3.6499999999999950e+00 +8.5266303672210189e+00 +0.0000000000000000e+00 +3.6499999750425665e+00 -2.8425340066428741e-02 -5.5666776305506405e-01 +5.5390027216608642e-03
3.6999999999999948e+00 +8.5266201683489893e+00 +0.0000000000000000e+00 +3.6999999740023806e+00 -2.8426425952357795e-02 -5.5668938337278562e-01 +5.5391652524409722e-03
3.7499999999999947e+00 +8.5266098305772822e+00 +0.0000000000000000e+00 +3.7499999729336690e+00 -2.8427524680394185e-02 -5.5671124234000235e-01 +5.5393316350901625e-03
3.7999999999999945e+00 +8.5265993539004459e+00 +0.0000000000000000e+00 +3.7999999718360455e+00 -2.8428636183300361e-02 -5.5673333800387947e-01 +5.5395018858122938e-03
3.8499999999999943e+00 +8.5265887383129666e+00 +0.0000000000000000e+00 +3.8499999707091224e+00 -2.8429760393838658e-02 -5.5675566841158675e-01 +5.5396760208116669e-03
3.8999999999999941e+00 +8.5265779838092719e+00 +0.0000000000000000e+00 +3.8999999695525127e+00 -2.8430897244771273e-02 -5.5677823161029771e-01 +5.5398540562930244e-03
3.9499999999999940e+00 +8.5265670903837343e+00 +0.0000000000000000e+00 +3.9499999683658293e+00 -2.8432046668860202e-02 -5.5680102564718870e-01 +5.5400360084615543e-03
3.9999999999999938e+00 +8.5265560580306641e+00 +0.0000000000000000e+00 +3.9999999671486850e+00 -2.8433208598867301e-02 -5.5682404856943957e-01 +5.5402218935229194e-03
4.0499999999999936e+00 +8.5265448867443183e+00 +0.0000000000000000e+00 +4.0499999659006924e+00 -2.8434382969127158e-02 -5.5684729834891111e-01 +5.5404117192025962e-03
4.0999999999999934e+00 +8.5265335765188954e+00 +0.0000000000000000e+00 +4.0999999646214640e+00 -2.8435569720266080e-02 -5.5687077265617557e-01 +5.5406054593036269e-03
4.1499999999999932e+00 +8.5265221273485388e+00 +0.0000000000000000e+00 +4.1499999633106128e+00 -2.8436768794483071e-02 -5.5689446908648510e-01 +5.5408030791481728e-03
4.1999999999999931e+00 +8.5265105392273366e+00 +0.0000000000000000e+00 +4.1999999619677508e+00 -2.8437980133976845e-02 -5.5691838523509185e-01 +5.5410045440581340e-03
4.2499999999999929e+00 +8.5264988121493204e+00 +0.0000000000000000e+00 +4.2499999605924907e+00 -2.8439203680945758e-02 -5.5694251869725075e-01 +5.5412098193551307e-03
4.2999999999999927e+00 +8.5264869461084700e+00 +0.0000000000000000e+00 +4.2999999591844453e+00 -2.8440439377587830e-02 -5.5696686706821796e-01 +5.5414188703604853e-03
4.3499999999999925e+00 +8.5264749410987104e+00 +0.0000000000000000e+00 +4.3499999577432265e+00 -2.8441687166100738e-02 -5.5699142794324952e-01 +5.5416316623952142e-03
4.3999999999999924e+00 +8.5264627971139131e+00 +0.0000000000000000e+00 +4.3999999562684469e+00 -2.8442946988681744e-02 -5.5701619891760312e-01 +5.5418481607800189e-03
4.4499999999999922e+00 +8.5264505141478981e+00 +0.0000000000000000e+00 +4.4499999547597184e+00 -2.8444218787527689e-02 -5.5704117758653637e-01 +5.5420683308352618e-03
4.4999999999999920e+00 +8.5264380921944323e+00 +0.0000000000000000e+00 +4.4999999532166530e+00 -2.8445502504835029e-02 -5.5706636154530709e-01 +5.5422921378809574e-03
4.5499999999999918e+00 +8.5264255312472326e+00 +0.0000000000000000e+00 +4.5499999516388634e+00 -2.8446798082799735e-02 -5.5709174838917375e-01 +5.5425195472367621e-03
4.5999999999999917e+00 +8.5264128312999645e+00 +0.0000000000000000e+00 +4.5999999500259605e+00 -2.8448105463617319e-02 -5.5711733571339395e-01 +5.5427505242219583e-03
4.6499999999999915e+00 +8.5263999923462439e+00 +0.0000000000000000e+00 +4.6499999483775571e+00 -2.8449424589482807e-02 -5.5714312111322462e-01 +5.5429850341554331e-03
4.6999999999999913e+00 +8.5263870143796385e+00 +0.0000000000000000e+00 +4.6999999466932652e+00 -2.8450755402590688e-02 -5.5716910218392279e-01 +5.5432230423556770e-03
4.7499999999999911e+00 +8.5263738973936647e+00 +0.0000000000000000e+00 +4.7499999449726955e+00 -2.8452097845134961e-02 -5.5719527652074352e-01 +5.5434645141407678e-03
4.7999999999999909e+00 +8.5263606413817907e+00 +0.0000000000000000e+00 +4.7999999432154610e+00 -2.8453451859309038e-02 -5.5722164171894184e-01 +5.5437094148283479e-03
4.8499999999999908e+00 +8.5263472463374406e+00 +0.0000000000000000e+00 +4.8499999414211725e+00 -2.8454817387305761e-02 -5.5724819537377024e-01 +5.5439577097356179e-03
4.8999999999999906e+00 +8.5263337122539884e+00 +0.0000000000000000e+00 +4.8999999395894420e+00 -2.8456194371317408e-02 -5.5727493508048065e-01 +5.5442093641793269e-03
4.9499999999999904e+00 +8.5263200391247622e+00 +0.0000000000000000e+00 +4.9499999377198813e+00 -2.8457582753535611e-02 -5.5730185843432167e-01 +5.5444643434757529e-03
4.9999999999999902e+00 +8.5263062269430439e+00 +0.0000000000000000e+00 +4.9999999358121014e+00 -2.8458982476151383e-02 -5.5732896303054169e-01 +5.5447226129406880e-03
5.0499999999999901e+00 +8.5262922757020707e+00 +0.0000000000000000e+00 +5.0499999338657142e+00 -2.8460393481355078e-02 -5.5735624646438475e-01 +5.5449841378894258e-03
5.0999999999999899e+00 +8.5262781853950376e+00 +0.0000000000000000e+00 +5.0999999318803306e+00 -2.8461815711336363e-02 -5.5738370633109402e-01 +5.5452488836367541e-03
5.1499999999999897e+00 +8.5262639560150912e+00 +0.0000000000000000e+00 +5.1499999298555617e+00 -2.8463249108284225e-02 -5.5741134022590844e-01 +5.5455168154969351e-03
5.1999999999999895e+00 +8.5262495875553377e+00 +0.0000000000000000e+00 +5.1999999277910192e+00 -2.8464693614386933e-02 -5.5743914574406483e-01 +5.5457878987836906e-03
5.2499999999999893e+00 +8.5262350800088385e+00 +0.0000000000000000e+00 +5.2499999256863141e+00 -2.8466149171832014e-02 -5.5746712048079605e-01 +5.5460620988101953e-03
5.2999999999999892e+00 +8.5262204333686142e+00 +0.0000000000000000e+00 +5.2999999235410575e+00 -2.8467615722806237e-02 -5.5749526203133248e-01 +5.5463393808890546e-03
5.3499999999999890e+00 +8.5262056476276431e+00 +0.0000000000000000e+00 +5.3499999213548604e+00 -2.8469093209495592e-02 -5.5752356799089975e-01 +5.5466197103323000e-03
5.3999999999999888e+00 +8.5261907227788623e+00 +0.0000000000000000e+00 +5.3999999191273327e+00 -2.8470581574085260e-02 -5.5755203595471936e-01 +5.5469030524513668e-03
5.4499999999999886e+00 +8.5261756588151698e+00 +0.0000000000000000e+00 +5.4499999168580864e+00 -2.8472080758759642e-02 -5.5758066351800939e-01 +5.5471893725570886e-03
5.4999999999999885e+00 +8.5261604557294230e+00 +0.0000000000000000e+00 +5.4999999145467324e+00 -2.8473590705702243e-02 -5.5760944827598313e-01 +5.5474786359596745e-03
5.5499999999999883e+00 +8.5261451135144402e+00 +0.0000000000000000e+00 +5.5499999121928809e+00 -2.8475111357095739e-02 -5.5763838782384867e-01 +5.5477708079687072e-03
5.5999999999999881e+00 +8.5261296321630002e+00 +0.0000000000000000e+00 +5.5999999097961419e+00 -2.8476642655121936e-02 -5.5766747975680997e-01 +5.5480658538931164e-03
5.6499999999999879e+00 +8.5261140116678451e+00 +0.0000000000000000e+00 +5.6499999073561273e+00 -2.8478184541961722e-02 -5.5769672167006523e-01 +5.5483637390411787e-03
5.6999999999999877e+00 +8.5260982520216775e+00 +0.0000000000000000e+00 +5.6999999048724463e+00 -2.8479736959795051e-02 -5.5772611115880733e-01 +5.5486644287204914e-03
5.7499999999999876e+00 +8.5260823532171663e+00 +0.0000000000000000e+00 +5.7499999023447099e+00 -2.8481299850800963e-02 -5.5775564581822412e-01 +5.5489678882379686e-03
5.7999999999999874e+00 +8.5260663152469416e+00 +0.0000000000000000e+00 +5.7999998997725291e+00 -2.8482873157157491e-02 -5.5778532324349628e-01 +5.5492740828998197e-03
5.8499999999999872e+00 +8.5260501381035976e+00 +0.0000000000000000e+00 +5.8499998971555129e+00 -2.8484456821041747e-02 -5.5781514102979979e-01 +5.5495829780115441e-03
5.8999999999999870e+00 +8.5260338217796967e+00 +0.0000000000000000e+00 +5.8999998944932726e+00 -2.8486050784629787e-02 -5.5784509677230365e-01 +5.5498945388779090e-03
