# field on trajectory
# s[mm] rx[mm] ry[mm] rz[mm] bx[T] by[T] bz[T]
0.0000000000000000e+00 +8.3650000000000002e+00 +0.0000000000000000e+00 +0.0000000000000000e+00 -2.9395234973900734e-02 -5.5469060152854699e-01 +5.6111796067069442e-03
5.0000000000000003e-02 +8.3649999309466114e+00 +0.0000000000000000e+00 +4.9999999999936422e-02 -2.9394914542172450e-02 -5.5468940494782271e-01 +5.6120892806117446e-03
1.0000000000000001e-01 +8.3649997237866298e+00 +0.0000000000000000e+00 +9.9999999999491371e-02 -2.9394615717695822e-02 -5.5468858099428553e-01 +5.6129950660702985e-03
1.5000000000000002e-01 +8.3649993785202597e+00 +0.0000000000000000e+00 +1.4999999999828340e-01 -2.9394338370630914e-02 -5.5468812907421206e-01 +5.6138969621577234e-03
2.0000000000000001e-01 +8.3649988951476146e+00 +0.0000000000000000e+00 +1.9999999999593102e-01 -2.9394082371138386e-02 -5.5468804859389564e-01 +5.6147949679489122e-03
2.5000000000000000e-01 +8.3649982736687143e+00 +0.0000000000000000e+00 +2.4999999999205275e-01 -2.9393847589379508e-02 -5.5468833895964564e-01 +5.6156890825185104e-03
2.9999999999999999e-01 +8.3649975140834858e+00 +0.0000000000000000e+00 +2.9999999998626714e-01 -2.9393633895516233e-02 -5.5468899957778883e-01 +5.6165793049409614e-03
3.4999999999999998e-01 +8.3649966163917657e+00 +0.0000000000000000e+00 +3.4999999997819276e-01 -2.9393441159711188e-02 -5.5469002985466842e-01 +5.6174656342904807e-03
3.9999999999999997e-01 +8.3649955805932965e+00 +0.0000000000000000e+00 +3.9999999996744806e-01 -2.9393269252127770e-02 -5.5469142919664427e-01 +5.6183480696410807e-03
4.4999999999999996e-01 +8.3649944066877300e+00 +0.0000000000000000e+00 +4.4999999995365159e-01 -2.9393118042930152e-02 -5.5469319701009323e-01 +5.6192266100665795e-03
4.9999999999999994e-01 +8.3649930946746256e+00 +0.0000000000000000e+00 +4.9999999993642191e-01 -2.9392987402283348e-02 -5.5469533270140847e-01 +5.6201012546405913e-03
5.4999999999999993e-01 +8.3649916445534522e+00 +0.0000000000000000e+00 +5.4999999991537751e-01 -2.9392877200353239e-02 -5.5469783567700026e-01 +5.6209720024365572e-03
5.9999999999999998e-01 +8.3649900563235864e+00 +0.0000000000000000e+00 +5.9999999989013686e-01 -2.9392787307306618e-02 -5.5470070534329530e-01 +5.6218388525277260e-03
6.5000000000000002e-01 +8.3649883299843140e+00 +0.0000000000000000e+00 +6.4999999986031842e-01 -2.9392717593311218e-02 -5.5470394110673771e-01 +5.6227018039871840e-03
7.0000000000000007e-01 +8.3649864655348303e+00 +0.0000000000000000e+00 +6.9999999982554084e-01 -2.9392667928535815e-02 -5.5470754237378717e-01 +5.6235608558878507e-03
7.5000000000000011e-01 +8.3649844629742383e+00 +0.0000000000000000e+00 +7.4999999978542242e-01 -2.9392638183150157e-02 -5.5471150855092144e-01 +5.6244160073024877e-03
8.0000000000000016e-01 +8.3649823223015485e+00 +0.0000000000000000e+00 +7.9999999973958169e-01 -2.9392628227325125e-02 -5.5471583904463384e-01 +5.6252672573037050e-03
8.5000000000000020e-01 +8.3649800435156845e+00 +0.0000000000000000e+00 +8.4999999968763718e-01 -2.9392637931232698e-02 -5.5472053326143500e-01 +5.6261146049639684e-03
9.0000000000000024e-01 +8.3649776266154774e+00 +0.0000000000000000e+00 +8.9999999962920718e-01 -2.9392667165046047e-02 -5.5472559060785220e-01 +5.6269580493556156e-03
9.5000000000000029e-01 +8.3649750715996678e+00 +0.0000000000000000e+00 +9.4999999956391024e-01 -2.9392715798939508e-02 -5.5473101049043028e-01 +5.6277975895508443e-03
1.0000000000000002e+00 +8.3649723784669074e+00 +0.0000000000000000e+00 +9.9999999949136464e-01 -2.9392783703088687e-02 -5.5473679231572948e-01 +5.6286332246217362e-03
1.0500000000000003e+00 +8.3649695472157557e+00 +0.0000000000000000e+00 +1.0499999994111888e+00 -2.9392870747670476e-02 -5.5474293549032738e-01 +5.6294649536402621e-03
1.1000000000000003e+00 +8.3649665778446831e+00 +0.0000000000000000e+00 +1.0999999993230012e+00 -2.9392976802863104e-02 -5.5474943942081867e-01 +5.6302927756782736e-03
1.1500000000000004e+00 +8.3649634703520697e+00 +0.0000000000000000e+00 +1.1499999992264203e+00 -2.9393101738846156e-02 -5.5475630351381455e-01 +5.6311166898075308e-03
1.2000000000000004e+00 +8.3649602247362065e+00 +0.0000000000000000e+00 +1.1999999991210641e+00 -2.9393245425800650e-02 -5.5476352717594313e-01 +5.6319366950996997e-03
1.2500000000000004e+00 +8.3649568409952959e+00 +0.0000000000000000e+00 +1.2499999990065511e+00 -2.9393407733909051e-02 -5.5477110981384892e-01 +5.6327527906263504e-03
1.3000000000000005e+00 +8.3649533191274497e+00 +0.0000000000000000e+00 +1.2999999988824997e+00 -2.9393588533355327e-02 -5.5477905083419365e-01 +5.6335649754589929e-03
1.3500000000000005e+00 +8.3649496591306907e+00 +0.0000000000000000e+00 +1.3499999987485281e+00 -2.9393787694324967e-02 -5.5478734964365573e-01 +5.6343732486690426e-03
1.4000000000000006e+00 +8.3649458610029530e+00 +0.0000000000000000e+00 +1.3999999986042544e+00 -2.9394005087005067e-02 -5.5479600564893039e-01 +5.6351776093278684e-03
1.4500000000000006e+00 +8.3649419247420820e+00 +0.0000000000000000e+00 +1.4499999984492971e+00 -2.9394240581584335e-02 -5.5480501825672968e-01 +5.6359780565067670e-03
1.5000000000000007e+00 +8.3649378503458323e+00 +0.0000000000000000e+00 +1.4999999982832741e+00 -2.9394494048253145e-02 -5.5481438687378204e-01 +5.6367745892769933e-03
1.5500000000000007e+00 +8.3649336378118733e+00 +0.0000000000000000e+00 +1.5499999981058037e+00 -2.9394765357203562e-02 -5.5482411090683337e-01 +5.6375672067097505e-03
1.6000000000000008e+00 +8.3649292871377821e+00 +0.0000000000000000e+00 +1.5999999979165040e+00 -2.9395054378629437e-02 -5.5483418976264609e-01 +5.6383559078762155e-03
1.6500000000000008e+00 +8.3649247983210504e+00 +0.0000000000000000e+00 +1.6499999977149933e+00 -2.9395360982726371e-02 -5.5484462284799962e-01 +5.6391406918475289e-03
1.7000000000000008e+00 +8.3649201713590795e+00 +0.0000000000000000e+00 +1.6999999975008895e+00 -2.9395685039691827e-02 -5.5485540956968993e-01 +5.6399215576948096e-03
1.7500000000000009e+00 +8.3649154062491853e+00 +0.0000000000000000e+00 +1.7499999972738109e+00 -2.9396026419725128e-02 -5.5486654933452961e-01 +5.6406985044891609e-03
1.8000000000000009e+00 +8.3649105029885931e+00 +0.0000000000000000e+00 +1.7999999970333753e+00 -2.9396384993027526e-02 -5.5487804154934939e-01 +5.6414715313016783e-03
1.8500000000000010e+00 +8.3649054615744429e+00 +0.0000000000000000e+00 +1.8499999967792009e+00 -2.9396760629802191e-02 -5.5488988562099495e-01 +5.6422406372034547e-03
1.9000000000000010e+00 +8.3649002820037843e+00 +0.0000000000000000e+00 +1.8999999965109056e+00 -2.9397153200254347e-02 -5.5490208095632998e-01 +5.6430058212655941e-03
1.9500000000000011e+00 +8.3648949642735815e+00 +0.0000000000000000e+00 +1.9499999962281072e+00 -2.9397562574591224e-02 -5.5491462696223526e-01 +5.6437670825592061e-03
2.0000000000000009e+00 +8.3648895083807115e+00 +0.0000000000000000e+00 +1.9999999959304235e+00 -2.9397988623022144e-02 -5.5492752304560766e-01 +5.6445244201554267e-03
2.0500000000000007e+00 +8.3648839143219629e+00 +0.0000000000000000e+00 +2.0499999956174726e+00 -2.9398431239655097e-02 -5.5494076838641959e-01 +5.6452778401065657e-03
2.1000000000000005e+00 +8.3648781820940368e+00 +0.0000000000000000e+00 +2.0999999952888722e+00 -2.9398890414185919e-02 -5.5495436125689113e-01 +5.6460273763895381e-03
2.1500000000000004e+00 +8.3648723116935511e+00 +0.0000000000000000e+00 +2.1499999949442401e+00 -2.9399366160207885e-02 -5.5496829970231432e-01 +5.6467730699623284e-03
2.2000000000000002e+00 +8.3648663031170347e+00 +0.0000000000000000e+00 +2.1999999945831941e+00 -2.9399858491314951e-02 -5.5498258176799187e-01 +5.6475149617828254e-03
2.2500000000000000e+00 +8.3648601563609315e+00 +0.0000000000000000e+00 +2.2499999942053521e+00 -2.9400367421101740e-02 -5.5499720549924003e-01 +5.6482530928088177e-03
2.2999999999999998e+00 +8.3648538714215999e+00 +0.0000000000000000e+00 +2.2999999938103315e+00 -2.9400892963163523e-02 -5.5501216894138583e-01 +5.6489875039979921e-03
2.3499999999999996e+00 +8.3648474482953148e+00 +0.0000000000000000e+00 +2.3499999933977502e+00 -2.9401435131096106e-02 -5.5502747013976739e-01 +5.6497182363079400e-03
2.3999999999999995e+00 +8.3648408869782678e+00 +0.0000000000000000e+00 +2.3999999929672255e+00 -2.9401993938495838e-02 -5.5504310713973515e-01 +5.6504453306961480e-03
2.4499999999999993e+00 +8.3648341874665633e+00 +0.0000000000000000e+00 +2.4499999925183751e+00 -2.9402569398959581e-02 -5.5505907798664911e-01 +5.6511688281199969e-03
2.4999999999999991e+00 +8.3648273497562275e+00 +0.0000000000000000e+00 +2.4999999920508165e+00 -2.9403161526084579e-02 -5.5507538072588114e-01 +5.6518887695367701e-03
2.5499999999999989e+00 +8.3648203738431999e+00 +0.0000000000000000e+00 +2.5499999915641669e+00 -2.9403770333468544e-02 -5.5509201340281267e-01 +5.6526051959036447e-03
2.5999999999999988e+00 +8.3648132597233396e+00 +0.0000000000000000e+00 +2.5999999910580440e+00 -2.9404395834709510e-02 -5.5510897406283588e-01 +5.6533181481776907e-03
2.6499999999999986e+00 +8.3648060073924242e+00 +0.0000000000000000e+00 +2.6499999905320650e+00 -2.9405038043405819e-02 -5.5512626075135207e-01 +5.6540276673158699e-03
2.6999999999999984e+00 +8.3647986168461497e+00 +0.0000000000000000e+00 +2.6999999899858476e+00 -2.9405696973156065e-02 -5.5514387151377298e-01 +5.6547337942750445e-03
2.7499999999999982e+00 +8.3647910880801319e+00 +0.0000000000000000e+00 +2.7499999894190084e+00 -2.9406372637559099e-02 -5.5516180439551921e-01 +5.6554365700119550e-03
2.7999999999999980e+00 +8.3647834210899052e+00 +0.0000000000000000e+00 +2.7999999888311651e+00 -2.9407065050213930e-02 -5.5518005744202048e-01 +5.6561360354832413e-03
2.8499999999999979e+00 +8.3647756158709257e+00 +0.0000000000000000e+00 +2.8499999882219349e+00 -2.9407774224719695e-02 -5.5519862869871550e-01 +5.6568322316454299e-03
2.8999999999999977e+00 +8.3647676724185693e+00 +0.0000000000000000e+00 +2.8999999875909346e+00 -2.9408500174675625e-02 -5.5521751621105198e-01 +5.6575251994549370e-03
2.9499999999999975e+00 +8.3647595907281325e+00 +0.0000000000000000e+00 +2.9499999869377813e+00 -2.9409242913681011e-02 -5.5523671802448493e-01 +5.6582149798680599e-03
2.9999999999999973e+00 +8.3647513707948367e+00 +0.0000000000000000e+00 +2.9999999862620923e+00 -2.9410002455335132e-02 -5.5525623218447806e-01 +5.6589016138409937e-03
3.0499999999999972e+00 +8.3647430126138218e+00 +0.0000000000000000e+00 +3.0499999855634843e+00 -2.9410778813237223e-02 -5.5527605673650327e-01 +5.6595851423298076e-03
3.0999999999999970e+00 +8.3647345161801514e+00 +0.0000000000000000e+00 +3.0999999848415745e+00 -2.9411572000986434e-02 -5.5529618972603945e-01 +5.6602656062904582e-03
3.1499999999999968e+00 +8.3647258814888144e+00 +0.0000000000000000e+00 +3.1499999840959796e+00 -2.9412382032181793e-02 -5.5531662919857294e-01 +5.6609430466787883e-03
3.1999999999999966e+00 +8.3647171085347214e+00 +0.0000000000000000e+00 +3.1999999833263164e+00 -2.9413208920422131e-02 -5.5533737319959731e-01 +5.6616175044505133e-03
3.2499999999999964e+00 +8.3647081973127086e+00 +0.0000000000000000e+00 +3.2499999825322017e+00 -2.9414052679306087e-02 -5.5535841977461253e-01 +5.6622890205612437e-03
3.2999999999999963e+00 +8.3646991478175341e+00 +0.0000000000000000e+00 +3.2999999817132522e+00 -2.9414913322432033e-02 -5.5537976696912539e-01 +5.6629576359664589e-03
3.3499999999999961e+00 +8.3646899600438847e+00 +0.0000000000000000e+00 +3.3499999808690841e+00 -2.9415790863397989e-02 -5.5540141282864885e-01 +5.6636233916215160e-03
3.3999999999999959e+00 +8.3646806339863691e+00 +0.0000000000000000e+00 +3.3999999799993148e+00 -2.9416685315801706e-02 -5.5542335539870236e-01 +5.6642863284816622e-03
3.4499999999999957e+00 +8.3646711696395251e+00 +0.0000000000000000e+00 +3.4499999791035600e+00 -2.9417596693240455e-02 -5.5544559272481020e-01 +5.6649464875020089e-03
3.4999999999999956e+00 +8.3646615669978175e+00 +0.0000000000000000e+00 +3.4999999781814366e+00 -2.9418525009311122e-02 -5.5546812285250291e-01 +5.6656039096375501e-03
3.5499999999999954e+00 +8.3646518260556348e+00 +0.0000000000000000e+00 +3.5499999772325612e+00 -2.9419470277610087e-02 -5.5549094382731601e-01 +5.6662586358431511e-03
3.5999999999999952e+00 +8.3646419468072963e+00 +0.0000000000000000e+00 +3.5999999762565498e+00 -2.9420432511733211e-02 -5.5551405369479001e-01 +5.6669107070735480e-03
3.6499999999999950e+00 +8.3646319292470483e+00 +0.0000000000000000e+00 +3.6499999752530186e+00 -2.9421411725275768e-02 -5.5553745050046999e-01 +5.6675601642833563e-03
3.6999999999999948e+00 +8.3646217733690644e+00 +0.0000000000000000e+00 +3.6999999742215839e+00 -2.9422407931832428e-02 -5.5556113228990578e-01 +5.6682070484270625e-03
3.7499999999999947e+00 +8.3646114791674506e+00 +0.0000000000000000e+00 +3.7499999731618621e+00 -2.9423421144997190e-02 -5.5558509710865134e-01 +5.6688514004590192e-03
3.7999999999999945e+00 +8.3646010466362384e+00 +0.0000000000000000e+00 +3.7999999720734690e+00 -2.9424451378363369e-02 -5.5560934300226461e-01 +5.6694932613334491e-03
3.8499999999999943e+00 +8.3645904757693916e+00 +0.0000000000000000e+00 +3.8499999709560209e+00 -2.9425498645523501e-02 -5.5563386801630721e-01 +5.6701326720044456e-03
3.8999999999999941e+00 +8.3645797665608033e+00 +0.0000000000000000e+00 +3.8999999698091332e+00 -2.9426562960069357e-02 -5.5565867019634396e-01 +5.6707696734259686e-03
3.9499999999999940e+00 +8.3645689190043004e+00 +0.0000000000000000e+00 +3.9499999686324223e+00 -2.9427644335591866e-02 -5.5568374758794348e-01 +5.6714043065518470e-03
3.9999999999999938e+00 +8.3645579330936375e+00 +0.0000000000000000e+00 +3.9999999674255040e+00 -2.9428742785681035e-02 -5.5570909823667625e-01 +5.6720366123357664e-03
4.0499999999999936e+00 +8.3645468088225030e+00 +0.0000000000000000e+00 +4.0499999661879942e+00 -2.9429858277333833e-02 -5.5573472004675983e-01 +5.6726666272154018e-03
4.0999999999999934e+00 +8.3645355461845199e+00 +0.0000000000000000e+00 +4.0999999649195082e+00 -2.9430990591177465e-02 -5.5576061035698454e-01 +5.6732943695648142e-03
4.1499999999999932e+00 +8.3645241451732399e+00 +0.0000000000000000e+00 +4.1499999636196616e+00 -2.9432139461246419e-02 -5.5578676636478663e-01 +5.6739198532423105e-03
4.1999999999999931e+00 +8.3645126057821511e+00 +0.0000000000000000e+00 +4.1999999622880697e+00 -2.9433304621574983e-02 -5.5581318526760393e-01 +5.6745430921064013e-03
4.2499999999999929e+00 +8.3645009280046771e+00 +0.0000000000000000e+00 +4.2499999609243488e+00 -2.9434485806197060e-02 -5.5583986426287679e-01 +5.6751641000157768e-03
4.2999999999999927e+00 +8.3644891118341747e+00 +0.0000000000000000e+00 +4.2999999595281144e+00 -2.9435682749146260e-02 -5.5586680054804682e-01 +5.6757828908293468e-03
4.3499999999999925e+00 +8.3644771572639360e+00 +0.0000000000000000e+00 +4.3499999580989810e+00 -2.9436895184455844e-02 -5.5589399132055772e-01 +5.6763994784062204e-03
4.3999999999999924e+00 +8.3644650642871934e+00 +0.0000000000000000e+00 +4.3999999566365640e+00 -2.9438122846158678e-02 -5.5592143377785430e-01 +5.6770138766057427e-03
4.4499999999999922e+00 +8.3644528328971131e+00 +0.0000000000000000e+00 +4.4499999551404787e+00 -2.9439365468287279e-02 -5.5594912511738204e-01 +5.6776260992874852e-03
4.4999999999999920e+00 +8.3644404630868010e+00 +0.0000000000000000e+00 +4.4999999536103408e+00 -2.9440622784873693e-02 -5.5597706253658763e-01 +5.6782361603112605e-03
4.5499999999999918e+00 +8.3644279548493028e+00 +0.0000000000000000e+00 +4.5499999520457646e+00 -2.9441894529949591e-02 -5.5600524323291811e-01 +5.6788440735371249e-03
4.5999999999999917e+00 +8.3644153081776000e+00 +0.0000000000000000e+00 +4.5999999504463656e+00 -2.9443180437546134e-02 -5.5603366440382140e-01 +5.6794498528253958e-03
4.6499999999999915e+00 +8.3644025230646175e+00 +0.0000000000000000e+00 +4.6499999488117583e+00 -2.9444480241694035e-02 -5.5606232324674387e-01 +5.6800535120366544e-03
4.6999999999999913e+00 +8.3643895995032196e+00 +0.0000000000000000e+00 +4.6999999471415581e+00 -2.9445793676423491e-02 -5.5609121695913377e-01 +5.6806550650317610e-03
4.7499999999999911e+00 +8.3643765374862138e+00 +0.0000000000000000e+00 +4.7499999454353796e+00 -2.9447120475764189e-02 -5.5612034273843691e-01 +5.6812545256718517e-03
4.7999999999999909e+00 +8.3643633370063473e+00 +0.0000000000000000e+00 +4.7999999436928373e+00 -2.9448460373745270e-02 -5.5614969778210011e-01 +5.6818519078183560e-03
4.8499999999999908e+00 +8.3643499980563121e+00 +0.0000000000000000e+00 +4.8499999419135458e+00 -2.9449813104395307e-02 -5.5617927928756783e-01 +5.6824472253330068e-03
4.8999999999999906e+00 +8.3643365206287417e+00 +0.0000000000000000e+00 +4.8999999400971195e+00 -2.9451178401742297e-02 -5.5620908445228479e-01 +5.6830404920778423e-03
4.9499999999999904e+00 +8.3643229047162162e+00 +0.0000000000000000e+00 +4.9499999382431730e+00 -2.9452555999813619e-02 -5.5623911047369279e-01 +5.6836317219152209e-03
4.9999999999999902e+00 +8.3643091503112608e+00 +0.0000000000000000e+00 +4.9999999363513208e+00 -2.9453945632636019e-02 -5.5626935454923265e-01 +5.6842209287078218e-03
5.0499999999999901e+00 +8.3642952574063454e+00 +0.0000000000000000e+00 +5.0499999344211766e+00 -2.9455347034235600e-02 -5.5629981387634309e-01 +5.6848081263186565e-03
5.0999999999999899e+00 +8.3642812259938850e+00 +0.0000000000000000e+00 +5.0999999324523548e+00 -2.9456759938637798e-02 -5.5633048565246124e-01 +5.6853933286110936e-03
5.1499999999999897e+00 +8.3642670560662449e+00 +0.0000000000000000e+00 +5.1499999304444701e+00 -2.9458184079867361e-02 -5.5636136707502060e-01 +5.6859765494488368e-03
5.1999999999999895e+00 +8.3642527476157351e+00 +0.0000000000000000e+00 +5.1999999283971361e+00 -2.9459619191948297e-02 -5.5639245534145321e-01 +5.6865578026959593e-03
5.2499999999999893e+00 +8.3642383006346144e+00 +0.0000000000000000e+00 +5.2499999263099673e+00 -2.9461065008903900e-02 -5.5642374764918723e-01 +5.6871371022168974e-03
5.2999999999999892e+00 +8.3642237151150933e+00 +0.0000000000000000e+00 +5.2999999241825773e+00 -2.9462521264756708e-02 -5.5645524119564838e-01 +5.6877144618764719e-03
5.3499999999999890e+00 +8.3642089910493311e+00 +0.0000000000000000e+00 +5.3499999220145797e+00 -2.9463987693528464e-02 -5.5648693317825815e-01 +5.6882898955398801e-03
5.3999999999999888e+00 +8.3641941284294372e+00 +0.0000000000000000e+00 +5.3999999198055892e+00 -2.9465464029240121e-02 -5.5651882079443504e-01 +5.6888634170727198e-03
5.4499999999999886e+00 +8.3641791272474713e+00 +0.0000000000000000e+00 +5.4499999175552185e+00 -2.9466950005911811e-02 -5.5655090124159345e-01 +5.6894350403409923e-03
5.4999999999999885e+00 +8.3641639874954468e+00 +0.0000000000000000e+00 +5.4999999152630812e+00 -2.9468445357562829e-02 -5.5658317171714300e-01 +5.6900047792111073e-03
5.5499999999999883e+00 +8.3641487091653293e+00 +0.0000000000000000e+00 +5.5499999129287918e+00 -2.9469949818211588e-02 -5.5661562941848974e-01 +5.6905726475498996e-03
5.5999999999999881e+00 +8.3641332922490381e+00 +0.0000000000000000e+00 +5.5999999105519622e+00 -2.9471463121875621e-02 -5.5664827154303487e-01 +5.6911386592246238e-03
5.6499999999999879e+00 +8.3641177367384447e+00 +0.0000000000000000e+00 +5.6499999081322070e+00 -2.9472985002571575e-02 -5.5668109528817400e-01 +5.6917028281029819e-03
5.6999999999999877e+00 +8.3641020426253778e+00 +0.0000000000000000e+00 +5.6999999056691388e+00 -2.9474515194315154e-02 -5.5671409785129833e-01 +5.6922651680531185e-03
5.7499999999999876e+00 +8.3640862099016200e+00 +0.0000000000000000e+00 +5.7499999031623714e+00 -2.9476053431121085e-02 -5.5674727642979338e-01 +5.6928256929436247e-03
5.7999999999999874e+00 +8.3640702385589112e+00 +0.0000000000000000e+00 +5.7999999006115175e+00 -2.9477599447003160e-02 -5.5678062822103869e-01 +5.6933844166435705e-03
5.8499999999999872e+00 +8.3640541285889487e+00 +0.0000000000000000e+00 +5.8499998980161898e+00 -2.9479152975974178e-02 -5.5681415042240845e-01 +5.6939413530224820e-03
5.8999999999999870e+00 +8.3640378799833854e+00 +0.0000000000000000e+00 +5.8999998953760020e+00 -2.9480713752045900e-02 -5.5684784023126999e-01 +5.6944965159503799e-03
