# field on trajectory
# s[mm] rx[mm] ry[mm] rz[mm] bx[T] by[T] bz[T]
0.0000000000000000e+00 +8.5269999999999992e+00 +0.0000000000000000e+00 +0.0000000000000000e+00 -2.7483586747866710e-02 -5.2479907504358925e-01 +5.2916713546723101e-03
-5.0000000000000003e-02 +8.5269999308275324e+00 +0.0000000000000000e+00 -4.9999999999936200e-02 -2.7484013214828896e-02 -5.2479914087228674e-01 +5.2918229058125620e-03
-1.0000000000000001e-01 +8.5269997233101051e+00 +0.0000000000000000e+00 -9.9999999999489608e-02 -2.7484458422695576e-02 -5.2479954143659802e-01 +5.2919772839431813e-03
-1.5000000000000002e-01 +8.5269993774476127e+00 +0.0000000000000000e+00 -1.4999999999827746e-01 -2.7484922285352816e-02 -5.2480027617134462e-01 +5.2921345030450730e-03
-2.0000000000000001e-01 +8.5269988932398615e+00 +0.0000000000000000e+00 -1.9999999999591694e-01 -2.7485404716687097e-02 -5.2480134451136440e-01 +5.2922945770991501e-03
-2.5000000000000000e-01 +8.5269982706865690e+00 +0.0000000000000000e+00 -2.4999999999202527e-01 -2.7485905630585207e-02 -5.2480274589151132e-01 +5.2924575200863312e-03
-2.9999999999999999e-01 +8.5269975097873658e+00 +0.0000000000000000e+00 -2.9999999998621962e-01 -2.7486424940934298e-02 -5.2480447974665456e-01 +5.2926233459875517e-03
-3.4999999999999998e-01 +8.5269966105417954e+00 +0.0000000000000000e+00 -3.4999999997811726e-01 -2.7486962561621944e-02 -5.2480654551168004e-01 +5.2927920687837774e-03
-3.9999999999999997e-01 +8.5269955729493141e+00 +0.0000000000000000e+00 -3.9999999996733532e-01 -2.7487518406536082e-02 -5.2480894262148892e-01 +5.2929637024559982e-03
-4.4999999999999996e-01 +8.5269943970092879e+00 +0.0000000000000000e+00 -4.4999999995349105e-01 -2.7488092389565063e-02 -5.2481167051099842e-01 +5.2931382609852510e-03
-4.9999999999999994e-01 +8.5269930827209990e+00 +0.0000000000000000e+00 -4.9999999993620159e-01 -2.7488684424597662e-02 -5.2481472861514122e-01 +5.2933157583526236e-03
-5.4999999999999993e-01 +8.5269916300836410e+00 +0.0000000000000000e+00 -5.4999999991508408e-01 -2.7489294425523048e-02 -5.2481811636886588e-01 +5.2934962085392570e-03
-5.9999999999999998e-01 +8.5269900390963222e+00 +0.0000000000000000e+00 -5.9999999988975572e-01 -2.7489922306230870e-02 -5.2482183320713605e-01 +5.2936796255263529e-03
-6.5000000000000002e-01 +8.5269883097580603e+00 +0.0000000000000000e+00 -6.4999999985983370e-01 -2.7490567980611200e-02 -5.2482587856493113e-01 +5.2938660232951917e-03
-7.0000000000000007e-01 +8.5269864420677912e+00 +0.0000000000000000e+00 -6.9999999982493510e-01 -2.7491231362554554e-02 -5.2483025187724619e-01 +5.2940554158271338e-03
-7.5000000000000011e-01 +8.5269844360243603e+00 +0.0000000000000000e+00 -7.4999999978467702e-01 -2.7491912365951970e-02 -5.2483495257909152e-01 +5.2942478171036289e-03
-8.0000000000000016e-01 +8.5269822916265294e+00 +0.0000000000000000e+00 -7.9999999973867664e-01 -2.7492610904694889e-02 -5.2483998010549227e-01 +5.2944432411062125e-03
-8.5000000000000020e-01 +8.5269800088729735e+00 +0.0000000000000000e+00 -8.4999999968655104e-01 -2.7493326892675328e-02 -5.2484533389148980e-01 +5.2946417018165399e-03
-9.0000000000000024e-01 +8.5269775877622802e+00 +0.0000000000000000e+00 -8.9999999962791732e-01 -2.7494060243785721e-02 -5.2485101337213957e-01 +5.2948432132163660e-03
-9.5000000000000029e-01 +8.5269750282929540e+00 +0.0000000000000000e+00 -9.4999999956239256e-01 -2.7494810871919094e-02 -5.2485701798251294e-01 +5.2950477892875682e-03
-1.0000000000000002e+00 +8.5269723304634102e+00 +0.0000000000000000e+00 -9.9999999948959373e-01 -2.7495578690968948e-02 -5.2486334715769611e-01 +5.2952554440121591e-03
-1.0500000000000003e+00 +8.5269694942719809e+00 +0.0000000000000000e+00 -1.0499999994091380e+00 -2.7496363614829347e-02 -5.2487000033279019e-01 +5.2954661913722787e-03
-1.1000000000000003e+00 +8.5269665197169129e+00 +0.0000000000000000e+00 -1.0999999993206422e+00 -2.7497165557394856e-02 -5.2487697694291102e-01 +5.2956800453502111e-03
-1.1500000000000004e+00 +8.5269634067963676e+00 +0.0000000000000000e+00 -1.1499999992237235e+00 -2.7497984432560671e-02 -5.2488427642319002e-01 +5.2958970199283974e-03
-1.2000000000000004e+00 +8.5269601555084193e+00 +0.0000000000000000e+00 -1.1999999991179988e+00 -2.7498820154222489e-02 -5.2489189820877280e-01 +5.2961171290894313e-03
-1.2500000000000004e+00 +8.5269567658510592e+00 +0.0000000000000000e+00 -1.2499999990030850e+00 -2.7499672636276618e-02 -5.2489984173481996e-01 +5.2963403868160766e-03
-1.3000000000000005e+00 +8.5269532378221928e+00 +0.0000000000000000e+00 -1.2999999988785991e+00 -2.7500541792619959e-02 -5.2490810643650665e-01 +5.2965668070912757e-03
-1.3500000000000005e+00 +8.5269495714196424e+00 +0.0000000000000000e+00 -1.3499999987441580e+00 -2.7501427537149979e-02 -5.2491669174902278e-01 +5.2967964038981479e-03
-1.4000000000000006e+00 +8.5269457666411448e+00 +0.0000000000000000e+00 -1.3999999985993787e+00 -2.7502329783764809e-02 -5.2492559710757325e-01 +5.2970291912200086e-03
-1.4500000000000006e+00 +8.5269418234843517e+00 +0.0000000000000000e+00 -1.4499999984438778e+00 -2.7503248446363183e-02 -5.2493482194737640e-01 +5.2972651830403674e-03
-1.5000000000000007e+00 +8.5269377419468331e+00 +0.0000000000000000e+00 -1.4999999982772725e+00 -2.7504183438844438e-02 -5.2494436570366576e-01 +5.2975043933429448e-03
-1.5500000000000007e+00 +8.5269335220260718e+00 +0.0000000000000000e+00 -1.5499999980991792e+00 -2.7505134675108608e-02 -5.2495422781168966e-01 +5.2977468361116694e-03
-1.6000000000000008e+00 +8.5269291637194673e+00 +0.0000000000000000e+00 -1.5999999979092150e+00 -2.7506102069056328e-02 -5.2496440770670949e-01 +5.2979925253306996e-03
-1.6500000000000008e+00 +8.5269246670243373e+00 +0.0000000000000000e+00 -1.6499999977069963e+00 -2.7507085534588967e-02 -5.2497490482400222e-01 +5.2982414749844211e-03
-1.7000000000000008e+00 +8.5269200319379141e+00 +0.0000000000000000e+00 -1.6999999974921400e+00 -2.7508084985608503e-02 -5.2498571859885845e-01 +5.2984936990574608e-03
-1.7500000000000009e+00 +8.5269152584573469e+00 +0.0000000000000000e+00 -1.7499999972642628e+00 -2.7509100336017646e-02 -5.2499684846658268e-01 +5.2987492115346840e-03
-1.8000000000000009e+00 +8.5269103465797027e+00 +0.0000000000000000e+00 -1.7999999970229814e+00 -2.7510131499719804e-02 -5.2500829386249381e-01 +5.2990080264012163e-03
-1.8500000000000010e+00 +8.5269052963019636e+00 +0.0000000000000000e+00 -1.8499999967679124e+00 -2.7511178390619052e-02 -5.2502005422192466e-01 +5.2992701576424425e-03
-1.9000000000000010e+00 +8.5269001076210298e+00 +0.0000000000000000e+00 -1.8999999964986722e+00 -2.7512240922620269e-02 -5.2503212898022211e-01 +5.2995356192440226e-03
-1.9500000000000011e+00 +8.5268947805337181e+00 +0.0000000000000000e+00 -1.9499999962148777e+00 -2.7513319009628997e-02 -5.2504451757274706e-01 +5.2998044251918869e-03
-2.0000000000000009e+00 +8.5268893150367635e+00 +0.0000000000000000e+00 -1.9999999959161452e+00 -2.7514412565551542e-02 -5.2505721943487405e-01 +5.3000765894722556e-03
-2.0500000000000007e+00 +8.5268837111268159e+00 +0.0000000000000000e+00 -2.0499999956020911e+00 -2.7515521506069580e-02 -5.2507023376729489e-01 +5.3003521181834105e-03
-2.1000000000000005e+00 +8.5268779688004468e+00 +0.0000000000000000e+00 -2.0999999952723321e+00 -2.7516645753964147e-02 -5.2508355883193025e-01 +5.3006309858709454e-03
-2.1500000000000004e+00 +8.5268720880541409e+00 +0.0000000000000000e+00 -2.1499999949264845e+00 -2.7517785233791909e-02 -5.2509719265601473e-01 +5.3009131591922939e-03
-2.2000000000000002e+00 +8.5268660688843063e+00 +0.0000000000000000e+00 -2.1999999945641644e+00 -2.7518939870110688e-02 -5.2511113326679371e-01 +5.3011986048049700e-03
-2.2500000000000000e+00 +8.5268599112872678e+00 +0.0000000000000000e+00 -2.2499999941849884e+00 -2.7520109587479403e-02 -5.2512537869152198e-01 +5.3014872893665287e-03
-2.2999999999999998e+00 +8.5268536152592702e+00 +0.0000000000000000e+00 -2.2999999937885729e+00 -2.7521294310458164e-02 -5.2513992695746381e-01 +5.3017791795345855e-03
-2.3499999999999996e+00 +8.5268471807964783e+00 +0.0000000000000000e+00 -2.3499999933745337e+00 -2.7522493963608261e-02 -5.2515477609189343e-01 +5.3020742419667942e-03
-2.3999999999999995e+00 +8.5268406078949770e+00 +0.0000000000000000e+00 -2.3999999929424876e+00 -2.7523708471492204e-02 -5.2516992412209407e-01 +5.3023724433208450e-03
-2.4499999999999993e+00 +8.5268338965507731e+00 +0.0000000000000000e+00 -2.4499999924920504e+00 -2.7524937758673786e-02 -5.2518536907535773e-01 +5.3026737502544627e-03
-2.4999999999999991e+00 +8.5268270467597969e+00 +0.0000000000000000e+00 -2.4999999920228380e+00 -2.7526181749718038e-02 -5.2520110897898509e-01 +5.3029781294253982e-03
-2.5499999999999989e+00 +8.5268200585178970e+00 +0.0000000000000000e+00 -2.5499999915344667e+00 -2.7527440369191313e-02 -5.2521714186028512e-01 +5.3032855474914155e-03
-2.5999999999999988e+00 +8.5268129318208494e+00 +0.0000000000000000e+00 -2.5999999910265528e+00 -2.7528713541661327e-02 -5.2523346574657570e-01 +5.3035959711102950e-03
-2.6499999999999986e+00 +8.5268056666643499e+00 +0.0000000000000000e+00 -2.6499999904987117e+00 -2.7530001191697122e-02 -5.2525007866518103e-01 +5.3039093669398178e-03
-2.6999999999999984e+00 +8.5267982630440180e+00 +0.0000000000000000e+00 -2.6999999899505598e+00 -2.7531303243869154e-02 -5.2526697864343486e-01 +5.3042257016377731e-03
-2.7499999999999982e+00 +8.5267907209554004e+00 +0.0000000000000000e+00 -2.7499999893817129e+00 -2.7532619622749322e-02 -5.2528416370867692e-01 +5.3045449418619361e-03
-2.7999999999999980e+00 +8.5267830403939655e+00 +0.0000000000000000e+00 -2.7999999887917868e+00 -2.7533950252910940e-02 -5.2530163188825485e-01 +5.3048670542700767e-03
-2.8499999999999979e+00 +8.5267752213551091e+00 +0.0000000000000000e+00 -2.8499999881803970e+00 -2.7535295058928839e-02 -5.2531938120952260e-01 +5.3051920055199372e-03
-2.8999999999999977e+00 +8.5267672638341523e+00 +0.0000000000000000e+00 -2.8999999875471598e+00 -2.7536653965379316e-02 -5.2533740969984122e-01 +5.3055197622692354e-03
-2.9499999999999975e+00 +8.5267591678263432e+00 +0.0000000000000000e+00 -2.9499999868916906e+00 -2.7538026896840255e-02 -5.2535571538657766e-01 +5.3058502911756660e-03
-2.9999999999999973e+00 +8.5267509333268556e+00 +0.0000000000000000e+00 -2.9999999862136049e+00 -2.7539413777891070e-02 -5.2537429629710586e-01 +5.3061835588968757e-03
-3.0499999999999972e+00 +8.5267425603307920e+00 +0.0000000000000000e+00 -3.0499999855125184e+00 -2.7540814533112790e-02 -5.2539315045880441e-01 +5.3065195320904732e-03
-3.0999999999999970e+00 +8.5267340488331822e+00 +0.0000000000000000e+00 -3.0999999847880466e+00 -2.7542229087088074e-02 -5.2541227589905848e-01 +5.3068581774140151e-03
-3.1499999999999968e+00 +8.5267253988289848e+00 +0.0000000000000000e+00 -3.1499999840398050e+00 -2.7543657364401213e-02 -5.2543167064525831e-01 +5.3071994615250017e-03
-3.1999999999999966e+00 +8.5267166103130858e+00 +0.0000000000000000e+00 -3.1999999832674089e+00 -2.7545099289638181e-02 -5.2545133272479905e-01 +5.3075433510808637e-03
-3.2499999999999964e+00 +8.5267076832803035e+00 +0.0000000000000000e+00 -3.2499999824704737e+00 -2.7546554787386691e-02 -5.2547126016508117e-01 +5.3078898127389730e-03
-3.2999999999999963e+00 +8.5266986177253834e+00 +0.0000000000000000e+00 -3.2999999816486150e+00 -2.7548023782236163e-02 -5.2549145099350947e-01 +5.3082388131566191e-03
-3.3499999999999961e+00 +8.5266894136430054e+00 +0.0000000000000000e+00 -3.3499999808014476e+00 -2.7549506198777805e-02 -5.2551190323749231e-01 +5.3085903189910100e-03
-3.3999999999999959e+00 +8.5266800710277764e+00 +0.0000000000000000e+00 -3.3999999799285869e+00 -2.7551001961604610e-02 -5.2553261492444381e-01 +5.3089442968992703e-03
-3.4499999999999957e+00 +8.5266705898742359e+00 +0.0000000000000000e+00 -3.4499999790296481e+00 -2.7552510995311405e-02 -5.2555358408178077e-01 +5.3093007135384257e-03
-3.4999999999999956e+00 +8.5266609701768576e+00 +0.0000000000000000e+00 -3.4999999781042463e+00 -2.7554033224494869e-02 -5.2557480873692364e-01 +5.3096595355653989e-03
-3.5499999999999954e+00 +8.5266512119300462e+00 +0.0000000000000000e+00 -3.5499999771519963e+00 -2.7555568573753565e-02 -5.2559628691729710e-01 +5.3100207296370126e-03
-3.5999999999999952e+00 +8.5266413151281384e+00 +0.0000000000000000e+00 -3.5999999761725134e+00 -2.7557116967687950e-02 -5.2561801665032737e-01 +5.3103842624099709e-03
-3.6499999999999950e+00 +8.5266312797654074e+00 +0.0000000000000000e+00 -3.6499999751654122e+00 -2.7558678330900463e-02 -5.2563999596344502e-01 +5.3107501005408581e-03
-3.6999999999999948e+00 +8.5266211058360604e+00 +0.0000000000000000e+00 -3.6999999741303080e+00 -2.7560252587995462e-02 -5.2566222288408215e-01 +5.3111182106861388e-03
-3.7499999999999947e+00 +8.5266107933342354e+00 +0.0000000000000000e+00 -3.7499999730668150e+00 -2.7561839663579342e-02 -5.2568469543967367e-01 +5.3114885595021370e-03
-3.7999999999999945e+00 +8.5266003422540102e+00 +0.0000000000000000e+00 -3.7999999719745481e+00 -2.7563439482260501e-02 -5.2570741165765655e-01 +5.3118611136450441e-03
-3.8499999999999943e+00 +8.5265897525893966e+00 +0.0000000000000000e+00 -3.8499999708531223e+00 -2.7565051968649407e-02 -5.2573036956546981e-01 +5.3122358397709058e-03
-3.8999999999999941e+00 +8.5265790243343424e+00 +0.0000000000000000e+00 -3.8999999697021517e+00 -2.7566677047358615e-02 -5.2575356719055322e-01 +5.3126127045356186e-03
-3.9499999999999940e+00 +8.5265681574827319e+00 +0.0000000000000000e+00 -3.9499999685212512e+00 -2.7568314643002762e-02 -5.2577700256034843e-01 +5.3129916745949142e-03
-3.9999999999999938e+00 +8.5265571520283885e+00 +0.0000000000000000e+00 -3.9999999673100350e+00 -2.7569964680198664e-02 -5.2580067370229799e-01 +5.3133727166043698e-03
-4.0499999999999936e+00 +8.5265460079650719e+00 +0.0000000000000000e+00 -4.0499999660681176e+00 -2.7571627085531524e-02 -5.2582457859174736e-01 +5.3137558000621189e-03
-4.0999999999999934e+00 +8.5265347252864796e+00 +0.0000000000000000e+00 -4.0999999647951135e+00 -2.7573301793452704e-02 -5.2584871499564689e-01 +5.3141409058370158e-03
-4.1499999999999932e+00 +8.5265233039862505e+00 +0.0000000000000000e+00 -4.1499999634906368e+00 -2.7574988740379568e-02 -5.2587308062885130e-01 +5.3145280176404202e-03
-4.1999999999999931e+00 +8.5265117440579612e+00 +0.0000000000000000e+00 -4.1999999621543012e+00 -2.7576687862728967e-02 -5.2589767320621639e-01 +5.3149171191834346e-03
-4.2499999999999929e+00 +8.5265000454951281e+00 +0.0000000000000000e+00 -4.2499999607857211e+00 -2.7578399096917224e-02 -5.2592249044260042e-01 +5.3153081941768937e-03
-4.2999999999999927e+00 +8.5264882082912088e+00 +0.0000000000000000e+00 -4.2999999593845111e+00 -2.7580122379359976e-02 -5.2594753005286288e-01 +5.3157012263313633e-03
-4.3499999999999925e+00 +8.5264762324396042e+00 +0.0000000000000000e+00 -4.3499999579502848e+00 -2.7581857646472245e-02 -5.2597278975186446e-01 +5.3160961993571265e-03
-4.3999999999999924e+00 +8.5264641179336547e+00 +0.0000000000000000e+00 -4.3999999564826560e+00 -2.7583604834668301e-02 -5.2599826725446741e-01 +5.3164930969641783e-03
-4.4499999999999922e+00 +8.5264518647666439e+00 +0.0000000000000000e+00 -4.4499999549812390e+00 -2.7585363880361660e-02 -5.2602396027553466e-01 +5.3168919028622145e-03
-4.4999999999999920e+00 +8.5264394729317985e+00 +0.0000000000000000e+00 -4.4999999534456476e+00 -2.7587134719964993e-02 -5.2604986652993047e-01 +5.3172926007606335e-03
-4.5499999999999918e+00 +8.5264269424222903e+00 +0.0000000000000000e+00 -4.5499999518754946e+00 -2.7588917289890116e-02 -5.2607598373251852e-01 +5.3176951743685065e-03
-4.5999999999999917e+00 +8.5264142732312340e+00 +0.0000000000000000e+00 -4.5999999502703943e+00 -2.7590711526547865e-02 -5.2610230959816418e-01 +5.3180996073945962e-03
-4.6499999999999915e+00 +8.5264014653516913e+00 +0.0000000000000000e+00 -4.6499999486299606e+00 -2.7592517366348143e-02 -5.2612884184173203e-01 +5.3185058835473259e-03
-4.6999999999999913e+00 +8.5263885187766668e+00 +0.0000000000000000e+00 -4.6999999469538061e+00 -2.7594334745699771e-02 -5.2615557817808689e-01 +5.3189139865347816e-03
-4.7499999999999911e+00 +8.5263754334991120e+00 +0.0000000000000000e+00 -4.7499999452415453e+00 -2.7596163601010498e-02 -5.2618251632209423e-01 +5.3193239000647067e-03
-4.7999999999999909e+00 +8.5263622095119267e+00 +0.0000000000000000e+00 -4.7999999434927911e+00 -2.7598003868686945e-02 -5.2620965398861741e-01 +5.3197356078444839e-03
-4.8499999999999908e+00 +8.5263488468079576e+00 +0.0000000000000000e+00 -4.8499999417071562e+00 -2.7599855485134484e-02 -5.2623698889252080e-01 +5.3201490935811373e-03
-4.8999999999999906e+00 +8.5263353453799979e+00 +0.0000000000000000e+00 -4.8999999398842542e+00 -2.7601718386757280e-02 -5.2626451874866709e-01 +5.3205643409813168e-03
-4.9499999999999904e+00 +8.5263217052207896e+00 +0.0000000000000000e+00 -4.9499999380236988e+00 -2.7603592509958190e-02 -5.2629224127191776e-01 +5.3209813337512920e-03
-4.9999999999999902e+00 +8.5263079263230264e+00 +0.0000000000000000e+00 -4.9999999361251026e+00 -2.7605477791138710e-02 -5.2632015417713407e-01 +5.3214000555969433e-03
-5.0499999999999901e+00 +8.5262940086793506e+00 +0.0000000000000000e+00 -5.0499999341880786e+00 -2.7607374166698905e-02 -5.2634825517917505e-01 +5.3218204902237519e-03
-5.0999999999999899e+00 +8.5262799522823531e+00 +0.0000000000000000e+00 -5.0999999322122394e+00 -2.7609281573037412e-02 -5.2637654199289829e-01 +5.3222426213368045e-03
-5.1499999999999897e+00 +8.5262657571245786e+00 +0.0000000000000000e+00 -5.1499999301971986e+00 -2.7611199946551326e-02 -5.2640501233315984e-01 +5.3226664326407611e-03
-5.1999999999999895e+00 +8.5262514231985200e+00 +0.0000000000000000e+00 -5.1999999281425682e+00 -2.7613129223636200e-02 -5.2643366391481317e-01 +5.3230919078398669e-03
-5.2499999999999893e+00 +8.5262369504966262e+00 +0.0000000000000000e+00 -5.2499999260479608e+00 -2.7615069340685937e-02 -5.2646249445271065e-01 +5.3235190306379380e-03
-5.2999999999999892e+00 +8.5262223390112961e+00 +0.0000000000000000e+00 -5.2999999239129894e+00 -2.7617020234092782e-02 -5.2649150166170067e-01 +5.3239477847383480e-03
-5.3499999999999890e+00 +8.5262075887348843e+00 +0.0000000000000000e+00 -5.3499999217372665e+00 -2.7618981840247265e-02 -5.2652068325663093e-01 +5.3243781538440289e-03
-5.3999999999999888e+00 +8.5261926996596973e+00 +0.0000000000000000e+00 -5.3999999195204049e+00 -2.7620954095538105e-02 -5.2655003695234426e-01 +5.3248101216574473e-03
-5.4499999999999886e+00 +8.5261776717779991e+00 +0.0000000000000000e+00 -5.4499999172620166e+00 -2.7622936936352229e-02 -5.2657956046368259e-01 +5.3252436718806209e-03
-5.4999999999999885e+00 +8.5261625050820040e+00 +0.0000000000000000e+00 -5.4999999149617143e+00 -2.7624930299074629e-02 -5.2660925150548277e-01 +5.3256787882150856e-03
-5.5499999999999883e+00 +8.5261471995638871e+00 +0.0000000000000000e+00 -5.5499999126191089e+00 -2.7626934120088400e-02 -5.2663910779257961e-01 +5.3261154543618981e-03
-5.5999999999999881e+00 +8.5261317552157774e+00 +0.0000000000000000e+00 -5.5999999102338140e+00 -2.7628948335774634e-02 -5.2666912703980429e-01 +5.3265536540216341e-03
-5.6499999999999879e+00 +8.5261161720297629e+00 +0.0000000000000000e+00 -5.6499999078054408e+00 -2.7630972882512372e-02 -5.2669930696198231e-01 +5.3269933708943598e-03
-5.6999999999999877e+00 +8.5261004499978856e+00 +0.0000000000000000e+00 -5.6999999053336019e+00 -2.7633007696678563e-02 -5.2672964527393806e-01 +5.3274345886796482e-03
-5.7499999999999876e+00 +8.5260845891121502e+00 +0.0000000000000000e+00 -5.7499999028179092e+00 -2.7635052714647997e-02 -5.2676013969048985e-01 +5.3278772910765517e-03
-5.7999999999999874e+00 +8.5260685893645167e+00 +0.0000000000000000e+00 -5.7999999002579736e+00 -2.7637107872793273e-02 -5.2679078792645218e-01 +5.3283214617836066e-03
-5.8499999999999872e+00 +8.5260524507469064e+00 +0.0000000000000000e+00 -5.8499998976534080e+00 -2.7639173107484719e-02 -5.2682158769663445e-01 +5.3287670844988106e-03
