# trajectory
# s[mm] rx[mm] ry[mm] rz[mm] px[rad] py[rad] pz[rad]
0.0000000000000000e+00 +8.5389999999999997e+00 +0.0000000000000000e+00 +0.0000000000000000e+00 +0.0000000000000000e+00 +0.0000000000000000e+00 +1.0000000000000000e+00
5.0000000000000003e-02 +8.5389999308441205e+00 +0.0000000000000000e+00 +4.9999999999936227e-02 -2.7662366992221925e-06 +0.0000000000000000e+00 +9.9999999999617395e-01
1.0000000000000001e-01 +8.5389997233761665e+00 +0.0000000000000000e+00 +9.9999999999489858e-02 -5.5324832833316502e-06 +0.0000000000000000e+00 +9.9999999998469580e-01
1.5000000000000002e-01 +8.5389993775955979e+00 +0.0000000000000000e+00 +1.4999999999827829e-01 -8.2987415247974139e-06 +0.0000000000000000e+00 +9.9999999996556543e-01
2.0000000000000001e-01 +8.5389988935017893e+00 +0.0000000000000000e+00 +1.9999999999591889e-01 -1.1065013191513255e-05 +0.0000000000000000e+00 +9.9999999993878275e-01
2.5000000000000000e-01 +8.5389982710940249e+00 +0.0000000000000000e+00 +2.4999999999202904e-01 -1.3831300046797768e-05 +0.0000000000000000e+00 +9.9999999990434763e-01
2.9999999999999999e-01 +8.5389975103715017e+00 +0.0000000000000000e+00 +2.9999999998622612e-01 -1.6597603849394451e-05 +0.0000000000000000e+00 +9.9999999986225985e-01
3.4999999999999998e-01 +8.5389966113333280e+00 +0.0000000000000000e+00 +3.4999999997812747e-01 -1.9363926353471786e-05 +0.0000000000000000e+00 +9.9999999981251930e-01
3.9999999999999997e-01 +8.5389955739785250e+00 +0.0000000000000000e+00 +3.9999999996735047e-01 -2.2130269308623321e-05 +0.0000000000000000e+00 +9.9999999975512577e-01
4.4999999999999996e-01 +8.5389943983060270e+00 +0.0000000000000000e+00 +4.4999999995351248e-01 -2.4896634459867761e-05 +0.0000000000000000e+00 +9.9999999969007902e-01
4.9999999999999994e-01 +8.5389930843146811e+00 +0.0000000000000000e+00 +4.9999999993623079e-01 -2.7663023547649042e-05 +0.0000000000000000e+00 +9.9999999961737884e-01
5.4999999999999993e-01 +8.5389916320032455e+00 +0.0000000000000000e+00 +5.4999999991512272e-01 -3.0429438307836409e-05 +0.0000000000000000e+00 +9.9999999953702490e-01
5.9999999999999998e-01 +8.5389900413703934e+00 +0.0000000000000000e+00 +5.9999999988980568e-01 -3.3195880471724504e-05 +0.0000000000000000e+00 +9.9999999944901696e-01
6.5000000000000002e-01 +8.5389883124147126e+00 +0.0000000000000000e+00 +6.4999999985989687e-01 -3.5962351766033435e-05 +0.0000000000000000e+00 +9.9999999935335482e-01
7.0000000000000007e-01 +8.5389864451347020e+00 +0.0000000000000000e+00 +6.9999999982501360e-01 -3.8728853912908874e-05 +0.0000000000000000e+00 +9.9999999925003813e-01
7.5000000000000011e-01 +8.5389844395287771e+00 +0.0000000000000000e+00 +7.4999999978477305e-01 -4.1495388629922109e-05 +0.0000000000000000e+00 +9.9999999913906656e-01
8.0000000000000016e-01 +8.5389822955952663e+00 +0.0000000000000000e+00 +7.9999999973879254e-01 -4.4261957630070147e-05 +0.0000000000000000e+00 +9.9999999902043979e-01
8.5000000000000020e-01 +8.5389800133324130e+00 +0.0000000000000000e+00 +8.4999999968668938e-01 -4.7028562621775785e-05 +0.0000000000000000e+00 +9.9999999889415736e-01
9.0000000000000024e-01 +8.5389775927383749e+00 +0.0000000000000000e+00 +8.9999999962808064e-01 -4.9795205308887662e-05 +0.0000000000000000e+00 +9.9999999876021894e-01
9.5000000000000029e-01 +8.5389750338112247e+00 +0.0000000000000000e+00 +9.4999999956258363e-01 -5.2561887390680374e-05 +0.0000000000000000e+00 +9.9999999861862421e-01
1.0000000000000002e+00 +8.5389723365489498e+00 +0.0000000000000000e+00 +9.9999999948981544e-01 -5.5328610561854516e-05 +0.0000000000000000e+00 +9.9999999846937260e-01
1.0500000000000003e+00 +8.5389695009494542e+00 +0.0000000000000000e+00 +1.0499999994093931e+00 -5.8095376512536784e-05 +0.0000000000000000e+00 +9.9999999831246378e-01
1.1000000000000003e+00 +8.5389665270105564e+00 +0.0000000000000000e+00 +1.0999999993209342e+00 -6.0862186928280026e-05 +0.0000000000000000e+00 +9.9999999814789731e-01
1.1500000000000004e+00 +8.5389634147299915e+00 +0.0000000000000000e+00 +1.1499999992240553e+00 -6.3629043490063327e-05 +0.0000000000000000e+00 +9.9999999797567263e-01
1.2000000000000004e+00 +8.5389601641054096e+00 +0.0000000000000000e+00 +1.1999999991183736e+00 -6.6395947874292095e-05 +0.0000000000000000e+00 +9.9999999779578930e-01
1.2500000000000004e+00 +8.5389567751343787e+00 +0.0000000000000000e+00 +1.2499999990035064e+00 -6.9162901752798097e-05 +0.0000000000000000e+00 +9.9999999760824676e-01
1.3000000000000005e+00 +8.5389532478143817e+00 +0.0000000000000000e+00 +1.2999999988790707e+00 -7.1929906792839570e-05 +0.0000000000000000e+00 +9.9999999741304446e-01
1.3500000000000005e+00 +8.5389495821428198e+00 +0.0000000000000000e+00 +1.3499999987446833e+00 -7.4696964657101274e-05 +0.0000000000000000e+00 +9.9999999721018196e-01
1.4000000000000006e+00 +8.5389457781170091e+00 +0.0000000000000000e+00 +1.3999999985999614e+00 -7.7464077003694547e-05 +0.0000000000000000e+00 +9.9999999699965858e-01
1.4500000000000006e+00 +8.5389418357341835e+00 +0.0000000000000000e+00 +1.4499999984445215e+00 -8.0231245486157415e-05 +0.0000000000000000e+00 +9.9999999678147378e-01
1.5000000000000007e+00 +8.5389377549914975e+00 +0.0000000000000000e+00 +1.4999999982779810e+00 -8.2998471753454627e-05 +0.0000000000000000e+00 +9.9999999655562699e-01
1.5500000000000007e+00 +8.5389335358860183e+00 +0.0000000000000000e+00 +1.5499999980999566e+00 -8.5765757449977729e-05 +0.0000000000000000e+00 +9.9999999632211756e-01
1.6000000000000008e+00 +8.5389291784147350e+00 +0.0000000000000000e+00 +1.5999999979100650e+00 -8.8533104215545157e-05 +0.0000000000000000e+00 +9.9999999608094481e-01
1.6500000000000008e+00 +8.5389246825745513e+00 +0.0000000000000000e+00 +1.6499999977079232e+00 -9.1300513685402263e-05 +0.0000000000000000e+00 +9.9999999583210819e-01
1.7000000000000008e+00 +8.5389200483622929e+00 +0.0000000000000000e+00 +1.6999999974931479e+00 -9.4067987490221422e-05 +0.0000000000000000e+00 +9.9999999557560693e-01
1.7500000000000009e+00 +8.5389152757747020e+00 +0.0000000000000000e+00 +1.7499999972653559e+00 -9.6835527256102077e-05 +0.0000000000000000e+00 +9.9999999531144035e-01
1.8000000000000009e+00 +8.5389103648084408e+00 +0.0000000000000000e+00 +1.7999999970241640e+00 -9.9603134604570804e-05 +0.0000000000000000e+00 +9.9999999503960779e-01
1.8500000000000010e+00 +8.5389053154600880e+00 +0.0000000000000000e+00 +1.8499999967691889e+00 -1.0237081115258139e-04 +0.0000000000000000e+00 +9.9999999476010848e-01
1.9000000000000010e+00 +8.5389001277261443e+00 +0.0000000000000000e+00 +1.8999999965000471e+00 -1.0513855851251489e-04 +0.0000000000000000e+00 +9.9999999447294174e-01
1.9500000000000011e+00 +8.5388948016030284e+00 +0.0000000000000000e+00 +1.9499999962163552e+00 -1.0790637829217969e-04 +0.0000000000000000e+00 +9.9999999417810670e-01
2.0000000000000009e+00 +8.5388893370870811e+00 +0.0000000000000000e+00 +1.9999999959177299e+00 -1.1067427209481156e-04 +0.0000000000000000e+00 +9.9999999387560268e-01
2.0500000000000007e+00 +8.5388837341745596e+00 +0.0000000000000000e+00 +2.0499999956037875e+00 -1.1344224151882560e-04 +0.0000000000000000e+00 +9.9999999356542890e-01
2.1000000000000005e+00 +8.5388779928616430e+00 +0.0000000000000000e+00 +2.0999999952741448e+00 -1.1621028815508683e-04 +0.0000000000000000e+00 +9.9999999324758448e-01
2.1500000000000004e+00 +8.5388721131444303e+00 +0.0000000000000000e+00 +2.1499999949284181e+00 -1.1897841358418070e-04 +0.0000000000000000e+00 +9.9999999292206854e-01
2.2000000000000002e+00 +8.5388660950189443e+00 +0.0000000000000000e+00 +2.1999999945662236e+00 -1.2174661937616504e-04 +0.0000000000000000e+00 +9.9999999258888028e-01
2.2500000000000000e+00 +8.5388599384811279e+00 +0.0000000000000000e+00 +2.2499999941871782e+00 -1.2451490709057016e-04 +0.0000000000000000e+00 +9.9999999224801894e-01
2.2999999999999998e+00 +8.5388536435268456e+00 +0.0000000000000000e+00 +2.2999999937908977e+00 -1.2728327827639881e-04 +0.0000000000000000e+00 +9.9999999189948352e-01
2.3499999999999996e+00 +8.5388472101518840e+00 +0.0000000000000000e+00 +2.3499999933769984e+00 -1.3005173447212633e-04 +0.0000000000000000e+00 +9.9999999154327313e-01
2.3999999999999995e+00 +8.5388406383519566e+00 +0.0000000000000000e+00 +2.3999999929450970e+00 -1.3282027720570058e-04 +0.0000000000000000e+00 +9.9999999117938687e-01
2.4499999999999993e+00 +8.5388339281226973e+00 +0.0000000000000000e+00 +2.4499999924948095e+00 -1.3558890799454209e-04 +0.0000000000000000e+00 +9.9999999080782387e-01
2.4999999999999991e+00 +8.5388270794596650e+00 +0.0000000000000000e+00 +2.4999999920257516e+00 -1.3835762834554411e-04 +0.0000000000000000e+00 +9.9999999042858323e-01
2.5499999999999989e+00 +8.5388200923583444e+00 +0.0000000000000000e+00 +2.5499999915375398e+00 -1.4112643975507254e-04 +0.0000000000000000e+00 +9.9999999004166384e-01
2.5999999999999988e+00 +8.5388129668141470e+00 +0.0000000000000000e+00 +2.5999999910297902e+00 -1.4389534370896613e-04 +0.0000000000000000e+00 +9.9999998964706482e-01
2.6499999999999986e+00 +8.5388057028224065e+00 +0.0000000000000000e+00 +2.6499999905021183e+00 -1.4666434168253639e-04 +0.0000000000000000e+00 +9.9999998924478528e-01
2.6999999999999984e+00 +8.5387983003783869e+00 +0.0000000000000000e+00 +2.6999999899541405e+00 -1.4943343514056773e-04 +0.0000000000000000e+00 +9.9999998883482411e-01
2.7499999999999982e+00 +8.5387907594772763e+00 +0.0000000000000000e+00 +2.7499999893854725e+00 -1.5220262553731746e-04 +0.0000000000000000e+00 +9.9999998841718030e-01
2.7999999999999980e+00 +8.5387830801141931e+00 +0.0000000000000000e+00 +2.7999999887957303e+00 -1.5497191431651581e-04 +0.0000000000000000e+00 +9.9999998799185275e-01
2.8499999999999979e+00 +8.5387752622841813e+00 +0.0000000000000000e+00 +2.8499999881845297e+00 -1.5774130291136605e-04 +0.0000000000000000e+00 +9.9999998755884056e-01
2.8999999999999977e+00 +8.5387673059822138e+00 +0.0000000000000000e+00 +2.8999999875514861e+00 -1.6051079274454443e-04 +0.0000000000000000e+00 +9.9999998711814264e-01
2.9499999999999975e+00 +8.5387592112031943e+00 +0.0000000000000000e+00 +2.9499999868962159e+00 -1.6328038522820025e-04 +0.0000000000000000e+00 +9.9999998666975787e-01
2.9999999999999973e+00 +8.5387509779419553e+00 +0.0000000000000000e+00 +2.9999999862183340e+00 -1.6605008176395595e-04 +0.0000000000000000e+00 +9.9999998621368513e-01
3.0499999999999972e+00 +8.5387426061932601e+00 +0.0000000000000000e+00 +3.0499999855174562e+00 -1.6881988374290710e-04 +0.0000000000000000e+00 +9.9999998574992333e-01
3.0999999999999970e+00 +8.5387340959518010e+00 +0.0000000000000000e+00 +3.0999999847931980e+00 -1.7158979254562243e-04 +0.0000000000000000e+00 +9.9999998527847145e-01
3.1499999999999968e+00 +8.5387254472122027e+00 +0.0000000000000000e+00 +3.1499999840451749e+00 -1.7435980954214387e-04 +0.0000000000000000e+00 +9.9999998479932828e-01
3.1999999999999966e+00 +8.5387166599690207e+00 +0.0000000000000000e+00 +3.1999999832730026e+00 -1.7712993609198660e-04 +0.0000000000000000e+00 +9.9999998431249271e-01
3.2499999999999964e+00 +8.5387077342167448e+00 +0.0000000000000000e+00 +3.2499999824762962e+00 -1.7990017354413908e-04 +0.0000000000000000e+00 +9.9999998381796362e-01
3.2999999999999963e+00 +8.5386986699497953e+00 +0.0000000000000000e+00 +3.2999999816546710e+00 -1.8267052323706306e-04 +0.0000000000000000e+00 +9.9999998331573980e-01
3.3499999999999961e+00 +8.5386894671625271e+00 +0.0000000000000000e+00 +3.3499999808077421e+00 -1.8544098649869359e-04 +0.0000000000000000e+00 +9.9999998280582014e-01
3.3999999999999959e+00 +8.5386801258492291e+00 +0.0000000000000000e+00 +3.3999999799351248e+00 -1.8821156464643915e-04 +0.0000000000000000e+00 +9.9999998228820330e-01
3.4499999999999957e+00 +8.5386706460041246e+00 +0.0000000000000000e+00 +3.4499999790364342e+00 -1.9098225898718155e-04 +0.0000000000000000e+00 +9.9999998176288818e-01
3.4999999999999956e+00 +8.5386610276213712e+00 +0.0000000000000000e+00 +3.4999999781112852e+00 -1.9375307081727605e-04 +0.0000000000000000e+00 +9.9999998122987355e-01
3.5499999999999954e+00 +8.5386512706950626e+00 +0.0000000000000000e+00 +3.5499999771592932e+00 -1.9652400142255132e-04 +0.0000000000000000e+00 +9.9999998068915819e-01
3.5999999999999952e+00 +8.5386413752192283e+00 +0.0000000000000000e+00 +3.5999999761800727e+00 -1.9929505207830951e-04 +0.0000000000000000e+00 +9.9999998014074087e-01
3.6499999999999950e+00 +8.5386313411878341e+00 +0.0000000000000000e+00 +3.6499999751732388e+00 -2.0206622404932628e-04 +0.0000000000000000e+00 +9.9999997958462028e-01
3.6999999999999948e+00 +8.5386211685947817e+00 +0.0000000000000000e+00 +3.6999999741384064e+00 -2.0483751858985075e-04 +0.0000000000000000e+00 +9.9999997902079518e-01
3.7499999999999947e+00 +8.5386108574339126e+00 +0.0000000000000000e+00 +3.7499999730751901e+00 -2.0760893694360562e-04 +0.0000000000000000e+00 +9.9999997844926436e-01
3.7999999999999945e+00 +8.5386004076990041e+00 +0.0000000000000000e+00 +3.7999999719832043e+00 -2.1038048034378715e-04 +0.0000000000000000e+00 +9.9999997787002648e-01
3.8499999999999943e+00 +8.5385898193837733e+00 +0.0000000000000000e+00 +3.8499999708620640e+00 -2.1315215001306513e-04 +0.0000000000000000e+00 +9.9999997728308021e-01
3.8999999999999941e+00 +8.5385790924818767e+00 +0.0000000000000000e+00 +3.8999999697113839e+00 -2.1592394716358294e-04 +0.0000000000000000e+00 +9.9999997668842422e-01
3.9499999999999940e+00 +8.5385682269869108e+00 +0.0000000000000000e+00 +3.9499999685307778e+00 -2.1869587299695763e-04 +0.0000000000000000e+00 +9.9999997608605729e-01
3.9999999999999938e+00 +8.5385572228924111e+00 +0.0000000000000000e+00 +3.9999999673198610e+00 -2.2146792870427983e-04 +0.0000000000000000e+00 +9.9999997547597796e-01
4.0499999999999936e+00 +8.5385460801918551e+00 +0.0000000000000000e+00 +4.0499999660782473e+00 -2.2424011546598406e-04 +0.0000000000000000e+00 +9.9999997485818493e-01
4.0999999999999934e+00 +8.5385347988786613e+00 +0.0000000000000000e+00 +4.0999999648055514e+00 -2.2701243445042126e-04 +0.0000000000000000e+00 +9.9999997423267695e-01
4.1499999999999932e+00 +8.5385233789461878e+00 +0.0000000000000000e+00 +4.1499999635013864e+00 -2.2978488681243140e-04 +0.0000000000000000e+00 +9.9999997359945247e-01
4.1999999999999931e+00 +8.5385118203877379e+00 +0.0000000000000000e+00 +4.1999999621653679e+00 -2.3255747369321366e-04 +0.0000000000000000e+00 +9.9999997295851029e-01
4.2499999999999929e+00 +8.5385001231965578e+00 +0.0000000000000000e+00 +4.2499999607971093e+00 -2.3533019622032646e-04 +0.0000000000000000e+00 +9.9999997230984894e-01
4.2999999999999927e+00 +8.5384882873658370e+00 +0.0000000000000000e+00 +4.2999999593962244e+00 -2.3810305550768743e-04 +0.0000000000000000e+00 +9.9999997165346699e-01
4.3499999999999925e+00 +8.5384763128887098e+00 +0.0000000000000000e+00 +4.3499999579623276e+00 -2.4087605265557337e-04 +0.0000000000000000e+00 +9.9999997098936311e-01
4.3999999999999924e+00 +8.5384641997582555e+00 +0.0000000000000000e+00 +4.3999999564950327e+00 -2.4364918875062030e-04 +0.0000000000000000e+00 +9.9999997031753585e-01
4.4499999999999922e+00 +8.5384519479675003e+00 +0.0000000000000000e+00 +4.4499999549939533e+00 -2.4642246486582340e-04 +0.0000000000000000e+00 +9.9999996963798377e-01
4.4999999999999920e+00 +8.5384395575094167e+00 +0.0000000000000000e+00 +4.4999999534587030e+00 -2.4919588206053693e-04 +0.0000000000000000e+00 +9.9999996895070553e-01
4.5499999999999918e+00 +8.5384270283769244e+00 +0.0000000000000000e+00 +4.5499999518888954e+00 -2.5196944138047443e-04 +0.0000000000000000e+00 +9.9999996825569959e-01
4.5999999999999917e+00 +8.5384143605628928e+00 +0.0000000000000000e+00 +4.5999999502841442e+00 -2.5474314385770844e-04 +0.0000000000000000e+00 +9.9999996755296461e-01
4.6499999999999915e+00 +8.5384015540601368e+00 +0.0000000000000000e+00 +4.6499999486440631e+00 -2.5751699051067061e-04 +0.0000000000000000e+00 +9.9999996684249903e-01
4.6999999999999913e+00 +8.5383886088614229e+00 +0.0000000000000000e+00 +4.6999999469682656e+00 -2.6029098234415171e-04 +0.0000000000000000e+00 +9.9999996612430142e-01
4.7499999999999911e+00 +8.5383755249594664e+00 +0.0000000000000000e+00 +4.7499999452563646e+00 -2.6306512034930153e-04 +0.0000000000000000e+00 +9.9999996539837033e-01
4.7999999999999909e+00 +8.5383623023469344e+00 +0.0000000000000000e+00 +4.7999999435079737e+00 -2.6583940550362891e-04 +0.0000000000000000e+00 +9.9999996466470431e-01
4.8499999999999908e+00 +8.5383489410164461e+00 +0.0000000000000000e+00 +4.8499999417227064e+00 -2.6861383877100161e-04 +0.0000000000000000e+00 +9.9999996392330182e-01
4.8999999999999906e+00 +8.5383354409605730e+00 +0.0000000000000000e+00 +4.8999999399001757e+00 -2.7138842110164640e-04 +0.0000000000000000e+00 +9.9999996317416140e-01
4.9499999999999904e+00 +8.5383218021718363e+00 +0.0000000000000000e+00 +4.9499999380399942e+00 -2.7416315343214900e-04 +0.0000000000000000e+00 +9.9999996241728162e-01
4.9999999999999902e+00 +8.5383080246427134e+00 +0.0000000000000000e+00 +4.9999999361417746e+00 -2.7693803668545395e-04 +0.0000000000000000e+00 +9.9999996165266081e-01
5.0499999999999901e+00 +8.5382941083656370e+00 +0.0000000000000000e+00 +5.0499999342051307e+00 -2.7971307177086476e-04 +0.0000000000000000e+00 +9.9999996088029763e-01
5.0999999999999899e+00 +8.5382800533329917e+00 +0.0000000000000000e+00 +5.0999999322296752e+00 -2.8248825958404372e-04 +0.0000000000000000e+00 +9.9999996010019043e-01
5.1499999999999897e+00 +8.5382658595371179e+00 +0.0000000000000000e+00 +5.1499999302150208e+00 -2.8526360100701191e-04 +0.0000000000000000e+00 +9.9999995931233776e-01
5.1999999999999895e+00 +8.5382515269703152e+00 +0.0000000000000000e+00 +5.1999999281607803e+00 -2.8803909690814917e-04 +0.0000000000000000e+00 +9.9999995851673806e-01
5.2499999999999893e+00 +8.5382370556248386e+00 +0.0000000000000000e+00 +5.2499999260665655e+00 -2.9081474814219405e-04 +0.0000000000000000e+00 +9.9999995771338979e-01
5.2999999999999892e+00 +8.5382224454928988e+00 +0.0000000000000000e+00 +5.2999999239319902e+00 -2.9359055555024376e-04 +0.0000000000000000e+00 +9.9999995690229149e-01
5.3499999999999890e+00 +8.5382076965666673e+00 +0.0000000000000000e+00 +5.3499999217566661e+00 -2.9636651995975413e-04 +0.0000000000000000e+00 +9.9999995608344150e-01
5.3999999999999888e+00 +8.5381928088382733e+00 +0.0000000000000000e+00 +5.3999999195402051e+00 -2.9914264218453961e-04 +0.0000000000000000e+00 +9.9999995525683838e-01
5.4499999999999886e+00 +8.5381777822998064e+00 +0.0000000000000000e+00 +5.4499999172822200e+00 -3.0191892302477313e-04 +0.0000000000000000e+00 +9.9999995442248046e-01
5.4999999999999885e+00 +8.5381626169433140e+00 +0.0000000000000000e+00 +5.4999999149823235e+00 -3.0469536326698616e-04 +0.0000000000000000e+00 +9.9999995358036631e-01
5.5499999999999883e+00 +8.5381473127608096e+00 +0.0000000000000000e+00 +5.5499999126401276e+00 -3.0747196368406860e-04 +0.0000000000000000e+00 +9.9999995273049425e-01
5.5999999999999881e+00 +8.5381318697442641e+00 +0.0000000000000000e+00 +5.5999999102552440e+00 -3.1024872503526870e-04 +0.0000000000000000e+00 +9.9999995187286272e-01
5.6499999999999879e+00 +8.5381162878856109e+00 +0.0000000000000000e+00 +5.6499999078272847e+00 -3.1302564806619297e-04 +0.0000000000000000e+00 +9.9999995100747019e-01
5.6999999999999877e+00 +8.5381005671767500e+00 +0.0000000000000000e+00 +5.6999999053558614e+00 -3.1580273350880633e-04 +0.0000000000000000e+00 +9.9999995013431509e-01
5.7499999999999876e+00 +8.5380847076095421e+00 +0.0000000000000000e+00 +5.7499999028405862e+00 -3.1857998208143184e-04 +0.0000000000000000e+00 +9.9999994925339575e-01
5.7999999999999874e+00 +8.5380687091758123e+00 +0.0000000000000000e+00 +5.7999999002810716e+00 -3.2135739448875078e-04 +0.0000000000000000e+00 +9.9999994836471073e-01
5.8499999999999872e+00 +8.5380525718673521e+00 +0.0000000000000000e+00 +5.8499998976769279e+00 -3.2413497142180244e-04 +0.0000000000000000e+00 +9.9999994746825838e-01
5.8999999999999870e+00 +8.5380362956759175e+00 +0.0000000000000000e+00 +5.8999998950277677e+00 -3.2691271355798419e-04 +0.0000000000000000e+00 +9.9999994656403701e-01
