# field on trajectory
# s[mm] rx[mm] ry[mm] rz[mm] bx[T] by[T] bz[T]
0.0000000000000000e+00 +8.2850000000000001e+00 +0.0000000000000000e+00 +0.0000000000000000e+00 -2.9120549440698654e-02 -5.5646386394648639e-01 +5.4945148288030555e-03
5.0000000000000003e-02 +8.2849999308003923e+00 +0.0000000000000000e+00 +4.9999999999936151e-02 -2.9120680917225104e-02 -5.5646389058221346e-01 +5.4956477946515132e-03
1.0000000000000001e-01 +8.2849997232015475e+00 +0.0000000000000000e+00 +9.9999999999489220e-02 -2.9120825798420350e-02 -5.5646427987479208e-01 +5.4967882068301084e-03
1.5000000000000002e-01 +8.2849993772033699e+00 +0.0000000000000000e+00 +1.4999999999827612e-01 -2.9120984111374267e-02 -5.5646503114372770e-01 +5.4979359958015157e-03
2.0000000000000001e-01 +8.2849988928056728e+00 +0.0000000000000000e+00 +1.9999999999591375e-01 -2.9121155883177794e-02 -5.5646614370854286e-01 +5.4990910920286748e-03
2.5000000000000000e-01 +8.2849982700081792e+00 +0.0000000000000000e+00 +2.4999999999201902e-01 -2.9121341140922807e-02 -5.5646761688877611e-01 +5.5002534259747911e-03
2.9999999999999999e-01 +8.2849975088105232e+00 +0.0000000000000000e+00 +2.9999999998620885e-01 -2.9121539911702105e-02 -5.5646945000398096e-01 +5.5014229281033205e-03
3.4999999999999998e-01 +8.2849966092122482e+00 +0.0000000000000000e+00 +3.4999999997810011e-01 -2.9121752222609393e-02 -5.5647164237372804e-01 +5.5025995288779835e-03
3.9999999999999997e-01 +8.2849955712128089e+00 +0.0000000000000000e+00 +3.9999999996730973e-01 -2.9121978100739212e-02 -5.5647419331760251e-01 +5.5037831587627468e-03
4.4999999999999996e-01 +8.2849943948115712e+00 +0.0000000000000000e+00 +4.4999999995345458e-01 -2.9122217573186924e-02 -5.5647710215520740e-01 +5.5049737482218281e-03
4.9999999999999994e-01 +8.2849930800078120e+00 +0.0000000000000000e+00 +4.9999999993615152e-01 -2.9122470667048640e-02 -5.5648036820616031e-01 +5.5061712277196945e-03
5.4999999999999993e-01 +8.2849916268007195e+00 +0.0000000000000000e+00 +5.4999999991501747e-01 -2.9122737409421201e-02 -5.5648399079009603e-01 +5.5073755277210597e-03
5.9999999999999998e-01 +8.2849900351893915e+00 +0.0000000000000000e+00 +5.9999999988966923e-01 -2.9123017827402120e-02 -5.5648796922666477e-01 +5.5085865786908775e-03
6.5000000000000002e-01 +8.2849883051728401e+00 +0.0000000000000000e+00 +6.4999999985972368e-01 -2.9123311948089564e-02 -5.5649230283553330e-01 +5.5098043110943422e-03
7.0000000000000007e-01 +8.2849864367499855e+00 +0.0000000000000000e+00 +6.9999999982479766e-01 -2.9123619798582297e-02 -5.5649699093638461e-01 +5.5110286553968881e-03
7.5000000000000011e-01 +8.2849844299196622e+00 +0.0000000000000000e+00 +7.4999999978450804e-01 -2.9123941405979629e-02 -5.5650203284891764e-01 +5.5122595420641768e-03
8.0000000000000016e-01 +8.2849822846806180e+00 +0.0000000000000000e+00 +7.9999999973847158e-01 -2.9124276797381391e-02 -5.5650742789284779e-01 +5.5134969015621059e-03
8.5000000000000020e-01 +8.2849800010315100e+00 +0.0000000000000000e+00 +8.4999999968630513e-01 -2.9124625999887903e-02 -5.5651317538790723e-01 +5.5147406643567994e-03
9.0000000000000024e-01 +8.2849775789709081e+00 +0.0000000000000000e+00 +8.9999999962762534e-01 -2.9124989040599906e-02 -5.5651927465384377e-01 +5.5159907609146179e-03
9.5000000000000029e-01 +8.2849750184972955e+00 +0.0000000000000000e+00 +9.4999999956204917e-01 -2.9125365946618544e-02 -5.5652572501042186e-01 +5.5172471217021330e-03
1.0000000000000002e+00 +8.2849723196090679e+00 +0.0000000000000000e+00 +9.9999999948919327e-01 -2.9125756745045268e-02 -5.5653252577742252e-01 +5.5185096771861392e-03
1.0500000000000003e+00 +8.2849694823045343e+00 +0.0000000000000000e+00 +1.0499999994086744e+00 -2.9126161462981914e-02 -5.5653967627464340e-01 +5.5197783578336580e-03
1.1000000000000003e+00 +8.2849665065819167e+00 +0.0000000000000000e+00 +1.0999999993201093e+00 -2.9126580127530513e-02 -5.5654717582189772e-01 +5.5210530941119176e-03
1.1500000000000004e+00 +8.2849633924393498e+00 +0.0000000000000000e+00 +1.1499999992231145e+00 -2.9127012765793395e-02 -5.5655502373901655e-01 +5.5223338164883647e-03
1.2000000000000004e+00 +8.2849601398748813e+00 +0.0000000000000000e+00 +1.1999999991173067e+00 -2.9127459404873008e-02 -5.5656321934584640e-01 +5.5236204554306514e-03
1.2500000000000004e+00 +8.2849567488864739e+00 +0.0000000000000000e+00 +1.2499999990023027e+00 -2.9127920071871989e-02 -5.5657176196225111e-01 +5.5249129414066444e-03
1.3000000000000005e+00 +8.2849532194720013e+00 +0.0000000000000000e+00 +1.2999999988777191e+00 -2.9128394793893047e-02 -5.5658065090811060e-01 +5.5262112048844111e-03
1.3500000000000005e+00 +8.2849495516292535e+00 +0.0000000000000000e+00 +1.3499999987431723e+00 -2.9128883598038988e-02 -5.5658988550332200e-01 +5.5275151763322155e-03
1.4000000000000006e+00 +8.2849457453559339e+00 +0.0000000000000000e+00 +1.3999999985982792e+00 -2.9129386511412614e-02 -5.5659946506779834e-01 +5.5288247862185320e-03
1.4500000000000006e+00 +8.2849418006496602e+00 +0.0000000000000000e+00 +1.4499999984426561e+00 -2.9129903561116704e-02 -5.5660938892147016e-01 +5.5301399650120259e-03
1.5000000000000007e+00 +8.2849377175079653e+00 +0.0000000000000000e+00 +1.4999999982759198e+00 -2.9130434774254001e-02 -5.5661965638428479e-01 +5.5314606431815620e-03
1.5500000000000007e+00 +8.2849334959282928e+00 +0.0000000000000000e+00 +1.5499999980976864e+00 -2.9130980177927125e-02 -5.5663026677620553e-01 +5.5327867511961925e-03
1.6000000000000008e+00 +8.2849291359080066e+00 +0.0000000000000000e+00 +1.5999999979075727e+00 -2.9131539799238531e-02 -5.5664121941721312e-01 +5.5341182195251552e-03
1.6500000000000008e+00 +8.2849246374443819e+00 +0.0000000000000000e+00 +1.6499999977051951e+00 -2.9132113665290536e-02 -5.5665251362730528e-01 +5.5354549786378804e-03
1.7000000000000008e+00 +8.2849200005346084e+00 +0.0000000000000000e+00 +1.6999999974901698e+00 -2.9132701803185192e-02 -5.5666414872649617e-01 +5.5367969590039831e-03
1.7500000000000009e+00 +8.2849152251757943e+00 +0.0000000000000000e+00 +1.7499999972621134e+00 -2.9133304240024294e-02 -5.5667612403481670e-01 +5.5381440910932519e-03
1.8000000000000009e+00 +8.2849103113649587e+00 +0.0000000000000000e+00 +1.7999999970206422e+00 -2.9133921002909340e-02 -5.5668843887231623e-01 +5.5394963053756628e-03
1.8500000000000010e+00 +8.2849052590990411e+00 +0.0000000000000000e+00 +1.8499999967653722e+00 -2.9134552118941458e-02 -5.5670109255905875e-01 +5.5408535323213624e-03
1.9000000000000010e+00 +8.2849000683748937e+00 +0.0000000000000000e+00 +1.8999999964959200e+00 -2.9135197615221400e-02 -5.5671408441512782e-01 +5.5422157024006677e-03
1.9500000000000011e+00 +8.2848947391892853e+00 +0.0000000000000000e+00 +1.9499999962119019e+00 -2.9135857518849461e-02 -5.5672741376062151e-01 +5.5435827460840739e-03
2.0000000000000009e+00 +8.2848892715389013e+00 +0.0000000000000000e+00 +1.9999999959129340e+00 -2.9136531856925475e-02 -5.5674107991565702e-01 +5.5449545938422362e-03
2.0500000000000007e+00 +8.2848836654203417e+00 +0.0000000000000000e+00 +2.0499999955986326e+00 -2.9137220638654371e-02 -5.5675508196455603e-01 +5.5463311718464406e-03
2.1000000000000005e+00 +8.2848779208301249e+00 +0.0000000000000000e+00 +2.0999999952686133e+00 -2.9137923801663159e-02 -5.5676941804840685e-01 +5.5477123890699306e-03
2.1500000000000004e+00 +8.2848720377646856e+00 +0.0000000000000000e+00 +2.1499999949224926e+00 -2.9138641265684738e-02 -5.5678408607249819e-01 +5.5490981501863951e-03
2.2000000000000002e+00 +8.2848660162203753e+00 +0.0000000000000000e+00 +2.1999999945598865e+00 -2.9139372950452384e-02 -5.5679908394212951e-01 +5.5504883598695050e-03
2.2500000000000000e+00 +8.2848598561934637e+00 +0.0000000000000000e+00 +2.2499999941804112e+00 -2.9140118775699789e-02 -5.5681440956261175e-01 +5.5518829227928918e-03
2.2999999999999998e+00 +8.2848535576801403e+00 +0.0000000000000000e+00 +2.2999999937836826e+00 -2.9140878661161045e-02 -5.5683006083926534e-01 +5.5532817436301264e-03
2.3499999999999996e+00 +8.2848471206765115e+00 +0.0000000000000000e+00 +2.3499999933693165e+00 -2.9141652526570680e-02 -5.5684603567742308e-01 +5.5546847270547236e-03
2.3999999999999995e+00 +8.2848405451786054e+00 +0.0000000000000000e+00 +2.3999999929369289e+00 -2.9142440291663674e-02 -5.5686233198242541e-01 +5.5560917777401075e-03
2.4499999999999993e+00 +8.2848338311823682e+00 +0.0000000000000000e+00 +2.4499999924861355e+00 -2.9143241876175462e-02 -5.5687894765962431e-01 +5.5575028003596186e-03
2.4999999999999991e+00 +8.2848269786836664e+00 +0.0000000000000000e+00 +2.4999999920165523e+00 -2.9144057199841936e-02 -5.5689588061438022e-01 +5.5589176995864903e-03
2.5499999999999989e+00 +8.2848199876782900e+00 +0.0000000000000000e+00 +2.5499999915277947e+00 -2.9144886182399535e-02 -5.5691312875206289e-01 +5.5603363800938357e-03
2.5999999999999988e+00 +8.2848128581619491e+00 +0.0000000000000000e+00 +2.5999999910194784e+00 -2.9145728743585137e-02 -5.5693068997805117e-01 +5.5617587465546401e-03
2.6499999999999986e+00 +8.2848055901302757e+00 +0.0000000000000000e+00 +2.6499999904912195e+00 -2.9146584803136189e-02 -5.5694856219773159e-01 +5.5631847036417374e-03
2.6999999999999984e+00 +8.2847981835788254e+00 +0.0000000000000000e+00 +2.6999999899426332e+00 -2.9147454280790658e-02 -5.5696674331650020e-01 +5.5646141560278198e-03
2.7499999999999982e+00 +8.2847906385030772e+00 +0.0000000000000000e+00 +2.7499999893733356e+00 -2.9148337096287082e-02 -5.5698523123975985e-01 +5.5660470083853933e-03
2.7999999999999980e+00 +8.2847829548984322e+00 +0.0000000000000000e+00 +2.7999999887829419e+00 -2.9149233169364543e-02 -5.5700402387292147e-01 +5.5674831653867917e-03
2.8499999999999979e+00 +8.2847751327602150e+00 +0.0000000000000000e+00 +2.8499999881710676e+00 -2.9150142419762742e-02 -5.5702311912140279e-01 +5.5689225317041482e-03
2.8999999999999977e+00 +8.2847671720836793e+00 +0.0000000000000000e+00 +2.8999999875373277e+00 -2.9151064767221943e-02 -5.5704251489062995e-01 +5.5703650120093899e-03
2.9499999999999975e+00 +8.2847590728639986e+00 +0.0000000000000000e+00 +2.9499999868813380e+00 -2.9152000131483051e-02 -5.5706220908603321e-01 +5.5718105109742160e-03
2.9999999999999973e+00 +8.2847508350962773e+00 +0.0000000000000000e+00 +2.9999999862027140e+00 -2.9152948432287582e-02 -5.5708219961305194e-01 +5.5732589332701029e-03
3.0499999999999972e+00 +8.2847424587755416e+00 +0.0000000000000000e+00 +3.0499999855010707e+00 -2.9153909589377726e-02 -5.5710248437713006e-01 +5.5747101835682709e-03
3.0999999999999970e+00 +8.2847339438967484e+00 +0.0000000000000000e+00 +3.0999999847760229e+00 -2.9154883522496327e-02 -5.5712306128371725e-01 +5.5761641665396820e-03
3.1499999999999968e+00 +8.2847252904547783e+00 +0.0000000000000000e+00 +3.1499999840271862e+00 -2.9155870151386872e-02 -5.5714392823826964e-01 +5.5776207868550214e-03
3.1999999999999966e+00 +8.2847164984444426e+00 +0.0000000000000000e+00 +3.1999999832541759e+00 -2.9156869395793605e-02 -5.5716508314624791e-01 +5.5790799491846959e-03
3.2499999999999964e+00 +8.2847075678604796e+00 +0.0000000000000000e+00 +3.2499999824566066e+00 -2.9157881175461409e-02 -5.5718652391311718e-01 +5.5805415581988028e-03
3.2999999999999963e+00 +8.2846984986975567e+00 +0.0000000000000000e+00 +3.2999999816340932e+00 -2.9158905410135941e-02 -5.5720824844434802e-01 +5.5820055185671355e-03
3.3499999999999961e+00 +8.2846892909502703e+00 +0.0000000000000000e+00 +3.3499999807862513e+00 -2.9159942019563581e-02 -5.5723025464541465e-01 +5.5834717349591591e-03
3.3999999999999959e+00 +8.2846799446131492e+00 +0.0000000000000000e+00 +3.3999999799126952e+00 -2.9160990923491472e-02 -5.5725254042179584e-01 +5.5849401120440043e-03
3.4499999999999957e+00 +8.2846704596806493e+00 +0.0000000000000000e+00 +3.4499999790130396e+00 -2.9162052041667497e-02 -5.5727510367897326e-01 +5.5864105544904379e-03
3.4999999999999956e+00 +8.2846608361471592e+00 +0.0000000000000000e+00 +3.4999999780868998e+00 -2.9163125293840367e-02 -5.5729794232243268e-01 +5.5878829669668796e-03
3.5499999999999954e+00 +8.2846510740069981e+00 +0.0000000000000000e+00 +3.5499999771338899e+00 -2.9164210599759568e-02 -5.5732105425766232e-01 +5.5893572541413613e-03
3.5999999999999952e+00 +8.2846411732544194e+00 +0.0000000000000000e+00 +3.5999999761536250e+00 -2.9165307879175404e-02 -5.5734443739015349e-01 +5.5908333206815264e-03
3.6499999999999950e+00 +8.2846311338836074e+00 +0.0000000000000000e+00 +3.6499999751457195e+00 -2.9166417051839019e-02 -5.5736808962540041e-01 +5.5923110712546202e-03
3.6999999999999948e+00 +8.2846209558886788e+00 +0.0000000000000000e+00 +3.6999999741097875e+00 -2.9167538037502397e-02 -5.5739200886889873e-01 +5.5937904105274666e-03
3.7499999999999947e+00 +8.2846106392636845e+00 +0.0000000000000000e+00 +3.7499999730454441e+00 -2.9168670755918391e-02 -5.5741619302614576e-01 +5.5952712431664589e-03
3.7999999999999945e+00 +8.2846001840026098e+00 +0.0000000000000000e+00 +3.7999999719523032e+00 -2.9169815126840741e-02 -5.5744064000264126e-01 +5.5967534738375572e-03
3.8499999999999943e+00 +8.2845895900993760e+00 +0.0000000000000000e+00 +3.8499999708299795e+00 -2.9170971070024056e-02 -5.5746534770388589e-01 +5.5982370072062589e-03
3.8999999999999941e+00 +8.2845788575478370e+00 +0.0000000000000000e+00 +3.8999999696780869e+00 -2.9172138505223863e-02 -5.5749031403538085e-01 +5.5997217479375992e-03
3.9499999999999940e+00 +8.2845679863417825e+00 +0.0000000000000000e+00 +3.9499999684962397e+00 -2.9173317352196637e-02 -5.5751553690262856e-01 +5.6012076006961261e-03
3.9999999999999938e+00 +8.2845569764749420e+00 +0.0000000000000000e+00 +3.9999999672840518e+00 -2.9174507530699775e-02 -5.5754101421113134e-01 +5.6026944701458989e-03
4.0499999999999936e+00 +8.2845458279409776e+00 +0.0000000000000000e+00 +4.0499999660411374e+00 -2.9175708964846909e-02 -5.5756674380553084e-01 +5.6041822674132305e-03
4.0999999999999934e+00 +8.2845345407334889e+00 +0.0000000000000000e+00 +4.0999999647671110e+00 -2.9176921596173837e-02 -5.5759272328702458e-01 +5.6056709294751948e-03
4.1499999999999932e+00 +8.2845231148460172e+00 +0.0000000000000000e+00 +4.1499999634615863e+00 -2.9178145370572513e-02 -5.5761895019595187e-01 +5.6071603997717000e-03
4.1999999999999931e+00 +8.2845115502720379e+00 +0.0000000000000000e+00 +4.1999999621241768e+00 -2.9179380233935695e-02 -5.5764542207265611e-01 +5.6086506217427378e-03
4.2499999999999929e+00 +8.2844998470049678e+00 +0.0000000000000000e+00 +4.2499999607544963e+00 -2.9180626132157009e-02 -5.5767213645748226e-01 +5.6101415388284089e-03
4.2999999999999927e+00 +8.2844880050381633e+00 +0.0000000000000000e+00 +4.2999999593521583e+00 -2.9181883011130921e-02 -5.5769909089077896e-01 +5.6116330944689123e-03
4.3499999999999925e+00 +8.2844760243649187e+00 +0.0000000000000000e+00 +4.3499999579167765e+00 -2.9183150816752740e-02 -5.5772628291289739e-01 +5.6131252321045631e-03
4.3999999999999924e+00 +8.2844639049784732e+00 +0.0000000000000000e+00 +4.3999999564479655e+00 -2.9184429494918677e-02 -5.5775371006419139e-01 +5.6146178951757934e-03
4.4499999999999922e+00 +8.2844516468720055e+00 +0.0000000000000000e+00 +4.4499999549453380e+00 -2.9185718991525795e-02 -5.5778136988501625e-01 +5.6161110271231596e-03
4.4999999999999920e+00 +8.2844392500386359e+00 +0.0000000000000000e+00 +4.4999999534085067e+00 -2.9187019252472076e-02 -5.5780925991573060e-01 +5.6176045713873420e-03
4.5499999999999918e+00 +8.2844267144714276e+00 +0.0000000000000000e+00 +4.5499999518370862e+00 -2.9188330223656404e-02 -5.5783737769669384e-01 +5.6190984714091655e-03
4.5999999999999917e+00 +8.2844140401633872e+00 +0.0000000000000000e+00 +4.5999999502306892e+00 -2.9189651850978542e-02 -5.5786572076826757e-01 +5.6205926706295864e-03
4.6499999999999915e+00 +8.2844012271074661e+00 +0.0000000000000000e+00 +4.6499999485889294e+00 -2.9190984080339221e-02 -5.5789428667081498e-01 +5.6220871124897142e-03
4.6999999999999913e+00 +8.2843882752965605e+00 +0.0000000000000000e+00 +4.6999999469114195e+00 -2.9192326857640064e-02 -5.5792307294470034e-01 +5.6235817404308042e-03
4.7499999999999911e+00 +8.2843751847235101e+00 +0.0000000000000000e+00 +4.7499999451977724e+00 -2.9193680128783678e-02 -5.5795207713028971e-01 +5.6250764978942828e-03
4.7999999999999909e+00 +8.2843619553811028e+00 +0.0000000000000000e+00 +4.7999999434476015e+00 -2.9195043839673588e-02 -5.5798129676794939e-01 +5.6265713283217235e-03
4.8499999999999908e+00 +8.2843485872620697e+00 +0.0000000000000000e+00 +4.8499999416605197e+00 -2.9196417936214303e-02 -5.5801072939804641e-01 +5.6280661751548812e-03
4.8999999999999906e+00 +8.2843350803590905e+00 +0.0000000000000000e+00 +4.8999999398361398e+00 -2.9197802364311319e-02 -5.5804037256094952e-01 +5.6295609818356870e-03
4.9499999999999904e+00 +8.2843214346647951e+00 +0.0000000000000000e+00 +4.9499999379740736e+00 -2.9199197069871084e-02 -5.5807022379702687e-01 +5.6310556918062514e-03
4.9999999999999902e+00 +8.2843076501717565e+00 +0.0000000000000000e+00 +4.9999999360739347e+00 -2.9200601998801073e-02 -5.5810028064664718e-01 +5.6325502485088681e-03
5.0499999999999901e+00 +8.2842937268725017e+00 +0.0000000000000000e+00 +5.0499999341353359e+00 -2.9202017097009744e-02 -5.5813054065017897e-01 +5.6340445953860308e-03
5.0999999999999899e+00 +8.2842796647595041e+00 +0.0000000000000000e+00 +5.0999999321578899e+00 -2.9203442310406599e-02 -5.5816100134799118e-01 +5.6355386758804304e-03
5.1499999999999897e+00 +8.2842654638251876e+00 +0.0000000000000000e+00 +5.1499999301412087e+00 -2.9204877584902134e-02 -5.5819166028045208e-01 +5.6370324334349617e-03
5.1999999999999895e+00 +8.2842511240619263e+00 +0.0000000000000000e+00 +5.1999999280849041e+00 -2.9206322866407911e-02 -5.5822251498792941e-01 +5.6385258114927273e-03
5.2499999999999893e+00 +8.2842366454620482e+00 +0.0000000000000000e+00 +5.2499999259885897e+00 -2.9207778100836516e-02 -5.5825356301079054e-01 +5.6400187534970591e-03
5.2999999999999892e+00 +8.2842220280178296e+00 +0.0000000000000000e+00 +5.2999999238518765e+00 -2.9209243234101605e-02 -5.5828480188940144e-01 +5.6415112028914902e-03
5.3499999999999890e+00 +8.2842072717215025e+00 +0.0000000000000000e+00 +5.3499999216743772e+00 -2.9210718212117889e-02 -5.5831622916412782e-01 +5.6430031031198032e-03
5.3999999999999888e+00 +8.2841923765652510e+00 +0.0000000000000000e+00 +5.3999999194557047e+00 -2.9212202980801193e-02 -5.5834784237533319e-01 +5.6444943976260023e-03
5.4499999999999886e+00 +8.2841773425412111e+00 +0.0000000000000000e+00 +5.4499999171954698e+00 -2.9213697486068401e-02 -5.5837963906338084e-01 +5.6459850298543404e-03
5.4999999999999885e+00 +8.2841621696414762e+00 +0.0000000000000000e+00 +5.4999999148932845e+00 -2.9215201673837496e-02 -5.5841161676863138e-01 +5.6474749432493055e-03
5.5499999999999883e+00 +8.2841468578580919e+00 +0.0000000000000000e+00 +5.5499999125487616e+00 -2.9216715490027575e-02 -5.5844377303144410e-01 +5.6489640812556448e-03
5.5999999999999881e+00 +8.2841314071830627e+00 +0.0000000000000000e+00 +5.5999999101615119e+00 -2.9218238880558856e-02 -5.5847610539217640e-01 +5.6504523873183591e-03
5.6499999999999879e+00 +8.2841158176083454e+00 +0.0000000000000000e+00 +5.6499999077311474e+00 -2.9219771791352697e-02 -5.5850861139118335e-01 +5.6519398048827160e-03
5.6999999999999877e+00 +8.2841000891258556e+00 +0.0000000000000000e+00 +5.6999999052572798e+00 -2.9221314168331576e-02 -5.5854128856881768e-01 +5.6534262773942521e-03
5.7499999999999876e+00 +8.2840842217274684e+00 +0.0000000000000000e+00 +5.7499999027395203e+00 -2.9222865957419141e-02 -5.5857413446542992e-01 +5.6549117482987757e-03
5.7999999999999874e+00 +8.2840682154050125e+00 +0.0000000000000000e+00 +5.7999999001774807e+00 -2.9224427104540183e-02 -5.5860714662136723e-01 +5.6563961610423714e-03
5.8499999999999872e+00 +8.2840520701502793e+00 +0.0000000000000000e+00 +5.8499998975707719e+00 -2.9225997555620685e-02 -5.5864032257697471e-01 +5.6578794590714269e-03
5.8999999999999870e+00 +8.2840357859550160e+00 +0.0000000000000000e+00 +5.8999998949190058e+00 -2.9227577256587804e-02 -5.5867365987259410e-01 +5.6593615858326020e-03
