# multipoles
# s[mm] polynom_b[n=0][T/m^n] polynom_b[n=1][T/m^n] polynom_b[n=2][T/m^n] polynom_b[n=3][T/m^n] polynom_b[n=4][T/m^n] polynom_b[n=5][T/m^n] polynom_b[n=6][T/m^n] 
+0.0000000000000000e+00 -5.7979729180718398e-01 +7.5999237190166795e+00 +5.9222772602648055e+00 -5.6484970944944727e+01 +8.3159719307924079e+03 +1.4717750342018111e+05 -5.3740398296223223e+07 
+5.0000000000000003e-02 -5.7979697520682094e-01 +7.5999177758844167e+00 +5.9191966841950494e+00 -5.6253852928382507e+01 +8.3963715705950453e+03 +1.4562425665139031e+05 -5.4320496428858027e+07 
+1.0000000000000001e-01 -5.7979703459631626e-01 +7.5999331491692379e+00 +5.9152901136356402e+00 -5.6024241369138075e+01 +8.4860128111443391e+03 +1.4405123450625502e+05 -5.4961156790014014e+07 
+1.5000000000000002e-01 -5.7979746944382493e-01 +7.5999697743445020e+00 +5.9105759772317361e+00 -5.5796478527891509e+01 +8.5844739946673999e+03 +1.4246293468007771e+05 -5.5659611714736722e+07 
+2.0000000000000001e-01 -5.7979827921753291e-01 +7.6000275868815645e+00 +5.9050727060472861e+00 -5.5570906534192467e+01 +8.6913333950781343e+03 +1.4086385371734019e+05 -5.6413093063101560e+07 
+2.5000000000000000e-01 -5.7979946338562727e-01 +7.6001065222557944e+00 +5.8987987278450822e+00 -5.5347867673926878e+01 +8.8061693792763672e+03 +1.3925848953946514e+05 -5.7218833338261954e+07 
+2.9999999999999999e-01 -5.7980102141635403e-01 +7.6002065159425731e+00 +5.8917724776234408e+00 -5.5127704196680824e+01 +8.9285601201710488e+03 +1.3765133974378754e+05 -5.8074063738173835e+07 
+3.4999999999999998e-01 -5.7980295277791738e-01 +7.6003275034179003e+00 +5.8840123800853759e+00 -5.4910758344011597e+01 +9.0580840647519908e+03 +1.3604690183998592e+05 -5.8976017296211921e+07 
+3.9999999999999997e-01 -5.7980525693858898e-01 +7.6004694201604348e+00 +5.8755368686991734e+00 -5.4697372454254875e+01 +9.1943194259772263e+03 +1.3444967421080449e+05 -5.9921925475471869e+07 
+4.4999999999999996e-01 -5.7980793336663583e-01 +7.6006322016471968e+00 +5.8663643724744148e+00 -5.4487888766820923e+01 +9.3368445403851729e+03 +1.3286415440153726e+05 -6.0909020584714130e+07 
+4.9999999999999994e-01 -5.7981098153033850e-01 +7.6008157833564054e+00 +5.8565133203280375e+00 -5.4282649534291131e+01 +9.4852377419398763e+03 +1.3129484004880631e+05 -6.1934534896548189e+07 
+5.4999999999999993e-01 -5.7981440089801639e-01 +7.6010201007696221e+00 +5.8460021445749222e+00 -5.4081997135349425e+01 +9.6390772792584412e+03 +1.2974622988919821e+05 -6.2995700133158326e+07 
+5.9999999999999998e-01 -5.7981819093798348e-01 +7.6012450893670600e+00 +5.8348492737461637e+00 -5.3886273850852461e+01 +9.7979414974178108e+03 +1.2822282179411245e+05 -6.4089748644247882e+07 
+6.5000000000000002e-01 -5.7982235111858593e-01 +7.6014906846286152e+00 +5.8230731387531929e+00 -5.3695821937258877e+01 +9.9614086807271451e+03 +1.2672911350028447e+05 -6.5213912382323101e+07 
+7.0000000000000007e-01 -5.7982688090817414e-01 +7.6017568220359770e+00 +5.8106921682371331e+00 -5.3510983678482653e+01 +1.0129057177503240e+04 +1.2526960289273743e+05 -6.6365423746531487e+07 
+7.5000000000000011e-01 -5.7983177977513356e-01 +7.6020434370741050e+00 +5.7977247943437780e+00 -5.3332101486506730e+01 +1.0300465234785222e+04 +1.2384878899534578e+05 -6.7541514423192814e+07 
+8.0000000000000016e-01 -5.7983704718785767e-01 +7.6023504652255722e+00 +5.7841894470132003e+00 -5.3159517640074775e+01 +1.0475211169728324e+04 +1.2247116970105132e+05 -6.8739416616615698e+07 
+8.5000000000000020e-01 -5.7984268261474226e-01 +7.6026778419745948e+00 +5.7701045545402367e+00 -5.2993574460361437e+01 +1.0652873331287168e+04 +1.2114124324751169e+05 -6.9956362696317375e+07 
+9.0000000000000024e-01 -5.7984868552423130e-01 +7.6030255028033427e+00 +5.7554885496700701e+00 -5.2834614153454389e+01 +1.0833029959921720e+04 +1.1986350690267052e+05 -7.1189584343141615e+07 
+9.5000000000000029e-01 -5.7985505538475846e-01 +7.6033933831980081e+00 +5.7403598613453077e+00 -5.2682979068791568e+01 +1.1015259391978307e+04 +1.1864245914393039e+05 -7.2436313864068747e+07 
+1.0000000000000002e+00 -5.7986179166478302e-01 +7.6037814186465518e+00 +5.7247369194377589e+00 -5.2539011601327353e+01 +1.1199139941839159e+04 +1.1748259879544428e+05 -7.3693783427402288e+07 
+1.0500000000000003e+00 -5.7986889383280127e-01 +7.6041895446316081e+00 +5.7086381577792622e+00 -5.2403053903586269e+01 +1.1384249816850941e+04 +1.1638842269820049e+05 -7.4959224481764331e+07 
+1.1000000000000003e+00 -5.7987636135728060e-01 +7.6046176966413652e+00 +5.6920820022385010e+00 -5.2275448321108421e+01 +1.1570167438054777e+04 +1.1536442923776184e+05 -7.6229869913601071e+07 
+1.1500000000000004e+00 -5.7988419370675437e-01 +7.6050658101640449e+00 +5.6750868871681455e+00 -5.2156537184232860e+01 +1.1756470999040708e+04 +1.1441511669597180e+05 -7.7502951080676734e+07 
+1.2000000000000004e+00 -5.7989239034974194e-01 +7.6055338206831262e+00 +5.6576712419269972e+00 -5.2046662599112736e+01 +1.1942738826959101e+04 +1.1354498149464319e+05 -7.8775700240444720e+07 
+1.2500000000000004e+00 -5.7990095075478310e-01 +7.6060216636905444e+00 +5.6398534965194234e+00 -5.1946166991132948e+01 +1.2128549233823491e+04 +1.1275852265378168e+05 -8.0045349559597790e+07 
+1.3000000000000005e+00 -5.7990987439044384e-01 +7.6065292746723507e+00 +5.6216520825120382e+00 -5.1855392522046408e+01 +1.2313480487613593e+04 +1.1206023703206936e+05 -8.1309130897787660e+07 
+1.3500000000000005e+00 -5.7991916072530103e-01 +7.6070565891145261e+00 +5.6030854310316487e+00 -5.1774681317364383e+01 +1.2497110868479154e+04 +1.1145462114009437e+05 -8.2564276204232976e+07 
+1.4000000000000006e+00 -5.7992880922794654e-01 +7.6076035425094650e+00 +5.5841719729280932e+00 -5.1704375752978841e+01 +1.2679018662696355e+04 +1.1094617359155310e+05 -8.3808017463024184e+07 
+1.4500000000000006e+00 -5.7993881936699310e-01 +7.6081700703436708e+00 +5.5649301395470490e+00 -5.1644817923186949e+01 +1.2858782148668915e+04 +1.1053939059979278e+05 -8.5037586630605370e+07 
+1.5000000000000007e+00 -5.7994919061106187e-01 +7.6087561081079684e+00 +5.5453783617979751e+00 -5.1596350078816833e+01 +1.3035979608123303e+04 +1.1023876967480457e+05 -8.6250215654465750e+07 
+1.5500000000000007e+00 -5.7995992242879602e-01 +7.6093615912889190e+00 +5.5255350709498776e+00 -5.1559314273761061e+01 +1.3210189320492751e+04 +1.1004880669927073e+05 -8.7443136497204289e+07 
+1.6000000000000008e+00 -5.7997101428885045e-01 +7.6099864553771495e+00 +5.5054186980719226e+00 -5.1534052700375391e+01 +1.3380989567422501e+04 +1.0997399865653222e+05 -8.8613581127135873e+07 
+1.6500000000000008e+00 -5.7998246565990974e-01 +7.6106306358610682e+00 +5.4850476768925267e+00 -5.1520907429898308e+01 +1.3547958555042962e+04 +1.1001884149820174e+05 -8.9758780988167211e+07 
+1.7000000000000008e+00 -5.7999427601065012e-01 +7.6112940682304133e+00 +5.4644404364583199e+00 -5.1520220572917346e+01 +1.3710674623703018e+04 +1.1018783151691387e+05 -9.0875968467116356e+07 
+1.7500000000000009e+00 -5.8000644480978603e-01 +7.6119766879755009e+00 +5.4436154104301204e+00 -5.1532334222057180e+01 +1.3868715982256679e+04 +1.1048546476627669e+05 -9.1962375034962133e+07 
+1.8000000000000009e+00 -5.8001897152603243e-01 +7.6126784305845927e+00 +5.4225910297241251e+00 -5.1557590378929234e+01 +1.4021660917168125e+04 +1.1091623659811555e+05 -9.3015232706766069e+07 
+1.8500000000000010e+00 -5.8003185562813386e-01 +7.6133992315474757e+00 +5.4013857278679795e+00 -5.1596331069564684e+01 +1.4169087642501332e+04 +1.1148464248981098e+05 -9.4031773001396894e+07 
+1.9000000000000010e+00 -5.8004509658483139e-01 +7.6141390263531905e+00 +5.3800179351679418e+00 -5.1648898267530974e+01 +1.4310574458240508e+04 +1.1219517746321742e+05 -9.5009228016556263e+07 
+1.9500000000000011e+00 -5.8005869386489883e-01 +7.6148977504914699e+00 +5.3585060851811637e+00 -5.1715633944469658e+01 +1.4445699580416638e+04 +1.1305233648474896e+05 -9.5944829304664090e+07 
+2.0000000000000009e+00 -5.8007264693711880e-01 +7.6156753394500383e+00 +5.3368686105304723e+00 -5.1796879979033001e+01 +1.4574041244885866e+04 +1.1406061378429257e+05 -9.6835808529235870e+07 
+2.0500000000000007e+00 -5.8008695498640461e-01 +7.6164717116463470e+00 +5.3151201750950881e+00 -5.1892780294073866e+01 +1.4695282263756832e+04 +1.1522261453742282e+05 -9.7680081579587966e+07 
+2.1000000000000005e+00 -5.8010161606159594e-01 +7.6172867113402081e+00 +5.2932607297860814e+00 -5.2002731762778744e+01 +1.4809521829852109e+04 +1.1653365782267564e+05 -9.8478274345126227e+07 
+2.1500000000000004e+00 -5.8011662792732743e-01 +7.6181201627827111e+00 +5.2712866358934134e+00 -5.2125956107406111e+01 +1.4916963151674179e+04 +1.1798730539436900e+05 -9.9231686198987558e+07 
+2.2000000000000002e+00 -5.8013198834826596e-01 +7.6189718902225216e+00 +5.2491942584397364e+00 -5.2261674922129266e+01 +1.5017809333623167e+04 +1.1957711787459032e+05 -9.9941615795098364e+07 
+2.2500000000000000e+00 -5.8014769508907471e-01 +7.6198417179095275e+00 +5.2269799601368367e+00 -5.2409109849489042e+01 +1.5112263540707912e+04 +1.2129665633106898e+05 -1.0060936219162247e+08 
+2.2999999999999998e+00 -5.8016374591444153e-01 +7.6207294700955517e+00 +5.2046401052511193e+00 -5.2567482582646448e+01 +1.5200528900428073e+04 +1.2313948219768130e+05 -1.0123622421038057e+08 
+2.3499999999999996e+00 -5.8018013858906514e-01 +7.6216349710321767e+00 +5.1821710584018792e+00 -5.2736014796547842e+01 +1.5282808527660844e+04 +1.2509915677274534e+05 -1.0182350057494064e+08 
+2.3999999999999995e+00 -5.8019687087764482e-01 +7.6225580449691677e+00 +5.1595691827168553e+00 -5.2913928081270086e+01 +1.5359305572556968e+04 +1.2716924066846209e+05 -1.0237249023074260e+08 
+2.4499999999999993e+00 -5.8021394054490283e-01 +7.6234985161606108e+00 +5.1368308426444731e+00 -5.3100444176496005e+01 +1.5430223157032702e+04 +1.2934329567579708e+05 -1.0288449195780885e+08 
+2.4999999999999991e+00 -5.8023134535555354e-01 +7.6244562088583603e+00 +5.1139524000117742e+00 -5.3294784731886047e+01 +1.5495764468272464e+04 +1.3161488290006181e+05 -1.0336080496004213e+08 
+2.5499999999999989e+00 -5.8024908307434597e-01 +7.6254309473145296e+00 +5.0909302205259817e+00 -5.3496171387096339e+01 +1.5556132590722162e+04 +1.3397756332417129e+05 -1.0380272775141078e+08 
+2.5999999999999988e+00 -5.8026715146601571e-01 +7.6264225557830025e+00 +5.0677606660412726e+00 -5.3703825839374332e+01 +1.5611530708211767e+04 +1.3642489839602722e+05 -1.0421155950083652e+08 
+2.6499999999999986e+00 -5.8028554829533097e-01 +7.6274308585159210e+00 +5.0444401020110448e+00 -5.3916969708147860e+01 +1.5662161914073791e+04 +1.3895044894397425e+05 -1.0458859879209055e+08 
+2.6999999999999984e+00 -5.8030427132704399e-01 +7.6284556797698952e+00 +5.0209648901034010e+00 -5.4134824784569908e+01 +1.5708229392653833e+04 +1.4154777719919669e+05 -1.0493514477936715e+08 
+2.7499999999999982e+00 -5.8032331832593720e-01 +7.6294968437960584e+00 +4.9973313943271283e+00 -5.4356612620425551e+01 +1.5749936278007663e+04 +1.4421044342168703e+05 -1.0525249632640785e+08 
+2.7999999999999980e+00 -5.8034268705678604e-01 +7.6305541748512233e+00 +4.9735359771756400e+00 -5.4581554994748849e+01 +1.5787485731233948e+04 +1.4693200974260623e+05 -1.0554195242663485e+08 
+2.8499999999999979e+00 -5.8036237528439094e-01 +7.6316274971896405e+00 +4.9495750031877144e+00 -5.4808873559419631e+01 +1.5821080865910382e+04 +1.4970603720185009e+05 -1.0580481178189927e+08 
+2.8999999999999977e+00 -5.8038238077353554e-01 +7.6327166350681992e+00 +4.9254448327821301e+00 -5.5037790083296542e+01 +1.5850924899867285e+04 +1.5252608787854196e+05 -1.0604237377005039e+08 
+2.9499999999999975e+00 -5.8040270128904647e-01 +7.6338214127415656e+00 +4.9011418317009099e+00 -5.5267526221250613e+01 +1.5877220916084045e+04 +1.5538572285351987e+05 -1.0625593689131039e+08 
+2.9999999999999973e+00 -5.8042333459573081e-01 +7.6349416544667701e+00 +4.8766623616896894e+00 -5.5497303727027571e+01 +1.5900172094955142e+04 +1.5827850406576271e+05 -1.0644680026482895e+08 
+3.0499999999999972e+00 -5.8044427845841395e-01 +7.6360771844987871e+00 +4.8520027857150643e+00 -5.5726344252477610e+01 +1.5919981586906730e+04 +1.6119799256758747e+05 -1.0661626281553805e+08 
+3.0999999999999970e+00 -5.8046553064192041e-01 +7.6372278270980463e+00 +4.8271594651553320e+00 -5.5953869672580929e+01 +1.5936852586798019e+04 +1.6413775128169532e+05 -1.0676562377562696e+08 
+3.1499999999999968e+00 -5.8048708891109024e-01 +7.6383934065211267e+00 +4.8021287630316145e+00 -5.6179101695661217e+01 +1.5950988241109955e+04 +1.6709134176140820e+05 -1.0689618203452981e+08 
+3.1999999999999966e+00 -5.8050895103076960e-01 +7.6395737470241105e+00 +4.7769070421954254e+00 -5.6401261997809236e+01 +1.5962591697658536e+04 +1.7005232525826854e+05 -1.0700923647465135e+08 
+3.2499999999999964e+00 -5.8053111476580543e-01 +7.6407686728664297e+00 +4.7514906638882008e+00 -5.6619572399408689e+01 +1.5971866154153155e+04 +1.7301426426927376e+05 -1.0710608634234795e+08 
+3.2999999999999963e+00 -5.8055357788105999e-01 +7.6419780083093238e+00 +4.7258759911116064e+00 -5.6833254778505193e+01 +1.5979014753876705e+04 +1.7597072172743760e+05 -1.0718803048550609e+08 
+3.3499999999999961e+00 -5.8057633814138598e-01 +7.6432015776081386e+00 +4.7000593839349145e+00 -5.7041530775709795e+01 +1.5984240721337832e+04 +1.7891525864670644e+05 -1.0725636831046925e+08 
+3.3999999999999959e+00 -5.8059939331165999e-01 +7.6444392050256367e+00 +4.6740372055534047e+00 -5.7243622324597695e+01 +1.5987747192781275e+04 +1.8184143842593691e+05 -1.0731239860916743e+08 
+3.4499999999999957e+00 -5.8062274115675494e-01 +7.6456907148227549e+00 +4.6478058169209957e+00 -5.7438751276953759e+01 +1.5989737370543000e+04 +1.8474282378238466e+05 -1.0735742064222558e+08 
+3.4999999999999956e+00 -5.8064637944155284e-01 +7.6469559312582867e+00 +4.6213615802922963e+00 -5.7626139408652222e+01 +1.5990414411512427e+04 +1.8761297687580393e+05 -1.0739273331987320e+08 
+3.5499999999999954e+00 -5.8067030593092217e-01 +7.6482346785917139e+00 +4.5947008536668204e+00 -5.7805008503810889e+01 +1.5989981593534130e+04 +1.9044545986503019e+05 -1.0741963639148256e+08 
+3.5999999999999952e+00 -5.8069451838977759e-01 +7.6495267810891665e+00 +4.5678200028855045e+00 -5.7974580632227386e+01 +1.5988641979002774e+04 +1.9323383732410619e+05 -1.0743942813916083e+08 
+3.6499999999999950e+00 -5.8071901458299124e-01 +7.6508320630084139e+00 +4.5407153849979132e+00 -5.8134077509273148e+01 +1.5986598864718810e+04 +1.9597167087374028e+05 -1.0745340840969658e+08 
+3.6999999999999948e+00 -5.8074379227546213e-01 +7.6521503486136737e+00 +4.5133833604953297e+00 -5.8282721114896802e+01 +1.5984055459621943e+04 +1.9865252433113693e+05 -1.0746287647795339e+08 
+3.7499999999999947e+00 -5.8076884923210281e-01 +7.6534814621684415e+00 +4.4858202919490671e+00 -5.8419733408763769e+01 +1.5981214909611994e+04 +2.0126996138127489e+05 -1.0746913116414125e+08 
+3.7999999999999945e+00 -5.8079418321781062e-01 +7.6548252279345972e+00 +4.4580225380754852e+00 -5.8544336271842553e+01 +1.5978280465822392e+04 +2.0381754502625507e+05 -1.0747347200125068e+08 
+3.8499999999999943e+00 -5.8081979199749456e-01 +7.6561814701790247e+00 +4.4299864589833700e+00 -5.8655751795156391e+01 +1.5975455339464101e+04 +2.0628884000833976e+05 -1.0747719824275148e+08 
+3.8999999999999941e+00 -5.8084567333606740e-01 +7.6575500131612699e+00 +4.4017084144549816e+00 -5.8753201773710465e+01 +1.5972942751191817e+04 +2.0867740866959686e+05 -1.0748160920557630e+08 
+3.9499999999999940e+00 -5.8087182499844658e-01 +7.6589306811495605e+00 +4.3731847644229553e+00 -5.8835908357058472e+01 +1.5970945917120715e+04 +2.1097681625493165e+05 -1.0748800417209528e+08 
+3.9999999999999938e+00 -5.8089824474954310e-01 +7.6603232984082883e+00 +4.3444118674445669e+00 -5.8903093535123475e+01 +1.5969668082779046e+04 +2.1318062671636415e+05 -1.0749768259110916e+08 
+4.0499999999999936e+00 -5.8092493026792824e-01 +7.6617276926347682e+00 +4.3153885963921379e+00 -5.8954236392967431e+01 +1.5969248026450527e+04 +2.1528415310208904e+05 -1.0751153075907998e+08 
+4.0999999999999934e+00 -5.8095187888749455e-01 +7.6631436987005612e+00 +4.2861238882634520e+00 -5.8989806338320328e+01 +1.5969575820480279e+04 +2.1728944244362728e+05 -1.0752884356098995e+08 
+4.1499999999999932e+00 -5.8097908785616492e-01 +7.6645711516524839e+00 +4.2566292224362821e+00 -5.9010512602588655e+01 +1.5970481464509894e+04 +2.1920016371019318e+05 -1.0754853208121613e+08 
+4.1999999999999931e+00 -5.8100655442186144e-01 +7.6660098865363748e+00 +4.2269160780647859e+00 -5.9017064388019122e+01 +1.5971794960494604e+04 +2.2101998557622067e+05 -1.0756950739211784e+08 
+4.2499999999999929e+00 -5.8103427583252221e-01 +7.6674597383984411e+00 +4.1969959367389027e+00 -5.9010170909060861e+01 +1.5973346248395741e+04 +2.2275257678223745e+05 -1.0759068016188002e+08 
+4.2999999999999927e+00 -5.8106224933608108e-01 +7.6689205422831055e+00 +4.1668802787685655e+00 -5.8990541311488101e+01 +1.5974965305420088e+04 +2.2440160550083654e+05 -1.0761096131807850e+08 
+4.3499999999999925e+00 -5.8109047218046506e-01 +7.6703921332365255e+00 +4.1365805833542391e+00 -5.8958884810853334e+01 +1.5976482136246392e+04 +2.2597074044231843e+05 -1.0762926196260591e+08 
+4.3999999999999924e+00 -5.8111894161361588e-01 +7.6718743463027259e+00 +4.1061083316580342e+00 -5.8915910534907766e+01 +1.5977726697129832e+04 +2.2746364956508437e+05 -1.0764449288475677e+08 
+4.4499999999999922e+00 -5.8114765488346998e-01 +7.6733670165236934e+00 +4.0754750045657770e+00 -5.8862327543645634e+01 +1.5978528947534051e+04 +2.2888400030636997e+05 -1.0765556487982842e+08 
+4.4999999999999920e+00 -5.8117660923796999e-01 +7.6748699789433950e+00 +4.0446920828499096e+00 -5.8798844962946660e+01 +1.5978718858140008e+04 +2.3023546054678742e+05 -1.0766138884375495e+08 
+4.5499999999999918e+00 -5.8120580192503846e-01 +7.6763830686051628e+00 +4.0137710445611088e+00 -5.8726171913512502e+01 +1.5978126468823068e+04 +2.3152169817818102e+05 -1.0766087612509085e+08 
+4.5999999999999917e+00 -5.8123523019263779e-01 +7.6779061205500083e+00 +3.9827233741678838e+00 -5.8645017403188881e+01 +1.5976581650577640e+04 +2.3274638005229566e+05 -1.0765293694338989e+08 
+4.6499999999999915e+00 -5.8126489128869929e-01 +7.6794389698195582e+00 +3.9515605511479550e+00 -5.8556090500157410e+01 +1.5973914407537834e+04 +2.3391317362862686e+05 -1.0763648241139801e+08 
+4.6999999999999913e+00 -5.8129478246116406e-01 +7.6809814514555033e+00 +3.9202940562196980e+00 -5.8460100252759183e+01 +1.5969954717034361e+04 +2.3502574605233720e+05 -1.0761042348332264e+08 
+4.7499999999999911e+00 -5.8132490095797640e-01 +7.6825334004968147e+00 +3.8889353713236980e+00 -5.8357755608292869e+01 +1.5964532517827496e+04 +2.3608776365433671e+05 -1.0757367082693708e+08 
+4.7999999999999909e+00 -5.8135524402707528e-01 +7.6840946519810984e+00 +3.8574959773101880e+00 -5.8249765477633034e+01 +1.5957477784999364e+04 +2.3710289249277322e+05 -1.0752513538336462e+08 
+4.8499999999999908e+00 -5.8138580891640224e-01 +7.6856650409483009e+00 +3.8259873554984374e+00 -5.8136838855720057e+01 +1.5948620480638763e+04 +2.3807479921880015e+05 -1.0746372799742104e+08 
+4.8999999999999906e+00 -5.8141659287390590e-01 +7.6872444024372184e+00 +3.7944209894054448e+00 -5.8019684721141715e+01 +1.5937790506178368e+04 +2.3900715042994602e+05 -1.0738835910125977e+08 
+4.9499999999999904e+00 -5.8144759314751326e-01 +7.6888325714842347e+00 +3.7628083580176472e+00 -5.7899011929622546e+01 +1.5924817892653035e+04 +2.3990361156206246e+05 -1.0729794002357455e+08 
+4.9999999999999902e+00 -5.8147880698516907e-01 +7.6904293831235435e+00 +3.7311609446936838e+00 -5.7775529280140084e+01 +1.5909532549771344e+04 +2.4076784766257301e+05 -1.0719138126150125e+08 
+5.0499999999999901e+00 -5.8151023163480708e-01 +7.6920346723927713e+00 +3.6994902306909605e+00 -5.7649945691201339e+01 +1.5891764447286379e+04 +2.4160352461612585e+05 -1.0706759372565742e+08 
