# field on trajectory
# s[mm] rx[mm] ry[mm] rz[mm] bx[T] by[T] bz[T]
0.0000000000000000e+00 +8.3650000000000002e+00 +0.0000000000000000e+00 +0.0000000000000000e+00 -2.8748033558322464e-02 -5.5213965228541662e-01 +5.3268676462759077e-03
5.0000000000000003e-02 +8.3649999309619787e+00 +0.0000000000000000e+00 +4.9999999999936449e-02 -2.8748204577409359e-02 -5.5213811391379075e-01 +5.3276737529987248e-03
1.0000000000000001e-01 +8.3649997238481575e+00 +0.0000000000000000e+00 +9.9999999999491607e-02 -2.8748395219214132e-02 -5.5213693915666462e-01 +5.3284886220902545e-03
1.5000000000000002e-01 +8.3649993786588297e+00 +0.0000000000000000e+00 +1.4999999999828417e-01 -2.8748605330406633e-02 -5.5213612755604480e-01 +5.3293121808364397e-03
2.0000000000000001e-01 +8.3649988953941978e+00 +0.0000000000000000e+00 +1.9999999999593285e-01 -2.8748834757658069e-02 -5.5213567865395485e-01 +5.3301443565237265e-03
2.5000000000000000e-01 +8.3649982740543756e+00 +0.0000000000000000e+00 +2.4999999999205633e-01 -2.8749083347640994e-02 -5.5213559199243367e-01 +5.3309850764390564e-03
2.9999999999999999e-01 +8.3649975146393842e+00 +0.0000000000000000e+00 +2.9999999998627336e-01 -2.8749350947029247e-02 -5.5213586711353746e-01 +5.3318342678698406e-03
3.4999999999999998e-01 +8.3649966171491545e+00 +0.0000000000000000e+00 +3.4999999997820258e-01 -2.8749637402497887e-02 -5.5213650355933752e-01 +5.3326918581039556e-03
3.9999999999999997e-01 +8.3649955815835266e+00 +0.0000000000000000e+00 +3.9999999996746272e-01 -2.8749942560723260e-02 -5.5213750087192248e-01 +5.3335577744297105e-03
4.4999999999999996e-01 +8.3649944079422518e+00 +0.0000000000000000e+00 +4.4999999995367251e-01 -2.8750266268382882e-02 -5.5213885859339629e-01 +5.3344319441358439e-03
4.9999999999999994e-01 +8.3649930962249908e+00 +0.0000000000000000e+00 +4.9999999993645061e-01 -2.8750608372155449e-02 -5.5214057626587876e-01 +5.3353142945114923e-03
5.4999999999999993e-01 +8.3649916464313137e+00 +0.0000000000000000e+00 +5.4999999991541570e-01 -2.8750968718720789e-02 -5.5214265343150681e-01 +5.3362047528461984e-03
5.9999999999999998e-01 +8.3649900585607018e+00 +0.0000000000000000e+00 +5.9999999989018649e-01 -2.8751347154759837e-02 -5.5214508963243214e-01 +5.3371032464298550e-03
6.5000000000000002e-01 +8.3649883326125458e+00 +0.0000000000000000e+00 +6.4999999986038159e-01 -2.8751743526954601e-02 -5.5214788441082341e-01 +5.3380097025527290e-03
7.0000000000000007e-01 +8.3649864685861459e+00 +0.0000000000000000e+00 +6.9999999982561978e-01 -2.8752157681988164e-02 -5.5215103730886528e-01 +5.3389240485054159e-03
7.5000000000000011e-01 +8.3649844664807134e+00 +0.0000000000000000e+00 +7.4999999978551968e-01 -2.8752589466544583e-02 -5.5215454786875784e-01 +5.3398462115788331e-03
8.0000000000000016e-01 +8.3649823262953724e+00 +0.0000000000000000e+00 +7.9999999973969982e-01 -2.8753038727308940e-02 -5.5215841563271761e-01 +5.3407761190642118e-03
8.5000000000000020e-01 +8.3649800480291532e+00 +0.0000000000000000e+00 +8.4999999968777895e-01 -2.8753505310967247e-02 -5.5216264014297678e-01 +5.3417136982530575e-03
9.0000000000000024e-01 +8.3649776316810005e+00 +0.0000000000000000e+00 +8.9999999962937571e-01 -2.8753989064206457e-02 -5.5216722094178317e-01 +5.3426588764371513e-03
9.5000000000000029e-01 +8.3649750772497704e+00 +0.0000000000000000e+00 +9.4999999956410863e-01 -2.8754489833714373e-02 -5.5217215757140137e-01 +5.3436115809085277e-03
1.0000000000000002e+00 +8.3649723847342266e+00 +0.0000000000000000e+00 +9.9999999949159635e-01 -2.8755007466179726e-02 -5.5217744957411086e-01 +5.3445717389594650e-03
1.0500000000000003e+00 +8.3649695541330455e+00 +0.0000000000000000e+00 +1.0499999994114575e+00 -2.8755541808292043e-02 -5.5218309649220787e-01 +5.3455392778824461e-03
1.1000000000000003e+00 +8.3649665854448152e+00 +0.0000000000000000e+00 +1.0999999993233105e+00 -2.8756092706741645e-02 -5.5218909786800363e-01 +5.3465141249701654e-03
1.1500000000000004e+00 +8.3649634786680362e+00 +0.0000000000000000e+00 +1.1499999992267740e+00 -2.8756660008219644e-02 -5.5219545324382546e-01 +5.3474962075155050e-03
1.2000000000000004e+00 +8.3649602338011189e+00 +0.0000000000000000e+00 +1.1999999991214665e+00 -2.8757243559417868e-02 -5.5220216216201645e-01 +5.3484854528115027e-03
1.2500000000000004e+00 +8.3649568508423844e+00 +0.0000000000000000e+00 +1.2499999990070065e+00 -2.8757843207028875e-02 -5.5220922416493612e-01 +5.3494817881513659e-03
1.3000000000000005e+00 +8.3649533297900671e+00 +0.0000000000000000e+00 +1.2999999988830127e+00 -2.8758458797745908e-02 -5.5221663879495797e-01 +5.3504851408284178e-03
1.3500000000000005e+00 +8.3649496706423125e+00 +0.0000000000000000e+00 +1.3499999987491031e+00 -2.8759090178262833e-02 -5.5222440559447317e-01 +5.3514954381361154e-03
1.4000000000000006e+00 +8.3649458733971791e+00 +0.0000000000000000e+00 +1.3999999986048965e+00 -2.8759737195274148e-02 -5.5223252410588719e-01 +5.3525126073679999e-03
1.4500000000000006e+00 +8.3649419380526364e+00 +0.0000000000000000e+00 +1.4499999984500114e+00 -2.8760399695474927e-02 -5.5224099387162184e-01 +5.3535365758177085e-03
1.5000000000000007e+00 +8.3649378646065671e+00 +0.0000000000000000e+00 +1.4999999982840659e+00 -2.8761077525560824e-02 -5.5224981443411425e-01 +5.3545672707789411e-03
1.5500000000000007e+00 +8.3649336530567648e+00 +0.0000000000000000e+00 +1.5499999981066785e+00 -2.8761770532228007e-02 -5.5225898533581752e-01 +5.3556046195454418e-03
1.6000000000000008e+00 +8.3649293034009364e+00 +0.0000000000000000e+00 +1.5999999979174675e+00 -2.8762478562173104e-02 -5.5226850611919942e-01 +5.3566485494109910e-03
1.6500000000000008e+00 +8.3649248156366998e+00 +0.0000000000000000e+00 +1.6499999977160513e+00 -2.8763201462093269e-02 -5.5227837632674448e-01 +5.3576989876693857e-03
1.7000000000000008e+00 +8.3649201897615875e+00 +0.0000000000000000e+00 +1.6999999975020483e+00 -2.8763939078686053e-02 -5.5228859550095222e-01 +5.3587558616144193e-03
1.7500000000000009e+00 +8.3649154257730451e+00 +0.0000000000000000e+00 +1.7499999972750766e+00 -2.8764691258649406e-02 -5.5229916318433703e-01 +5.3598190985398638e-03
1.8000000000000009e+00 +8.3649105236684296e+00 +0.0000000000000000e+00 +1.7999999970347544e+00 -2.8765457848681657e-02 -5.5231007891942974e-01 +5.3608886257394579e-03
1.8500000000000010e+00 +8.3649054834450105e+00 +0.0000000000000000e+00 +1.8499999967806999e+00 -2.8766238695481491e-02 -5.5232134224877627e-01 +5.3619643705068876e-03
1.9000000000000010e+00 +8.3649003050999706e+00 +0.0000000000000000e+00 +1.8999999965125314e+00 -2.8767033645747887e-02 -5.5233295271493832e-01 +5.3630462601357695e-03
1.9500000000000011e+00 +8.3648949886304074e+00 +0.0000000000000000e+00 +1.9499999962298671e+00 -2.8767842546180099e-02 -5.5234490986049189e-01 +5.3641342219196298e-03
2.0000000000000009e+00 +8.3648895340333311e+00 +0.0000000000000000e+00 +1.9999999959323249e+00 -2.8768665243477657e-02 -5.5235721322802978e-01 +5.3652281831518952e-03
2.0500000000000007e+00 +8.3648839413056635e+00 +0.0000000000000000e+00 +2.0499999956195230e+00 -2.8769501613180117e-02 -5.5236986214662398e-01 +5.3663280716943268e-03
2.1000000000000005e+00 +8.3648782104442425e+00 +0.0000000000000000e+00 +2.0999999952910793e+00 -2.8770351646186656e-02 -5.5238285509122087e-01 +5.3674338176825220e-03
2.1500000000000004e+00 +8.3648723414458193e+00 +0.0000000000000000e+00 +2.1499999949466120e+00 -2.8771215362236313e-02 -5.5239619032324394e-01 +5.3685453518207190e-03
2.2000000000000002e+00 +8.3648663343070595e+00 +0.0000000000000000e+00 +2.1999999945857391e+00 -2.8772092781068171e-02 -5.5240986610413101e-01 +5.3696626048133833e-03
2.2500000000000000e+00 +8.3648601890245420e+00 +0.0000000000000000e+00 +2.2499999942080784e+00 -2.8772983922421252e-02 -5.5242388069533110e-01 +5.3707855073651988e-03
2.2999999999999998e+00 +8.3648539055947637e+00 +0.0000000000000000e+00 +2.2999999938132474e+00 -2.8773888806034514e-02 -5.5243823235830691e-01 +5.3719139901810889e-03
2.3499999999999996e+00 +8.3648474840141347e+00 +0.0000000000000000e+00 +2.3499999934008646e+00 -2.8774807451646785e-02 -5.5245291935453233e-01 +5.3730479839662034e-03
2.3999999999999995e+00 +8.3648409242789814e+00 +0.0000000000000000e+00 +2.3999999929705473e+00 -2.8775739878996801e-02 -5.5246793994549515e-01 +5.3741874194259392e-03
2.4499999999999993e+00 +8.3648342263855486e+00 +0.0000000000000000e+00 +2.4499999925219136e+00 -2.8776686107823062e-02 -5.5248329239269378e-01 +5.3753322272659370e-03
2.4999999999999991e+00 +8.3648273903299977e+00 +0.0000000000000000e+00 +2.4999999920545810e+00 -2.8777646157863851e-02 -5.5249897495763911e-01 +5.3764823381920847e-03
2.5499999999999989e+00 +8.3648204161084063e+00 +0.0000000000000000e+00 +2.5499999915681673e+00 -2.8778620048857215e-02 -5.5251498590185399e-01 +5.3776376829105296e-03
2.5999999999999988e+00 +8.3648133037167707e+00 +0.0000000000000000e+00 +2.5999999910622904e+00 -2.8779607800540879e-02 -5.5253132348687217e-01 +5.3787981921276685e-03
2.6499999999999986e+00 +8.3648060531510051e+00 +0.0000000000000000e+00 +2.6499999905365677e+00 -2.8780609432652222e-02 -5.5254798597424004e-01 +5.3799637965501754e-03
2.6999999999999984e+00 +8.3647986644069423e+00 +0.0000000000000000e+00 +2.6999999899906162e+00 -2.8781624964928320e-02 -5.5256497162551421e-01 +5.3811344268849858e-03
2.7499999999999982e+00 +8.3647911374803368e+00 +0.0000000000000000e+00 +2.7499999894240541e+00 -2.8782654417105754e-02 -5.5258227870226306e-01 +5.3823100138393112e-03
2.7999999999999980e+00 +8.3647834723668577e+00 +0.0000000000000000e+00 +2.7999999888364986e+00 -2.8783697808920688e-02 -5.5259990546606530e-01 +5.3834904881206389e-03
2.8499999999999979e+00 +8.3647756690620998e+00 +0.0000000000000000e+00 +2.8499999882275668e+00 -2.8784755160108817e-02 -5.5261785017851106e-01 +5.3846757804367493e-03
2.8999999999999977e+00 +8.3647677275615742e+00 +0.0000000000000000e+00 +2.8999999875968765e+00 -2.8785826490405276e-02 -5.5263611110120103e-01 +5.3858658214956954e-03
2.9499999999999975e+00 +8.3647596478607138e+00 +0.0000000000000000e+00 +2.9499999869440447e+00 -2.8786911819544674e-02 -5.5265468649574601e-01 +5.3870605420058369e-03
2.9999999999999973e+00 +8.3647514299548753e+00 +0.0000000000000000e+00 +2.9999999862686892e+00 -2.8788011167261002e-02 -5.5267357462376721e-01 +5.3882598726758260e-03
3.0499999999999972e+00 +8.3647430738393336e+00 +0.0000000000000000e+00 +3.0499999855704267e+00 -2.8789124553287623e-02 -5.5269277374689652e-01 +5.3894637442146185e-03
3.0999999999999970e+00 +8.3647345795092889e+00 +0.0000000000000000e+00 +3.0999999848488744e+00 -2.8790251997357203e-02 -5.5271228212677537e-01 +5.3906720873314763e-03
3.1499999999999968e+00 +8.3647259469598616e+00 +0.0000000000000000e+00 +3.1499999841036495e+00 -2.8791393519201729e-02 -5.5273209802505519e-01 +5.3918848327359787e-03
3.1999999999999966e+00 +8.3647171761860974e+00 +0.0000000000000000e+00 +3.1999999833343686e+00 -2.8792549138552413e-02 -5.5275221970339694e-01 +5.3931019111380148e-03
3.2499999999999964e+00 +8.3647082671829640e+00 +0.0000000000000000e+00 +3.2499999825406496e+00 -2.8793718875139686e-02 -5.5277264542347149e-01 +5.3943232532478042e-03
3.2999999999999963e+00 +8.3646992199453525e+00 +0.0000000000000000e+00 +3.2999999817221086e+00 -2.8794902748693157e-02 -5.5279337344695856e-01 +5.3955487897758836e-03
3.3499999999999961e+00 +8.3646900344680812e+00 +0.0000000000000000e+00 +3.3499999808783629e+00 -2.8796100778941562e-02 -5.5281440203554755e-01 +5.3967784514331318e-03
3.3999999999999959e+00 +8.3646807107458905e+00 +0.0000000000000000e+00 +3.3999999800090293e+00 -2.8797312985612753e-02 -5.5283572945093662e-01 +5.3980121689307563e-03
3.4499999999999957e+00 +8.3646712487734476e+00 +0.0000000000000000e+00 +3.4499999791137239e+00 -2.8798539388433630e-02 -5.5285735395483293e-01 +5.3992498729803079e-03
3.4999999999999956e+00 +8.3646616485453453e+00 +0.0000000000000000e+00 +3.4999999781920641e+00 -2.8799780007130116e-02 -5.5287927380895263e-01 +5.4004914942936862e-03
3.5499999999999954e+00 +8.3646519100561001e+00 +0.0000000000000000e+00 +3.5499999772436666e+00 -2.8801034861427120e-02 -5.5290148727502009e-01 +5.4017369635831402e-03
3.5999999999999952e+00 +8.3646420333001590e+00 +0.0000000000000000e+00 +3.5999999762681476e+00 -2.8802303971048514e-02 -5.5292399261476821e-01 +5.4029862115612722e-03
3.6499999999999950e+00 +8.3646320182718927e+00 +0.0000000000000000e+00 +3.6499999752651240e+00 -2.8803587355717059e-02 -5.5294678808993780e-01 +5.4042391689410494e-03
3.6999999999999948e+00 +8.3646218649656028e+00 +0.0000000000000000e+00 +3.6999999742342120e+00 -2.8804885035154406e-02 -5.5296987196227865e-01 +5.4054957664358017e-03
3.7499999999999947e+00 +8.3646115733755142e+00 +0.0000000000000000e+00 +3.7499999731750280e+00 -2.8806197029081028e-02 -5.5299324249354787e-01 +5.4067559347592345e-03
3.7999999999999945e+00 +8.3646011434957845e+00 +0.0000000000000000e+00 +3.7999999720871882e+00 -2.8807523357216199e-02 -5.5301689794551001e-01 +5.4080196046254166e-03
3.8499999999999943e+00 +8.3645905753204985e+00 +0.0000000000000000e+00 +3.8499999709703090e+00 -2.8808864039277959e-02 -5.5304083657993830e-01 +5.4092867067488054e-03
3.8999999999999941e+00 +8.3645798688436681e+00 +0.0000000000000000e+00 +3.8999999698240067e+00 -2.8810219094983040e-02 -5.5306505665861239e-01 +5.4105571718442462e-03
3.9499999999999940e+00 +8.3645690240592376e+00 +0.0000000000000000e+00 +3.9499999686478970e+00 -2.8811588544046918e-02 -5.5308955644331992e-01 +5.4118309306269664e-03
3.9999999999999938e+00 +8.3645580409610805e+00 +0.0000000000000000e+00 +3.9999999674415965e+00 -2.8812972406183652e-02 -5.5311433419585521e-01 +5.4131079138125902e-03
4.0499999999999936e+00 +8.3645469195430007e+00 +0.0000000000000000e+00 +4.0499999662047212e+00 -2.8814370688097224e-02 -5.5313938804142737e-01 +5.4143880503491892e-03
4.0999999999999934e+00 +8.3645356597987313e+00 +0.0000000000000000e+00 +4.0999999649368872e+00 -2.8815783344456534e-02 -5.5316471555888036e-01 +5.4156712621131900e-03
4.1499999999999932e+00 +8.3645242617219413e+00 +0.0000000000000000e+00 +4.1499999636377094e+00 -2.8817210316923737e-02 -5.5319031419046782e-01 +5.4169574692128648e-03
4.1999999999999931e+00 +8.3645127253062270e+00 +0.0000000000000000e+00 +4.1999999623068049e+00 -2.8818651547163572e-02 -5.5321618137844586e-01 +5.4182465917562254e-03
4.2499999999999929e+00 +8.3645010505451207e+00 +0.0000000000000000e+00 +4.2499999609437884e+00 -2.8820106976843295e-02 -5.5324231456507178e-01 +5.4195385498510057e-03
4.2999999999999927e+00 +8.3644892374320872e+00 +0.0000000000000000e+00 +4.2999999595482761e+00 -2.8821576547632868e-02 -5.5326871119260512e-01 +5.4208332636046441e-03
4.3499999999999925e+00 +8.3644772859605254e+00 +0.0000000000000000e+00 +4.3499999581198834e+00 -2.8823060201204904e-02 -5.5329536870330598e-01 +5.4221306531242767e-03
4.3999999999999924e+00 +8.3644651961237706e+00 +0.0000000000000000e+00 +4.3999999566582257e+00 -2.8824557879234929e-02 -5.5332228453943644e-01 +5.4234306385167099e-03
4.4499999999999922e+00 +8.3644529679150903e+00 +0.0000000000000000e+00 +4.4499999551629186e+00 -2.8826069523401308e-02 -5.5334945614325848e-01 +5.4247331398884205e-03
4.4999999999999920e+00 +8.3644406013276900e+00 +0.0000000000000000e+00 +4.4999999536335782e+00 -2.8827595075385369e-02 -5.5337688095703397e-01 +5.4260380773455252e-03
4.5499999999999918e+00 +8.3644280963547111e+00 +0.0000000000000000e+00 +4.5499999520698191e+00 -2.8829134476871528e-02 -5.5340455642302633e-01 +5.4273453709937783e-03
4.5999999999999917e+00 +8.3644154529892347e+00 +0.0000000000000000e+00 +4.5999999504712559e+00 -2.8830687669547328e-02 -5.5343247998349798e-01 +5.4286549409385499e-03
4.6499999999999915e+00 +8.3644026712242763e+00 +0.0000000000000000e+00 +4.6499999488375048e+00 -2.8832254595103499e-02 -5.5346064908071069e-01 +5.4299667072848067e-03
4.6999999999999913e+00 +8.3643897510527925e+00 +0.0000000000000000e+00 +4.6999999471681804e+00 -2.8833835195234112e-02 -5.5348906115692575e-01 +5.4312805901371086e-03
4.7499999999999911e+00 +8.3643766924676779e+00 +0.0000000000000000e+00 +4.7499999454628981e+00 -2.8835429411636564e-02 -5.5351771365440339e-01 +5.4325965095995844e-03
4.7999999999999909e+00 +8.3643634954617667e+00 +0.0000000000000000e+00 +4.7999999437212724e+00 -2.8837037186011733e-02 -5.5354660401540234e-01 +5.4339143857759188e-03
4.8499999999999908e+00 +8.3643501600278345e+00 +0.0000000000000000e+00 +4.8499999419429187e+00 -2.8838658460064035e-02 -5.5357572968217994e-01 +5.4352341387693386e-03
4.8999999999999906e+00 +8.3643366861585982e+00 +0.0000000000000000e+00 +4.8999999401274517e+00 -2.8840293175501491e-02 -5.5360508809699127e-01 +5.4365556886826006e-03
4.9499999999999904e+00 +8.3643230738467160e+00 +0.0000000000000000e+00 +4.9499999382744857e+00 -2.8841941274035797e-02 -5.5363467670208977e-01 +5.4378789556179651e-03
4.9999999999999902e+00 +8.3643093230847896e+00 +0.0000000000000000e+00 +4.9999999363836354e+00 -2.8843602697382457e-02 -5.5366449293972553e-01 +5.4392038596771941e-03
5.0499999999999901e+00 +8.3642954338653634e+00 +0.0000000000000000e+00 +5.0499999344545152e+00 -2.8845277387260813e-02 -5.5369453425214665e-01 +5.4405303209615306e-03
5.0999999999999899e+00 +8.3642814061809236e+00 +0.0000000000000000e+00 +5.0999999324867398e+00 -2.8846965285394141e-02 -5.5372479808159769e-01 +5.4418582595716809e-03
5.1499999999999897e+00 +8.3642672400239011e+00 +0.0000000000000000e+00 +5.1499999304799235e+00 -2.8848666333509722e-02 -5.5375528187031986e-01 +5.4431875956078022e-03
5.1999999999999895e+00 +8.3642529353866752e+00 +0.0000000000000000e+00 +5.1999999284336811e+00 -2.8850380473338943e-02 -5.5378598306055060e-01 +5.4445182491694869e-03
5.2499999999999893e+00 +8.3642384922615669e+00 +0.0000000000000000e+00 +5.2499999263476269e+00 -2.8852107646617369e-02 -5.5381689909452447e-01 +5.4458501403557508e-03
5.2999999999999892e+00 +8.3642239106408454e+00 +0.0000000000000000e+00 +5.2999999242213747e+00 -2.8853847795084816e-02 -5.5384802741446970e-01 +5.4471831892650155e-03
5.3499999999999890e+00 +8.3642091905167266e+00 +0.0000000000000000e+00 +5.3499999220545380e+00 -2.8855600860485428e-02 -5.5387936546261229e-01 +5.4485173159950885e-03
5.3999999999999888e+00 +8.3641943318813734e+00 +0.0000000000000000e+00 +5.3999999198467314e+00 -2.8857366784567753e-02 -5.5391091068117160e-01 +5.4498524406431546e-03
5.4499999999999886e+00 +8.3641793347268987e+00 +0.0000000000000000e+00 +5.4499999175975686e+00 -2.8859145509084850e-02 -5.5394266051236263e-01 +5.4511884833057583e-03
5.4999999999999885e+00 +8.3641641990453621e+00 +0.0000000000000000e+00 +5.4999999153066641e+00 -2.8860936975794366e-02 -5.5397461239839541e-01 +5.4525253640787929e-03
5.5499999999999883e+00 +8.3641489248287737e+00 +0.0000000000000000e+00 +5.5499999129736315e+00 -2.8862741126458549e-02 -5.5400676378147329e-01 +5.4538630030574707e-03
5.5999999999999881e+00 +8.3641335120690918e+00 +0.0000000000000000e+00 +5.5999999105980836e+00 -2.8864557902844448e-02 -5.5403911210379442e-01 +5.4552013203363302e-03
5.6499999999999879e+00 +8.3641179607582288e+00 +0.0000000000000000e+00 +5.6499999081796348e+00 -2.8866387246723892e-02 -5.5407165480755027e-01 +5.4565402360092028e-03
5.6999999999999877e+00 +8.3641022708880453e+00 +0.0000000000000000e+00 +5.6999999057178989e+00 -2.8868229099873601e-02 -5.5410438933492578e-01 +5.4578796701692132e-03
5.7499999999999876e+00 +8.3640864424503558e+00 +0.0000000000000000e+00 +5.7499999032124887e+00 -2.8870083404075257e-02 -5.5413731312809911e-01 +5.4592195429087340e-03
5.7999999999999874e+00 +8.3640704754369288e+00 +0.0000000000000000e+00 +5.7999999006630176e+00 -2.8871950101115641e-02 -5.5417042362924163e-01 +5.4605597743194196e-03
5.8499999999999872e+00 +8.3640543698394829e+00 +0.0000000000000000e+00 +5.8499998980690986e+00 -2.8873829132786629e-02 -5.5420371828051629e-01 +5.4619002844921421e-03
5.8999999999999870e+00 +8.3640381256496923e+00 +0.0000000000000000e+00 +5.8999998954303452e+00 -2.8875720440885332e-02 -5.5423719452407949e-01 +5.4632409935170077e-03
