# field on trajectory
# s[mm] rx[mm] ry[mm] rz[mm] bx[T] by[T] bz[T]
0.0000000000000000e+00 +8.5269999999999992e+00 +0.0000000000000000e+00 +0.0000000000000000e+00 -2.8177316045899320e-02 -5.2383524679266147e-01 +4.8314436683179968e-03
-5.0000000000000003e-02 +8.5269999309545170e+00 +0.0000000000000000e+00 -4.9999999999936436e-02 -2.8176757906193301e-02 -5.2383656911663856e-01 +4.8314430955108357e-03
-1.0000000000000001e-01 +8.5269997238178235e+00 +0.0000000000000000e+00 -9.9999999999491496e-02 -2.8176222339876912e-02 -5.2383824621174924e-01 +4.8314490236744225e-03
-1.5000000000000002e-01 +8.5269993785894762e+00 +0.0000000000000000e+00 -1.4999999999828378e-01 -2.8175709107248370e-02 -5.2384027750944151e-01 +4.8314614053456073e-03
-2.0000000000000001e-01 +8.5269988952689388e+00 +0.0000000000000000e+00 -1.9999999999593190e-01 -2.8175217968606878e-02 -5.2384266244117939e-01 +4.8314801930615207e-03
-2.5000000000000000e-01 +8.5269982738555825e+00 +0.0000000000000000e+00 -2.4999999999205447e-01 -2.8174748684252616e-02 -5.2384540043844285e-01 +4.8315053393595767e-03
-2.9999999999999999e-01 +8.5269975143486860e+00 +0.0000000000000000e+00 -2.9999999998627003e-01 -2.8174301014486758e-02 -5.2384849093272834e-01 +4.8315367967774608e-03
-3.4999999999999998e-01 +8.5269966167474358e+00 +0.0000000000000000e+00 -3.4999999997819725e-01 -2.8173874719611389e-02 -5.2385193335554769e-01 +4.8315745178531197e-03
-3.9999999999999997e-01 +8.5269955810509224e+00 +0.0000000000000000e+00 -3.9999999996745467e-01 -2.8173469559929533e-02 -5.2385572713842909e-01 +4.8316184551247653e-03
-4.4999999999999996e-01 +8.5269944072581474e+00 +0.0000000000000000e+00 -4.4999999995366086e-01 -2.8173085295745054e-02 -5.2385987171291570e-01 +4.8316685611308570e-03
-4.9999999999999994e-01 +8.5269930953680184e+00 +0.0000000000000000e+00 -4.9999999993643440e-01 -2.8172721687362734e-02 -5.2386436651056700e-01 +4.8317247884100897e-03
-5.4999999999999993e-01 +8.5269916453793488e+00 +0.0000000000000000e+00 -5.4999999991539383e-01 -2.8172378495088159e-02 -5.2386921096295846e-01 +4.8317870895014077e-03
-5.9999999999999998e-01 +8.5269900572908632e+00 +0.0000000000000000e+00 -5.9999999989015773e-01 -2.8172055479227756e-02 -5.2387440450168077e-01 +4.8318554169439693e-03
-6.5000000000000002e-01 +8.5269883311011920e+00 +0.0000000000000000e+00 -6.4999999986034451e-01 -2.8171752400088727e-02 -5.2387994655833958e-01 +4.8319297232771652e-03
-7.0000000000000007e-01 +8.5269864668088733e+00 +0.0000000000000000e+00 -6.9999999982557271e-01 -2.8171469017979029e-02 -5.2388583656455723e-01 +4.8320099610405943e-03
-7.5000000000000011e-01 +8.5269844644123562e+00 +0.0000000000000000e+00 -7.4999999978546084e-01 -2.8171205093207412e-02 -5.2389207395197124e-01 +4.8320960827740629e-03
-8.0000000000000016e-01 +8.5269823239099942e+00 +0.0000000000000000e+00 -7.9999999973962743e-01 -2.8170960386083289e-02 -5.2389865815223380e-01 +4.8321880410175742e-03
-8.5000000000000020e-01 +8.5269800453000535e+00 +0.0000000000000000e+00 -8.4999999968769091e-01 -2.8170734656916809e-02 -5.2390558859701331e-01 +4.8322857883113281e-03
-9.0000000000000024e-01 +8.5269776285807062e+00 +0.0000000000000000e+00 -8.9999999962926969e-01 -2.8170527666018755e-02 -5.2391286471799325e-01 +4.8323892771956999e-03
-9.5000000000000029e-01 +8.5269750737500356e+00 +0.0000000000000000e+00 -9.4999999956398218e-01 -2.8170339173700584e-02 -5.2392048594687168e-01 +4.8324984602112538e-03
-1.0000000000000002e+00 +8.5269723808060309e+00 +0.0000000000000000e+00 -9.9999999949144680e-01 -2.8170168940274378e-02 -5.2392845171536295e-01 +4.8326132898987113e-03
-1.0500000000000003e+00 +8.5269695497465925e+00 +0.0000000000000000e+00 -1.0499999994112819e+00 -2.8170016726052783e-02 -5.2393676145519597e-01 +4.8327337187989662e-03
-1.1000000000000003e+00 +8.5269665805695318e+00 +0.0000000000000000e+00 -1.0999999993231058e+00 -2.8169882291349070e-02 -5.2394541459811494e-01 +4.8328596994530616e-03
-1.1500000000000004e+00 +8.5269634732725663e+00 +0.0000000000000000e+00 -1.1499999992265368e+00 -2.8169765396476996e-02 -5.2395441057587855e-01 +4.8329911844021871e-03
-1.2000000000000004e+00 +8.5269602278533245e+00 +0.0000000000000000e+00 -1.1999999991211934e+00 -2.8169665801750902e-02 -5.2396374882026098e-01 +4.8331281261876774e-03
-1.2500000000000004e+00 +8.5269568443093444e+00 +0.0000000000000000e+00 -1.2499999990066937e+00 -2.8169583267485591e-02 -5.2397342876305131e-01 +4.8332704773509918e-03
-1.3000000000000005e+00 +8.5269533226380752e+00 +0.0000000000000000e+00 -1.2999999988826560e+00 -2.8169517553996361e-02 -5.2398344983605338e-01 +4.8334181904337269e-03
-1.3500000000000005e+00 +8.5269496628368735e+00 +0.0000000000000000e+00 -1.3499999987486988e+00 -2.8169468421598964e-02 -5.2399381147108592e-01 +4.8335712179775883e-03
-1.4000000000000006e+00 +8.5269458649030092e+00 +0.0000000000000000e+00 -1.3999999986044398e+00 -2.8169435630609578e-02 -5.2400451309998242e-01 +4.8337295125243946e-03
-1.4500000000000006e+00 +8.5269419288336614e+00 +0.0000000000000000e+00 -1.4499999984494976e+00 -2.8169418941344764e-02 -5.2401555415459078e-01 +4.8338930266160684e-03
-1.5000000000000007e+00 +8.5269378546259187e+00 +0.0000000000000000e+00 -1.4999999982834900e+00 -2.8169418114121502e-02 -5.2402693406677414e-01 +4.8340617127946260e-03
-1.5500000000000007e+00 +8.5269336422767825e+00 +0.0000000000000000e+00 -1.5499999981060353e+00 -2.8169432909257105e-02 -5.2403865226840973e-01 +4.8342355236021825e-03
-1.6000000000000008e+00 +8.5269292917831621e+00 +0.0000000000000000e+00 -1.5999999979167514e+00 -2.8169463087069208e-02 -5.2405070819138944e-01 +4.8344144115809156e-03
-1.6500000000000008e+00 +8.5269248031418812e+00 +0.0000000000000000e+00 -1.6499999977152564e+00 -2.8169508407875753e-02 -5.2406310126761957e-01 +4.8345983292730956e-03
-1.7000000000000008e+00 +8.5269201763496714e+00 +0.0000000000000000e+00 -1.6999999975011684e+00 -2.8169568631995011e-02 -5.2407583092902132e-01 +4.8347872292210511e-03
-1.7500000000000009e+00 +8.5269154114031771e+00 +0.0000000000000000e+00 -1.7499999972741054e+00 -2.8169643519745446e-02 -5.2408889660753000e-01 +4.8349810639671661e-03
-1.8000000000000009e+00 +8.5269105082989558e+00 +0.0000000000000000e+00 -1.7999999970336851e+00 -2.8169732831445797e-02 -5.2410229773509487e-01 +4.8351797860538837e-03
-1.8500000000000010e+00 +8.5269054670334725e+00 +0.0000000000000000e+00 -1.8499999967795255e+00 -2.8169836327415019e-02 -5.2411603374367999e-01 +4.8353833480236927e-03
-1.9000000000000010e+00 +8.5269002876031088e+00 +0.0000000000000000e+00 -1.8999999965112446e+00 -2.8169953767972225e-02 -5.2413010406526317e-01 +4.8355917024191109e-03
-1.9500000000000011e+00 +8.5268949700041539e+00 +0.0000000000000000e+00 -1.9499999962284602e+00 -2.8170084913436703e-02 -5.2414450813183666e-01 +4.8358048017826940e-03
-2.0000000000000009e+00 +8.5268895142328098e+00 +0.0000000000000000e+00 -1.9999999959307899e+00 -2.8170229524127875e-02 -5.2415924537540726e-01 +4.8360225986570160e-03
-2.0500000000000007e+00 +8.5268839202851936e+00 +0.0000000000000000e+00 -2.0499999956178514e+00 -2.8170387402109351e-02 -5.2417431498568079e-01 +4.8362450488514822e-03
-2.1000000000000005e+00 +8.5268781881573315e+00 +0.0000000000000000e+00 -2.0999999952892625e+00 -2.8170558516421435e-02 -5.2418971518311952e-01 +4.8364721212427924e-03
-2.1500000000000004e+00 +8.5268723178451644e+00 +0.0000000000000000e+00 -2.1499999949446411e+00 -2.8170742877849389e-02 -5.2420544394588375e-01 +4.8367037879745289e-03
-2.2000000000000002e+00 +8.5268663093445465e+00 +0.0000000000000000e+00 -2.1999999945836044e+00 -2.8170940497179504e-02 -5.2422149925214656e-01 +4.8369400211903226e-03
-2.2500000000000000e+00 +8.5268601626512446e+00 +0.0000000000000000e+00 -2.2499999942057700e+00 -2.8171151385199145e-02 -5.2423787908009301e-01 +4.8371807930338738e-03
-2.2999999999999998e+00 +8.5268538777609404e+00 +0.0000000000000000e+00 -2.2999999938107556e+00 -2.8171375552696682e-02 -5.2425458140791970e-01 +4.8374260756489278e-03
-2.3499999999999996e+00 +8.5268474546692321e+00 +0.0000000000000000e+00 -2.3499999933981788e+00 -2.8171613010461651e-02 -5.2427160421383590e-01 +4.8376758411792830e-03
-2.3999999999999995e+00 +8.5268408933716326e+00 +0.0000000000000000e+00 -2.3999999929676568e+00 -2.8171863769284693e-02 -5.2428894547606220e-01 +4.8379300617687861e-03
-2.4499999999999993e+00 +8.5268341938635697e+00 +0.0000000000000000e+00 -2.4499999925188067e+00 -2.8172127839957595e-02 -5.2430660317283095e-01 +4.8381887095613196e-03
-2.4999999999999991e+00 +8.5268273561403891e+00 +0.0000000000000000e+00 -2.4999999920512463e+00 -2.8172405233273357e-02 -5.2432457528238607e-01 +4.8384517567008137e-03
-2.5499999999999989e+00 +8.5268203801973517e+00 +0.0000000000000000e+00 -2.5499999915645928e+00 -2.8172695960026185e-02 -5.2434285978298234e-01 +4.8387191753312278e-03
-2.5999999999999988e+00 +8.5268132660296398e+00 +0.0000000000000000e+00 -2.5999999910584632e+00 -2.8173000031011558e-02 -5.2436145465288697e-01 +4.8389909375965573e-03
-2.6499999999999986e+00 +8.5268060136323509e+00 +0.0000000000000000e+00 -2.6499999905324745e+00 -2.8173317457026205e-02 -5.2438035787037640e-01 +4.8392670156408206e-03
-2.6999999999999984e+00 +8.5267986230005004e+00 +0.0000000000000000e+00 -2.6999999899862441e+00 -2.8173648248868186e-02 -5.2439956741373939e-01 +4.8395473816080659e-03
-2.7499999999999982e+00 +8.5267910941290257e+00 +0.0000000000000000e+00 -2.7499999894193889e+00 -2.8173992417336861e-02 -5.2441908126127501e-01 +4.8398320076423586e-03
-2.7999999999999980e+00 +8.5267834270127842e+00 +0.0000000000000000e+00 -2.7999999888315261e+00 -2.8174349973233020e-02 -5.2443889739129290e-01 +4.8401208658877832e-03
-2.8499999999999979e+00 +8.5267756216465500e+00 +0.0000000000000000e+00 -2.8499999882222729e+00 -2.8174720927358812e-02 -5.2445901378211335e-01 +4.8404139284884372e-03
-2.8999999999999977e+00 +8.5267676780250206e+00 +0.0000000000000000e+00 -2.8999999875912459e+00 -2.8175105290517814e-02 -5.2447942841206685e-01 +4.8407111675884294e-03
-2.9499999999999975e+00 +8.5267595961428153e+00 +0.0000000000000000e+00 -2.9499999869380615e+00 -2.8175503073515067e-02 -5.2450013925949401e-01 +4.8410125553318729e-03
-2.9999999999999973e+00 +8.5267513759944737e+00 +0.0000000000000000e+00 -2.9999999862623370e+00 -2.8175914287157114e-02 -5.2452114430274577e-01 +4.8413180638628888e-03
-3.0499999999999972e+00 +8.5267430175744590e+00 +0.0000000000000000e+00 -3.0499999855636890e+00 -2.8176338942251987e-02 -5.2454244152018259e-01 +4.8416276653255883e-03
-3.0999999999999970e+00 +8.5267345208771577e+00 +0.0000000000000000e+00 -3.0999999848417343e+00 -2.8176777049609272e-02 -5.2456402889017495e-01 +4.8419413318640855e-03
-3.1499999999999968e+00 +8.5267258858968784e+00 +0.0000000000000000e+00 -3.1499999840960897e+00 -2.8177228620040150e-02 -5.2458590439110331e-01 +4.8422590356224822e-03
-3.1999999999999966e+00 +8.5267171126278551e+00 +0.0000000000000000e+00 -3.1999999833263715e+00 -2.8177693664357396e-02 -5.2460806600135657e-01 +4.8425807487448768e-03
-3.2499999999999964e+00 +8.5267082010642454e+00 +0.0000000000000000e+00 -3.2499999825321959e+00 -2.8178172193375407e-02 -5.2463051169933439e-01 +4.8429064433753400e-03
-3.2999999999999963e+00 +8.5266991512001322e+00 +0.0000000000000000e+00 -3.2999999817131798e+00 -2.8178664217910276e-02 -5.2465323946344422e-01 +4.8432360916579363e-03
-3.3499999999999961e+00 +8.5266899630295239e+00 +0.0000000000000000e+00 -3.3499999808689389e+00 -2.8179169748779771e-02 -5.2467624727210349e-01 +4.8435696657366965e-03
-3.3999999999999959e+00 +8.5266806365463559e+00 +0.0000000000000000e+00 -3.3999999799990901e+00 -2.8179688796803392e-02 -5.2469953310373818e-01 +4.8439071377556330e-03
-3.4499999999999957e+00 +8.5266711717444892e+00 +0.0000000000000000e+00 -3.4499999791032492e+00 -2.8180221372802371e-02 -5.2472309493678293e-01 +4.8442484798587263e-03
-3.4999999999999956e+00 +8.5266615686177136e+00 +0.0000000000000000e+00 -3.4999999781810329e+00 -2.8180767487599755e-02 -5.2474693074968159e-01 +4.8445936641899204e-03
-3.5499999999999954e+00 +8.5266518271597462e+00 +0.0000000000000000e+00 -3.5499999772320567e+00 -2.8181327152020399e-02 -5.2477103852088569e-01 +4.8449426628931289e-03
-3.5999999999999952e+00 +8.5266419473642312e+00 +0.0000000000000000e+00 -3.5999999762559374e+00 -2.8181900376890980e-02 -5.2479541622885573e-01 +4.8452954481122187e-03
-3.6499999999999950e+00 +8.5266319292247417e+00 +0.0000000000000000e+00 -3.6499999752522903e+00 -2.8182487173040074e-02 -5.2482006185206032e-01 +4.8456519919910157e-03
-3.6999999999999948e+00 +8.5266217727347815e+00 +0.0000000000000000e+00 -3.6999999742207312e+00 -2.8183087551298142e-02 -5.2484497336897551e-01 +4.8460122666732965e-03
-3.7499999999999947e+00 +8.5266114778877835e+00 +0.0000000000000000e+00 -3.7499999731608766e+00 -2.8183701522497603e-02 -5.2487014875808602e-01 +4.8463762443027893e-03
-3.7999999999999945e+00 +8.5266010446771112e+00 +0.0000000000000000e+00 -3.7999999720723419e+00 -2.8184329097472809e-02 -5.2489558599788400e-01 +4.8467438970231647e-03
-3.8499999999999943e+00 +8.5265904730960589e+00 +0.0000000000000000e+00 -3.8499999709547428e+00 -2.8184970287060140e-02 -5.2492128306686947e-01 +4.8471151969780354e-03
-3.8999999999999941e+00 +8.5265797631378533e+00 +0.0000000000000000e+00 -3.8999999698076948e+00 -2.8185625102097926e-02 -5.2494723794354947e-01 +4.8474901163109464e-03
-3.9499999999999940e+00 +8.5265689147956518e+00 +0.0000000000000000e+00 -3.9499999686308134e+00 -2.8186293553426642e-02 -5.2497344860643835e-01 +4.8478686271653899e-03
-3.9999999999999938e+00 +8.5265579280625463e+00 +0.0000000000000000e+00 -3.9999999674237143e+00 -2.8186975651888786e-02 -5.2499991303405857e-01 +4.8482507016847773e-03
-4.0499999999999936e+00 +8.5265468029315592e+00 +0.0000000000000000e+00 -4.0499999661860127e+00 -2.8187671385434453e-02 -5.2502662911173803e-01 +4.8486363159284031e-03
-4.0999999999999934e+00 +8.5265355393956472e+00 +0.0000000000000000e+00 -4.0999999649173242e+00 -2.8188380650436592e-02 -5.2505359435200716e-01 +4.8490254616194118e-03
-4.1499999999999932e+00 +8.5265241374477032e+00 +0.0000000000000000e+00 -4.1499999636172644e+00 -2.8189103320372950e-02 -5.2508080617419750e-01 +4.8494181343970459e-03
-4.1999999999999931e+00 +8.5265125970805542e+00 +0.0000000000000000e+00 -4.1999999622854478e+00 -2.8189839268720429e-02 -5.2510826199764227e-01 +4.8498143299007023e-03
-4.2499999999999929e+00 +8.5265009182869616e+00 +0.0000000000000000e+00 -4.2499999609214898e+00 -2.8190588368954959e-02 -5.2513595924167589e-01 +4.8502140437699333e-03
-4.2999999999999927e+00 +8.5264891010596244e+00 +0.0000000000000000e+00 -4.2999999595250049e+00 -2.8191350494551459e-02 -5.2516389532563368e-01 +4.8506172716444472e-03
-4.3499999999999925e+00 +8.5264771453911798e+00 +0.0000000000000000e+00 -4.3499999580956086e+00 -2.8192125518983816e-02 -5.2519206766885229e-01 +4.8510240091641198e-03
-4.3999999999999924e+00 +8.5264650512741991e+00 +0.0000000000000000e+00 -4.3999999566329162e+00 -2.8192913315724762e-02 -5.2522047369066738e-01 +4.8514342519689908e-03
-4.4499999999999922e+00 +8.5264528187011948e+00 +0.0000000000000000e+00 -4.4499999551365415e+00 -2.8193713758245902e-02 -5.2524911081041681e-01 +4.8518479956992698e-03
-4.4999999999999920e+00 +8.5264404476646192e+00 +0.0000000000000000e+00 -4.4999999536060997e+00 -2.8194526720017522e-02 -5.2527797644743657e-01 +4.8522652359953410e-03
-4.5499999999999918e+00 +8.5264279381568624e+00 +0.0000000000000000e+00 -4.5499999520412056e+00 -2.8195352074508649e-02 -5.2530706802106253e-01 +4.8526859684977584e-03
-4.5999999999999917e+00 +8.5264152901702541e+00 +0.0000000000000000e+00 -4.5999999504414735e+00 -2.8196189695186908e-02 -5.2533638295063001e-01 +4.8531101888472615e-03
-4.6499999999999915e+00 +8.5264025036970690e+00 +0.0000000000000000e+00 -4.6499999488065189e+00 -2.8197039455518557e-02 -5.2536591865547366e-01 +4.8535378926847740e-03
-4.6999999999999913e+00 +8.5263895787295194e+00 +0.0000000000000000e+00 -4.6999999471359546e+00 -2.8197901228968300e-02 -5.2539567255492614e-01 +4.8539690756514006e-03
-4.7499999999999911e+00 +8.5263765152597628e+00 +0.0000000000000000e+00 -4.7499999454293960e+00 -2.8198774888999297e-02 -5.2542564206831854e-01 +4.8544037333884335e-03
-4.7999999999999909e+00 +8.5263633132798979e+00 +0.0000000000000000e+00 -4.7999999436864575e+00 -2.8199660309073150e-02 -5.2545582461498075e-01 +4.8548418615373679e-03
-4.8499999999999908e+00 +8.5263499727819685e+00 +0.0000000000000000e+00 -4.8499999419067530e+00 -2.8200557362649734e-02 -5.2548621761423953e-01 +4.8552834557398852e-03
-4.8999999999999906e+00 +8.5263364937579631e+00 +0.0000000000000000e+00 -4.8999999400898959e+00 -2.8201465923187213e-02 -5.2551681848541953e-01 +4.8557285116378720e-03
-4.9499999999999904e+00 +8.5263228761998153e+00 +0.0000000000000000e+00 -4.9499999382355009e+00 -2.8202385864141945e-02 -5.2554762464784266e-01 +4.8561770248734164e-03
-4.9999999999999902e+00 +8.5263091200994037e+00 +0.0000000000000000e+00 -4.9999999363431815e+00 -2.8203317058968454e-02 -5.2557863352082734e-01 +4.8566289910888074e-03
-5.0499999999999901e+00 +8.5262952254485551e+00 +0.0000000000000000e+00 -5.0499999344125523e+00 -2.8204259381119316e-02 -5.2560984252368947e-01 +4.8570844059265530e-03
-5.0999999999999899e+00 +8.5262811922390416e+00 +0.0000000000000000e+00 -5.0999999324432270e+00 -2.8205212704045142e-02 -5.2564124907574028e-01 +4.8575432650293671e-03
-5.1499999999999897e+00 +8.5262670204625834e+00 +0.0000000000000000e+00 -5.1499999304348183e+00 -2.8206176901194525e-02 -5.2567285059628721e-01 +4.8580055640401838e-03
-5.1999999999999895e+00 +8.5262527101108514e+00 +0.0000000000000000e+00 -5.1999999283869407e+00 -2.8207151846013911e-02 -5.2570464450463417e-01 +4.8584712986021530e-03
-5.2499999999999893e+00 +8.5262382611754646e+00 +0.0000000000000000e+00 -5.2499999262992070e+00 -2.8208137411947640e-02 -5.2573662822007994e-01 +4.8589404643586505e-03
-5.2999999999999892e+00 +8.5262236736479906e+00 +0.0000000000000000e+00 -5.2999999241712317e+00 -2.8209133472437795e-02 -5.2576879916191821e-01 +4.8594130569532754e-03
-5.3499999999999890e+00 +8.5262089475199492e+00 +0.0000000000000000e+00 -5.3499999220026275e+00 -2.8210139900924150e-02 -5.2580115474943778e-01 +4.8598890720298596e-03
-5.3999999999999888e+00 +8.5261940827828120e+00 +0.0000000000000000e+00 -5.3999999197930073e+00 -2.8211156570844199e-02 -5.2583369240192246e-01 +4.8603685052324673e-03
-5.4499999999999886e+00 +8.5261790794280010e+00 +0.0000000000000000e+00 -5.4499999175419847e+00 -2.8212183355632987e-02 -5.2586640953864938e-01 +4.8608513522053979e-03
-5.4999999999999885e+00 +8.5261639374468920e+00 +0.0000000000000000e+00 -5.4999999152491723e+00 -2.8213220128723088e-02 -5.2589930357889036e-01 +4.8613376085931900e-03
-5.5499999999999883e+00 +8.5261486568308129e+00 +0.0000000000000000e+00 -5.5499999129141839e+00 -2.8214266763544580e-02 -5.2593237194191111e-01 +4.8618272700406261e-03
-5.5999999999999881e+00 +8.5261332375710470e+00 +0.0000000000000000e+00 -5.5999999105366323e+00 -2.8215323133524914e-02 -5.2596561204696968e-01 +4.8623203321927367e-03
-5.6499999999999879e+00 +8.5261176796588316e+00 +0.0000000000000000e+00 -5.6499999081161301e+00 -2.8216389112088919e-02 -5.2599902131331810e-01 +4.8628167906947977e-03
-5.6999999999999877e+00 +8.5261019830853613e+00 +0.0000000000000000e+00 -5.6999999056522901e+00 -2.8217464572658692e-02 -5.2603259716020112e-01 +4.8633166411923426e-03
-5.7499999999999876e+00 +8.5260861478417844e+00 +0.0000000000000000e+00 -5.7499999031447242e+00 -2.8218549388653553e-02 -5.2606633700685546e-01 +4.8638198793311540e-03
-5.7999999999999874e+00 +8.5260701739192051e+00 +0.0000000000000000e+00 -5.7999999005930460e+00 -2.8219643433490024e-02 -5.2610023827251085e-01 +4.8643265007572867e-03
-5.8499999999999872e+00 +8.5260540613086881e+00 +0.0000000000000000e+00 -5.8499998979968675e+00 -2.8220746580581685e-02 -5.2613429837638803e-01 +4.8648365011170445e-03
