# multipoles
# s[mm] polynom_b[n=0][T/m^n] polynom_b[n=1][T/m^n] polynom_b[n=2][T/m^n] polynom_b[n=3][T/m^n] polynom_b[n=4][T/m^n] polynom_b[n=5][T/m^n] polynom_b[n=6][T/m^n] 
+0.0000000000000000e+00 -5.7813564654631922e-01 +7.5861949892591358e+00 +5.3752498337177608e+00 -7.8811875890278770e+01 +1.9521309957485129e+04 +2.5060454940175411e+05 -1.2330485741967264e+08 
+5.0000000000000003e-02 -5.7813429945632233e-01 +7.5861318316604178e+00 +5.3688304296442606e+00 -7.8741444673279602e+01 +1.9676521171399752e+04 +2.4983055025123732e+05 -1.2417909583860156e+08 
+1.0000000000000001e-01 -5.7813333982665938e-01 +7.5860909866581929e+00 +5.3625947704821852e+00 -7.8708363962232454e+01 +1.9816089625188728e+04 +2.4935234954550199e+05 -1.2496145389097396e+08 
+1.4999999999999999e-01 -5.7813276714537842e-01 +7.5860723634978422e+00 +5.3565350829816643e+00 -7.8711303149459241e+01 +1.9940315366987714e+04 +2.4916049517016308e+05 -1.2565386385704617e+08 
+2.0000000000000001e-01 -5.7813258090051589e-01 +7.5860758714243515e+00 +5.3506435858888510e+00 -7.8748931565760429e+01 +2.0049498663648938e+04 +2.4924553446725247e+05 -1.2625825950448546e+08 
+2.5000000000000000e-01 -5.7813278058018536e-01 +7.5861014196815102e+00 +5.3449125040348653e+00 -7.8819918475127537e+01 +2.0143939617662549e+04 +2.4959801429114316e+05 -1.2677657349679740e+08 
+2.9999999999999999e-01 -5.7813336567248819e-01 +7.5861489175150627e+00 +5.3393340616113711e+00 -7.8922933171964232e+01 +2.0223938348741398e+04 +2.5020848169950917e+05 -1.2721073860982786e+08 
+3.4999999999999998e-01 -5.7813433566546768e-01 +7.5862182741686350e+00 +5.3339004790895661e+00 -7.9056644860453403e+01 +2.0289795079227868e+04 +2.5106748314632493e+05 -1.2756268832434894e+08 
+4.0000000000000002e-01 -5.7813569004735643e-01 +7.5863093988861898e+00 +5.3286039833803454e+00 -7.9219722694621083e+01 +2.0341809854248950e+04 +2.5216556452819364e+05 -1.2783435491251191e+08 
+4.5000000000000001e-01 -5.7813742830619952e-01 +7.5864222009131153e+00 +5.3234367939809708e+00 -7.9410835871658790e+01 +2.0380282923730789e+04 +2.5349327220852682e+05 -1.2802767205004770e+08 
+5.0000000000000000e-01 -5.7813954993023486e-01 +7.5865565894942124e+00 +5.3183911374184651e+00 -7.9628653544284191e+01 +2.0405514343703941e+04 +2.5504115219858784e+05 -1.2814457208577803e+08 
+5.5000000000000004e-01 -5.7814205440761357e-01 +7.5867124738735532e+00 +5.3134592360850563e+00 -7.9871844782475719e+01 +2.0417804287487659e+04 +2.5679974979452489e+05 -1.2818698818582603e+08 
+5.9999999999999998e-01 -5.7814494122659255e-01 +7.5868897632972994e+00 +5.3086333138413098e+00 -8.0139078733841416e+01 +2.0417452884753468e+04 +2.5875961099068966e+05 -1.2815685320792533e+08 
+6.5000000000000002e-01 -5.7814820987531323e-01 +7.5870883670090681e+00 +5.3039055953403045e+00 -8.0429024403531088e+01 +2.0404760243156095e+04 +2.6091128062866308e+05 -1.2805609985653606e+08 
+6.9999999999999996e-01 -5.7815185984206663e-01 +7.5873081942553799e+00 +5.2992683043716173e+00 -8.0740350887623734e+01 +2.0380026495493079e+04 +2.6324530428657873e+05 -1.2788666101719479e+08 
+7.5000000000000000e-01 -5.7815589061507566e-01 +7.5875491542798521e+00 +5.2947136641769932e+00 -8.1071727136672507e+01 +2.0343551791669532e+04 +2.6575222638031258e+05 -1.2765046970125327e+08 
+8.0000000000000004e-01 -5.7816030168261767e-01 +7.5878111563289110e+00 +5.2902338999021579e+00 -8.1421822201056543e+01 +2.0295636226222923e+04 +2.6842259221657121e+05 -1.2734945852880466e+08 
+8.4999999999999998e-01 -5.7816509253299708e-01 +7.5880941096479129e+00 +5.2858212338556658e+00 -8.1789305035466157e+01 +2.0236579971622352e+04 +2.7124694620456547e+05 -1.2698556065658985e+08 
+9.0000000000000002e-01 -5.7817026265452731e-01 +7.5883979234813266e+00 +5.2814678917367184e+00 -8.2172844560842719e+01 +2.0166683107422650e+04 +2.7421583265164337e+05 -1.2656070860637295e+08 
+9.4999999999999996e-01 -5.7817581153549891e-01 +7.5887225070754125e+00 +5.2771660971880348e+00 -8.2571109726619667e+01 +2.0086245770554659e+04 +2.7731979601052782e+05 -1.2607683529749477e+08 
+1.0000000000000000e+00 -5.7818173866424738e-01 +7.5890677696767215e+00 +5.2729080736928209e+00 -8.2982769482994655e+01 +1.9995568103539950e+04 +2.8054938084361388e+05 -1.2553587369163674e+08 
+1.0500000000000000e+00 -5.7818804352915842e-01 +7.5894336205311710e+00 +5.2686860464776917e+00 -8.3406492721692828e+01 +1.9894950196589740e+04 +2.8389513118664565e+05 -1.2493975637894392e+08 
+1.1000000000000001e+00 -5.7819472561854190e-01 +7.5898199688837131e+00 +5.2644922389681552e+00 -8.3840948276670630e+01 +1.9784692190951293e+04 +2.8734759068322083e+05 -1.2429041630568516e+08 
+1.1499999999999999e+00 -5.7820178442086279e-01 +7.5902267239817371e+00 +5.2603188743856526e+00 -8.4284805055698484e+01 +1.9665094233408425e+04 +2.9089730354936054e+05 -1.2358978645347296e+08 
+1.2000000000000000e+00 -5.7820921942447734e-01 +7.5906537950720834e+00 +5.2561581786595415e+00 -8.4736731922928016e+01 +1.9536456397606249e+04 +2.9453481372136390e+05 -1.2283979931433225e+08 
+1.2500000000000000e+00 -5.7821703011779546e-01 +7.5911010914019279e+00 +5.2520023745536957e+00 -8.5195397734427445e+01 +1.9399078839099369e+04 +2.9825066507022048e+05 -1.2204238791752934e+08 
+1.3000000000000000e+00 -5.7822521598927679e-01 +7.5915685222174307e+00 +5.2478436862075384e+00 -8.5659471293598457e+01 +1.9253261678382110e+04 +3.0203540109500091e+05 -1.2119948506844851e+08 
+1.3500000000000001e+00 -5.7823377652736685e-01 +7.5920559967648087e+00 +5.2436743366653102e+00 -8.6127621363570569e+01 +1.9099305064454064e+04 +3.0587956490947597e+05 -1.2031302375493614e+08 
+1.3999999999999999e+00 -5.7824271122048676e-01 +7.5925634242940250e+00 +5.2394865524181879e+00 -8.6598516867701207e+01 +1.8937509052204186e+04 +3.0977370109867794e+05 -1.1938493633436932e+08 
+1.4500000000000000e+00 -5.7825201955715899e-01 +7.5930907140513293e+00 +5.2352725549609662e+00 -8.7070826536643281e+01 +1.8768173833023342e+04 +3.1370835257475515e+05 -1.1841715608720364e+08 
+1.5000000000000000e+00 -5.7826170102587582e-01 +7.5936377752845354e+00 +5.2310245681158829e+00 -8.7543219159383355e+01 +1.8591599530149579e+04 +3.1767406283362262e+05 -1.1741161581704013e+08 
+1.5500000000000000e+00 -5.7827175511511486e-01 +7.5942045172436847e+00 +5.2267348148722022e+00 -8.8014363592574867e+01 +1.8408086290924482e+04 +3.2166137592961371e+05 -1.1637024849571174e+08 
+1.6000000000000001e+00 -5.7828218131341091e-01 +7.5947908491754577e+00 +5.2223955208688722e+00 -8.8482928536233416e+01 +1.8217934191163364e+04 +3.2566083466428769e+05 -1.1529498661306283e+08 
+1.6499999999999999e+00 -5.7829297910931698e-01 +7.5953966803290367e+00 +5.2179989069829720e+00 -8.8947582790194332e+01 +1.8021443436817230e+04 +3.2966298273251590e+05 -1.1418776354553141e+08 
+1.7000000000000000e+00 -5.7830414799136687e-01 +7.5960219199536088e+00 +5.2135371985765060e+00 -8.9406995111022127e+01 +1.7818914104184219e+04 +3.3365836340624344e+05 -1.1305051176040269e+08 
+1.7500000000000000e+00 -5.7831568744815121e-01 +7.5966664772999524e+00 +5.2090026181160844e+00 -8.9859834334681111e+01 +1.7610646351849620e+04 +3.3763752077479055e+05 -1.1188516429788925e+08 
+1.8000000000000000e+00 -5.7832759696821190e-01 +7.5973302616160696e+00 +5.2043873864551777e+00 -9.0304769150792239e+01 +1.7396940383043802e+04 +3.4159099767790583e+05 -1.1069365450541070e+08 
+1.8500000000000001e+00 -5.7833987604015169e-01 +7.5980131821511483e+00 +5.1996837283599726e+00 -9.0740468285214035e+01 +1.7178096288649278e+04 +3.4550933730508701e+05 -1.0947791494689246e+08 
+1.8999999999999999e+00 -5.7835252415260674e-01 +7.5987151481591209e+00 +5.1948838660007670e+00 -9.1165600643529899e+01 +1.6954414232946707e+04 +3.4938308434875327e+05 -1.0823987869035618e+08 
+1.9500000000000000e+00 -5.7836554079416957e-01 +7.5994360688873774e+00 +5.1899800220151819e+00 -9.1578834855412836e+01 +1.6726194364607305e+04 +3.5320278130536666e+05 -1.0698147869663087e+08 
+2.0000000000000000e+00 -5.7837892545349612e-01 +7.6001758535882731e+00 +5.1849644172257685e+00 -9.1978839739367103e+01 +1.6493736879471668e+04 +3.5695897224250395e+05 -1.0570464822829558e+08 
+2.0499999999999998e+00 -5.7839267732897948e-01 +7.6009344000536201e+00 +5.1798281999986120e+00 -9.2364419339997369e+01 +1.6257344670815492e+04 +3.6064304553936393e+05 -1.0441125676723982e+08 
+2.1000000000000001e+00 -5.7840679445509291e-01 +7.6017115591173097e+00 +5.1745581936730050e+00 -9.2734869212593907e+01 +1.6017333833872330e+04 +3.6424942237001198e+05 -1.0310293316986355e+08 
+2.1499999999999999e+00 -5.7842127457468595e-01 +7.6025071662807182e+00 +5.1691403353921528e+00 -9.3089599703768428e+01 +1.5774024046178341e+04 +3.6777318914047081e+05 -1.0178124726229340e+08 
+2.2000000000000002e+00 -5.7843611543066364e-01 +7.6033210570499552e+00 +5.1635605606597608e+00 -9.3428021347006023e+01 +1.5527735022063125e+04 +3.7120943378568452e+05 -1.0044776908624224e+08 
+2.2500000000000000e+00 -5.7845131476585565e-01 +7.6041530669337085e+00 +5.1578048044149760e+00 -9.3749544750624779e+01 +1.5278786492151965e+04 +3.7455324481756124e+05 -9.9104068801594466e+07 
+2.2999999999999998e+00 -5.7846687032314581e-01 +7.6050030314365840e+00 +5.1518590037089682e+00 -9.4053580332150119e+01 +1.5027498131362998e+04 +3.7779970913635945e+05 -9.7751716192385808e+07 
+2.3500000000000001e+00 -5.7848277984539409e-01 +7.6058707860647408e+00 +5.1457090946280051e+00 -9.4339538566580387e+01 +1.4774189638224778e+04 +3.8094391415616509e+05 -9.6392281195297107e+07 
+2.3999999999999999e+00 -5.7849904107552108e-01 +7.6067561663293892e+00 +5.1393410117692655e+00 -9.4606830118871031e+01 +1.4519180751931832e+04 +3.8398094882284990e+05 -9.5027334019959033e+07 
+2.4500000000000002e+00 -5.7851565175639952e-01 +7.6076590077392376e+00 +5.1327406897057104e+00 -9.4854865512811742e+01 +1.4262791208974963e+04 +3.8690590082147776e+05 -9.3658444847099572e+07 
+2.5000000000000000e+00 -5.7853260963100772e-01 +7.6085791458063747e+00 +5.1258940648921385e+00 -9.5083055411452108e+01 +1.4005340693357735e+04 +3.8971385903420224e+05 -9.2287183494304091e+07 
+2.5499999999999998e+00 -5.7854991244217802e-01 +7.6095164160399262e+00 +5.1187870700288371e+00 -9.5290810321467205e+01 +1.3747148995877142e+04 +3.9239991098196333e+05 -9.0915120520560920e+07 
+2.6000000000000001e+00 -5.7856755793294745e-01 +7.6104706539553328e+00 +5.1114056437752673e+00 -9.5477541002092082e+01 +1.3488535736119324e+04 +3.9495914623994991e+05 -8.9543825288916171e+07 
+2.6499999999999999e+00 -5.7858554384621730e-01 +7.6114416950636068e+00 +5.1037357177895695e+00 -9.5642658008563956e+01 +1.3229820729663938e+04 +3.9738665269444685e+05 -8.8174868511478022e+07 
+2.7000000000000002e+00 -5.7860386792494234e-01 +7.6124293748817138e+00 +5.0957632269176907e+00 -9.5785572116492588e+01 +1.2971323699035955e+04 +3.9967751996516262e+05 -8.6809820243061692e+07 
+2.7500000000000000e+00 -5.7862252791209268e-01 +7.6134335289260058e+00 +5.0874741065777638e+00 -9.5905694058102213e+01 +1.2713364357868246e+04 +4.0182683729606203e+05 -8.5450250504752874e+07 
+2.7999999999999998e+00 -5.7864152155060389e-01 +7.6144539927133374e+00 +5.0788542901073344e+00 -9.6002434575768461e+01 +1.2456262463278679e+04 +4.0382969399308146e+05 -8.4097729559839740e+07 
+2.8500000000000001e+00 -5.7866084658348005e-01 +7.6154906017626640e+00 +5.0698897108353123e+00 -9.6075204466632343e+01 +1.2200337781835675e+04 +4.0568117971832794e+05 -8.2753827771228582e+07 
+2.8999999999999999e+00 -5.7868050075371968e-01 +7.6165431915934683e+00 +5.0605663041792521e+00 -9.6123414545987018e+01 +1.1945910021673457e+04 +4.0737638429512666e+05 -8.1420115096914306e+07 
+2.9500000000000002e+00 -5.7870048180430855e-01 +7.6176115977263867e+00 +5.0508700026769597e+00 -9.6146475644517324e+01 +1.1693298960000058e+04 +4.0891039757187956e+05 -8.0098161926317677e+07 
+3.0000000000000000e+00 -5.7872078747824152e-01 +7.6186956556853254e+00 +5.0407867382995750e+00 -9.6143798721180545e+01 +1.1442824393430243e+04 +4.1027831045223930e+05 -7.8789538796207502e+07 
+3.0499999999999998e+00 -5.7874141551852121e-01 +7.6197952009920344e+00 +5.0303024476529057e+00 -9.6114794608967543e+01 +1.1194805995715218e+04 +4.1147521268359997e+05 -7.7495815420421764e+07 
+3.1000000000000001e+00 -5.7876236366816369e-01 +7.6209100691745908e+00 +5.0194030588724532e+00 -9.6058874404452766e+01 +1.0949563660721305e+04 +4.1249619619454397e+05 -7.6218562963636607e+07 
+3.1499999999999999e+00 -5.7878362967022934e-01 +7.6220400957586767e+00 +5.0080745111814275e+00 -9.5975449070165325e+01 +1.0707416986220103e+04 +4.1333635169043549e+05 -7.4959350601856440e+07 
+3.2000000000000002e+00 -5.7880521126771978e-01 +7.6231851162720243e+00 +4.9963027320441933e+00 -9.5863929646428957e+01 +1.0468685887115797e+04 +4.1399077050696564e+05 -7.3719749653848752e+07 
+3.2500000000000000e+00 -5.7882710620365529e-01 +7.6243449662431484e+00 +4.9840736559123897e+00 -9.5723727179846605e+01 +1.0233690084124430e+04 +4.1445454393919290e+05 -7.2501330098213986e+07 
+3.2999999999999998e+00 -5.7884931222109337e-01 +7.6255194812051084e+00 +4.9713732125860295e+00 -9.5554252891869922e+01 +1.0002749425662612e+04 +4.1472276467216609e+05 -7.1305662786304832e+07 
+3.3500000000000001e+00 -5.7887182706313267e-01 +7.6267084966921646e+00 +4.9581873378854819e+00 -9.5354918024427761e+01 +9.7761835954478011e+03 +4.1479052544285642e+05 -7.0134317445616737e+07 
+3.3999999999999999e+00 -5.7889464847275607e-01 +7.6279118482338744e+00 +4.9445019607795384e+00 -9.5125133625480558e+01 +9.5543124602824701e+03 +4.1465291741180228e+05 -6.8988865032155231e+07 
+3.4500000000000002e+00 -5.7891777419302493e-01 +7.6291293713704924e+00 +4.9303030128019953e+00 -9.4864311147359700e+01 +9.3374558174652575e+03 +4.1430503491293150e+05 -6.7870876027827352e+07 
+3.5000000000000000e+00 -5.7894120196704213e-01 +7.6303609016384275e+00 +4.9155764268673607e+00 -9.4571861878857732e+01 +9.1259334258311519e+03 +4.1374197089958354e+05 -6.6781920649208494e+07 
+3.5499999999999998e+00 -5.7896492953786616e-01 +7.6316062745763134e+00 +4.9003081319994077e+00 -9.4247197167635534e+01 +8.9200651481978803e+03 +4.1295881868867518e+05 -6.5723569810893551e+07 
+3.6000000000000001e+00 -5.7898895464856881e-01 +7.6328653257254908e+00 +4.8844840583710898e+00 -9.3889728478507948e+01 +8.7201708123045992e+03 +4.1195067256433552e+05 -6.4697394169328406e+07 
+3.6499999999999999e+00 -5.7901327504224454e-01 +7.6341378906302291e+00 +4.8680901391762825e+00 -9.3498867356481838e+01 +8.5265701649435323e+03 +4.1071262730192643e+05 -6.3704963836649492e+07 
+3.6999999999999900e+00 -5.7903788846194160e-01 +7.6354238048338585e+00 +4.8511123033552268e+00 -9.3074025301192535e+01 +8.3395830652546538e+03 +4.0923977727046033e+05 -6.2747849671885543e+07 
+3.7499999999999898e+00 -5.7906279265080129e-01 +7.6367229038811395e+00 +4.8335364801589602e+00 -9.2614613853940298e+01 +8.1595293677106320e+03 +4.0752721707482246e+05 -6.1827622514367945e+07 
+3.7999999999999901e+00 -5.7908798535185524e-01 +7.6380350233245657e+00 +4.8153485990453859e+00 -9.2120044850139891e+01 +7.9867289096779341e+03 +4.0557004365554923e+05 -6.0945853041021504e+07 
+3.8499999999999899e+00 -5.7911346430826127e-01 +7.6393599987115026e+00 +4.7965345903828878e+00 -9.1589729902233927e+01 +7.8215015115992192e+03 +4.0336335201739066e+05 -6.0104111840294771e+07 
+3.8999999999999901e+00 -5.7913922726303946e-01 +7.6406976655929961e+00 +4.7770803843309633e+00 -9.1023080752141553e+01 +7.6641669944344612e+03 +4.0090223814873223e+05 -5.9303969485431574e+07 
+3.9499999999999900e+00 -5.7916527195936462e-01 +7.6420478595267340e+00 +4.7569719077632753e+00 -9.0419509403614541e+01 +7.5150452674650805e+03 +3.9818180009169201e+05 -5.8546997137456752e+07 
+3.9999999999999898e+00 -5.7919159614028903e-01 +7.6434104160658647e+00 +4.7361950903479313e+00 -8.9778427642478519e+01 +7.3744561618083890e+03 +3.9519713399600750e+05 -5.7834765419185534e+07 
+4.0499999999999901e+00 -5.7921819745719383e-01 +7.6447851765927837e+00 +4.7147406324008809e+00 -8.9099659110891437e+01 +7.2426269600218320e+03 +3.9194632369597320e+05 -5.7168355626911521e+07 
+4.0999999999999899e+00 -5.7924507319545759e-01 +7.6461719985949443e+00 +4.6926183141050091e+00 -8.8384725845149134e+01 +7.1194295292664019e+03 +3.8843996034208976e+05 -5.6547001967899933e+07 
+4.1499999999999897e+00 -5.7927222054943361e-01 +7.6475707418295125e+00 +4.6698427152778450e+00 -8.7635590689927810e+01 +7.0046505714681325e+03 +3.8469191738717502e+05 -5.5969505027943335e+07 
+4.1999999999999904e+00 -5.7929963671341778e-01 +7.6489812660560510e+00 +4.6464284154643387e+00 -8.6854216597147072e+01 +6.8980767997095982e+03 +3.8071606908995187e+05 -5.5434665478325903e+07 
+4.2499999999999902e+00 -5.7932731888180211e-01 +7.6504034310292770e+00 +4.6223899962029451e+00 -8.6042566324833771e+01 +6.7994948719579115e+03 +3.7652628810124763e+05 -5.4941283613040186e+07 
+4.2999999999999901e+00 -5.7935526424886330e-01 +7.6518370965079381e+00 +4.5977420377312832e+00 -8.5202602800614386e+01 +6.7086914859613917e+03 +3.7213644850207964e+05 -5.4488160013253219e+07 
+4.3499999999999899e+00 -5.7938347000896973e-01 +7.6532821222485339e+00 +4.5724991217962589e+00 -8.4336288846291154e+01 +6.6254532992087588e+03 +3.6756042340737412e+05 -5.4074094994071506e+07 
+4.3999999999999897e+00 -5.7941193335645957e-01 +7.6547383680065675e+00 +4.5466758290760279e+00 -8.3445587258267494e+01 +6.5495670027992446e+03 +3.6281208578540350e+05 -5.3697889115979172e+07 
+4.4499999999999904e+00 -5.7944065148566049e-01 +7.6562056935390927e+00 +4.5202867432604377e+00 -8.2532460900637943e+01 +6.4808192081206153e+03 +3.5790530915292725e+05 -5.3358342408821441e+07 
+4.4999999999999902e+00 -5.7946962159092363e-01 +7.6576839586014280e+00 +4.4933464422557874e+00 -8.1598872573822277e+01 +6.4189966844683986e+03 +3.5285396652121795e+05 -5.3054255977647863e+07 
+4.5499999999999901e+00 -5.7949884086661063e-01 +7.6591730229495196e+00 +4.4658695111926958e+00 -8.0646785091553738e+01 +6.3638860029490297e+03 +3.4767193093410117e+05 -5.2784429578976788e+07 
+4.5999999999999899e+00 -5.7952830650711329e-01 +7.6606727463379372e+00 +4.4378705341514983e+00 -7.9678161247101968e+01 +6.3152737800456589e+03 +3.4237307537768089e+05 -5.2547663342593171e+07 
+4.6499999999999897e+00 -5.7955801570668497e-01 +7.6621829885217503e+00 +4.4093640920665038e+00 -7.8694963825902789e+01 +6.2729467032938192e+03 +3.3697127267011069e+05 -5.2342757827720679e+07 
+4.6999999999999904e+00 -5.7958796565977533e-01 +7.6637036092549113e+00 +4.3803647699401838e+00 -7.7699155595089380e+01 +6.2366913651807699e+03 +3.3148039553041104e+05 -5.2168513009902462e+07 
+4.7499999999999902e+00 -5.7961815356069069e-01 +7.6652344682906737e+00 +4.3508871523953019e+00 -7.6692699294532972e+01 +6.2062943657484084e+03 +3.2591431644985237e+05 -5.2023728905917592e+07 
+4.7999999999999901e+00 -5.7964857660383906e-01 +7.6667754253823803e+00 +4.3209458225139921e+00 -7.5677557679252843e+01 +6.1815423520297400e+03 +3.2028690804494038e+05 -5.1907205874855548e+07 
+4.8499999999999899e+00 -5.7967923198350557e-01 +7.6683263402851125e+00 +4.2905553667004046e+00 -7.4655693570973199e+01 +6.1622218810499007e+03 +3.1461204346288735e+05 -5.1817743668140538e+07 
+4.8999999999999897e+00 -5.7971011689413221e-01 +7.6698870727463326e+00 +4.2597303693196427e+00 -7.3629069511515212e+01 +6.1481195705919754e+03 +3.0890359360201150e+05 -5.1754142470927522e+07 
+4.9499999999999904e+00 -5.7974122853005894e-01 +7.6714574825196786e+00 +4.2284854169697139e+00 -7.2599648283217206e+01 +6.1390219818203495e+03 +3.0317543128339841e+05 -5.1715202105087750e+07 
+4.9999999999999902e+00 -5.7977256408561928e-01 +7.6730374293563486e+00 +4.1968350952863283e+00 -7.1569392586508229e+01 +6.1347157020000041e+03 +2.9744142869536841e+05 -5.1699722567455344e+07 
+5.0499999999999901e+00 -5.7980412075768073e-01 +7.6746267648944517e+00 +4.1647944026206458e+00 -7.0540273267561801e+01 +6.1349874762228674e+03 +2.9171545718223549e+05 -5.1706504632775687e+07 
