# field on trajectory
# s[mm] rx[mm] ry[mm] rz[mm] bx[T] by[T] bz[T]
0.0000000000000000e+00 +8.5270000000000206e+00 +0.0000000000000000e+00 +0.0000000000000000e+00 -3.0342233326547417e-02 -5.7937477907119006e-01 +5.7300738905149487e-03
5.0000000000000003e-02 +8.5269999273587000e+00 +0.0000000000000000e+00 +5.1282051281982703e-02 -3.0342327544543204e-02 -5.7937488936151504e-01 +5.7312740872738095e-03
1.0000000000000001e-01 +8.5269997094401297e+00 +0.0000000000000000e+00 +1.0256410256355400e-01 -3.0342440020307237e-02 -5.7937538905731367e-01 +5.7324822352445475e-03
1.4999999999999999e-01 +8.5269993462388793e+00 +0.0000000000000000e+00 +1.5384615384430200e-01 -3.0342570695587514e-02 -5.7937627743911591e-01 +5.7336982475860035e-03
2.0000000000000001e-01 +8.5269988377622195e+00 +0.0000000000000000e+00 +2.0512820512381499e-01 -3.0342719512128660e-02 -5.7937755378737299e-01 +5.7349220374564008e-03
2.5000000000000000e-01 +8.5269981840028795e+00 +0.0000000000000000e+00 +2.5641025640168202e-01 -3.0342886411683406e-02 -5.7937921738266784e-01 +5.7361535180154143e-03
2.9999999999999999e-01 +8.5269973849644902e+00 +0.0000000000000000e+00 +3.0769230767749101e-01 -3.0343071336001622e-02 -5.7938126750551744e-01 +5.7373926024221859e-03
3.4999999999999998e-01 +8.5269964406470500e+00 +0.0000000000000000e+00 +3.5897435895083102e-01 -3.0343274226836445e-02 -5.7938370343648560e-01 +5.7386392038364584e-03
4.0000000000000002e-01 +8.5269953510505694e+00 +0.0000000000000000e+00 +4.1025641022129000e-01 -3.0343495025942618e-02 -5.7938652445615502e-01 +5.7398932354182607e-03
4.5000000000000001e-01 +8.5269941161714105e+00 +0.0000000000000000e+00 +4.6153846148845601e-01 -3.0343733675077911e-02 -5.7938972984515347e-01 +5.7411546103281761e-03
5.0000000000000000e-01 +8.5269927360132005e+00 +0.0000000000000000e+00 +5.1282051275191798e-01 -3.0343990115998417e-02 -5.7939331888407275e-01 +5.7424232417265025e-03
5.5000000000000004e-01 +8.5269912105795793e+00 +0.0000000000000000e+00 +5.6410256401126402e-01 -3.0344264290461526e-02 -5.7939729085352176e-01 +5.7436990427737833e-03
5.9999999999999998e-01 +8.5269895398632798e+00 +0.0000000000000000e+00 +6.1538461526608301e-01 -3.0344556140230457e-02 -5.7940164503421043e-01 +5.7449819266316392e-03
6.5000000000000002e-01 +8.5269877238679292e+00 +0.0000000000000000e+00 +6.6666666651596296e-01 -3.0344865607064859e-02 -5.7940638070678308e-01 +5.7462718064610748e-03
6.9999999999999996e-01 +8.5269857625899004e+00 +0.0000000000000000e+00 +7.1794871776049296e-01 -3.0345192632728505e-02 -5.7941149715195739e-01 +5.7475685954238723e-03
7.5000000000000000e-01 +8.5269836560364602e+00 +0.0000000000000000e+00 +7.6923076899926102e-01 -3.0345537158981382e-02 -5.7941699365038501e-01 +5.7488722066811621e-03
8.0000000000000004e-01 +8.5269814042003400e+00 +0.0000000000000000e+00 +8.2051282023185501e-01 -3.0345899127590462e-02 -5.7942286948284505e-01 +5.7501825533953803e-03
8.4999999999999998e-01 +8.5269790070851705e+00 +0.0000000000000000e+00 +8.7179487145786405e-01 -3.0346278480318765e-02 -5.7942912393005153e-01 +5.7514995487282939e-03
9.0000000000000002e-01 +8.5269764646909607e+00 +0.0000000000000000e+00 +9.2307692267687602e-01 -3.0346675158931417e-02 -5.7943575627276178e-01 +5.7528231058421057e-03
9.4999999999999996e-01 +8.5269737770140601e+00 +0.0000000000000000e+00 +9.7435897388848103e-01 -3.0347089105195596e-02 -5.7944276579177834e-01 +5.7541531378994398e-03
1.0000000000000000e+00 +8.5269709440617607e+00 +0.0000000000000000e+00 +1.0256410250922601e+00 -3.0347520260874172e-02 -5.7945015176783676e-01 +5.7554895580622049e-03
1.0500000000000000e+00 +8.5269679658304103e+00 +0.0000000000000000e+00 +1.0769230762878199e+00 -3.0347968567734980e-02 -5.7945791348177156e-01 +5.7568322794932713e-03
1.1000000000000001e+00 +8.5269648423163709e+00 +0.0000000000000000e+00 +1.1282051274747300e+00 -3.0348433967546024e-02 -5.7946605021443409e-01 +5.7581812153556086e-03
1.1499999999999999e+00 +8.5269615735232893e+00 +0.0000000000000000e+00 +1.1794871786525800e+00 -3.0348916402072264e-02 -5.7947456124663588e-01 +5.7595362788117168e-03
1.2000000000000000e+00 +8.5269581594511692e+00 +0.0000000000000000e+00 +1.2307692298209700e+00 -3.0349415813080129e-02 -5.7948344585923206e-01 +5.7608973830244386e-03
1.2500000000000000e+00 +8.5269546000999998e+00 +0.0000000000000000e+00 +1.2820512809794800e+00 -3.0349932142335997e-02 -5.7949270333309322e-01 +5.7622644411566854e-03
1.3000000000000000e+00 +8.5269508954661397e+00 +0.0000000000000000e+00 +1.3333333321277101e+00 -3.0350465331607519e-02 -5.7950233294913300e-01 +5.7636373663716997e-03
1.3500000000000001e+00 +8.5269470455568808e+00 +0.0000000000000000e+00 +1.3846153832652299e+00 -3.0351015322657354e-02 -5.7951233398819801e-01 +5.7650160718319072e-03
1.3999999999999999e+00 +8.5269430503649293e+00 +0.0000000000000000e+00 +1.4358974343916400e+00 -3.0351582057253929e-02 -5.7952270573125952e-01 +5.7664004707008816e-03
1.4500000000000000e+00 +8.5269389098939392e+00 +0.0000000000000000e+00 +1.4871794855065199e+00 -3.0352165477160471e-02 -5.7953344745922164e-01 +5.7677904761413547e-03
1.5000000000000000e+00 +8.5269346241439106e+00 +0.0000000000000000e+00 +1.5384615366094700e+00 -3.0352765524141109e-02 -5.7954455845302999e-01 +5.7691860013163315e-03
1.5500000000000000e+00 +8.5269301931148203e+00 +0.0000000000000000e+00 +1.5897435877000701e+00 -3.0353382139959230e-02 -5.7955603799364586e-01 +5.7705869593887987e-03
1.6000000000000001e+00 +8.5269256168030605e+00 +0.0000000000000000e+00 +1.6410256387779201e+00 -3.0354015266378914e-02 -5.7956788536207204e-01 +5.7719932635219920e-03
1.6499999999999999e+00 +8.5269208952158806e+00 +0.0000000000000000e+00 +1.6923076898425899e+00 -3.0354664845158665e-02 -5.7958009983924264e-01 +5.7734048268782432e-03
1.7000000000000000e+00 +8.5269160283460206e+00 +0.0000000000000000e+00 +1.7435897408936800e+00 -3.0355330818062097e-02 -5.7959268070621617e-01 +5.7748215626209588e-03
1.7500000000000000e+00 +8.5269110161934805e+00 +0.0000000000000000e+00 +1.7948717919307799e+00 -3.0356013126848581e-02 -5.7960562724401066e-01 +5.7762433839129018e-03
1.8000000000000000e+00 +8.5269058587655309e+00 +0.0000000000000000e+00 +1.8461538429534701e+00 -3.0356711713273136e-02 -5.7961893873360171e-01 +5.7776702039161769e-03
1.8500000000000001e+00 +8.5269005560585391e+00 +0.0000000000000000e+00 +1.8974358939613500e+00 -3.0357426519094052e-02 -5.7963261445606151e-01 +5.7791019357936336e-03
1.8999999999999999e+00 +8.5268951080688602e+00 +0.0000000000000000e+00 +1.9487179449540000e+00 -3.0358157486068179e-02 -5.7964665369247625e-01 +5.7805384927080107e-03
1.9500000000000000e+00 +8.5268895148037700e+00 +0.0000000000000000e+00 +1.9999999959310100e+00 -3.0358904555946139e-02 -5.7966105572386228e-01 +5.7819797878210606e-03
2.0000000000000000e+00 +8.5268838253941794e+00 +0.0000000000000000e+00 +2.0508474532398102e+00 -3.0359661128524226e-02 -5.7967569298469268e-01 +5.7834134648693516e-03
2.0499999999999998e+00 +8.5268779929429002e+00 +0.0000000000000000e+00 +2.1016949105324101e+00 -3.0360433372178176e-02 -5.7969068425944470e-01 +5.7848516520399617e-03
2.1000000000000001e+00 +8.5268720174499304e+00 +0.0000000000000000e+00 +2.1525423678083899e+00 -3.0361221184026385e-02 -5.7970602759521361e-01 +5.7862942865798761e-03
2.1499999999999999e+00 +8.5268658989189099e+00 +0.0000000000000000e+00 +2.2033898250673700e+00 -3.0362024461186563e-02 -5.7972172103908060e-01 +5.7877413057359495e-03
2.2000000000000002e+00 +8.5268596373498404e+00 +0.0000000000000000e+00 +2.2542372823089400e+00 -3.0362843100778764e-02 -5.7973776263816523e-01 +5.7891926467554368e-03
2.2500000000000000e+00 +8.5268532327390893e+00 +0.0000000000000000e+00 +2.3050847395326799e+00 -3.0363676999925465e-02 -5.7975415043962863e-01 +5.7906482468860210e-03
2.2999999999999998e+00 +8.5268466850902804e+00 +0.0000000000000000e+00 +2.3559321967382099e+00 -3.0364526055747021e-02 -5.7977088249058939e-01 +5.7921080433749675e-03
2.3500000000000001e+00 +8.5268399943961395e+00 +0.0000000000000000e+00 +2.4067796539251201e+00 -3.0365390165369398e-02 -5.7978795683825957e-01 +5.7935719734705194e-03
2.3999999999999999e+00 +8.5268331606675893e+00 +0.0000000000000000e+00 +2.4576271110930099e+00 -3.0366269225911860e-02 -5.7980537152972655e-01 +5.7950399744196536e-03
2.4500000000000002e+00 +8.5268261838973594e+00 +0.0000000000000000e+00 +2.5084745682414700e+00 -3.0367163134502544e-02 -5.7982312461222640e-01 +5.7965119834709330e-03
2.5000000000000000e+00 +8.5268190640890698e+00 +0.0000000000000000e+00 +2.5593220253701001e+00 -3.0368071788266074e-02 -5.7984121413292589e-01 +5.7979879378722106e-03
2.5499999999999998e+00 +8.5268118012427294e+00 +0.0000000000000000e+00 +2.6101694824785100e+00 -3.0368995084329806e-02 -5.7985963813902952e-01 +5.7994677748717978e-03
2.6000000000000001e+00 +8.5268043953510606e+00 +0.0000000000000000e+00 +2.6610169395662799e+00 -3.0369932919825537e-02 -5.7987839467780988e-01 +5.8009514317187410e-03
2.6499999999999999e+00 +8.5267968464213499e+00 +0.0000000000000000e+00 +2.7118643966330200e+00 -3.0370885191880082e-02 -5.7989748179643941e-01 +5.8024388456611037e-03
2.7000000000000002e+00 +8.5267891544535797e+00 +0.0000000000000000e+00 +2.7627118536783102e+00 -3.0371851797624781e-02 -5.7991689754215758e-01 +5.8039299539477075e-03
2.7500000000000000e+00 +8.5267813194441295e+00 +0.0000000000000000e+00 +2.8135593107017698e+00 -3.0372832634193922e-02 -5.7993663996224265e-01 +5.8054246938278355e-03
2.7999999999999998e+00 +8.5267733413966198e+00 +0.0000000000000000e+00 +2.8644067677029899e+00 -3.0373827598720177e-02 -5.7995670710392822e-01 +5.8069230025503795e-03
2.8500000000000001e+00 +8.5267652203074196e+00 +0.0000000000000000e+00 +2.9152542246815600e+00 -3.0374836588340868e-02 -5.7997709701451472e-01 +5.8084248173649947e-03
2.8999999999999999e+00 +8.5267569561765395e+00 +0.0000000000000000e+00 +2.9661016816370900e+00 -3.0375859500193308e-02 -5.7999780774128529e-01 +5.8099300755212442e-03
2.9500000000000002e+00 +8.5267485490112396e+00 +0.0000000000000000e+00 +3.0169491385691698e+00 -3.0376896231413344e-02 -5.8001883733147785e-01 +5.8114387142682951e-03
3.0000000000000000e+00 +8.5267399988042598e+00 +0.0000000000000000e+00 +3.0677965954773900e+00 -3.0377946679144771e-02 -5.8004018383245304e-01 +5.8129506708566878e-03
3.0499999999999998e+00 +8.5267313055555896e+00 +0.0000000000000000e+00 +3.1186440523613599e+00 -3.0379010740529962e-02 -5.8006184529152505e-01 +5.8144658825365798e-03
3.1000000000000001e+00 +8.5267224692688597e+00 +0.0000000000000000e+00 +3.1694915092206801e+00 -3.0380088312711575e-02 -5.8008381975599066e-01 +5.8159842865580513e-03
3.1499999999999999e+00 +8.5267134899368102e+00 +0.0000000000000000e+00 +3.2203389660549400e+00 -3.0381179292838754e-02 -5.8010610527324158e-01 +5.8175058201722597e-03
3.2000000000000002e+00 +8.5267043675703498e+00 +0.0000000000000000e+00 +3.2711864228637300e+00 -3.0382283578054784e-02 -5.8012869989053839e-01 +5.8190304206291298e-03
3.2500000000000000e+00 +8.5266951021658297e+00 +0.0000000000000000e+00 +3.3220338796466700e+00 -3.0383401065511118e-02 -5.8015160165526380e-01 +5.8205580251799761e-03
3.2999999999999998e+00 +8.5266856937196298e+00 +0.0000000000000000e+00 +3.3728813364033301e+00 -3.0384531652361237e-02 -5.8017480861481041e-01 +5.8220885710763247e-03
3.3500000000000001e+00 +8.5266761422317394e+00 +0.0000000000000000e+00 +3.4237287931333298e+00 -3.0385675235759104e-02 -5.8019831881655259e-01 +5.8236219955696607e-03
3.3999999999999999e+00 +8.5266664477057894e+00 +0.0000000000000000e+00 +3.4745762498362600e+00 -3.0386831712859278e-02 -5.8022213030784586e-01 +5.8251582359113924e-03
3.4500000000000002e+00 +8.5266566101381596e+00 +0.0000000000000000e+00 +3.5254237065117100e+00 -3.0388000980821568e-02 -5.8024624113611067e-01 +5.8266972293537639e-03
3.5000000000000000e+00 +8.5266466295324808e+00 +0.0000000000000000e+00 +3.5762711631592898e+00 -3.0389182936804916e-02 -5.8027064934872141e-01 +5.8282389131486647e-03
3.5499999999999998e+00 +8.5266365058887494e+00 +0.0000000000000000e+00 +3.6271186197785901e+00 -3.0390377477972068e-02 -5.8029535299308932e-01 +5.8297832245485341e-03
3.6000000000000001e+00 +8.5266262391996896e+00 +0.0000000000000000e+00 +3.6779660763692101e+00 -3.0391584501491271e-02 -5.8032035011669003e-01 +5.8313301008066460e-03
3.6499999999999999e+00 +8.5266158294762100e+00 +0.0000000000000000e+00 +3.7288135329307499e+00 -3.0392803904525315e-02 -5.8034563876686907e-01 +5.8328794791750608e-03
3.6999999999999900e+00 +8.5266052767074108e+00 +0.0000000000000000e+00 +3.7796609894627999e+00 -3.0394035584248819e-02 -5.8037121699114680e-01 +5.8344312969078570e-03
3.7499999999999898e+00 +8.5265945809042005e+00 +0.0000000000000000e+00 +3.8305084459649699e+00 -3.0395279437829492e-02 -5.8039708283688651e-01 +5.8359854912576198e-03
3.7999999999999901e+00 +8.5265837420592998e+00 +0.0000000000000000e+00 +3.8813559024368498e+00 -3.0396535362445451e-02 -5.8042323435159793e-01 +5.8375419994786699e-03
3.8499999999999899e+00 +8.5265727601727104e+00 +0.0000000000000000e+00 +3.9322033588780299e+00 -3.0397803255274219e-02 -5.8044966958274347e-01 +5.8391007588250122e-03
3.8999999999999901e+00 +8.5265616352480702e+00 +0.0000000000000000e+00 +3.9830508152881201e+00 -3.0399083013494484e-02 -5.8047638657776679e-01 +5.8406617065506336e-03
3.9499999999999900e+00 +8.5265503672853793e+00 +0.0000000000000000e+00 +4.0338982716667102e+00 -3.0400374533782738e-02 -5.8050338332379470e-01 +5.8422247771092017e-03
3.9999999999999898e+00 +8.5265389562773599e+00 +0.0000000000000000e+00 +4.0847457280134103e+00 -3.0401677706933854e-02 -5.8053065710643148e-01 +5.8437898723946568e-03
4.0499999999999901e+00 +8.5265274022313005e+00 +0.0000000000000000e+00 +4.1355931843278002e+00 -3.0402992419938570e-02 -5.8055820475853326e-01 +5.8453568732926139e-03
4.0999999999999899e+00 +8.5265157051508105e+00 +0.0000000000000000e+00 +4.1864406406094901e+00 -3.0404318559725405e-02 -5.8058602310544039e-01 +5.8469256603383328e-03
4.1499999999999897e+00 +8.5265038650250098e+00 +0.0000000000000000e+00 +4.2372880968580704e+00 -3.0405656013228519e-02 -5.8061410897260213e-01 +5.8484961140676979e-03
4.1999999999999904e+00 +8.5264918818611495e+00 +0.0000000000000000e+00 +4.2881355530731398e+00 -3.0407004667373685e-02 -5.8064245918532731e-01 +5.8500681150145300e-03
4.2499999999999902e+00 +8.5264797556556005e+00 +0.0000000000000000e+00 +4.3389830092543002e+00 -3.0408364409090671e-02 -5.8067107056900602e-01 +5.8516415437129361e-03
4.2999999999999901e+00 +8.5264674864120007e+00 +0.0000000000000000e+00 +4.3898304654011504e+00 -3.0409735125305443e-02 -5.8069993994897073e-01 +5.8532162806958169e-03
4.3499999999999899e+00 +8.5264550741303502e+00 +0.0000000000000000e+00 +4.4406779215132799e+00 -3.0411116702944749e-02 -5.8072906415057779e-01 +5.8547922064957191e-03
4.3999999999999897e+00 +8.5264425188070199e+00 +0.0000000000000000e+00 +4.4915253775902899e+00 -3.0412509028936108e-02 -5.8075843999920918e-01 +5.8563692016448217e-03
4.4499999999999904e+00 +8.5264298204419902e+00 +0.0000000000000000e+00 +4.5423728336317897e+00 -3.0413911990204601e-02 -5.8078806432021479e-01 +5.8579471466743268e-03
4.4999999999999902e+00 +8.5264169790425495e+00 +0.0000000000000000e+00 +4.5932202896373502e+00 -3.0415325473671286e-02 -5.8081793393888459e-01 +5.8595259221141342e-03
4.5499999999999901e+00 +8.5264039945941494e+00 +0.0000000000000000e+00 +4.6440677456066002e+00 -3.0416749366265670e-02 -5.8084804568067216e-01 +5.8611054084952039e-03
4.5999999999999899e+00 +8.5263908671149693e+00 +0.0000000000000000e+00 +4.6949152015391098e+00 -3.0418183554902153e-02 -5.8087839637077432e-01 +5.8626854863450609e-03
4.6499999999999897e+00 +8.5263775965941004e+00 +0.0000000000000000e+00 +4.7457626574344998e+00 -3.0419627926506626e-02 -5.8090898283460657e-01 +5.8642660361928585e-03
4.6999999999999904e+00 +8.5263641830315500e+00 +0.0000000000000000e+00 +4.7966101132923500e+00 -3.0421082367999171e-02 -5.8093980189749428e-01 +5.8658469385660574e-03
4.7499999999999902e+00 +8.5263506264309399e+00 +0.0000000000000000e+00 +4.8474575691122697e+00 -3.0422546766297159e-02 -5.8097085038473006e-01 +5.8674280739910130e-03
4.7999999999999901e+00 +8.5263369267886393e+00 +0.0000000000000000e+00 +4.8983050248938502e+00 -3.0424021008319913e-02 -5.8100212512165494e-01 +5.8690093229938432e-03
4.8499999999999899e+00 +8.5263230841010191e+00 +0.0000000000000000e+00 +4.9491524806366902e+00 -3.0425504980985476e-02 -5.8103362293360361e-01 +5.8705905660998243e-03
4.8999999999999897e+00 +8.5263090983826295e+00 +0.0000000000000000e+00 +4.9999999363403900e+00 -3.0426998571202811e-02 -5.8106534064576409e-01 +5.8721716838318486e-03
4.9499999999999904e+00 +8.5262950649157592e+00 +0.0000000000000000e+00 +5.0505049848957304e+00 -3.0428491512647104e-02 -5.8109705932157074e-01 +5.8737419122168594e-03
4.9999999999999902e+00 +8.5262808896768494e+00 +0.0000000000000000e+00 +5.1010100334114901e+00 -3.0429993720447909e-02 -5.8112898870792307e-01 +5.8753117820121454e-03
5.0499999999999901e+00 +8.5262665726659197e+00 +0.0000000000000000e+00 +5.1515150818872497e+00 -3.0431505083785663e-02 -5.8116112569380429e-01 +5.8768811761366951e-03
5.0999999999999899e+00 +8.5262521138793108e+00 +0.0000000000000000e+00 +5.2020201303226203e+00 -3.0433025491841015e-02 -5.8119346716821785e-01 +5.8784499775088707e-03
5.1499999999999897e+00 +8.5262375133206696e+00 +0.0000000000000000e+00 +5.2525251787172103e+00 -3.0434554833789960e-02 -5.8122601002010266e-01 +5.8800180690454836e-03
5.1999999999999904e+00 +8.5262227709863492e+00 +0.0000000000000000e+00 +5.3030302270706198e+00 -3.0436092998810074e-02 -5.8125875113844427e-01 +5.8815853336629739e-03
5.2499999999999902e+00 +8.5262078868836397e+00 +0.0000000000000000e+00 +5.3535352753824403e+00 -3.0437639876072651e-02 -5.8129168741213388e-01 +5.8831516542758779e-03
5.2999999999999901e+00 +8.5261928610125306e+00 +0.0000000000000000e+00 +5.4040403236522803e+00 -3.0439195354750471e-02 -5.8132481573010908e-01 +5.8847169137983286e-03
5.3499999999999899e+00 +8.5261776933584805e+00 +0.0000000000000000e+00 +5.4545453718797399e+00 -3.0440759324020943e-02 -5.8135813298141004e-01 +5.8862809951446410e-03
5.3999999999999897e+00 +8.5261623839360308e+00 +0.0000000000000000e+00 +5.5050504200644301e+00 -3.0442331673047177e-02 -5.8139163605484101e-01 +5.8878437812256460e-03
5.4499999999999904e+00 +8.5261469327415398e+00 +0.0000000000000000e+00 +5.5555554682059496e+00 -3.0443912290998344e-02 -5.8142532183933560e-01 +5.8894051549526257e-03
5.4999999999999902e+00 +8.5261313397750200e+00 +0.0000000000000000e+00 +5.6060605163038897e+00 -3.0445501067040245e-02 -5.8145918722378820e-01 +5.8909649992354603e-03
5.5499999999999901e+00 +8.5261156050328299e+00 +0.0000000000000000e+00 +5.6565655643578596e+00 -3.0447097890338358e-02 -5.8149322909710910e-01 +5.8925231969832181e-03
5.5999999999999899e+00 +8.5260997285186004e+00 +0.0000000000000000e+00 +5.7070706123674597e+00 -3.0448702650053134e-02 -5.8152744434813997e-01 +5.8940796311032313e-03
5.6499999999999897e+00 +8.5260837102287006e+00 +0.0000000000000000e+00 +5.7575756603323001e+00 -3.0450315235346175e-02 -5.8156182986576677e-01 +5.8956341845022827e-03
5.6999999999999904e+00 +8.5260675501704100e+00 +0.0000000000000000e+00 +5.8080807082519703e+00 -3.0451935535372350e-02 -5.8159638253877743e-01 +5.8971867400850675e-03
5.7499999999999902e+00 +8.5260512483400799e+00 +0.0000000000000000e+00 +5.8585857561260797e+00 -3.0453563439289226e-02 -5.8163109925603151e-01 +5.8987371807560007e-03
5.7999999999999901e+00 +8.5260348047340795e+00 +0.0000000000000000e+00 +5.9090908039542303e+00 -3.0455198836252223e-02 -5.8166597690637389e-01 +5.9002853894182822e-03
5.8499999999999899e+00 +8.5260182193524106e+00 +0.0000000000000000e+00 +5.9595958517360303e+00 -3.0456841615413045e-02 -5.8170101237860838e-01 +5.9018312489735663e-03
5.8999999999999897e+00 +8.5260014921987004e+00 +0.0000000000000000e+00 +6.0101008994710599e+00 -3.0458491665891249e-02 -5.8173620256228020e-01 +5.9033746424314026e-03
