# trajectory
# s[mm] rx[mm] ry[mm] rz[mm] px[rad] py[rad] pz[rad]
0.0000000000000000e+00 +8.3650000000000002e+00 +0.0000000000000000e+00 +0.0000000000000000e+00 +0.0000000000000000e+00 +0.0000000000000000e+00 +1.0000000000000000e+00
5.0000000000000003e-02 +8.3649999310010923e+00 +0.0000000000000000e+00 +4.9999999999936526e-02 -2.7599577809908723e-06 +0.0000000000000000e+00 +9.9999999999619127e-01
1.0000000000000001e-01 +8.3649997240040594e+00 +0.0000000000000000e+00 +9.9999999999492176e-02 -5.5199253299199931e-06 +0.0000000000000000e+00 +9.9999999998476519e-01
1.5000000000000002e-01 +8.3649993790083652e+00 +0.0000000000000000e+00 +1.4999999999828609e-01 -8.2799045745331979e-06 +0.0000000000000000e+00 +9.9999999996572153e-01
2.0000000000000001e-01 +8.3649988960133754e+00 +0.0000000000000000e+00 +1.9999999999593737e-01 -1.1039897438714788e-05 +0.0000000000000000e+00 +9.9999999993906030e-01
2.5000000000000000e-01 +8.3649982750183618e+00 +0.0000000000000000e+00 +2.4999999999206515e-01 -1.3799905842487621e-05 +0.0000000000000000e+00 +9.9999999990478128e-01
2.9999999999999999e-01 +8.3649975160225001e+00 +0.0000000000000000e+00 +2.9999999998628851e-01 -1.6559931702013194e-05 +0.0000000000000000e+00 +9.9999999986288435e-01
3.4999999999999998e-01 +8.3649966190248684e+00 +0.0000000000000000e+00 +3.4999999997822662e-01 -1.9319976929591740e-05 +0.0000000000000000e+00 +9.9999999981336929e-01
3.9999999999999997e-01 +8.3649955840244523e+00 +0.0000000000000000e+00 +3.9999999996749847e-01 -2.2080043433662312e-05 +0.0000000000000000e+00 +9.9999999975623588e-01
4.4999999999999996e-01 +8.3649944110201382e+00 +0.0000000000000000e+00 +4.4999999995372320e-01 -2.4840133118802869e-05 +0.0000000000000000e+00 +9.9999999969148390e-01
4.9999999999999994e-01 +8.3649931000107216e+00 +0.0000000000000000e+00 +4.9999999993651989e-01 -2.7600247885730372e-05 +0.0000000000000000e+00 +9.9999999961911312e-01
5.4999999999999993e-01 +8.3649916509949005e+00 +0.0000000000000000e+00 +5.4999999991550752e-01 -3.0360389631300860e-05 +0.0000000000000000e+00 +9.9999999953912333e-01
5.9999999999999998e-01 +8.3649900639712769e+00 +0.0000000000000000e+00 +5.9999999989030517e-01 -3.3120560248509546e-05 +0.0000000000000000e+00 +9.9999999945151419e-01
6.5000000000000002e-01 +8.3649883389383621e+00 +0.0000000000000000e+00 +6.4999999986053192e-01 -3.5880761626490894e-05 +0.0000000000000000e+00 +9.9999999935628536e-01
7.0000000000000007e-01 +8.3649864758945700e+00 +0.0000000000000000e+00 +6.9999999982580674e-01 -3.8640995650518706e-05 +0.0000000000000000e+00 +9.9999999925343663e-01
7.5000000000000011e-01 +8.3649844748382218e+00 +0.0000000000000000e+00 +7.4999999978574861e-01 -4.1401264202006219e-05 +0.0000000000000000e+00 +9.9999999914296755e-01
8.0000000000000016e-01 +8.3649823357675430e+00 +0.0000000000000000e+00 +7.9999999973997649e-01 -4.4161569158506179e-05 +0.0000000000000000e+00 +9.9999999902487779e-01
8.5000000000000020e-01 +8.3649800586806684e+00 +0.0000000000000000e+00 +8.4999999968810935e-01 -4.6921912393710924e-05 +0.0000000000000000e+00 +9.9999999889916691e-01
9.0000000000000024e-01 +8.3649776435756351e+00 +0.0000000000000000e+00 +8.9999999962976618e-01 -4.9682295777452467e-05 +0.0000000000000000e+00 +9.9999999876583456e-01
9.5000000000000029e-01 +8.3649750904503897e+00 +0.0000000000000000e+00 +9.4999999956456582e-01 -5.2442721175702588e-05 +0.0000000000000000e+00 +9.9999999862488032e-01
1.0000000000000002e+00 +8.3649723993027862e+00 +0.0000000000000000e+00 +9.9999999949212715e-01 -5.5203190450572915e-05 +0.0000000000000000e+00 +9.9999999847630372e-01
1.0500000000000003e+00 +8.3649695701305831e+00 +0.0000000000000000e+00 +1.0499999994120690e+00 -5.7963705460315003e-05 +0.0000000000000000e+00 +9.9999999832010422e-01
1.1000000000000003e+00 +8.3649666029314478e+00 +0.0000000000000000e+00 +1.0999999993240104e+00 -6.0724268059320411e-05 +0.0000000000000000e+00 +9.9999999815628138e-01
1.1500000000000004e+00 +8.3649634977029539e+00 +0.0000000000000000e+00 +1.1499999992275700e+00 -6.3484880098120782e-05 +0.0000000000000000e+00 +9.9999999798483474e-01
1.2000000000000004e+00 +8.3649602544425825e+00 +0.0000000000000000e+00 +1.1999999991223667e+00 -6.6245543423387954e-05 +0.0000000000000000e+00 +9.9999999780576376e-01
1.2500000000000004e+00 +8.3649568731477260e+00 +0.0000000000000000e+00 +1.2499999990080193e+00 -6.9006259877933988e-05 +0.0000000000000000e+00 +9.9999999761906777e-01
1.3000000000000005e+00 +8.3649533538156788e+00 +0.0000000000000000e+00 +1.2999999988841464e+00 -7.1767031300711310e-05 +0.0000000000000000e+00 +9.9999999742474632e-01
1.3500000000000005e+00 +8.3649496964436487e+00 +0.0000000000000000e+00 +1.3499999987503668e+00 -7.4527859526812734e-05 +0.0000000000000000e+00 +9.9999999722279875e-01
1.4000000000000006e+00 +8.3649459010287490e+00 +0.0000000000000000e+00 +1.3999999986062992e+00 -7.7288746387471573e-05 +0.0000000000000000e+00 +9.9999999701322451e-01
1.4500000000000006e+00 +8.3649419675680026e+00 +0.0000000000000000e+00 +1.4499999984515621e+00 -8.0049693710061704e-05 +0.0000000000000000e+00 +9.9999999679602292e-01
1.5000000000000007e+00 +8.3649378960583398e+00 +0.0000000000000000e+00 +1.4999999982857743e+00 -8.2810703318097665e-05 +0.0000000000000000e+00 +9.9999999657119332e-01
1.5500000000000007e+00 +8.3649336864966024e+00 +0.0000000000000000e+00 +1.5499999981085544e+00 -8.5571777031234723e-05 +0.0000000000000000e+00 +9.9999999633873504e-01
1.6000000000000008e+00 +8.3649293388795378e+00 +0.0000000000000000e+00 +1.5999999979195207e+00 -8.8332916665268926e-05 +0.0000000000000000e+00 +9.9999999609864743e-01
1.6500000000000008e+00 +8.3649248532038065e+00 +0.0000000000000000e+00 +1.6499999977182920e+00 -9.1094124032137228e-05 +0.0000000000000000e+00 +9.9999999585092980e-01
1.7000000000000008e+00 +8.3649202294659766e+00 +0.0000000000000000e+00 +1.6999999975044866e+00 -9.3855400939917526e-05 +0.0000000000000000e+00 +9.9999999559558139e-01
1.7500000000000009e+00 +8.3649154676625237e+00 +0.0000000000000000e+00 +1.7499999972777229e+00 -9.6616749192828758e-05 +0.0000000000000000e+00 +9.9999999533260142e-01
1.8000000000000009e+00 +8.3649105677898383e+00 +0.0000000000000000e+00 +1.7999999970376195e+00 -9.9378170591230957e-05 +0.0000000000000000e+00 +9.9999999506198911e-01
1.8500000000000010e+00 +8.3649055298442168e+00 +0.0000000000000000e+00 +1.8499999967837946e+00 -1.0213966693162537e-04 +0.0000000000000000e+00 +9.9999999478374368e-01
1.9000000000000010e+00 +8.3649003538218665e+00 +0.0000000000000000e+00 +1.8999999965158665e+00 -1.0490124000665447e-04 +0.0000000000000000e+00 +9.9999999449786436e-01
1.9500000000000011e+00 +8.3648950397189079e+00 +0.0000000000000000e+00 +1.9499999962334538e+00 -1.0766289160510210e-04 +0.0000000000000000e+00 +9.9999999420435037e-01
2.0000000000000009e+00 +8.3648895875313691e+00 +0.0000000000000000e+00 +1.9999999959361743e+00 -1.1042462351189347e-04 +0.0000000000000000e+00 +9.9999999390320071e-01
2.0500000000000007e+00 +8.3648839972551894e+00 +0.0000000000000000e+00 +2.0499999956236463e+00 -1.1318643750778914e-04 +0.0000000000000000e+00 +9.9999999359441460e-01
2.1000000000000005e+00 +8.3648782688862209e+00 +0.0000000000000000e+00 +2.0999999952954882e+00 -1.1594833536601725e-04 +0.0000000000000000e+00 +9.9999999327799116e-01
2.1500000000000004e+00 +8.3648724024202252e+00 +0.0000000000000000e+00 +2.1499999949513180e+00 -1.1871031884890581e-04 +0.0000000000000000e+00 +9.9999999295392950e-01
2.2000000000000002e+00 +8.3648663978528788e+00 +0.0000000000000000e+00 +2.1999999945907538e+00 -1.2147238970757660e-04 +0.0000000000000000e+00 +9.9999999262222872e-01
2.2500000000000000e+00 +8.3648602551797691e+00 +0.0000000000000000e+00 +2.2499999942134137e+00 -1.2423454968194520e-04 +0.0000000000000000e+00 +9.9999999228288783e-01
2.2999999999999998e+00 +8.3648539743963966e+00 +0.0000000000000000e+00 +2.2999999938189153e+00 -1.2699680050072115e-04 +0.0000000000000000e+00 +9.9999999193590583e-01
2.3499999999999996e+00 +8.3648475554981765e+00 +0.0000000000000000e+00 +2.3499999934068767e+00 -1.2975914388140783e-04 +0.0000000000000000e+00 +9.9999999158128183e-01
2.3999999999999995e+00 +8.3648409984804371e+00 +0.0000000000000000e+00 +2.3999999929769160e+00 -1.3252158153030270e-04 +0.0000000000000000e+00 +9.9999999121901473e-01
2.4499999999999993e+00 +8.3648343033384229e+00 +0.0000000000000000e+00 +2.4499999925286509e+00 -1.3528411514249724e-04 +0.0000000000000000e+00 +9.9999999084910363e-01
2.4999999999999991e+00 +8.3648274700672953e+00 +0.0000000000000000e+00 +2.4999999920616989e+00 -1.3804674640187703e-04 +0.0000000000000000e+00 +9.9999999047154742e-01
2.5499999999999989e+00 +8.3648204986621284e+00 +0.0000000000000000e+00 +2.5499999915756781e+00 -1.4080947698112185e-04 +0.0000000000000000e+00 +9.9999999008634510e-01
2.5999999999999988e+00 +8.3648133891179146e+00 +0.0000000000000000e+00 +2.5999999910702059e+00 -1.4357230854170568e-04 +0.0000000000000000e+00 +9.9999998969349557e-01
2.6499999999999986e+00 +8.3648061414295629e+00 +0.0000000000000000e+00 +2.6499999905449001e+00 -1.4633524273389677e-04 +0.0000000000000000e+00 +9.9999998929299783e-01
2.6999999999999984e+00 +8.3647987555919023e+00 +0.0000000000000000e+00 +2.6999999899993781e+00 -1.4909828119675768e-04 +0.0000000000000000e+00 +9.9999998888485075e-01
2.7499999999999982e+00 +8.3647912315996784e+00 +0.0000000000000000e+00 +2.7499999894332574e+00 -1.5186142555814538e-04 +0.0000000000000000e+00 +9.9999998846905314e-01
2.7999999999999980e+00 +8.3647835694475550e+00 +0.0000000000000000e+00 +2.7999999888461558e+00 -1.5462467743471121e-04 +0.0000000000000000e+00 +9.9999998804560397e-01
2.8499999999999979e+00 +8.3647757691301159e+00 +0.0000000000000000e+00 +2.8499999882376903e+00 -1.5738803843190100e-04 +0.0000000000000000e+00 +9.9999998761450204e-01
2.8999999999999977e+00 +8.3647678306418669e+00 +0.0000000000000000e+00 +2.8999999876074782e+00 -1.6015151014395508e-04 +0.0000000000000000e+00 +9.9999998717574623e-01
2.9499999999999975e+00 +8.3647597539772303e+00 +0.0000000000000000e+00 +2.9499999869551372e+00 -1.6291509415390835e-04 +0.0000000000000000e+00 +9.9999998672933532e-01
2.9999999999999973e+00 +8.3647515391305536e+00 +0.0000000000000000e+00 +2.9999999862802844e+00 -1.6567879203359032e-04 +0.0000000000000000e+00 +9.9999998627526820e-01
3.0499999999999972e+00 +8.3647431860961028e+00 +0.0000000000000000e+00 +3.0499999855825366e+00 -1.6844260534362512e-04 +0.0000000000000000e+00 +9.9999998581354366e-01
3.0999999999999970e+00 +8.3647346948680692e+00 +0.0000000000000000e+00 +3.0999999848615110e+00 -1.7120653563343157e-04 +0.0000000000000000e+00 +9.9999998534416035e-01
3.1499999999999968e+00 +8.3647260654405642e+00 +0.0000000000000000e+00 +3.1499999841168247e+00 -1.7397058444122327e-04 +0.0000000000000000e+00 +9.9999998486711716e-01
3.1999999999999966e+00 +8.3647172978076245e+00 +0.0000000000000000e+00 +3.1999999833480950e+00 -1.7673475329400850e-04 +0.0000000000000000e+00 +9.9999998438241278e-01
3.2499999999999964e+00 +8.3647083919632088e+00 +0.0000000000000000e+00 +3.2499999825549386e+00 -1.7949904370759043e-04 +0.0000000000000000e+00 +9.9999998389004596e-01
3.2999999999999963e+00 +8.3646993479012028e+00 +0.0000000000000000e+00 +3.2999999817369723e+00 -1.8226345718656701e-04 +0.0000000000000000e+00 +9.9999998339001539e-01
3.3499999999999961e+00 +8.3646901656154142e+00 +0.0000000000000000e+00 +3.3499999808938128e+00 -1.8502799522433110e-04 +0.0000000000000000e+00 +9.9999998288231984e-01
3.3999999999999959e+00 +8.3646808450995795e+00 +0.0000000000000000e+00 +3.3999999800250769e+00 -1.8779265930307049e-04 +0.0000000000000000e+00 +9.9999998236695786e-01
3.4499999999999957e+00 +8.3646713863473590e+00 +0.0000000000000000e+00 +3.4499999791303808e+00 -1.9055745089376790e-04 +0.0000000000000000e+00 +9.9999998184392824e-01
3.4999999999999956e+00 +8.3646617893523398e+00 +0.0000000000000000e+00 +3.4999999782093418e+00 -1.9332237145620106e-04 +0.0000000000000000e+00 +9.9999998131322965e-01
3.5499999999999954e+00 +8.3646520541080385e+00 +0.0000000000000000e+00 +3.5499999772615762e+00 -1.9608742243894269e-04 +0.0000000000000000e+00 +9.9999998077486063e-01
3.5999999999999952e+00 +8.3646421806078983e+00 +0.0000000000000000e+00 +3.5999999762867003e+00 -1.9885260527936058e-04 +0.0000000000000000e+00 +9.9999998022881997e-01
3.6499999999999950e+00 +8.3646321688452900e+00 +0.0000000000000000e+00 +3.6499999752843304e+00 -2.0161792140361757e-04 +0.0000000000000000e+00 +9.9999997967510612e-01
3.6999999999999948e+00 +8.3646220188135132e+00 +0.0000000000000000e+00 +3.6999999742540828e+00 -2.0438337222667164e-04 +0.0000000000000000e+00 +9.9999997911371785e-01
3.7499999999999947e+00 +8.3646117305057981e+00 +0.0000000000000000e+00 +3.7499999731955742e+00 -2.0714895915227590e-04 +0.0000000000000000e+00 +9.9999997854465361e-01
3.7999999999999945e+00 +8.3646013039153058e+00 +0.0000000000000000e+00 +3.7999999721084206e+00 -2.0991468357297864e-04 +0.0000000000000000e+00 +9.9999997796791207e-01
3.8499999999999943e+00 +8.3645907390351262e+00 +0.0000000000000000e+00 +3.8499999709922377e+00 -2.1268054687012330e-04 +0.0000000000000000e+00 +9.9999997738349178e-01
3.8999999999999941e+00 +8.3645800358582818e+00 +0.0000000000000000e+00 +3.8999999698466419e+00 -2.1544655041384853e-04 +0.0000000000000000e+00 +9.9999997679139119e-01
3.9499999999999940e+00 +8.3645691943777258e+00 +0.0000000000000000e+00 +3.9499999686712490e+00 -2.1821269556308829e-04 +0.0000000000000000e+00 +9.9999997619160896e-01
3.9999999999999938e+00 +8.3645582145863440e+00 +0.0000000000000000e+00 +3.9999999674656750e+00 -2.2097898366557172e-04 +0.0000000000000000e+00 +9.9999997558414355e-01
4.0499999999999936e+00 +8.3645470964769544e+00 +0.0000000000000000e+00 +4.0499999662295352e+00 -2.2374541605771079e-04 +0.0000000000000000e+00 +9.9999997496899351e-01
4.0999999999999934e+00 +8.3645358400423113e+00 +0.0000000000000000e+00 +4.0999999649624463e+00 -2.2651199406336267e-04 +0.0000000000000000e+00 +9.9999997434615739e-01
4.1499999999999932e+00 +8.3645244452750998e+00 +0.0000000000000000e+00 +4.1499999636640235e+00 -2.2927871899259216e-04 +0.0000000000000000e+00 +9.9999997371563365e-01
4.1999999999999931e+00 +8.3645129121679425e+00 +0.0000000000000000e+00 +4.1999999623338820e+00 -2.3204559214155926e-04 +0.0000000000000000e+00 +9.9999997307742072e-01
4.2499999999999929e+00 +8.3645012407133947e+00 +0.0000000000000000e+00 +4.2499999609716372e+00 -2.3481261479251910e-04 +0.0000000000000000e+00 +9.9999997243151706e-01
4.2999999999999927e+00 +8.3644894309039497e+00 +0.0000000000000000e+00 +4.2999999595769056e+00 -2.3757978821382201e-04 +0.0000000000000000e+00 +9.9999997177792121e-01
4.3499999999999925e+00 +8.3644774827320383e+00 +0.0000000000000000e+00 +4.3499999581493016e+00 -2.4034711365991351e-04 +0.0000000000000000e+00 +9.9999997111663153e-01
4.3999999999999924e+00 +8.3644653961900293e+00 +0.0000000000000000e+00 +4.3999999566884407e+00 -2.4311459237133431e-04 +0.0000000000000000e+00 +9.9999997044764655e-01
4.4499999999999922e+00 +8.3644531712702275e+00 +0.0000000000000000e+00 +4.4499999551939382e+00 -2.4588222557472036e-04 +0.0000000000000000e+00 +9.9999996977096461e-01
4.4999999999999920e+00 +8.3644408079648773e+00 +0.0000000000000000e+00 +4.4999999536654087e+00 -2.4865001448280276e-04 +0.0000000000000000e+00 +9.9999996908658417e-01
4.5499999999999918e+00 +8.3644283062661646e+00 +0.0000000000000000e+00 +4.5499999521024677e+00 -2.5141796029440788e-04 +0.0000000000000000e+00 +9.9999996839450367e-01
4.5999999999999917e+00 +8.3644156661662130e+00 +0.0000000000000000e+00 +4.5999999505047304e+00 -2.5418606419445731e-04 +0.0000000000000000e+00 +9.9999996769472144e-01
4.6499999999999915e+00 +8.3644028876570911e+00 +0.0000000000000000e+00 +4.6499999488718116e+00 -2.5695432735396787e-04 +0.0000000000000000e+00 +9.9999996698723581e-01
4.6999999999999913e+00 +8.3643899707308051e+00 +0.0000000000000000e+00 +4.6999999472033256e+00 -2.5972275093005158e-04 +0.0000000000000000e+00 +9.9999996627204524e-01
4.7499999999999911e+00 +8.3643769153793066e+00 +0.0000000000000000e+00 +4.7499999454988879e+00 -2.6249133606591571e-04 +0.0000000000000000e+00 +9.9999996554914816e-01
4.7999999999999909e+00 +8.3643637215944882e+00 +0.0000000000000000e+00 +4.7999999437581122e+00 -2.6526008389086275e-04 +0.0000000000000000e+00 +9.9999996481854281e-01
4.8499999999999908e+00 +8.3643503893681874e+00 +0.0000000000000000e+00 +4.8499999419806139e+00 -2.6802899552029041e-04 +0.0000000000000000e+00 +9.9999996408022762e-01
4.8999999999999906e+00 +8.3643369186921870e+00 +0.0000000000000000e+00 +4.8999999401660066e+00 -2.7079807205569165e-04 +0.0000000000000000e+00 +9.9999996333420094e-01
4.9499999999999904e+00 +8.3643233095582143e+00 +0.0000000000000000e+00 +4.9499999383139048e+00 -2.7356731458465461e-04 +0.0000000000000000e+00 +9.9999996258046098e-01
4.9999999999999902e+00 +8.3643095619579437e+00 +0.0000000000000000e+00 +4.9999999364239240e+00 -2.7633672418086265e-04 +0.0000000000000000e+00 +9.9999996181900619e-01
5.0499999999999901e+00 +8.3642956758829943e+00 +0.0000000000000000e+00 +5.0499999344956770e+00 -2.7910630190409438e-04 +0.0000000000000000e+00 +9.9999996104983480e-01
5.0999999999999899e+00 +8.3642816513249336e+00 +0.0000000000000000e+00 +5.0999999325287790e+00 -2.8187604880022354e-04 +0.0000000000000000e+00 +9.9999996027294524e-01
5.1499999999999897e+00 +8.3642674882752779e+00 +0.0000000000000000e+00 +5.1499999305228430e+00 -2.8464596590121907e-04 +0.0000000000000000e+00 +9.9999995948833575e-01
5.1999999999999895e+00 +8.3642531867254899e+00 +0.0000000000000000e+00 +5.1999999284774834e+00 -2.8741605422514513e-04 +0.0000000000000000e+00 +9.9999995869600455e-01
5.2499999999999893e+00 +8.3642387466669845e+00 +0.0000000000000000e+00 +5.2499999263923147e+00 -2.9018631477616103e-04 +0.0000000000000000e+00 +9.9999995789594998e-01
5.2999999999999892e+00 +8.3642241680911251e+00 +0.0000000000000000e+00 +5.2999999242669498e+00 -2.9295674854452121e-04 +0.0000000000000000e+00 +9.9999995708817035e-01
5.3499999999999890e+00 +8.3642094509892271e+00 +0.0000000000000000e+00 +5.3499999221010031e+00 -2.9572735650657526e-04 +0.0000000000000000e+00 +9.9999995627266391e-01
5.3999999999999888e+00 +8.3641945953525560e+00 +0.0000000000000000e+00 +5.3999999198940873e+00 -2.9849813962476792e-04 +0.0000000000000000e+00 +9.9999995544942888e-01
5.4499999999999886e+00 +8.3641796011723297e+00 +0.0000000000000000e+00 +5.4499999176458171e+00 -3.0126909884763896e-04 +0.0000000000000000e+00 +9.9999995461846358e-01
5.4999999999999885e+00 +8.3641644684397196e+00 +0.0000000000000000e+00 +5.4999999153558052e+00 -3.0404023510982332e-04 +0.0000000000000000e+00 +9.9999995377976625e-01
5.5499999999999883e+00 +8.3641491971458528e+00 +0.0000000000000000e+00 +5.5499999130236652e+00 -3.0681154933205097e-04 +0.0000000000000000e+00 +9.9999995293333510e-01
5.5999999999999881e+00 +8.3641337872818067e+00 +0.0000000000000000e+00 +5.5999999106490099e+00 -3.0958304242114694e-04 +0.0000000000000000e+00 +9.9999995207916836e-01
5.6499999999999879e+00 +8.3641182388386159e+00 +0.0000000000000000e+00 +5.6499999082314529e+00 -3.1235471527003123e-04 +0.0000000000000000e+00 +9.9999995121726437e-01
5.6999999999999877e+00 +8.3641025518072691e+00 +0.0000000000000000e+00 +5.6999999057706070e+00 -3.1512656875771892e-04 +0.0000000000000000e+00 +9.9999995034762124e-01
5.7499999999999876e+00 +8.3640867261787140e+00 +0.0000000000000000e+00 +5.7499999032660858e+00 -3.1789860374932007e-04 +0.0000000000000000e+00 +9.9999994947023718e-01
5.7999999999999874e+00 +8.3640707619438537e+00 +0.0000000000000000e+00 +5.7999999007175020e+00 -3.2067082109603963e-04 +0.0000000000000000e+00 +9.9999994858511054e-01
5.8499999999999872e+00 +8.3640546590935507e+00 +0.0000000000000000e+00 +5.8499998981244676e+00 -3.2344322163517758e-04 +0.0000000000000000e+00 +9.9999994769223943e-01
5.8999999999999870e+00 +8.3640384176186231e+00 +0.0000000000000000e+00 +5.8999998954865962e+00 -3.2621580619012869e-04 +0.0000000000000000e+00 +9.9999994679162207e-01
