# field on trajectory
# s[mm] rx[mm] ry[mm] rz[mm] bx[T] by[T] bz[T]
0.0000000000000000e+00 +8.5270000000000206e+00 +0.0000000000000000e+00 +0.0000000000000000e+00 -2.9028150964296184e-02 -5.5011102239590082e-01 +5.3754869802190306e-03
5.0000000000000003e-02 +8.5269999309457507e+00 +0.0000000000000000e+00 +4.9999999999936401e-02 -2.9028126564541110e-02 -5.5010965538951795e-01 +5.3753639897919040e-03
1.0000000000000001e-01 +8.5269997237846802e+00 +0.0000000000000000e+00 +9.9999999999491399e-02 -2.9028124208678542e-02 -5.5010867424289545e-01 +5.3752474536961879e-03
1.4999999999999999e-01 +8.5269993785186706e+00 +0.0000000000000000e+00 +1.4999999999828301e-01 -2.9028143787315681e-02 -5.5010807827871577e-01 +5.3751373834258730e-03
2.0000000000000001e-01 +8.5269988951477007e+00 +0.0000000000000000e+00 +1.9999999999593099e-01 -2.9028185191060582e-02 -5.5010786681969226e-01 +5.3750337904756289e-03
2.5000000000000000e-01 +8.5269982736681396e+00 +0.0000000000000000e+00 +2.4999999999205300e-01 -2.9028248310522847e-02 -5.5010803918858076e-01 +5.3749366863408846e-03
2.9999999999999999e-01 +8.5269975140799907e+00 +0.0000000000000000e+00 +2.9999999998626697e-01 -2.9028333036311013e-02 -5.5010859470812890e-01 +5.3748460825172976e-03
3.4999999999999998e-01 +8.5269966163905302e+00 +0.0000000000000000e+00 +3.4999999997819298e-01 -2.9028439259031296e-02 -5.5010953270104912e-01 +5.3747619905004547e-03
4.0000000000000002e-01 +8.5269955805888493e+00 +0.0000000000000000e+00 +3.9999999996744801e-01 -2.9028566869297136e-02 -5.5011085249020131e-01 +5.3746844217876571e-03
4.5000000000000001e-01 +8.5269944066858407e+00 +0.0000000000000000e+00 +4.4999999995365197e-01 -2.9028715757714315e-02 -5.5011255339830589e-01 +5.3746133878750362e-03
5.0000000000000000e-01 +8.5269930946742498e+00 +0.0000000000000000e+00 +4.9999999993642202e-01 -2.9028885814896020e-02 -5.5011463474823086e-01 +5.3745489002603791e-03
5.5000000000000004e-01 +8.5269916445577092e+00 +0.0000000000000000e+00 +5.4999999991537796e-01 -2.9029076931452003e-02 -5.5011709586278212e-01 +5.3744909704410105e-03
5.9999999999999998e-01 +8.5269900563289394e+00 +0.0000000000000000e+00 +5.9999999989013697e-01 -2.9029288997996869e-02 -5.5011993606486154e-01 +5.3744396099153404e-03
6.5000000000000002e-01 +8.5269883299988596e+00 +0.0000000000000000e+00 +6.4999999986031898e-01 -2.9029521905139192e-02 -5.5012315467725703e-01 +5.3743948301807334e-03
6.9999999999999996e-01 +8.5269864655601904e+00 +0.0000000000000000e+00 +6.9999999982554195e-01 -2.9029775543495201e-02 -5.5012675102290276e-01 +5.3743566427360808e-03
7.5000000000000000e-01 +8.5269844630165608e+00 +0.0000000000000000e+00 +7.4999999978542398e-01 -2.9030049803678067e-02 -5.5013072442467292e-01 +5.3743250590797065e-03
8.0000000000000004e-01 +8.5269823223679904e+00 +0.0000000000000000e+00 +7.9999999973958402e-01 -2.9030344576303293e-02 -5.5013507420548324e-01 +5.3743000907103475e-03
8.4999999999999998e-01 +8.5269800436108198e+00 +0.0000000000000000e+00 +8.4999999968764095e-01 -2.9030659751988878e-02 -5.5013979968829230e-01 +5.3742817491271534e-03
9.0000000000000002e-01 +8.5269776267450705e+00 +0.0000000000000000e+00 +8.9999999962921295e-01 -2.9030995221352607e-02 -5.5014490019604934e-01 +5.3742700458291161e-03
9.4999999999999996e-01 +8.5269750717743609e+00 +0.0000000000000000e+00 +9.4999999956391801e-01 -2.9031350875012144e-02 -5.5015037505169317e-01 +5.3742649923150298e-03
1.0000000000000000e+00 +8.5269723786986997e+00 +0.0000000000000000e+00 +9.9999999949137597e-01 -2.9031726603587864e-02 -5.5015622357820593e-01 +5.3742666000840085e-03
1.0500000000000000e+00 +8.5269695475144491e+00 +0.0000000000000000e+00 +1.0499999994111999e+00 -2.9032122297702856e-02 -5.5016244509861145e-01 +5.3742748806354284e-03
1.1000000000000001e+00 +8.5269665782288904e+00 +0.0000000000000000e+00 +1.0999999993230201e+00 -2.9032537847977609e-02 -5.5016903893587177e-01 +5.3742898454678780e-03
1.1499999999999999e+00 +8.5269634708311095e+00 +0.0000000000000000e+00 +1.1499999992264500e+00 -2.9032973145040993e-02 -5.5017600441309611e-01 +5.3743115060811844e-03
1.2000000000000000e+00 +8.5269602253283701e+00 +0.0000000000000000e+00 +1.1999999991210999e+00 -2.9033428079516602e-02 -5.5018334085327802e-01 +5.3743398739738010e-03
1.2500000000000000e+00 +8.5269568417206791e+00 +0.0000000000000000e+00 +1.2499999990065900e+00 -2.9033902542032496e-02 -5.5019104757948045e-01 +5.3743749606445894e-03
1.3000000000000000e+00 +8.5269533200044005e+00 +0.0000000000000000e+00 +1.2999999988825499e+00 -2.9034396423219845e-02 -5.5019912391480807e-01 +5.3744167775925267e-03
1.3500000000000001e+00 +8.5269496601795307e+00 +0.0000000000000000e+00 +1.3499999987485900e+00 -2.9034909613710271e-02 -5.5020756918235514e-01 +5.3744653363161539e-03
1.3999999999999999e+00 +8.5269458622533403e+00 +0.0000000000000000e+00 +1.3999999986043401e+00 -2.9035442004134594e-02 -5.5021638270517970e-01 +5.3745206483132874e-03
1.4500000000000000e+00 +8.5269419262185693e+00 +0.0000000000000000e+00 +1.4499999984494001e+00 -2.9035993485131018e-02 -5.5022556380646026e-01 +5.3745827250825454e-03
1.5000000000000000e+00 +8.5269378520752106e+00 +0.0000000000000000e+00 +1.4999999982833900e+00 -2.9036563947337127e-02 -5.5023511180933848e-01 +5.3746515781217660e-03
1.5500000000000000e+00 +8.5269336398268898e+00 +0.0000000000000000e+00 +1.5499999981059500e+00 -2.9037153281391254e-02 -5.5024502603694558e-01 +5.3747272189282203e-03
1.6000000000000001e+00 +8.5269292894736299e+00 +0.0000000000000000e+00 +1.5999999979166799e+00 -2.9037761377935230e-02 -5.5025530581245485e-01 +5.3748096589991065e-03
1.6499999999999999e+00 +8.5269248010117700e+00 +0.0000000000000000e+00 +1.6499999977152000e+00 -2.9038388127614601e-02 -5.5026595045908122e-01 +5.3748989098315342e-03
1.7000000000000000e+00 +8.5269201744449692e+00 +0.0000000000000000e+00 +1.6999999975011300e+00 -2.9039033421074462e-02 -5.5027695930000242e-01 +5.3749949829216869e-03
1.7500000000000000e+00 +8.5269154097695701e+00 +0.0000000000000000e+00 +1.7499999972740901e+00 -2.9039697148965093e-02 -5.5028833165846458e-01 +5.3750978897658553e-03
1.8000000000000000e+00 +8.5269105069892195e+00 +0.0000000000000000e+00 +1.7999999970336999e+00 -2.9040379201936507e-02 -5.5030006685767585e-01 +5.3752076418593451e-03
1.8500000000000001e+00 +8.5269054661039299e+00 +0.0000000000000000e+00 +1.8499999967795799e+00 -2.9041079470642644e-02 -5.5031216422088691e-01 +5.3753242506972432e-03
1.8999999999999999e+00 +8.5269002871100401e+00 +0.0000000000000000e+00 +1.8999999965113501e+00 -2.9041797845741478e-02 -5.5032462307138974e-01 +5.3754477277743792e-03
1.9500000000000000e+00 +8.5268949700112007e+00 +0.0000000000000000e+00 +1.9499999962286201e+00 -2.9042534217890915e-02 -5.5033744273243834e-01 +5.3755780845845102e-03
2.0000000000000000e+00 +8.5268895148037700e+00 +0.0000000000000000e+00 +1.9999999959310100e+00 -2.9043288477754396e-02 -5.5035062252735512e-01 +5.3757153326213390e-03
2.0499999999999998e+00 +8.5268839213858900e+00 +0.0000000000000000e+00 +2.0499999956181298e+00 -2.9044060524575917e-02 -5.5036416151169587e-01 +5.3758594788483475e-03
2.1000000000000001e+00 +8.5268781896593300e+00 +0.0000000000000000e+00 +2.0999999952895898e+00 -2.9044850291763114e-02 -5.5037805766704095e-01 +5.3760105120816866e-03
2.1499999999999999e+00 +8.5268723196240899e+00 +0.0000000000000000e+00 +2.1499999949449999e+00 -2.9045657721227722e-02 -5.5039230870578149e-01 +5.3761684165938711e-03
2.2000000000000002e+00 +8.5268663112729008e+00 +0.0000000000000000e+00 +2.1999999945839801e+00 -2.9046482754884334e-02 -5.5040691234037231e-01 +5.3763331766581894e-03
2.2500000000000000e+00 +8.5268601646093902e+00 +0.0000000000000000e+00 +2.2499999942061502e+00 -2.9047325334643399e-02 -5.5042186628320089e-01 +5.3765047765474078e-03
2.2999999999999998e+00 +8.5268538796335598e+00 +0.0000000000000000e+00 +2.2999999938111202e+00 -2.9048185402416594e-02 -5.5043716824669031e-01 +5.3766832005348181e-03
2.3500000000000001e+00 +8.5268474563490599e+00 +0.0000000000000000e+00 +2.3499999933985198e+00 -2.9049062900114046e-02 -5.5045281594324891e-01 +5.3768684328937624e-03
2.3999999999999999e+00 +8.5268408947522403e+00 +0.0000000000000000e+00 +2.3999999929679601e+00 -2.9049957769648319e-02 -5.5046880708534751e-01 +5.3770604578984348e-03
2.4500000000000002e+00 +8.5268341948467405e+00 +0.0000000000000000e+00 +2.4499999925190501e+00 -2.9050869952928826e-02 -5.5048513938541344e-01 +5.3772592598228374e-03
2.5000000000000000e+00 +8.5268273566252901e+00 +0.0000000000000000e+00 +2.4999999920514302e+00 -2.9051799391868610e-02 -5.5050181055596303e-01 +5.3774648229421348e-03
2.5499999999999998e+00 +8.5268203800987994e+00 +0.0000000000000000e+00 +2.5499999915646900e+00 -2.9052746028373270e-02 -5.5051881830939042e-01 +5.3776771315305607e-03
2.6000000000000001e+00 +8.5268132652563509e+00 +0.0000000000000000e+00 +2.5999999910584699e+00 -2.9053709804355961e-02 -5.5053616035825614e-01 +5.3778961698643345e-03
2.6499999999999999e+00 +8.5268060121015896e+00 +0.0000000000000000e+00 +2.6499999905323701e+00 -2.9054690661723618e-02 -5.5055383441502537e-01 +5.3781219222190516e-03
2.7000000000000002e+00 +8.5267986206345103e+00 +0.0000000000000000e+00 +2.6999999899860101e+00 -2.9055688542383572e-02 -5.5057183819219568e-01 +5.3783543728710206e-03
2.7500000000000000e+00 +8.5267910908551094e+00 +0.0000000000000000e+00 +2.7499999894190199e+00 -2.9056703388242327e-02 -5.5059016940227601e-01 +5.3785935060970281e-03
2.7999999999999998e+00 +8.5267834227670392e+00 +0.0000000000000000e+00 +2.7999999888310101e+00 -2.9057735141203862e-02 -5.5060882575775372e-01 +5.3788393061740764e-03
2.8500000000000001e+00 +8.5267756163666508e+00 +0.0000000000000000e+00 +2.8499999882215898e+00 -2.9058783743173819e-02 -5.5062780497117891e-01 +5.3790917573802209e-03
2.8999999999999999e+00 +8.5267676716539391e+00 +0.0000000000000000e+00 +2.8999999875903901e+00 -2.9059849136055201e-02 -5.5064710475508116e-01 +5.3793508439937869e-03
2.9500000000000002e+00 +8.5267595886289200e+00 +0.0000000000000000e+00 +2.9499999869370299e+00 -2.9060931261749662e-02 -5.5066672282199847e-01 +5.3796165502936468e-03
3.0000000000000000e+00 +8.5267513672915793e+00 +0.0000000000000000e+00 +2.9999999862611100e+00 -2.9062030062157452e-02 -5.5068665688447416e-01 +5.3798888605592621e-03
3.0499999999999998e+00 +8.5267430076455604e+00 +0.0000000000000000e+00 +3.0499999855622502e+00 -2.9063145479175920e-02 -5.5070690465503325e-01 +5.3801677590704280e-03
3.1000000000000001e+00 +8.5267345096872305e+00 +0.0000000000000000e+00 +3.0999999848400801e+00 -2.9064277454703531e-02 -5.5072746384625848e-01 +5.3804532301080744e-03
3.1499999999999999e+00 +8.5267258734165807e+00 +0.0000000000000000e+00 +3.1499999840942201e+00 -2.9065425930635689e-02 -5.5074833217071339e-01 +5.3807452579535241e-03
3.2000000000000002e+00 +8.5267170988336094e+00 +0.0000000000000000e+00 +3.1999999833242700e+00 -2.9066590848865991e-02 -5.5076950734096675e-01 +5.3810438268887548e-03
3.2500000000000000e+00 +8.5267081859419704e+00 +0.0000000000000000e+00 +3.2499999825298600e+00 -2.9067772151284740e-02 -5.5079098706956597e-01 +5.3813489211961630e-03
3.2999999999999998e+00 +8.5266991347380099e+00 +0.0000000000000000e+00 +3.2999999817106000e+00 -2.9068969779783033e-02 -5.5081276906911747e-01 +5.3816605251593820e-03
3.3500000000000001e+00 +8.5266899452181004e+00 +0.0000000000000000e+00 +3.3499999808661101e+00 -2.9070183676249851e-02 -5.5083485105223162e-01 +5.3819786230627636e-03
3.3999999999999999e+00 +8.5266806173895002e+00 +0.0000000000000000e+00 +3.3999999799960099e+00 -2.9071413782567890e-02 -5.5085723073144521e-01 +5.3823031991906281e-03
3.4500000000000002e+00 +8.5266711512522306e+00 +0.0000000000000000e+00 +3.4499999790999101e+00 -2.9072660040620302e-02 -5.5087990581935153e-01 +5.3826342378285796e-03
3.5000000000000000e+00 +8.5266615468026394e+00 +0.0000000000000000e+00 +3.4999999781774398e+00 -2.9073922392289300e-02 -5.5090287402857441e-01 +5.3829717232632820e-03
3.5499999999999998e+00 +8.5266518040407409e+00 +0.0000000000000000e+00 +3.5499999772282100e+00 -2.9075200779453185e-02 -5.5092613307171578e-01 +5.3833156397819389e-03
3.6000000000000001e+00 +8.5266419229665207e+00 +0.0000000000000000e+00 +3.5999999762518402e+00 -2.9076495143987770e-02 -5.5094968066138084e-01 +5.3836659716725958e-03
3.6499999999999999e+00 +8.5266319035799807e+00 +0.0000000000000000e+00 +3.6499999752479400e+00 -2.9077805427766189e-02 -5.5097351451017762e-01 +5.3840227032241460e-03
3.6999999999999900e+00 +8.5266217458847695e+00 +0.0000000000000000e+00 +3.6999999742161398e+00 -2.9079131572657464e-02 -5.5099763233069121e-01 +5.3843858187260923e-03
3.7499999999999898e+00 +8.5266114498736005e+00 +0.0000000000000000e+00 +3.7499999731560498e+00 -2.9080473520531915e-02 -5.5102203183558940e-01 +5.3847553024696272e-03
3.7999999999999901e+00 +8.5266010155537497e+00 +0.0000000000000000e+00 +3.7999999720672801e+00 -2.9081831213251415e-02 -5.5104671073743539e-01 +5.3851311387458035e-03
3.8499999999999899e+00 +8.5265904429179500e+00 +0.0000000000000000e+00 +3.8499999709494599e+00 -2.9083204592680358e-02 -5.5107166674890173e-01 +5.3855133118476664e-03
3.8999999999999901e+00 +8.5265797319771099e+00 +0.0000000000000000e+00 +3.8999999698022001e+00 -2.9084593600673073e-02 -5.5109689758252989e-01 +5.3859018060679054e-03
3.9499999999999900e+00 +8.5265688827203103e+00 +0.0000000000000000e+00 +3.9499999686251202e+00 -2.9085998179089023e-02 -5.5112240095102227e-01 +5.3862966057017644e-03
3.9999999999999898e+00 +8.5265578951548395e+00 +0.0000000000000000e+00 +3.9999999674178399e+00 -2.9087418269777395e-02 -5.5114817456694987e-01 +5.3866976950441795e-03
4.0499999999999901e+00 +8.5265467692734092e+00 +0.0000000000000000e+00 +4.0499999661799704e+00 -2.9088853791516073e-02 -5.5117421610262540e-01 +5.3871050537808223e-03
4.0999999999999899e+00 +8.5265355050833005e+00 +0.0000000000000000e+00 +4.0999999649111301e+00 -2.9090304570781114e-02 -5.5120052306879452e-01 +5.3875186431517107e-03
4.1499999999999897e+00 +8.5265241025808791e+00 +0.0000000000000000e+00 +4.1499999636109504e+00 -2.9091770410979038e-02 -5.5122709293591854e-01 +5.3879384197865737e-03
4.1999999999999904e+00 +8.5265125617697795e+00 +0.0000000000000000e+00 +4.1999999622790298e+00 -2.9093251115513957e-02 -5.5125392317440991e-01 +5.3883643403148246e-03
4.2499999999999902e+00 +8.5265008826427202e+00 +0.0000000000000000e+00 +4.2499999609149901e+00 -2.9094746487794341e-02 -5.5128101125476170e-01 +5.3887963613668587e-03
4.2999999999999901e+00 +8.5264890652069898e+00 +0.0000000000000000e+00 +4.2999999595184599e+00 -2.9096256331223480e-02 -5.5130835464736438e-01 +5.3892344395722273e-03
4.3499999999999899e+00 +8.5264771094589396e+00 +0.0000000000000000e+00 +4.3499999580890396e+00 -2.9097780449209149e-02 -5.5133595082268982e-01 +5.3896785315614469e-03
4.3999999999999897e+00 +8.5264650153985695e+00 +0.0000000000000000e+00 +4.3999999566263703e+00 -2.9099318645158093e-02 -5.5136379725118534e-01 +5.3901285939649676e-03
4.4499999999999904e+00 +8.5264527830295300e+00 +0.0000000000000000e+00 +4.4499999551300400e+00 -2.9100870722476059e-02 -5.5139189140327405e-01 +5.3905845834131532e-03
4.4999999999999902e+00 +8.5264404123481707e+00 +0.0000000000000000e+00 +4.4999999535996897e+00 -2.9102436484571982e-02 -5.5142023074943258e-01 +5.3910464565370712e-03
4.5499999999999901e+00 +8.5264279033544899e+00 +0.0000000000000000e+00 +4.5499999520349199e+00 -2.9104015734853793e-02 -5.5144881276011415e-01 +5.3915141699677049e-03
4.5999999999999899e+00 +8.5264152560448601e+00 +0.0000000000000000e+00 +4.5999999504353601e+00 -2.9105608276731296e-02 -5.5147763490579815e-01 +5.3919876803364547e-03
4.6499999999999897e+00 +8.5264024704301793e+00 +0.0000000000000000e+00 +4.6499999488006196e+00 -2.9107213913609226e-02 -5.5150669465686020e-01 +5.3924669442738434e-03
4.6999999999999904e+00 +8.5263895464995603e+00 +0.0000000000000000e+00 +4.6999999471303298e+00 -2.9108832448901095e-02 -5.5153598948383431e-01 +5.3929519184121215e-03
4.7499999999999902e+00 +8.5263764842602505e+00 +0.0000000000000000e+00 +4.7499999454240900e+00 -2.9110463686014026e-02 -5.5156551685712429e-01 +5.3934425593823851e-03
4.7999999999999901e+00 +8.5263632837050007e+00 +0.0000000000000000e+00 +4.7999999436815299e+00 -2.9112107428361227e-02 -5.5159527424723942e-01 +5.3939388238169244e-03
4.8499999999999899e+00 +8.5263499448447000e+00 +0.0000000000000000e+00 +4.8499999419022597e+00 -2.9113763479349526e-02 -5.5162525912455684e-01 +5.3944406683468591e-03
4.8999999999999897e+00 +8.5263364676684397e+00 +0.0000000000000000e+00 +4.8999999400859000e+00 -2.9115431642394642e-02 -5.5165546895961237e-01 +5.3949480496050303e-03
4.9499999999999904e+00 +8.5263228521798702e+00 +0.0000000000000000e+00 +4.9499999382320699e+00 -2.9117111720907366e-02 -5.5168590122283678e-01 +5.3954609242233579e-03
4.9999999999999902e+00 +8.5263090983826295e+00 +0.0000000000000000e+00 +4.9999999363403900e+00 -2.9118803518299135e-02 -5.5171655338465975e-01 +5.3959792488338897e-03
5.0499999999999901e+00 +8.5262952059529198e+00 +0.0000000000000000e+00 +5.0499999344103799e+00 -2.9120506838106738e-02 -5.5174742291790058e-01 +5.3965029800926269e-03
5.0999999999999899e+00 +8.5262811745706095e+00 +0.0000000000000000e+00 +5.0999999324415599e+00 -2.9122221483866350e-02 -5.5177850729535360e-01 +5.3970320746554471e-03
5.1499999999999897e+00 +8.5262670042357094e+00 +0.0000000000000000e+00 +5.1499999304335597e+00 -2.9123947258992935e-02 -5.5180980398747614e-01 +5.3975664891550701e-03
5.1999999999999904e+00 +8.5262526949518396e+00 +0.0000000000000000e+00 +5.1999999283859903e+00 -2.9125683966900788e-02 -5.5184131046469731e-01 +5.3981061802240550e-03
5.2499999999999902e+00 +8.5262382467153692e+00 +0.0000000000000000e+00 +5.2499999262984600e+00 -2.9127431411007695e-02 -5.5187302419749906e-01 +5.3986511044956075e-03
5.2999999999999901e+00 +8.5262236595299292e+00 +0.0000000000000000e+00 +5.2999999241705797e+00 -2.9129189394729429e-02 -5.5190494265630707e-01 +5.3992012186024948e-03
5.3499999999999899e+00 +8.5262089333882596e+00 +0.0000000000000000e+00 +5.3499999220019703e+00 -2.9130957721486758e-02 -5.5193706331162662e-01 +5.3997564791783874e-03
5.3999999999999897e+00 +8.5261940682976292e+00 +0.0000000000000000e+00 +5.3999999197922497e+00 -2.9132736194695658e-02 -5.5196938363385395e-01 +5.4003168428559808e-03
5.4499999999999904e+00 +8.5261790642507496e+00 +0.0000000000000000e+00 +5.4499999175410201e+00 -2.9134524617778469e-02 -5.5200190109348979e-01 +5.4008822662691266e-03
5.4999999999999902e+00 +8.5261639212585596e+00 +0.0000000000000000e+00 +5.4999999152479004e+00 -2.9136322794151497e-02 -5.5203461316089963e-01 +5.4014527060504258e-03
5.5499999999999901e+00 +8.5261486393137602e+00 +0.0000000000000000e+00 +5.5499999129125097e+00 -2.9138130527238831e-02 -5.5206751730657877e-01 +5.4020281188338912e-03
5.5999999999999899e+00 +8.5261332184127205e+00 +0.0000000000000000e+00 +5.5999999105344500e+00 -2.9139947620464075e-02 -5.5210061100099439e-01 +5.4026084612533443e-03
5.6499999999999897e+00 +8.5261176585627307e+00 +0.0000000000000000e+00 +5.6499999081133403e+00 -2.9141773877247579e-02 -5.5213389171452987e-01 +5.4031936899418716e-03
5.6999999999999904e+00 +8.5261019597637606e+00 +0.0000000000000000e+00 +5.6999999056488004e+00 -2.9143609101013428e-02 -5.5216735691761964e-01 +5.4037837615331669e-03
5.7499999999999902e+00 +8.5260861220122006e+00 +0.0000000000000000e+00 +5.7499999031404396e+00 -2.9145453095188036e-02 -5.5220100408072070e-01 +5.4043786326612416e-03
5.7999999999999901e+00 +8.5260701453080401e+00 +0.0000000000000000e+00 +5.7999999005878804e+00 -2.9147305663197440e-02 -5.5223483067426016e-01 +5.4049782599599012e-03
5.8499999999999899e+00 +8.5260540296512808e+00 +0.0000000000000000e+00 +5.8499998979907204e+00 -2.9149166608468662e-02 -5.5226883416866146e-01 +5.4055826000629940e-03
5.8999999999999897e+00 +8.5260377750455500e+00 +0.0000000000000000e+00 +5.8999998953485804e+00 -2.9151035734428371e-02 -5.5230301203431786e-01 +5.4061916096041582e-03
