# field on trajectory
# s[mm] rx[mm] ry[mm] rz[mm] bx[T] by[T] bz[T]
0.0000000000000000e+00 +8.3650000000000002e+00 +0.0000000000000000e+00 +0.0000000000000000e+00 -2.9365368113154655e-02 -5.7792418591776962e-01 +5.9942763991555027e-03
5.0000000000000003e-02 +8.3649999311233110e+00 +0.0000000000000000e+00 +4.9999999999936748e-02 -2.9364828187839146e-02 -5.7792090634213522e-01 +5.9926005196430706e-03
1.0000000000000001e-01 +8.3649997244937495e+00 +0.0000000000000000e+00 +9.9999999999493966e-02 -2.9364315689728825e-02 -5.7791804577845718e-01 +5.9909209643116039e-03
1.5000000000000002e-01 +8.3649993801119962e+00 +0.0000000000000000e+00 +1.4999999999829217e-01 -2.9363830550633543e-02 -5.7791560349270921e-01 +5.9892377997544889e-03
2.0000000000000001e-01 +8.3649988979786354e+00 +0.0000000000000000e+00 +1.9999999999595183e-01 -2.9363372702364447e-02 -5.7791357875088467e-01 +5.9875510925651697e-03
2.5000000000000000e-01 +8.3649982780941485e+00 +0.0000000000000000e+00 +2.4999999999209344e-01 -2.9362942076734073e-02 -5.7791197081899548e-01 +5.9858609093371151e-03
2.9999999999999999e-01 +8.3649975204589175e+00 +0.0000000000000000e+00 +2.9999999998633753e-01 -2.9362538605556245e-02 -5.7791077896307352e-01 +5.9841673166638161e-03
3.4999999999999998e-01 +8.3649966250732284e+00 +0.0000000000000000e+00 +3.4999999997830455e-01 -2.9362162220646040e-02 -5.7791000244916890e-01 +5.9824703811387474e-03
3.9999999999999997e-01 +8.3649955919372658e+00 +0.0000000000000000e+00 +3.9999999996761504e-01 -2.9361812853819804e-02 -5.7790964054335092e-01 +5.9807701693553681e-03
4.4999999999999996e-01 +8.3649944210511151e+00 +0.0000000000000000e+00 +4.4999999995388945e-01 -2.9361490436895090e-02 -5.7790969251170821e-01 +5.9790667479070921e-03
4.9999999999999994e-01 +8.3649931124147656e+00 +0.0000000000000000e+00 +4.9999999993674832e-01 -2.9361194901690604e-02 -5.7791015762034803e-01 +5.9773601833872682e-03
5.4999999999999993e-01 +8.3649916660281054e+00 +0.0000000000000000e+00 +5.4999999991581217e-01 -2.9360926180026184e-02 -5.7791103513539610e-01 +5.9756505423891621e-03
5.9999999999999998e-01 +8.3649900818909249e+00 +0.0000000000000000e+00 +5.9999999989070141e-01 -2.9360684203722814e-02 -5.7791232432299711e-01 +5.9739378915059475e-03
6.5000000000000002e-01 +8.3649883600029185e+00 +0.0000000000000000e+00 +6.4999999986103663e-01 -2.9360468904602491e-02 -5.7791402444931406e-01 +5.9722222973306672e-03
7.0000000000000007e-01 +8.3649865003636794e+00 +0.0000000000000000e+00 +6.9999999982643824e-01 -2.9360280214488308e-02 -5.7791613478052895e-01 +5.9705038264562353e-03
7.5000000000000011e-01 +8.3649845029727050e+00 +0.0000000000000000e+00 +7.4999999978652676e-01 -2.9360118065204329e-02 -5.7791865458284108e-01 +5.9687825454754050e-03
8.0000000000000016e-01 +8.3649823678293949e+00 +0.0000000000000000e+00 +7.9999999974092262e-01 -2.9359982388575595e-02 -5.7792158312246955e-01 +5.9670585209807532e-03
8.5000000000000020e-01 +8.3649800949330508e+00 +0.0000000000000000e+00 +8.4999999968924622e-01 -2.9359873116428101e-02 -5.7792491966565063e-01 +5.9653318195646591e-03
9.0000000000000024e-01 +8.3649776842828771e+00 +0.0000000000000000e+00 +8.9999999963111810e-01 -2.9359790180588746e-02 -5.7792866347863969e-01 +5.9636025078192989e-03
9.5000000000000029e-01 +8.3649751358779820e+00 +0.0000000000000000e+00 +9.4999999956615855e-01 -2.9359733512885278e-02 -5.7793281382770867e-01 +5.9618706523366007e-03
1.0000000000000002e+00 +8.3649724497173761e+00 +0.0000000000000000e+00 +9.9999999949398810e-01 -2.9359703045146308e-02 -5.7793736997914924e-01 +5.9601363197082525e-03
1.0500000000000003e+00 +8.3649696257999739e+00 +0.0000000000000000e+00 +1.0499999994142273e+00 -2.9359698709201264e-02 -5.7794233119926985e-01 +5.9583995765256628e-03
1.1000000000000003e+00 +8.3649666641245926e+00 +0.0000000000000000e+00 +1.0999999993264962e+00 -2.9359720436880302e-02 -5.7794769675439772e-01 +5.9566604893799566e-03
1.1500000000000004e+00 +8.3649635646899529e+00 +0.0000000000000000e+00 +1.1499999992304153e+00 -2.9359768160014350e-02 -5.7795346591087693e-01 +5.9549191248619484e-03
1.2000000000000004e+00 +8.3649603274946802e+00 +0.0000000000000000e+00 +1.1999999991256052e+00 -2.9359841810435054e-02 -5.7795963793506966e-01 +5.9531755495621256e-03
1.2500000000000004e+00 +8.3649569525373035e+00 +0.0000000000000000e+00 +1.2499999990116859e+00 -2.9359941319974714e-02 -5.7796621209335597e-01 +5.9514298300706288e-03
1.3000000000000005e+00 +8.3649534398162562e+00 +0.0000000000000000e+00 +1.2999999988882780e+00 -2.9360066620466276e-02 -5.7797318765213357e-01 +5.9496820329772299e-03
1.3500000000000005e+00 +8.3649497893298754e+00 +0.0000000000000000e+00 +1.3499999987550018e+00 -2.9360217643743278e-02 -5.7798056387781616e-01 +5.9479322248713207e-03
1.4000000000000006e+00 +8.3649460010764027e+00 +0.0000000000000000e+00 +1.3999999986114773e+00 -2.9360394321639866e-02 -5.7798834003683663e-01 +5.9461804723418858e-03
1.4500000000000006e+00 +8.3649420750539836e+00 +0.0000000000000000e+00 +1.4499999984573249e+00 -2.9360596585990682e-02 -5.7799651539564478e-01 +5.9444268419774947e-03
1.5000000000000007e+00 +8.3649380112606710e+00 +0.0000000000000000e+00 +1.4999999982921648e+00 -2.9360824368630915e-02 -5.7800508922070670e-01 +5.9426714003662671e-03
1.5500000000000007e+00 +8.3649338096944206e+00 +0.0000000000000000e+00 +1.5499999981156174e+00 -2.9361077601396231e-02 -5.7801406077850681e-01 +5.9409142140958680e-03
1.6000000000000008e+00 +8.3649294703530934e+00 +0.0000000000000000e+00 +1.5999999979273027e+00 -2.9361356216122670e-02 -5.7802342933554540e-01 +5.9391553497534777e-03
1.6500000000000008e+00 +8.3649249932344567e+00 +0.0000000000000000e+00 +1.6499999977268409e+00 -2.9361660144646765e-02 -5.7803319415834076e-01 +5.9373948739257863e-03
1.7000000000000008e+00 +8.3649203783361834e+00 +0.0000000000000000e+00 +1.6999999975138522e+00 -2.9361989318805383e-02 -5.7804335451342759e-01 +5.9356328531989582e-03
1.7500000000000009e+00 +8.3649156256558523e+00 +0.0000000000000000e+00 +1.7499999972879567e+00 -2.9362343670435710e-02 -5.7805390966735737e-01 +5.9338693541586317e-03
1.8000000000000009e+00 +8.3649107351909464e+00 +0.0000000000000000e+00 +1.7999999970487743e+00 -2.9362723131375300e-02 -5.7806485888669890e-01 +5.9321044433898766e-03
1.8500000000000010e+00 +8.3649057069388562e+00 +0.0000000000000000e+00 +1.8499999967959253e+00 -2.9363127633461925e-02 -5.7807620143803651e-01 +5.9303381874772033e-03
1.9000000000000010e+00 +8.3649005408968797e+00 +0.0000000000000000e+00 +1.8999999965290295e+00 -2.9363557108533632e-02 -5.7808793658797242e-01 +5.9285706530045187e-03
1.9500000000000011e+00 +8.3648952370622176e+00 +0.0000000000000000e+00 +1.9499999962477070e+00 -2.9364011488428668e-02 -5.7810006360312471e-01 +5.9268019065551293e-03
2.0000000000000009e+00 +8.3648897954319796e+00 +0.0000000000000000e+00 +1.9999999959515777e+00 -2.9364490704985431e-02 -5.7811258175012747e-01 +5.9250320147116930e-03
2.0500000000000007e+00 +8.3648842160031833e+00 +0.0000000000000000e+00 +2.0499999956402615e+00 -2.9364994680436927e-02 -5.7812549009546510e-01 +5.9232610523416596e-03
2.1000000000000005e+00 +8.3648784987727520e+00 +0.0000000000000000e+00 +2.0999999953133783e+00 -2.9365523298594209e-02 -5.7813878690496934e-01 +5.9214891274537327e-03
2.1500000000000004e+00 +8.3648726437375149e+00 +0.0000000000000000e+00 +2.1499999949705479e+00 -2.9366076433663794e-02 -5.7815247024432015e-01 +5.9197163563420013e-03
2.2000000000000002e+00 +8.3648666508942107e+00 +0.0000000000000000e+00 +2.1999999946113902e+00 -2.9366653959853307e-02 -5.7816653817921237e-01 +5.9179428553005810e-03
2.2500000000000000e+00 +8.3648605202394872e+00 +0.0000000000000000e+00 +2.2499999942355249e+00 -2.9367255751371519e-02 -5.7818098877535584e-01 +5.9161687406236374e-03
2.2999999999999998e+00 +8.3648542517699003e+00 +0.0000000000000000e+00 +2.2999999938425719e+00 -2.9367881682428383e-02 -5.7819582009847403e-01 +5.9143941286054101e-03
2.3499999999999996e+00 +8.3648478454819131e+00 +0.0000000000000000e+00 +2.3499999934321507e+00 -2.9368531627235048e-02 -5.7821103021430575e-01 +5.9126191355402353e-03
2.3999999999999995e+00 +8.3648413013719018e+00 +0.0000000000000000e+00 +2.3999999930038811e+00 -2.9369205460003898e-02 -5.7822661718860324e-01 +5.9108438777225603e-03
2.4499999999999993e+00 +8.3648346194361505e+00 +0.0000000000000000e+00 +2.4499999925573825e+00 -2.9369903054948573e-02 -5.7824257908713339e-01 +5.9090684714469769e-03
2.4999999999999991e+00 +8.3648277996708540e+00 +0.0000000000000000e+00 +2.4999999920922749e+00 -2.9370624286283998e-02 -5.7825891397567664e-01 +5.9072930330082343e-03
2.5499999999999989e+00 +8.3648208420721204e+00 +0.0000000000000000e+00 +2.5499999916081770e+00 -2.9371369028226395e-02 -5.7827561992002730e-01 +5.9055176787012626e-03
2.5999999999999988e+00 +8.3648137466359671e+00 +0.0000000000000000e+00 +2.5999999911047089e+00 -2.9372137154993337e-02 -5.7829269498599356e-01 +5.9037425248211987e-03
2.6499999999999986e+00 +8.3648065133583245e+00 +0.0000000000000000e+00 +2.6499999905814899e+00 -2.9372928540803745e-02 -5.7831013723939639e-01 +5.9019676876634064e-03
2.6999999999999984e+00 +8.3647991422350341e+00 +0.0000000000000000e+00 +2.6999999900381395e+00 -2.9373743059877958e-02 -5.7832794474607074e-01 +5.9001932835234883e-03
2.7499999999999982e+00 +8.3647916332618522e+00 +0.0000000000000000e+00 +2.7499999894742770e+00 -2.9374580586437708e-02 -5.7834611557186488e-01 +5.8984194286973383e-03
2.7999999999999980e+00 +8.3647839864344480e+00 +0.0000000000000000e+00 +2.7999999888895215e+00 -2.9375440994706153e-02 -5.7836464778263863e-01 +5.8966462394811096e-03
2.8499999999999979e+00 +8.3647762017484038e+00 +0.0000000000000000e+00 +2.8499999882834923e+00 -2.9376324158907959e-02 -5.7838353944426657e-01 +5.8948738321713025e-03
2.8999999999999977e+00 +8.3647682791992164e+00 +0.0000000000000000e+00 +2.8999999876558085e+00 -2.9377229953269256e-02 -5.7840278862263406e-01 +5.8931023230647268e-03
2.9499999999999975e+00 +8.3647602187822976e+00 +0.0000000000000000e+00 +2.9499999870060893e+00 -2.9378158252017738e-02 -5.7842239338364121e-01 +5.8913318284585653e-03
2.9999999999999973e+00 +8.3647520204929755e+00 +0.0000000000000000e+00 +2.9999999863339539e+00 -2.9379108929382596e-02 -5.7844235179319847e-01 +5.8895624646503747e-03
3.0499999999999972e+00 +8.3647436843264931e+00 +0.0000000000000000e+00 +3.0499999856390212e+00 -2.9380081859594641e-02 -5.7846266191722973e-01 +5.8877943479381158e-03
3.0999999999999970e+00 +8.3647352102780079e+00 +0.0000000000000000e+00 +3.0999999849209106e+00 -2.9381076916886278e-02 -5.7848332182167050e-01 +5.8860275946201685e-03
3.1499999999999968e+00 +8.3647265983425960e+00 +0.0000000000000000e+00 +3.1499999841792405e+00 -2.9382093975491522e-02 -5.7850432957246789e-01 +5.8842623209953565e-03
3.1999999999999966e+00 +8.3647178485152516e+00 +0.0000000000000000e+00 +3.1999999834136297e+00 -2.9383132909646066e-02 -5.7852568323558229e-01 +5.8824986433629808e-03
3.2499999999999964e+00 +8.3647089607908836e+00 +0.0000000000000000e+00 +3.2499999826236974e+00 -2.9384193593587273e-02 -5.7854738087698365e-01 +5.8807366780228194e-03
3.2999999999999963e+00 +8.3646999351643192e+00 +0.0000000000000000e+00 +3.2999999818090622e+00 -2.9385275901554236e-02 -5.7856942056265470e-01 +5.8789765412751655e-03
3.3499999999999961e+00 +8.3646907716303076e+00 +0.0000000000000000e+00 +3.3499999809693426e+00 -2.9386379707787753e-02 -5.7859180035858904e-01 +5.8772183494208473e-03
3.3999999999999959e+00 +8.3646814701835126e+00 +0.0000000000000000e+00 +3.3999999801041576e+00 -2.9387504886530424e-02 -5.7861451833079214e-01 +5.8754622187612475e-03
3.4499999999999957e+00 +8.3646720308185198e+00 +0.0000000000000000e+00 +3.4499999792131257e+00 -2.9388651312026608e-02 -5.7863757254527903e-01 +5.8737082655983220e-03
3.4999999999999956e+00 +8.3646624535298351e+00 +0.0000000000000000e+00 +3.4999999782958651e+00 -2.9389818858522519e-02 -5.7866096106807707e-01 +5.8719566062346270e-03
3.5499999999999954e+00 +8.3646527383118823e+00 +0.0000000000000000e+00 +3.5499999773519946e+00 -2.9391007400266157e-02 -5.7868468196522371e-01 +5.8702073569733377e-03
3.5999999999999952e+00 +8.3646428851590073e+00 +0.0000000000000000e+00 +3.5999999763811323e+00 -2.9392216811507450e-02 -5.7870873330276706e-01 +5.8684606341182785e-03
3.6499999999999950e+00 +8.3646328940654779e+00 +0.0000000000000000e+00 +3.6499999753828969e+00 -2.9393446966498194e-02 -5.7873311314676501e-01 +5.8667165539739241e-03
3.6999999999999948e+00 +8.3646227650254836e+00 +0.0000000000000000e+00 +3.6999999743569063e+00 -2.9394697739492121e-02 -5.7875781956328720e-01 +5.8649752328454536e-03
3.7499999999999947e+00 +8.3646124980331358e+00 +0.0000000000000000e+00 +3.7499999733027791e+00 -2.9395969004744893e-02 -5.7878285061841139e-01 +5.8632367870387397e-03
3.7999999999999945e+00 +8.3646020930824676e+00 +0.0000000000000000e+00 +3.7999999722201334e+00 -2.9397260636514204e-02 -5.7880820437822744e-01 +5.8615013328603936e-03
3.8499999999999943e+00 +8.3645915501674359e+00 +0.0000000000000000e+00 +3.8499999711085868e+00 -2.9398572509059671e-02 -5.7883387890883309e-01 +5.8597689866177714e-03
3.8999999999999941e+00 +8.3645808692819195e+00 +0.0000000000000000e+00 +3.8999999699677579e+00 -2.9399904496643016e-02 -5.7885987227633673e-01 +5.8580398646190090e-03
3.9499999999999940e+00 +8.3645700504197240e+00 +0.0000000000000000e+00 +3.9499999687972642e+00 -2.9401256473528002e-02 -5.7888618254685642e-01 +5.8563140831730358e-03
3.9999999999999938e+00 +8.3645590935745791e+00 +0.0000000000000000e+00 +3.9999999675967239e+00 -2.9402628313980439e-02 -5.7891280778651888e-01 +5.8545917585896010e-03
4.0499999999999936e+00 +8.3645479987401377e+00 +0.0000000000000000e+00 +4.0499999663657542e+00 -2.9404019884252248e-02 -5.7893974586630670e-01 +5.8528729949169685e-03
4.0999999999999934e+00 +8.3645367659099801e+00 +0.0000000000000000e+00 +4.0999999651039731e+00 -2.9405431018532470e-02 -5.7896699387659412e-01 +5.8511578471546668e-03
4.1499999999999932e+00 +8.3645253950776102e+00 +0.0000000000000000e+00 +4.1499999638109992e+00 -2.9406861542993924e-02 -5.7899454871260347e-01 +5.8494463580401161e-03
4.1999999999999931e+00 +8.3645138862364607e+00 +0.0000000000000000e+00 +4.1999999624864488e+00 -2.9408311283808993e-02 -5.7902240726955889e-01 +5.8477385703109598e-03
4.2499999999999929e+00 +8.3645022393798918e+00 +0.0000000000000000e+00 +4.2499999611299399e+00 -2.9409780067149685e-02 -5.7905056644268782e-01 +5.8460345267050615e-03
4.2999999999999927e+00 +8.3644904545011904e+00 +0.0000000000000000e+00 +4.2999999597410907e+00 -2.9411267719187423e-02 -5.7907902312721748e-01 +5.8443342699604928e-03
4.3499999999999925e+00 +8.3644785315935746e+00 +0.0000000000000000e+00 +4.3499999583195175e+00 -2.9412774066093102e-02 -5.7910777421837734e-01 +5.8426378428155634e-03
4.3999999999999924e+00 +8.3644664706501910e+00 +0.0000000000000000e+00 +4.3999999568648382e+00 -2.9414298934037072e-02 -5.7913681661139704e-01 +5.8409452880087897e-03
4.4499999999999922e+00 +8.3644542716641173e+00 +0.0000000000000000e+00 +4.4499999553766694e+00 -2.9415842149188961e-02 -5.7916614720150661e-01 +5.8392566482789281e-03
4.4999999999999920e+00 +8.3644419346283634e+00 +0.0000000000000000e+00 +4.4999999538546289e+00 -2.9417403537717695e-02 -5.7919576288393682e-01 +5.8375719663649461e-03
4.5499999999999918e+00 +8.3644294595358701e+00 +0.0000000000000000e+00 +4.5499999522983341e+00 -2.9418982925791513e-02 -5.7922566055391700e-01 +5.8358912850060545e-03
4.5999999999999917e+00 +8.3644168463795108e+00 +0.0000000000000000e+00 +4.5999999507074012e+00 -2.9420580139577789e-02 -5.7925583710667705e-01 +5.8342146469416859e-03
4.6499999999999915e+00 +8.3644040951520928e+00 +0.0000000000000000e+00 +4.6499999490814474e+00 -2.9422195005243092e-02 -5.7928628943744531e-01 +5.8325420949115001e-03
4.6999999999999913e+00 +8.3643912058463563e+00 +0.0000000000000000e+00 +4.6999999474200891e+00 -2.9423827348953067e-02 -5.7931701444144845e-01 +5.8308736716553974e-03
4.7499999999999911e+00 +8.3643781784549791e+00 +0.0000000000000000e+00 +4.7499999457229443e+00 -2.9425476996872393e-02 -5.7934800901391226e-01 +5.8292094199135112e-03
4.7999999999999909e+00 +8.3643650129705733e+00 +0.0000000000000000e+00 +4.7999999439896284e+00 -2.9427143775164807e-02 -5.7937927005006007e-01 +5.8275493824262118e-03
4.8499999999999908e+00 +8.3643517093856889e+00 +0.0000000000000000e+00 +4.8499999422197586e+00 -2.9428827509992934e-02 -5.7941079444511245e-01 +5.8258936019341002e-03
4.8999999999999906e+00 +8.3643382676928102e+00 +0.0000000000000000e+00 +4.8999999404129513e+00 -2.9430528027518336e-02 -5.7944257909428820e-01 +5.8242421211780297e-03
4.9499999999999904e+00 +8.3643246878843627e+00 +0.0000000000000000e+00 +4.9499999385688236e+00 -2.9432245153901419e-02 -5.7947462089280233e-01 +5.8225949828990828e-03
4.9999999999999902e+00 +8.3643109699527081e+00 +0.0000000000000000e+00 +4.9999999366869909e+00 -2.9433978715301394e-02 -5.7950691673586618e-01 +5.8209522298385925e-03
5.0499999999999901e+00 +8.3642971138901494e+00 +0.0000000000000000e+00 +5.0499999347670705e+00 -2.9435728537876214e-02 -5.7953946351868835e-01 +5.8193139047381312e-03
5.0999999999999899e+00 +8.3642831196889276e+00 +0.0000000000000000e+00 +5.0999999328086778e+00 -2.9437494447782545e-02 -5.7957225813647251e-01 +5.8176800503395229e-03
5.1499999999999897e+00 +8.3642689873412266e+00 +0.0000000000000000e+00 +5.1499999308114290e+00 -2.9439276271175690e-02 -5.7960529748441769e-01 +5.8160507093848362e-03
5.1999999999999895e+00 +8.3642547168391719e+00 +0.0000000000000000e+00 +5.1999999287749405e+00 -2.9441073834209582e-02 -5.7963857845771916e-01 +5.8144259246163911e-03
5.2499999999999893e+00 +8.3642403081748302e+00 +0.0000000000000000e+00 +5.2499999266988286e+00 -2.9442886963036676e-02 -5.7967209795156616e-01 +5.8128057387767523e-03
5.2999999999999892e+00 +8.3642257613402133e+00 +0.0000000000000000e+00 +5.2999999245827087e+00 -2.9444715483807955e-02 -5.7970585286114218e-01 +5.8111901946087466e-03
5.3499999999999890e+00 +8.3642110763272743e+00 +0.0000000000000000e+00 +5.3499999224261963e+00 -2.9446559222672863e-02 -5.7973984008162593e-01 +5.8095793348554494e-03
5.3999999999999888e+00 +8.3641962531279113e+00 +0.0000000000000000e+00 +5.3999999202289075e+00 -2.9448418005779201e-02 -5.7977405650818892e-01 +5.8079732022601966e-03
5.4499999999999886e+00 +8.3641812917339706e+00 +0.0000000000000000e+00 +5.4499999179904588e+00 -2.9450291659273171e-02 -5.7980849903599641e-01 +5.8063718395665728e-03
5.4999999999999885e+00 +8.3641661921372421e+00 +0.0000000000000000e+00 +5.4999999157104646e+00 -2.9452180009299278e-02 -5.7984316456020735e-01 +5.8047752895184351e-03
5.5499999999999883e+00 +8.3641509543294621e+00 +0.0000000000000000e+00 +5.5499999133885405e+00 -2.9454082882000257e-02 -5.7987804997597214e-01 +5.8031835948598948e-03
5.5999999999999881e+00 +8.3641355783023155e+00 +0.0000000000000000e+00 +5.5999999110243026e+00 -2.9456000103517063e-02 -5.7991315217843475e-01 +5.8015967983353223e-03
5.6499999999999879e+00 +8.3641200640474374e+00 +0.0000000000000000e+00 +5.6499999086173656e+00 -2.9457931499988783e-02 -5.7994846806273082e-01 +5.8000149426893554e-03
5.6999999999999877e+00 +8.3641044115564078e+00 +0.0000000000000000e+00 +5.6999999061673448e+00 -2.9459876897552664e-02 -5.7998399452398763e-01 +5.7984380706668998e-03
5.7499999999999876e+00 +8.3640886208207608e+00 +0.0000000000000000e+00 +5.7499999036738556e+00 -2.9461836122343966e-02 -5.8001972845732364e-01 +5.7968662250131326e-03
5.7999999999999874e+00 +8.3640726918319785e+00 +0.0000000000000000e+00 +5.7999999011365126e+00 -2.9463809000495968e-02 -5.8005566675784859e-01 +5.7952994484734887e-03
5.8499999999999872e+00 +8.3640566245814938e+00 +0.0000000000000000e+00 +5.8499998985549313e+00 -2.9465795358139885e-02 -5.8009180632066315e-01 +5.7937377837936855e-03
5.8999999999999870e+00 +8.3640404190606947e+00 +0.0000000000000000e+00 +5.8999998959287261e+00 -2.9467795021404865e-02 -5.8012814404085755e-01 +5.7921812737197027e-03
