# multipoles
# s[mm] polynom_b[n=0][T/m^n] polynom_b[n=1][T/m^n] polynom_b[n=2][T/m^n] polynom_b[n=3][T/m^n] polynom_b[n=4][T/m^n] polynom_b[n=5][T/m^n] polynom_b[n=6][T/m^n] 
+0.0000000000000000e+00 -5.5036493184813629e-01 +7.2122605342601149e+00 +5.1924659627226832e+00 +2.1178899864820661e+01 +1.2850219032255412e+04 -5.3767329161803506e+05 -6.0971465929050133e+07 
+5.0000000000000003e-02 -5.5035678825082657e-01 +7.2117855361486489e+00 +5.1993844012149086e+00 +2.1629163823262669e+01 +1.2878746948234384e+04 -5.4030624089850765e+05 -6.1018953244616233e+07 
+1.0000000000000001e-01 -5.5034904889146252e-01 +7.2113316752470711e+00 +5.2057482029560038e+00 +2.2112295124233210e+01 +1.2908647290625484e+04 -5.4315953484377905e+05 -6.1074806375453770e+07 
+1.4999999999999999e-01 -5.5034171392319831e-01 +7.2108990109715032e+00 +5.2115622663378414e+00 +2.2626895249559400e+01 +1.2939864401860645e+04 -5.4622459601832379e+05 -6.1138845260052390e+07 
+2.0000000000000001e-01 -5.5033478349913345e-01 +7.2104876027305593e+00 +5.2168314937800115e+00 +2.3171565990530304e+01 +1.2972342506223476e+04 -5.4949284936555615e+05 -6.1210889004018694e+07 
+2.5000000000000000e-01 -5.5032825777246053e-01 +7.2100975099422522e+00 +5.2215607815160761e+00 +2.3744908799881539e+01 +1.3006026002000679e+04 -5.5295571712702501e+05 -6.1290757915062845e+07 
+2.9999999999999999e-01 -5.5032213689634191e-01 +7.2097287920190345e+00 +5.2257550310842502e+00 +2.4345525410044186e+01 +1.3040859140864855e+04 -5.5660462387843092e+05 -6.1378271295396261e+07 
+3.4999999999999998e-01 -5.5031642102396461e-01 +7.2093815083763308e+00 +5.2294191407430217e+00 +2.4972017440537151e+01 +1.3076786262050824e+04 -5.6043099317855306e+05 -6.1473249039506540e+07 
+4.0000000000000002e-01 -5.5031111030854374e-01 +7.2090557184313901e+00 +5.2325580097101181e+00 +2.5622986484509209e+01 +1.3113751679059224e+04 -5.6442624841510539e+05 -6.1575510861760631e+07 
+4.5000000000000001e-01 -5.5030620490333537e-01 +7.2087514816006957e+00 +5.2351765369689627e+00 +2.6297034202744435e+01 +1.3151699709060134e+04 -5.6858181354747014e+05 -6.1684876495926142e+07 
+5.0000000000000000e-01 -5.5030170496157804e-01 +7.2084688573038980e+00 +5.2372796239069581e+00 +2.6992762147122839e+01 +1.3190574608277646e+04 -5.7288911156441737e+05 -6.1801165278858759e+07 
+5.5000000000000004e-01 -5.5029761063649452e-01 +7.2082079049592060e+00 +5.2388721658216451e+00 +2.7708771976458497e+01 +1.3230320792280574e+04 -5.7733956638810143e+05 -6.1924197601038620e+07 
+5.9999999999999998e-01 -5.5029392208144146e-01 +7.2079686839860164e+00 +5.2399590641300424e+00 +2.8443665324387400e+01 +1.3270882516459476e+04 -5.8192460170296417e+05 -6.2053792792512953e+07 
+6.5000000000000002e-01 -5.5029063944969125e-01 +7.2077512538061548e+00 +5.2405452159538362e+00 +2.9196043756961732e+01 +1.3312204148110155e+04 -5.8663564060109528e+05 -6.2189770922589116e+07 
+6.9999999999999996e-01 -5.5028776289460668e-01 +7.2075556738386082e+00 +5.2406355216800291e+00 +2.9964508996681911e+01 +1.3354229968680474e+04 -5.9146410750516457e+05 -6.2331951488865025e+07 
+7.5000000000000000e-01 -5.5028529256948411e-01 +7.2073820035079859e+00 +5.2402348804358514e+00 +3.0747662561192652e+01 +1.3396904291626932e+04 -5.9640142507817759e+05 -6.2480154197793975e+07 
+8.0000000000000004e-01 -5.5028322862773071e-01 +7.2072303022347679e+00 +5.2393481888340805e+00 +3.1544106178078206e+01 +1.3440171499282136e+04 -6.0143901777047967e+05 -6.2634199224009342e+07 
+8.4999999999999998e-01 -5.5028157122271837e-01 +7.2071006294438638e+00 +5.2379803475930862e+00 +3.2352441415539452e+01 +1.3483975865924753e+04 -6.0656830863771436e+05 -6.2793906023502477e+07 
+9.0000000000000002e-01 -5.5028032050783993e-01 +7.2069930445593746e+00 +5.2361362531696551e+00 +3.3171269910420911e+01 +1.3528261776301217e+04 -6.1178072131586738e+05 -6.2959094777977191e+07 
+9.4999999999999996e-01 -5.5027947663656462e-01 +7.2069076070063218e+00 +5.2338208072861976e+00 +3.3999193291540550e+01 +1.3572973479030388e+04 -6.1706767935244238e+05 -6.3129584776080571e+07 
+1.0000000000000000e+00 -5.5027903976227599e-01 +7.2068443762087098e+00 +5.2310389069067647e+00 +3.4834813263534464e+01 +1.3618055346765641e+04 -6.2242060689052194e+05 -6.3305196123233266e+07 
+1.0500000000000000e+00 -5.5027901003846358e-01 +7.2068034115946693e+00 +5.2277954506073137e+00 +3.5676731390635425e+01 +1.3663451710475189e+04 -6.2783092692288314e+05 -6.3485748652448237e+07 
+1.1000000000000001e+00 -5.5027938761864248e-01 +7.2067847725912957e+00 +5.2240953372207741e+00 +3.6523549311879037e+01 +1.3709106900231414e+04 -6.3329006303168356e+05 -6.3671062212360926e+07 
+1.1499999999999999e+00 -5.5028017265629836e-01 +7.2067885186244665e+00 +5.2199434669770293e+00 +3.7373868740159295e+01 +1.3754965200081349e+04 -6.3878943935329537e+05 -6.3860956307895243e+07 
+1.2000000000000000e+00 -5.5028136530495109e-01 +7.2068147091229706e+00 +5.2153447372765269e+00 +3.8226291307528605e+01 +1.3800970979350941e+04 -6.4432047937600268e+05 -6.4055251053396203e+07 
+1.2500000000000000e+00 -5.5028296571814950e-01 +7.2068634035182688e+00 +5.2103040474763125e+00 +3.9079418556304603e+01 +1.3847068551185484e+04 -6.4987460578406532e+05 -6.4253766171415664e+07 
+1.3000000000000000e+00 -5.5028497404948395e-01 +7.2069346612348877e+00 +5.2048262960510447e+00 +3.9931852357944713e+01 +1.3893202253403584e+04 -6.5544324402206717e+05 -6.4456321552616745e+07 
+1.3500000000000001e+00 -5.5028739045249397e-01 +7.2070285417056823e+00 +5.1989163828119560e+00 +4.0782194249942123e+01 +1.3939316390808744e+04 -6.6101781663980940e+05 -6.4662736878451675e+07 
+1.3999999999999999e+00 -5.5029021508083942e-01 +7.2071451043615404e+00 +5.1925792064527432e+00 +4.1629045906864839e+01 +1.3985355299441664e+04 -6.6658974743552727e+05 -6.4872832040947668e+07 
+1.4500000000000000e+00 -5.5029344808812342e-01 +7.2072844086325425e+00 +5.1858196662190030e+00 +4.2471009032003906e+01 +1.4031263300559145e+04 -6.7215046025763487e+05 -6.5086426834154271e+07 
+1.5000000000000000e+00 -5.5029708962798929e-01 +7.2074465139504431e+00 +5.1786426602563429e+00 +4.3306685311305039e+01 +1.4076984747316426e+04 -6.7769137888562027e+05 -6.5303341275961138e+07 
+1.5500000000000000e+00 -5.5030113985412177e-01 +7.2076314797482111e+00 +5.1710530905314274e+00 +4.4134676407586568e+01 +1.4122463889050643e+04 -6.8320392686537886e+05 -6.5523394679235660e+07 
+1.6000000000000001e+00 -5.5030559892022002e-01 +7.2078393654576631e+00 +5.1630558527113486e+00 +4.4953584053448239e+01 +1.4167645151782857e+04 -6.8867952827885083e+05 -6.5746407573459342e+07 
+1.6499999999999999e+00 -5.5031046697996877e-01 +7.2080702305120212e+00 +5.1546558508343301e+00 +4.5762009954330189e+01 +1.4212472731256537e+04 -6.9410960693800705e+05 -6.5972198916433513e+07 
+1.7000000000000000e+00 -5.5031574418713092e-01 +7.2083241343452107e+00 +5.1458579802518791e+00 +4.6558555799678061e+01 +1.4256891064424432e+04 -6.9948558645385143e+05 -6.6200589321620606e+07 
+1.7500000000000000e+00 -5.5032143069547335e-01 +7.2086011363917155e+00 +5.1366671429833284e+00 +4.7341823306082340e+01 +1.4300844405270800e+04 -7.0479889071314514e+05 -6.6431398152898110e+07 
+1.8000000000000000e+00 -5.5032752665873008e-01 +7.2089012960857319e+00 +5.1270882403958629e+00 +4.8110414214634162e+01 +1.4344277032156499e+04 -7.1004094369509793e+05 -6.6664444964092560e+07 
+1.8500000000000001e+00 -5.5033403223070765e-01 +7.2092246728642388e+00 +5.1171261693851289e+00 +4.8862930183608796e+01 +1.4387133343023985e+04 -7.1520316869525728e+05 -6.6899550111712947e+07 
+1.8999999999999999e+00 -5.5034094756526397e-01 +7.2095713261603800e+00 +5.1067858325879314e+00 +4.9597973048181878e+01 +1.4429357580228738e+04 -7.2027699040244368e+05 -6.7136532898252472e+07 
+1.9500000000000000e+00 -5.5034827281618393e-01 +7.2099413154101182e+00 +5.0960721292498556e+00 +5.0314144569805848e+01 +1.4470894087443090e+04 -7.2525383289580652e+05 -6.7375213347402528e+07 
+2.0000000000000000e+00 -5.5035594059999671e-01 +7.2103312360776552e+00 +5.0850852183127131e+00 +5.1004441808907202e+01 +1.4511345688376261e+04 -7.3008504403930297e+05 -6.7613319951914802e+07 
+2.0499999999999998e+00 -5.5036401011709868e-01 +7.2107440216259997e+00 +5.0737403304952400e+00 +5.1674689811986958e+01 +1.4551011774579407e+04 -7.3480879287489830e+05 -6.7852419285419345e+07 
+2.1000000000000001e+00 -5.5037247994995397e-01 +7.2111795329938415e+00 +5.0620421735933236e+00 +5.2324772838560676e+01 +1.4589834632925300e+04 -7.3942150609181146e+05 -6.8091999314636245e+07 
+2.1499999999999999e+00 -5.5038134868100497e-01 +7.2116376311194585e+00 +5.0499954534929756e+00 +5.2954575187495251e+01 +1.4627756603563657e+04 -7.4391961071945750e+05 -6.8331548375936821e+07 
+2.2000000000000002e+00 -5.5039061489273911e-01 +7.2121181769407361e+00 +5.0376048765053669e+00 +5.3563981198040274e+01 +1.4664720013449938e+04 -7.4829953412702389e+05 -6.8570554708037376e+07 
+2.2500000000000000e+00 -5.5040027716769602e-01 +7.2126210313975099e+00 +5.0248751510411447e+00 +5.4152875152872483e+01 +1.4700667135366959e+04 -7.5255770322324720e+05 -6.8808506199793294e+07 
+2.2999999999999998e+00 -5.5041033408835449e-01 +7.2131460554282079e+00 +5.0118109811185567e+00 +5.4721141402502589e+01 +1.4735540360273491e+04 -7.5669054540657927e+05 -6.9044891536041036e+07 
+2.3500000000000001e+00 -5.5042078423732299e-01 +7.2136931099752584e+00 +4.9984170773281384e+00 +5.5268664164983996e+01 +1.4769281899669711e+04 -7.6069448704675818e+05 -6.9279198185585782e+07 
+2.3999999999999999e+00 -5.5043162619705388e-01 +7.2142620559774135e+00 +4.9846981429492985e+00 +5.5795327839176252e+01 +1.4801834165534476e+04 -7.6456595599532279e+05 -6.9510914985756576e+07 
+2.4500000000000002e+00 -5.5044285855018549e-01 +7.2148527543755163e+00 +4.9706588886241390e+00 +5.6301016743210013e+01 +1.4833139371355130e+04 -7.6830137940937001e+05 -6.9739529439540535e+07 
+2.5000000000000000e+00 -5.5045447987926033e-01 +7.2154650661117428e+00 +4.9563040193190480e+00 +5.6785615170932736e+01 +1.4863139880978872e+04 -7.7189718426415091e+05 -6.9964530054455444e+07 
+2.5499999999999998e+00 -5.5046648876687931e-01 +7.2160988521257128e+00 +4.9416382432547534e+00 +5.7249007536413004e+01 +1.4891777973714965e+04 -7.7534979851161223e+05 -7.0185404786130801e+07 
+2.6000000000000001e+00 -5.5047888379571552e-01 +7.2167539733616595e+00 +4.9266662698180319e+00 +5.7691078087012869e+01 +1.4918995891729584e+04 -7.7865564875501813e+05 -7.0401641316747725e+07 
+2.6499999999999999e+00 -5.5049166354833345e-01 +7.2174302907610031e+00 +4.9113928048056694e+00 +5.8111711203502338e+01 +1.4944735983304492e+04 -7.8181116265903064e+05 -7.0612728089667380e+07 
+2.7000000000000002e+00 -5.5050482660737476e-01 +7.2181276652655564e+00 +4.8958225564274764e+00 +5.8510791282628155e+01 +1.4968940523569212e+04 -7.8481276809673256e+05 -7.0818153022951111e+07 
+2.7500000000000000e+00 -5.5051837155552308e-01 +7.2188459578194504e+00 +4.8799602334981058e+00 +5.8888202625380032e+01 +1.4991551771892635e+04 -7.8765689207185607e+05 -7.1017403936038762e+07 
+2.7999999999999998e+00 -5.5053229697541917e-01 +7.2195850293653727e+00 +4.8638105435184000e+00 +5.9243829628512984e+01 +1.5012512029099105e+04 -7.9033996245417453e+05 -7.1209968955834895e+07 
+2.8500000000000001e+00 -5.5054660144976775e-01 +7.2203447408479269e+00 +4.8473781944063887e+00 +5.9577556603166030e+01 +1.5031763578222142e+04 -7.9285840631021885e+05 -7.1395336067551583e+07 
+2.8999999999999999e+00 -5.5056128356127532e-01 +7.2211249532096193e+00 +4.8306678961592482e+00 +5.9889268006502348e+01 +1.5049248650618540e+04 -7.9520865208771243e+05 -7.1572992928410977e+07 
+2.9500000000000002e+00 -5.5057634189259597e-01 +7.2219255273969374e+00 +4.8136843575776611e+00 +6.0178848117262795e+01 +1.5064909501769767e+04 -7.9738712661928125e+05 -7.1742427332557812e+07 
+3.0000000000000000e+00 -5.5059177502650214e-01 +7.2227463243537287e+00 +4.7964322867062830e+00 +6.0446181345344975e+01 +1.5078688415919476e+04 -7.9939025787761225e+05 -7.1903127305230856e+07 
+3.0499999999999998e+00 -5.5060758154573552e-01 +7.2235872050233754e+00 +4.7789163932867949e+00 +6.0691152147017384e+01 +1.5090527630666347e+04 -8.0121447425456357e+05 -7.2054580556729183e+07 
+3.1000000000000001e+00 -5.5062376003300750e-01 +7.2244480303505458e+00 +4.7611413849394513e+00 +6.0913644941195194e+01 +1.5100369434912966e+04 -8.0285620382743515e+05 -7.2196275129469931e+07 
+3.1499999999999999e+00 -5.5064030907114314e-01 +7.2253286612852454e+00 +4.7431119731865730e+00 +6.1113543926690383e+01 +1.5108156012131451e+04 -8.0431187282917963e+05 -7.2327698353740230e+07 
+3.2000000000000002e+00 -5.5065722724283372e-01 +7.2262289587695294e+00 +4.7248328664074677e+00 +6.1290733675789241e+01 +1.5113829638922727e+04 -8.0557791066233395e+05 -7.2448338229893118e+07 
+3.2500000000000000e+00 -5.5067451313088966e-01 +7.2271487837501862e+00 +4.7063087744065308e+00 +6.1445098558885185e+01 +1.5117332542352615e+04 -8.0665074502229947e+05 -7.2557682385180339e+07 
+3.2999999999999998e+00 -5.5069216531814036e-01 +7.2280879971732368e+00 +4.6875444078647961e+00 +6.1576523003847001e+01 +1.5118606931131826e+04 -8.0752680411748053e+05 -7.2655218349037334e+07 
+3.3500000000000001e+00 -5.5071018238739655e-01 +7.2290464599865123e+00 +4.6685444770208884e+00 +6.1684891376898648e+01 +1.5117595023623977e+04 -8.0820251566318679e+05 -7.2740433712321386e+07 
+3.3999999999999999e+00 -5.5072856292145156e-01 +7.2300240331345025e+00 +4.6493136917964701e+00 +6.1770088196771191e+01 +1.5114239046445267e+04 -8.0867430863168743e+05 -7.2812816127269015e+07 
+3.4500000000000002e+00 -5.5074730550316831e-01 +7.2310205775682261e+00 +4.6298567631170657e+00 +6.1831997725611558e+01 +1.5108481200583765e+04 -8.0893860990131565e+05 -7.2871853084630787e+07 
+3.5000000000000000e+00 -5.5076640871534654e-01 +7.2320359542298869e+00 +4.6101783986410938e+00 +6.1870504615279174e+01 +1.5100263770207768e+04 -8.0899184962079837e+05 -7.2917032624343514e+07 
+3.5499999999999998e+00 -5.5078587114088129e-01 +7.2330700240703649e+00 +4.5902833160189527e+00 +6.1885493161195654e+01 +1.5089528771964782e+04 -8.0883045496568840e+05 -7.2947840991889149e+07 
+3.6000000000000001e+00 -5.5080569136265878e-01 +7.2341226480381309e+00 +4.5701762206868422e+00 +6.1876847771804975e+01 +1.5076218550961334e+04 -8.0845085408292920e+05 -7.2963766657220423e+07 
+3.6499999999999999e+00 -5.5082586796349386e-01 +7.2351936870764826e+00 +4.5498618266755440e+00 +6.1844453098832297e+01 +1.5060275219663547e+04 -8.0784947717671213e+05 -7.2964296519007534e+07 
+3.6999999999999900e+00 -5.5084639952634651e-01 +7.2362830021381974e+00 +4.5293448443622442e+00 +6.1788193399133434e+01 +1.5041640987773428e+04 -8.0702275118295429e+05 -7.2948918136877313e+07 
+3.7499999999999898e+00 -5.5086728463403423e-01 +7.2373904541681329e+00 +4.5086299848167188e+00 +6.1707953278936806e+01 +1.5020258049687514e+04 -8.0596710595081549e+05 -7.2917118986177474e+07 
+3.7999999999999901e+00 -5.5088852186953674e-01 +7.2385159041186018e+00 +4.4877219635813086e+00 +6.1603617045441482e+01 +1.4996068468907653e+04 -8.0467896889659658e+05 -7.2868385624536827e+07 
+3.8499999999999899e+00 -5.5091010981575550e-01 +7.2396592129354751e+00 +4.4666254899478641e+00 +6.1475069280552589e+01 +1.4969014482368253e+04 -8.0315476970416866e+05 -7.2802205809340358e+07 
+3.8999999999999901e+00 -5.5093204705559651e-01 +7.2408202415672349e+00 +4.4453452764331089e+00 +6.1322194486207714e+01 +1.4939038243449409e+04 -8.0139093747345346e+05 -7.2718066752907589e+07 
+3.9499999999999900e+00 -5.5095433209755484e-01 +7.2419988481788602e+00 +4.4238857876781816e+00 +6.1144954169526905e+01 +1.4906089374422549e+04 -7.9938466775369551e+05 -7.2615513688475564e+07 
+3.9999999999999898e+00 -5.5097696258335227e-01 +7.2431948458042088e+00 +4.4022489590220593e+00 +6.0944168964505010e+01 +1.4870199034139843e+04 -7.9714172951872088e+05 -7.2494688795899406e+07 
+4.0499999999999901e+00 -5.5099993559473759e-01 +7.2444080122517462e+00 +4.3804353397001448e+00 +6.0721197558913019e+01 +1.4831448211105977e+04 -7.9467330129937152e+05 -7.2356080906843111e+07 
+4.0999999999999899e+00 -5.5102324820414383e-01 +7.2456381244654704e+00 +4.3584454720743846e+00 +6.0477406903205598e+01 +1.4789918587521228e+04 -7.9199064879601472e+05 -7.2200182839123502e+07 
+4.1499999999999897e+00 -5.5104689748411451e-01 +7.2468849593893889e+00 +4.3362798991006528e+00 +6.0214163947761342e+01 +1.4745691822821203e+04 -7.8910503774047503e+05 -7.2027487228204697e+07 
+4.1999999999999904e+00 -5.5107088050704567e-01 +7.2481482939686881e+00 +4.3139391600973029e+00 +5.9932835615644144e+01 +1.4698849674480223e+04 -7.8602773365834507e+05 -7.1838487372446567e+07 
+4.2499999999999902e+00 -5.5109519434543153e-01 +7.2494279051496733e+00 +4.2914237968520199e+00 +5.9634788778417530e+01 +1.4649473831031752e+04 -7.8277000164741417e+05 -7.1633676089321107e+07 
+4.2999999999999901e+00 -5.5111983607171411e-01 +7.2507235698753023e+00 +4.2687343500958912e+00 +5.9321390454080529e+01 +1.4597646013149168e+04 -7.7934310801696312e+05 -7.1413546427409947e+07 
+4.3499999999999899e+00 -5.5114480275836086e-01 +7.2520350650922820e+00 +4.2458713603577136e+00 +5.8994007496108708e+01 +1.4543447938425441e+04 -7.7575831767707365e+05 -7.1178591378319874e+07 
+4.3999999999999897e+00 -5.5117009147788465e-01 +7.2533621677464346e+00 +4.2228353704943027e+00 +5.8654006819326185e+01 +1.4486961264490301e+04 -7.7202689615259878e+05 -7.0929303536937207e+07 
+4.4499999999999904e+00 -5.5119569930273615e-01 +7.2547046547821799e+00 +4.1996269164974924e+00 +5.8302755386172677e+01 +1.4428267830973933e+04 -7.6816010929939710e+05 -7.0666176712517902e+07 
+4.4999999999999902e+00 -5.5122162330535052e-01 +7.2560623031466864e+00 +4.1762465406226781e+00 +5.7941620049995166e+01 +1.4367449305194219e+04 -7.6416922208052850e+05 -7.0389703534587234e+07 
+4.5499999999999901e+00 -5.5124786055830288e-01 +7.2574348897864196e+00 +4.1526947809641532e+00 +5.7571967692351386e+01 +1.4304587469393615e+04 -7.6006549972031754e+05 -7.0100377415727690e+07 
+4.5999999999999899e+00 -5.5127440813394690e-01 +7.2588221916448870e+00 +4.1289721780696986e+00 +5.7195165335118041e+01 +1.4239764036037508e+04 -7.5586020862816193e+05 -6.9798691279822513e+07 
+4.6499999999999897e+00 -5.5130126310483929e-01 +7.2602239856714847e+00 +4.1050792709790684e+00 +5.6812579735655547e+01 +1.4173060754917320e+04 -7.5156461299213511e+05 -6.9485138287840158e+07 
+4.6999999999999904e+00 -5.5132842254344794e-01 +7.2616400488092046e+00 +4.0810165963530842e+00 +5.6425577926951178e+01 +1.4104559439270874e+04 -7.4718997931298404e+05 -6.9160212020545170e+07 
+4.7499999999999902e+00 -5.5135588352223153e-01 +7.2630701580073112e+00 +4.0567846939555992e+00 +5.6035526681457583e+01 +1.4034341814077548e+04 -7.4274757192719949e+05 -6.8824405443834513e+07 
+4.7999999999999901e+00 -5.5138364311369392e-01 +7.2645140902114491e+00 +4.0323841012787680e+00 +5.5643792922023970e+01 +1.3962489671388916e+04 -7.3824865644894913e+05 -6.8478211993463010e+07 
+4.8499999999999899e+00 -5.5141169839033521e-01 +7.2659716223683093e+00 +4.0078153556047615e+00 +5.5251743525061976e+01 +1.3889084798289052e+04 -7.3370449810054386e+05 -6.8122125026982322e+07 
+4.8999999999999897e+00 -5.5144004642452604e-01 +7.2674425314232911e+00 +3.9830789943668163e+00 +5.4860745431540366e+01 +1.3814208980047781e+04 -7.2912636267061043e+05 -6.7756637895943239e+07 
+4.9499999999999904e+00 -5.5146849048083801e-01 +7.2689165498295587e+00 +3.9583441881699568e+00 +5.4474763780273236e+01 +1.3738462038361184e+04 -7.2455655040772469e+05 -6.7384793316170365e+07 
+4.9999999999999902e+00 -5.5149721761291337e-01 +7.2704033267959902e+00 +3.9334450789621584e+00 +5.4092507081657146e+01 +1.3661424741631738e+04 -7.1997536953885469e+05 -6.7004644960163720e+07 
+5.0499999999999901e+00 -5.5152622495196024e-01 +7.2719026437474676e+00 +3.9083821902717917e+00 +5.3715314775009269e+01 +1.3583177305442041e+04 -7.1539385915392765e+05 -6.6616676711454429e+07 
