# multipoles
# s[mm] polynom_b[n=0][T/m^n] polynom_b[n=1][T/m^n] polynom_b[n=2][T/m^n] polynom_b[n=3][T/m^n] polynom_b[n=4][T/m^n] polynom_b[n=5][T/m^n] polynom_b[n=6][T/m^n] 
-0.0000000000000000e+00 -5.2300717694040078e-01 +6.8559767445714748e+00 +5.0033822114414992e+00 -4.6382482997820746e+00 -3.1655682806945065e+03 -3.1595046881717339e+05 +1.4540363592536459e+07 
-5.0000000000000003e-02 -5.2301447777456245e-01 +6.8564047412604259e+00 +4.9930295052512381e+00 -4.2587874211699139e+00 -3.1560392621912265e+03 -3.1790228715547686e+05 +1.4445835961407339e+07 
-1.0000000000000001e-01 -5.2302213827585275e-01 +6.8568524238420840e+00 +4.9822254499064869e+00 -3.8905453289967529e+00 -3.1446970593086189e+03 -3.1975851535240049e+05 +1.4336626254621247e+07 
-1.4999999999999999e-01 -5.2303015690625121e-01 +6.8573196764163020e+00 +4.9709723976945570e+00 -3.5332699900784093e+00 -3.1315604228125076e+03 -3.2152085439619684e+05 +1.4213027579046946e+07 
-2.0000000000000001e-01 -5.2303853212781293e-01 +6.8578063830840623e+00 +4.9592727004909642e+00 -3.1867093804091033e+00 -3.1166480947037803e+03 -3.2319100523672783e+05 +1.4075332992954889e+07 
-2.5000000000000000e-01 -5.2304726240250843e-01 +6.8583124279433116e+00 +4.9471287097250540e+00 -2.8506113274284779e+00 -3.0999787998761694e+03 -3.2477067001132172e+05 +1.3923835414799027e+07 
-2.9999999999999999e-01 -5.2305634619240593e-01 +6.8588376950969296e+00 +4.9345427782918225e+00 -2.5247238503480802e+00 -3.0815713051161752e+03 -3.2626154922455747e+05 +1.3758828056481067e+07 
-3.4999999999999998e-01 -5.2306578195958930e-01 +6.8593820686459059e+00 +4.9215172591536609e+00 -2.2087948503350008e+00 -3.0614443799016281e+03 -3.2766534440574585e+05 +1.3580604151113147e+07 
-4.0000000000000002e-01 -5.2307556816607792e-01 +6.8599454326920979e+00 +4.9080545044835446e+00 -1.9025722416087056e+00 -3.0396167707156978e+03 -3.2898375694403192e+05 +1.3389456764863171e+07 
-4.5000000000000001e-01 -5.2308570327398185e-01 +6.8605276713385486e+00 +4.8941568663045292e+00 -1.6058039706459919e+00 -3.0161072195417983e+03 -3.3021848793671210e+05 +1.3185678935252350e+07 
-5.0000000000000000e-01 -5.2309618574539707e-01 +6.8611286686910038e+00 +4.8798266962129189e+00 -1.3182380677584797e+00 -2.9909344592411508e+03 -3.3137123779288074e+05 +1.2969563644879129e+07 
-5.5000000000000004e-01 -5.2310701404242210e-01 +6.8617483088512055e+00 +4.8650663477114975e+00 -1.0396223663781949e+00 -2.9641172698528590e+03 -3.3244370857212163e+05 +1.2741404176183160e+07 
-5.9999999999999998e-01 -5.2311818662723286e-01 +6.8623864759256907e+00 +4.8498781724279576e+00 -7.6970488764209233e-01 -2.9356743852749678e+03 -3.3343760072357766e+05 +1.2501493518950645e+07 
-6.5000000000000002e-01 -5.2312970196195863e-01 +6.8630430540196699e+00 +4.8342645241486046e+00 -5.0823356390771757e-01 -2.9056245924978311e+03 -3.3435461546938150e+05 +1.2250124997731080e+07 
-6.9999999999999996e-01 -5.2314155850872823e-01 +6.8637179272396525e+00 +4.8182277544920415e+00 -2.5495636180601894e-01 -2.8739866257147219e+03 -3.3519645372162957e+05 +1.1987591603059977e+07 
-7.5000000000000000e-01 -5.2315375472974357e-01 +6.8644109796919022e+00 +4.8017702159904703e+00 -9.6212136639325391e-03 -2.8407792378094477e+03 -3.3596481669004168e+05 +1.1714186428969460e+07 
-8.0000000000000004e-01 -5.2316628908719909e-01 +6.8651220954858703e+00 +4.7848942621749799e+00 +2.2802383812780594e-01 -2.8060212109636018e+03 -3.3666140466712974e+05 +1.1430202772978866e+07 
-8.4999999999999998e-01 -5.2317916004328646e-01 +6.8658511587282032e+00 +4.7676022438115515e+00 +4.5823089354342073e-01 -2.7697312555081503e+03 -3.3728791913624783e+05 +1.1135933458524454e+07 
-9.0000000000000002e-01 -5.2319236606023334e-01 +6.8665980535282944e+00 +4.7498965150720256e+00 +6.8125195366060687e-01 -2.7319281695376053e+03 -3.3784606073171715e+05 +1.0831671887188181e+07 
-9.4999999999999996e-01 -5.2320590560023250e-01 +6.8673626639943999e+00 +4.7317794265196822e+00 +8.9733909524626754e-01 -2.6926306566399917e+03 -3.3833753073641373e+05 +1.0517710827198984e+07 
-1.0000000000000000e+00 -5.2321977712559098e-01 +6.8681448742390243e+00 +4.7132533328711714e+00 +1.1067442444982318e+00 -2.6518575315982343e+03 -3.3876402922672813e+05 +1.0194343799467158e+07 
-1.0500000000000000e+00 -5.2323397909853897e-01 +6.8689445683719015e+00 +4.6943205862946966e+00 +1.3097194539749737e+00 -2.6096275374760221e+03 -3.3912725727306650e+05 +9.8618638229587916e+06 
-1.1000000000000001e+00 -5.2324850998132966e-01 +6.8697616305043949e+00 +4.6749835406204694e+00 +1.5065167427910713e+00 -2.5659594666795028e+03 -3.3942891571814555e+05 +9.5205642724798396e+06 
-1.1499999999999999e+00 -5.2326336823624864e-01 +6.8705959447475538e+00 +4.6552445446654014e+00 +1.6973881593420423e+00 -2.5208719757114495e+03 -3.3967070564980037e+05 +9.1707375956708696e+06 
-1.2000000000000000e+00 -5.2327855232561760e-01 +6.8714473952168813e+00 +4.6351059551384131e+00 +1.8825855784052883e+00 -2.4743839315109340e+03 -3.3985432668350375e+05 +8.8126776559417602e+06 
-1.2500000000000000e+00 -5.2329406071173379e-01 +6.8723158660229782e+00 +4.6145701228304645e+00 +2.0623611149530179e+00 -2.4265140447519216e+03 -3.3998148048993445e+05 +8.4466772709197681e+06 
-1.3000000000000000e+00 -5.2330989185692478e-01 +6.8732012412795918e+00 +4.5936394010773718e+00 +2.2369667688366417e+00 -2.3772810917229904e+03 -3.4005386778413266e+05 +8.0730296903288811e+06 
-1.3500000000000001e+00 -5.2332604422352003e-01 +6.8741034051032841e+00 +4.5723161417730882e+00 +2.4066544409457569e+00 -2.3267038111183747e+03 -3.4007318845858652e+05 +7.6920279132224265e+06 
-1.3999999999999999e+00 -5.2334251627385509e-01 +6.8750222416085904e+00 +4.5506026998915940e+00 +2.5716761431667341e+00 -2.2748010256141602e+03 -3.4004114336313040e+05 +7.3039655108936382e+06 
-1.4500000000000000e+00 -5.2335930647032014e-01 +6.8759576349097227e+00 +4.5285014250089608e+00 +2.7322839066470923e+00 -2.2215914138297680e+03 -3.3995943347610289e+05 +6.9091350851722183e+06 
-1.5000000000000000e+00 -5.2337641327525464e-01 +6.8769094691235031e+00 +4.5060146728804638e+00 +2.8887296956860715e+00 -2.1670938162428265e+03 -3.3982975930474704e+05 +6.5078303120225584e+06 
-1.5500000000000000e+00 -5.2339383515106375e-01 +6.8778776283685517e+00 +4.4831447957918629e+00 +3.0412654079569772e+00 -2.1113269848416430e+03 -3.3965382079332072e+05 +6.1003442890682034e+06 
-1.6000000000000001e+00 -5.2341157056012833e-01 +6.8788619967598450e+00 +4.4598941441016819e+00 +3.1901431037734720e+00 -2.0543096190044407e+03 -3.3943331921246246e+05 +5.6869697575884126e+06 
-1.6499999999999999e+00 -5.2342961796487175e-01 +6.8798624584164010e+00 +4.4362650735608922e+00 +3.3356147109655603e+00 -1.9960605614983651e+03 -3.3916995481485652e+05 +5.2680004155068118e+06 
-1.7000000000000000e+00 -5.2344797582769864e-01 +6.8808788974573192e+00 +4.4122599347560358e+00 +3.4779321634465115e+00 -1.9365985187966546e+03 -3.3886542789368547e+05 +4.8437290535623040e+06 
-1.7500000000000000e+00 -5.2346664261105114e-01 +6.8819111980008429e+00 +4.3878810826832906e+00 +3.6173474596279704e+00 -1.8759423149045479e+03 -3.3852143933244940e+05 +4.4144492509648418e+06 
-1.8000000000000000e+00 -5.2348561677733407e-01 +6.8829592441671199e+00 +4.3631308685865431e+00 +3.7541125212793998e+00 -1.8141106742645961e+03 -3.3813968933423422e+05 +3.9804539177573877e+06 
-1.8500000000000001e+00 -5.2350489678902423e-01 +6.8840229200765961e+00 +4.3380116452055848e+00 +3.8884792961421151e+00 -1.7511223599467385e+03 -3.3772187843708874e+05 +3.5420362213232308e+06 
-1.8999999999999999e+00 -5.2352448110862038e-01 +6.8851021098511316e+00 +4.3125257677052300e+00 +4.0206996685156433e+00 -1.6869962027524591e+03 -3.3726970657755143e+05 +3.0994897910348563e+06 
-1.9500000000000000e+00 -5.2354436819852912e-01 +6.8861966976113802e+00 +4.2866755860249910e+00 +4.1510256193352442e+00 -1.6217508910521587e+03 -3.3678487462399923e+05 +2.6531072920307447e+06 
-2.0000000000000000e+00 -5.2356455652127087e-01 +6.8873065674781691e+00 +4.2604634554732188e+00 +4.2797091115329549e+00 -1.5554052620970601e+03 -3.3626908322233701e+05 +2.2031824096310907e+06 
-2.0499999999999998e+00 -5.2358504438402032e-01 +6.8884315918763122e+00 +4.2338928455771487e+00 +4.4069561436051563e+00 -1.4879891759298616e+03 -3.3572388336602936e+05 +1.7500282333199645e+06 
-2.1000000000000001e+00 -5.2360582946988543e-01 +6.8895716025073988e+00 +4.2069713990059343e+00 +4.5327765882898365e+00 -1.4195753755033702e+03 -3.3515002019647899e+05 +1.2940302862811158e+06 
-2.1499999999999999e+00 -5.2362690930511835e-01 +6.8907264173339202e+00 +4.1797080104783877e+00 +4.6571219903600776e+00 -1.3502467914953331e+03 -3.3454798873393360e+05 +8.3558962029157835e+05 
-2.2000000000000002e+00 -5.2364828141605757e-01 +6.8918958543203797e+00 +4.1521115748029516e+00 +4.7799438127907177e+00 -1.2800863516171908e+03 -3.3391828332035220e+05 +3.7510725031979108e+05 
-2.2500000000000000e+00 -5.2366994332901184e-01 +6.8930797314282284e+00 +4.1241909850288323e+00 +4.9011936568831365e+00 -1.2091769391211642e+03 -3.3326139945464185e+05 -8.7016100621010279e+04 
-2.2999999999999998e+00 -5.2369189257034432e-01 +6.8942778666221480e+00 +4.0959551381365689e+00 +5.0208229977193737e+00 -1.1376015476564301e+03 -3.3257783158375468e+05 -5.5037894178949844e+05 
-2.3500000000000001e+00 -5.2371412666633332e-01 +6.8954900778677590e+00 +4.0674129275680233e+00 +5.1387832921227297e+00 -1.0654430654059124e+03 -3.3186807403729664e+05 -1.0145805375557713e+06 
-2.3999999999999999e+00 -5.2373664314334911e-01 +6.8967161831272614e+00 +4.0385732487849513e+00 +5.2550261373443554e+00 -9.9278444037410486e+02 -3.3113262228524953e+05 -1.4792197258114845e+06 
-2.4500000000000002e+00 -5.2375943952770487e-01 +6.8979560003657818e+00 +4.0094449953297415e+00 +5.3695030145591600e+00 -9.1970857171579917e+02 -3.3037197081092087e+05 -1.9438956645639781e+06 
-2.5000000000000000e+00 -5.2378251334582038e-01 +6.8992093475460381e+00 +3.9800370641533380e+00 +5.4821655209537115e+00 -8.4629844386098114e+02 -3.2958661511077924e+05 -2.4082069559841100e+06 
-2.5499999999999998e+00 -5.2380586212401781e-01 +6.9004760426330796e+00 +3.9503583480524052e+00 +5.5929651568719772e+00 -7.7263693413602118e+02 -3.2877704983471741e+05 -2.8717529120593746e+06 
-2.6000000000000001e+00 -5.2382948338864754e-01 +6.9017559035898408e+00 +3.9204177430142968e+00 +5.7018535185801484e+00 -6.9880700065326243e+02 -3.2794377043410367e+05 -3.3341323160395939e+06 
-2.6499999999999999e+00 -5.2385337466612136e-01 +6.9030487483813872e+00 +3.8902241420746435e+00 +5.8087821185073123e+00 -6.2489152777143852e+02 -3.2708727167292964e+05 -3.7949444249799298e+06 
-2.7000000000000002e+00 -5.2387753348277288e-01 +6.9043543949724873e+00 +3.8597864410578562e+00 +5.9137024923064780e+00 -5.5097346895381008e+02 -3.2620804850904713e+05 -4.2537880566898743e+06 
-2.7500000000000000e+00 -5.2390195736501566e-01 +6.9056726613254602e+00 +3.8291135359205755e+00 +6.0165662766442702e+00 -4.7713578833590265e+02 -3.2530659672614367e+05 -4.7102619238869678e+06 
-2.7999999999999998e+00 -5.2392664383926135e-01 +6.9070033654045364e+00 +3.7982143205399046e+00 +6.1173250274524671e+00 -4.0346138291092268e+02 -3.2438341141594888e+05 -5.1639652368822237e+06 
-2.8500000000000001e+00 -5.2395159043184136e-01 +6.9083463251730022e+00 +3.7670976880694589e+00 +6.2159303511264552e+00 -3.3003313758714796e+02 -3.2343898810090742e+05 -5.6144972601071112e+06 
-2.8999999999999999e+00 -5.2397679466919500e-01 +6.9097013585950213e+00 +3.7357725364097933e+00 +6.3123338237176156e+00 -2.5693406692496916e+02 -3.2247382207201788e+05 -6.0614563719328223e+06 
-2.9500000000000002e+00 -5.2400225407771228e-01 +6.9110682836325346e+00 +3.7042477580963764e+00 +6.4064871032252064e+00 -1.8424703427258103e+02 -3.2148840923731931e+05 -6.5044419987993175e+06 
-3.0000000000000000e+00 -5.2402796618380498e-01 +6.9124469182502892e+00 +3.6725322487914323e+00 +6.4983417455304426e+00 -1.1205498851854772e+02 -3.2048324470923305e+05 -6.9430529812828433e+06 
-3.0499999999999998e+00 -5.2405392851385002e-01 +6.9138370804105760e+00 +3.6406349022636117e+00 +6.5878493985490687e+00 -4.0440830093925250e+01 -3.1945882430567814e+05 -7.3768884799069725e+06 
-3.1000000000000001e+00 -5.2408013859431690e-01 +6.9152385880753799e+00 +3.6085646142793144e+00 +6.6749617303250375e+00 +3.0512490489505325e+01 -3.1841564404053631e+05 -7.8055473285575453e+06 
-3.1499999999999999e+00 -5.2410659395159820e-01 +6.9166512592076046e+00 +3.5763302797897554e+00 +6.7596303695605506e+00 +1.0072204333526406e+02 -3.1735419958335016e+05 -8.2286284937143596e+06 
-3.2000000000000002e+00 -5.2413329211211257e-01 +6.9180749117679152e+00 +3.5439407937268901e+00 +6.8418070318888775e+00 +1.7010489811400339e+02 -3.1627498728976632e+05 -8.6457309347842354e+06 
-3.2500000000000000e+00 -5.2416023060225336e-01 +6.9195093637195262e+00 +3.5114050501376255e+00 +6.9214433379090092e+00 +2.3857815232262826e+02 -3.1517850277229829e+05 -9.0564538143899087e+06 
-3.2999999999999998e+00 -5.2418740694846666e-01 +6.9209544330230299e+00 +3.4787319431375350e+00 +6.9984910052883604e+00 +3.0605889917861339e+02 -3.1406524239733029e+05 -9.4603962534919623e+06 
-3.3500000000000001e+00 -5.2421481867721220e-01 +6.9224099376388777e+00 +3.4459303691008238e+00 +7.0729017487312031e+00 +3.7246417211962591e+02 -3.1293570247871469e+05 -9.8571569750972353e+06 
-3.3999999999999999e+00 -5.2424246331486180e-01 +6.9238756955281557e+00 +3.4130092215501548e+00 +7.1446272737231187e+00 +4.3771108280245812e+02 -3.1179037930846802e+05 -1.0246335233423939e+07 
-3.4500000000000002e+00 -5.2427033838788484e-01 +6.9253515246513810e+00 +3.3799773978031942e+00 +7.2136192929318534e+00 +5.0171663946480550e+02 -3.1062976919052994e+05 -1.0627529577881046e+07 
-3.5000000000000000e+00 -5.2429844142269888e-01 +6.9268372429674034e+00 +3.3468437900398524e+00 +7.2798295767239045e+00 +5.6439799033793918e+02 -3.0945436884996196e+05 -1.1000339507761886e+07 
-3.5499999999999998e+00 -5.2432676994573924e-01 +6.9283326684344004e+00 +3.3136172935294521e+00 +7.3432099347003845e+00 +6.2567220135713603e+02 -3.0826467540003208e+05 -1.1364363970982498e+07 
-3.6000000000000001e+00 -5.2435532148346364e-01 +6.9298376190146751e+00 +3.2803068027194571e+00 +7.4037119927472057e+00 +6.8545636127373155e+02 -3.0706118439732440e+05 -1.1719202069664001e+07 
-3.6499999999999999e+00 -5.2438409356223659e-01 +6.9313519126612038e+00 +3.2469212135348013e+00 +7.4612877575867440e+00 +7.4366751685753536e+02 -3.0584439450626646e+05 -1.2064452612624425e+07 
-3.6999999999999900e+00 -5.2441308370857109e-01 +6.9328753673357202e+00 +3.2134694210550112e+00 +7.5158888652624949e+00 +8.0022274061397820e+02 -3.0461480134293210e+05 -1.2399714591272332e+07 
-3.7499999999999898e+00 -5.2444228944886595e-01 +6.9344078009941699e+00 +3.1799603179993272e+00 +7.5674671871890151e+00 +8.5503916897126123e+02 -3.0337290244414879e+05 -1.2724587429824382e+07 
-3.7999999999999901e+00 -5.2447170830954248e-01 +6.9359490315922372e+00 +3.1464028012695899e+00 +7.6159745938415080e+00 +9.0803382636715821e+02 -3.0211919530908606e+05 -1.3038669798911380e+07 
-3.8499999999999899e+00 -5.2450133781707675e-01 +6.9374988770857380e+00 +3.1128057638675832e+00 +7.6613629515851756e+00 +9.5912384243327494e+02 -3.0085417743282614e+05 -1.3341561075045200e+07 
-3.8999999999999901e+00 -5.2453117549786332e-01 +6.9390571554296292e+00 +3.0791781025189979e+00 +7.7035841391050912e+00 +1.0082262465115797e+03 -2.9957834632769634e+05 -1.3632859957756877e+07 
-3.9499999999999900e+00 -5.2456121887837748e-01 +6.9406236845796023e+00 +3.0455287104647488e+00 +7.7425900117180211e+00 +1.0552581639676332e+03 -2.9829219937176688e+05 -1.3912165803109022e+07 
-3.9999999999999898e+00 -5.2459146548500946e-01 +6.9421982824881150e+00 +3.0118664838344111e+00 +7.7783325371062206e+00 +1.1001366415813775e+03 -2.9699623476096027e+05 -1.4179077424417669e+07 
-4.0499999999999901e+00 -5.2462191280021919e-01 +6.9437807676304777e+00 +2.9781991601527404e+00 +7.8107920961774360e+00 +1.1428087590774085e+03 -2.9569097044830362e+05 -1.4433357372786151e+07 
-4.0999999999999899e+00 -5.2465255813057610e-01 +6.9453709590308259e+00 +2.9445298486263520e+00 +7.8400555118545912e+00 +1.1833396195073865e+03 -2.9437712877624249e+05 -1.4675416727537198e+07 
-4.1499999999999897e+00 -5.2468339873858183e-01 +6.9469686754595132e+00 +2.9108605034048387e+00 +7.8662346686088735e+00 +1.2218234559675891e+03 -2.9305551268902962e+05 -1.4905827610698169e+07 
-4.1999999999999904e+00 -5.2471443188685540e-01 +6.9485737356911308e+00 +2.8771930725486694e+00 +7.8894412719321938e+00 +1.2583546677386939e+03 -2.9172692374511401e+05 -1.5125163269502049e+07 
-4.2499999999999902e+00 -5.2474565483793800e-01 +6.9501859584982846e+00 +2.8435295089823422e+00 +7.9097870790047411e+00 +1.2930275212069328e+03 -2.9039216385377193e+05 -1.5333996049800893e+07 
-4.2999999999999901e+00 -5.2477706485438491e-01 +6.9518051626530681e+00 +2.8098717637620605e+00 +7.9273838580303675e+00 +1.3259363350819820e+03 -2.8905203505121992e+05 -1.5532898654577537e+07 
-4.3499999999999899e+00 -5.2480865919873942e-01 +6.9534311669271807e+00 +2.7762217869579673e+00 +7.9423433772270844e+00 +1.3571754487132582e+03 -2.8770733936788043e+05 -1.5722443904095000e+07 
-4.3999999999999897e+00 -5.2484043513354117e-01 +6.9550637900933108e+00 +2.7425815321723799e+00 +7.9547773352081190e+00 +1.3868391150064697e+03 -2.8635887822528457e+05 -1.5903204068953965e+07 
-4.4499999999999904e+00 -5.2487238992137308e-01 +6.9567028509236586e+00 +2.7089529479988186e+00 +7.9647974346010715e+00 +1.4150217179866836e+03 -2.8500745308879123e+05 -1.6075752285426093e+07 
-4.4999999999999902e+00 -5.2490452082475547e-01 +6.9583481681886070e+00 +2.6753379866222367e+00 +7.9725154326060030e+00 +1.4418175395386627e+03 -2.8365386585939710e+05 -1.6240660982968479e+07 
-4.5499999999999901e+00 -5.2493682510621897e-01 +6.9599995606590532e+00 +2.6417386016781199e+00 +7.9780430450012672e+00 +1.4673208326729575e+03 -2.8229891810206481e+05 -1.6398502433131652e+07 
-4.5999999999999899e+00 -5.2496930002829822e-01 +6.9616568471060445e+00 +2.6081567403640595e+00 +7.9814919523004129e+00 +1.4916260133560852e+03 -2.8094341105558694e+05 -1.6549849966348913e+07 
-4.6499999999999897e+00 -5.2500194285353552e-01 +6.9633198463014558e+00 +2.5745943554552095e+00 +7.9829737874659363e+00 +1.5148273551757177e+03 -2.7958814560126403e+05 -1.6695275979877239e+07 
-4.6999999999999904e+00 -5.2503475084448814e-01 +6.9649883770145218e+00 +2.5410533992568136e+00 +7.9826002573188681e+00 +1.5370191405941357e+03 -2.7823392317461199e+05 -1.6835352918587048e+07 
-4.7499999999999902e+00 -5.2506772126362067e-01 +6.9666622580148116e+00 +2.5075358215756176e+00 +7.9804830373389875e+00 +1.5582957204102997e+03 -2.7688154496605176e+05 -1.6970653688968655e+07 
-4.7999999999999901e+00 -5.2510085137347029e-01 +6.9683413080733594e+00 +2.4740435731900567e+00 +7.9767337151473718e+00 +1.5787514153388538e+03 -2.7553181143811782e+05 -1.7101750980162200e+07 
-4.8499999999999899e+00 -5.2513413843653434e-01 +6.9700253459576507e+00 +2.4405786068131752e+00 +7.9714639996130687e+00 +1.5984805010226933e+03 -2.7418552403126738e+05 -1.7229217203673959e+07 
-4.8999999999999897e+00 -5.2516757971538364e-01 +6.9717141904374245e+00 +2.4071428715455947e+00 +7.9647854763830317e+00 +1.6175773466278347e+03 -2.7284348317246168e+05 -1.7353625385013279e+07 
-4.9499999999999904e+00 -5.2520117247243125e-01 +6.9734076602813904e+00 +2.3737383213671559e+00 +7.9568097543578888e+00 +1.6361361851642482e+03 -2.7150648947010189e+05 -1.7475547613211993e+07 
-4.9999999999999902e+00 -5.2523491397023214e-01 +6.9751055742592127e+00 +2.3403669041563360e+00 +7.9476483677076706e+00 +1.6542514243399505e+03 -2.7017534291340742e+05 -1.7595557194377601e+07 
-5.0499999999999901e+00 -5.2526880147346189e-01 +6.9768077424888171e+00 +2.3070310065290469e+00 +7.9374046608486344e+00 +1.6720173399887731e+03 -2.6885084464069176e+05 -1.7714226180100538e+07 
