# trajectory
# s[mm] rx[mm] ry[mm] rz[mm] px[rad] py[rad] pz[rad]
0.0000000000000000e+00 +8.2850000000000001e+00 +0.0000000000000000e+00 +0.0000000000000000e+00 +0.0000000000000000e+00 +0.0000000000000000e+00 +1.0000000000000000e+00
5.0000000000000003e-02 +8.2849999307955233e+00 +0.0000000000000000e+00 +4.9999999999936137e-02 -2.7681785900161047e-06 +0.0000000000000000e+00 +9.9999999999616862e-01
1.0000000000000001e-01 +8.2849997231821764e+00 +0.0000000000000000e+00 +9.9999999999489136e-02 -5.5363551189919502e-06 +0.0000000000000000e+00 +9.9999999998467437e-01
1.5000000000000002e-01 +8.2849993771600179e+00 +0.0000000000000000e+00 +1.4999999999827585e-01 -8.3045313363467372e-06 +0.0000000000000000e+00 +9.9999999996551736e-01
2.0000000000000001e-01 +8.2849988927290195e+00 +0.0000000000000000e+00 +1.9999999999591314e-01 -1.1072708988008320e-05 +0.0000000000000000e+00 +9.9999999993869759e-01
2.5000000000000000e-01 +8.2849982698890656e+00 +0.0000000000000000e+00 +2.4999999999201789e-01 -1.3840889816413287e-05 +0.0000000000000000e+00 +9.9999999990421495e-01
2.9999999999999999e-01 +8.2849975086399557e+00 +0.0000000000000000e+00 +2.9999999998620691e-01 -1.6609075560507046e-05 +0.0000000000000000e+00 +9.9999999986206933e-01
3.4999999999999998e-01 +8.2849966089813982e+00 +0.0000000000000000e+00 +3.4999999997809711e-01 -1.9377267955743912e-05 +0.0000000000000000e+00 +9.9999999981226073e-01
3.9999999999999997e-01 +8.2849955709130203e+00 +0.0000000000000000e+00 +3.9999999996730529e-01 -2.2145468734087174e-05 +0.0000000000000000e+00 +9.9999999975478915e-01
4.4999999999999996e-01 +8.2849943944343565e+00 +0.0000000000000000e+00 +4.4999999995344830e-01 -2.4913679624009200e-05 +0.0000000000000000e+00 +9.9999999968965436e-01
4.9999999999999994e-01 +8.2849930795448596e+00 +0.0000000000000000e+00 +4.9999999993614302e-01 -2.7681902350491495e-05 +0.0000000000000000e+00 +9.9999999961685626e-01
5.4999999999999993e-01 +8.2849916262438956e+00 +0.0000000000000000e+00 +5.4999999991500625e-01 -3.0450138635024794e-05 +0.0000000000000000e+00 +9.9999999953639462e-01
5.9999999999999998e-01 +8.2849900345307415e+00 +0.0000000000000000e+00 +5.9999999988965480e-01 -3.3218390195609133e-05 +0.0000000000000000e+00 +9.9999999944826934e-01
6.5000000000000002e-01 +8.2849883044045924e+00 +0.0000000000000000e+00 +6.4999999985970547e-01 -3.5986658746753940e-05 +0.0000000000000000e+00 +9.9999999935248030e-01
7.0000000000000007e-01 +8.2849864358645551e+00 +0.0000000000000000e+00 +6.9999999982477512e-01 -3.8754945999478095e-05 +0.0000000000000000e+00 +9.9999999924902716e-01
7.5000000000000011e-01 +8.2849844289096524e+00 +0.0000000000000000e+00 +7.4999999978448051e-01 -4.1523253661310017e-05 +0.0000000000000000e+00 +9.9999999913790982e-01
8.0000000000000016e-01 +8.2849822835388203e+00 +0.0000000000000000e+00 +7.9999999973843838e-01 -4.4291583436287753e-05 +0.0000000000000000e+00 +9.9999999901912795e-01
8.5000000000000020e-01 +8.2849799997509113e+00 +0.0000000000000000e+00 +8.4999999968626549e-01 -4.7059937024959019e-05 +0.0000000000000000e+00 +9.9999999889268132e-01
9.0000000000000024e-01 +8.2849775775446926e+00 +0.0000000000000000e+00 +8.9999999962757871e-01 -4.9828316124381316e-05 +0.0000000000000000e+00 +9.9999999875856960e-01
9.5000000000000029e-01 +8.2849750169188461e+00 +0.0000000000000000e+00 +9.4999999956199466e-01 -5.2596722428121972e-05 +0.0000000000000000e+00 +9.9999999861679256e-01
1.0000000000000002e+00 +8.2849723178719685e+00 +0.0000000000000000e+00 +9.9999999948913021e-01 -5.5365157626258233e-05 +0.0000000000000000e+00 +9.9999999846734988e-01
1.0500000000000003e+00 +8.2849694804025731e+00 +0.0000000000000000e+00 +1.0499999994086020e+00 -5.8133623405377329e-05 +0.0000000000000000e+00 +9.9999999831024111e-01
1.1000000000000003e+00 +8.2849665045090894e+00 +0.0000000000000000e+00 +1.0999999993200267e+00 -6.0902121448576552e-05 +0.0000000000000000e+00 +9.9999999814546603e-01
1.1500000000000004e+00 +8.2849633901898621e+00 +0.0000000000000000e+00 +1.1499999992230210e+00 -6.3670653435463309e-05 +0.0000000000000000e+00 +9.9999999797302419e-01
1.2000000000000004e+00 +8.2849601374431519e+00 +0.0000000000000000e+00 +1.1999999991172015e+00 -6.6439221042155220e-05 +0.0000000000000000e+00 +9.9999999779291515e-01
1.2500000000000004e+00 +8.2849567462671363e+00 +0.0000000000000000e+00 +1.2499999990021848e+00 -6.9207825941280176e-05 +0.0000000000000000e+00 +9.9999999760513858e-01
1.3000000000000005e+00 +8.2849532166599094e+00 +0.0000000000000000e+00 +1.2999999988775877e+00 -7.1976469801976391e-05 +0.0000000000000000e+00 +9.9999999740969403e-01
1.3500000000000005e+00 +8.2849495486194797e+00 +0.0000000000000000e+00 +1.3499999987430265e+00 -7.4745154289892498e-05 +0.0000000000000000e+00 +9.9999999720658106e-01
1.4000000000000006e+00 +8.2849457421437762e+00 +0.0000000000000000e+00 +1.3999999985981180e+00 -7.7513881067187593e-05 +0.0000000000000000e+00 +9.9999999699579922e-01
1.4500000000000006e+00 +8.2849417972306405e+00 +0.0000000000000000e+00 +1.4499999984424785e+00 -8.0282651792531326e-05 +0.0000000000000000e+00 +9.9999999677734797e-01
1.5000000000000007e+00 +8.2849377138778362e+00 +0.0000000000000000e+00 +1.4999999982757248e+00 -8.3051468121103961e-05 +0.0000000000000000e+00 +9.9999999655122684e-01
1.5500000000000007e+00 +8.2849334920830415e+00 +0.0000000000000000e+00 +1.5499999980974732e+00 -8.5820331704596409e-05 +0.0000000000000000e+00 +9.9999999631743530e-01
1.6000000000000008e+00 +8.2849291318438514e+00 +0.0000000000000000e+00 +1.5999999979073405e+00 -8.8589244191210345e-05 +0.0000000000000000e+00 +9.9999999607597290e-01
1.6500000000000008e+00 +8.2849246331577806e+00 +0.0000000000000000e+00 +1.6499999977049427e+00 -9.1358207225658225e-05 +0.0000000000000000e+00 +9.9999999582683896e-01
1.7000000000000008e+00 +8.2849199960222588e+00 +0.0000000000000000e+00 +1.6999999974898965e+00 -9.4127222449163394e-05 +0.0000000000000000e+00 +9.9999999557003294e-01
1.7500000000000009e+00 +8.2849152204346375e+00 +0.0000000000000000e+00 +1.7499999972618181e+00 -9.6896291499460111e-05 +0.0000000000000000e+00 +9.9999999530555428e-01
1.8000000000000009e+00 +8.2849103063921845e+00 +0.0000000000000000e+00 +1.7999999970203240e+00 -9.9665416010793619e-05 +0.0000000000000000e+00 +9.9999999503340231e-01
1.8500000000000010e+00 +8.2849052538920844e+00 +0.0000000000000000e+00 +1.8499999967650305e+00 -1.0243459761392024e-04 +0.0000000000000000e+00 +9.9999999475357648e-01
1.9000000000000010e+00 +8.2849000629314435e+00 +0.0000000000000000e+00 +1.8999999964955538e+00 -1.0520383793610737e-04 +0.0000000000000000e+00 +9.9999999446607613e-01
1.9500000000000011e+00 +8.2848947335072847e+00 +0.0000000000000000e+00 +1.9499999962115102e+00 -1.0797313860113361e-04 +0.0000000000000000e+00 +9.9999999417090057e-01
2.0000000000000009e+00 +8.2848892656165507e+00 +0.0000000000000000e+00 +1.9999999959125159e+00 -1.1074250122928879e-04 +0.0000000000000000e+00 +9.9999999386804916e-01
2.0500000000000007e+00 +8.2848836592561028e+00 +0.0000000000000000e+00 +2.0499999955981871e+00 -1.1351192743712038e-04 +0.0000000000000000e+00 +9.9999999355752112e-01
2.1000000000000005e+00 +8.2848779144227205e+00 +0.0000000000000000e+00 +2.0999999952681399e+00 -1.1628141883464377e-04 +0.0000000000000000e+00 +9.9999999323931577e-01
2.1500000000000004e+00 +8.2848720311131050e+00 +0.0000000000000000e+00 +2.1499999949219903e+00 -1.1905097702255250e-04 +0.0000000000000000e+00 +9.9999999291343233e-01
2.2000000000000002e+00 +8.2848660093238777e+00 +0.0000000000000000e+00 +2.1999999945593549e+00 -1.2182060359196463e-04 +0.0000000000000000e+00 +9.9999999257987016e-01
2.2500000000000000e+00 +8.2848598490515801e+00 +0.0000000000000000e+00 +2.2499999941798494e+00 -1.2459030012442287e-04 +0.0000000000000000e+00 +9.9999999223862845e-01
2.2999999999999998e+00 +8.2848535502926737e+00 +0.0000000000000000e+00 +2.2999999937830897e+00 -1.2736006819189460e-04 +0.0000000000000000e+00 +9.9999999188970645e-01
2.3499999999999996e+00 +8.2848471130435435e+00 +0.0000000000000000e+00 +2.3499999933686921e+00 -1.3012990935677192e-04 +0.0000000000000000e+00 +9.9999999153310326e-01
2.3999999999999995e+00 +8.2848405373004947e+00 +0.0000000000000000e+00 +2.3999999929362721e+00 -1.3289982517187171e-04 +0.0000000000000000e+00 +9.9999999116881810e-01
2.4499999999999993e+00 +8.2848338230597562e+00 +0.0000000000000000e+00 +2.4499999924854459e+00 -1.3566981718043570e-04 +0.0000000000000000e+00 +9.9999999079685020e-01
2.4999999999999991e+00 +8.2848269703174804e+00 +0.0000000000000000e+00 +2.4999999920158289e+00 -1.3843988691613051e-04 +0.0000000000000000e+00 +9.9999999041719867e-01
2.5499999999999989e+00 +8.2848199790697432e+00 +0.0000000000000000e+00 +2.5499999915270375e+00 -1.4121003590304769e-04 +0.0000000000000000e+00 +9.9999999002986273e-01
2.5999999999999988e+00 +8.2848128493125444e+00 +0.0000000000000000e+00 +2.5999999910186871e+00 -1.4398026565570380e-04 +0.0000000000000000e+00 +9.9999998963484138e-01
2.6499999999999986e+00 +8.2848055810418071e+00 +0.0000000000000000e+00 +2.6499999904903935e+00 -1.4675057767904042e-04 +0.0000000000000000e+00 +9.9999998923213385e-01
2.6999999999999984e+00 +8.2847981742533801e+00 +0.0000000000000000e+00 +2.6999999899417721e+00 -1.4952097346842422e-04 +0.0000000000000000e+00 +9.9999998882173913e-01
2.7499999999999982e+00 +8.2847906289430391e+00 +0.0000000000000000e+00 +2.7499999893724389e+00 -1.5229145450964702e-04 +0.0000000000000000e+00 +9.9999998840365634e-01
2.7999999999999980e+00 +8.2847829451064836e+00 +0.0000000000000000e+00 +2.7999999887820093e+00 -1.5506202227892586e-04 +0.0000000000000000e+00 +9.9999998797788447e-01
2.8499999999999979e+00 +8.2847751227393402e+00 +0.0000000000000000e+00 +2.8499999881700990e+00 -1.5783267824290295e-04 +0.0000000000000000e+00 +9.9999998754442265e-01
2.8999999999999977e+00 +8.2847671618371646e+00 +0.0000000000000000e+00 +2.8999999875363236e+00 -1.6060342385864585e-04 +0.0000000000000000e+00 +9.9999998710326998e-01
2.9499999999999975e+00 +8.2847590623954357e+00 +0.0000000000000000e+00 +2.9499999868802980e+00 -1.6337426057364739e-04 +0.0000000000000000e+00 +9.9999998665442535e-01
2.9999999999999973e+00 +8.2847508244095636e+00 +0.0000000000000000e+00 +2.9999999862016380e+00 -1.6614518982582582e-04 +0.0000000000000000e+00 +9.9999998619788777e-01
3.0499999999999972e+00 +8.2847424478748870e+00 +0.0000000000000000e+00 +3.0499999854999587e+00 -1.6891621304352479e-04 +0.0000000000000000e+00 +9.9999998573365634e-01
3.0999999999999970e+00 +8.2847339327866703e+00 +0.0000000000000000e+00 +3.0999999847748754e+00 -1.7168733164551342e-04 +0.0000000000000000e+00 +9.9999998526172995e-01
3.1499999999999968e+00 +8.2847252791401100e+00 +0.0000000000000000e+00 +3.1499999840260036e+00 -1.7445854704098632e-04 +0.0000000000000000e+00 +9.9999998478210750e-01
3.1999999999999966e+00 +8.2847164869303302e+00 +0.0000000000000000e+00 +3.1999999832529582e+00 -1.7722986062956367e-04 +0.0000000000000000e+00 +9.9999998429478809e-01
3.2499999999999964e+00 +8.2847075561523873e+00 +0.0000000000000000e+00 +3.2499999824553543e+00 -1.8000127380129124e-04 +0.0000000000000000e+00 +9.9999998379977051e-01
3.2999999999999963e+00 +8.2846984868012665e+00 +0.0000000000000000e+00 +3.2999999816328067e+00 -1.8277278793664040e-04 +0.0000000000000000e+00 +9.9999998329705375e-01
3.3499999999999961e+00 +8.2846892788718876e+00 +0.0000000000000000e+00 +3.3499999807849310e+00 -1.8554440440650825e-04 +0.0000000000000000e+00 +9.9999998278663671e-01
3.3999999999999959e+00 +8.2846799323590972e+00 +0.0000000000000000e+00 +3.3999999799113421e+00 -1.8831612457221756e-04 +0.0000000000000000e+00 +9.9999998226851827e-01
3.4499999999999957e+00 +8.2846704472576782e+00 +0.0000000000000000e+00 +3.4499999790116544e+00 -1.9108794978551686e-04 +0.0000000000000000e+00 +9.9999998174269733e-01
3.4999999999999956e+00 +8.2846608235623442e+00 +0.0000000000000000e+00 +3.4999999780854831e+00 -1.9385988138858048e-04 +0.0000000000000000e+00 +9.9999998120917277e-01
3.5499999999999954e+00 +8.2846510612677431e+00 +0.0000000000000000e+00 +3.5499999771324431e+00 -1.9663192071400854e-04 +0.0000000000000000e+00 +9.9999998066794349e-01
3.5999999999999952e+00 +8.2846411603684551e+00 +0.0000000000000000e+00 +3.5999999761521488e+00 -1.9940406908482708e-04 +0.0000000000000000e+00 +9.9999998011900826e-01
3.6499999999999950e+00 +8.2846311208589949e+00 +0.0000000000000000e+00 +3.6499999751442154e+00 -2.0217632781448802e-04 +0.0000000000000000e+00 +9.9999997956236586e-01
3.6999999999999948e+00 +8.2846209427338131e+00 +0.0000000000000000e+00 +3.6999999741082572e+00 -2.0494869820686921e-04 +0.0000000000000000e+00 +9.9999997899801518e-01
3.7499999999999947e+00 +8.2846106259872929e+00 +0.0000000000000000e+00 +3.7499999730438884e+00 -2.0772118155627448e-04 +0.0000000000000000e+00 +9.9999997842595501e-01
3.7999999999999945e+00 +8.2846001706137535e+00 +0.0000000000000000e+00 +3.7999999719507240e+00 -2.1049377914743363e-04 +0.0000000000000000e+00 +9.9999997784618411e-01
3.8499999999999943e+00 +8.2845895766074520e+00 +0.0000000000000000e+00 +3.8499999708283781e+00 -2.1326649225550254e-04 +0.0000000000000000e+00 +9.9999997725870127e-01
3.8999999999999941e+00 +8.2845788439625814e+00 +0.0000000000000000e+00 +3.8999999696764656e+00 -2.1603932214606317e-04 +0.0000000000000000e+00 +9.9999997666350526e-01
3.9499999999999940e+00 +8.2845679726732708e+00 +0.0000000000000000e+00 +3.9499999684946001e+00 -2.1881227007512354e-04 +0.0000000000000000e+00 +9.9999997606059488e-01
3.9999999999999938e+00 +8.2845569627335856e+00 +0.0000000000000000e+00 +3.9999999672823963e+00 -2.2158533728911783e-04 +0.0000000000000000e+00 +9.9999997544996877e-01
4.0499999999999936e+00 +8.2845458141375321e+00 +0.0000000000000000e+00 +4.0499999660394685e+00 -2.2435852502477693e-04 +0.0000000000000000e+00 +9.9999997483162573e-01
4.0999999999999934e+00 +8.2845345268790531e+00 +0.0000000000000000e+00 +4.0999999647654306e+00 -2.2713183450770409e-04 +0.0000000000000000e+00 +9.9999997420556441e-01
4.1499999999999932e+00 +8.2845231009520308e+00 +0.0000000000000000e+00 +4.1499999634598961e+00 -2.2990526695095063e-04 +0.0000000000000000e+00 +9.9999997357178361e-01
4.1999999999999931e+00 +8.2845115363502888e+00 +0.0000000000000000e+00 +4.1999999621224795e+00 -2.3267882355488656e-04 +0.0000000000000000e+00 +9.9999997293028198e-01
4.2499999999999929e+00 +8.2844998330675867e+00 +0.0000000000000000e+00 +4.2499999607527954e+00 -2.3545250550720048e-04 +0.0000000000000000e+00 +9.9999997228105830e-01
4.2999999999999927e+00 +8.2844879910976292e+00 +0.0000000000000000e+00 +4.2999999593504565e+00 -2.3822631398289968e-04 +0.0000000000000000e+00 +9.9999997162411114e-01
4.3499999999999925e+00 +8.2844760104340605e+00 +0.0000000000000000e+00 +4.3499999579150774e+00 -2.4100025014431005e-04 +0.0000000000000000e+00 +9.9999997095943916e-01
4.3999999999999924e+00 +8.2844638910704678e+00 +0.0000000000000000e+00 +4.3999999564462717e+00 -2.4377431514107617e-04 +0.0000000000000000e+00 +9.9999997028704102e-01
4.4499999999999922e+00 +8.2844516330003799e+00 +0.0000000000000000e+00 +4.4499999549436531e+00 -2.4654851011016133e-04 +0.0000000000000000e+00 +9.9999996960691540e-01
4.4999999999999920e+00 +8.2844392362172705e+00 +0.0000000000000000e+00 +4.4999999534068351e+00 -2.4932283617584743e-04 +0.0000000000000000e+00 +9.9999996891906096e-01
4.5499999999999918e+00 +8.2844267007145582e+00 +0.0000000000000000e+00 +4.5499999518354306e+00 -2.5209729444973506e-04 +0.0000000000000000e+00 +9.9999996822347637e-01
4.5999999999999917e+00 +8.2844140264856048e+00 +0.0000000000000000e+00 +4.5999999502290541e+00 -2.5487188603074356e-04 +0.0000000000000000e+00 +9.9999996752016018e-01
4.6499999999999915e+00 +8.2844012135237168e+00 +0.0000000000000000e+00 +4.6499999485873182e+00 -2.5764661200511086e-04 +0.0000000000000000e+00 +9.9999996680911096e-01
4.6999999999999913e+00 +8.2843882618221478e+00 +0.0000000000000000e+00 +4.6999999469098368e+00 -2.6042147344639363e-04 +0.0000000000000000e+00 +9.9999996609032737e-01
4.7499999999999911e+00 +8.2843751713740978e+00 +0.0000000000000000e+00 +4.7499999451962225e+00 -2.6319647141546726e-04 +0.0000000000000000e+00 +9.9999996536380797e-01
4.7999999999999909e+00 +8.2843619421727137e+00 +0.0000000000000000e+00 +4.7999999434460889e+00 -2.6597160696052572e-04 +0.0000000000000000e+00 +9.9999996462955143e-01
4.8499999999999908e+00 +8.2843485742110907e+00 +0.0000000000000000e+00 +4.8499999416590489e+00 -2.6874688111708174e-04 +0.0000000000000000e+00 +9.9999996388755619e-01
4.8999999999999906e+00 +8.2843350674822744e+00 +0.0000000000000000e+00 +4.8999999398347152e+00 -2.7152229490796671e-04 +0.0000000000000000e+00 +9.9999996313782091e-01
4.9499999999999904e+00 +8.2843214219792571e+00 +0.0000000000000000e+00 +4.9499999379727013e+00 -2.7429784934333070e-04 +0.0000000000000000e+00 +9.9999996238034417e-01
4.9999999999999902e+00 +8.2843076376949796e+00 +0.0000000000000000e+00 +4.9999999360726202e+00 -2.7707354542064237e-04 +0.0000000000000000e+00 +9.9999996161512439e-01
5.0499999999999901e+00 +8.2842937146223381e+00 +0.0000000000000000e+00 +5.0499999341340844e+00 -2.7984938412468913e-04 +0.0000000000000000e+00 +9.9999996084216025e-01
5.0999999999999899e+00 +8.2842796527541740e+00 +0.0000000000000000e+00 +5.0999999321567069e+00 -2.8262536642757703e-04 +0.0000000000000000e+00 +9.9999996006145020e-01
5.1499999999999897e+00 +8.2842654520832859e+00 +0.0000000000000000e+00 +5.1499999301401003e+00 -2.8540149328873068e-04 +0.0000000000000000e+00 +9.9999995927299290e-01
5.1999999999999895e+00 +8.2842511126024210e+00 +0.0000000000000000e+00 +5.1999999280838773e+00 -2.8817776565489336e-04 +0.0000000000000000e+00 +9.9999995847678680e-01
5.2499999999999893e+00 +8.2842366343042801e+00 +0.0000000000000000e+00 +5.2499999259876500e+00 -2.9095418446012698e-04 +0.0000000000000000e+00 +9.9999995767283034e-01
5.2999999999999892e+00 +8.2842220171815182e+00 +0.0000000000000000e+00 +5.2999999238510309e+00 -2.9373075062581207e-04 +0.0000000000000000e+00 +9.9999995686112209e-01
5.3499999999999890e+00 +8.2842072612267454e+00 +0.0000000000000000e+00 +5.3499999216736329e+00 -2.9650746506064765e-04 +0.0000000000000000e+00 +9.9999995604166059e-01
5.3999999999999888e+00 +8.2841923664325261e+00 +0.0000000000000000e+00 +5.3999999194550679e+00 -2.9928432866065140e-04 +0.0000000000000000e+00 +9.9999995521444429e-01
5.4499999999999886e+00 +8.2841773327913781e+00 +0.0000000000000000e+00 +5.4499999171949485e+00 -3.0206134230915954e-04 +0.0000000000000000e+00 +9.9999995437947165e-01
5.4999999999999885e+00 +8.2841621602957787e+00 +0.0000000000000000e+00 +5.4999999148928858e+00 -3.0483850687682674e-04 +0.0000000000000000e+00 +9.9999995353674120e-01
5.5499999999999883e+00 +8.2841468489381604e+00 +0.0000000000000000e+00 +5.5499999125484933e+00 -3.0761582322162630e-04 +0.0000000000000000e+00 +9.9999995268625141e-01
5.5999999999999881e+00 +8.2841313987109135e+00 +0.0000000000000000e+00 +5.5999999101613822e+00 -3.1039329218884995e-04 +0.0000000000000000e+00 +9.9999995182800083e-01
5.6499999999999879e+00 +8.2841158096063854e+00 +0.0000000000000000e+00 +5.6499999077311642e+00 -3.1317091461110786e-04 +0.0000000000000000e+00 +9.9999995096198779e-01
5.6999999999999877e+00 +8.2841000816168826e+00 +0.0000000000000000e+00 +5.6999999052574513e+00 -3.1594869130832876e-04 +0.0000000000000000e+00 +9.9999995008821085e-01
5.7499999999999876e+00 +8.2840842147346709e+00 +0.0000000000000000e+00 +5.7499999027398552e+00 -3.1872662308775964e-04 +0.0000000000000000e+00 +9.9999994920666846e-01
5.7999999999999874e+00 +8.2840682089519770e+00 +0.0000000000000000e+00 +5.7999999001779878e+00 -3.2150471074396603e-04 +0.0000000000000000e+00 +9.9999994831735906e-01
5.8499999999999872e+00 +8.2840520642609867e+00 +0.0000000000000000e+00 +5.8499998975714611e+00 -3.2428295505883173e-04 +0.0000000000000000e+00 +9.9999994742028109e-01
5.8999999999999870e+00 +8.2840357806538485e+00 +0.0000000000000000e+00 +5.8999998949198860e+00 -3.2706135680155897e-04 +0.0000000000000000e+00 +9.9999994651543300e-01
