# field on trajectory
# s[mm] rx[mm] ry[mm] rz[mm] bx[T] by[T] bz[T]
0.0000000000000000e+00 +8.2850000000000001e+00 +0.0000000000000000e+00 +0.0000000000000000e+00 -2.8350712450412166e-02 -5.5519925684015725e-01 +5.5235078165681070e-03
-5.0000000000000003e-02 +8.2849999304191932e+00 +0.0000000000000000e+00 -4.9999999999935443e-02 -2.8350690615713475e-02 -5.5519975536269783e-01 +5.5236406606261395e-03
-1.0000000000000001e-01 +8.2849997216766731e+00 +0.0000000000000000e+00 -9.9999999999483558e-02 -2.8350686137341118e-02 -5.5520058539453898e-01 +5.5237776626135288e-03
-1.5000000000000002e-01 +8.2849993737722318e+00 +0.0000000000000000e+00 -1.4999999999825703e-01 -2.8350699023048292e-02 -5.5520174625103003e-01 +5.5239188151660745e-03
-2.0000000000000001e-01 +8.2849988867055799e+00 +0.0000000000000000e+00 -1.9999999999586854e-01 -2.8350729280588186e-02 -5.5520323724753629e-01 +5.5240641109196827e-03
-2.5000000000000000e-01 +8.2849982604763426e+00 +0.0000000000000000e+00 -2.4999999999193076e-01 -2.8350776917713951e-02 -5.5520505769943906e-01 +5.5242135425103821e-03
-2.9999999999999999e-01 +8.2849974950840632e+00 +0.0000000000000000e+00 -2.9999999998605636e-01 -2.8350841942178798e-02 -5.5520720692213532e-01 +5.5243671025743063e-03
-3.4999999999999998e-01 +8.2849965905282037e+00 +0.0000000000000000e+00 -3.4999999997785802e-01 -2.8350924361736023e-02 -5.5520968423103778e-01 +5.5245247837477007e-03
-3.9999999999999997e-01 +8.2849955468081440e+00 +0.0000000000000000e+00 -3.9999999996694835e-01 -2.8351024184138998e-02 -5.5521248894157516e-01 +5.5246865786669234e-03
-4.4999999999999996e-01 +8.2849943639231789e+00 +0.0000000000000000e+00 -4.4999999995294004e-01 -2.8351141417141280e-02 -5.5521562036919159e-01 +5.5248524799684359e-03
-4.9999999999999994e-01 +8.2849930418725251e+00 +0.0000000000000000e+00 -4.9999999993544575e-01 -2.8351276068496585e-02 -5.5521907782934588e-01 +5.5250224802888088e-03
-5.4999999999999993e-01 +8.2849915806553156e+00 +0.0000000000000000e+00 -5.4999999991407800e-01 -2.8351428145958837e-02 -5.5522286063751380e-01 +5.5251965722647187e-03
-5.9999999999999998e-01 +8.2849899802706037e+00 +0.0000000000000000e+00 -5.9999999988844954e-01 -2.8351597657282231e-02 -5.5522696810918470e-01 +5.5253747485329401e-03
-6.5000000000000002e-01 +8.2849882407173574e+00 +0.0000000000000000e+00 -6.4999999985817292e-01 -2.8351784610221240e-02 -5.5523139955986367e-01 +5.5255570017303550e-03
-7.0000000000000007e-01 +8.2849863619944681e+00 +0.0000000000000000e+00 -6.9999999982286076e-01 -2.8351989012530655e-02 -5.5523615430507112e-01 +5.5257433244939452e-03
-7.5000000000000011e-01 +8.2849843441007422e+00 +0.0000000000000000e+00 -7.4999999978212561e-01 -2.8352210871965648e-02 -5.5524123166034212e-01 +5.5259337094607924e-03
-8.0000000000000016e-01 +8.2849821870349079e+00 +0.0000000000000000e+00 -7.9999999973558011e-01 -2.8352450196281770e-02 -5.5524663094122628e-01 +5.5261281492680761e-03
-8.5000000000000020e-01 +8.2849798907956131e+00 +0.0000000000000000e+00 -8.4999999968283679e-01 -2.8352706993234993e-02 -5.5525235146328900e-01 +5.5263266365530748e-03
-9.0000000000000024e-01 +8.2849774553814228e+00 +0.0000000000000000e+00 -8.9999999962350818e-01 -2.8352981270581785e-02 -5.5525839254210874e-01 +5.5265291639531623e-03
-9.5000000000000029e-01 +8.2849748807908217e+00 +0.0000000000000000e+00 -9.4999999955720682e-01 -2.8353273036079082e-02 -5.5526475349327975e-01 +5.5267357241058019e-03
-1.0000000000000002e+00 +8.2849721670222181e+00 +0.0000000000000000e+00 -9.9999999948354523e-01 -2.8353582297484390e-02 -5.5527143363240983e-01 +5.5269463096485564e-03
-1.0500000000000003e+00 +8.2849693140739351e+00 +0.0000000000000000e+00 -1.0499999994021358e+00 -2.8353909062555756e-02 -5.5527843227512208e-01 +5.5271609132190765e-03
-1.1000000000000003e+00 +8.2849663219442196e+00 +0.0000000000000000e+00 -1.0999999993125913e+00 -2.8354253339051880e-02 -5.5528574873705261e-01 +5.5273795274551028e-03
-1.1500000000000004e+00 +8.2849631906312382e+00 +0.0000000000000000e+00 -1.1499999992145240e+00 -2.8354615134732048e-02 -5.5529338233385273e-01 +5.5276021449944725e-03
-1.2000000000000004e+00 +8.2849599201330761e+00 +0.0000000000000000e+00 -1.1999999991075463e+00 -2.8354994457356297e-02 -5.5530133238118695e-01 +5.5278287584750972e-03
-1.2500000000000004e+00 +8.2849565104477421e+00 +0.0000000000000000e+00 -1.2499999989912707e+00 -2.8355391314685306e-02 -5.5530959819473391e-01 +5.5280593605349856e-03
-1.3000000000000005e+00 +8.2849529615731647e+00 +0.0000000000000000e+00 -1.2999999988653095e+00 -2.8355805714480580e-02 -5.5531817909018644e-01 +5.5282939438122281e-03
-1.3500000000000005e+00 +8.2849492735071912e+00 +0.0000000000000000e+00 -1.3499999987292750e+00 -2.8356237664504347e-02 -5.5532707438325113e-01 +5.5285325009449982e-03
-1.4000000000000006e+00 +8.2849454462475940e+00 +0.0000000000000000e+00 -1.3999999985827798e+00 -2.8356687172519698e-02 -5.5533628338964691e-01 +5.5287750245715545e-03
-1.4500000000000006e+00 +8.2849414797920637e+00 +0.0000000000000000e+00 -1.4499999984254359e+00 -2.8357154246290574e-02 -5.5534580542510814e-01 +5.5290215073302311e-03
-1.5000000000000007e+00 +8.2849373741382148e+00 +0.0000000000000000e+00 -1.4999999982568559e+00 -2.8357638893581810e-02 -5.5535563980538094e-01 +5.5292719418594443e-03
-1.5500000000000007e+00 +8.2849331292835817e+00 +0.0000000000000000e+00 -1.5499999980766519e+00 -2.8358141122159179e-02 -5.5536578584622542e-01 +5.5295263207976939e-03
-1.6000000000000008e+00 +8.2849287452256206e+00 +0.0000000000000000e+00 -1.5999999978844361e+00 -2.8358660939789396e-02 -5.5537624286341514e-01 +5.5297846367835506e-03
-1.6500000000000008e+00 +8.2849242219617114e+00 +0.0000000000000000e+00 -1.6499999976798208e+00 -2.8359198354240191e-02 -5.5538701017273595e-01 +5.5300468824556592e-03
-1.7000000000000008e+00 +8.2849195594891540e+00 +0.0000000000000000e+00 -1.6999999974624180e+00 -2.8359753373280366e-02 -5.5539808708998761e-01 +5.5303130504527473e-03
-1.7500000000000009e+00 +8.2849147578051738e+00 +0.0000000000000000e+00 -1.7499999972318403e+00 -2.8360326004679748e-02 -5.5540947293098231e-01 +5.5305831334136061e-03
-1.8000000000000009e+00 +8.2849098169069162e+00 +0.0000000000000000e+00 -1.7999999969876994e+00 -2.8360916256209300e-02 -5.5542116701154498e-01 +5.5308571239771056e-03
-1.8500000000000010e+00 +8.2849047367914501e+00 +0.0000000000000000e+00 -1.8499999967296075e+00 -2.8361524135641119e-02 -5.5543316864751346e-01 +5.5311350147821845e-03
-1.9000000000000010e+00 +8.2848995174557665e+00 +0.0000000000000000e+00 -1.8999999964571768e+00 -2.8362149650748486e-02 -5.5544547715473758e-01 +5.5314167984678473e-03
-1.9500000000000011e+00 +8.2848941588967815e+00 +0.0000000000000000e+00 -1.9499999961700192e+00 -2.8362792809305891e-02 -5.5545809184908068e-01 +5.5317024676731661e-03
-2.0000000000000009e+00 +8.2848886611113333e+00 +0.0000000000000000e+00 -1.9999999958677466e+00 -2.8363453619089117e-02 -5.5547101204641780e-01 +5.5319920150372886e-03
-2.0500000000000007e+00 +8.2848830240961835e+00 +0.0000000000000000e+00 -2.0499999955499710e+00 -2.8364132058173404e-02 -5.5548423686116188e-01 +5.5322854352140068e-03
-2.1000000000000005e+00 +8.2848772478480157e+00 +0.0000000000000000e+00 -2.0999999952163044e+00 -2.8364827985828175e-02 -5.5549776460184330e-01 +5.5325827309156079e-03
-2.1500000000000004e+00 +8.2848713323634406e+00 +0.0000000000000000e+00 -2.1499999948663588e+00 -2.8365541231621955e-02 -5.5551159337552714e-01 +5.5328839068691437e-03
-2.2000000000000002e+00 +8.2848652776389926e+00 +0.0000000000000000e+00 -2.1999999944997457e+00 -2.8366271625124177e-02 -5.5552572128929156e-01 +5.5331889678018531e-03
-2.2500000000000000e+00 +8.2848590836711296e+00 +0.0000000000000000e+00 -2.2499999941160773e+00 -2.8367018995905172e-02 -5.5554014645022354e-01 +5.5334979184411747e-03
-2.2999999999999998e+00 +8.2848527504562366e+00 +0.0000000000000000e+00 -2.2999999937149651e+00 -2.8367783173536196e-02 -5.5555486696542111e-01 +5.5338107635147359e-03
-2.3499999999999996e+00 +8.2848462779906242e+00 +0.0000000000000000e+00 -2.3499999932960209e+00 -2.8368563987589381e-02 -5.5556988094199300e-01 +5.5341275077503910e-03
-2.3999999999999995e+00 +8.2848396662705284e+00 +0.0000000000000000e+00 -2.3999999928588562e+00 -2.8369361267637800e-02 -5.5558518648705713e-01 +5.5344481558761843e-03
-2.4499999999999993e+00 +8.2848329152921139e+00 +0.0000000000000000e+00 -2.4499999924030829e+00 -2.8370174843255460e-02 -5.5560078170774185e-01 +5.5347727126203953e-03
-2.4999999999999991e+00 +8.2848260250514709e+00 +0.0000000000000000e+00 -2.4999999919283127e+00 -2.8371004544017277e-02 -5.5561666471118487e-01 +5.5351011827115158e-03
-2.5499999999999989e+00 +8.2848189955446188e+00 +0.0000000000000000e+00 -2.5499999914341567e+00 -2.8371850199499175e-02 -5.5563283360453397e-01 +5.5354335708782702e-03
-2.5999999999999988e+00 +8.2848118267675037e+00 +0.0000000000000000e+00 -2.5999999909202267e+00 -2.8372711639277959e-02 -5.5564928649494583e-01 +5.5357698818496214e-03
-2.6499999999999986e+00 +8.2848045187160029e+00 +0.0000000000000000e+00 -2.6499999903861342e+00 -2.8373588692931415e-02 -5.5566602148958655e-01 +5.5361101203547699e-03
-2.6999999999999984e+00 +8.2847970713859223e+00 +0.0000000000000000e+00 -2.6999999898314906e+00 -2.8374481190038329e-02 -5.5568303669563113e-01 +5.5364542911231608e-03
-2.7499999999999982e+00 +8.2847894847729968e+00 +0.0000000000000000e+00 -2.7499999892559073e+00 -2.8375388960178421e-02 -5.5570033022026388e-01 +5.5368023988844979e-03
-2.7999999999999980e+00 +8.2847817588728923e+00 +0.0000000000000000e+00 -2.7999999886589957e+00 -2.8376311832932408e-02 -5.5571790017067690e-01 +5.5371544483687396e-03
-2.8499999999999979e+00 +8.2847738936812032e+00 +0.0000000000000000e+00 -2.8499999880403672e+00 -2.8377249637882004e-02 -5.5573574465407172e-01 +5.5375104443061056e-03
-2.8999999999999977e+00 +8.2847658891934586e+00 +0.0000000000000000e+00 -2.8999999873996329e+00 -2.8378202204609897e-02 -5.5575386177765751e-01 +5.5378703914270916e-03
-2.9499999999999975e+00 +8.2847577454051162e+00 +0.0000000000000000e+00 -2.9499999867364037e+00 -2.8379169362699821e-02 -5.5577224964865224e-01 +5.5382342944624591e-03
-2.9999999999999973e+00 +8.2847494623115683e+00 +0.0000000000000000e+00 -2.9999999860502911e+00 -2.8380150941736477e-02 -5.5579090637428108e-01 +5.5386021581432616e-03
-3.0499999999999972e+00 +8.2847410399081376e+00 +0.0000000000000000e+00 -3.0499999853409063e+00 -2.8381146771305633e-02 -5.5580983006177831e-01 +5.5389739872008367e-03
-3.0999999999999970e+00 +8.2847324781900813e+00 +0.0000000000000000e+00 -3.0999999846078601e+00 -2.8382156680994045e-02 -5.5582901881838453e-01 +5.5393497863668092e-03
-3.1499999999999968e+00 +8.2847237771525908e+00 +0.0000000000000000e+00 -3.1499999838507633e+00 -2.8383180500389519e-02 -5.5584847075134824e-01 +5.5397295603731075e-03
-3.1999999999999966e+00 +8.2847149367907900e+00 +0.0000000000000000e+00 -3.1999999830692269e+00 -2.8384218059080913e-02 -5.5586818396792559e-01 +5.5401133139519635e-03
-3.2499999999999964e+00 +8.2847059570997370e+00 +0.0000000000000000e+00 -3.2499999822628625e+00 -2.8385269186658135e-02 -5.5588815657537971e-01 +5.5405010518359216e-03
-3.2999999999999963e+00 +8.2846968380744261e+00 +0.0000000000000000e+00 -3.2999999814312799e+00 -2.8386333712712132e-02 -5.5590838668098042e-01 +5.5408927787578346e-03
-3.3499999999999961e+00 +8.2846875797097876e+00 +0.0000000000000000e+00 -3.3499999805740908e+00 -2.8387411466834937e-02 -5.5592887239200484e-01 +5.5412884994508853e-03
-3.3999999999999959e+00 +8.2846781820006861e+00 +0.0000000000000000e+00 -3.3999999796909051e+00 -2.8388502278619665e-02 -5.5594961181573654e-01 +5.5416882186485796e-03
-3.4499999999999957e+00 +8.2846686449419238e+00 +0.0000000000000000e+00 -3.4499999787813338e+00 -2.8389605977660486e-02 -5.5597060305946489e-01 +5.5420919410847569e-03
-3.4999999999999956e+00 +8.2846589685282392e+00 +0.0000000000000000e+00 -3.4999999778449880e+00 -2.8390722393552680e-02 -5.5599184423048631e-01 +5.5424996714935988e-03
-3.5499999999999954e+00 +8.2846491527543087e+00 +0.0000000000000000e+00 -3.5499999768814776e+00 -2.8391851355892610e-02 -5.5601333343610371e-01 +5.5429114146096255e-03
-3.5999999999999952e+00 +8.2846391976147444e+00 +0.0000000000000000e+00 -3.5999999758904133e+00 -2.8392992694277770e-02 -5.5603506878362452e-01 +5.5433271751677126e-03
-3.6499999999999950e+00 +8.2846291031041002e+00 +0.0000000000000000e+00 -3.6499999748714056e+00 -2.8394146238306738e-02 -5.5605704838036307e-01 +5.5437469579030898e-03
-3.6999999999999948e+00 +8.2846188692168656e+00 +0.0000000000000000e+00 -3.6999999738240650e+00 -2.8395311817579219e-02 -5.5607927033363924e-01 +5.5441707675513534e-03
-3.7499999999999947e+00 +8.2846084959474720e+00 +0.0000000000000000e+00 -3.7499999727480016e+00 -2.8396489261696044e-02 -5.5610173275077790e-01 +5.5445986088484608e-03
-3.7999999999999945e+00 +8.2845979832902881e+00 +0.0000000000000000e+00 -3.7999999716428259e+00 -2.8397678400259217e-02 -5.5612443373910880e-01 +5.5450304865307465e-03
-3.8499999999999943e+00 +8.2845873312396261e+00 +0.0000000000000000e+00 -3.8499999705081480e+00 -2.8398879062871814e-02 -5.5614737140596815e-01 +5.5454664053349268e-03
-3.8999999999999941e+00 +8.2845765397897342e+00 +0.0000000000000000e+00 -3.8999999693435781e+00 -2.8400091079138125e-02 -5.5617054385869580e-01 +5.5459063699980979e-03
-3.9499999999999940e+00 +8.2845656089348054e+00 +0.0000000000000000e+00 -3.9499999681487261e+00 -2.8401314278663579e-02 -5.5619394920463661e-01 +5.5463503852577496e-03
-3.9999999999999938e+00 +8.2845545386689743e+00 +0.0000000000000000e+00 -3.9999999669232023e+00 -2.8402548491054759e-02 -5.5621758555114054e-01 +5.5467984558517716e-03
-4.0499999999999936e+00 +8.2845433289863148e+00 +0.0000000000000000e+00 -4.0499999656666166e+00 -2.8403793550739742e-02 -5.5624145088559318e-01 +5.5472505836015266e-03
-4.0999999999999934e+00 +8.2845319798808461e+00 +0.0000000000000000e+00 -4.0999999643785783e+00 -2.8405049311428631e-02 -5.5626554271551099e-01 +5.5477067586609677e-03
-4.1499999999999932e+00 +8.2845204913465302e+00 +0.0000000000000000e+00 -4.1499999630586979e+00 -2.8406315631651958e-02 -5.5628985842844281e-01 +5.5481669682671906e-03
-4.1999999999999931e+00 +8.2845088633772708e+00 +0.0000000000000000e+00 -4.1999999617065846e+00 -2.8407592369940348e-02 -5.5631439541193983e-01 +5.5486311996573541e-03
-4.2499999999999929e+00 +8.2844970959669180e+00 +0.0000000000000000e+00 -4.2499999603218486e+00 -2.8408879384824375e-02 -5.5633915105355469e-01 +5.5490994400686725e-03
-4.2999999999999927e+00 +8.2844851891092688e+00 +0.0000000000000000e+00 -4.2999999589040998e+00 -2.8410176534834585e-02 -5.5636412274083957e-01 +5.5495716767384002e-03
-4.3499999999999925e+00 +8.2844731427980633e+00 +0.0000000000000000e+00 -4.3499999574529475e+00 -2.8411483678501527e-02 -5.5638930786134888e-01 +5.5500478969038375e-03
-4.3999999999999924e+00 +8.2844609570269885e+00 +0.0000000000000000e+00 -4.3999999559680010e+00 -2.8412800674355598e-02 -5.5641470380263669e-01 +5.5505280878023174e-03
-4.4499999999999922e+00 +8.2844486317896795e+00 +0.0000000000000000e+00 -4.4499999544488702e+00 -2.8414127380927110e-02 -5.5644030795225741e-01 +5.5510122366712036e-03
-4.4999999999999920e+00 +8.2844361670797184e+00 +0.0000000000000000e+00 -4.4999999528951644e+00 -2.8415463656746267e-02 -5.5646611769776599e-01 +5.5515003307478944e-03
-4.5499999999999918e+00 +8.2844235628906358e+00 +0.0000000000000000e+00 -4.5499999513064919e+00 -2.8416809360343069e-02 -5.5649213042671641e-01 +5.5519923572697992e-03
-4.5999999999999917e+00 +8.2844108192159123e+00 +0.0000000000000000e+00 -4.5999999496824628e+00 -2.8418164350247372e-02 -5.5651834352666218e-01 +5.5524883034743554e-03
-4.6499999999999915e+00 +8.2843979360489772e+00 +0.0000000000000000e+00 -4.6499999480226863e+00 -2.8419528484988771e-02 -5.5654475438515671e-01 +5.5529881565990003e-03
-4.6999999999999913e+00 +8.2843849133832101e+00 +0.0000000000000000e+00 -4.6999999463267716e+00 -2.8420901623096673e-02 -5.5657136038975219e-01 +5.5534919038811937e-03
-4.7499999999999911e+00 +8.2843717512119426e+00 +0.0000000000000000e+00 -4.7499999445943279e+00 -2.8422283623100147e-02 -5.5659815892799913e-01 +5.5539995325583815e-03
-4.7999999999999909e+00 +8.2843584495284599e+00 +0.0000000000000000e+00 -4.7999999428249636e+00 -2.8423674343528015e-02 -5.5662514738744684e-01 +5.5545110298680089e-03
-4.8499999999999908e+00 +8.2843450083259960e+00 +0.0000000000000000e+00 -4.8499999410182877e+00 -2.8425073642908763e-02 -5.5665232315564339e-01 +5.5550263830475280e-03
-4.8999999999999906e+00 +8.2843314275977384e+00 +0.0000000000000000e+00 -4.8999999391739095e+00 -2.8426481379770538e-02 -5.5667968362013376e-01 +5.5555455793343603e-03
-4.9499999999999904e+00 +8.2843177073368306e+00 +0.0000000000000000e+00 -4.9499999372914374e+00 -2.8427897412641082e-02 -5.5670722616846202e-01 +5.5560686059659180e-03
-4.9999999999999902e+00 +8.2843038475363677e+00 +0.0000000000000000e+00 -4.9999999353704805e+00 -2.8429321600047769e-02 -5.5673494818816915e-01 +5.5565954501795925e-03
-5.0499999999999901e+00 +8.2842898481894025e+00 +0.0000000000000000e+00 -5.0499999334106471e+00 -2.8430753800517503e-02 -5.5676284706679302e-01 +5.5571260992127395e-03
-5.0999999999999899e+00 +8.2842757092889432e+00 +0.0000000000000000e+00 -5.0999999314115456e+00 -2.8432193872576755e-02 -5.5679092019186938e-01 +5.5576605403026870e-03
-5.1499999999999897e+00 +8.2842614308279519e+00 +0.0000000000000000e+00 -5.1499999293727852e+00 -2.8433641674751525e-02 -5.5681916495093053e-01 +5.5581987606867292e-03
-5.1999999999999895e+00 +8.2842470127993497e+00 +0.0000000000000000e+00 -5.1999999272939732e+00 -2.8435097065567235e-02 -5.5684757873150470e-01 +5.5587407476021073e-03
-5.2499999999999893e+00 +8.2842324551960154e+00 +0.0000000000000000e+00 -5.2499999251747189e+00 -2.8436559903548871e-02 -5.5687615892111741e-01 +5.5592864882860237e-03
-5.2999999999999892e+00 +8.2842177580107847e+00 +0.0000000000000000e+00 -5.2999999230146297e+00 -2.8438030047220769e-02 -5.5690490290728978e-01 +5.5598359699756267e-03
-5.3499999999999890e+00 +8.2842029212364530e+00 +0.0000000000000000e+00 -5.3499999208133149e+00 -2.8439507355106697e-02 -5.5693380807753878e-01 +5.5603891799080015e-03
-5.3999999999999888e+00 +8.2841879448657743e+00 +0.0000000000000000e+00 -5.3999999185703818e+00 -2.8440991685729833e-02 -5.5696287181937720e-01 +5.5609461053201812e-03
-5.4499999999999886e+00 +8.2841728288914656e+00 +0.0000000000000000e+00 -5.4499999162854387e+00 -2.8442482897612670e-02 -5.5699209152031248e-01 +5.5615067334491225e-03
-5.4999999999999885e+00 +8.2841575733062029e+00 +0.0000000000000000e+00 -5.4999999139580940e+00 -2.8443980849277031e-02 -5.5702146456784818e-01 +5.5620710515317086e-03
-5.5499999999999883e+00 +8.2841421781026234e+00 +0.0000000000000000e+00 -5.5499999115879550e+00 -2.8445485399244054e-02 -5.5705098834948197e-01 +5.5626390468047539e-03
-5.5999999999999881e+00 +8.2841266432733267e+00 +0.0000000000000000e+00 -5.5999999091746293e+00 -2.8446996406034153e-02 -5.5708066025270631e-01 +5.5632107065049820e-03
-5.6499999999999879e+00 +8.2841109688108769e+00 +0.0000000000000000e+00 -5.6499999067177251e+00 -2.8448513728166973e-02 -5.5711047766500821e-01 +5.5637860178690364e-03
-5.6999999999999877e+00 +8.2840951547077992e+00 +0.0000000000000000e+00 -5.6999999042168499e+00 -2.8450037224161374e-02 -5.5714043797386870e-01 +5.5643649681334575e-03
-5.7499999999999876e+00 +8.2840792009565849e+00 +0.0000000000000000e+00 -5.7499999016716119e+00 -2.8451566752535431e-02 -5.5717053856676280e-01 +5.5649475445347036e-03
-5.7999999999999874e+00 +8.2840631075496898e+00 +0.0000000000000000e+00 -5.7999998990816177e+00 -2.8453102171806369e-02 -5.5720077683115843e-01 +5.5655337343091171e-03
-5.8499999999999872e+00 +8.2840468744795341e+00 +0.0000000000000000e+00 -5.8499998964464757e+00 -2.8454643340490554e-02 -5.5723115015451818e-01 +5.5661235246929419e-03
