# multipoles
# s[mm] polynom_b[n=0][T/m^n] polynom_b[n=1][T/m^n] polynom_b[n=2][T/m^n] polynom_b[n=3][T/m^n] polynom_b[n=4][T/m^n] polynom_b[n=5][T/m^n] polynom_b[n=6][T/m^n] 
+0.0000000000000000e+00 -5.5121959551207589e-01 +7.1856641189683872e+00 +7.1088593249654632e+00 +8.4038469849805665e+01 -2.1056297177260167e+04 -8.8031661076432851e+05 +1.2172480411725181e+08 
+5.0000000000000003e-02 -5.5121808938680195e-01 +7.1856689429797695e+00 +7.1077516528107081e+00 +8.4000441229211219e+01 -2.1048272671947405e+04 -8.8053238097963110e+05 +1.2172351375560415e+08 
+1.0000000000000001e-01 -5.5121699070924124e-01 +7.1856968332437257e+00 +7.1060012687455236e+00 +8.3937436833244618e+01 -2.1036843811549123e+04 -8.8056532733339828e+05 +1.2170055334287433e+08 
+1.5000000000000002e-01 -5.5121629866191690e-01 +7.1857476763872787e+00 +7.1036136966164598e+00 +8.3850826325826759e+01 -2.1022070587137743e+04 -8.8042331654635607e+05 +1.2165623070391515e+08 
+2.0000000000000001e-01 -5.5121601242736806e-01 +7.1858213590430431e+00 +7.1005944596215675e+00 +8.3741979169912128e+01 -2.1004012971488410e+04 -8.8011421367471176e+05 +1.2159085353766179e+08 
+2.5000000000000000e-01 -5.5121613118813906e-01 +7.1859177678418673e+00 +7.0969490786771434e+00 +8.3612264937491915e+01 -2.0982730877586451e+04 -8.7964588469065132e+05 +1.2150472914551784e+08 
+2.9999999999999999e-01 -5.5121665412683518e-01 +7.1860367894190764e+00 +7.0926830819951805e+00 +8.3463053039032573e+01 -2.0958284411330515e+04 -8.7902619420478796e+05 +1.2139816611336699e+08 
+3.4999999999999998e-01 -5.5121758042603608e-01 +7.1861783104080557e+00 +7.0878019898157856e+00 +8.3295712997098732e+01 -2.0930733464038403e+04 -8.7826300775568245e+05 +1.2127147158160482e+08 
+3.9999999999999997e-01 -5.5121890926835737e-01 +7.1863422174421139e+00 +7.0823113256848753e+00 +8.3111614367590008e+01 -2.0900138017707515e+04 -8.7736419115428138e+05 +1.2112495330598955e+08 
+4.4999999999999996e-01 -5.5122063983644898e-01 +7.1865283971580656e+00 +7.0762166155522195e+00 +8.2912126594267633e+01 -2.0866558115277774e+04 -8.7633760930013994e+05 +1.2095891943916763e+08 
+4.9999999999999994e-01 -5.5122277131294639e-01 +7.1867367361919925e+00 +7.0695233801111828e+00 +8.2698619169499253e+01 -2.0830053661844839e+04 -8.7519112743994698e+05 +1.2077367721401468e+08 
+5.4999999999999993e-01 -5.5122530288053873e-01 +7.1869671211812971e+00 +7.0622371456785045e+00 +8.2472461574421501e+01 -2.0790684711904945e+04 -8.7393261077871022e+05 +1.2056953486741574e+08 
+5.9999999999999998e-01 -5.5122823372191065e-01 +7.1872194387639015e+00 +7.0543634349568975e+00 +8.2235023275227348e+01 -2.0748511222062345e+04 -8.7256992431176244e+05 +1.2034679996721528e+08 
+6.5000000000000002e-01 -5.5123156301976661e-01 +7.1874935755788689e+00 +7.0459077707083795e+00 +8.1987673748968760e+01 -2.0703593150590765e+04 -8.7111093322925642e+05 +1.2010578009489249e+08 
+7.0000000000000007e-01 -5.5123528995684323e-01 +7.1877894182663544e+00 +7.0368756782953241e+00 +8.1731782424511650e+01 -2.0655990526876714e+04 -8.6956350220120675e+05 +1.1984678331409103e+08 
+7.5000000000000011e-01 -5.5123941371587892e-01 +7.1881068534644781e+00 +7.0272726802526986e+00 +8.1468718862861365e+01 -2.0605763303625128e+04 -8.6793549705712858e+05 +1.1957011716557583e+08 
+8.0000000000000016e-01 -5.5124393347963252e-01 +7.1884457678167850e+00 +7.0171042997188602e+00 +8.1199852421091933e+01 -2.0552971451877769e+04 -8.6623478191031725e+05 +1.1927608932292783e+08 
+8.5000000000000020e-01 -5.5124884843089628e-01 +7.1888060479625731e+00 +7.0063760623793963e+00 +8.0926552658297098e+01 -2.0497675010037841e+04 -8.6446922252905509e+05 +1.1896500790671235e+08 
+9.0000000000000024e-01 -5.5125415775246500e-01 +7.1891875805460739e+00 +6.9950934914054868e+00 +8.0650188950824415e+01 -2.0439933950377861e+04 -8.6264668315017782e+05 +1.1863718059801234e+08 
+9.5000000000000029e-01 -5.5125986062714782e-01 +7.1895902522112651e+00 +6.9832621090757865e+00 +8.0372130724432225e+01 -2.0379808216466608e+04 -8.6077502845077123e+05 +1.1829291486145388e+08 
+1.0000000000000002e+00 -5.5126595623778085e-01 +7.1900139495995070e+00 +6.9708874400743621e+00 +8.0093747526197333e+01 -2.0317357826913936e+04 -8.5886212405687303e+05 +1.1793251870820083e+08 
+1.0500000000000003e+00 -5.5127244376721096e-01 +7.1904585593570527e+00 +6.9579750075010232e+00 +7.9816408734493493e+01 -2.0252642750829153e+04 -8.5691583421936817e+05 +1.1755629978563768e+08 
+1.1000000000000003e+00 -5.5127932239830590e-01 +7.1909239681277493e+00 +6.9445303351746244e+00 +7.9541483847946154e+01 -2.0185722981477502e+04 -8.5494402415342408e+05 +1.1716456592348291e+08 
+1.1500000000000004e+00 -5.5128659131395408e-01 +7.1914100625606290e+00 +6.9305589476221297e+00 +7.9270342179346997e+01 -2.0116658529328313e+04 -8.5295455754155316e+05 +1.1675762505654711e+08 
+1.2000000000000004e+00 -5.5129424969704210e-01 +7.1919167292984136e+00 +6.9160663660556168e+00 +7.9004353325311897e+01 -2.0045509318583398e+04 -8.5095530039706267e+05 +1.1633578454806852e+08 
+1.2500000000000004e+00 -5.5130229673048925e-01 +7.1924438549897509e+00 +6.9010581146980963e+00 +7.8744886659327975e+01 -1.9972335355878880e+04 -8.4895411686204153e+05 +1.1589935232046674e+08 
+1.3000000000000005e+00 -5.5131073159722732e-01 +7.1929913262832370e+00 +6.8855397166065568e+00 +7.8493311584148842e+01 -1.9897196613452630e+04 -8.4695887132948812e+05 +1.1544863605140735e+08 
+1.3500000000000005e+00 -5.5131955348020567e-01 +7.1935590298244989e+00 +6.8695166955288061e+00 +7.8250997652013510e+01 -1.9820153089801683e+04 -8.4497742942083220e+05 +1.1498394362307690e+08 
+1.4000000000000006e+00 -5.5132876156238242e-01 +7.1941468522638559e+00 +6.8529945737776270e+00 +7.8019314233514564e+01 -1.9741264743918284e+04 -8.4301765519748861e+05 +1.1450558264560297e+08 
+1.4500000000000006e+00 -5.5133835502673501e-01 +7.1947546802528617e+00 +6.8359788738969325e+00 +7.7799630686998455e+01 -1.9660591538014189e+04 -8.4108741267299419e+05 +1.1401386073617597e+08 
+1.5000000000000007e+00 -5.5134833305626574e-01 +7.1953824004376381e+00 +6.8184751203050178e+00 +7.7593316605267717e+01 -1.9578193491580056e+04 -8.3919456773405010e+05 +1.1350908592513031e+08 
+1.5500000000000007e+00 -5.5135869483397926e-01 +7.1960298994711742e+00 +6.8004888352038195e+00 +7.7401741327606388e+01 -1.9494130566771841e+04 -8.3734698418373626e+05 +1.1299156586023289e+08 
+1.6000000000000008e+00 -5.5136943954289763e-01 +7.1966970640039083e+00 +6.7820255405335166e+00 +7.7226274309571494e+01 -1.9408462715841299e+04 -8.3555252673068282e+05 +1.1246160811190192e+08 
+1.6500000000000008e+00 -5.5138056636605803e-01 +7.1973837806868532e+00 +6.7630907583542017e+00 +7.7068285022741406e+01 -1.9321249897440146e+04 -8.3381906027373218e+05 +1.1191952030101334e+08 
+1.7000000000000008e+00 -5.5139207448652083e-01 +7.1980899361729218e+00 +6.7436900124625225e+00 +7.6929142870179177e+01 -1.9232552121696568e+04 -8.3215444907840353e+05 +1.1136561041267611e+08 
+1.7500000000000009e+00 -5.5140396308735118e-01 +7.1988154171141376e+00 +6.7238288242095479e+00 +7.6810217317545053e+01 -1.9142429332749627e+04 -8.3056655793516582e+05 +1.1080018598535770e+08 
+1.8000000000000009e+00 -5.5141623135162865e-01 +7.1995601101630102e+00 +6.7035127151400609e+00 +7.6712877816550801e+01 -1.9050941481752798e+04 -8.2906325143929024e+05 +1.1022355460767868e+08 
+1.8500000000000010e+00 -5.5142887846245792e-01 +7.2003239019733831e+00 +6.6827472082981654e+00 +7.6638493812606072e+01 -1.8958148561788450e+04 -8.2765239423577895e+05 +1.0963602415506721e+08 
+1.9000000000000010e+00 -5.5144190360293510e-01 +7.2011066791991016e+00 +6.6615378226317947e+00 +7.6588434747371650e+01 -1.8864110458945102e+04 -8.2634185081654147e+05 +1.0903790179215147e+08 
+1.9500000000000011e+00 -5.5145530595620629e-01 +7.2019083284947234e+00 +6.6398900837559678e+00 +7.6564070071439360e+01 -1.8768887244976380e+04 -8.2513948581369326e+05 +1.0842949595586520e+08 
+2.0000000000000009e+00 -5.5146908470540057e-01 +7.2027287365142882e+00 +6.6178095109638209e+00 +7.6566769255861018e+01 -1.8672538817709337e+04 -8.2405316391873057e+05 +1.0781111389580193e+08 
+2.0500000000000007e+00 -5.5148323881005368e-01 +7.2035677875965183e+00 +6.5953015719248596e+00 +7.6597546268920937e+01 -1.8575117527222621e+04 -8.2308889818605094e+05 +1.0718302854181193e+08 
+2.1000000000000005e+00 -5.5149776633541070e-01 +7.2044253510015128e+00 +6.5723716343337530e+00 +7.6655985661640173e+01 -1.8476636844503872e+04 -8.2224534607331129e+05 +1.0654533194719781e+08 
+2.1500000000000004e+00 -5.5151266512317543e-01 +7.2053012907692979e+00 +6.5490250754149191e+00 +7.6741312165197940e+01 -1.8377098290035377e+04 -8.2151934247452265e+05 +1.0589805982380781e+08 
+2.2000000000000002e+00 -5.5152793301507519e-01 +7.2061954709403606e+00 +6.5252672739726885e+00 +7.6852750506660996e+01 -1.8276503424957828e+04 -8.2090772228043189e+05 +1.0524124815442196e+08 
+2.2500000000000000e+00 -5.5154356785282510e-01 +7.2071077555604042e+00 +6.5011036043320667e+00 +7.6989525207123961e+01 -1.8174853687045812e+04 -8.2040731865730719e+05 +1.0457493207710376e+08 
+2.2999999999999998e+00 -5.5155956747816726e-01 +7.2080380086689964e+00 +6.4765394435963577e+00 +7.7150861061352416e+01 -1.8072150593092665e+04 -8.2001496704106848e+05 +1.0389914728170677e+08 
+2.3499999999999996e+00 -5.5157592973286951e-01 +7.2089860943112241e+00 +6.4515801714213001e+00 +7.7335982634995190e+01 -1.7968395727886957e+04 -8.1972750091702014e+05 +1.0321392991201298e+08 
+2.3999999999999995e+00 -5.5159265245869515e-01 +7.2099518765290220e+00 +6.4262311641475875e+00 +7.7544114657114747e+01 -1.7863590584302372e+04 -8.1954175520237267e+05 +1.0251931548277418e+08 
+2.4499999999999993e+00 -5.5160973349742248e-01 +7.2109352193679435e+00 +6.4004977988064038e+00 +7.7774481692433000e+01 -1.7757736675820513e+04 -8.1945456333980931e+05 +1.0181533965578108e+08 
+2.4999999999999991e+00 -5.5162717069084144e-01 +7.2119359868687942e+00 +6.3743854528383777e+00 +7.8026308535753799e+01 -1.7650835527212599e+04 -8.1946276074952260e+05 +1.0110203816962230e+08 
+2.5499999999999989e+00 -5.5164496188074574e-01 +7.2129540430788950e+00 +6.3478995016828836e+00 +7.8298819706326753e+01 -1.7542888607121251e+04 -8.1956318050923350e+05 +1.0037944637807645e+08 
+2.5999999999999988e+00 -5.5166310490895143e-01 +7.2139892520403244e+00 +6.3210453231798152e+00 +7.8591239962651429e+01 -1.7433897447447926e+04 -8.1975265771669871e+05 +9.9647600053953126e+07 
+2.6499999999999986e+00 -5.5168159761729818e-01 +7.2150414777981853e+00 +6.2938282975903288e+00 +7.8902793935120627e+01 -1.7323863651554973e+04 -8.2002802634655475e+05 +9.8906535480100960e+07 
+2.6999999999999984e+00 -5.5170043784760003e-01 +7.2161105843990745e+00 +6.2662537983485000e+00 +7.9232706212602608e+01 -1.7212788631508916e+04 -8.2038612007961783e+05 +9.8156287618807375e+07 
+2.7499999999999982e+00 -5.5171962344170622e-01 +7.2171964358863701e+00 +6.2383272031254027e+00 +7.9580201512384434e+01 -1.7100673912409966e+04 -8.2082377359152318e+05 +9.7396892192685112e+07 
+2.7999999999999980e+00 -5.5173915224147740e-01 +7.2182988963065648e+00 +6.2100538905368365e+00 +7.9944504442573702e+01 -1.6987521051761931e+04 -8.2133782070069911e+05 +9.6628385169993445e+07 
+2.8499999999999979e+00 -5.5175902208878025e-01 +7.2194178297038274e+00 +6.1814392373703271e+00 +8.0324839704311856e+01 -1.6873331547061392e+04 -8.2192509594389377e+05 +9.5850802076282859e+07 
+2.8999999999999977e+00 -5.5177923082548541e-01 +7.2205531001251657e+00 +6.1524886205412841e+00 +8.0720431896658624e+01 -1.6758106908738311e+04 -8.2258243304733851e+05 +9.5064178558317274e+07 
+2.9499999999999975e+00 -5.5179977629348453e-01 +7.2217045716161703e+00 +6.1232074181311855e+00 +8.1130505673328983e+01 -1.6641848670492047e+04 -8.2330666613896657e+05 +9.4268550392827690e+07 
+2.9999999999999973e+00 -5.5182065633466737e-01 +7.2228721082220586e+00 +6.0936010065878881e+00 +8.1554285713263511e+01 -1.6524558324365749e+04 -8.2409462956455094e+05 +9.3463953084825858e+07 
+3.0499999999999972e+00 -5.5184186879094754e-01 +7.2240555739905945e+00 +6.0636747646164100e+00 +8.1990996600401502e+01 -1.6406237419243276e+04 -8.2494315691349388e+05 +9.2650422508264735e+07 
+3.0999999999999970e+00 -5.5186341150422513e-01 +7.2252548329680986e+00 +6.0334340672961781e+00 +8.2439862963364831e+01 -1.6286887410204619e+04 -8.2584908204125438e+05 +9.1827993922936529e+07 
+3.1499999999999968e+00 -5.5188528231643408e-01 +7.2264697491995635e+00 +6.0028842942353267e+00 +8.2900109518334787e+01 -1.6166509870595537e+04 -8.2680923965451901e+05 +9.0996703369977534e+07 
+3.1999999999999966e+00 -5.5190747906950754e-01 +7.2277001867318127e+00 +5.9720308226068601e+00 +8.3370960886803076e+01 -1.6045106306170184e+04 -8.2782046357529901e+05 +9.0156586434875533e+07 
+3.2499999999999964e+00 -5.5192999960538136e-01 +7.2289460096124838e+00 +5.9408790293498122e+00 +8.3851641656972490e+01 -1.5922678216278095e+04 -8.2887958733417932e+05 +8.9307678655087888e+07 
+3.2999999999999963e+00 -5.5195284176600345e-01 +7.2302070818875110e+00 +5.9094342917100446e+00 +8.4341376505757452e+01 -1.5799227107261593e+04 -8.2998344526288379e+05 +8.8450015615617067e+07 
+3.3499999999999961e+00 -5.5197600339333508e-01 +7.2314832676046592e+00 +5.8777019881550032e+00 +8.4839390023375202e+01 -1.5674754518346777e+04 -8.3112887091101578e+05 +8.7583633124532118e+07 
+3.3999999999999959e+00 -5.5199948232934370e-01 +7.2327744308094202e+00 +5.8456874965702159e+00 +8.5344906892967629e+01 -1.5549261970232230e+04 -8.3231269859119284e+05 +8.6708566856301442e+07 
+3.4499999999999957e+00 -5.5202327641600191e-01 +7.2340804355499069e+00 +5.8133961943187007e+00 +8.5857151703644291e+01 -1.5422750966915242e+04 -8.3353176188489818e+05 +8.5824852365485489e+07 
+3.4999999999999956e+00 -5.5204738349528915e-01 +7.2354011458713101e+00 +5.7808334590321824e+00 +8.6375349145679394e+01 -1.5295223020235286e+04 -8.3478289513737033e+05 +8.4932525262580380e+07 
+3.5499999999999954e+00 -5.5207180140919565e-01 +7.2367364258233824e+00 +5.7480046691446374e+00 +8.6898723737544373e+01 -1.5166679665298112e+04 -8.3606293132245296e+05 +8.4031621325121537e+07 
+3.5999999999999952e+00 -5.5209652799972175e-01 +7.2380861394516609e+00 +5.7149152025945540e+00 +8.7426500153375670e+01 -1.5037122412547498e+04 -8.3736870464318455e+05 +8.3122176125024527e+07 
+3.6499999999999950e+00 -5.5212156110886179e-01 +7.2394501508024254e+00 +5.6815704361196433e+00 +8.7957903047022796e+01 -1.4906552747720903e+04 -8.3869704917203588e+05 +8.2204225096336350e+07 
+3.6999999999999948e+00 -5.5214689857864485e-01 +7.2408283239227273e+00 +5.6479757512625826e+00 +8.8492157035002251e+01 -1.4774972280800117e+04 -8.4004479865864338e+05 +8.1277804494959339e+07 
+3.7499999999999947e+00 -5.5217253825106805e-01 +7.2422205228598173e+00 +5.6141365223695026e+00 +8.9028486717726821e+01 -1.4642382426949815e+04 -8.4140878669637081e+05 +8.0342949263364792e+07 
+3.7999999999999945e+00 -5.5219847796817434e-01 +7.2436266116606651e+00 +5.5800581311486805e+00 +8.9566116704693172e+01 -1.4508784796939437e+04 -8.4278584695587750e+05 +7.9399695655354455e+07 
+3.8499999999999943e+00 -5.5222471557198050e-01 +7.2450464543720727e+00 +5.5457459536137517e+00 +9.0104271610441842e+01 -1.4374180846132484e+04 -8.4417281315205584e+05 +7.8448078869958147e+07 
+3.8999999999999941e+00 -5.5225124890452615e-01 +7.2464799150399228e+00 +5.5112053684581843e+00 +9.0642176082842084e+01 -1.4238572099549581e+04 -8.4556651927466597e+05 +7.7488134572237805e+07 
+3.9499999999999940e+00 -5.5227807580786870e-01 +7.2479268577119207e+00 +5.4764417571971569e+00 +9.1179054687984703e+01 -1.4101960160989678e+04 -8.4696379862689914e+05 +7.6519898971785530e+07 
+3.9999999999999938e+00 -5.5230519412403489e-01 +7.2493871464347164e+00 +5.4414604943226408e+00 +9.1714132025432264e+01 -1.3964346435565953e+04 -8.4836148472804448e+05 +7.5543406906932145e+07 
+4.0499999999999936e+00 -5.5233260155590103e-01 +7.2508606402061355e+00 +5.4062676723055292e+00 +9.2246660362614890e+01 -1.3825763032843148e+04 -8.4975634453718353e+05 +7.4558904025998399e+07 
+4.0999999999999934e+00 -5.5236029524987296e-01 +7.2523471694517472e+00 +5.3708726102330155e+00 +9.2776050850452194e+01 -1.3686367598892852e+04 -8.5114511338722706e+05 +7.3567483968716010e+07 
+4.1499999999999932e+00 -5.5238827221329145e-01 +7.2538465553542535e+00 +5.3352855528315244e+00 +9.3301765428337660e+01 -1.3546350076038067e+04 -8.5252457248880318e+05 +7.2570454829301775e+07 
+4.1999999999999931e+00 -5.5241652945352115e-01 +7.2553586190931654e+00 +5.2995167490981840e+00 +9.3823266158726341e+01 -1.3405900523842562e+04 -8.5389150413226057e+05 +7.1569125510351211e+07 
+4.2499999999999929e+00 -5.5244506397791504e-01 +7.2568831818499060e+00 +5.2635764451209406e+00 +9.4340015035300752e+01 -1.3265208917912360e+04 -8.5524269008058216e+05 +7.0564804326906160e+07 
+4.2999999999999927e+00 -5.5247387279384064e-01 +7.2584200648017001e+00 +5.2274748893439797e+00 +9.4851474229405781e+01 -1.3124465300099473e+04 -8.5657491360052174e+05 +6.9558800054647565e+07 
+4.3499999999999925e+00 -5.5250295290865714e-01 +7.2599690891316007e+00 +5.1912223284522163e+00 +9.5357105669959722e+01 -1.2983859660780872e+04 -8.5788495597400679e+05 +6.8552421105524063e+07 
+4.3999999999999924e+00 -5.5253230132973885e-01 +7.2615300760180261e+00 +5.1548290116850835e+00 +9.5856371482764658e+01 -1.2843582061311452e+04 -8.5916960013180005e+05 +6.7546976380365148e+07 
+4.4499999999999922e+00 -5.5256191506445285e-01 +7.2631028466399625e+00 +5.1183051862542985e+00 +9.6348733780317190e+01 -1.2703822503762596e+04 -8.6042562896879949e+05 +6.6543774366204247e+07 
+4.4999999999999920e+00 -5.5259179112016932e-01 +7.2646872221749526e+00 +5.0816611002685352e+00 +9.6833654730657315e+01 -1.2564771013826379e+04 -8.6164982583995000e+05 +6.5544123704264395e+07 
+4.5499999999999918e+00 -5.5262192650426234e-01 +7.2662830238017078e+00 +5.0449070022648526e+00 +9.7310596455299390e+01 -1.2426617630813746e+04 -8.6283897374476434e+05 +6.4549333139946952e+07 
+4.5999999999999917e+00 -5.5265231822410343e-01 +7.2678900726996591e+00 +5.0080531404388324e+00 +9.7779021055400463e+01 -1.2289552382708946e+04 -8.6398985558115970e+05 +6.3560711334484249e+07 
+4.6499999999999915e+00 -5.5268296328707245e-01 +7.2695081900404563e+00 +4.9711097639108521e+00 +9.8238390953234941e+01 -1.2153765316258548e+04 -8.6509925691724056e+05 +6.2579567052344516e+07 
+4.6999999999999913e+00 -5.5271385870054723e-01 +7.2711371970056726e+00 +4.9340871219062290e+00 +9.8688168162944962e+01 -1.2019446485522825e+04 -8.6616395999959169e+05 +6.1607209128079601e+07 
+4.7499999999999911e+00 -5.5274500147189098e-01 +7.2727769147685128e+00 +4.8969954607462540e+00 +9.9127815041031525e+01 -1.1886785861236360e+04 -8.6718074990658136e+05 +6.0644945815618008e+07 
+4.7999999999999909e+00 -5.5277638860849321e-01 +7.2744271645049254e+00 +4.8598450322726414e+00 +9.9556793846783080e+01 -1.1755973567741832e+04 -8.6814641102231201e+05 +5.9694086423905946e+07 
+4.8499999999999908e+00 -5.5280801711773420e-01 +7.2760877673903366e+00 +4.8226460857050757e+00 +9.9974566847633241e+01 -1.1627199647168794e+04 -8.6905772777053039e+05 +5.8755939665624291e+07 
+4.8999999999999906e+00 -5.5283988400698103e-01 +7.2777585445977442e+00 +4.7854088692242591e+00 +1.0038059642790604e+02 -1.1500654122929533e+04 -8.6991148565063206e+05 +5.7831814164268710e+07 
+4.9499999999999904e+00 -5.5287198628361400e-01 +7.2794393173005201e+00 +4.7481436327943740e+00 +1.0077434493969204e+02 -1.1376527056049610e+04 -8.7070446986022929e+05 +5.6923018757533431e+07 
+4.9999999999999902e+00 -5.5290432095500630e-01 +7.2811299066732342e+00 +4.7108606259159940e+00 +1.0115527470148970e+02 -1.1255008500897326e+04 -8.7143346543050476e+05 +5.6030862262866266e+07 
+5.0499999999999901e+00 -5.5293688502853955e-01 +7.2828301338865904e+00 +4.6735700998197922e+00 +1.0152284819126950e+02 -1.1136288554108200e+04 -8.7209525875092216e+05 +5.5156653768611431e+07 
