# trajectory
# s[mm] rx[mm] ry[mm] rz[mm] px[rad] py[rad] pz[rad]
0.0000000000000000e+00 +8.5389999999999997e+00 +0.0000000000000000e+00 +0.0000000000000000e+00 +0.0000000000000000e+00 +0.0000000000000000e+00 +1.0000000000000000e+00
5.0000000000000003e-02 +8.5389999309607205e+00 +0.0000000000000000e+00 +4.9999999999936449e-02 -2.7615714453134471e-06 +0.0000000000000000e+00 +9.9999999999618683e-01
1.0000000000000001e-01 +8.5389997238428155e+00 +0.0000000000000000e+00 +9.9999999999491579e-02 -5.5231453504923465e-06 +0.0000000000000000e+00 +9.9999999998474742e-01
1.5000000000000002e-01 +8.5389993786461140e+00 +0.0000000000000000e+00 +1.4999999999828406e-01 -8.2847236059877484e-06 +0.0000000000000000e+00 +9.9999999996568167e-01
2.0000000000000001e-01 +8.5389988953703515e+00 +0.0000000000000000e+00 +1.9999999999593263e-01 -1.1046308098168952e-05 +0.0000000000000000e+00 +9.9999999993898958e-01
2.5000000000000000e-01 +8.5389982740151691e+00 +0.0000000000000000e+00 +2.4999999999205591e-01 -1.3807900709323600e-05 +0.0000000000000000e+00 +9.9999999990467103e-01
2.9999999999999999e-01 +8.5389975145801138e+00 +0.0000000000000000e+00 +2.9999999998627258e-01 -1.6569503317657758e-05 +0.0000000000000000e+00 +9.9999999986272592e-01
3.4999999999999998e-01 +8.5389966170646385e+00 +0.0000000000000000e+00 +3.4999999997820136e-01 -1.9331117797296015e-05 +0.0000000000000000e+00 +9.9999999981315413e-01
3.9999999999999997e-01 +8.5389955814681038e+00 +0.0000000000000000e+00 +3.9999999996746088e-01 -2.2092746018281555e-05 +0.0000000000000000e+00 +9.9999999975595544e-01
4.4999999999999996e-01 +8.5389944077897759e+00 +0.0000000000000000e+00 +4.4999999995366979e-01 -2.4854389846576258e-05 +0.0000000000000000e+00 +9.9999999969112985e-01
4.9999999999999994e-01 +8.5389930960288272e+00 +0.0000000000000000e+00 +4.9999999993644673e-01 -2.7616051144060783e-05 +0.0000000000000000e+00 +9.9999999961867703e-01
5.4999999999999993e-01 +8.5389916461843391e+00 +0.0000000000000000e+00 +5.4999999991541038e-01 -3.0377731768534647e-05 +0.0000000000000000e+00 +9.9999999953859686e-01
5.9999999999999998e-01 +8.5389900582552976e+00 +0.0000000000000000e+00 +5.9999999989017927e-01 -3.3139433573716320e-05 +0.0000000000000000e+00 +9.9999999945088913e-01
6.5000000000000002e-01 +8.5389883322405975e+00 +0.0000000000000000e+00 +6.4999999986037216e-01 -3.5901158409243304e-05 +0.0000000000000000e+00 +9.9999999935555361e-01
7.0000000000000007e-01 +8.5389864681390417e+00 +0.0000000000000000e+00 +6.9999999982560757e-01 -3.8662908120672224e-05 +0.0000000000000000e+00 +9.9999999925258998e-01
7.5000000000000011e-01 +8.5389844659493406e+00 +0.0000000000000000e+00 +7.4999999978550402e-01 -4.1424684549478905e-05 +0.0000000000000000e+00 +9.9999999914199800e-01
8.0000000000000016e-01 +8.5389823256701121e+00 +0.0000000000000000e+00 +7.9999999973968017e-01 -4.4186489533058465e-05 +0.0000000000000000e+00 +9.9999999902377734e-01
8.5000000000000020e-01 +8.5389800472998818e+00 +0.0000000000000000e+00 +8.4999999968775453e-01 -4.6948324904725389e-05 +0.0000000000000000e+00 +9.9999999889792768e-01
9.0000000000000024e-01 +8.5389776308370848e+00 +0.0000000000000000e+00 +8.9999999962934574e-01 -4.9710192493713613e-05 +0.0000000000000000e+00 +9.9999999876444867e-01
9.5000000000000029e-01 +8.5389750762800656e+00 +0.0000000000000000e+00 +9.4999999956407222e-01 -5.2472094125176622e-05 +0.0000000000000000e+00 +9.9999999862333999e-01
1.0000000000000002e+00 +8.5389723836270743e+00 +0.0000000000000000e+00 +9.9999999949155249e-01 -5.5234031620187507e-05 +0.0000000000000000e+00 +9.9999999847460119e-01
1.0500000000000003e+00 +8.5389695528762743e+00 +0.0000000000000000e+00 +1.0499999994114051e+00 -5.7996006795739073e-05 +0.0000000000000000e+00 +9.9999999831823194e-01
1.1000000000000003e+00 +8.5389665840257365e+00 +0.0000000000000000e+00 +1.0999999993232485e+00 -6.0758021464743899e-05 +0.0000000000000000e+00 +9.9999999815423180e-01
1.1500000000000004e+00 +8.5389634770734393e+00 +0.0000000000000000e+00 +1.1499999992267012e+00 -6.3520077436034434e-05 +0.0000000000000000e+00 +9.9999999798260031e-01
1.2000000000000004e+00 +8.5389602320172742e+00 +0.0000000000000000e+00 +1.1999999991213814e+00 -6.6282176514363063e-05 +0.0000000000000000e+00 +9.9999999780333693e-01
1.2500000000000004e+00 +8.5389568488550402e+00 +0.0000000000000000e+00 +1.2499999990069077e+00 -6.9044320500402203e-05 +0.0000000000000000e+00 +9.9999999761644132e-01
1.3000000000000005e+00 +8.5389533275844460e+00 +0.0000000000000000e+00 +1.2999999988828983e+00 -7.1806511190744381e-05 +0.0000000000000000e+00 +9.9999999742191292e-01
1.3500000000000005e+00 +8.5389496682031130e+00 +0.0000000000000000e+00 +1.3499999987489717e+00 -7.4568750377902292e-05 +0.0000000000000000e+00 +9.9999999721975119e-01
1.4000000000000006e+00 +8.5389458707085701e+00 +0.0000000000000000e+00 +1.3999999986047462e+00 -7.7331039850308893e-05 +0.0000000000000000e+00 +9.9999999700995557e-01
1.4500000000000006e+00 +8.5389419350982596e+00 +0.0000000000000000e+00 +1.4499999984498400e+00 -8.0093381392317502e-05 +0.0000000000000000e+00 +9.9999999679252560e-01
1.5000000000000007e+00 +8.5389378613695328e+00 +0.0000000000000000e+00 +1.4999999982838714e+00 -8.2855776784201840e-05 +0.0000000000000000e+00 +9.9999999656746064e-01
1.5500000000000007e+00 +8.5389336495196542e+00 +0.0000000000000000e+00 +1.5499999981064587e+00 -8.5618227802156132e-05 +0.0000000000000000e+00 +9.9999999633476000e-01
1.6000000000000008e+00 +8.5389292995457957e+00 +0.0000000000000000e+00 +1.5999999979172201e+00 -8.8380736218295181e-05 +0.0000000000000000e+00 +9.9999999609442325e-01
1.6500000000000008e+00 +8.5389248114450460e+00 +0.0000000000000000e+00 +1.6499999977157738e+00 -9.1143303800654424e-05 +0.0000000000000000e+00 +9.9999999584644961e-01
1.7000000000000008e+00 +8.5389201852144012e+00 +0.0000000000000000e+00 +1.6999999975017377e+00 -9.3905932313190032e-05 +0.0000000000000000e+00 +9.9999999559083841e-01
1.7500000000000009e+00 +8.5389154208507705e+00 +0.0000000000000000e+00 +1.7499999972747302e+00 -9.6668623515778969e-05 +0.0000000000000000e+00 +9.9999999532758910e-01
1.8000000000000009e+00 +8.5389105183509759e+00 +0.0000000000000000e+00 +1.7999999970343692e+00 -9.9431379164219096e-05 +0.0000000000000000e+00 +9.9999999505670090e-01
1.8500000000000010e+00 +8.5389054777117508e+00 +0.0000000000000000e+00 +1.8499999967802729e+00 -1.0219420101022922e-04 +0.0000000000000000e+00 +9.9999999477817314e-01
1.9000000000000010e+00 +8.5389002989297431e+00 +0.0000000000000000e+00 +1.8999999965120593e+00 -1.0495709080144917e-04 +0.0000000000000000e+00 +9.9999999449200505e-01
1.9500000000000011e+00 +8.5388949820015103e+00 +0.0000000000000000e+00 +1.9499999962293462e+00 -1.0772005028143987e-04 +0.0000000000000000e+00 +9.9999999419819585e-01
2.0000000000000009e+00 +8.5388895269235245e+00 +0.0000000000000000e+00 +1.9999999959317516e+00 -1.1048308118968343e-04 +0.0000000000000000e+00 +9.9999999389674488e-01
2.0500000000000007e+00 +8.5388839336921709e+00 +0.0000000000000000e+00 +2.0499999956188932e+00 -1.1324618526133278e-04 +0.0000000000000000e+00 +9.9999999358765124e-01
2.1000000000000005e+00 +8.5388782023037493e+00 +0.0000000000000000e+00 +2.0999999952903892e+00 -1.1600936422445717e-04 +0.0000000000000000e+00 +9.9999999327091416e-01
2.1500000000000004e+00 +8.5388723327544707e+00 +0.0000000000000000e+00 +2.1499999949458570e+00 -1.1877261979728758e-04 +0.0000000000000000e+00 +9.9999999294653286e-01
2.2000000000000002e+00 +8.5388663250404626e+00 +0.0000000000000000e+00 +2.1999999945849149e+00 -1.2153595368796640e-04 +0.0000000000000000e+00 +9.9999999261450645e-01
2.2500000000000000e+00 +8.5388601791577674e+00 +0.0000000000000000e+00 +2.2499999942071804e+00 -1.2429936759454746e-04 +0.0000000000000000e+00 +9.9999999227483405e-01
2.2999999999999998e+00 +8.5388538951023421e+00 +0.0000000000000000e+00 +2.2999999938122708e+00 -1.2706286320499609e-04 +0.0000000000000000e+00 +9.9999999192751488e-01
2.3499999999999996e+00 +8.5388474728700583e+00 +0.0000000000000000e+00 +2.3499999933998041e+00 -1.2982644219718923e-04 +0.0000000000000000e+00 +9.9999999157254793e-01
2.3999999999999995e+00 +8.5388409124567044e+00 +0.0000000000000000e+00 +2.3999999929693980e+00 -1.3259010623891540e-04 +0.0000000000000000e+00 +9.9999999120993233e-01
2.4499999999999993e+00 +8.5388342138579887e+00 +0.0000000000000000e+00 +2.4499999925206697e+00 -1.3535385698787482e-04 +0.0000000000000000e+00 +9.9999999083966717e-01
2.4999999999999991e+00 +8.5388273770695324e+00 +0.0000000000000000e+00 +2.4999999920532372e+00 -1.3811769609167943e-04 +0.0000000000000000e+00 +9.9999999046175148e-01
2.5499999999999989e+00 +8.5388204020868788e+00 +0.0000000000000000e+00 +2.5499999915667173e+00 -1.4088162518785297e-04 +0.0000000000000000e+00 +9.9999999007618434e-01
2.5999999999999988e+00 +8.5388132889054873e+00 +0.0000000000000000e+00 +2.5999999910607281e+00 -1.4364564590383096e-04 +0.0000000000000000e+00 +9.9999998968296466e-01
2.6499999999999986e+00 +8.5388060375207360e+00 +0.0000000000000000e+00 +2.6499999905348863e+00 -1.4640975985696087e-04 +0.0000000000000000e+00 +9.9999998928209155e-01
2.6999999999999984e+00 +8.5387986479279210e+00 +0.0000000000000000e+00 +2.6999999899888096e+00 -1.4917396865450204e-04 +0.0000000000000000e+00 +9.9999998887356401e-01
2.7499999999999982e+00 +8.5387911201222622e+00 +0.0000000000000000e+00 +2.7499999894221152e+00 -1.5193827389362581e-04 +0.0000000000000000e+00 +9.9999998845738092e-01
2.7999999999999980e+00 +8.5387834540988976e+00 +0.0000000000000000e+00 +2.7999999888344203e+00 -1.5470267716141553e-04 +0.0000000000000000e+00 +9.9999998803354129e-01
2.8499999999999979e+00 +8.5387756498528855e+00 +0.0000000000000000e+00 +2.8499999882253420e+00 -1.5746718003486666e-04 +0.0000000000000000e+00 +9.9999998760204400e-01
2.8999999999999977e+00 +8.5387677073792076e+00 +0.0000000000000000e+00 +2.8999999875944971e+00 -1.6023178408088669e-04 +0.0000000000000000e+00 +9.9999998716288807e-01
2.9499999999999975e+00 +8.5387596266727659e+00 +0.0000000000000000e+00 +2.9499999869415028e+00 -1.6299649085629533e-04 +0.0000000000000000e+00 +9.9999998671607238e-01
2.9999999999999973e+00 +8.5387514077283839e+00 +0.0000000000000000e+00 +2.9999999862659763e+00 -1.6576130190782445e-04 +0.0000000000000000e+00 +9.9999998626159581e-01
3.0499999999999972e+00 +8.5387430505408108e+00 +0.0000000000000000e+00 +3.0499999855675344e+00 -1.6852621877211816e-04 +0.0000000000000000e+00 +9.9999998579945715e-01
3.0999999999999970e+00 +8.5387345551047176e+00 +0.0000000000000000e+00 +3.0999999848457942e+00 -1.7129124297573283e-04 +0.0000000000000000e+00 +9.9999998532965539e-01
3.1499999999999968e+00 +8.5387259214146987e+00 +0.0000000000000000e+00 +3.1499999841003721e+00 -1.7405637603513718e-04 +0.0000000000000000e+00 +9.9999998485218933e-01
3.1999999999999966e+00 +8.5387171494652740e+00 +0.0000000000000000e+00 +3.1999999833308852e+00 -1.7682161945671224e-04 +0.0000000000000000e+00 +9.9999998436705784e-01
3.2499999999999964e+00 +8.5387082392508891e+00 +0.0000000000000000e+00 +3.2499999825369499e+00 -1.7958697473675141e-04 +0.0000000000000000e+00 +9.9999998387425959e-01
3.2999999999999963e+00 +8.5386991907659127e+00 +0.0000000000000000e+00 +3.2999999817181833e+00 -1.8235244336146055e-04 +0.0000000000000000e+00 +9.9999998337379348e-01
3.3499999999999961e+00 +8.5386900040046392e+00 +0.0000000000000000e+00 +3.3499999808742014e+00 -1.8511802680695792e-04 +0.0000000000000000e+00 +9.9999998286565839e-01
3.3999999999999959e+00 +8.5386806789612937e+00 +0.0000000000000000e+00 +3.3999999800046212e+00 -1.8788372653927432e-04 +0.0000000000000000e+00 +9.9999998234985299e-01
3.4499999999999957e+00 +8.5386712156300231e+00 +0.0000000000000000e+00 +3.4499999791090588e+00 -1.9064954401435300e-04 +0.0000000000000000e+00 +9.9999998182637606e-01
3.4999999999999956e+00 +8.5386616140049050e+00 +0.0000000000000000e+00 +3.4999999781871307e+00 -1.9341548067804980e-04 +0.0000000000000000e+00 +9.9999998129522627e-01
3.5499999999999954e+00 +8.5386518740799442e+00 +0.0000000000000000e+00 +3.5499999772384534e+00 -1.9618153796613312e-04 +0.0000000000000000e+00 +9.9999998075640240e-01
3.5999999999999952e+00 +8.5386419958490745e+00 +0.0000000000000000e+00 +3.5999999762626431e+00 -1.9894771730428391e-04 +0.0000000000000000e+00 +9.9999998020990322e-01
3.6499999999999950e+00 +8.5386319793061567e+00 +0.0000000000000000e+00 +3.6499999752593157e+00 -2.0171402010809583e-04 +0.0000000000000000e+00 +9.9999997965572740e-01
3.6999999999999948e+00 +8.5386218244449825e+00 +0.0000000000000000e+00 +3.6999999742280876e+00 -2.0448044778307513e-04 +0.0000000000000000e+00 +9.9999997909387361e-01
3.7499999999999947e+00 +8.5386115312592743e+00 +0.0000000000000000e+00 +3.7499999731685749e+00 -2.0724700172464072e-04 +0.0000000000000000e+00 +9.9999997852434053e-01
3.7999999999999945e+00 +8.5386010997426833e+00 +0.0000000000000000e+00 +3.7999999720803936e+00 -2.1001368331812428e-04 +0.0000000000000000e+00 +9.9999997794712681e-01
3.8499999999999943e+00 +8.5385905298887916e+00 +0.0000000000000000e+00 +3.8499999709631596e+00 -2.1278049393877013e-04 +0.0000000000000000e+00 +9.9999997736223112e-01
3.8999999999999941e+00 +8.5385798216911155e+00 +0.0000000000000000e+00 +3.8999999698164887e+00 -2.1554743495173537e-04 +0.0000000000000000e+00 +9.9999997676965202e-01
3.9499999999999940e+00 +8.5385689751431002e+00 +0.0000000000000000e+00 +3.9499999686399967e+00 -2.1831450771208987e-04 +0.0000000000000000e+00 +9.9999997616938818e-01
3.9999999999999938e+00 +8.5385579902381252e+00 +0.0000000000000000e+00 +3.9999999674332996e+00 -2.2108171356481624e-04 +0.0000000000000000e+00 +9.9999997556143827e-01
4.0499999999999936e+00 +8.5385468669695026e+00 +0.0000000000000000e+00 +4.0499999661960127e+00 -2.2384905384466042e-04 +0.0000000000000000e+00 +9.9999997494580084e-01
4.0999999999999934e+00 +8.5385356053304786e+00 +0.0000000000000000e+00 +4.0999999649277514e+00 -2.2661652987448754e-04 +0.0000000000000000e+00 +9.9999997432247445e-01
4.1499999999999932e+00 +8.5385242053142321e+00 +0.0000000000000000e+00 +4.1499999636281322e+00 -2.2938414296363771e-04 +0.0000000000000000e+00 +9.9999997369145777e-01
4.1999999999999931e+00 +8.5385126669138778e+00 +0.0000000000000000e+00 +4.1999999622967694e+00 -2.3215189440777657e-04 +0.0000000000000000e+00 +9.9999997305274924e-01
4.2499999999999929e+00 +8.5385009901224649e+00 +0.0000000000000000e+00 +4.2499999609332786e+00 -2.3491978548889530e-04 +0.0000000000000000e+00 +9.9999997240634741e-01
4.2999999999999927e+00 +8.5384891749329803e+00 +0.0000000000000000e+00 +4.2999999595372760e+00 -2.3768781747531066e-04 +0.0000000000000000e+00 +9.9999997175225086e-01
4.3499999999999925e+00 +8.5384772213383471e+00 +0.0000000000000000e+00 +4.3499999581083761e+00 -2.4045599162166487e-04 +0.0000000000000000e+00 +9.9999997109045813e-01
4.3999999999999924e+00 +8.5384651293314278e+00 +0.0000000000000000e+00 +4.3999999566461936e+00 -2.4322430916892576e-04 +0.0000000000000000e+00 +9.9999997042096778e-01
4.4499999999999922e+00 +8.5384528989050192e+00 +0.0000000000000000e+00 +4.4499999551503446e+00 -2.4599277134438669e-04 +0.0000000000000000e+00 +9.9999996974377825e-01
4.4999999999999920e+00 +8.5384405300518615e+00 +0.0000000000000000e+00 +4.4999999536204438e+00 -2.4876137936166650e-04 +0.0000000000000000e+00 +9.9999996905888811e-01
4.5499999999999918e+00 +8.5384280227646325e+00 +0.0000000000000000e+00 +4.5499999520561056e+00 -2.5153013442070967e-04 +0.0000000000000000e+00 +9.9999996836629579e-01
4.5999999999999917e+00 +8.5384153770359497e+00 +0.0000000000000000e+00 +4.5999999504569455e+00 -2.5429903770778610e-04 +0.0000000000000000e+00 +9.9999996766599974e-01
4.6499999999999915e+00 +8.5384025928583718e+00 +0.0000000000000000e+00 +4.6499999488225772e+00 -2.5706809039549128e-04 +0.0000000000000000e+00 +9.9999996695799842e-01
4.6999999999999913e+00 +8.5383896702244009e+00 +0.0000000000000000e+00 +4.6999999471526168e+00 -2.5983729364274620e-04 +0.0000000000000000e+00 +9.9999996624229037e-01
4.7499999999999911e+00 +8.5383766091264786e+00 +0.0000000000000000e+00 +4.7499999454466781e+00 -2.6260664859479731e-04 +0.0000000000000000e+00 +9.9999996551887393e-01
4.7999999999999909e+00 +8.5383634095569931e+00 +0.0000000000000000e+00 +4.7999999437043757e+00 -2.6537615638321665e-04 +0.0000000000000000e+00 +9.9999996478774766e-01
4.8499999999999908e+00 +8.5383500715082743e+00 +0.0000000000000000e+00 +4.8499999419253239e+00 -2.6814581812590162e-04 +0.0000000000000000e+00 +9.9999996404890990e-01
4.8999999999999906e+00 +8.5383365949725967e+00 +0.0000000000000000e+00 +4.8999999401091374e+00 -2.7091563492707521e-04 +0.0000000000000000e+00 +9.9999996330235918e-01
4.9499999999999904e+00 +8.5383229799421798e+00 +0.0000000000000000e+00 +4.9499999382554307e+00 -2.7368560787728575e-04 +0.0000000000000000e+00 +9.9999996254809376e-01
4.9999999999999902e+00 +8.5383092264091882e+00 +0.0000000000000000e+00 +4.9999999363638183e+00 -2.7645573805340707e-04 +0.0000000000000000e+00 +9.9999996178611217e-01
5.0499999999999901e+00 +8.5382953343657348e+00 +0.0000000000000000e+00 +5.0499999344339139e+00 -2.7922602651863840e-04 +0.0000000000000000e+00 +9.9999996101641275e-01
5.0999999999999899e+00 +8.5382813038038794e+00 +0.0000000000000000e+00 +5.0999999324653311e+00 -2.8199647432250436e-04 +0.0000000000000000e+00 +9.9999996023899385e-01
5.1499999999999897e+00 +8.5382671347156300e+00 +0.0000000000000000e+00 +5.1499999304576844e+00 -2.8476708250085495e-04 +0.0000000000000000e+00 +9.9999995945385389e-01
5.1999999999999895e+00 +8.5382528270929399e+00 +0.0000000000000000e+00 +5.1999999284105876e+00 -2.8753785207586552e-04 +0.0000000000000000e+00 +9.9999995866099134e-01
5.2499999999999893e+00 +8.5382383809277158e+00 +0.0000000000000000e+00 +5.2499999263236550e+00 -2.9030878405603676e-04 +0.0000000000000000e+00 +9.9999995786040441e-01
5.2999999999999892e+00 +8.5382237962118115e+00 +0.0000000000000000e+00 +5.2999999241964995e+00 -2.9307987943619467e-04 +0.0000000000000000e+00 +9.9999995705209155e-01
5.3499999999999890e+00 +8.5382090729370326e+00 +0.0000000000000000e+00 +5.3499999220287355e+00 -2.9585113919749058e-04 +0.0000000000000000e+00 +9.9999995623605109e-01
5.3999999999999888e+00 +8.5381942110951368e+00 +0.0000000000000000e+00 +5.3999999198199760e+00 -2.9862256430740095e-04 +0.0000000000000000e+00 +9.9999995541228137e-01
5.4499999999999886e+00 +8.5381792106778303e+00 +0.0000000000000000e+00 +5.4499999175698344e+00 -3.0139415571972755e-04 +0.0000000000000000e+00 +9.9999995458078073e-01
5.4999999999999885e+00 +8.5381640716767766e+00 +0.0000000000000000e+00 +5.4999999152779244e+00 -3.0416591437459732e-04 +0.0000000000000000e+00 +9.9999995374154749e-01
5.5499999999999883e+00 +8.5381487940835896e+00 +0.0000000000000000e+00 +5.5499999129438597e+00 -3.0693784119846231e-04 +0.0000000000000000e+00 +9.9999995289457999e-01
5.5999999999999881e+00 +8.5381333778898387e+00 +0.0000000000000000e+00 +5.5999999105672531e+00 -3.0970993710409980e-04 +0.0000000000000000e+00 +9.9999995203987657e-01
5.6499999999999879e+00 +8.5381178230870471e+00 +0.0000000000000000e+00 +5.6499999081477181e+00 -3.1248220299061211e-04 +0.0000000000000000e+00 +9.9999995117743545e-01
5.6999999999999877e+00 +8.5381021296666919e+00 +0.0000000000000000e+00 +5.6999999056848676e+00 -3.1525463974342658e-04 +0.0000000000000000e+00 +9.9999995030725508e-01
5.7499999999999876e+00 +8.5380862976202092e+00 +0.0000000000000000e+00 +5.7499999031783142e+00 -3.1802724823429561e-04 +0.0000000000000000e+00 +9.9999994942933368e-01
5.7999999999999874e+00 +8.5380703269389908e+00 +0.0000000000000000e+00 +5.7999999006276717e+00 -3.2080002932129658e-04 +0.0000000000000000e+00 +9.9999994854366958e-01
5.8499999999999872e+00 +8.5380542176143859e+00 +0.0000000000000000e+00 +5.8499998980325518e+00 -3.2357298384883177e-04 +0.0000000000000000e+00 +9.9999994765026101e-01
5.8999999999999870e+00 +8.5380379696377009e+00 +0.0000000000000000e+00 +5.8999998953925683e+00 -3.2634611264762846e-04 +0.0000000000000000e+00 +9.9999994674910631e-01
