# multipoles
# s[mm] polynom_b[n=0][T/m^n] polynom_b[n=1][T/m^n] polynom_b[n=2][T/m^n] polynom_b[n=3][T/m^n] polynom_b[n=4][T/m^n] polynom_b[n=5][T/m^n] polynom_b[n=6][T/m^n] 
+0.0000000000000000e+00 -5.7742760533543536e-01 +7.5620008916113974e+00 +6.4408324034271329e+00 -8.9245807400174812e+01 +2.4050714989611652e+03 +2.1259071006673685e+05 -1.1341291459139345e+07 
+5.0000000000000003e-02 -5.7741921651002803e-01 +7.5615250698831948e+00 +6.4435480581727989e+00 -8.8877651681004735e+01 +2.5662064523156951e+03 +2.0906443072649831e+05 -1.2278177824750343e+07 
+1.0000000000000001e-01 -5.7741123721644583e-01 +7.5610700340614363e+00 +6.4461881749408283e+00 -8.8476943973292123e+01 +2.7186998934820158e+03 +2.0537020444665197e+05 -1.3165826860683467e+07 
+1.4999999999999999e-01 -5.7740366738480819e-01 +7.5606358368582818e+00 +6.4487429586156706e+00 -8.8044915078616057e+01 +2.8627394325423311e+03 +2.0151567619875411e+05 -1.4005260879776699e+07 
+2.0000000000000001e-01 -5.7739650694527778e-01 +7.5602225309849596e+00 +6.4512026152826749e+00 -8.7582795737847832e+01 +2.9985126548954022e+03 +1.9750849049974923e+05 -1.4797502062795937e+07 
+2.5000000000000000e-01 -5.7738975582805352e-01 +7.5598301691516818e+00 +6.4535573502046510e+00 -8.7091816633173508e+01 +3.1262071576181561e+03 +1.9335629142767790e+05 -1.5543572624223109e+07 
+2.9999999999999999e-01 -5.7738341396333459e-01 +7.5594588040731221e+00 +6.4557973699361986e+00 -8.6573208568191816e+01 +3.2460105074946496e+03 +1.8906672397062473e+05 -1.6244494596882479e+07 
+3.4999999999999998e-01 -5.7737748128127209e-01 +7.5591084884592830e+00 +6.4579128793869494e+00 -8.6028202135239397e+01 +3.3581103115141977e+03 +1.8464743144978883e+05 -1.6901290270691980e+07 
+4.0000000000000002e-01 -5.7737195771217253e-01 +7.5587792750242464e+00 +6.4598940832455867e+00 -8.5458028074094301e+01 +3.4626941842936299e+03 +1.8010605840820295e+05 -1.7514981992033094e+07 
+4.5000000000000001e-01 -5.7736684318621012e-01 +7.5584712164810250e+00 +6.4617311886416084e+00 -8.4863917024619823e+01 +3.5599496721839600e+03 +1.7545024853448899e+05 -1.8086591638774920e+07 
+5.0000000000000000e-01 -5.7736213763368494e-01 +7.5581843655432870e+00 +6.4634143979437759e+00 -8.4247099648738882e+01 +3.6500644487422096e+03 +1.7068764576618405e+05 -1.8617141946432866e+07 
+5.5000000000000004e-01 -5.7735784098487630e-01 +7.5579187749271393e+00 +6.4649339210531354e+00 -8.3608806648954470e+01 +3.7332259821582616e+03 +1.6582589429947836e+05 -1.9107654254192617e+07 
+5.9999999999999998e-01 -5.7735395317012117e-01 +7.5576744973444328e+00 +6.4662799599009828e+00 -8.2950268541770996e+01 +3.8096219606580266e+03 +1.6087263686578558e+05 -1.9559151409519088e+07 
+6.5000000000000002e-01 -5.7735047411965490e-01 +7.5574515855119895e+00 +6.4674427202689957e+00 -8.2272716004266286e+01 +3.8794399594371607e+03 +1.5583551752540172e+05 -1.9972655461988632e+07 
+6.9999999999999996e-01 -5.7734740376387739e-01 +7.5572500921454262e+00 +6.4684124085718597e+00 -8.1577379618806418e+01 +3.9428675456781043e+03 +1.5072217946305327e+05 -2.0349188442177121e+07 
+7.5000000000000000e-01 -5.7734474203310637e-01 +7.5570700699586864e+00 +6.4691792288331902e+00 -8.0865489899688612e+01 +4.0000923431194815e+03 +1.4554026547060406e+05 -2.0689772734428290e+07 
+8.0000000000000004e-01 -5.7734248885771455e-01 +7.5569115716720301e+00 +6.4697333866232825e+00 -8.0138277551449633e+01 +4.0513019333668567e+03 +1.4029741975497844e+05 -2.0995430436877526e+07 
+8.4999999999999998e-01 -5.7734064416812725e-01 +7.5567746500007056e+00 +6.4700650881418484e+00 -7.9396973061279823e+01 +4.0966838877026885e+03 +1.3500128481655321e+05 -2.1267183606557406e+07 
+9.0000000000000002e-01 -5.7733920789474291e-01 +7.5566593576634480e+00 +6.4701645374268439e+00 -7.8642807026440209e+01 +4.1364258252821592e+03 +1.2965950406959126e+05 -2.1506054584356990e+07 
+9.4999999999999996e-01 -5.7733817996796633e-01 +7.5565657473792953e+00 +6.4700219399634635e+00 -7.7877009999946196e+01 +4.1707153381848384e+03 +1.2427972048267852e+05 -2.1713065574140381e+07 
+1.0000000000000000e+00 -5.7733756031825034e-01 +7.5564938718671621e+00 +6.4696275030389812e+00 -7.7100812515453342e+01 +4.1997399561418260e+03 +1.1886957693645521e+05 -2.1889238308615278e+07 
+1.0500000000000000e+00 -5.7733734887606891e-01 +7.5564437838464915e+00 +6.4689714280786887e+00 -7.6315445097528141e+01 +4.2236873793092100e+03 +1.1343671623591207e+05 -2.2035595717066128e+07 
+1.1000000000000001e+00 -5.7733754557186912e-01 +7.5564155360383776e+00 +6.4680439244002566e+00 -7.5522138289009106e+01 +4.2427450861382531e+03 +1.0798878129842908e+05 -2.2153159203918859e+07 
+1.1499999999999999e+00 -5.7733815033622782e-01 +7.5564091811648728e+00 +6.4668351959246690e+00 -7.4722122650885311e+01 +4.2571007045643619e+03 +1.0253341520259097e+05 -2.2242951194383025e+07 
+1.2000000000000000e+00 -5.7733916309961175e-01 +7.5564247719463280e+00 +6.4653354478801974e+00 -7.3916628633021645e+01 +4.2669418303321854e+03 +9.7078260122624619e+04 -2.2305993911201935e+07 
+1.2500000000000000e+00 -5.7734058379255182e-01 +7.5564623611087001e+00 +6.4635348848528338e+00 -7.3106886878266664e+01 +4.2724560682811507e+03 +9.1630959790578083e+04 -2.2343309609747961e+07 
+1.3000000000000000e+00 -5.7734241234564487e-01 +7.5565220013735548e+00 +6.4614237138497055e+00 -7.2294127827382667e+01 +4.2738309658487051e+03 +8.6199156310826962e+04 -2.2355920184731811e+07 
+1.3500000000000001e+00 -5.7734464868946866e-01 +7.5566037454660275e+00 +6.4589921404584816e+00 -7.1479582014201895e+01 +4.2712541081035497e+03 +8.0790492491165758e+04 -2.2344847787921496e+07 
+1.3999999999999999e+00 -5.7734729275456675e-01 +7.5567076461130744e+00 +6.4562303710478606e+00 -7.0664480023953033e+01 +4.2649130539069729e+03 +7.5412611610240740e+04 -2.2311114374528777e+07 
+1.4500000000000000e+00 -5.7735034447159861e-01 +7.5568337560376113e+00 +6.4531286092653337e+00 -6.9850052243949264e+01 +4.2549954396859348e+03 +7.0073155298284546e+04 -2.2255742438392144e+07 
+1.5000000000000000e+00 -5.7735380377122081e-01 +7.5569821279711977e+00 +6.4496770643181547e+00 -6.9037529367640033e+01 +4.2416887575154215e+03 +6.4779767661776350e+04 -2.2179753524257895e+07 
+1.5500000000000000e+00 -5.7735767058404019e-01 +7.5571528146385889e+00 +6.4458659387057029e+00 -6.8228141788383468e+01 +4.2251806732028290e+03 +5.9540090387173106e+04 -2.2084170320671007e+07 
+1.6000000000000001e+00 -5.7736194484075098e-01 +7.5573458687705086e+00 +6.4416854420461380e+00 -6.7423120097613534e+01 +4.2056586645947200e+03 +5.4361766743120250e+04 -2.1970014266570672e+07 
+1.6499999999999999e+00 -5.7736662647205739e-01 +7.5575613430959905e+00 +6.4371257772832911e+00 -6.6623694790793948e+01 +4.1833103904051377e+03 +4.9252439216655897e+04 -2.1838308023158260e+07 
+1.7000000000000000e+00 -5.7737171540865995e-01 +7.5577992903475382e+00 +6.4321771533584711e+00 -6.5831096456393567e+01 +4.1583233474226245e+03 +4.4219751024721561e+04 -2.1690073161819667e+07 
+1.7500000000000000e+00 -5.7737721158130373e-01 +7.5580597632561277e+00 +6.4268297737957036e+00 -6.5046555602994545e+01 +4.1308851817049463e+03 +3.9271344767202449e+04 -2.1526332273772672e+07 
+1.8000000000000000e+00 -5.7738311492073635e-01 +7.5583428145550329e+00 +6.4210738489794954e+00 -6.4271302779726824e+01 +4.1011833522550014e+03 +3.4414863315880299e+04 -2.1348106679435011e+07 
+1.8500000000000001e+00 -5.7738942535772153e-01 +7.5586484969781305e+00 +6.4148995838496106e+00 -6.3506568533651382e+01 +4.0694054679644337e+03 +2.9657949545866170e+04 -2.1156418725410994e+07 
+1.8999999999999999e+00 -5.7739614282306895e-01 +7.5589768632614254e+00 +6.4082971834991111e+00 -6.2753583463384402e+01 +4.0357391327960481e+03 +2.5008246737728561e+04 -2.0952290723103430e+07 
+1.9500000000000000e+00 -5.7740326724758073e-01 +7.5593279661410246e+00 +6.4012568572921111e+00 -6.2013578131210387e+01 +4.0003718419017982e+03 +2.0473397861195652e+04 -2.0736744273224629e+07 
+2.0000000000000000e+00 -5.7741079856211919e-01 +7.5597018583542237e+00 +6.3937688130624704e+00 -6.1287783108576271e+01 +3.9634911248466642e+03 +1.6061045931009041e+04 -2.0510801184250370e+07 
+2.0499999999999998e+00 -5.7741873646495767e-01 +7.5600985660188602e+00 +6.3858251342325412e+00 -6.0577303572001185e+01 +3.9252591235427371e+03 +1.1778222945144151e+04 -2.0275343068357088e+07 
+2.1000000000000001e+00 -5.7742707972101981e-01 +7.5605180061710149e+00 +6.3774259338511374e+00 -5.9882759245400138e+01 +3.8857323678305488e+03 +7.6295645921753385e+03 -2.0030669468188416e+07 
+2.1499999999999999e+00 -5.7743582686116746e-01 +7.5609600660260057e+00 +6.3685735666921612e+00 -5.9204655914323986e+01 +3.8449402781694780e+03 +3.6191210935898212e+03 -1.9776930921517201e+07 
+2.2000000000000002e+00 -5.7744497641634651e-01 +7.5614246327967480e+00 +6.3592703894799429e+00 -5.8543499241202454e+01 +3.8029122308105952e+03 -2.4905838400652485e+02 -1.9514277702120692e+07 
+2.2500000000000000e+00 -5.7745452691743138e-01 +7.5619115937010637e+00 +6.3495187588273341e+00 -5.7899795053169598e+01 +3.7596775933174004e+03 -3.9709233493089928e+03 -1.9242859977232371e+07 
+2.2999999999999998e+00 -5.7746447689532987e-01 +7.5624208359544296e+00 +6.3393210289685635e+00 -5.7274049064157431e+01 +3.7152658106452100e+03 -7.5424242087373386e+03 -1.8962828494776048e+07 
+2.3500000000000001e+00 -5.7747482488095614e-01 +7.5629522467741079e+00 +6.3286795579585755e+00 -5.6666767033582964e+01 +3.6697062155277226e+03 -1.0959511008710244e+04 -1.8674333205785498e+07 
+2.3999999999999999e+00 -5.7748556940528850e-01 +7.5635057133767791e+00 +6.3175967026575170e+00 -5.6078454666427049e+01 +3.6230281786774285e+03 -1.4218134287576508e+04 -1.8377524347204775e+07 
+2.4500000000000002e+00 -5.7749670899925576e-01 +7.5640811229843621e+00 +6.3060748182794617e+00 -5.5509617860526021e+01 +3.5752611139412497e+03 -1.7314242972881992e+04 -1.8072552442016110e+07 
+2.5000000000000000e+00 -5.7750824219390129e-01 +7.5646783628128205e+00 +6.2941162631417340e+00 -5.4960762251113763e+01 +3.5264343525707568e+03 -2.0243788153090281e+04 -1.7759567461538501e+07 
+2.5499999999999998e+00 -5.7752016752013002e-01 +7.5652973200808749e+00 +6.2817233926801990e+00 -5.4432393553247870e+01 +3.4765773062772737e+03 -2.3002720273952731e+04 -1.7438719935337316e+07 
+2.6000000000000001e+00 -5.7753248350904252e-01 +7.5659378820123386e+00 +6.2688985655042186e+00 -5.3925017671941141e+01 +3.4257192983269333e+03 -2.5586988248606267e+04 -1.7110159784960102e+07 
+2.6499999999999999e+00 -5.7754518869162619e-01 +7.5665999358248488e+00 +6.2556441371152331e+00 -5.3439140234404761e+01 +3.3738897379713562e+03 -2.7992543255653549e+04 -1.6774037524978342e+07 
+2.7000000000000002e+00 -5.7755828159892864e-01 +7.5672833687432046e+00 +6.2419624658898698e+00 -5.2975267136576889e+01 +3.3211179603346504e+03 -3.0215334289673076e+04 -1.6430503182107534e+07 
+2.7500000000000000e+00 -5.7757176076200056e-01 +7.5679880679878417e+00 +6.2278559089421517e+00 -5.2533904080401584e+01 +3.2674333300658018e+03 -3.2251311910911041e+04 -1.6079706969645170e+07 
+2.7999999999999998e+00 -5.7758562471189245e-01 +7.5687139207812919e+00 +6.2133268254459582e+00 -5.2115556822489168e+01 +3.2128651624488307e+03 -3.4096426282887667e+04 -1.5721798794517132e+07 
+2.8500000000000001e+00 -5.7759987197970142e-01 +7.5694608143461179e+00 +6.1983775706679500e+00 -5.1720731106265696e+01 +3.1574428760868282e+03 -3.5746627654648619e+04 -1.5356929254028929e+07 
+2.8999999999999999e+00 -5.7761450109653711e-01 +7.5702286359097215e+00 +6.1830105050947894e+00 -5.1349932847946548e+01 +3.1011957477885344e+03 -3.7197864886062853e+04 -1.4985247988216808e+07 
+2.9500000000000002e+00 -5.7762951059351109e-01 +7.5710172726943252e+00 +6.1672279866650443e+00 -5.1003667738435347e+01 +3.0441531274166568e+03 -3.8446088657700449e+04 -1.4606905147506271e+07 
+3.0000000000000000e+00 -5.7764489900174854e-01 +7.5718266119248945e+00 +6.1510323737634733e+00 -5.0682441545565446e+01 +2.9863443518962354e+03 -3.9487249088088422e+04 -1.4222050797189575e+07 
+3.0499999999999998e+00 -5.7766066485235812e-01 +7.5726565408284587e+00 +6.1344260241744504e+00 -5.0386760115831223e+01 +2.9277987760705996e+03 -4.0317295597973221e+04 -1.3830835128891677e+07 
+3.1000000000000001e+00 -5.7767680667652832e-01 +7.5735069466310350e+00 +6.1174112982662479e+00 -5.0117129231167553e+01 +2.8685456857756540e+03 -4.0932178173592532e+04 -1.3433407878931621e+07 
+3.1499999999999999e+00 -5.7769332300541654e-01 +7.5743777165566879e+00 +6.0999905532050631e+00 -4.9874054574524038e+01 +2.8086144531720115e+03 -4.1327847613797356e+04 -1.3029919363696726e+07 
+3.2000000000000002e+00 -5.7771021237020981e-01 +7.5752687378368009e+00 +6.0821661494973664e+00 -4.9658042105674369e+01 +2.7480343610541681e+03 -4.1500252473902154e+04 -1.2620519305042002e+07 
+3.2500000000000000e+00 -5.7772747330207197e-01 +7.5761798976985562e+00 +6.0639404460077806e+00 -4.9469597596498794e+01 +2.6868347404132783e+03 -4.1445342841847480e+04 -1.2205357767345043e+07 
+3.2999999999999998e+00 -5.7774510433224313e-01 +7.5771110833684041e+00 +6.0453158036870169e+00 -4.9309226788459199e+01 +2.6250448613143944e+03 -4.1159069006392063e+04 -1.1784584387740733e+07 
+3.3500000000000001e+00 -5.7776310399196640e-01 +7.5780621820785381e+00 +6.0262945813967637e+00 -4.9177435609202981e+01 +2.5626940579358879e+03 -4.0637379868501819e+04 -1.1358349271588277e+07 
+3.3999999999999999e+00 -5.7778147081241904e-01 +7.5790330810560951e+00 +6.0068791392314145e+00 -4.9074729781121206e+01 +2.4998116273867395e+03 -3.9876225924083934e+04 -1.0926802258422712e+07 
+3.4500000000000002e+00 -5.7780020332484150e-01 +7.5800236675300523e+00 +5.9870718367369351e+00 -4.9001615091249000e+01 +2.4364268839265169e+03 -3.8871557138319986e+04 -1.0490093319530491e+07 
+3.5000000000000000e+00 -5.7781930006053606e-01 +7.5810338287361798e+00 +5.9668750375385464e+00 -4.8958597569264697e+01 +2.3725690314239455e+03 -3.7619321580969125e+04 -1.0048371679139018e+07 
+3.5499999999999998e+00 -5.7783875955075203e-01 +7.5820634519000123e+00 +5.9462910987010060e+00 -4.8946182832529203e+01 +2.3082674545421769e+03 -3.6115470616776176e+04 -9.6017878036362138e+06 
+3.6000000000000001e+00 -5.7785858032677662e-01 +7.5831124242553631e+00 +5.9253223819738992e+00 -4.8964876805646647e+01 +2.2435514117463244e+03 -3.4355953166124928e+04 -9.1504913077688627e+06 
+3.6499999999999999e+00 -5.7787876091991974e-01 +7.5841806330366373e+00 +5.9039712515390530e+00 -4.9015185432329609e+01 +2.1784500942979971e+03 -3.2336717957983150e+04 -8.6946313512671329e+06 
+3.6999999999999900e+00 -5.7789929986143629e-01 +7.5852679654727702e+00 +5.8822400647692872e+00 -4.9097614412937794e+01 +2.1129928797327907e+03 -3.0053715748761275e+04 -8.2343583643483184e+06 
+3.7499999999999898e+00 -5.7792019568271802e-01 +7.5863743087995079e+00 +5.8601311862426702e+00 -4.9212669715539313e+01 +2.0472089581162440e+03 -2.7502895115381878e+04 -7.7698215422118055e+06 
+3.7999999999999901e+00 -5.7794144691503113e-01 +7.5874995502490945e+00 +5.8376469771605404e+00 -4.9360857146587598e+01 +1.9811275994429971e+03 -2.4680205959085961e+04 -7.3011705797214676e+06 
+3.8499999999999899e+00 -5.7796305208977061e-01 +7.5886435770555565e+00 +5.8147897990240525e+00 -4.9542682585228235e+01 +1.9147780787375152e+03 -2.1581597571016857e+04 -6.8285552579809483e+06 
+3.8999999999999901e+00 -5.7798500973820488e-01 +7.5898062764547829e+00 +5.7915620145182825e+00 -4.9758651956183755e+01 +1.8481896316350039e+03 -1.8203018920399132e+04 -6.3521250691173747e+06 
+3.9499999999999900e+00 -5.7800731839179009e-01 +7.5909875356803598e+00 +5.7679659878556393e+00 -5.0009271094238798e+01 +1.7813914596199868e+03 -1.4540419696876992e+04 -5.8720293039227100e+06 
+3.9999999999999898e+00 -5.7802997658183619e-01 +7.5921872419683591e+00 +5.7440040806651638e+00 -5.0295045901815065e+01 +1.7144128331964494e+03 -1.0589749019256533e+04 -5.3884177142199930e+06 
+4.0499999999999901e+00 -5.7805298262258131e-01 +7.5934052653091459e+00 +5.7196787255785395e+00 -5.0616109267797292e+01 +1.6472927580356281e+03 -6.3498169860806202e+03 -4.9015256088029817e+06 
+4.0999999999999899e+00 -5.7807633395835845e-01 +7.5946413955244454e+00 +5.6949934227783308e+00 -5.0971140980189737e+01 +1.5800956056045802e+03 -1.8306640507110403e+03 -4.4118219225507928e+06 
+4.1499999999999897e+00 -5.7810002781587866e-01 +7.5958953995699678e+00 +5.6699521719471173e+00 -5.1358467701391383e+01 +1.5128888226474062e+03 +2.9549033679496752e+03 -3.9198074954246702e+06 
+4.1999999999999904e+00 -5.7812406142178940e-01 +7.5971670443908419e+00 +5.6445589705757806e+00 -5.1776415651848787e+01 +1.4457399130839406e+03 +7.9940750323565417e+03 -3.4259835267907842e+06 
+4.2499999999999902e+00 -5.7814843200283605e-01 +7.5984560969423001e+00 +5.6188178176059420e+00 -5.2223311494183832e+01 +1.3787163449395518e+03 +1.3274044431721666e+04 -2.9308509863025309e+06 
+4.2999999999999901e+00 -5.7817313678565685e-01 +7.5997623241726338e+00 +5.5927327117084475e+00 -5.2697481580138835e+01 +1.3118855887788338e+03 +1.8782002411446952e+04 -2.4349108367864508e+06 
+4.3499999999999899e+00 -5.7819817299697185e-01 +7.6010854930336800e+00 +5.5663076510898648e+00 -5.3197252434939315e+01 +1.2453151247674709e+03 +2.4505141344756008e+04 -1.9386640960019345e+06 
+4.3999999999999897e+00 -5.7822353786347258e-01 +7.6024253704771256e+00 +5.5395466324433906e+00 -5.3720950561742960e+01 +1.1790724766776486e+03 +3.0430653359266616e+04 -1.4426120831900930e+06 
+4.4499999999999904e+00 -5.7824922861183436e-01 +7.6037817234547198e+00 +5.5124536544795593e+00 -5.4266902480751469e+01 +1.1132251045689436e+03 +3.6545730775691016e+04 -9.4725564860878547e+05 
+4.4999999999999902e+00 -5.7827524246878137e-01 +7.6051543189155009e+00 +5.4850327132569046e+00 -5.4833434605124722e+01 +1.0478405488135718e+03 +4.2837565026064156e+04 -4.5309621697040281e+05 
+4.5499999999999901e+00 -5.7830157666101245e-01 +7.6065429238123325e+00 +5.4572878055784768e+00 -5.5418873515573125e+01 +9.8298631683119618e+02 +4.9293348967659273e+04 +3.9365061390019320e+04 
+4.5999999999999899e+00 -5.7832822841527221e-01 +7.6079473050954904e+00 +5.4292229301543715e+00 -5.6021545686840454e+01 +9.1872987156542888e+02 +5.5900274550434311e+04 +5.2962731322058069e+05 
+4.6499999999999897e+00 -5.7835519495816679e-01 +7.6093672297163346e+00 +5.4008420808700590e+00 -5.6639777648071863e+01 +8.5513879701176756e+02 +6.2645534230344048e+04 +1.0171888849239436e+06 
+4.6999999999999904e+00 -5.7838247351648930e-01 +7.6108024646268326e+00 +5.3721492542064953e+00 -5.7271895959805875e+01 +7.9228061229264767e+02 +6.9516320686915031e+04 +1.5015485465943543e+06 
+4.7499999999999902e+00 -5.7841006131689143e-01 +7.6122527767768418e+00 +5.3431484465504386e+00 -5.7916227105717397e+01 +7.3022282851159571e+02 +7.6499826010312143e+04 +1.9822051615526488e+06 
+4.7999999999999901e+00 -5.7843795558612854e-01 +7.6137179331165221e+00 +5.3138436522046160e+00 -5.8571097599722393e+01 +6.6903301746041586e+02 +8.3583242564360000e+04 +2.4586571721346164e+06 
+4.8499999999999899e+00 -5.7846615355082009e-01 +7.6151977005995137e+00 +5.2842388652762207e+00 -5.9234834098140766e+01 +6.0877875266172612e+02 +9.0753763888003727e+04 +2.9304030275127795e+06 
+4.8999999999999897e+00 -5.7849465243775555e-01 +7.6166918461740725e+00 +5.2543380812977656e+00 -5.9905763058299847e+01 +5.4952756081401606e+02 +9.7998581891241338e+04 +3.3969415271410705e+06 
+4.9499999999999904e+00 -5.7852344947360579e-01 +7.6182001367919181e+00 +5.2241452933087809e+00 -6.0582211078921340e+01 +4.9134704335117743e+02 +1.0530488965050758e+05 +3.8577709382670675e+06 
+4.9999999999999902e+00 -5.7855254188504879e-01 +7.6197223394033964e+00 +5.1936644959282550e+00 -6.1262504726272695e+01 +4.3430474990384170e+02 +1.1265988003151142e+05 +4.3123899196087448e+06 
+5.0499999999999901e+00 -5.7858192690123988e-01 +7.6212582134047704e+00 +5.1629000750914402e+00 -6.1944979377691247e+01 +3.7846817212563070e+02 +1.2005075064481812e+05 +4.7602982175448220e+06 
