# trajectory
# s[mm] rx[mm] ry[mm] rz[mm] px[rad] py[rad] pz[rad]
0.0000000000000000e+00 +8.5389999999999997e+00 +0.0000000000000000e+00 +0.0000000000000000e+00 +0.0000000000000000e+00 +0.0000000000000000e+00 +1.0000000000000000e+00
5.0000000000000003e-02 +8.5389999309834632e+00 +0.0000000000000000e+00 +4.9999999999936498e-02 -2.7606614604295203e-06 +0.0000000000000000e+00 +9.9999999999618938e-01
1.0000000000000001e-01 +8.5389997239338342e+00 +0.0000000000000000e+00 +9.9999999999491912e-02 -5.5213240040977182e-06 +0.0000000000000000e+00 +9.9999999998475753e-01
1.5000000000000002e-01 +8.5389993788510115e+00 +0.0000000000000000e+00 +1.4999999999828523e-01 -8.2819895279346529e-06 +0.0000000000000000e+00 +9.9999999996570432e-01
2.0000000000000001e-01 +8.5389988957347995e+00 +0.0000000000000000e+00 +1.9999999999593535e-01 -1.1042659925015203e-05 +0.0000000000000000e+00 +9.9999999993902988e-01
2.5000000000000000e-01 +8.5389982745849071e+00 +0.0000000000000000e+00 +2.4999999999206118e-01 -1.3803337084559150e-05 +0.0000000000000000e+00 +9.9999999990473398e-01
2.9999999999999999e-01 +8.5389975154009470e+00 +0.0000000000000000e+00 +2.9999999998628168e-01 -1.6564022891931266e-05 +0.0000000000000000e+00 +9.9999999986281662e-01
3.4999999999999998e-01 +8.5389966181824413e+00 +0.0000000000000000e+00 +3.4999999997821579e-01 -1.9324719228641406e-05 +0.0000000000000000e+00 +9.9999999981327770e-01
3.9999999999999997e-01 +8.5389955829288162e+00 +0.0000000000000000e+00 +3.9999999996748242e-01 -2.2085427972344588e-05 +0.0000000000000000e+00 +9.9999999975611698e-01
4.4999999999999996e-01 +8.5389944096394057e+00 +0.0000000000000000e+00 +4.4999999995370049e-01 -2.4846150996841081e-05 +0.0000000000000000e+00 +9.9999999969133446e-01
4.9999999999999994e-01 +8.5389930983134477e+00 +0.0000000000000000e+00 +4.9999999993648886e-01 -2.7606890172076486e-05 +0.0000000000000000e+00 +9.9999999961892982e-01
5.4999999999999993e-01 +8.5389916489500877e+00 +0.0000000000000000e+00 +5.4999999991546644e-01 -3.0367647364141825e-05 +0.0000000000000000e+00 +9.9999999953890306e-01
5.9999999999999998e-01 +8.5389900615483789e+00 +0.0000000000000000e+00 +5.9999999989025210e-01 -3.3128424435273621e-05 +0.0000000000000000e+00 +9.9999999945125384e-01
6.5000000000000002e-01 +8.5389883361072823e+00 +0.0000000000000000e+00 +6.4999999986046475e-01 -3.5889223243853987e-05 +0.0000000000000000e+00 +9.9999999935598194e-01
7.0000000000000007e-01 +8.5389864726256626e+00 +0.0000000000000000e+00 +6.9999999982572325e-01 -3.8650045644410693e-05 +0.0000000000000000e+00 +9.9999999925308714e-01
7.5000000000000011e-01 +8.5389844711022942e+00 +0.0000000000000000e+00 +7.4999999978564647e-01 -4.1410893487617272e-05 +0.0000000000000000e+00 +9.9999999914256910e-01
8.0000000000000016e-01 +8.5389823315358591e+00 +0.0000000000000000e+00 +7.9999999973985314e-01 -4.4171768620293071e-05 +0.0000000000000000e+00 +9.9999999902442760e-01
8.5000000000000020e-01 +8.5389800539249467e+00 +0.0000000000000000e+00 +8.4999999968796214e-01 -4.6932672885403366e-05 +0.0000000000000000e+00 +9.9999999889866231e-01
9.0000000000000024e-01 +8.5389776382680544e+00 +0.0000000000000000e+00 +8.9999999962959232e-01 -4.9693608122059409e-05 +0.0000000000000000e+00 +9.9999999876527290e-01
9.5000000000000029e-01 +8.5389750845635870e+00 +0.0000000000000000e+00 +9.4999999956436243e-01 -5.2454576165518531e-05 +0.0000000000000000e+00 +9.9999999862425892e-01
1.0000000000000002e+00 +8.5389723928098604e+00 +0.0000000000000000e+00 +9.9999999949189122e-01 -5.5215578847184200e-05 +0.0000000000000000e+00 +9.9999999847562016e-01
1.0500000000000003e+00 +8.5389695630050948e+00 +0.0000000000000000e+00 +1.0499999994117974e+00 -5.7976617994606127e-05 +0.0000000000000000e+00 +9.9999999831935615e-01
1.1000000000000003e+00 +8.5389665951474232e+00 +0.0000000000000000e+00 +1.0999999993236997e+00 -6.0737695431480310e-05 +0.0000000000000000e+00 +9.9999999815546647e-01
1.1500000000000004e+00 +8.5389634892348845e+00 +0.0000000000000000e+00 +1.1499999992272170e+00 -6.3498812977649143e-05 +0.0000000000000000e+00 +9.9999999798395067e-01
1.2000000000000004e+00 +8.5389602452654270e+00 +0.0000000000000000e+00 +1.1999999991219676e+00 -6.6259972449101472e-05 +0.0000000000000000e+00 +9.9999999780480830e-01
1.2500000000000004e+00 +8.5389568632369102e+00 +0.0000000000000000e+00 +1.2499999990075705e+00 -6.9021175657972667e-05 +0.0000000000000000e+00 +9.9999999761803893e-01
1.3000000000000005e+00 +8.5389533431471012e+00 +0.0000000000000000e+00 +1.2999999988836444e+00 -7.1782424412544712e-05 +0.0000000000000000e+00 +9.9999999742364210e-01
1.3500000000000005e+00 +8.5389496849936783e+00 +0.0000000000000000e+00 +1.3499999987498077e+00 -7.4543720517246270e-05 +0.0000000000000000e+00 +9.9999999722161714e-01
1.4000000000000006e+00 +8.5389458887742293e+00 +0.0000000000000000e+00 +1.3999999986056790e+00 -7.7305065772652779e-05 +0.0000000000000000e+00 +9.9999999701196363e-01
1.4500000000000006e+00 +8.5389419544862513e+00 +0.0000000000000000e+00 +1.4499999984508769e+00 -8.0066461975486486e-05 +0.0000000000000000e+00 +9.9999999679468110e-01
1.5000000000000007e+00 +8.5389378821271524e+00 +0.0000000000000000e+00 +1.4999999982850198e+00 -8.2827910918616536e-05 +0.0000000000000000e+00 +9.9999999656976890e-01
1.5500000000000007e+00 +8.5389336716942505e+00 +0.0000000000000000e+00 +1.5499999981077266e+00 -8.5589414391059061e-05 +0.0000000000000000e+00 +9.9999999633722636e-01
1.6000000000000008e+00 +8.5389293231847745e+00 +0.0000000000000000e+00 +1.5999999979186155e+00 -8.8350974177977252e-05 +0.0000000000000000e+00 +9.9999999609705292e-01
1.6500000000000008e+00 +8.5389248365958643e+00 +0.0000000000000000e+00 +1.6499999977173048e+00 -9.1112592060681383e-05 +0.0000000000000000e+00 +9.9999999584924804e-01
1.7000000000000008e+00 +8.5389202119245713e+00 +0.0000000000000000e+00 +1.6999999975034130e+00 -9.3874269816628935e-05 +0.0000000000000000e+00 +9.9999999559381103e-01
1.7500000000000009e+00 +8.5389154491678561e+00 +0.0000000000000000e+00 +1.7499999972765585e+00 -9.6636009219424636e-05 +0.0000000000000000e+00 +9.9999999533074113e-01
1.8000000000000009e+00 +8.5389105483225922e+00 +0.0000000000000000e+00 +1.7999999970363598e+00 -9.9397812038820555e-05 +0.0000000000000000e+00 +9.9999999506003778e-01
1.8500000000000010e+00 +8.5389055093855664e+00 +0.0000000000000000e+00 +1.8499999967824350e+00 -1.0215968004071613e-04 +0.0000000000000000e+00 +9.9999999478170021e-01
1.9000000000000010e+00 +8.5389003323534727e+00 +0.0000000000000000e+00 +1.8999999965144025e+00 -1.0492161498715829e-04 +0.0000000000000000e+00 +9.9999999449572763e-01
1.9500000000000011e+00 +8.5388950172229219e+00 +0.0000000000000000e+00 +1.9499999962318806e+00 -1.0768361863634147e-04 +0.0000000000000000e+00 +9.9999999420211938e-01
2.0000000000000009e+00 +8.5388895639904341e+00 +0.0000000000000000e+00 +1.9999999959344872e+00 -1.1044569274260772e-04 +0.0000000000000000e+00 +9.9999999390087468e-01
2.0500000000000007e+00 +8.5388839726524441e+00 +0.0000000000000000e+00 +2.0499999956218407e+00 -1.1320783905612169e-04 +0.0000000000000000e+00 +9.9999999359199276e-01
2.1000000000000005e+00 +8.5388782432052963e+00 +0.0000000000000000e+00 +2.0999999952935591e+00 -1.1597005931929529e-04 +0.0000000000000000e+00 +9.9999999327547284e-01
2.1500000000000004e+00 +8.5388723756452514e+00 +0.0000000000000000e+00 +2.1499999949492605e+00 -1.1873235526321230e-04 +0.0000000000000000e+00 +9.9999999295131403e-01
2.2000000000000002e+00 +8.5388663699684813e+00 +0.0000000000000000e+00 +2.1999999945885631e+00 -1.2149472860730340e-04 +0.0000000000000000e+00 +9.9999999261951555e-01
2.2500000000000000e+00 +8.5388602261710727e+00 +0.0000000000000000e+00 +2.2499999942110849e+00 -1.2425718105934621e-04 +0.0000000000000000e+00 +9.9999999228007652e-01
2.2999999999999998e+00 +8.5388539442490288e+00 +0.0000000000000000e+00 +2.2999999938164435e+00 -1.2701971431546536e-04 +0.0000000000000000e+00 +9.9999999193299616e-01
2.3499999999999996e+00 +8.5388475241982658e+00 +0.0000000000000000e+00 +2.3499999934042570e+00 -1.2978233006013257e-04 +0.0000000000000000e+00 +9.9999999157827346e-01
2.3999999999999995e+00 +8.5388409660146198e+00 +0.0000000000000000e+00 +2.3999999929741436e+00 -1.3254502996616665e-04 +0.0000000000000000e+00 +9.9999999121590755e-01
2.4499999999999993e+00 +8.5388342696938402e+00 +0.0000000000000000e+00 +2.4499999925257208e+00 -1.3530781569473356e-04 +0.0000000000000000e+00 +9.9999999084589752e-01
2.4999999999999991e+00 +8.5388274352315925e+00 +0.0000000000000000e+00 +2.4999999920586062e+00 -1.3807068889534654e-04 +0.0000000000000000e+00 +9.9999999046824239e-01
2.5499999999999989e+00 +8.5388204626234643e+00 +0.0000000000000000e+00 +2.5499999915724176e+00 -1.4083365120586610e-04 +0.0000000000000000e+00 +9.9999999008294127e-01
2.5999999999999988e+00 +8.5388133518649596e+00 +0.0000000000000000e+00 +2.5999999910667730e+00 -1.4359670425250008e-04 +0.0000000000000000e+00 +9.9999998968999315e-01
2.6499999999999986e+00 +8.5388061029515008e+00 +0.0000000000000000e+00 +2.6499999905412897e+00 -1.4635984964980368e-04 +0.0000000000000000e+00 +9.9999998928939704e-01
2.6999999999999984e+00 +8.5387987158784284e+00 +0.0000000000000000e+00 +2.6999999899955851e+00 -1.4912308900067955e-04 +0.0000000000000000e+00 +9.9999998888115205e-01
2.7499999999999982e+00 +8.5387911906410068e+00 +0.0000000000000000e+00 +2.7499999894292770e+00 -1.5188642389637780e-04 +0.0000000000000000e+00 +9.9999998846525695e-01
2.7999999999999980e+00 +8.5387835272344201e+00 +0.0000000000000000e+00 +2.7999999888419831e+00 -1.5464985591649613e-04 +0.0000000000000000e+00 +9.9999998804171086e-01
2.8499999999999979e+00 +8.5387757256537711e+00 +0.0000000000000000e+00 +2.8499999882333205e+00 -1.5741338662897977e-04 +0.0000000000000000e+00 +9.9999998761051268e-01
2.8999999999999977e+00 +8.5387677858940858e+00 +0.0000000000000000e+00 +2.8999999876029068e+00 -1.6017701759012159e-04 +0.0000000000000000e+00 +9.9999998717166139e-01
2.9499999999999975e+00 +8.5387597079503141e+00 +0.0000000000000000e+00 +2.9499999869503593e+00 -1.6294075034456213e-04 +0.0000000000000000e+00 +9.9999998672515578e-01
2.9999999999999973e+00 +8.5387514918173277e+00 +0.0000000000000000e+00 +2.9999999862752951e+00 -1.6570458642528962e-04 +0.0000000000000000e+00 +9.9999998627099485e-01
3.0499999999999972e+00 +8.5387431374899236e+00 +0.0000000000000000e+00 +3.0499999855773314e+00 -1.6846852735364010e-04 +0.0000000000000000e+00 +9.9999998580917748e-01
3.0999999999999970e+00 +8.5387346449628208e+00 +0.0000000000000000e+00 +3.0999999848560855e+00 -1.7123257463929736e-04 +0.0000000000000000e+00 +9.9999998533970247e-01
3.1499999999999968e+00 +8.5387260142306634e+00 +0.0000000000000000e+00 +3.1499999841111741e+00 -1.7399672978029307e-04 +0.0000000000000000e+00 +9.9999998486256880e-01
3.1999999999999966e+00 +8.5387172452880211e+00 +0.0000000000000000e+00 +3.1999999833422148e+00 -1.7676099426300679e-04 +0.0000000000000000e+00 +9.9999998437777526e-01
3.2499999999999964e+00 +8.5387083381293909e+00 +0.0000000000000000e+00 +3.2499999825488239e+00 -1.7952536956216596e-04 +0.0000000000000000e+00 +9.9999998388532063e-01
3.2999999999999963e+00 +8.5386992927491949e+00 +0.0000000000000000e+00 +3.2999999817306191e+00 -1.8228985714084601e-04 +0.0000000000000000e+00 +9.9999998338520379e-01
3.3499999999999961e+00 +8.5386901091417826e+00 +0.0000000000000000e+00 +3.3499999808872167e+00 -1.8505445845047041e-04 +0.0000000000000000e+00 +9.9999998287742353e-01
3.3999999999999959e+00 +8.5386807873014305e+00 +0.0000000000000000e+00 +3.3999999800182339e+00 -1.8781917493081060e-04 +0.0000000000000000e+00 +9.9999998236197862e-01
3.4499999999999957e+00 +8.5386713272223460e+00 +0.0000000000000000e+00 +3.4499999791232869e+00 -1.9058400800998614e-04 +0.0000000000000000e+00 +9.9999998183886785e-01
3.4999999999999956e+00 +8.5386617288986635e+00 +0.0000000000000000e+00 +3.4999999782019930e+00 -1.9334895910446469e-04 +0.0000000000000000e+00 +9.9999998130808987e-01
3.5499999999999954e+00 +8.5386519923244464e+00 +0.0000000000000000e+00 +3.5499999772539685e+00 -1.9611402961906206e-04 +0.0000000000000000e+00 +9.9999998076964358e-01
3.5999999999999952e+00 +8.5386421174936888e+00 +0.0000000000000000e+00 +3.5999999762788297e+00 -1.9887922094694222e-04 +0.0000000000000000e+00 +9.9999998022352765e-01
3.6499999999999950e+00 +8.5386321044003157e+00 +0.0000000000000000e+00 +3.6499999752761934e+00 -2.0164453446961742e-04 +0.0000000000000000e+00 +9.9999997966974075e-01
3.6999999999999948e+00 +8.5386219530381826e+00 +0.0000000000000000e+00 +3.6999999742456757e+00 -2.0440997155694805e-04 +0.0000000000000000e+00 +9.9999997910828164e-01
3.7499999999999947e+00 +8.5386116634010776e+00 +0.0000000000000000e+00 +3.7499999731868936e+00 -2.0717553356714287e-04 +0.0000000000000000e+00 +9.9999997853914901e-01
3.7999999999999945e+00 +8.5386012354827212e+00 +0.0000000000000000e+00 +3.7999999720994628e+00 -2.0994122184675890e-04 +0.0000000000000000e+00 +9.9999997796234152e-01
3.8499999999999943e+00 +8.5385906692767666e+00 +0.0000000000000000e+00 +3.8499999709829997e+00 -2.1270703773070151e-04 +0.0000000000000000e+00 +9.9999997737785784e-01
3.8999999999999941e+00 +8.5385799647767993e+00 +0.0000000000000000e+00 +3.8999999698371206e+00 -2.1547298254222442e-04 +0.0000000000000000e+00 +9.9999997678569663e-01
3.9499999999999940e+00 +8.5385691219763409e+00 +0.0000000000000000e+00 +3.9499999686614413e+00 -2.1823905759292976e-04 +0.0000000000000000e+00 +9.9999997618585657e-01
3.9999999999999938e+00 +8.5385581408688473e+00 +0.0000000000000000e+00 +3.9999999674555782e+00 -2.2100526418276806e-04 +0.0000000000000000e+00 +9.9999997557833631e-01
4.0499999999999936e+00 +8.5385470214477088e+00 +0.0000000000000000e+00 +4.0499999662191470e+00 -2.2377160360001483e-04 +0.0000000000000000e+00 +9.9999997496313442e-01
4.0999999999999934e+00 +8.5385357637062516e+00 +0.0000000000000000e+00 +4.0999999649517633e+00 -2.2653807712101225e-04 +0.0000000000000000e+00 +9.9999997434024945e-01
4.1499999999999932e+00 +8.5385243676377396e+00 +0.0000000000000000e+00 +4.1499999636530438e+00 -2.2930468600991080e-04 +0.0000000000000000e+00 +9.9999997370968008e-01
4.1999999999999931e+00 +8.5385128332353730e+00 +0.0000000000000000e+00 +4.1999999623226039e+00 -2.3207143151864586e-04 +0.0000000000000000e+00 +9.9999997307142496e-01
4.2499999999999929e+00 +8.5385011604922898e+00 +0.0000000000000000e+00 +4.2499999609600589e+00 -2.3483831488693770e-04 +0.0000000000000000e+00 +9.9999997242548255e-01
4.2999999999999927e+00 +8.5384893494015657e+00 +0.0000000000000000e+00 +4.2999999595650245e+00 -2.3760533734229144e-04 +0.0000000000000000e+00 +9.9999997177185140e-01
4.3499999999999925e+00 +8.5384773999562160e+00 +0.0000000000000000e+00 +4.3499999581371158e+00 -2.4037250009999718e-04 +0.0000000000000000e+00 +9.9999997111053018e-01
4.3999999999999924e+00 +8.5384653121491958e+00 +0.0000000000000000e+00 +4.3999999566759493e+00 -2.4313980436312986e-04 +0.0000000000000000e+00 +9.9999997044151734e-01
4.4499999999999922e+00 +8.5384530859734014e+00 +0.0000000000000000e+00 +4.4499999551811396e+00 -2.4590725132254932e-04 +0.0000000000000000e+00 +9.9999996976481142e-01
4.4999999999999920e+00 +8.5384407214216669e+00 +0.0000000000000000e+00 +4.4999999536523019e+00 -2.4867484215690037e-04 +0.0000000000000000e+00 +9.9999996908041100e-01
4.5499999999999918e+00 +8.5384282184867697e+00 +0.0000000000000000e+00 +4.5499999520890517e+00 -2.5144257803261266e-04 +0.0000000000000000e+00 +9.9999996838831451e-01
4.5999999999999917e+00 +8.5384155771614285e+00 +0.0000000000000000e+00 +4.5999999504910045e+00 -2.5421046010390077e-04 +0.0000000000000000e+00 +9.9999996768852051e-01
4.6499999999999915e+00 +8.5384027974383052e+00 +0.0000000000000000e+00 +4.6499999488577757e+00 -2.5697848951276425e-04 +0.0000000000000000e+00 +9.9999996698102744e-01
4.6999999999999913e+00 +8.5383898793100030e+00 +0.0000000000000000e+00 +4.6999999471889797e+00 -2.5974666738898749e-04 +0.0000000000000000e+00 +9.9999996626583387e-01
4.7499999999999911e+00 +8.5383768227690719e+00 +0.0000000000000000e+00 +4.7499999454842312e+00 -2.6251499485013981e-04 +0.0000000000000000e+00 +9.9999996554293824e-01
4.7999999999999909e+00 +8.5383636278080051e+00 +0.0000000000000000e+00 +4.7999999437431455e+00 -2.6528347300157541e-04 +0.0000000000000000e+00 +9.9999996481233899e-01
4.8499999999999908e+00 +8.5383502944192404e+00 +0.0000000000000000e+00 +4.8499999419653372e+00 -2.6805210293643343e-04 +0.0000000000000000e+00 +9.9999996407403458e-01
4.8999999999999906e+00 +8.5383368225951628e+00 +0.0000000000000000e+00 +4.8999999401504208e+00 -2.7082088573563784e-04 +0.0000000000000000e+00 +9.9999996332802343e-01
4.9499999999999904e+00 +8.5383232123281019e+00 +0.0000000000000000e+00 +4.9499999382980109e+00 -2.7358982246789752e-04 +0.0000000000000000e+00 +9.9999996257430401e-01
4.9999999999999902e+00 +8.5383094636103340e+00 +0.0000000000000000e+00 +4.9999999364077228e+00 -2.7635891418970618e-04 +0.0000000000000000e+00 +9.9999996181287476e-01
5.0499999999999901e+00 +8.5382955764340824e+00 +0.0000000000000000e+00 +5.0499999344791702e+00 -2.7912816194534241e-04 +0.0000000000000000e+00 +9.9999996104373401e-01
5.0999999999999899e+00 +8.5382815507915204e+00 +0.0000000000000000e+00 +5.0999999325119676e+00 -2.8189756676686968e-04 +0.0000000000000000e+00 +9.9999996026688032e-01
5.1499999999999897e+00 +8.5382673866747698e+00 +0.0000000000000000e+00 +5.1499999305057296e+00 -2.8466712967413623e-04 +0.0000000000000000e+00 +9.9999995948231202e-01
5.1999999999999895e+00 +8.5382530840759010e+00 +0.0000000000000000e+00 +5.1999999284600706e+00 -2.8743685167477516e-04 +0.0000000000000000e+00 +9.9999995869002745e-01
5.2499999999999893e+00 +8.5382386429869346e+00 +0.0000000000000000e+00 +5.2499999263746044e+00 -2.9020673376420428e-04 +0.0000000000000000e+00 +9.9999995789002505e-01
5.2999999999999892e+00 +8.5382240633998396e+00 +0.0000000000000000e+00 +5.2999999242489446e+00 -2.9297677692562629e-04 +0.0000000000000000e+00 +9.9999995708230327e-01
5.3499999999999890e+00 +8.5382093453065409e+00 +0.0000000000000000e+00 +5.3499999220827057e+00 -2.9574698213002861e-04 +0.0000000000000000e+00 +9.9999995626686045e-01
5.3999999999999888e+00 +8.5381944886989096e+00 +0.0000000000000000e+00 +5.3999999198755013e+00 -2.9851735033618334e-04 +0.0000000000000000e+00 +9.9999995544369491e-01
5.4499999999999886e+00 +8.5381794935687747e+00 +0.0000000000000000e+00 +5.4499999176269460e+00 -3.0128788249064742e-04 +0.0000000000000000e+00 +9.9999995461280500e-01
5.4999999999999885e+00 +8.5381643599079133e+00 +0.0000000000000000e+00 +5.4999999153366534e+00 -3.0405857952776232e-04 +0.0000000000000000e+00 +9.9999995377418915e-01
5.5499999999999883e+00 +8.5381490877080584e+00 +0.0000000000000000e+00 +5.5499999130042363e+00 -3.0682944236965436e-04 +0.0000000000000000e+00 +9.9999995292784560e-01
5.5999999999999881e+00 +8.5381336769608982e+00 +0.0000000000000000e+00 +5.5999999106293092e+00 -3.0960047192623436e-04 +0.0000000000000000e+00 +9.9999995207377279e-01
5.6499999999999879e+00 +8.5381181276580733e+00 +0.0000000000000000e+00 +5.6499999082114849e+00 -3.1237166909519785e-04 +0.0000000000000000e+00 +9.9999995121196905e-01
5.6999999999999877e+00 +8.5381024397911816e+00 +0.0000000000000000e+00 +5.6999999057503770e+00 -3.1514303476202490e-04 +0.0000000000000000e+00 +9.9999995034243261e-01
5.7499999999999876e+00 +8.5380866133517745e+00 +0.0000000000000000e+00 +5.7499999032455991e+00 -3.1791456979998013e-04 +0.0000000000000000e+00 +9.9999994946516191e-01
5.7999999999999874e+00 +8.5380706483313631e+00 +0.0000000000000000e+00 +5.7999999006967640e+00 -3.2068627507011272e-04 +0.0000000000000000e+00 +9.9999994858015517e-01
5.8499999999999872e+00 +8.5380545447214153e+00 +0.0000000000000000e+00 +5.8499998981034853e+00 -3.2345815142125638e-04 +0.0000000000000000e+00 +9.9999994768741074e-01
5.8999999999999870e+00 +8.5380383025133550e+00 +0.0000000000000000e+00 +5.8999998954653758e+00 -3.2623019969002927e-04 +0.0000000000000000e+00 +9.9999994678692694e-01
