# multipoles
# s[mm] polynom_b[n=0][T/m^n] polynom_b[n=1][T/m^n] polynom_b[n=2][T/m^n] polynom_b[n=3][T/m^n] polynom_b[n=4][T/m^n] polynom_b[n=5][T/m^n] polynom_b[n=6][T/m^n] 
-0.0000000000000000e+00 -5.7878843502399868e-01 +7.5869122036820498e+00 +5.8928108441849041e+00 +4.3175746632087694e+01 -3.7201904159319233e+03 -6.9469990060945530e+05 +8.6037717570856120e+06 
-5.0000000000000003e-02 -5.7878709648750248e-01 +7.5867567017545374e+00 +5.8934794154478727e+00 +4.3503087093673336e+01 -3.6140993671039382e+03 -6.9713117285983555e+05 +7.8635559944319427e+06 
-1.0000000000000001e-01 -5.7878614183483634e-01 +7.5866213360729775e+00 +5.8939110792051421e+00 +4.3843321547023180e+01 -3.5111517736115611e+03 -6.9958554112957022e+05 +7.1352077423213618e+06 
-1.4999999999999999e-01 -5.7878557048795942e-01 +7.5865061018821720e+00 +5.8941012796649428e+00 +4.4195685707022143e+01 -3.4113107856261181e+03 -7.0205888132464816e+05 +6.4188019269915232e+06 
-2.0000000000000001e-01 -5.7878538186888351e-01 +7.5864109944260782e+00 +5.8940454648531260e+00 +4.4559415343167231e+01 -3.3145396567067173e+03 -7.0454706977013545e+05 +5.7144141731403470e+06 
-2.5000000000000000e-01 -5.7878557539961395e-01 +7.5863360089440652e+00 +5.8937390737619779e+00 +4.4933746450197248e+01 -3.2208013957789117e+03 -7.0704598464077478e+05 +5.0221184448141064e+06 
-2.9999999999999999e-01 -5.7878615050218662e-01 +7.5862811406839930e+00 +5.8931775526948851e+00 +4.5317914696673853e+01 -3.1300592122460566e+03 -7.0955150140351208e+05 +4.3419900745760081e+06 
-3.4999999999999998e-01 -5.7878710659859278e-01 +7.5862463848891881e+00 +5.8923563471169818e+00 +4.5711155970397975e+01 -3.0422762934894286e+03 -7.1205949730136327e+05 +3.6741042426633229e+06 
-4.0000000000000002e-01 -5.7878844311095967e-01 +7.5862317368044137e+00 +5.8912708985698101e+00 +4.6112706114793383e+01 -2.9574157160062523e+03 -7.1456584918546455e+05 +3.0185353605332719e+06 
-4.5000000000000001e-01 -5.7879015946128209e-01 +7.5862371916750906e+00 +5.8899166523718769e+00 +4.6521801000449919e+01 -2.8754406687203582e+03 -7.1706643417444138e+05 +2.3753586379113900e+06 
-5.0000000000000000e-01 -5.7879225507171439e-01 +7.5862627447470414e+00 +5.8882890538400368e+00 +4.6937676476011738e+01 -2.7963143319420597e+03 -7.1955712909081532e+05 +1.7446491922282393e+06 
-5.5000000000000004e-01 -5.7879472936431753e-01 +7.5863083912669103e+00 +5.8863835438310117e+00 +4.7359568409157774e+01 -2.7199997678234540e+03 -7.2203381097915780e+05 +1.1264813465355823e+06 
-5.9999999999999998e-01 -5.7879758176127982e-01 +7.5863741264819176e+00 +5.8841955683107177e+00 +4.7786712660607648e+01 -2.6464601806307451e+03 -7.2449235678023146e+05 +5.2093040171544836e+05 
-6.5000000000000002e-01 -5.7880081168465736e-01 +7.5864599456393513e+00 +5.8817205713677891e+00 +4.8218345129407084e+01 -2.5756587225783251e+03 -7.2692864377293666e+05 -7.1928703533165302e+04 
-6.9999999999999996e-01 -5.7880441855666143e-01 +7.5865658439880113e+00 +5.8789539968190310e+00 +4.8653701671258226e+01 -2.5075585376430090e+03 -7.2933854884304397e+05 -6.5202108713007683e+05 
-7.5000000000000000e-01 -5.7880840179944104e-01 +7.5866918167768294e+00 +5.8758912890928565e+00 +4.9092018166102065e+01 -2.4421227834952779e+03 -7.3171794907637965e+05 -1.2192717898205582e+06 
-8.0000000000000004e-01 -5.7881276083517552e-01 +7.5868378592541372e+00 +5.8725278910252410e+00 +4.9532530562477127e+01 -2.3793145840799220e+03 -7.3406272215815180e+05 -1.7736060456810910e+06 
-8.4999999999999998e-01 -5.7881749508611069e-01 +7.5870039666709213e+00 +5.8688592484510540e+00 +4.9974474708083164e+01 -2.3190971359223763e+03 -7.3636874487571581e+05 -2.3149486299599889e+06 
-9.0000000000000002e-01 -5.7882260397446039e-01 +7.5871901342766357e+00 +5.8648808040187523e+00 +5.0417086557561561e+01 -2.2614335510729002e+03 -7.3863189494649600e+05 -2.8432248887789939e+06 
-9.4999999999999996e-01 -5.7882808692245424e-01 +7.5873963573236116e+00 +5.8605880048844696e+00 +5.0859601980717983e+01 -2.2062870655923930e+03 -7.4084804938772437e+05 -3.3583593170151566e+06 
-1.0000000000000000e+00 -5.7883394335233129e-01 +7.5876226310631010e+00 +5.8559762923465311e+00 +5.1301256923057686e+01 -2.1536207568256077e+03 -7.4301308586105180e+05 -3.8602774904025630e+06 
-1.0500000000000000e+00 -5.7884017268639165e-01 +7.5878689507492556e+00 +5.8510411107641920e+00 +5.1741287222183132e+01 -2.1033977851644695e+03 -7.4512288106951024e+05 -4.3489044196761623e+06 
-1.1000000000000001e+00 -5.7884677434689191e-01 +7.5881353116337227e+00 +5.8457779082316996e+00 +5.2178928881074697e+01 -2.0555814098065148e+03 -7.4717331318775192e+05 -4.8241644590816703e+06 
-1.1499999999999999e+00 -5.7885374775619869e-01 +7.5884217089724908e+00 +5.8401821251319559e+00 +5.2613417724120033e+01 -2.0101346821598793e+03 -7.4916025884569646e+05 -5.2859833658317802e+06 
-1.2000000000000000e+00 -5.7886109233658045e-01 +7.5887281380178733e+00 +5.8342492060494475e+00 +5.3043989784600932e+01 -1.9670207679269834e+03 -7.5107959646682232e+05 -5.7342861219877331e+06 
-1.2500000000000000e+00 -5.7886880751039227e-01 +7.5890545940269760e+00 +5.8279745982613225e+00 +5.3469880928103628e+01 -1.9262029040841041e+03 -7.5292720310896670e+05 -6.1689972349639619e+06 
-1.3000000000000000e+00 -5.7887689270001275e-01 +7.5894010722559884e+00 +5.8213537454744007e+00 +5.3890327069827833e+01 -1.8876442322540584e+03 -7.5469895618660876e+05 -6.5900418539046478e+06 
-1.3500000000000001e+00 -5.7888534732781372e-01 +7.5897675679628680e+00 +5.8143820921780787e+00 +5.4304564114576550e+01 -1.8513079148222423e+03 -7.5639073315324401e+05 -6.9973449884771081e+06 
-1.3999999999999999e+00 -5.7889417081612493e-01 +7.5901540764033912e+00 +5.8070550822543741e+00 +5.4711828063338061e+01 -1.8171570953908977e+03 -7.5799841215540248e+05 -7.3908317878388781e+06 
-1.4500000000000000e+00 -5.7890336258741781e-01 +7.5905605928385951e+00 +5.7993681621450710e+00 +5.5111354753174041e+01 -1.7851549864314084e+03 -7.5951787011878809e+05 -7.7704269340002453e+06 
-1.5000000000000000e+00 -5.7891292206411016e-01 +7.5909871125273209e+00 +5.7913167762141482e+00 +5.5502380135370977e+01 -1.7552647489027845e+03 -7.6094498486971250e+05 -8.1360554424914615e+06 
-1.5500000000000000e+00 -5.7892284866861810e-01 +7.5914336307277805e+00 +5.7828963700228941e+00 +5.5884140216730586e+01 -1.7274495680391944e+03 -7.6227563470612175e+05 -8.4876421975428220e+06 
-1.6000000000000001e+00 -5.7893314182339539e-01 +7.5919001427037278e+00 +5.7741023880768338e+00 +5.6255870832067274e+01 -1.7016726026267754e+03 -7.6350569663072668e+05 -8.8251122510933280e+06 
-1.6499999999999999e+00 -5.7894380095094411e-01 +7.5923866437173384e+00 +5.7649302762716133e+00 +5.6616807890097661e+01 -1.6778970538733358e+03 -7.6463104818223824e+05 -9.1483903531785104e+06 
-1.7000000000000000e+00 -5.7895482547372679e-01 +7.5928931290304815e+00 +5.7553754796622272e+00 +5.6966187361964849e+01 -1.6560860894588805e+03 -7.6564756749467819e+05 -9.4574015215030648e+06 
-1.7500000000000000e+00 -5.7896621481427879e-01 +7.5934195939070257e+00 +5.7454334441308328e+00 +5.7303245169222798e+01 -1.6362029089293678e+03 -7.6655113233549602e+05 -9.7520705206675418e+06 
-1.8000000000000000e+00 -5.7897796839509863e-01 +7.5939660336125305e+00 +5.7350996159712677e+00 +5.7627217193034333e+01 -1.6182107149236360e+03 -7.6733762013567600e+05 -1.0032322129939143e+07 
-1.8500000000000001e+00 -5.7899008563872145e-01 +7.5945324434110253e+00 +5.7243694398498661e+00 +5.7937339420443230e+01 -1.6020726692648539e+03 -7.6800290926911915e+05 -1.0298081387314344e+07 
-1.8999999999999999e+00 -5.7900256596772415e-01 +7.5951188185722467e+00 +5.7132383604563213e+00 +5.8232847638407179e+01 -1.5877519310216157e+03 -7.6854287650686561e+05 -1.0549273365682961e+07 
-1.9500000000000000e+00 -5.7901540880467406e-01 +7.5957251543610544e+00 +5.7017018276976552e+00 +5.8512977868162992e+01 -1.5752118006740391e+03 -7.6895340056596417e+05 -1.0785822181263659e+07 
-2.0000000000000000e+00 -5.7902861357216973e-01 +7.5963514460468762e+00 +5.6897552842232599e+00 +5.8776965977331315e+01 -1.5644153820129895e+03 -7.6923035893921705e+05 -1.1007653277712476e+07 
-2.0499999999999998e+00 -5.7904217948749881e-01 +7.5969976659845617e+00 +5.6773952435737645e+00 +5.9024252332897980e+01 -1.5553203850055199e+03 -7.6937100118700427e+05 -1.1214778033394964e+07 
-2.1000000000000001e+00 -5.7905610494316440e-01 +7.5976636963253981e+00 +5.6646226841927074e+00 +5.9255054363768942e+01 -1.5478657108719624e+03 -7.6937781262492051e+05 -1.1407534307056809e+07 
-2.1499999999999999e+00 -5.7907038812471667e-01 +7.5983493937351865e+00 +5.6514399288556350e+00 +5.9469770190150165e+01 -1.5419865815535145e+03 -7.6925453026994085e+05 -1.1586334509034503e+07 
-2.2000000000000002e+00 -5.7908502721773680e-01 +7.5990546148795071e+00 +5.6378492934750426e+00 +5.9668797953392932e+01 -1.5376180288125597e+03 -7.6900489134037192e+05 -1.1751592349730110e+07 
-2.2500000000000000e+00 -5.7910002040777375e-01 +7.5997792164224611e+00 +5.6238531008958921e+00 +5.9852535893697414e+01 -1.5346952747745900e+03 -7.6863263392342487e+05 -1.1903720240706548e+07 
-2.2999999999999998e+00 -5.7911536588038104e-01 +7.6005230550335181e+00 +5.6094536674715796e+00 +6.0021382039249161e+01 -1.5331533635304554e+03 -7.6814149432478298e+05 -1.2043131808366565e+07 
-2.3500000000000001e+00 -5.7913106182111185e-01 +7.6012859873759542e+00 +5.5946533124932998e+00 +6.0175734707918167e+01 -1.5329274210361352e+03 -7.6753521131330600e+05 -1.2170240113674061e+07 
-2.3999999999999999e+00 -5.7914710641559097e-01 +7.6020678701206927e+00 +5.5794543555348417e+00 +6.0315991906613924e+01 -1.5339525772746795e+03 -7.6681752104715037e+05 -1.2285458204393325e+07 
-2.4500000000000002e+00 -5.7916349784940302e-01 +7.6028685599332988e+00 +5.5638591170074045e+00 +6.0442551893582412e+01 -1.5361639869452067e+03 -7.6599216181861889e+05 -1.2389198953258919e+07 
-2.5000000000000000e+00 -5.7918023430820498e-01 +7.6036879134848432e+00 +5.5478699135838134e+00 +6.0555812709968876e+01 -1.5394967055121531e+03 -7.6506287011163670e+05 -1.2481875896049384e+07 
-2.5499999999999998e+00 -5.7919731397756380e-01 +7.6045257874429701e+00 +5.5314890680294990e+00 +6.0656172562515785e+01 -1.5438859480414619e+03 -7.6403338379152247e+05 -1.2563901508532062e+07 
-2.6000000000000001e+00 -5.7921473504318444e-01 +7.6053820384778614e+00 +5.5147188959432301e+00 +6.0744029577009670e+01 -1.5492667385213019e+03 -7.6290744012269226e+05 -1.2635689544312481e+07 
-2.6499999999999999e+00 -5.7923249569070712e-01 +7.6062565232586241e+00 +5.4975617199614266e+00 +6.0819781927814773e+01 -1.5555742929272269e+03 -7.6168877672828070e+05 -1.2697652457101788e+07 
-2.7000000000000002e+00 -5.7925059410578095e-01 +7.6071490984591446e+00 +5.4800198565451659e+00 +6.0883827616536330e+01 -1.5627436574323353e+03 -7.6038112982982956e+05 -1.2750203854210915e+07 
-2.7500000000000000e+00 -5.7926902847407935e-01 +7.6080596207479578e+00 +5.4620956247427594e+00 +6.0936564888029721e+01 -1.5707099476714186e+03 -7.5898823771853896e+05 -1.2793756875276521e+07 
-2.7999999999999998e+00 -5.7928779698127131e-01 +7.6089879467957386e+00 +5.4437913463165781e+00 +6.0978391899428431e+01 -1.5794083560029046e+03 -7.5751383790143405e+05 -1.2828724128665898e+07 
-2.8500000000000001e+00 -5.7930689781307110e-01 +7.6099339332791489e+00 +5.4251093384419011e+00 +6.1009706590526122e+01 -1.5887739437454570e+03 -7.5596166617566859e+05 -1.2855519132344339e+07 
-2.8999999999999999e+00 -5.7932632915517224e-01 +7.6108974368653275e+00 +5.4060519188299416e+00 +6.1030907291086770e+01 -1.5987417962480106e+03 -7.5433546150283876e+05 -1.2874555206572982e+07 
-2.9500000000000002e+00 -5.7934608919331110e-01 +7.6118783142317401e+00 +5.3866214099663265e+00 +6.1042391937804481e+01 -1.6092471193463073e+03 -7.5263895968385821e+05 -1.2886244885473428e+07 
-3.0000000000000000e+00 -5.7936617611319940e-01 +7.6128764220504737e+00 +5.3668201288624067e+00 +6.1044558690642589e+01 -1.6202249765693662e+03 -7.5087589833291166e+05 -1.2891001644212354e+07 
-3.0499999999999998e+00 -5.7938658810053789e-01 +7.6138916169940503e+00 +5.3466503935029257e+00 +6.1037805711488275e+01 -1.6316104533456160e+03 -7.4905001512045192e+05 -1.2889238826348141e+07 
-3.1000000000000001e+00 -5.7940732334111011e-01 +7.6149237557397180e+00 +5.3261145250783093e+00 +6.1022530974385141e+01 -1.6433387247882681e+03 -7.4716504616360785e+05 -1.2881369154218145e+07 
-3.1499999999999999e+00 -5.7942838002066410e-01 +7.6159726949599351e+00 +5.3052148415995086e+00 +6.0999132660397350e+01 -1.6553448767560578e+03 -7.4522472929610522e+05 -1.2867805965309680e+07 
-3.2000000000000002e+00 -5.7944975632495965e-01 +7.6170382913310695e+00 +5.2839536618258860e+00 +6.0968008811090520e+01 -1.6675640200899068e+03 -7.4323280125309050e+05 -1.2848962408018669e+07 
-3.2500000000000000e+00 -5.7947145043972759e-01 +7.6181204015282846e+00 +5.2623333025242163e+00 +6.0929557511576796e+01 -1.6799312077964216e+03 -7.4119299907923385e+05 -1.2825252036550125e+07 
-3.2999999999999998e+00 -5.7949346055079409e-01 +7.6192188822271287e+00 +5.2403560862365790e+00 +6.0884176856876515e+01 -1.6923816526616149e+03 -7.3910905998133833e+05 -1.2797087308781773e+07 
-3.3500000000000001e+00 -5.7951578484396671e-01 +7.6203335901051776e+00 +5.2180243297480526e+00 +6.0832264851235998e+01 -1.7048504043610985e+03 -7.3698472036591894e+05 -1.2764881809081426e+07 
-3.3999999999999999e+00 -5.7953842150497625e-01 +7.6214643818390755e+00 +5.1953403505915157e+00 +6.0774219571377095e+01 -1.7172725402531698e+03 -7.3482371733899193e+05 -1.2729048909976799e+07 
-3.4500000000000002e+00 -5.7956136871963893e-01 +7.6226111141042132e+00 +5.1723064695641376e+00 +6.0710439130522161e+01 -1.7295832233879348e+03 -7.3262978824788088e+05 -1.2690001406701585e+07 
-3.5000000000000000e+00 -5.7958462467378147e-01 +7.6237736435802468e+00 +5.1489250032650062e+00 +6.0641321480224619e+01 -1.7417175029274695e+03 -7.3040666913794086e+05 -1.2648152868882276e+07 
-3.5499999999999998e+00 -5.7960818755322729e-01 +7.6249518269437324e+00 +5.1251982709116906e+00 +6.0567264706336438e+01 -1.7536104985547213e+03 -7.2815809717344551e+05 -1.2603916385489691e+07 
-3.6000000000000001e+00 -5.7963205554379982e-01 +7.6261455208737985e+00 +5.1011285906054873e+00 +6.0488666798699057e+01 -1.7651973016487268e+03 -7.2588780875361629e+05 -1.2557705227097910e+07 
-3.6499999999999999e+00 -5.7965622683133577e-01 +7.6273545820474711e+00 +5.0767182814152827e+00 +6.0405925840004045e+01 -1.7764130275810733e+03 -7.2359954107131506e+05 -1.2509932511047374e+07 
-3.6999999999999900e+00 -5.7968069960164814e-01 +7.6285788671458672e+00 +5.0519696616573970e+00 +6.0319439742355080e+01 -1.7871927718325130e+03 -7.2129702987226285e+05 -1.2461011481441930e+07 
-3.7499999999999898e+00 -5.7970547204062961e-01 +7.6298182328446682e+00 +5.0268850479006666e+00 +6.0229606651004914e+01 -1.7974715826127258e+03 -7.1898401288917242e+05 -1.2411355703235973e+07 
-3.7999999999999901e+00 -5.7973054233407972e-01 +7.6310725358251723e+00 +5.0014667587499932e+00 +6.0136824490007655e+01 -1.8071845657541780e+03 -7.1666422603732452e+05 -1.2361378336994281e+07 
-3.8499999999999899e+00 -5.7975590866791737e-01 +7.6323416327682203e+00 +4.9757171128118625e+00 +6.0041491195548709e+01 -1.8162668216448883e+03 -7.1434140532705968e+05 -1.2311492600360692e+07 
-3.8999999999999901e+00 -5.7978156922792001e-01 +7.6336253803511989e+00 +4.9496384273899707e+00 +5.9944004855274962e+01 -1.8246534218403538e+03 -7.1201928803189425e+05 -1.2262111877946042e+07 
-3.9499999999999900e+00 -5.7980752220004161e-01 +7.6349236352554426e+00 +4.9232330199954157e+00 +5.9844763393133938e+01 -1.8322794382174375e+03 -7.0970161011098081e+05 -1.2213649569897629e+07 
-3.9999999999999898e+00 -5.7983376577011136e-01 +7.6362362541620339e+00 +4.8965032099110015e+00 +5.9744164751373845e+01 -1.8390799928889194e+03 -7.0739210762343276e+05 -1.2166518721175287e+07 
-4.0499999999999901e+00 -5.7986029794915483e-01 +7.6375630871090792e+00 +4.8694517108733990e+00 +5.9642560015649309e+01 -1.8449995195496529e+03 -7.0509398351469892e+05 -1.2121088253425157e+07 
-4.0999999999999899e+00 -5.7988711604878751e-01 +7.6389039480768446e+00 +4.8420833047858425e+00 +5.9540106594200431e+01 -1.8500192472669924e+03 -7.0280819451755122e+05 -1.2077565233205151e+07 
-4.1499999999999897e+00 -5.7991421720594927e-01 +7.6402586396652410e+00 +4.8144034395707163e+00 +5.9436909692916956e+01 -1.8541293453991732e+03 -7.0053510022890999e+05 -1.2036121072923558e+07 
-4.1999999999999904e+00 -5.7994159855750360e-01 +7.6416269644726471e+00 +4.7864175588520483e+00 +5.9333074575975942e+01 -1.8573198626207168e+03 -6.9827506084850046e+05 -1.1996928011017138e+07 
-4.2499999999999902e+00 -5.7996925724043080e-01 +7.6430087251030479e+00 +4.7581311114264011e+00 +5.9228706265252725e+01 -1.8595809863480331e+03 -6.9602843453990109e+05 -1.1960157345162889e+07 
-4.2999999999999901e+00 -5.7999719039156616e-01 +7.6444037241531815e+00 +4.7295495399337035e+00 +5.9123910094579259e+01 -1.8609027364379106e+03 -6.9379558209103288e+05 -1.1925981516773447e+07 
-4.3499999999999899e+00 -5.8002539514786866e-01 +7.6458117642258570e+00 +4.7006782939605429e+00 +5.9018791113280010e+01 -1.8612753248177864e+03 -6.9157686181624385e+05 -1.1894571647903739e+07 
-4.3999999999999897e+00 -5.8005386864624164e-01 +7.6472326479195543e+00 +4.6715228177039405e+00 +5.8913454579437222e+01 -1.8606888147456657e+03 -6.8937263387973187e+05 -1.1866099879862670e+07 
-4.4499999999999904e+00 -5.8008260802357292e-01 +7.6486661778353966e+00 +4.6420885575407276e+00 +5.8808005602023641e+01 -1.8591333307867628e+03 -6.8718325706246973e+05 -1.1840737928099044e+07 
-4.4999999999999902e+00 -5.8011161041680870e-01 +7.6501121565704882e+00 +4.6123809600416292e+00 +5.8702549475598126e+01 -1.8565990017814042e+03 -6.8500909177989722e+05 -1.1818657486565586e+07 
-4.5499999999999901e+00 -5.8014087296285488e-01 +7.6515703867282392e+00 +4.5824054694913503e+00 +5.8597191208125551e+01 -1.8530758961996123e+03 -6.8285049598466547e+05 -1.1800030647682162e+07 
-4.5999999999999899e+00 -5.8017039279867644e-01 +7.6530406709032404e+00 +4.5521675351988948e+00 +5.8492036168099723e+01 -1.8485542141570388e+03 -6.8070783061497461e+05 -1.1785028631729890e+07 
-4.6499999999999897e+00 -5.8020016706108013e-01 +7.6545228116987047e+00 +4.5216725990114979e+00 +5.8387189369526020e+01 -1.8430239619016634e+03 -6.7858145368135266e+05 -1.1773823941495782e+07 
-4.6999999999999904e+00 -5.8023019288708388e-01 +7.6560166117115029e+00 +4.4909261098763240e+00 +5.8282756064858290e+01 -1.8364753313688800e+03 -6.7647172512042616e+05 -1.1766587845877498e+07 
-4.7499999999999902e+00 -5.8026046741353909e-01 +7.6575218735434945e+00 +4.4599335122644117e+00 +5.8178841295512647e+01 -1.8288983971943874e+03 -6.7437900310921844e+05 -1.1763492394546974e+07 
-4.7999999999999901e+00 -5.8029098777743060e-01 +7.6590383997888143e+00 +4.4287002542923366e+00 +5.8075550414964880e+01 -1.8202833274305265e+03 -6.7230364840688347e+05 -1.1764709024135206e+07 
-4.8499999999999899e+00 -5.8032175111556472e-01 +7.6605659930485794e+00 +4.3972317781254278e+00 +5.7972988472820823e+01 -1.8106201394808866e+03 -6.7024601921187947e+05 -1.1770410152926454e+07 
-4.8999999999999897e+00 -5.8035275456496271e-01 +7.6621044559215683e+00 +4.3655335338541450e+00 +5.7871260598506744e+01 -1.7998990569365408e+03 -6.6820647436703870e+05 -1.1780766833251327e+07 
-4.9499999999999904e+00 -5.8038399526248596e-01 +7.6636535910038353e+00 +4.3336109634802789e+00 +5.7770472027530637e+01 -1.7881100882650155e+03 -6.6618537357533001e+05 -1.1795951561144819e+07 
-4.9999999999999902e+00 -5.8041547034502949e-01 +7.6652132008939775e+00 +4.3014695153268985e+00 +5.7670727881294098e+01 -1.7752434129457363e+03 -6.6418307559027418e+05 -1.1816135674144337e+07 
-5.0499999999999901e+00 -5.8044717695197823e-01 +7.6667830800404966e+00 +4.2691150379537026e+00 +5.7572124975482204e+01 -1.7612891403341148e+03 -6.6219993631188723e+05 -1.1841490651865013e+07 
