# trajectory
# s[mm] rx[mm] ry[mm] rz[mm] px[rad] py[rad] pz[rad]
0.0000000000000000e+00 +8.5389999999999997e+00 +0.0000000000000000e+00 +0.0000000000000000e+00 +0.0000000000000000e+00 +0.0000000000000000e+00 +1.0000000000000000e+00
5.0000000000000003e-02 +8.5389999310825022e+00 +0.0000000000000000e+00 +4.9999999999936671e-02 -2.7566937946329974e-06 +0.0000000000000000e+00 +9.9999999999620037e-01
1.0000000000000001e-01 +8.5389997243312159e+00 +0.0000000000000000e+00 +9.9999999999493383e-02 -5.5133518268344960e-06 +0.0000000000000000e+00 +9.9999999998480149e-01
1.5000000000000002e-01 +8.5389993797478834e+00 +0.0000000000000000e+00 +1.4999999999829017e-01 -8.2699760080700079e-06 +0.0000000000000000e+00 +9.9999999996580380e-01
2.0000000000000001e-01 +8.5389988973341477e+00 +0.0000000000000000e+00 +1.9999999999594711e-01 -1.1026568250099708e-05 +0.0000000000000000e+00 +9.9999999993920741e-01
2.5000000000000000e-01 +8.5389982770915580e+00 +0.0000000000000000e+00 +2.4999999999208428e-01 -1.3783130464978515e-05 +0.0000000000000000e+00 +9.9999999990501265e-01
2.9999999999999999e-01 +8.5389975190215690e+00 +0.0000000000000000e+00 +2.9999999998632176e-01 -1.6539664565056186e-05 +0.0000000000000000e+00 +9.9999999986321975e-01
3.4999999999999998e-01 +8.5389966231255379e+00 +0.0000000000000000e+00 +3.4999999997827963e-01 -1.9296172462977401e-05 +0.0000000000000000e+00 +9.9999999981382881e-01
3.9999999999999997e-01 +8.5389955894047276e+00 +0.0000000000000000e+00 +3.9999999996757801e-01 -2.2052656071681863e-05 +0.0000000000000000e+00 +9.9999999975684017e-01
4.4999999999999996e-01 +8.5389944178603034e+00 +0.0000000000000000e+00 +4.4999999995383705e-01 -2.4809117304404376e-05 +0.0000000000000000e+00 +9.9999999969225384e-01
4.9999999999999994e-01 +8.5389931084933384e+00 +0.0000000000000000e+00 +4.9999999993667682e-01 -2.7565558074674941e-05 +0.0000000000000000e+00 +9.9999999962007002e-01
5.4999999999999993e-01 +8.5389916613048058e+00 +0.0000000000000000e+00 +5.4999999991571746e-01 -3.0321980296318841e-05 +0.0000000000000000e+00 +9.9999999954028873e-01
5.9999999999999998e-01 +8.5389900762955868e+00 +0.0000000000000000e+00 +5.9999999989057906e-01 -3.3078385883456737e-05 +0.0000000000000000e+00 +9.9999999945291018e-01
6.5000000000000002e-01 +8.5389883534664630e+00 +0.0000000000000000e+00 +6.4999999986088186e-01 -3.5834776750504739e-05 +0.0000000000000000e+00 +9.9999999935793438e-01
7.0000000000000007e-01 +8.5389864928181254e+00 +0.0000000000000000e+00 +6.9999999982624594e-01 -3.8591154812174531e-05 +0.0000000000000000e+00 +9.9999999925536143e-01
7.5000000000000011e-01 +8.5389844943511637e+00 +0.0000000000000000e+00 +7.4999999978629139e-01 -4.1347521983473415e-05 +0.0000000000000000e+00 +9.9999999914519122e-01
8.0000000000000016e-01 +8.5389823580660771e+00 +0.0000000000000000e+00 +7.9999999974063840e-01 -4.4103880179704431e-05 +0.0000000000000000e+00 +9.9999999902742387e-01
8.5000000000000020e-01 +8.5389800839632635e+00 +0.0000000000000000e+00 +8.4999999968890716e-01 -4.6860231316466438e-05 +0.0000000000000000e+00 +9.9999999890205937e-01
9.0000000000000024e-01 +8.5389776720430302e+00 +0.0000000000000000e+00 +8.9999999963071775e-01 -4.9616577309654197e-05 +0.0000000000000000e+00 +9.9999999876909762e-01
9.5000000000000029e-01 +8.5389751223055868e+00 +0.0000000000000000e+00 +9.4999999956569026e-01 -5.2372920075458468e-05 +0.0000000000000000e+00 +9.9999999862853861e-01
1.0000000000000002e+00 +8.5389724347510452e+00 +0.0000000000000000e+00 +9.9999999949344498e-01 -5.5129261530366089e-05 +0.0000000000000000e+00 +9.9999999848038224e-01
1.0500000000000003e+00 +8.5389696093794232e+00 +0.0000000000000000e+00 +1.0499999994136020e+00 -5.7885603591160071e-05 +0.0000000000000000e+00 +9.9999999832462838e-01
1.1000000000000003e+00 +8.5389666461906444e+00 +0.0000000000000000e+00 +1.0999999993257812e+00 -6.0641948174919680e-05 +0.0000000000000000e+00 +9.9999999816127705e-01
1.1500000000000004e+00 +8.5389635451845329e+00 +0.0000000000000000e+00 +1.1499999992296031e+00 -6.3398297199020539e-05 +0.0000000000000000e+00 +9.9999999799032790e-01
1.2000000000000004e+00 +8.5389603063608188e+00 +0.0000000000000000e+00 +1.1999999991246875e+00 -6.6154652581134683e-05 +0.0000000000000000e+00 +9.9999999781178095e-01
1.2500000000000004e+00 +8.5389569297191361e+00 +0.0000000000000000e+00 +1.2499999990106545e+00 -6.8911016239230695e-05 +0.0000000000000000e+00 +9.9999999762563585e-01
1.3000000000000005e+00 +8.5389534152590247e+00 +0.0000000000000000e+00 +1.2999999988871245e+00 -7.1667390091573766e-05 +0.0000000000000000e+00 +9.9999999743189250e-01
1.3500000000000005e+00 +8.5389497629799251e+00 +0.0000000000000000e+00 +1.3499999987537172e+00 -7.4423776056725774e-05 +0.0000000000000000e+00 +9.9999999723055066e-01
1.4000000000000006e+00 +8.5389459728811854e+00 +0.0000000000000000e+00 +1.3999999986100529e+00 -7.7180176053545389e-05 +0.0000000000000000e+00 +9.9999999702161013e-01
1.4500000000000006e+00 +8.5389420449620541e+00 +0.0000000000000000e+00 +1.4499999984557514e+00 -7.9936592001188144e-05 +0.0000000000000000e+00 +9.9999999680507057e-01
1.5000000000000007e+00 +8.5389379792216875e+00 +0.0000000000000000e+00 +1.4999999982904331e+00 -8.2693025819106553e-05 +0.0000000000000000e+00 +9.9999999658093164e-01
1.5500000000000007e+00 +8.5389337756591424e+00 +0.0000000000000000e+00 +1.5499999981137178e+00 -8.5449479427050158e-05 +0.0000000000000000e+00 +9.9999999634919312e-01
1.6000000000000008e+00 +8.5389294342733830e+00 +0.0000000000000000e+00 +1.5999999979252257e+00 -8.8205954745065654e-05 +0.0000000000000000e+00 +9.9999999610985468e-01
1.6500000000000008e+00 +8.5389249550632744e+00 +0.0000000000000000e+00 +1.6499999977245767e+00 -9.0962453693496943e-05 +0.0000000000000000e+00 +9.9999999586291588e-01
1.7000000000000008e+00 +8.5389203380275873e+00 +0.0000000000000000e+00 +1.6999999975113906e+00 -9.3718978192985230e-05 +0.0000000000000000e+00 +9.9999999560837638e-01
1.7500000000000009e+00 +8.5389155831649965e+00 +0.0000000000000000e+00 +1.7499999972852875e+00 -9.6475530164469143e-05 +0.0000000000000000e+00 +9.9999999534623585e-01
1.8000000000000009e+00 +8.5389106904740810e+00 +0.0000000000000000e+00 +1.7999999970458875e+00 -9.9232111529184774e-05 +0.0000000000000000e+00 +9.9999999507649384e-01
1.8500000000000010e+00 +8.5389056599533220e+00 +0.0000000000000000e+00 +1.8499999967928102e+00 -1.0198872420866579e-04 +0.0000000000000000e+00 +9.9999999479914992e-01
1.9000000000000010e+00 +8.5389004916011064e+00 +0.0000000000000000e+00 +1.8999999965256757e+00 -1.0474537012474350e-04 +0.0000000000000000e+00 +9.9999999451420352e-01
1.9500000000000011e+00 +8.5388951854157238e+00 +0.0000000000000000e+00 +1.9499999962441039e+00 -1.0750205119954699e-04 +0.0000000000000000e+00 +9.9999999422165431e-01
2.0000000000000009e+00 +8.5388897413953693e+00 +0.0000000000000000e+00 +1.9999999959477144e+00 -1.1025876935550313e-04 +0.0000000000000000e+00 +9.9999999392150174e-01
2.0500000000000007e+00 +8.5388841595381386e+00 +0.0000000000000000e+00 +2.0499999956361274e+00 -1.1301552651501572e-04 +0.0000000000000000e+00 +9.9999999361374525e-01
2.1000000000000005e+00 +8.5388784398420352e+00 +0.0000000000000000e+00 +2.0999999953089623e+00 -1.1577232459693431e-04 +0.0000000000000000e+00 +9.9999999329838429e-01
2.1500000000000004e+00 +8.5388725823049647e+00 +0.0000000000000000e+00 +2.1499999949658393e+00 -1.1852916551302305e-04 +0.0000000000000000e+00 +9.9999999297541831e-01
2.2000000000000002e+00 +8.5388665869247387e+00 +0.0000000000000000e+00 +2.1999999946063777e+00 -1.2128605116763975e-04 +0.0000000000000000e+00 +9.9999999264484674e-01
2.2500000000000000e+00 +8.5388604536990709e+00 +0.0000000000000000e+00 +2.2499999942301971e+00 -1.2404298345773597e-04 +0.0000000000000000e+00 +9.9999999230666892e-01
2.2999999999999998e+00 +8.5388541826255846e+00 +0.0000000000000000e+00 +2.2999999938369178e+00 -1.2679996427285712e-04 +0.0000000000000000e+00 +9.9999999196088429e-01
2.3499999999999996e+00 +8.5388477737018036e+00 +0.0000000000000000e+00 +2.3499999934261591e+00 -1.2955699549514245e-04 +0.0000000000000000e+00 +9.9999999160749220e-01
2.3999999999999995e+00 +8.5388412269251628e+00 +0.0000000000000000e+00 +2.3999999929975404e+00 -1.3231407899932517e-04 +0.0000000000000000e+00 +9.9999999124649197e-01
2.4499999999999993e+00 +8.5388345422930012e+00 +0.0000000000000000e+00 +2.4499999925506817e+00 -1.3507121665273260e-04 +0.0000000000000000e+00 +9.9999999087788294e-01
2.4999999999999991e+00 +8.5388277198025637e+00 +0.0000000000000000e+00 +2.4999999920852023e+00 -1.3782841031528608e-04 +0.0000000000000000e+00 +9.9999999050166433e-01
2.5499999999999989e+00 +8.5388207594510046e+00 +0.0000000000000000e+00 +2.5499999916007217e+00 -1.4058566183950121e-04 +0.0000000000000000e+00 +9.9999999011783547e-01
2.5999999999999988e+00 +8.5388136612353840e+00 +0.0000000000000000e+00 +2.5999999910968592e+00 -1.4334297307048782e-04 +0.0000000000000000e+00 +9.9999998972639570e-01
2.6499999999999986e+00 +8.5388064251526714e+00 +0.0000000000000000e+00 +2.6499999905732343e+00 -1.4610034584595002e-04 +0.0000000000000000e+00 +9.9999998932734413e-01
2.6999999999999984e+00 +8.5387990511997440e+00 +0.0000000000000000e+00 +2.6999999900294664e+00 -1.4885778199618638e-04 +0.0000000000000000e+00 +9.9999998892067998e-01
2.7499999999999982e+00 +8.5387915393733866e+00 +0.0000000000000000e+00 +2.7499999894651754e+00 -1.5161528334408991e-04 +0.0000000000000000e+00 +9.9999998850640248e-01
2.7999999999999980e+00 +8.5387838896702934e+00 +0.0000000000000000e+00 +2.7999999888799798e+00 -1.5437285170514815e-04 +0.0000000000000000e+00 +9.9999998808451085e-01
2.8499999999999979e+00 +8.5387761020870698e+00 +0.0000000000000000e+00 +2.8499999882734994e+00 -1.5713048888744323e-04 +0.0000000000000000e+00 +9.9999998765500420e-01
2.8999999999999977e+00 +8.5387681766202288e+00 +0.0000000000000000e+00 +2.8999999876453533e+00 -1.5988819669165196e-04 +0.0000000000000000e+00 +9.9999998721788175e-01
2.9499999999999975e+00 +8.5387601132661946e+00 +0.0000000000000000e+00 +2.9499999869951608e+00 -1.6264597691104593e-04 +0.0000000000000000e+00 +9.9999998677314261e-01
2.9999999999999973e+00 +8.5387519120213007e+00 +0.0000000000000000e+00 +2.9999999863225408e+00 -1.6540383133149144e-04 +0.0000000000000000e+00 +9.9999998632078579e-01
3.0499999999999972e+00 +8.5387435728817938e+00 +0.0000000000000000e+00 +3.0499999856271125e+00 -1.6816176173144970e-04 +0.0000000000000000e+00 +9.9999998586081040e-01
3.0999999999999970e+00 +8.5387350958438315e+00 +0.0000000000000000e+00 +3.0999999849084947e+00 -1.7091976988197689e-04 +0.0000000000000000e+00 +9.9999998539321555e-01
3.1499999999999968e+00 +8.5387264809034811e+00 +0.0000000000000000e+00 +3.1499999841663069e+00 -1.7367785754672413e-04 +0.0000000000000000e+00 +9.9999998491800035e-01
3.1999999999999966e+00 +8.5387177280567226e+00 +0.0000000000000000e+00 +3.1999999834001676e+00 -1.7643602648193763e-04 +0.0000000000000000e+00 +9.9999998443516369e-01
3.2499999999999964e+00 +8.5387088372994491e+00 +0.0000000000000000e+00 +3.2499999826096961e+00 -1.7919427843645874e-04 +0.0000000000000000e+00 +9.9999998394470468e-01
3.2999999999999963e+00 +8.5386998086274666e+00 +0.0000000000000000e+00 +3.2999999817945112e+00 -1.8195261515172392e-04 +0.0000000000000000e+00 +9.9999998344662233e-01
3.3499999999999961e+00 +8.5386906420364923e+00 +0.0000000000000000e+00 +3.3499999809542316e+00 -1.8471103836176496e-04 +0.0000000000000000e+00 +9.9999998294091552e-01
3.3999999999999959e+00 +8.5386813375221600e+00 +0.0000000000000000e+00 +3.3999999800884759e+00 -1.8746954979320890e-04 +0.0000000000000000e+00 +9.9999998242758326e-01
3.4499999999999957e+00 +8.5386718950800145e+00 +0.0000000000000000e+00 +3.4499999791968627e+00 -1.9022815116527818e-04 +0.0000000000000000e+00 +9.9999998190662454e-01
3.4999999999999956e+00 +8.5386623147055154e+00 +0.0000000000000000e+00 +3.4999999782790110e+00 -1.9298684418979066e-04 +0.0000000000000000e+00 +9.9999998137803825e-01
3.5499999999999954e+00 +8.5386525963940390e+00 +0.0000000000000000e+00 +3.5499999773345392e+00 -1.9574563057115968e-04 +0.0000000000000000e+00 +9.9999998084182329e-01
3.5999999999999952e+00 +8.5386427401408742e+00 +0.0000000000000000e+00 +3.5999999763630659e+00 -1.9850451200639411e-04 +0.0000000000000000e+00 +9.9999998029797854e-01
3.6499999999999950e+00 +8.5386327459412268e+00 +0.0000000000000000e+00 +3.6499999753642096e+00 -2.0126349018509846e-04 +0.0000000000000000e+00 +9.9999997974650290e-01
3.6999999999999948e+00 +8.5386226137902153e+00 +0.0000000000000000e+00 +3.6999999743375889e+00 -2.0402256678947288e-04 +0.0000000000000000e+00 +9.9999997918739525e-01
3.7499999999999947e+00 +8.5386123436828782e+00 +0.0000000000000000e+00 +3.7499999732828218e+00 -2.0678174349431319e-04 +0.0000000000000000e+00 +9.9999997862065437e-01
3.7999999999999945e+00 +8.5386019356141691e+00 +0.0000000000000000e+00 +3.7999999721995268e+00 -2.0954102196701107e-04 +0.0000000000000000e+00 +9.9999997804627916e-01
3.8499999999999943e+00 +8.5385913895789578e+00 +0.0000000000000000e+00 +3.8499999710873225e+00 -2.1230040386755397e-04 +0.0000000000000000e+00 +9.9999997746426839e-01
3.8999999999999941e+00 +8.5385807055720306e+00 +0.0000000000000000e+00 +3.8999999699458265e+00 -2.1505989084852519e-04 +0.0000000000000000e+00 +9.9999997687462083e-01
3.9499999999999940e+00 +8.5385698835880941e+00 +0.0000000000000000e+00 +3.9499999687746574e+00 -2.1781948455510403e-04 +0.0000000000000000e+00 +9.9999997627733517e-01
3.9999999999999938e+00 +8.5385589236217694e+00 +0.0000000000000000e+00 +3.9999999675734328e+00 -2.2057918662506576e-04 +0.0000000000000000e+00 +9.9999997567241028e-01
4.0499999999999936e+00 +8.5385478256675977e+00 +0.0000000000000000e+00 +4.0499999663417707e+00 -2.2333899868856946e-04 +0.0000000000000000e+00 +9.9999997505984484e-01
4.0999999999999934e+00 +8.5385365897200405e+00 +0.0000000000000000e+00 +4.0999999650792898e+00 -2.2609892236582409e-04 +0.0000000000000000e+00 +9.9999997443963762e-01
4.1499999999999932e+00 +8.5385252157734755e+00 +0.0000000000000000e+00 +4.1499999637856071e+00 -2.2885895926475440e-04 +0.0000000000000000e+00 +9.9999997381178729e-01
4.1999999999999931e+00 +8.5385137038222005e+00 +0.0000000000000000e+00 +4.1999999624603408e+00 -2.3161911098078884e-04 +0.0000000000000000e+00 +9.9999997317629263e-01
4.2499999999999929e+00 +8.5385020538604373e+00 +0.0000000000000000e+00 +4.2499999611031090e+00 -2.3437937909685945e-04 +0.0000000000000000e+00 +9.9999997253315220e-01
4.2999999999999927e+00 +8.5384902658823254e+00 +0.0000000000000000e+00 +4.2999999597135288e+00 -2.3713976518340205e-04 +0.0000000000000000e+00 +9.9999997188236478e-01
4.3499999999999925e+00 +8.5384783398819266e+00 +0.0000000000000000e+00 +4.3499999582912183e+00 -2.3990027079835615e-04 +0.0000000000000000e+00 +9.9999997122392892e-01
4.3999999999999924e+00 +8.5384662758532279e+00 +0.0000000000000000e+00 +4.3999999568357948e+00 -2.4266089748716508e-04 +0.0000000000000000e+00 +9.9999997055784329e-01
4.4499999999999922e+00 +8.5384540737901347e+00 +0.0000000000000000e+00 +4.4499999553468754e+00 -2.4542164678277594e-04 +0.0000000000000000e+00 +9.9999996988410644e-01
4.4999999999999920e+00 +8.5384417336864811e+00 +0.0000000000000000e+00 +4.4999999538240782e+00 -2.4818252020563958e-04 +0.0000000000000000e+00 +9.9999996920271716e-01
4.5499999999999918e+00 +8.5384292555360215e+00 +0.0000000000000000e+00 +4.5499999522670196e+00 -2.5094351926371081e-04 +0.0000000000000000e+00 +9.9999996851367390e-01
4.5999999999999917e+00 +8.5384166393324357e+00 +0.0000000000000000e+00 +4.5999999506753175e+00 -2.5370464545244816e-04 +0.0000000000000000e+00 +9.9999996781697520e-01
4.6499999999999915e+00 +8.5384038850693322e+00 +0.0000000000000000e+00 +4.6499999490485893e+00 -2.5646590025481416e-04 +0.0000000000000000e+00 +9.9999996711261974e-01
4.6999999999999913e+00 +8.5383909927402417e+00 +0.0000000000000000e+00 +4.6999999473864520e+00 -2.5922728514127512e-04 +0.0000000000000000e+00 +9.9999996640060607e-01
4.7499999999999911e+00 +8.5383779623386253e+00 +0.0000000000000000e+00 +4.7499999456885220e+00 -2.6198880156980136e-04 +0.0000000000000000e+00 +9.9999996568093263e-01
4.7999999999999909e+00 +8.5383647938578680e+00 +0.0000000000000000e+00 +4.7999999439544174e+00 -2.6475045098586715e-04 +0.0000000000000000e+00 +9.9999996495359800e-01
4.8499999999999908e+00 +8.5383514872912851e+00 +0.0000000000000000e+00 +4.8499999421837545e+00 -2.6751223482245062e-04 +0.0000000000000000e+00 +9.9999996421860071e-01
4.8999999999999906e+00 +8.5383380426321214e+00 +0.0000000000000000e+00 +4.8999999403761496e+00 -2.7027415450003390e-04 +0.0000000000000000e+00 +9.9999996347593922e-01
4.9499999999999904e+00 +8.5383244598735484e+00 +0.0000000000000000e+00 +4.9499999385312208e+00 -2.7303621142660311e-04 +0.0000000000000000e+00 +9.9999996272561209e-01
4.9999999999999902e+00 +8.5383107390086685e+00 +0.0000000000000000e+00 +4.9999999366485834e+00 -2.7579840699764837e-04 +0.0000000000000000e+00 +9.9999996196761776e-01
5.0499999999999901e+00 +8.5382968800305150e+00 +0.0000000000000000e+00 +5.0499999347278548e+00 -2.7856074259616372e-04 +0.0000000000000000e+00 +9.9999996120195467e-01
5.0999999999999899e+00 +8.5382828829320516e+00 +0.0000000000000000e+00 +5.0999999327686512e+00 -2.8132321959264733e-04 +0.0000000000000000e+00 +9.9999996042862138e-01
5.1499999999999897e+00 +8.5382687477061765e+00 +0.0000000000000000e+00 +5.1499999307705888e+00 -2.8408583934510124e-04 +0.0000000000000000e+00 +9.9999995964761623e-01
5.1999999999999895e+00 +8.5382544743457167e+00 +0.0000000000000000e+00 +5.1999999287332850e+00 -2.8684860319903166e-04 +0.0000000000000000e+00 +9.9999995885893767e-01
5.2499999999999893e+00 +8.5382400628434336e+00 +0.0000000000000000e+00 +5.2499999266563551e+00 -2.8961151248744869e-04 +0.0000000000000000e+00 +9.9999995806258413e-01
5.2999999999999892e+00 +8.5382255131920228e+00 +0.0000000000000000e+00 +5.2999999245394154e+00 -2.9237456853086662e-04 +0.0000000000000000e+00 +9.9999995725855406e-01
5.3499999999999890e+00 +8.5382108253841125e+00 +0.0000000000000000e+00 +5.3499999223820822e+00 -2.9513777263730359e-04 +0.0000000000000000e+00 +9.9999995644684581e-01
5.3999999999999888e+00 +8.5381959994122685e+00 +0.0000000000000000e+00 +5.3999999201839719e+00 -2.9790112610228193e-04 +0.0000000000000000e+00 +9.9999995562745769e-01
5.4499999999999886e+00 +8.5381810352689911e+00 +0.0000000000000000e+00 +5.4499999179446998e+00 -3.0066463020882796e-04 +0.0000000000000000e+00 +9.9999995480038817e-01
5.4999999999999885e+00 +8.5381659329467166e+00 +0.0000000000000000e+00 +5.4999999156638824e+00 -3.0342828622747202e-04 +0.0000000000000000e+00 +9.9999995396563557e-01
5.5499999999999883e+00 +8.5381506924378154e+00 +0.0000000000000000e+00 +5.5499999133411348e+00 -3.0619209541624847e-04 +0.0000000000000000e+00 +9.9999995312319834e-01
5.5999999999999881e+00 +8.5381353137345997e+00 +0.0000000000000000e+00 +5.5999999109760736e+00 -3.0895605902069576e-04 +0.0000000000000000e+00 +9.9999995227307470e-01
5.6499999999999879e+00 +8.5381197968293190e+00 +0.0000000000000000e+00 +5.6499999085683141e+00 -3.1172017827385632e-04 +0.0000000000000000e+00 +9.9999995141526310e-01
5.6999999999999877e+00 +8.5381041417141592e+00 +0.0000000000000000e+00 +5.6999999061174718e+00 -3.1448445439627665e-04 +0.0000000000000000e+00 +9.9999995054976176e-01
5.7499999999999876e+00 +8.5380883483812458e+00 +0.0000000000000000e+00 +5.7499999036231619e+00 -3.1724888859600722e-04 +0.0000000000000000e+00 +9.9999994967656913e-01
5.7999999999999874e+00 +8.5380724168226454e+00 +0.0000000000000000e+00 +5.7999999010850001e+00 -3.2001348206860255e-04 +0.0000000000000000e+00 +9.9999994879568344e-01
5.8499999999999872e+00 +8.5380563470303645e+00 +0.0000000000000000e+00 +5.8499998985026016e+00 -3.2277823599712112e-04 +0.0000000000000000e+00 +9.9999994790710289e-01
5.8999999999999870e+00 +8.5380401389963509e+00 +0.0000000000000000e+00 +5.8999998958755819e+00 -3.2554315155212542e-04 +0.0000000000000000e+00 +9.9999994701082595e-01
