# trajectory
# s[mm] rx[mm] ry[mm] rz[mm] px[rad] py[rad] pz[rad]
0.0000000000000000e+00 +8.2850000000000001e+00 +0.0000000000000000e+00 +0.0000000000000000e+00 +0.0000000000000000e+00 +0.0000000000000000e+00 +1.0000000000000000e+00
-5.0000000000000003e-02 +8.2849999308027709e+00 +0.0000000000000000e+00 -4.9999999999936151e-02 +2.7678924788687994e-06 +0.0000000000000000e+00 +9.9999999999616940e-01
-1.0000000000000001e-01 +8.2849997232104027e+00 +0.0000000000000000e+00 -9.9999999999489247e-02 +5.5358058815314522e-06 +0.0000000000000000e+00 +9.9999999998467748e-01
-1.5000000000000002e-01 +8.2849993772218014e+00 +0.0000000000000000e+00 -1.4999999999827621e-01 +8.3037421366045606e-06 +0.0000000000000000e+00 +9.9999999996552402e-01
-2.0000000000000001e-01 +8.2849988928357767e+00 +0.0000000000000000e+00 -1.9999999999591395e-01 +1.1071703167252469e-05 +0.0000000000000000e+00 +9.9999999993870881e-01
-2.5000000000000000e-01 +8.2849982700510409e+00 +0.0000000000000000e+00 -2.4999999999201938e-01 +1.3839690891187345e-05 +0.0000000000000000e+00 +9.9999999990423161e-01
-2.9999999999999999e-01 +8.2849975088662120e+00 +0.0000000000000000e+00 -2.9999999998620941e-01 +1.6607707220669270e-05 +0.0000000000000000e+00 +9.9999999986209220e-01
-3.4999999999999998e-01 +8.2849966092798102e+00 +0.0000000000000000e+00 -3.4999999997810088e-01 +1.9375754062506325e-05 +0.0000000000000000e+00 +9.9999999981229026e-01
-3.9999999999999997e-01 +8.2849955712902652e+00 +0.0000000000000000e+00 -3.9999999996731073e-01 +2.2143833318054668e-05 +0.0000000000000000e+00 +9.9999999975482556e-01
-4.4999999999999996e-01 +8.2849943948959073e+00 +0.0000000000000000e+00 -4.4999999995345574e-01 +2.4911946883218622e-05 +0.0000000000000000e+00 +9.9999999968969766e-01
-4.9999999999999994e-01 +8.2849930800949743e+00 +0.0000000000000000e+00 -4.9999999993615279e-01 +2.7680096648450750e-05 +0.0000000000000000e+00 +9.9999999961690633e-01
-5.4999999999999993e-01 +8.2849916268856081e+00 +0.0000000000000000e+00 -5.4999999991501869e-01 +3.0448284498751950e-05 +0.0000000000000000e+00 +9.9999999953645125e-01
-5.9999999999999998e-01 +8.2849900352658583e+00 +0.0000000000000000e+00 -5.9999999988967023e-01 +3.3216512313671522e-05 +0.0000000000000000e+00 +9.9999999944833196e-01
-6.5000000000000002e-01 +8.2849883052336804e+00 +0.0000000000000000e+00 -6.4999999985972412e-01 +3.5984781967307258e-05 +0.0000000000000000e+00 +9.9999999935254802e-01
-7.0000000000000007e-01 +8.2849864367869337e+00 +0.0000000000000000e+00 -6.9999999982479721e-01 +3.8753095328305511e-05 +0.0000000000000000e+00 +9.9999999924909910e-01
-7.5000000000000011e-01 +8.2849844299233872e+00 +0.0000000000000000e+00 -7.4999999978450627e-01 +4.1521454259861278e-05 +0.0000000000000000e+00 +9.9999999913798476e-01
-8.0000000000000016e-01 +8.2849822846407175e+00 +0.0000000000000000e+00 -7.9999999973846792e-01 +4.4289860619718281e-05 +0.0000000000000000e+00 +9.9999999901920444e-01
-8.5000000000000020e-01 +8.2849800009365051e+00 +0.0000000000000000e+00 -8.4999999968629891e-01 +4.7058316260169043e-05 +0.0000000000000000e+00 +9.9999999889275770e-01
-9.0000000000000024e-01 +8.2849775788082400e+00 +0.0000000000000000e+00 -8.9999999962761590e-01 +4.9826823028054963e-05 +0.0000000000000000e+00 +9.9999999875864409e-01
-9.5000000000000029e-01 +8.2849750182533199e+00 +0.0000000000000000e+00 -9.4999999956203551e-01 +5.2595382764766389e-05 +0.0000000000000000e+00 +9.9999999861686306e-01
-1.0000000000000002e+00 +8.2849723192690501e+00 +0.0000000000000000e+00 -9.9999999948917440e-01 +5.5363997306242694e-05 +0.0000000000000000e+00 +9.9999999846741405e-01
-1.0500000000000003e+00 +8.2849694818526451e+00 +0.0000000000000000e+00 -1.0499999994086491e+00 +5.8132668482972351e-05 +0.0000000000000000e+00 +9.9999999831029662e-01
-1.1000000000000003e+00 +8.2849665060012274e+00 +0.0000000000000000e+00 -1.0999999993200762e+00 +6.0901398119993005e-05 +0.0000000000000000e+00 +9.9999999814550999e-01
-1.1500000000000004e+00 +8.2849633917118286e+00 +0.0000000000000000e+00 -1.1499999992230723e+00 +6.3670188036891551e-05 +0.0000000000000000e+00 +9.9999999797305372e-01
-1.2000000000000004e+00 +8.2849601389813898e+00 +0.0000000000000000e+00 -1.1999999991172539e+00 +6.6439040047804190e-05 +0.0000000000000000e+00 +9.9999999779292714e-01
-1.2500000000000004e+00 +8.2849567478067598e+00 +0.0000000000000000e+00 -1.2499999990022372e+00 +6.9207955961416530e-05 +0.0000000000000000e+00 +9.9999999760512959e-01
-1.3000000000000005e+00 +8.2849532181846985e+00 +0.0000000000000000e+00 -1.2999999988776390e+00 +7.1976937580963608e-05 +0.0000000000000000e+00 +9.9999999740966039e-01
-1.3500000000000005e+00 +8.2849495501118771e+00 +0.0000000000000000e+00 -1.3499999987430753e+00 +7.4745986704230017e-05 +0.0000000000000000e+00 +9.9999999720651889e-01
-1.4000000000000006e+00 +8.2849457435848741e+00 +0.0000000000000000e+00 -1.3999999985981628e+00 +7.7515105123549926e-05 +0.0000000000000000e+00 +9.9999999699570441e-01
-1.4500000000000006e+00 +8.2849417986001797e+00 +0.0000000000000000e+00 -1.4499999984425178e+00 +8.0284294625807169e-05 +0.0000000000000000e+00 +9.9999999677721618e-01
-1.5000000000000007e+00 +8.2849377151541965e+00 +0.0000000000000000e+00 -1.4999999982757566e+00 +8.3053556992435321e-05 +0.0000000000000000e+00 +9.9999999655105354e-01
-1.5500000000000007e+00 +8.2849334932432370e+00 +0.0000000000000000e+00 -1.5499999980974952e+00 +8.5822893999417754e-05 +0.0000000000000000e+00 +9.9999999631721559e-01
-1.6000000000000008e+00 +8.2849291328635228e+00 +0.0000000000000000e+00 -1.5999999979073500e+00 +8.8592307417287693e-05 +0.0000000000000000e+00 +9.9999999607570167e-01
-1.6500000000000008e+00 +8.2849246340111922e+00 +0.0000000000000000e+00 -1.6499999977049373e+00 +9.1361799011128292e-05 +0.0000000000000000e+00 +9.9999999582651100e-01
-1.7000000000000008e+00 +8.2849199966822908e+00 +0.0000000000000000e+00 -1.6999999974898732e+00 +9.4131370540572709e-05 +0.0000000000000000e+00 +9.9999999556964270e-01
-1.7500000000000009e+00 +8.2849152208727777e+00 +0.0000000000000000e+00 -1.7499999972617737e+00 +9.6901023759804141e-05 +0.0000000000000000e+00 +9.9999999530509598e-01
-1.8000000000000009e+00 +8.2849103065785243e+00 +0.0000000000000000e+00 -1.7999999970202549e+00 +9.9670760417555908e-05 +0.0000000000000000e+00 +9.9999999503286996e-01
-1.8500000000000010e+00 +8.2849052537953156e+00 +0.0000000000000000e+00 -1.8499999967649328e+00 +1.0244058225711152e-04 +0.0000000000000000e+00 +9.9999999475296375e-01
-1.9000000000000010e+00 +8.2849000625188491e+00 +0.0000000000000000e+00 -1.8999999964954233e+00 +1.0521049101630473e-04 +0.0000000000000000e+00 +9.9999999446537646e-01
-1.9500000000000011e+00 +8.2848947327447355e+00 +0.0000000000000000e+00 -1.9499999962113423e+00 +1.0798048842751956e-04 +0.0000000000000000e+00 +9.9999999417010721e-01
-2.0000000000000009e+00 +8.2848892644685002e+00 +0.0000000000000000e+00 -1.9999999959123058e+00 +1.1075057621769043e-04 +0.0000000000000000e+00 +9.9999999386715510e-01
-2.0500000000000007e+00 +8.2848836576855795e+00 +0.0000000000000000e+00 -2.0499999955979296e+00 +1.1352075610805889e-04 +0.0000000000000000e+00 +9.9999999355651914e-01
-2.1000000000000005e+00 +8.2848779123913268e+00 +0.0000000000000000e+00 -2.0999999952678294e+00 +1.1629102981149755e-04 +0.0000000000000000e+00 +9.9999999323819833e-01
-2.1500000000000004e+00 +8.2848720285810078e+00 +0.0000000000000000e+00 -2.1499999949216213e+00 +1.1906139902983403e-04 +0.0000000000000000e+00 +9.9999999291219177e-01
-2.2000000000000002e+00 +8.2848660062498034e+00 +0.0000000000000000e+00 -2.1999999945589206e+00 +1.2183186545360771e-04 +0.0000000000000000e+00 +9.9999999257849836e-01
-2.2500000000000000e+00 +8.2848598453928144e+00 +0.0000000000000000e+00 -2.2499999941793432e+00 +1.2460243076206986e-04 +0.0000000000000000e+00 +9.9999999223711722e-01
-2.2999999999999998e+00 +8.2848535460050527e+00 +0.0000000000000000e+00 -2.2999999937825044e+00 +1.2737309662318362e-04 +0.0000000000000000e+00 +9.9999999188804722e-01
-2.3499999999999996e+00 +8.2848471080814488e+00 +0.0000000000000000e+00 -2.3499999933680198e+00 +1.3014386469362409e-04 +0.0000000000000000e+00 +9.9999999153128738e-01
-2.3999999999999995e+00 +8.2848405316168527e+00 +0.0000000000000000e+00 -2.3999999929355051e+00 +1.3291473661877843e-04 +0.0000000000000000e+00 +9.9999999116683658e-01
-2.4499999999999993e+00 +8.2848338166060298e+00 +0.0000000000000000e+00 -2.4499999924845755e+00 +1.3568571403274583e-04 +0.0000000000000000e+00 +9.9999999079469370e-01
-2.4999999999999991e+00 +8.2848269630436651e+00 +0.0000000000000000e+00 -2.4999999920148461e+00 +1.3845679855833761e-04 +0.0000000000000000e+00 +9.9999999041485765e-01
-2.5499999999999989e+00 +8.2848199709243620e+00 +0.0000000000000000e+00 -2.5499999915259326e+00 +1.4122799180707734e-04 +0.0000000000000000e+00 +9.9999999002732731e-01
-2.5999999999999988e+00 +8.2848128402426457e+00 +0.0000000000000000e+00 -2.5999999910174503e+00 +1.4399929537920080e-04 +0.0000000000000000e+00 +9.9999998963210157e-01
-2.6499999999999986e+00 +8.2848055709929600e+00 +0.0000000000000000e+00 -2.6499999904890146e+00 +1.4677071086365609e-04 +0.0000000000000000e+00 +9.9999998922917932e-01
-2.6999999999999984e+00 +8.2847981631696683e+00 +0.0000000000000000e+00 -2.6999999899402400e+00 +1.4954223983810365e-04 +0.0000000000000000e+00 +9.9999998881855934e-01
-2.7499999999999982e+00 +8.2847906167670580e+00 +0.0000000000000000e+00 -2.7499999893707421e+00 +1.5231388386891640e-04 +0.0000000000000000e+00 +9.9999998840024051e-01
-2.7999999999999980e+00 +8.2847829317793380e+00 +0.0000000000000000e+00 -2.7999999887801357e+00 +1.5508564451117965e-04 +0.0000000000000000e+00 +9.9999998797422152e-01
-2.8499999999999979e+00 +8.2847751082006376e+00 +0.0000000000000000e+00 -2.8499999881680358e+00 +1.5785752330869129e-04 +0.0000000000000000e+00 +9.9999998754050123e-01
-2.8999999999999977e+00 +8.2847671460250112e+00 +0.0000000000000000e+00 -2.8999999875340574e+00 +1.6062952179396177e-04 +0.0000000000000000e+00 +9.9999998709907845e-01
-2.9499999999999975e+00 +8.2847590452464370e+00 +0.0000000000000000e+00 -2.9499999868778151e+00 +1.6340164148821417e-04 +0.0000000000000000e+00 +9.9999998664995182e-01
-2.9999999999999973e+00 +8.2847508058588168e+00 +0.0000000000000000e+00 -2.9999999861989242e+00 +1.6617388390138425e-04 +0.0000000000000000e+00 +9.9999998619312014e-01
-3.0499999999999972e+00 +8.2847424278559760e+00 +0.0000000000000000e+00 -3.0499999854969988e+00 +1.6894625053212055e-04 +0.0000000000000000e+00 +9.9999998572858217e-01
-3.0999999999999970e+00 +8.2847339112316671e+00 +0.0000000000000000e+00 -3.0999999847716539e+00 +1.7171874286778433e-04 +0.0000000000000000e+00 +9.9999998525633660e-01
-3.1499999999999968e+00 +8.2847252559795681e+00 +0.0000000000000000e+00 -3.1499999840225041e+00 +1.7449136238444977e-04 +0.0000000000000000e+00 +9.9999998477638219e-01
-3.1999999999999966e+00 +8.2847164620932841e+00 +0.0000000000000000e+00 -3.1999999832491639e+00 +1.7726411054690385e-04 +0.0000000000000000e+00 +9.9999998428871750e-01
-3.2499999999999964e+00 +8.2847075295663455e+00 +0.0000000000000000e+00 -3.2499999824512473e+00 +1.8003698880864654e-04 +0.0000000000000000e+00 +9.9999998379334132e-01
-3.2999999999999963e+00 +8.2846984583922119e+00 +0.0000000000000000e+00 -3.2999999816283694e+00 +1.8280999861189080e-04 +0.0000000000000000e+00 +9.9999998329025219e-01
-3.3499999999999961e+00 +8.2846892485642680e+00 +0.0000000000000000e+00 -3.3499999807801442e+00 +1.8558314138756264e-04 +0.0000000000000000e+00 +9.9999998277944879e-01
-3.3999999999999959e+00 +8.2846799000758331e+00 +0.0000000000000000e+00 -3.3999999799061857e+00 +1.8835641855530111e-04 +0.0000000000000000e+00 +9.9999998226092979e-01
-3.4499999999999957e+00 +8.2846704129201498e+00 +0.0000000000000000e+00 -3.4499999790061087e+00 +1.9112983152345844e-04 +0.0000000000000000e+00 +9.9999998173469373e-01
-3.4999999999999956e+00 +8.2846607870903934e+00 +0.0000000000000000e+00 -3.4999999780795266e+00 +1.9390338168909999e-04 +0.0000000000000000e+00 +9.9999998120073930e-01
-3.5499999999999954e+00 +8.2846510225796699e+00 +0.0000000000000000e+00 -3.5499999771260540e+00 +1.9667707043800442e-04 +0.0000000000000000e+00 +9.9999998065906504e-01
-3.5999999999999952e+00 +8.2846411193810159e+00 +0.0000000000000000e+00 -3.5999999761453045e+00 +1.9945089914466359e-04 +0.0000000000000000e+00 +9.9999998010966951e-01
-3.6499999999999950e+00 +8.2846310774873988e+00 +0.0000000000000000e+00 -3.6499999751368923e+00 +2.0222486917228274e-04 +0.0000000000000000e+00 +9.9999997955255127e-01
-3.6999999999999948e+00 +8.2846208968917203e+00 +0.0000000000000000e+00 -3.6999999741004310e+00 +2.0499898187278042e-04 +0.0000000000000000e+00 +9.9999997898770887e-01
-3.7499999999999947e+00 +8.2846105775868111e+00 +0.0000000000000000e+00 -3.7499999730355347e+00 +2.0777323858678866e-04 +0.0000000000000000e+00 +9.9999997841514077e-01
-3.7999999999999945e+00 +8.2846001195654395e+00 +0.0000000000000000e+00 -3.7999999719418165e+00 +2.1054764064365288e-04 +0.0000000000000000e+00 +9.9999997783484562e-01
-3.8499999999999943e+00 +8.2845895228203030e+00 +0.0000000000000000e+00 -3.8499999708188906e+00 +2.1332218936143200e-04 +0.0000000000000000e+00 +9.9999997724682188e-01
-3.8999999999999941e+00 +8.2845787873440369e+00 +0.0000000000000000e+00 -3.8999999696663701e+00 +2.1609688604689852e-04 +0.0000000000000000e+00 +9.9999997665106799e-01
-3.9499999999999940e+00 +8.2845679131292105e+00 +0.0000000000000000e+00 -3.9499999684838687e+00 +2.1887173199553850e-04 +0.0000000000000000e+00 +9.9999997604758251e-01
-3.9999999999999938e+00 +8.2845569001683277e+00 +0.0000000000000000e+00 -3.9999999672709996e+00 +2.2164672849155163e-04 +0.0000000000000000e+00 +9.9999997543636387e-01
-4.0499999999999936e+00 +8.2845457484538301e+00 +0.0000000000000000e+00 -4.0499999660273760e+00 +2.2442187680770900e-04 +0.0000000000000000e+00 +9.9999997481741054e-01
-4.0999999999999934e+00 +8.2845344579780953e+00 +0.0000000000000000e+00 -4.0999999647526115e+00 +2.2719717820378802e-04 +0.0000000000000000e+00 +9.9999997419072106e-01
-4.1499999999999932e+00 +8.2845230287334370e+00 +0.0000000000000000e+00 -4.1499999634463194e+00 +2.2997263392500740e-04 +0.0000000000000000e+00 +9.9999997355629378e-01
-4.1999999999999931e+00 +8.2845114607121104e+00 +0.0000000000000000e+00 -4.1999999621081123e+00 +2.3274824520188488e-04 +0.0000000000000000e+00 +9.9999997291412712e-01
-4.2499999999999929e+00 +8.2844997539063048e+00 +0.0000000000000000e+00 -4.2499999607376031e+00 +2.3552401325023723e-04 +0.0000000000000000e+00 +9.9999997226421955e-01
-4.2999999999999927e+00 +8.2844879083081526e+00 +0.0000000000000000e+00 -4.2999999593344054e+00 +2.3829993927118021e-04 +0.0000000000000000e+00 +9.9999997160656939e-01
-4.3499999999999925e+00 +8.2844759239097243e+00 +0.0000000000000000e+00 -4.3499999578981310e+00 +2.4107602445112863e-04 +0.0000000000000000e+00 +9.9999997094117510e-01
-4.3999999999999924e+00 +8.2844638007030351e+00 +0.0000000000000000e+00 -4.3999999564283936e+00 +2.4385226996179638e-04 +0.0000000000000000e+00 +9.9999997026803511e-01
-4.4499999999999922e+00 +8.2844515386800381e+00 +0.0000000000000000e+00 -4.4499999549248050e+00 +2.4662867696019633e-04 +0.0000000000000000e+00 +9.9999996958714776e-01
-4.4999999999999920e+00 +8.2844391378326296e+00 +0.0000000000000000e+00 -4.4999999533869790e+00 +2.4940524658864036e-04 +0.0000000000000000e+00 +9.9999996889851139e-01
-4.5499999999999918e+00 +8.2844265981526508e+00 +0.0000000000000000e+00 -4.5499999518145273e+00 +2.5218197997473946e-04 +0.0000000000000000e+00 +9.9999996820212433e-01
-4.5999999999999917e+00 +8.2844139196318842e+00 +0.0000000000000000e+00 -4.5999999502070628e+00 +2.5495887823140357e-04 +0.0000000000000000e+00 +9.9999996749798503e-01
-4.6499999999999915e+00 +8.2844011022620609e+00 +0.0000000000000000e+00 -4.6499999485641972e+00 +2.5773594245684172e-04 +0.0000000000000000e+00 +9.9999996678609182e-01
-4.6999999999999913e+00 +8.2843881460348552e+00 +0.0000000000000000e+00 -4.6999999468855425e+00 +2.6051317373456187e-04 +0.0000000000000000e+00 +9.9999996606644292e-01
-4.7499999999999911e+00 +8.2843750509418861e+00 +0.0000000000000000e+00 -4.7499999451707122e+00 +2.6329057313337107e-04 +0.0000000000000000e+00 +9.9999996533903679e-01
-4.7999999999999909e+00 +8.2843618169747213e+00 +0.0000000000000000e+00 -4.7999999434193175e+00 +2.6606814170737533e-04 +0.0000000000000000e+00 +9.9999996460387175e-01
-4.8499999999999908e+00 +8.2843484441248769e+00 +0.0000000000000000e+00 -4.8499999416309700e+00 +2.6884588049597960e-04 +0.0000000000000000e+00 +9.9999996386094603e-01
-4.8999999999999906e+00 +8.2843349323838176e+00 +0.0000000000000000e+00 -4.8999999398052827e+00 +2.7162379052388786e-04 +0.0000000000000000e+00 +9.9999996311025796e-01
-4.9499999999999904e+00 +8.2843212817429546e+00 +0.0000000000000000e+00 -4.9499999379418664e+00 +2.7440187280110306e-04 +0.0000000000000000e+00 +9.9999996235180577e-01
-4.9999999999999902e+00 +8.2843074921936513e+00 +0.0000000000000000e+00 -4.9999999360403340e+00 +2.7718012832292702e-04 +0.0000000000000000e+00 +9.9999996158558790e-01
-5.0499999999999901e+00 +8.2842935637272195e+00 +0.0000000000000000e+00 -5.0499999341002964e+00 +2.7995855806996049e-04 +0.0000000000000000e+00 +9.9999996081160247e-01
-5.0999999999999899e+00 +8.2842794963349249e+00 +0.0000000000000000e+00 -5.0999999321213654e+00 +2.8273716300810319e-04 +0.0000000000000000e+00 +9.9999996002984792e-01
-5.1499999999999897e+00 +8.2842652900079834e+00 +0.0000000000000000e+00 -5.1499999301031520e+00 +2.8551594408855366e-04 +0.0000000000000000e+00 +9.9999995924032237e-01
-5.1999999999999895e+00 +8.2842509447375647e+00 +0.0000000000000000e+00 -5.1999999280452682e+00 +2.8829490224780932e-04 +0.0000000000000000e+00 +9.9999995844302414e-01
-5.2499999999999893e+00 +8.2842364605147925e+00 +0.0000000000000000e+00 -5.2499999259473249e+00 +2.9107403840766642e-04 +0.0000000000000000e+00 +9.9999995763795146e-01
-5.2999999999999892e+00 +8.2842218373307421e+00 +0.0000000000000000e+00 -5.2999999238089339e+00 +2.9385335347522002e-04 +0.0000000000000000e+00 +9.9999995682510268e-01
-5.3499999999999890e+00 +8.2842070751764485e+00 +0.0000000000000000e+00 -5.3499999216297054e+00 +2.9663284834286396e-04 +0.0000000000000000e+00 +9.9999995600447600e-01
-5.3999999999999888e+00 +8.2841921740428965e+00 +0.0000000000000000e+00 -5.3999999194092512e+00 +2.9941252388829092e-04 +0.0000000000000000e+00 +9.9999995517606954e-01
-5.4499999999999886e+00 +8.2841771339210339e+00 +0.0000000000000000e+00 -5.4499999171471822e+00 +3.0219238097449214e-04 +0.0000000000000000e+00 +9.9999995433988165e-01
-5.4999999999999885e+00 +8.2841619548017604e+00 +0.0000000000000000e+00 -5.4999999148431096e+00 +3.0497242044975773e-04 +0.0000000000000000e+00 +9.9999995349591053e-01
-5.5499999999999883e+00 +8.2841466366759349e+00 +0.0000000000000000e+00 -5.5499999124966433e+00 +3.0775264314767634e-04 +0.0000000000000000e+00 +9.9999995264415442e-01
-5.5999999999999881e+00 +8.2841311795343771e+00 +0.0000000000000000e+00 -5.5999999101073952e+00 +3.1053304988713532e-04 +0.0000000000000000e+00 +9.9999995178461154e-01
-5.6499999999999879e+00 +8.2841155833678641e+00 +0.0000000000000000e+00 -5.6499999076749745e+00 +3.1331364147232053e-04 +0.0000000000000000e+00 +9.9999995091728011e-01
-5.6999999999999877e+00 +8.2840998481671360e+00 +0.0000000000000000e+00 -5.6999999051989931e+00 +3.1609441869271651e-04 +0.0000000000000000e+00 +9.9999995004215825e-01
-5.7499999999999876e+00 +8.2840839739228898e+00 +0.0000000000000000e+00 -5.7499999026790602e+00 +3.1887538232310626e-04 +0.0000000000000000e+00 +9.9999994915924428e-01
-5.7999999999999874e+00 +8.2840679606257854e+00 +0.0000000000000000e+00 -5.7999999001147868e+00 +3.2165653312357125e-04 +0.0000000000000000e+00 +9.9999994826853633e-01
-5.8499999999999872e+00 +8.2840518082664456e+00 +0.0000000000000000e+00 -5.8499998975057839e+00 +3.2443787183949135e-04 +0.0000000000000000e+00 +9.9999994737003262e-01
