# field on trajectory
# s[mm] rx[mm] ry[mm] rz[mm] bx[T] by[T] bz[T]
-0.0000000000000000e+00 +8.5269999999999904e+00 +0.0000000000000000e+00 -0.0000000000000000e+00 -2.8413085387523126e-02 -5.5188831008753325e-01 +5.2599199323735499e-03
-5.0000000000000003e-02 +8.5269999309457507e+00 +0.0000000000000000e+00 -4.9999999999936401e-02 -2.8412692668490131e-02 -5.5188903537872658e-01 +5.2608753617180036e-03
-1.0000000000000001e-01 +8.5269997237883199e+00 +0.0000000000000000e+00 -9.9999999999491399e-02 -2.8412321606588044e-02 -5.5189016285566428e-01 +5.2618378528963838e-03
-1.4999999999999999e-01 +8.5269993785295792e+00 +0.0000000000000000e+00 -1.4999999999828301e-01 -2.8411972192563154e-02 -5.5189169190538367e-01 +5.2628073485951124e-03
-2.0000000000000001e-01 +8.5269988951622508e+00 +0.0000000000000000e+00 -1.9999999999593099e-01 -2.8411644417166631e-02 -5.5189362191500468e-01 +5.2637837915014913e-03
-2.5000000000000000e-01 +8.5269982736936107e+00 +0.0000000000000000e+00 -2.4999999999205300e-01 -2.8411338271145156e-02 -5.5189595227156207e-01 +5.2647671243021927e-03
-2.9999999999999999e-01 +8.5269975141200103e+00 +0.0000000000000000e+00 -2.9999999998626797e-01 -2.8411053745250953e-02 -5.5189868236218653e-01 +5.2657572896848822e-03
-3.4999999999999998e-01 +8.5269966164378292e+00 +0.0000000000000000e+00 -3.4999999997819298e-01 -2.8410790830237436e-02 -5.5190181157402673e-01 +5.2667542303375132e-03
-4.0000000000000002e-01 +8.5269955806543294e+00 +0.0000000000000000e+00 -3.9999999996744900e-01 -2.8410549516854931e-02 -5.5190533929417085e-01 +5.2677578889476417e-03
-4.5000000000000001e-01 +8.5269944067658798e+00 +0.0000000000000000e+00 -4.4999999995365297e-01 -2.8410329795859241e-02 -5.5190926490980308e-01 +5.2687682082038102e-03
-5.0000000000000000e-01 +8.5269930947724806e+00 +0.0000000000000000e+00 -4.9999999993642402e-01 -2.8410131658005898e-02 -5.5191358780809974e-01 +5.2697851307946077e-03
-5.5000000000000004e-01 +8.5269916446777607e+00 +0.0000000000000000e+00 -5.4999999991537996e-01 -2.8409955094050112e-02 -5.5191830737622771e-01 +5.2708085994086868e-03
-5.9999999999999998e-01 +8.5269900564744603e+00 +0.0000000000000000e+00 -5.9999999989013997e-01 -2.8409800094752548e-02 -5.5192342300144948e-01 +5.2718385567356750e-03
-6.5000000000000002e-01 +8.5269883301661995e+00 +0.0000000000000000e+00 -6.4999999986032297e-01 -2.8409666650870673e-02 -5.5192893407096777e-01 +5.2728749454647866e-03
-6.9999999999999996e-01 +8.5269864657566394e+00 +0.0000000000000000e+00 -6.9999999982554695e-01 -2.8409554753162997e-02 -5.5193483997200077e-01 +5.2739177082855122e-03
-7.5000000000000000e-01 +8.5269844632421208e+00 +0.0000000000000000e+00 -7.4999999978543097e-01 -2.8409464392392010e-02 -5.5194114009183715e-01 +5.2749667878880836e-03
-8.0000000000000004e-01 +8.5269823226226400e+00 +0.0000000000000000e+00 -7.9999999973959202e-01 -2.8409395559319824e-02 -5.5194783381775603e-01 +5.2760221269627884e-03
-8.4999999999999998e-01 +8.5269800438982202e+00 +0.0000000000000000e+00 -8.4999999968765005e-01 -2.8409348244709500e-02 -5.5195492053705242e-01 +5.2770836682001646e-03
-9.0000000000000002e-01 +8.5269776270688507e+00 +0.0000000000000000e+00 -8.9999999962922395e-01 -2.8409322439325181e-02 -5.5196239963703919e-01 +5.2781513542910375e-03
-9.4999999999999996e-01 +8.5269750721381605e+00 +0.0000000000000000e+00 -9.4999999956393100e-01 -2.8409318133930567e-02 -5.5197027050501979e-01 +5.2792251279262662e-03
-1.0000000000000000e+00 +8.5269723790988792e+00 +0.0000000000000000e+00 -9.9999999949139096e-01 -2.8409335319294602e-02 -5.5197853252839124e-01 +5.2803049317976759e-03
-1.0500000000000000e+00 +8.5269695479546499e+00 +0.0000000000000000e+00 -1.0499999994112199e+00 -2.8409373986182897e-02 -5.5198718509448930e-01 +5.2813907085966505e-03
-1.1000000000000001e+00 +8.5269665787091107e+00 +0.0000000000000000e+00 -1.0999999993230400e+00 -2.8409434125362006e-02 -5.5199622759066558e-01 +5.2824824010148418e-03
-1.1499999999999999e+00 +8.5269634713586093e+00 +0.0000000000000000e+00 -1.1499999992264700e+00 -2.8409515727602249e-02 -5.5200565940434032e-01 +5.2835799517446293e-03
-1.2000000000000000e+00 +8.5269602259031707e+00 +0.0000000000000000e+00 -1.1999999991211201e+00 -2.8409618783673436e-02 -5.5201547992292321e-01 +5.2846833034784152e-03
-1.2500000000000000e+00 +8.5269568423427700e+00 +0.0000000000000000e+00 -1.2499999990066200e+00 -2.8409743284346225e-02 -5.5202568853384038e-01 +5.2857923989088574e-03
-1.3000000000000000e+00 +8.5269533206774195e+00 +0.0000000000000000e+00 -1.2999999988825901e+00 -2.8409889220392177e-02 -5.5203628462453291e-01 +5.2869071807288776e-03
-1.3500000000000001e+00 +8.5269496609071194e+00 +0.0000000000000000e+00 -1.3499999987486300e+00 -2.8410056582583668e-02 -5.5204726758245837e-01 +5.2880275916316341e-03
-1.3999999999999999e+00 +8.5269458630355093e+00 +0.0000000000000000e+00 -1.3999999986043801e+00 -2.8410245361692479e-02 -5.5205863679506240e-01 +5.2891535743103107e-03
-1.4500000000000000e+00 +8.5269419270553009e+00 +0.0000000000000000e+00 -1.4499999984494401e+00 -2.8410455548495500e-02 -5.5207039164988592e-01 +5.2902850714590449e-03
-1.5000000000000000e+00 +8.5269378529737896e+00 +0.0000000000000000e+00 -1.4999999982834400e+00 -2.8410687133764646e-02 -5.5208253153437858e-01 +5.2914220257712745e-03
-1.5500000000000000e+00 +8.5269336407873197e+00 +0.0000000000000000e+00 -1.5499999981060000e+00 -2.8410940108276949e-02 -5.5209505583608576e-01 +5.2925643799413861e-03
-1.6000000000000001e+00 +8.5269292904959002e+00 +0.0000000000000000e+00 -1.5999999979167401e+00 -2.8411214462808719e-02 -5.5210796394254047e-01 +5.2937120766637811e-03
-1.6499999999999999e+00 +8.5269248020995292e+00 +0.0000000000000000e+00 -1.6499999977152600e+00 -2.8411510188137038e-02 -5.5212125524129052e-01 +5.2948650586330959e-03
-1.7000000000000000e+00 +8.5269201755982102e+00 +0.0000000000000000e+00 -1.6999999975011999e+00 -2.8411827275039665e-02 -5.5213492911989881e-01 +5.2960232685442012e-03
-1.7500000000000000e+00 +8.5269154109919292e+00 +0.0000000000000000e+00 -1.7499999972741700e+00 -2.8412165714295067e-02 -5.5214898496594267e-01 +5.2971866490922103e-03
-1.8000000000000000e+00 +8.5269105082843506e+00 +0.0000000000000000e+00 -1.7999999970337901e+00 -2.8412525496680958e-02 -5.5216342216698799e-01 +5.2983551429722194e-03
-1.8500000000000001e+00 +8.5269054674718099e+00 +0.0000000000000000e+00 -1.8499999967796801e+00 -2.8412906612978597e-02 -5.5217824011066763e-01 +5.2995286928800523e-03
-1.8999999999999999e+00 +8.5269002885506797e+00 +0.0000000000000000e+00 -1.8999999965114500e+00 -2.8413309053969844e-02 -5.5219343818462796e-01 +5.3007072415117446e-03
-1.9500000000000000e+00 +8.5268949715282396e+00 +0.0000000000000000e+00 -1.9499999962287300e+00 -2.8413732810432923e-02 -5.5220901577645165e-01 +5.3018907315628494e-03
-2.0000000000000000e+00 +8.5268895164008391e+00 +0.0000000000000000e+00 -1.9999999959311201e+00 -2.8414177873150925e-02 -5.5222497227381373e-01 +5.3030791057298628e-03
-2.0499999999999998e+00 +8.5268839230666291e+00 +0.0000000000000000e+00 -2.0499999956182600e+00 -2.8414644219440757e-02 -5.5224130674622152e-01 +5.3042723054490008e-03
-2.1000000000000001e+00 +8.5268781914164702e+00 +0.0000000000000000e+00 -2.0999999952897199e+00 -2.8415131772600782e-02 -5.5225801698767918e-01 +5.3054702670892340e-03
-2.1499999999999999e+00 +8.5268723214576294e+00 +0.0000000000000000e+00 -2.1499999949451398e+00 -2.8415640442378938e-02 -5.5227510047246786e-01 +5.3066729257449314e-03
-2.2000000000000002e+00 +8.5268663131864706e+00 +0.0000000000000000e+00 -2.1999999945841302e+00 -2.8416170138528662e-02 -5.5229255467495997e-01 +5.3078802165111433e-03
-2.2500000000000000e+00 +8.5268601666030008e+00 +0.0000000000000000e+00 -2.2499999942063100e+00 -2.8416720770803122e-02 -5.5231037706951247e-01 +5.3090920744826488e-03
-2.2999999999999998e+00 +8.5268538817035697e+00 +0.0000000000000000e+00 -2.2999999938113000e+00 -2.8417292248958149e-02 -5.5232856513052198e-01 +5.3103084347544110e-03
-2.3500000000000001e+00 +8.5268474584954692e+00 +0.0000000000000000e+00 -2.3499999933987001e+00 -2.8417884482746500e-02 -5.5234711633231570e-01 +5.3115292324205981e-03
-2.3999999999999999e+00 +8.5268408969750507e+00 +0.0000000000000000e+00 -2.3999999929681501e+00 -2.8418497381926425e-02 -5.5236602814931246e-01 +5.3127544025760136e-03
-2.4500000000000002e+00 +8.5268341971459396e+00 +0.0000000000000000e+00 -2.4499999925192602e+00 -2.8419130856254648e-02 -5.5238529805588898e-01 +5.3139838803148796e-03
-2.5000000000000000e+00 +8.5268273590008903e+00 +0.0000000000000000e+00 -2.4999999920516398e+00 -2.8419784815493399e-02 -5.5240492352651138e-01 +5.3152176007320237e-03
-2.5499999999999998e+00 +8.5268203825435194e+00 +0.0000000000000000e+00 -2.5499999915649201e+00 -2.8420459169401918e-02 -5.5242490203557748e-01 +5.3164554989214158e-03
-2.6000000000000001e+00 +8.5268132677774702e+00 +0.0000000000000000e+00 -2.5999999910586999e+00 -2.8421153827740769e-02 -5.5244523105749599e-01 +5.3176975099768773e-03
-2.6499999999999999e+00 +8.5268060146954703e+00 +0.0000000000000000e+00 -2.6499999905326099e+00 -2.8421868700276142e-02 -5.5246590806676465e-01 +5.3189435689927934e-03
-2.7000000000000002e+00 +8.5267986233047797e+00 +0.0000000000000000e+00 -2.6999999899862699e+00 -2.8422603696769817e-02 -5.5248693053778497e-01 +5.3201936110623960e-03
-2.7500000000000000e+00 +8.5267910936017905e+00 +0.0000000000000000e+00 -2.7499999894192899e+00 -2.8423358726989263e-02 -5.5250829594504869e-01 +5.3214475712794586e-03
-2.7999999999999998e+00 +8.5267834255828294e+00 +0.0000000000000000e+00 -2.7999999888312899e+00 -2.8424133700703326e-02 -5.5253000176305622e-01 +5.3227053847375357e-03
-2.8500000000000001e+00 +8.5267756192552007e+00 +0.0000000000000000e+00 -2.8499999882218900e+00 -2.8424928527677897e-02 -5.5255204546623815e-01 +5.3239669865292284e-03
-2.8999999999999999e+00 +8.5267676746152592e+00 +0.0000000000000000e+00 -2.8999999875907001e+00 -2.8425743117684640e-02 -5.5257442452911343e-01 +5.3252323117476269e-03
-2.9500000000000002e+00 +8.5267595916629908e+00 +0.0000000000000000e+00 -2.9499999869373399e+00 -2.8426577380495213e-02 -5.5259713642618435e-01 +5.3265012954853228e-03
-3.0000000000000000e+00 +8.5267513703984203e+00 +0.0000000000000000e+00 -2.9999999862614302e+00 -2.8427431225882663e-02 -5.5262017863196056e-01 +5.3277738728346319e-03
-3.0499999999999998e+00 +8.5267430108251592e+00 +0.0000000000000000e+00 -3.0499999855625899e+00 -2.8428304563620128e-02 -5.5264354862093534e-01 +5.3290499788873381e-03
-3.1000000000000001e+00 +8.5267345129359509e+00 +0.0000000000000000e+00 -3.0999999848404300e+00 -2.8429197303486520e-02 -5.5266724386768806e-01 +5.3303295487356576e-03
-3.1499999999999999e+00 +8.5267258767344192e+00 +0.0000000000000000e+00 -3.1499999840945798e+00 -2.8430109355257922e-02 -5.5269126184672812e-01 +5.3316125174707515e-03
-3.2000000000000002e+00 +8.5267171022205694e+00 +0.0000000000000000e+00 -3.1999999833246400e+00 -2.8431040628713392e-02 -5.5271560003259890e-01 +5.3328988201836900e-03
-3.2500000000000000e+00 +8.5267081893980503e+00 +0.0000000000000000e+00 -3.2499999825302401e+00 -2.8431991033632056e-02 -5.5274025589982501e-01 +5.3341883919649519e-03
-3.2999999999999998e+00 +8.5266991382632096e+00 +0.0000000000000000e+00 -3.2999999817109900e+00 -2.8432960479797497e-02 -5.5276522692299102e-01 +5.3354811679051381e-03
-3.3500000000000001e+00 +8.5266899488124199e+00 +0.0000000000000000e+00 -3.3499999808665200e+00 -2.8433948876994856e-02 -5.5279051057668938e-01 +5.3367770830944645e-03
-3.3999999999999999e+00 +8.5266806210529502e+00 +0.0000000000000000e+00 -3.3999999799964300e+00 -2.8434956135006514e-02 -5.5281610433544015e-01 +5.3380760726220193e-03
-3.4500000000000002e+00 +8.5266711549811607e+00 +0.0000000000000000e+00 -3.4499999791003502e+00 -2.8435982163620831e-02 -5.5284200567384978e-01 +5.3393780715772152e-03
-3.5000000000000000e+00 +8.5266615505970496e+00 +0.0000000000000000e+00 -3.4999999781778901e+00 -2.8437026872626277e-02 -5.5286821206650438e-01 +5.3406830150487875e-03
-3.5499999999999998e+00 +8.5266518079006293e+00 +0.0000000000000000e+00 -3.5499999772286701e+00 -2.8438090171813001e-02 -5.5289472098799708e-01 +5.3419908381250299e-03
-3.6000000000000001e+00 +8.5266419268882601e+00 +0.0000000000000000e+00 -3.5999999762523198e+00 -2.8439171970974265e-02 -5.5292152991295351e-01 +5.3433014758940273e-03
-3.6499999999999999e+00 +8.5266319075708505e+00 +0.0000000000000000e+00 -3.6499999752484298e+00 -2.8440272179899164e-02 -5.5294863631589974e-01 +5.3446148634423950e-03
-3.6999999999999900e+00 +8.5266217499374797e+00 +0.0000000000000000e+00 -3.6999999742166398e+00 -2.8441390708387217e-02 -5.5297603767152637e-01 +5.3459309358577485e-03
-3.7499999999999898e+00 +8.5266114539917908e+00 +0.0000000000000000e+00 -3.7499999731565601e+00 -2.8442527466233818e-02 -5.5300373145442361e-01 +5.3472496282262064e-03
-3.7999999999999901e+00 +8.5266010197374307e+00 +0.0000000000000000e+00 -3.7999999720678099e+00 -2.8443682363236102e-02 -5.5303171513918714e-01 +5.3485708756333648e-03
-3.8499999999999899e+00 +8.5265904471671092e+00 +0.0000000000000000e+00 -3.8499999709499999e+00 -2.8444855309197284e-02 -5.5305998620049757e-01 +5.3498946131650205e-03
-3.8999999999999901e+00 +8.5265797362881095e+00 +0.0000000000000000e+00 -3.8999999698027499e+00 -2.8446046213916554e-02 -5.5308854211293457e-01 +5.3512207759054443e-03
-3.9499999999999900e+00 +8.5265688870931609e+00 +0.0000000000000000e+00 -3.9499999686256899e+00 -2.8447254987200625e-02 -5.5311738035118796e-01 +5.3525492989393141e-03
-3.9999999999999898e+00 +8.5265578995895304e+00 +0.0000000000000000e+00 -3.9999999674184199e+00 -2.8448481538852276e-02 -5.5314649838984742e-01 +5.3538801173497411e-03
-4.0499999999999901e+00 +8.5265467737735907e+00 +0.0000000000000000e+00 -4.0499999661805601e+00 -2.8449725770022787e-02 -5.5317589368461850e-01 +5.3552131654883827e-03
-4.0999999999999899e+00 +8.5265355096416897e+00 +0.0000000000000000e+00 -4.0999999649117402e+00 -2.8450987547233787e-02 -5.5320556361534245e-01 +5.3565483747801028e-03
-4.1499999999999897e+00 +8.5265241072047502e+00 +0.0000000000000000e+00 -4.1499999636115703e+00 -2.8452266728342650e-02 -5.5323550554278966e-01 +5.3578856759171102e-03
-4.1999999999999904e+00 +8.5265125664518600e+00 +0.0000000000000000e+00 -4.1999999622796604e+00 -2.8453563171214280e-02 -5.5326571682789227e-01 +5.3592249995930898e-03
-4.2499999999999902e+00 +8.5265008873866499e+00 +0.0000000000000000e+00 -4.2499999609156403e+00 -2.8454876733706568e-02 -5.5329619483147818e-01 +5.3605662765007301e-03
-4.2999999999999901e+00 +8.5264890700091200e+00 +0.0000000000000000e+00 -4.2999999595191198e+00 -2.8456207273677574e-02 -5.5332693691440327e-01 +5.3619094373329587e-03
-4.3499999999999899e+00 +8.5264771143192792e+00 +0.0000000000000000e+00 -4.3499999580897200e+00 -2.8457554648983967e-02 -5.5335794043752518e-01 +5.3632544127827060e-03
-4.3999999999999897e+00 +8.5264650203207601e+00 +0.0000000000000000e+00 -4.3999999566270596e+00 -2.8458918717479589e-02 -5.5338920276167669e-01 +5.3646011335426579e-03
-4.4499999999999904e+00 +8.5264527880062797e+00 +0.0000000000000000e+00 -4.4499999551307496e+00 -2.8460299337021072e-02 -5.5342072124777042e-01 +5.3659495303062495e-03
-4.4999999999999902e+00 +8.5264404173794901e+00 +0.0000000000000000e+00 -4.4999999536004101e+00 -2.8461696365459144e-02 -5.5345249325664059e-01 +5.3672995337661778e-03
-4.5499999999999901e+00 +8.5264279084440204e+00 +0.0000000000000000e+00 -4.5499999520356598e+00 -2.8463109660642881e-02 -5.5348451614912175e-01 +5.3686510746151512e-03
-4.5999999999999899e+00 +8.5264152611962292e+00 +0.0000000000000000e+00 -4.5999999504361098e+00 -2.8464539080422561e-02 -5.5351678728610221e-01 +5.3700040835463880e-03
-4.6499999999999897e+00 +8.5264024756361305e+00 +0.0000000000000000e+00 -4.6499999488013897e+00 -2.8465984482645180e-02 -5.5354930402844249e-01 +5.3713584912528827e-03
-4.6999999999999904e+00 +8.5263895517600794e+00 +0.0000000000000000e+00 -4.6999999471311096e+00 -2.8467445725157366e-02 -5.5358206373703100e-01 +5.3727142284278962e-03
-4.7499999999999902e+00 +8.5263764895753393e+00 +0.0000000000000000e+00 -4.7499999454248902e+00 -2.8468922665799430e-02 -5.5361506377267511e-01 +5.3740712257639624e-03
-4.7999999999999901e+00 +8.5263632890782901e+00 +0.0000000000000000e+00 -4.7999999436823400e+00 -2.8470415162414057e-02 -5.5364830149626099e-01 +5.3754294139544013e-03
-4.8499999999999899e+00 +8.5263499502725608e+00 +0.0000000000000000e+00 -4.8499999419030901e+00 -2.8471923072838936e-02 -5.5368177426862131e-01 +5.3767887236920494e-03
-4.8999999999999897e+00 +8.5263364731472393e+00 +0.0000000000000000e+00 -4.8999999400867402e+00 -2.8473446254915425e-02 -5.5371547945069333e-01 +5.3781490856707947e-03
-4.9499999999999904e+00 +8.5263228577168793e+00 +0.0000000000000000e+00 -4.9499999382329296e+00 -2.8474984566472492e-02 -5.5374941440322667e-01 +5.3795104305827931e-03
-4.9999999999999902e+00 +8.5263091039705596e+00 +0.0000000000000000e+00 -4.9999999363412497e+00 -2.8476537865347002e-02 -5.5378357648715515e-01 +5.3808726891220061e-03
-5.0499999999999901e+00 +8.5262952115954196e+00 +0.0000000000000000e+00 -5.0499999344112600e+00 -2.8478106009494006e-02 -5.5381796306562037e-01 +5.3822357920034671e-03
-5.0999999999999899e+00 +8.5262811802713294e+00 +0.0000000000000000e+00 -5.0999999324424596e+00 -2.8479688856869197e-02 -5.5385257150181699e-01 +5.3835996699428349e-03
-5.1499999999999897e+00 +8.5262670100019005e+00 +0.0000000000000000e+00 -5.1499999304344799e+00 -2.8481286265296529e-02 -5.5388739915656937e-01 +5.3849642536333174e-03
-5.1999999999999904e+00 +8.5262527007798798e+00 +0.0000000000000000e+00 -5.1999999283869203e+00 -2.8482898092601731e-02 -5.5392244339077834e-01 +5.3863294737689377e-03
-5.2499999999999902e+00 +8.5262382526088896e+00 +0.0000000000000000e+00 -5.2499999262994104e+00 -2.8484524196603550e-02 -5.5395770156526269e-01 +5.3876952610430098e-03
-5.2999999999999901e+00 +8.5262236654925800e+00 +0.0000000000000000e+00 -5.2999999241715603e+00 -2.8486164435118002e-02 -5.5399317104083701e-01 +5.3890615461489122e-03
-5.3499999999999899e+00 +8.5262089394273097e+00 +0.0000000000000000e+00 -5.3499999220029704e+00 -2.8487818665961222e-02 -5.5402884917836692e-01 +5.3904282597805843e-03
-5.3999999999999897e+00 +8.5261940744130698e+00 +0.0000000000000000e+00 -5.3999999197932702e+00 -2.8489486746945028e-02 -5.5406473333868689e-01 +5.3917953326317854e-03
-5.4499999999999904e+00 +8.5261790704498708e+00 +0.0000000000000000e+00 -5.4499999175420601e+00 -2.8491168535878315e-02 -5.5410082088262702e-01 +5.3931626953963412e-03
-5.4999999999999902e+00 +8.5261639275377092e+00 +0.0000000000000000e+00 -5.4999999152489698e+00 -2.8492863890566971e-02 -5.5413710917101378e-01 +5.3945302787681464e-03
-5.5499999999999901e+00 +8.5261486456802196e+00 +0.0000000000000000e+00 -5.5499999129136004e+00 -2.8494572668812342e-02 -5.5417359556464318e-01 +5.3958980134409191e-03
-5.5999999999999899e+00 +8.5261332248737691e+00 +0.0000000000000000e+00 -5.5999999105355700e+00 -2.8496294728415555e-02 -5.5421027742435769e-01 +5.3972658301089599e-03
-5.6499999999999897e+00 +8.5261176651147306e+00 +0.0000000000000000e+00 -5.6499999081144896e+00 -2.8498029927174498e-02 -5.5424715211099673e-01 +5.3986336594666565e-03
-5.6999999999999904e+00 +8.5261019664103497e+00 +0.0000000000000000e+00 -5.6999999056499897e+00 -2.8499778122879425e-02 -5.5428421698531360e-01 +5.4000014322077173e-03
-5.7499999999999902e+00 +8.5260861287570204e+00 +0.0000000000000000e+00 -5.7499999031416600e+00 -2.8501539173321572e-02 -5.5432146940813609e-01 +5.4013690790266928e-03
-5.7999999999999901e+00 +8.5260701521547198e+00 +0.0000000000000000e+00 -5.7999999005891203e+00 -2.8503312936287301e-02 -5.5435890674025978e-01 +5.4027365306179792e-03
-5.8499999999999899e+00 +8.5260540366070892e+00 +0.0000000000000000e+00 -5.8499998979920003e+00 -2.8505099269557993e-02 -5.5439652634244785e-01 +5.4041037176758115e-03
