# trajectory
# s[mm] rx[mm] ry[mm] rz[mm] px[rad] py[rad] pz[rad]
0.0000000000000000e+00 +8.2850000000000001e+00 +0.0000000000000000e+00 +0.0000000000000000e+00 +0.0000000000000000e+00 +0.0000000000000000e+00 +1.0000000000000000e+00
5.0000000000000003e-02 +8.2849999309813356e+00 +0.0000000000000000e+00 +4.9999999999936477e-02 -2.7607466973083856e-06 +0.0000000000000000e+00 +9.9999999999618916e-01
1.0000000000000001e-01 +8.2849997239253028e+00 +0.0000000000000000e+00 +9.9999999999491884e-02 -5.5214950232858125e-06 +0.0000000000000000e+00 +9.9999999998475653e-01
1.5000000000000002e-01 +8.2849993788317740e+00 +0.0000000000000000e+00 +1.4999999999828512e-01 -8.2822468739913387e-06 +0.0000000000000000e+00 +9.9999999996570221e-01
2.0000000000000001e-01 +8.2849988957005252e+00 +0.0000000000000000e+00 +1.9999999999593507e-01 -1.1043004141950189e-05 +0.0000000000000000e+00 +9.9999999993902600e-01
2.5000000000000000e-01 +8.2849982745312385e+00 +0.0000000000000000e+00 +2.4999999999206068e-01 -1.3803768716153844e-05 +0.0000000000000000e+00 +9.9999999990472799e-01
2.9999999999999999e-01 +8.2849975153235000e+00 +0.0000000000000000e+00 +2.9999999998628085e-01 -1.6564542482060127e-05 +0.0000000000000000e+00 +9.9999999986280796e-01
3.4999999999999998e-01 +8.2849966180768053e+00 +0.0000000000000000e+00 +3.4999999997821446e-01 -1.9325327321593294e-05 +0.0000000000000000e+00 +9.9999999981326582e-01
3.9999999999999997e-01 +8.2849955827905521e+00 +0.0000000000000000e+00 +3.9999999996748042e-01 -2.2086125113144113e-05 +0.0000000000000000e+00 +9.9999999975610154e-01
4.4999999999999996e-01 +8.2849944094640460e+00 +0.0000000000000000e+00 +4.4999999995369760e-01 -2.4846937731569955e-05 +0.0000000000000000e+00 +9.9999999969131481e-01
4.9999999999999994e-01 +8.2849930980964999e+00 +0.0000000000000000e+00 +4.9999999993648486e-01 -2.7607767048194877e-05 +0.0000000000000000e+00 +9.9999999961890562e-01
5.4999999999999993e-01 +8.2849916486870310e+00 +0.0000000000000000e+00 +5.4999999991546111e-01 -3.0368614930809707e-05 +0.0000000000000000e+00 +9.9999999953887364e-01
5.9999999999999998e-01 +8.2849900612346659e+00 +0.0000000000000000e+00 +5.9999999989024522e-01 -3.3129483243672130e-05 +0.0000000000000000e+00 +9.9999999945121865e-01
6.5000000000000002e-01 +8.2849883357383352e+00 +0.0000000000000000e+00 +6.4999999986045598e-01 -3.5890373847506775e-05 +0.0000000000000000e+00 +9.9999999935594053e-01
7.0000000000000007e-01 +8.2849864721968789e+00 +0.0000000000000000e+00 +6.9999999982571226e-01 -3.8651288599505303e-05 +0.0000000000000000e+00 +9.9999999925303895e-01
7.5000000000000011e-01 +8.2849844706090430e+00 +0.0000000000000000e+00 +7.4999999978563281e-01 -4.1412229353326481e-05 +0.0000000000000000e+00 +9.9999999914251358e-01
8.0000000000000016e-01 +8.2849823309734809e+00 +0.0000000000000000e+00 +7.9999999973983649e-01 -4.4173197959096264e-05 +0.0000000000000000e+00 +9.9999999902436421e-01
8.5000000000000020e-01 +8.2849800532887521e+00 +0.0000000000000000e+00 +8.4999999968794215e-01 -4.6934196263407905e-05 +0.0000000000000000e+00 +9.9999999889859048e-01
9.0000000000000024e-01 +8.2849776375533288e+00 +0.0000000000000000e+00 +8.9999999962956845e-01 -4.9695226109322005e-05 +0.0000000000000000e+00 +9.9999999876519208e-01
9.5000000000000029e-01 +8.2849750837655858e+00 +0.0000000000000000e+00 +9.4999999956433423e-01 -5.2456289336366620e-05 +0.0000000000000000e+00 +9.9999999862416866e-01
1.0000000000000002e+00 +8.2849723919238087e+00 +0.0000000000000000e+00 +9.9999999949185825e-01 -5.5217387780537326e-05 +0.0000000000000000e+00 +9.9999999847551990e-01
1.0500000000000003e+00 +8.2849695620261912e+00 +0.0000000000000000e+00 +1.0499999994117593e+00 -5.7978523274297326e-05 +0.0000000000000000e+00 +9.9999999831924524e-01
1.1000000000000003e+00 +8.2849665940708341e+00 +0.0000000000000000e+00 +1.0999999993236558e+00 -6.0739697646577507e-05 +0.0000000000000000e+00 +9.9999999815534435e-01
1.1500000000000004e+00 +8.2849634880557481e+00 +0.0000000000000000e+00 +1.1499999992271666e+00 -6.3500912722776534e-05 +0.0000000000000000e+00 +9.9999999798381678e-01
1.2000000000000004e+00 +8.2849602439788530e+00 +0.0000000000000000e+00 +1.1999999991219104e+00 -6.6262170324760952e-05 +0.0000000000000000e+00 +9.9999999780466209e-01
1.2500000000000004e+00 +8.2849568618379763e+00 +0.0000000000000000e+00 +1.2499999990075057e+00 -6.9023472270865217e-05 +0.0000000000000000e+00 +9.9999999761787983e-01
1.3000000000000005e+00 +8.2849533416308567e+00 +0.0000000000000000e+00 +1.2999999988835713e+00 -7.1784820375891828e-05 +0.0000000000000000e+00 +9.9999999742346946e-01
1.3500000000000005e+00 +8.2849496833551388e+00 +0.0000000000000000e+00 +1.3499999987497255e+00 -7.4546216451111389e-05 +0.0000000000000000e+00 +9.9999999722143051e-01
1.4000000000000006e+00 +8.2849458870083819e+00 +0.0000000000000000e+00 +1.3999999986055871e+00 -7.7307662304262686e-05 +0.0000000000000000e+00 +9.9999999701176234e-01
1.4500000000000006e+00 +8.2849419525880492e+00 +0.0000000000000000e+00 +1.4499999984507745e+00 -8.0069159739552784e-05 +0.0000000000000000e+00 +9.9999999679446450e-01
1.5000000000000007e+00 +8.2849378800915172e+00 +0.0000000000000000e+00 +1.4999999982849064e+00 -8.2830710557657070e-05 +0.0000000000000000e+00 +9.9999999656953631e-01
1.5500000000000007e+00 +8.2849336695160734e+00 +0.0000000000000000e+00 +1.5499999981076009e+00 -8.5592316555719385e-05 +0.0000000000000000e+00 +9.9999999633697734e-01
1.6000000000000008e+00 +8.2849293208589128e+00 +0.0000000000000000e+00 +1.5999999979184769e+00 -8.8353979527352078e-05 +0.0000000000000000e+00 +9.9999999609678680e-01
1.6500000000000008e+00 +8.2849248341171418e+00 +0.0000000000000000e+00 +1.6499999977171524e+00 -9.1115701262636065e-05 +0.0000000000000000e+00 +9.9999999584896415e-01
1.7000000000000008e+00 +8.2849202092877778e+00 +0.0000000000000000e+00 +1.6999999975032460e+00 -9.3877483548120946e-05 +0.0000000000000000e+00 +9.9999999559350872e-01
1.7500000000000009e+00 +8.2849154463677479e+00 +0.0000000000000000e+00 +1.7499999972763760e+00 -9.6639328166825075e-05 +0.0000000000000000e+00 +9.9999999533041983e-01
1.8000000000000009e+00 +8.2849105453538918e+00 +0.0000000000000000e+00 +1.7999999970361606e+00 -9.9401236898235626e-05 +0.0000000000000000e+00 +9.9999999505969672e-01
1.8500000000000010e+00 +8.2849055062429589e+00 +0.0000000000000000e+00 +1.8499999967822183e+00 -1.0216321151830868e-04 +0.0000000000000000e+00 +9.9999999478133883e-01
1.9000000000000010e+00 +8.2849003290316112e+00 +0.0000000000000000e+00 +1.8999999965141672e+00 -1.0492525379946929e-04 +0.0000000000000000e+00 +9.9999999449534527e-01
1.9500000000000011e+00 +8.2848950137164206e+00 +0.0000000000000000e+00 +1.9499999962316255e+00 -1.0768736551061161e-04 +0.0000000000000000e+00 +9.9999999420171537e-01
2.0000000000000009e+00 +8.2848895602938732e+00 +0.0000000000000000e+00 +1.9999999959342114e+00 -1.1044954841709890e-04 +0.0000000000000000e+00 +9.9999999390044836e-01
2.0500000000000007e+00 +8.2848839687603633e+00 +0.0000000000000000e+00 +2.0499999956215431e+00 -1.1321180428046564e-04 +0.0000000000000000e+00 +9.9999999359154346e-01
2.1000000000000005e+00 +8.2848782391121993e+00 +0.0000000000000000e+00 +2.0999999952932384e+00 -1.1597413485513945e-04 +0.0000000000000000e+00 +9.9999999327499978e-01
2.1500000000000004e+00 +8.2848723713456032e+00 +0.0000000000000000e+00 +2.1499999949489155e+00 -1.1873654188516297e-04 +0.0000000000000000e+00 +9.9999999295081654e-01
2.2000000000000002e+00 +8.2848663654567076e+00 +0.0000000000000000e+00 +2.1999999945881927e+00 -1.2149902710389595e-04 +0.0000000000000000e+00 +9.9999999261899297e-01
2.2500000000000000e+00 +8.2848602214415603e+00 +0.0000000000000000e+00 +2.2499999942106874e+00 -1.2426159223401527e-04 +0.0000000000000000e+00 +9.9999999227952807e-01
2.2999999999999998e+00 +8.2848539392961236e+00 +0.0000000000000000e+00 +2.2999999938160181e+00 -1.2702423898751505e-04 +0.0000000000000000e+00 +9.9999999193242106e-01
2.3499999999999996e+00 +8.2848475190162727e+00 +0.0000000000000000e+00 +2.3499999934038023e+00 -1.2978696906570665e-04 +0.0000000000000000e+00 +9.9999999157767105e-01
2.3999999999999995e+00 +8.2848409605977995e+00 +0.0000000000000000e+00 +2.3999999929736577e+00 -1.3254978415921877e-04 +0.0000000000000000e+00 +9.9999999121527705e-01
2.4499999999999993e+00 +8.2848342640364123e+00 +0.0000000000000000e+00 +2.4499999925252025e+00 -1.3531268594799747e-04 +0.0000000000000000e+00 +9.9999999084523816e-01
2.4999999999999991e+00 +8.2848274293277324e+00 +0.0000000000000000e+00 +2.4999999920580542e+00 -1.3807567610130622e-04 +0.0000000000000000e+00 +9.9999999046755350e-01
2.5499999999999989e+00 +8.2848204564673011e+00 +0.0000000000000000e+00 +2.5499999915718305e+00 -1.4083875627772600e-04 +0.0000000000000000e+00 +9.9999999008222207e-01
2.5999999999999988e+00 +8.2848133454505763e+00 +0.0000000000000000e+00 +2.5999999910661491e+00 -1.4360192812515530e-04 +0.0000000000000000e+00 +9.9999998968924286e-01
2.6499999999999986e+00 +8.2848060962729342e+00 +0.0000000000000000e+00 +2.6499999905406275e+00 -1.4636519328081017e-04 +0.0000000000000000e+00 +9.9999998928861489e-01
2.6999999999999984e+00 +8.2847987089296673e+00 +0.0000000000000000e+00 +2.6999999899948830e+00 -1.4912855337122430e-04 +0.0000000000000000e+00 +9.9999998888033703e-01
2.7499999999999982e+00 +8.2847911834159884e+00 +0.0000000000000000e+00 +2.7499999894285336e+00 -1.5189201001224910e-04 +0.0000000000000000e+00 +9.9999998846440841e-01
2.7999999999999980e+00 +8.2847835197270303e+00 +0.0000000000000000e+00 +2.7999999888411966e+00 -1.5465556480905363e-04 +0.0000000000000000e+00 +9.9999998804082790e-01
2.8499999999999979e+00 +8.2847757178578458e+00 +0.0000000000000000e+00 +2.8499999882324891e+00 -1.5741921935612471e-04 +0.0000000000000000e+00 +9.9999998760959441e-01
2.8999999999999977e+00 +8.2847677778034061e+00 +0.0000000000000000e+00 +2.8999999876020284e+00 -1.6018297523726701e-04 +0.0000000000000000e+00 +9.9999998717070693e-01
2.9499999999999975e+00 +8.2847596995586059e+00 +0.0000000000000000e+00 +2.9499999869494320e+00 -1.6294683402560302e-04 +0.0000000000000000e+00 +9.9999998672416435e-01
2.9999999999999973e+00 +8.2847514831182618e+00 +0.0000000000000000e+00 +2.9999999862743172e+00 -1.6571079728357313e-04 +0.0000000000000000e+00 +9.9999998626996556e-01
3.0499999999999972e+00 +8.2847431284771105e+00 +0.0000000000000000e+00 +3.0499999855763011e+00 -1.6847486656293561e-04 +0.0000000000000000e+00 +9.9999998580810934e-01
3.0999999999999970e+00 +8.2847346356298122e+00 +0.0000000000000000e+00 +3.0999999848550006e+00 -1.7123904340476676e-04 +0.0000000000000000e+00 +9.9999998533859469e-01
3.1499999999999968e+00 +8.2847260045709508e+00 +0.0000000000000000e+00 +3.1499999841100328e+00 -1.7400332933946083e-04 +0.0000000000000000e+00 +9.9999998486142039e-01
3.1999999999999966e+00 +8.2847172352950338e+00 +0.0000000000000000e+00 +3.1999999833410149e+00 -1.7676772588673016e-04 +0.0000000000000000e+00 +9.9999998437658522e-01
3.2499999999999964e+00 +8.2847083277964924e+00 +0.0000000000000000e+00 +3.2499999825475636e+00 -1.7953223455560507e-04 +0.0000000000000000e+00 +9.9999998388408806e-01
3.2999999999999963e+00 +8.2846992820696848e+00 +0.0000000000000000e+00 +3.2999999817292958e+00 -1.8229685684443406e-04 +0.0000000000000000e+00 +9.9999998338392770e-01
3.3499999999999961e+00 +8.2846900981088911e+00 +0.0000000000000000e+00 +3.3499999808858285e+00 -1.8506159424088372e-04 +0.0000000000000000e+00 +9.9999998287610292e-01
3.3999999999999959e+00 +8.2846807759083188e+00 +0.0000000000000000e+00 +3.3999999800167782e+00 -1.8782644822193885e-04 +0.0000000000000000e+00 +9.9999998236061238e-01
3.4499999999999957e+00 +8.2846713154621021e+00 +0.0000000000000000e+00 +3.4499999791217619e+00 -1.9059142025390242e-04 +0.0000000000000000e+00 +9.9999998183745498e-01
3.4999999999999956e+00 +8.2846617167643011e+00 +0.0000000000000000e+00 +3.4999999782003961e+00 -1.9335651179239560e-04 +0.0000000000000000e+00 +9.9999998130662937e-01
3.5499999999999954e+00 +8.2846519798089062e+00 +0.0000000000000000e+00 +3.5499999772522970e+00 -1.9612172428235783e-04 +0.0000000000000000e+00 +9.9999998076813434e-01
3.5999999999999952e+00 +8.2846421045898335e+00 +0.0000000000000000e+00 +3.5999999762770813e+00 -1.9888705915804681e-04 +0.0000000000000000e+00 +9.9999998022196857e-01
3.6499999999999950e+00 +8.2846320911009279e+00 +0.0000000000000000e+00 +3.6499999752743659e+00 -2.0165251784303858e-04 +0.0000000000000000e+00 +9.9999997966813070e-01
3.6999999999999948e+00 +8.2846219393359632e+00 +0.0000000000000000e+00 +3.6999999742437666e+00 -2.0441810175022746e-04 +0.0000000000000000e+00 +9.9999997910661953e-01
3.7499999999999947e+00 +8.2846116492886424e+00 +0.0000000000000000e+00 +3.7499999731849001e+00 -2.0718381228182614e-04 +0.0000000000000000e+00 +9.9999997853743361e-01
3.7999999999999945e+00 +8.2846012209526005e+00 +0.0000000000000000e+00 +3.7999999720973823e+00 -2.0994965082936565e-04 +0.0000000000000000e+00 +9.9999997796057172e-01
3.8499999999999943e+00 +8.2845906543214021e+00 +0.0000000000000000e+00 +3.8499999709808295e+00 -2.1271561877369543e-04 +0.0000000000000000e+00 +9.9999997737603241e-01
3.8999999999999941e+00 +8.2845799493885437e+00 +0.0000000000000000e+00 +3.8999999698348575e+00 -2.1548171748498332e-04 +0.0000000000000000e+00 +9.9999997678381436e-01
3.9499999999999940e+00 +8.2845691061474511e+00 +0.0000000000000000e+00 +3.9499999686590828e+00 -2.1824794832271555e-04 +0.0000000000000000e+00 +9.9999997618391612e-01
3.9999999999999938e+00 +8.2845581245914861e+00 +0.0000000000000000e+00 +3.9999999674531210e+00 -2.2101431263569680e-04 +0.0000000000000000e+00 +9.9999997557633635e-01
4.0499999999999936e+00 +8.2845470047139411e+00 +0.0000000000000000e+00 +4.0499999662165882e+00 -2.2378081176189035e-04 +0.0000000000000000e+00 +9.9999997496107362e-01
4.0999999999999934e+00 +8.2845357465080411e+00 +0.0000000000000000e+00 +4.0999999649491006e+00 -2.2654744702665946e-04 +0.0000000000000000e+00 +9.9999997433812660e-01
4.1499999999999932e+00 +8.2845243499669472e+00 +0.0000000000000000e+00 +4.1499999636502727e+00 -2.2931421974100880e-04 +0.0000000000000000e+00 +9.9999997370749372e-01
4.1999999999999931e+00 +8.2845128150837546e+00 +0.0000000000000000e+00 +4.1999999623197217e+00 -2.3208113120142467e-04 +0.0000000000000000e+00 +9.9999997306917365e-01
4.2499999999999929e+00 +8.2845011418514929e+00 +0.0000000000000000e+00 +4.2499999609570622e+00 -2.3484818268987488e-04 +0.0000000000000000e+00 +9.9999997242316496e-01
4.2999999999999927e+00 +8.2844893302631295e+00 +0.0000000000000000e+00 +4.2999999595619096e+00 -2.3761537547380880e-04 +0.0000000000000000e+00 +9.9999997176946609e-01
4.3499999999999925e+00 +8.2844773803115697e+00 +0.0000000000000000e+00 +4.3499999581338802e+00 -2.4038271080615745e-04 +0.0000000000000000e+00 +9.9999997110807559e-01
4.3999999999999924e+00 +8.2844652919896529e+00 +0.0000000000000000e+00 +4.3999999566725894e+00 -2.4315018992533336e-04 +0.0000000000000000e+00 +9.9999997043899191e-01
4.4499999999999922e+00 +8.2844530652901600e+00 +0.0000000000000000e+00 +4.4499999551776517e+00 -2.4591781405523062e-04 +0.0000000000000000e+00 +9.9999996976221373e-01
4.4999999999999920e+00 +8.2844407002058098e+00 +0.0000000000000000e+00 +4.4999999536486825e+00 -2.4868558440522496e-04 +0.0000000000000000e+00 +9.9999996907773936e-01
4.5499999999999918e+00 +8.2844281967292623e+00 +0.0000000000000000e+00 +4.5499999520852974e+00 -2.5145350217017361e-04 +0.0000000000000000e+00 +9.9999996838556737e-01
4.5999999999999917e+00 +8.2844155548531155e+00 +0.0000000000000000e+00 +4.5999999504871107e+00 -2.5422156853041546e-04 +0.0000000000000000e+00 +9.9999996768569632e-01
4.6499999999999915e+00 +8.2844027745699123e+00 +0.0000000000000000e+00 +4.6499999488537380e+00 -2.5698978465177086e-04 +0.0000000000000000e+00 +9.9999996697812454e-01
4.6999999999999913e+00 +8.2843898558721349e+00 +0.0000000000000000e+00 +4.6999999471847946e+00 -2.5975815168554175e-04 +0.0000000000000000e+00 +9.9999996626285059e-01
4.7499999999999911e+00 +8.2843767987522092e+00 +0.0000000000000000e+00 +4.7499999454798951e+00 -2.6252667076851160e-04 +0.0000000000000000e+00 +9.9999996553987280e-01
4.7999999999999909e+00 +8.2843636032025056e+00 +0.0000000000000000e+00 +4.7999999437386540e+00 -2.6529534302294547e-04 +0.0000000000000000e+00 +9.9999996480918973e-01
4.8499999999999908e+00 +8.2843502692153361e+00 +0.0000000000000000e+00 +4.8499999419606858e+00 -2.6806416955658989e-04 +0.0000000000000000e+00 +9.9999996407079972e-01
4.8999999999999906e+00 +8.2843367967829611e+00 +0.0000000000000000e+00 +4.8999999401456051e+00 -2.7083315146267297e-04 +0.0000000000000000e+00 +9.9999996332470120e-01
4.9499999999999904e+00 +8.2843231858975823e+00 +0.0000000000000000e+00 +4.9499999382930273e+00 -2.7360228981990425e-04 +0.0000000000000000e+00 +9.9999996257089263e-01
4.9999999999999902e+00 +8.2843094365513537e+00 +0.0000000000000000e+00 +4.9999999364025660e+00 -2.7637158569247474e-04 +0.0000000000000000e+00 +9.9999996180937245e-01
5.0499999999999901e+00 +8.2842955487363703e+00 +0.0000000000000000e+00 +5.0499999344738358e+00 -2.7914104013005700e-04 +0.0000000000000000e+00 +9.9999996104013900e-01
5.0999999999999899e+00 +8.2842815224446795e+00 +0.0000000000000000e+00 +5.0999999325064511e+00 -2.8191065416780496e-04 +0.0000000000000000e+00 +9.9999996026319060e-01
5.1499999999999897e+00 +8.2842673576682753e+00 +0.0000000000000000e+00 +5.1499999305000266e+00 -2.8468042882635398e-04 +0.0000000000000000e+00 +9.9999995947852571e-01
5.1999999999999895e+00 +8.2842530543991018e+00 +0.0000000000000000e+00 +5.1999999284541758e+00 -2.8745036511182090e-04 +0.0000000000000000e+00 +9.9999995868614278e-01
5.2499999999999893e+00 +8.2842386126290535e+00 +0.0000000000000000e+00 +5.2499999263685124e+00 -2.9022046401580386e-04 +0.0000000000000000e+00 +9.9999995788604013e-01
5.2999999999999892e+00 +8.2842240323499734e+00 +0.0000000000000000e+00 +5.2999999242426510e+00 -2.9299072651538244e-04 +0.0000000000000000e+00 +9.9999995707821610e-01
5.3499999999999890e+00 +8.2842093135536583e+00 +0.0000000000000000e+00 +5.3499999220762051e+00 -2.9576115357311751e-04 +0.0000000000000000e+00 +9.9999995626266902e-01
5.3999999999999888e+00 +8.2841944562318570e+00 +0.0000000000000000e+00 +5.3999999198687894e+00 -2.9853174613705128e-04 +0.0000000000000000e+00 +9.9999995543939724e-01
5.4499999999999886e+00 +8.2841794603762704e+00 +0.0000000000000000e+00 +5.4499999176200165e+00 -3.0130250514070724e-04 +0.0000000000000000e+00 +9.9999995460839908e-01
5.4999999999999885e+00 +8.2841643259785531e+00 +0.0000000000000000e+00 +5.4999999153295001e+00 -3.0407343150309012e-04 +0.0000000000000000e+00 +9.9999995376967299e-01
5.5499999999999883e+00 +8.2841490530303155e+00 +0.0000000000000000e+00 +5.5499999129968547e+00 -3.0684452612868588e-04 +0.0000000000000000e+00 +9.9999995292321719e-01
5.5999999999999881e+00 +8.2841336415231215e+00 +0.0000000000000000e+00 +5.5999999106216931e+00 -3.0961578990746166e-04 +0.0000000000000000e+00 +9.9999995206903003e-01
5.6499999999999879e+00 +8.2841180914484909e+00 +0.0000000000000000e+00 +5.6499999082036290e+00 -3.1238722371486577e-04 +0.0000000000000000e+00 +9.9999995120710994e-01
5.6999999999999877e+00 +8.2841024027979007e+00 +0.0000000000000000e+00 +5.6999999057422750e+00 -3.1515882841182764e-04 +0.0000000000000000e+00 +9.9999995033745515e-01
5.7499999999999876e+00 +8.2840865755627870e+00 +0.0000000000000000e+00 +5.7499999032372449e+00 -3.1793060484475784e-04 +0.0000000000000000e+00 +9.9999994946006387e-01
5.7999999999999874e+00 +8.2840706097345400e+00 +0.0000000000000000e+00 +5.7999999006881522e+00 -3.2070255384554795e-04 +0.0000000000000000e+00 +9.9999994857493457e-01
5.8499999999999872e+00 +8.2840545053045123e+00 +0.0000000000000000e+00 +5.8499998980946097e+00 -3.2347467623157060e-04 +0.0000000000000000e+00 +9.9999994768206546e-01
5.8999999999999870e+00 +8.2840382622640139e+00 +0.0000000000000000e+00 +5.8999998954562303e+00 -3.2624697280567936e-04 +0.0000000000000000e+00 +9.9999994678145487e-01
