# field on trajectory
# s[mm] rx[mm] ry[mm] rz[mm] bx[T] by[T] bz[T]
0.0000000000000000e+00 +8.2850000000000001e+00 +0.0000000000000000e+00 +0.0000000000000000e+00 -2.9559171567654731e-02 -5.5549362759187781e-01 +5.3563520741475648e-03
5.0000000000000003e-02 +8.2849999306167863e+00 +0.0000000000000000e+00 +4.9999999999935811e-02 -2.9559455421101336e-02 -5.5549446558517779e-01 +5.3564415785334191e-03
1.0000000000000001e-01 +8.2849997224669902e+00 +0.0000000000000000e+00 +9.9999999999486500e-02 -2.9559753847666806e-02 -5.5549561619404431e-01 +5.3565420994715496e-03
1.5000000000000002e-01 +8.2849993755503242e+00 +0.0000000000000000e+00 +1.4999999999826694e-01 -2.9560066818114870e-02 -5.5549707864513975e-01 +5.3566536259735172e-03
2.0000000000000001e-01 +8.2849988898664240e+00 +0.0000000000000000e+00 +1.9999999999589199e-01 -2.9560394303209558e-02 -5.5549885216514017e-01 +5.3567761470514862e-03
2.5000000000000000e-01 +8.2849982654148473e+00 +0.0000000000000000e+00 +2.4999999999197653e-01 -2.9560736273715370e-02 -5.5550093598073724e-01 +5.3569096517182540e-03
2.9999999999999999e-01 +8.2849975021950719e+00 +0.0000000000000000e+00 +2.9999999998613547e-01 -2.9561092700397085e-02 -5.5550332931863677e-01 +5.3570541289871760e-03
3.4999999999999998e-01 +8.2849966002065010e+00 +0.0000000000000000e+00 +3.4999999997798359e-01 -2.9561463554019909e-02 -5.5550603140555854e-01 +5.3572095678721824e-03
3.9999999999999997e-01 +8.2849955594484594e+00 +0.0000000000000000e+00 +3.9999999996713576e-01 -2.9561848805349414e-02 -5.5550904146823787e-01 +5.3573759573877239e-03
4.4999999999999996e-01 +8.2849943799201959e+00 +0.0000000000000000e+00 +4.4999999995320683e-01 -2.9562248425151545e-02 -5.5551235873342419e-01 +5.3575532865487857e-03
4.9999999999999994e-01 +8.2849930616208809e+00 +0.0000000000000000e+00 +4.9999999993581168e-01 -2.9562662384192608e-02 -5.5551598242788092e-01 +5.3577415443708271e-03
5.4999999999999993e-01 +8.2849916045496084e+00 +0.0000000000000000e+00 +5.4999999991456505e-01 -2.9563090653239338e-02 -5.5551991177838667e-01 +5.3579407198697899e-03
5.9999999999999998e-01 +8.2849900087053978e+00 +0.0000000000000000e+00 +5.9999999988908181e-01 -2.9563533203058788e-02 -5.5552414601173339e-01 +5.3581508020620495e-03
6.5000000000000002e-01 +8.2849882740871923e+00 +0.0000000000000000e+00 +6.4999999985897672e-01 -2.9563990004418405e-02 -5.5552868435472824e-01 +5.3583717799644088e-03
7.0000000000000007e-01 +8.2849864006938567e+00 +0.0000000000000000e+00 +6.9999999982386463e-01 -2.9564461028086016e-02 -5.5553352603419204e-01 +5.3586036425940760e-03
7.5000000000000011e-01 +8.2849843885241832e+00 +0.0000000000000000e+00 +7.4999999978336029e-01 -2.9564946244829846e-02 -5.5553867027695958e-01 +5.3588463789686330e-03
8.0000000000000016e-01 +8.2849822375768856e+00 +0.0000000000000000e+00 +7.9999999973707847e-01 -2.9565445625418487e-02 -5.5554411630988110e-01 +5.3590999781060206e-03
8.5000000000000020e-01 +8.2849799478506032e+00 +0.0000000000000000e+00 +8.4999999968463391e-01 -2.9565959140620900e-02 -5.5554986335981960e-01 +5.3593644290245096e-03
9.0000000000000024e-01 +8.2849775193439008e+00 +0.0000000000000000e+00 +8.9999999962564137e-01 -2.9566486761206434e-02 -5.5555591065365284e-01 +5.3596397207426819e-03
9.5000000000000029e-01 +8.2849749520552685e+00 +0.0000000000000000e+00 +9.4999999955971559e-01 -2.9567028457944820e-02 -5.5556225741827225e-01 +5.3599258422794074e-03
1.0000000000000002e+00 +8.2849722459831199e+00 +0.0000000000000000e+00 +9.9999999948647122e-01 -2.9567584201606177e-02 -5.5556890288058347e-01 +5.3602227826538180e-03
1.0500000000000003e+00 +8.2849694011257942e+00 +0.0000000000000000e+00 +1.0499999994055231e+00 -2.9568153962960995e-02 -5.5557584626750667e-01 +5.3605305308852972e-03
1.1000000000000003e+00 +8.2849664174815576e+00 +0.0000000000000000e+00 +1.0999999993164857e+00 -2.9568737712780149e-02 -5.5558308680597468e-01 +5.3608490759934364e-03
1.1500000000000004e+00 +8.2849632950486019e+00 +0.0000000000000000e+00 +1.1499999992189738e+00 -2.9569335421834913e-02 -5.5559062372293522e-01 +5.3611784069980363e-03
1.2000000000000004e+00 +8.2849600338250440e+00 +0.0000000000000000e+00 +1.1999999991126020e+00 -2.9569947060896915e-02 -5.5559845624534943e-01 +5.3615185129190597e-03
1.2500000000000004e+00 +8.2849566338089282e+00 +0.0000000000000000e+00 +1.2499999989969848e+00 -2.9570572600738199e-02 -5.5560658360019233e-01 +5.3618693827766298e-03
1.3000000000000005e+00 +8.2849530949982242e+00 +0.0000000000000000e+00 +1.2999999988717370e+00 -2.9571212012131164e-02 -5.5561500501445227e-01 +5.3622310055909976e-03
1.3500000000000005e+00 +8.2849494173908269e+00 +0.0000000000000000e+00 +1.3499999987364730e+00 -2.9571865265848610e-02 -5.5562371971513236e-01 +5.3626033703825177e-03
1.4000000000000006e+00 +8.2849456009845603e+00 +0.0000000000000000e+00 +1.3999999985908074e+00 -2.9572532332663746e-02 -5.5563272692924837e-01 +5.3629864661716336e-03
1.4500000000000006e+00 +8.2849416457771738e+00 +0.0000000000000000e+00 +1.4499999984343546e+00 -2.9573213183350124e-02 -5.5564202588383016e-01 +5.3633802819788457e-03
1.5000000000000007e+00 +8.2849375517663457e+00 +0.0000000000000000e+00 +1.4999999982667294e+00 -2.9573907788681703e-02 -5.5565161580592082e-01 +5.3637848068246938e-03
1.5500000000000007e+00 +8.2849333189496797e+00 +0.0000000000000000e+00 +1.5499999980875458e+00 -2.9574616119432837e-02 -5.5566149592257708e-01 +5.3642000297297399e-03
1.6000000000000008e+00 +8.2849289473247065e+00 +0.0000000000000000e+00 +1.5999999978964188e+00 -2.9575338146378253e-02 -5.5567166546087021e-01 +5.3646259397145298e-03
1.6500000000000008e+00 +8.2849244368888879e+00 +0.0000000000000000e+00 +1.6499999976929625e+00 -2.9576073840293086e-02 -5.5568212364788294e-01 +5.3650625257995865e-03
1.7000000000000008e+00 +8.2849197876396108e+00 +0.0000000000000000e+00 +1.6999999974767912e+00 -2.9576823171952836e-02 -5.5569286971071286e-01 +5.3655097770053820e-03
1.7500000000000009e+00 +8.2849149995741893e+00 +0.0000000000000000e+00 +1.7499999972475195e+00 -2.9577586112133410e-02 -5.5570390287647031e-01 +5.3659676823523059e-03
1.8000000000000009e+00 +8.2849100726898683e+00 +0.0000000000000000e+00 +1.7999999970047615e+00 -2.9578362631611111e-02 -5.5571522237228010e-01 +5.3664362308606670e-03
1.8500000000000010e+00 +8.2849050069838199e+00 +0.0000000000000000e+00 +1.8499999967481318e+00 -2.9579152701162608e-02 -5.5572682742527835e-01 +5.3669154115506303e-03
1.9000000000000010e+00 +8.2848998024531468e+00 +0.0000000000000000e+00 +1.8999999964772443e+00 -2.9579956291564995e-02 -5.5573871726261603e-01 +5.3674052134422478e-03
1.9500000000000011e+00 +8.2848944590948772e+00 +0.0000000000000000e+00 +1.9499999961917134e+00 -2.9580773373595728e-02 -5.5575089111145659e-01 +5.3679056255553784e-03
2.0000000000000009e+00 +8.2848889769059699e+00 +0.0000000000000000e+00 +1.9999999958911534e+00 -2.9581603918032665e-02 -5.5576334819897699e-01 +5.3684166369097099e-03
2.0500000000000007e+00 +8.2848833558833146e+00 +0.0000000000000000e+00 +2.0499999955751784e+00 -2.9582447878129085e-02 -5.5577608762528041e-01 +5.3689382317887264e-03
2.1000000000000005e+00 +8.2848775960237280e+00 +0.0000000000000000e+00 +2.0999999952434028e+00 -2.9583305137038739e-02 -5.5578910798213566e-01 +5.3694703755318689e-03
2.1500000000000004e+00 +8.2848716973239576e+00 +0.0000000000000000e+00 +2.1499999948954400e+00 -2.9584175560391075e-02 -5.5580240773423562e-01 +5.3700130287428361e-03
2.2000000000000002e+00 +8.2848656597806798e+00 +0.0000000000000000e+00 +2.1999999945309048e+00 -2.9585059013816119e-02 -5.5581598534628329e-01 +5.3705661520256154e-03
2.2500000000000000e+00 +8.2848594833905054e+00 +0.0000000000000000e+00 +2.2499999941494107e+00 -2.9585955362944630e-02 -5.5582983928299223e-01 +5.3711297059845066e-03
2.2999999999999998e+00 +8.2848531681499722e+00 +0.0000000000000000e+00 +2.2999999937505722e+00 -2.9586864473408046e-02 -5.5584396800908531e-01 +5.3717036512241243e-03
2.3499999999999996e+00 +8.2848467140555506e+00 +0.0000000000000000e+00 +2.3499999933340030e+00 -2.9587786210838501e-02 -5.5585836998929572e-01 +5.3722879483494032e-03
2.3999999999999995e+00 +8.2848401211036435e+00 +0.0000000000000000e+00 +2.3999999928993168e+00 -2.9588720440868854e-02 -5.5587304368836565e-01 +5.3728825579656163e-03
2.4499999999999993e+00 +8.2848333892905845e+00 +0.0000000000000000e+00 +2.4499999924461275e+00 -2.9589667029132717e-02 -5.5588798757104707e-01 +5.3734874406783806e-03
2.4999999999999991e+00 +8.2848265186126415e+00 +0.0000000000000000e+00 +2.4999999919740494e+00 -2.9590625841264432e-02 -5.5590320010210070e-01 +5.3741025570936633e-03
2.5499999999999989e+00 +8.2848195090660148e+00 +0.0000000000000000e+00 +2.5499999914826961e+00 -2.9591596742899150e-02 -5.5591867974629672e-01 +5.3747278678177961e-03
2.5999999999999988e+00 +8.2848123606468373e+00 +0.0000000000000000e+00 +2.5999999909716811e+00 -2.9592579599672746e-02 -5.5593442496841350e-01 +5.3753633334574754e-03
2.6499999999999986e+00 +8.2848050733511744e+00 +0.0000000000000000e+00 +2.6499999904406182e+00 -2.9593574277221944e-02 -5.5595043423323875e-01 +5.3760089146197877e-03
2.6999999999999984e+00 +8.2847976471750293e+00 +0.0000000000000000e+00 +2.6999999898891214e+00 -2.9594580641184243e-02 -5.5596670600556786e-01 +5.3766645719122048e-03
2.7499999999999982e+00 +8.2847900821143359e+00 +0.0000000000000000e+00 +2.7499999893168039e+00 -2.9595598557198007e-02 -5.5598323875020461e-01 +5.3773302659425948e-03
2.7999999999999980e+00 +8.2847823781649641e+00 +0.0000000000000000e+00 +2.7999999887232794e+00 -2.9596627890902422e-02 -5.5600003093196093e-01 +5.3780059573192420e-03
2.8499999999999979e+00 +8.2847745353227200e+00 +0.0000000000000000e+00 +2.8499999881081615e+00 -2.9597668507937550e-02 -5.5601708101565650e-01 +5.3786916066508378e-03
2.8999999999999977e+00 +8.2847665535833439e+00 +0.0000000000000000e+00 +2.8999999874710638e+00 -2.9598720273944303e-02 -5.5603438746611855e-01 +5.3793871745465103e-03
2.9499999999999975e+00 +8.2847584329425121e+00 +0.0000000000000000e+00 +2.9499999868115996e+00 -2.9599783054564524e-02 -5.5605194874818142e-01 +5.3800926216158208e-03
2.9999999999999973e+00 +8.2847501733958389e+00 +0.0000000000000000e+00 +2.9999999861293825e+00 -2.9600856715440917e-02 -5.5606976332668800e-01 +5.3808079084687746e-03
3.0499999999999972e+00 +8.2847417749388743e+00 +0.0000000000000000e+00 +3.0499999854240256e+00 -2.9601941122217128e-02 -5.5608782966648618e-01 +5.3815329957158341e-03
3.0999999999999970e+00 +8.2847332375671030e+00 +0.0000000000000000e+00 +3.0999999846951423e+00 -2.9603036140537751e-02 -5.5610614623243249e-01 +5.3822678439679247e-03
3.1499999999999968e+00 +8.2847245612759526e+00 +0.0000000000000000e+00 +3.1499999839423460e+00 -2.9604141636048312e-02 -5.5612471148938902e-01 +5.3830124138364473e-03
3.1999999999999966e+00 +8.2847157460607832e+00 +0.0000000000000000e+00 +3.1999999831652497e+00 -2.9605257474395321e-02 -5.5614352390222466e-01 +5.3837666659332841e-03
3.2499999999999964e+00 +8.2847067919168964e+00 +0.0000000000000000e+00 +3.2499999823634669e+00 -2.9606383521226260e-02 -5.5616258193581514e-01 +5.3845305608708092e-03
3.2999999999999963e+00 +8.2846976988395316e+00 +0.0000000000000000e+00 +3.2999999815366103e+00 -2.9607519642189613e-02 -5.5618188405504143e-01 +5.3853040592619006e-03
3.3499999999999961e+00 +8.2846884668238658e+00 +0.0000000000000000e+00 +3.3499999806842933e+00 -2.9608665702934880e-02 -5.5620142872479039e-01 +5.3860871217199435e-03
3.3999999999999959e+00 +8.2846790958650178e+00 +0.0000000000000000e+00 +3.3999999798061284e+00 -2.9609821569112561e-02 -5.5622121440995542e-01 +5.3868797088588490e-03
3.4499999999999957e+00 +8.2846695859580457e+00 +0.0000000000000000e+00 +3.4499999789017290e+00 -2.9610987106374255e-02 -5.5624123957543437e-01 +5.3876817812930529e-03
3.4999999999999956e+00 +8.2846599370979472e+00 +0.0000000000000000e+00 +3.4999999779707078e+00 -2.9612162180372596e-02 -5.5626150268613161e-01 +5.3884932996375303e-03
3.5499999999999954e+00 +8.2846501492796598e+00 +0.0000000000000000e+00 +3.5499999770126780e+00 -2.9613346656761255e-02 -5.5628200220695534e-01 +5.3893142245078074e-03
3.5999999999999952e+00 +8.2846402224980622e+00 +0.0000000000000000e+00 +3.5999999760272519e+00 -2.9614540401195051e-02 -5.5630273660281926e-01 +5.3901445165199634e-03
3.6499999999999950e+00 +8.2846301567479745e+00 +0.0000000000000000e+00 +3.6499999750140426e+00 -2.9615743279329872e-02 -5.5632370433864264e-01 +5.3909841362906503e-03
3.6999999999999948e+00 +8.2846199520241601e+00 +0.0000000000000000e+00 +3.6999999739726626e+00 -2.9616955156822743e-02 -5.5634490387934754e-01 +5.3918330444370924e-03
3.7499999999999947e+00 +8.2846096083213236e+00 +0.0000000000000000e+00 +3.7499999729027245e+00 -2.9618175899331817e-02 -5.5636633368986155e-01 +5.3926912015770960e-03
3.7999999999999945e+00 +8.2845991256341112e+00 +0.0000000000000000e+00 +3.7999999718038411e+00 -2.9619405372516405e-02 -5.5638799223511659e-01 +5.3935585683290710e-03
3.8499999999999943e+00 +8.2845885039571119e+00 +0.0000000000000000e+00 +3.8499999706756247e+00 -2.9620643442036975e-02 -5.5640987798004748e-01 +5.3944351053120216e-03
3.8999999999999941e+00 +8.2845777432848600e+00 +0.0000000000000000e+00 +3.8999999695176881e+00 -2.9621889973555197e-02 -5.5643198938959426e-01 +5.3953207731455739e-03
3.9499999999999940e+00 +8.2845668436118309e+00 +0.0000000000000000e+00 +3.9499999683296432e+00 -2.9623144832733931e-02 -5.5645432492869917e-01 +5.3962155324499689e-03
3.9999999999999938e+00 +8.2845558049324453e+00 +0.0000000000000000e+00 +3.9999999671111026e+00 -2.9624407885237215e-02 -5.5647688306230880e-01 +5.3971193438460911e-03
4.0499999999999936e+00 +8.2845446272410683e+00 +0.0000000000000000e+00 +4.0499999658616783e+00 -2.9625679012236540e-02 -5.5649966212493651e-01 +5.3980321563925531e-03
4.0999999999999934e+00 +8.2845333105320105e+00 +0.0000000000000000e+00 +4.0999999645809835e+00 -2.9626958156929201e-02 -5.5652265992935634e-01 +5.3989538728967260e-03
4.1499999999999932e+00 +8.2845218547995252e+00 +0.0000000000000000e+00 +4.1499999632686295e+00 -2.9628245278019535e-02 -5.5654587415790657e-01 +5.3998843846030696e-03
4.1999999999999931e+00 +8.2845102600378144e+00 +0.0000000000000000e+00 +4.1999999619242283e+00 -2.9629540334212671e-02 -5.5656930249292569e-01 +5.4008235827560092e-03
4.2499999999999929e+00 +8.2844985262410251e+00 +0.0000000000000000e+00 +4.2499999605473926e+00 -2.9630843284214500e-02 -5.5659294261675329e-01 +5.4017713585999341e-03
4.2999999999999927e+00 +8.2844866534032526e+00 +0.0000000000000000e+00 +4.2999999591377334e+00 -2.9632154086731661e-02 -5.5661679221172833e-01 +5.4027276033791708e-03
4.3499999999999925e+00 +8.2844746415185408e+00 +0.0000000000000000e+00 +4.3499999576948634e+00 -2.9633472700471605e-02 -5.5664084896018917e-01 +5.4036922083379874e-03
4.3999999999999924e+00 +8.2844624905808786e+00 +0.0000000000000000e+00 +4.3999999562183945e+00 -2.9634799084142533e-02 -5.5666511054447443e-01 +5.4046650647205773e-03
4.4499999999999922e+00 +8.2844502005842049e+00 +0.0000000000000000e+00 +4.4499999547079385e+00 -2.9636133196453439e-02 -5.5668957464692159e-01 +5.4056460637710397e-03
4.4999999999999920e+00 +8.2844377715224091e+00 +0.0000000000000000e+00 +4.4999999531631065e+00 -2.9637474996114081e-02 -5.5671423894986660e-01 +5.4066350967333816e-03
4.5499999999999918e+00 +8.2844252033893309e+00 +0.0000000000000000e+00 +4.5499999515835103e+00 -2.9638824441834997e-02 -5.5673910113564540e-01 +5.4076320548514948e-03
4.5999999999999917e+00 +8.2844124961787582e+00 +0.0000000000000000e+00 +4.5999999499687618e+00 -2.9640181492327482e-02 -5.5676415888659081e-01 +5.4086368293691477e-03
4.6499999999999915e+00 +8.2843996498844330e+00 +0.0000000000000000e+00 +4.6499999483184729e+00 -2.9641546106303641e-02 -5.5678940988503467e-01 +5.4096493115299857e-03
4.6999999999999913e+00 +8.2843866645000457e+00 +0.0000000000000000e+00 +4.6999999466322544e+00 -2.9642918242476321e-02 -5.5681485181330659e-01 +5.4106693925774964e-03
4.7499999999999911e+00 +8.2843735400192422e+00 +0.0000000000000000e+00 +4.7499999449097183e+00 -2.9644297859559198e-02 -5.5684048235373418e-01 +5.4116969637550243e-03
4.7999999999999909e+00 +8.2843602764356188e+00 +0.0000000000000000e+00 +4.7999999431504756e+00 -2.9645684916266644e-02 -5.5686629918864161e-01 +5.4127319163057410e-03
4.8499999999999908e+00 +8.2843468737427290e+00 +0.0000000000000000e+00 +4.8499999413541381e+00 -2.9647079371313900e-02 -5.5689230000035106e-01 +5.4137741414726380e-03
4.8999999999999906e+00 +8.2843333319340751e+00 +0.0000000000000000e+00 +4.8999999395203160e+00 -2.9648481183416928e-02 -5.5691848247118136e-01 +5.4148235304985227e-03
4.9499999999999904e+00 +8.2843196510031181e+00 +0.0000000000000000e+00 +4.9499999376486210e+00 -2.9649890311292480e-02 -5.5694484428344737e-01 +5.4158799746259973e-03
4.9999999999999902e+00 +8.2843058309432713e+00 +0.0000000000000000e+00 +4.9999999357386642e+00 -2.9651306713658100e-02 -5.5697138311946148e-01 +5.4169433650974571e-03
5.0499999999999901e+00 +8.2842918717479073e+00 +0.0000000000000000e+00 +5.0499999337900565e+00 -2.9652730349232111e-02 -5.5699809666153088e-01 +5.4180135931550652e-03
5.0999999999999899e+00 +8.2842777734103521e+00 +0.0000000000000000e+00 +5.0999999318024090e+00 -2.9654161176733584e-02 -5.5702498259195987e-01 +5.4190905500407591e-03
5.1499999999999897e+00 +8.2842635359238894e+00 +0.0000000000000000e+00 +5.1499999297753325e+00 -2.9655599154882424e-02 -5.5705203859304764e-01 +5.4201741269962259e-03
5.1999999999999895e+00 +8.2842491592817602e+00 +0.0000000000000000e+00 +5.1999999277084381e+00 -2.9657044242399275e-02 -5.5707926234708871e-01 +5.4212642152628963e-03
5.2499999999999893e+00 +8.2842346434771645e+00 +0.0000000000000000e+00 +5.2499999256013359e+00 -2.9658496398005597e-02 -5.5710665153637329e-01 +5.4223607060819336e-03
5.2999999999999892e+00 +8.2842199885032599e+00 +0.0000000000000000e+00 +5.2999999234536368e+00 -2.9659955580423579e-02 -5.5713420384318535e-01 +5.4234634906942109e-03
5.3499999999999890e+00 +8.2842051943531647e+00 +0.0000000000000000e+00 +5.3499999212649518e+00 -2.9661421748376261e-02 -5.5716191694980433e-01 +5.4245724603403309e-03
5.3999999999999888e+00 +8.2841902610199565e+00 +0.0000000000000000e+00 +5.3999999190348911e+00 -2.9662894860587419e-02 -5.5718978853850420e-01 +5.4256875062605745e-03
5.4499999999999886e+00 +8.2841751884966719e+00 +0.0000000000000000e+00 +5.4499999167630655e+00 -2.9664374875781632e-02 -5.5721781629155243e-01 +5.4268085196949216e-03
5.4999999999999885e+00 +8.2841599767763086e+00 +0.0000000000000000e+00 +5.4999999144490852e+00 -2.9665861752684236e-02 -5.5724599789120988e-01 +5.4279353918830113e-03
5.5499999999999883e+00 +8.2841446258518285e+00 +0.0000000000000000e+00 +5.5499999120925603e+00 -2.9667355450021377e-02 -5.5727433101973201e-01 +5.4290680140641652e-03
5.5999999999999881e+00 +8.2841291357161531e+00 +0.0000000000000000e+00 +5.5999999096931008e+00 -2.9668855926520011e-02 -5.5730281335936693e-01 +5.4302062774773440e-03
5.6499999999999879e+00 +8.2841135063621678e+00 +0.0000000000000000e+00 +5.6499999072503178e+00 -2.9670363140907808e-02 -5.5733144259235601e-01 +5.4313500733611519e-03
5.6999999999999877e+00 +8.2840977377827212e+00 +0.0000000000000000e+00 +5.6999999047638203e+00 -2.9671877051913285e-02 -5.5736021640093325e-01 +5.4324992929538230e-03
5.7499999999999876e+00 +8.2840818299706260e+00 +0.0000000000000000e+00 +5.7499999022332196e+00 -2.9673397618265721e-02 -5.5738913246732513e-01 +5.4336538274932164e-03
5.7999999999999874e+00 +8.2840657829186579e+00 +0.0000000000000000e+00 +5.7999998996581246e+00 -2.9674924798695164e-02 -5.5741818847375058e-01 +5.4348135682167845e-03
5.8499999999999872e+00 +8.2840495966195586e+00 +0.0000000000000000e+00 +5.8499998970381455e+00 -2.9676458551932492e-02 -5.5744738210242095e-01 +5.4359784063615860e-03
5.8999999999999870e+00 +8.2840332710660363e+00 +0.0000000000000000e+00 +5.8999998943728924e+00 -2.9677998836709327e-02 -5.5747671103553786e-01 +5.4371482331642615e-03
