# field on trajectory
# s[mm] rx[mm] ry[mm] rz[mm] bx[T] by[T] bz[T]
0.0000000000000000e+00 +8.3650000000000002e+00 +0.0000000000000000e+00 +0.0000000000000000e+00 -2.9461908025575478e-02 -5.5586629863304982e-01 +5.4330687664407738e-03
5.0000000000000003e-02 +8.3649999308002236e+00 +0.0000000000000000e+00 +4.9999999999936151e-02 -2.9462051808435502e-02 -5.5586570764239696e-01 +5.4324409330048220e-03
1.0000000000000001e-01 +8.3649997232009792e+00 +0.0000000000000000e+00 +9.9999999999489220e-02 -2.9462214229137047e-02 -5.5586546707430318e-01 +5.4318214478518596e-03
1.5000000000000002e-01 +8.3649993772023254e+00 +0.0000000000000000e+00 +1.4999999999827610e-01 -2.9462395252533021e-02 -5.5586557623516908e-01 +5.4312103634800877e-03
2.0000000000000001e-01 +8.3649988928042358e+00 +0.0000000000000000e+00 +1.9999999999591372e-01 -2.9462594843477598e-02 -5.5586603443141358e-01 +5.4306077323881628e-03
2.5000000000000000e-01 +8.3649982700065966e+00 +0.0000000000000000e+00 +2.4999999999201900e-01 -2.9462812966826197e-02 -5.5586684096947203e-01 +5.4300136070751888e-03
2.9999999999999999e-01 +8.3649975088092070e+00 +0.0000000000000000e+00 +2.9999999998620880e-01 -2.9463049587435421e-02 -5.5586799515579621e-01 +5.4294280400407234e-03
3.4999999999999998e-01 +8.3649966092117793e+00 +0.0000000000000000e+00 +3.4999999997810005e-01 -2.9463304670163133e-02 -5.5586949629685445e-01 +5.4288510837847614e-03
3.9999999999999997e-01 +8.3649955712139388e+00 +0.0000000000000000e+00 +3.9999999996730967e-01 -2.9463578179868357e-02 -5.5587134369913127e-01 +5.4282827908077409e-03
4.4999999999999996e-01 +8.3649943948152270e+00 +0.0000000000000000e+00 +4.4999999995345458e-01 -2.9463870081411297e-02 -5.5587353666912798e-01 +5.4277232136105318e-03
4.9999999999999994e-01 +8.3649930800150969e+00 +0.0000000000000000e+00 +4.9999999993615163e-01 -2.9464180339653354e-02 -5.5587607451336107e-01 +5.4271724046944369e-03
5.4999999999999993e-01 +8.3649916268129179e+00 +0.0000000000000000e+00 +5.4999999991501769e-01 -2.9464508919457087e-02 -5.5587895653836394e-01 +5.4266304165612022e-03
5.9999999999999998e-01 +8.3649900352079705e+00 +0.0000000000000000e+00 +5.9999999988966968e-01 -2.9464855785686184e-02 -5.5588218205068585e-01 +5.4260973017129796e-03
6.5000000000000002e-01 +8.3649883051994536e+00 +0.0000000000000000e+00 +6.4999999985972434e-01 -2.9465220903205479e-02 -5.5588575035689036e-01 +5.4255731126523583e-03
7.0000000000000007e-01 +8.3649864367864772e+00 +0.0000000000000000e+00 +6.9999999982479866e-01 -2.9465604236880931e-02 -5.5588966076355806e-01 +5.4250579018823349e-03
7.5000000000000011e-01 +8.3649844299680698e+00 +0.0000000000000000e+00 +7.4999999978450949e-01 -2.9466005751579590e-02 -5.5589391257728404e-01 +5.4245517219063330e-03
8.0000000000000016e-01 +8.3649822847431707e+00 +0.0000000000000000e+00 +7.9999999973847358e-01 -2.9466425412169605e-02 -5.5589850510467864e-01 +5.4240546252281750e-03
8.5000000000000020e-01 +8.3649800011106379e+00 +0.0000000000000000e+00 +8.4999999968630779e-01 -2.9466863183520237e-02 -5.5590343765236772e-01 +5.4235666643521023e-03
9.0000000000000024e-01 +8.3649775790692420e+00 +0.0000000000000000e+00 +8.9999999962762900e-01 -2.9467319030501784e-02 -5.5590870952699178e-01 +5.4230878917827553e-03
9.5000000000000029e-01 +8.3649750186176721e+00 +0.0000000000000000e+00 +9.4999999956205394e-01 -2.9467792917985614e-02 -5.5591432003520658e-01 +5.4226183600251778e-03
1.0000000000000002e+00 +8.3649723197545303e+00 +0.0000000000000000e+00 +9.9999999948919938e-01 -2.9468284810844136e-02 -5.5592026848368126e-01 +5.4221581215848046e-03
1.0500000000000003e+00 +8.3649694824783349e+00 +0.0000000000000000e+00 +1.0499999994086819e+00 -2.9468794673950808e-02 -5.5592655417910108e-01 +5.4217072289674730e-03
1.1000000000000003e+00 +8.3649665067875230e+00 +0.0000000000000000e+00 +1.0999999993201186e+00 -2.9469322472180089e-02 -5.5593317642816464e-01 +5.4212657346794074e-03
1.1500000000000004e+00 +8.3649633926804441e+00 +0.0000000000000000e+00 +1.1499999992231260e+00 -2.9469868170407452e-02 -5.5594013453758495e-01 +5.4208336912272195e-03
1.2000000000000004e+00 +8.3649601401553664e+00 +0.0000000000000000e+00 +1.1999999991173209e+00 -2.9470431733509352e-02 -5.5594742781408935e-01 +5.4204111511178986e-03
1.2500000000000004e+00 +8.3649567492104744e+00 +0.0000000000000000e+00 +1.2499999990023198e+00 -2.9471013126363254e-02 -5.5595505556441915e-01 +5.4199981668588250e-03
1.3000000000000005e+00 +8.3649532198438674e+00 +0.0000000000000000e+00 +1.2999999988777395e+00 -2.9471612313847560e-02 -5.5596301709532880e-01 +5.4195947909577427e-03
1.3500000000000005e+00 +8.3649495520535648e+00 +0.0000000000000000e+00 +1.3499999987431968e+00 -2.9472229260841649e-02 -5.5597131171358771e-01 +5.4192010759227770e-03
1.4000000000000006e+00 +8.3649457458375007e+00 +0.0000000000000000e+00 +1.3999999985983080e+00 -2.9472863932225854e-02 -5.5597993872597673e-01 +5.4188170742624229e-03
1.4500000000000006e+00 +8.3649418011935275e+00 +0.0000000000000000e+00 +1.4499999984426899e+00 -2.9473516292881412e-02 -5.5598889743929258e-01 +5.4184428384855318e-03
1.5000000000000007e+00 +8.3649377181194140e+00 +0.0000000000000000e+00 +1.4999999982759589e+00 -2.9474186307690480e-02 -5.5599818716034322e-01 +5.4180784211013263e-03
1.5500000000000007e+00 +8.3649334966128492e+00 +0.0000000000000000e+00 +1.5499999980977317e+00 -2.9474873941536129e-02 -5.5600780719595022e-01 +5.4177238746193840e-03
1.6000000000000008e+00 +8.3649291366714369e+00 +0.0000000000000000e+00 +1.5999999979076249e+00 -2.9475579159302344e-02 -5.5601775685294919e-01 +5.4173792515496370e-03
1.6500000000000008e+00 +8.3649246382926989e+00 +0.0000000000000000e+00 +1.6499999977052549e+00 -2.9476301925873957e-02 -5.5602803543818691e-01 +5.4170446044023712e-03
1.7000000000000008e+00 +8.3649200014740774e+00 +0.0000000000000000e+00 +1.6999999974902380e+00 -2.9477042206136683e-02 -5.5603864225852340e-01 +5.4167199856882146e-03
1.7500000000000009e+00 +8.3649152262129309e+00 +0.0000000000000000e+00 +1.7499999972621909e+00 -2.9477799964977097e-02 -5.5604957662083210e-01 +5.4164054479181479e-03
1.8000000000000009e+00 +8.3649103125065363e+00 +0.0000000000000000e+00 +1.7999999970207299e+00 -2.9478575167282608e-02 -5.5606083783199722e-01 +5.4161010436034876e-03
1.8500000000000010e+00 +8.3649052603520921e+00 +0.0000000000000000e+00 +1.8499999967654712e+00 -2.9479367777941426e-02 -5.5607242519891653e-01 +5.4158068252558840e-03
1.9000000000000010e+00 +8.3649000697467120e+00 +0.0000000000000000e+00 +1.8999999964960315e+00 -2.9480177761842658e-02 -5.5608433802849944e-01 +5.4155228453873303e-03
1.9500000000000011e+00 +8.3648947406874292e+00 +0.0000000000000000e+00 +1.9499999962120267e+00 -2.9481005083876129e-02 -5.5609657562766657e-01 +5.4152491565101438e-03
2.0000000000000009e+00 +8.3648892731711975e+00 +0.0000000000000000e+00 +1.9999999959130734e+00 -2.9481849708932504e-02 -5.5610913730335176e-01 +5.4149858111369673e-03
2.0500000000000007e+00 +8.3648836671948885e+00 +0.0000000000000000e+00 +2.0499999955987875e+00 -2.9482711592849303e-02 -5.5612202215852691e-01 +5.4147328450289854e-03
2.1000000000000005e+00 +8.3648779227552961e+00 +0.0000000000000000e+00 +2.0999999952687856e+00 -2.9483590655249057e-02 -5.5613522848028363e-01 +5.4144902269405420e-03
2.1500000000000004e+00 +8.3648720398491303e+00 +0.0000000000000000e+00 +2.1499999949226836e+00 -2.9484486806700943e-02 -5.5614875435175348e-01 +5.4142579088744917e-03
2.2000000000000002e+00 +8.3648660184730250e+00 +0.0000000000000000e+00 +2.1999999945600979e+00 -2.9485399957774605e-02 -5.5616259785607836e-01 +5.4140358428339799e-03
2.2500000000000000e+00 +8.3648598586235341e+00 +0.0000000000000000e+00 +2.2499999941806443e+00 -2.9486330019040101e-02 -5.5617675707641134e-01 +5.4138239808224301e-03
2.2999999999999998e+00 +8.3648535602971297e+00 +0.0000000000000000e+00 +2.2999999937839393e+00 -2.9487276901068022e-02 -5.5619123009591687e-01 +5.4136222748435671e-03
2.3499999999999996e+00 +8.3648471234902111e+00 +0.0000000000000000e+00 +2.3499999933695985e+00 -2.9488240514429276e-02 -5.5620601499777056e-01 +5.4134306769013808e-03
2.3999999999999995e+00 +8.3648405481990959e+00 +0.0000000000000000e+00 +2.3999999929372380e+00 -2.9489220769695203e-02 -5.5622110986515827e-01 +5.4132491390001406e-03
2.4499999999999993e+00 +8.3648338344200255e+00 +0.0000000000000000e+00 +2.4499999924864735e+00 -2.9490217577437465e-02 -5.5623651278127662e-01 +5.4130776131443847e-03
2.4999999999999991e+00 +8.3648269821491663e+00 +0.0000000000000000e+00 +2.4999999920169214e+00 -2.9491230848228085e-02 -5.5625222182933320e-01 +5.4129160513389169e-03
2.5499999999999989e+00 +8.3648199913826051e+00 +0.0000000000000000e+00 +2.5499999915281970e+00 -2.9492260492639345e-02 -5.5626823509254519e-01 +5.4127644055887974e-03
2.5999999999999988e+00 +8.3648128621163576e+00 +0.0000000000000000e+00 +2.5999999910199167e+00 -2.9493306421243832e-02 -5.5628455065414040e-01 +5.4126226278993503e-03
2.6499999999999986e+00 +8.3648055943463593e+00 +0.0000000000000000e+00 +2.6499999904916960e+00 -2.9494368544614329e-02 -5.5630116659735707e-01 +5.4124906702761400e-03
2.6999999999999984e+00 +8.3647981880684750e+00 +0.0000000000000000e+00 +2.6999999899431506e+00 -2.9495446773323913e-02 -5.5631808100544244e-01 +5.4123684847249857e-03
2.7499999999999982e+00 +8.3647906432784929e+00 +0.0000000000000000e+00 +2.7499999893738960e+00 -2.9496541017945778e-02 -5.5633529196165454e-01 +5.4122560232519419e-03
2.7999999999999980e+00 +8.3647829599721266e+00 +0.0000000000000000e+00 +2.7999999887835481e+00 -2.9497651189053335e-02 -5.5635279754926048e-01 +5.4121532378633057e-03
2.8499999999999979e+00 +8.3647751381450188e+00 +0.0000000000000000e+00 +2.8499999881717222e+00 -2.9498777197220102e-02 -5.5637059585153725e-01 +5.4120600805656026e-03
2.8999999999999977e+00 +8.3647671777927393e+00 +0.0000000000000000e+00 +2.8999999875380342e+00 -2.9499918953019739e-02 -5.5638868495177074e-01 +5.4119765033655886e-03
2.9499999999999975e+00 +8.3647590789107831e+00 +0.0000000000000000e+00 +2.9499999868820992e+00 -2.9501076367025938e-02 -5.5640706293325659e-01 +5.4119024582702357e-03
2.9999999999999973e+00 +8.3647508414945744e+00 +0.0000000000000000e+00 +2.9999999862035329e+00 -2.9502249349812507e-02 -5.5642572787929934e-01 +5.4118378972867502e-03
3.0499999999999972e+00 +8.3647424655394662e+00 +0.0000000000000000e+00 +3.0499999855019508e+00 -2.9503437811953234e-02 -5.5644467787321239e-01 +5.4117827724225317e-03
3.0999999999999970e+00 +8.3647339510407406e+00 +0.0000000000000000e+00 +3.0999999847769679e+00 -2.9504641664021950e-02 -5.5646391099831793e-01 +5.4117370356852020e-03
3.1499999999999968e+00 +8.3647252979936102e+00 +0.0000000000000000e+00 +3.1499999840281996e+00 -2.9505860816592431e-02 -5.5648342533794759e-01 +5.4117006390825874e-03
3.1999999999999966e+00 +8.3647165063932150e+00 +0.0000000000000000e+00 +3.1999999832552612e+00 -2.9507095180238436e-02 -5.5650321897544042e-01 +5.4116735346227069e-03
3.2499999999999964e+00 +8.3647075762346272e+00 +0.0000000000000000e+00 +3.2499999824577679e+00 -2.9508344665533617e-02 -5.5652328999414447e-01 +5.4116556743137780e-03
3.2999999999999963e+00 +8.3646985075128502e+00 +0.0000000000000000e+00 +3.2999999816353349e+00 -2.9509609183051528e-02 -5.5654363647741600e-01 +5.4116470101642127e-03
3.3499999999999961e+00 +8.3646893002228175e+00 +0.0000000000000000e+00 +3.3499999807875769e+00 -2.9510888643365613e-02 -5.5656425650861985e-01 +5.4116474941826075e-03
3.3999999999999959e+00 +8.3646799543593939e+00 +0.0000000000000000e+00 +3.3999999799141092e+00 -2.9512182957049136e-02 -5.5658514817112781e-01 +5.4116570783777299e-03
3.4499999999999957e+00 +8.3646704699173799e+00 +0.0000000000000000e+00 +3.4499999790145468e+00 -2.9513492034675161e-02 -5.5660630954832069e-01 +5.4116757147585374e-03
3.4999999999999956e+00 +8.3646608468915069e+00 +0.0000000000000000e+00 +3.4999999780885047e+00 -2.9514815786816591e-02 -5.5662773872358640e-01 +5.4117033553341591e-03
3.5499999999999954e+00 +8.3646510852764386e+00 +0.0000000000000000e+00 +3.5499999771355975e+00 -2.9516154124046040e-02 -5.5664943378032017e-01 +5.4117399521138778e-03
3.5999999999999952e+00 +8.3646411850667750e+00 +0.0000000000000000e+00 +3.5999999761554400e+00 -2.9517506956935894e-02 -5.5667139280192524e-01 +5.4117854571071548e-03
3.6499999999999950e+00 +8.3646311462570466e+00 +0.0000000000000000e+00 +3.6499999751476468e+00 -2.9518874196058222e-02 -5.5669361387181193e-01 +5.4118398223235971e-03
3.6999999999999948e+00 +8.3646209688417219e+00 +0.0000000000000000e+00 +3.6999999741118330e+00 -2.9520255751984793e-02 -5.5671609507339781e-01 +5.4119029997729750e-03
3.7499999999999947e+00 +8.3646106528152036e+00 +0.0000000000000000e+00 +3.7499999730476130e+00 -2.9521651535286998e-02 -5.5673883449010697e-01 +5.4119749414652009e-03
3.7999999999999945e+00 +8.3646001981718303e+00 +0.0000000000000000e+00 +3.7999999719546014e+00 -2.9523061456535906e-02 -5.5676183020537162e-01 +5.4120555994103320e-03
3.8499999999999943e+00 +8.3645896049058770e+00 +0.0000000000000000e+00 +3.8499999708324126e+00 -2.9524485426302136e-02 -5.5678508030262908e-01 +5.4121449256185720e-03
3.8999999999999941e+00 +8.3645788730115562e+00 +0.0000000000000000e+00 +3.8999999696806609e+00 -2.9525923355155904e-02 -5.5680858286532464e-01 +5.4122428721002447e-03
3.9499999999999940e+00 +8.3645680024830149e+00 +0.0000000000000000e+00 +3.9499999684989611e+00 -2.9527375153666997e-02 -5.5683233597690929e-01 +5.4123493908658235e-03
3.9999999999999938e+00 +8.3645569933143378e+00 +0.0000000000000000e+00 +3.9999999672869269e+00 -2.9528840732404655e-02 -5.5685633772084075e-01 +5.4124644339258931e-03
4.0499999999999936e+00 +8.3645458454995509e+00 +0.0000000000000000e+00 +4.0499999660441732e+00 -2.9530319993123725e-02 -5.5688058607739510e-01 +5.4125879614499977e-03
4.0999999999999934e+00 +8.3645345590326166e+00 +0.0000000000000000e+00 +4.0999999647703138e+00 -2.9531812802322723e-02 -5.5690507861410310e-01 +5.4127199662432658e-03
4.1499999999999932e+00 +8.3645231339074364e+00 +0.0000000000000000e+00 +4.1499999634649631e+00 -2.9533319017685800e-02 -5.5692981279530973e-01 +5.4128604492699253e-03
4.1999999999999931e+00 +8.3645115701178536e+00 +0.0000000000000000e+00 +4.1999999621277349e+00 -2.9534838496896785e-02 -5.5695478608536364e-01 +5.4130094114944712e-03
4.2499999999999929e+00 +8.3644998676576492e+00 +0.0000000000000000e+00 +4.2499999607582435e+00 -2.9536371097639163e-02 -5.5697999594861514e-01 +5.4131668538816456e-03
4.2999999999999927e+00 +8.3644880265205472e+00 +0.0000000000000000e+00 +4.2999999593561018e+00 -2.9537916677595991e-02 -5.5700543984941631e-01 +5.4133327773964500e-03
4.3499999999999925e+00 +8.3644760467002115e+00 +0.0000000000000000e+00 +4.3499999579209252e+00 -2.9539475094449937e-02 -5.5703111525212168e-01 +5.4135071830041376e-03
4.3999999999999924e+00 +8.3644639281902506e+00 +0.0000000000000000e+00 +4.3999999564523264e+00 -2.9541046205883246e-02 -5.5705701962108700e-01 +5.4136900716702172e-03
4.4499999999999922e+00 +8.3644516709842147e+00 +0.0000000000000000e+00 +4.4499999549499192e+00 -2.9542629869577706e-02 -5.5708315042066925e-01 +5.4138814443604475e-03
4.4999999999999920e+00 +8.3644392750755987e+00 +0.0000000000000000e+00 +4.4999999534133179e+00 -2.9544225943214663e-02 -5.5710950511522661e-01 +5.4140813020408475e-03
4.5499999999999918e+00 +8.3644267404578390e+00 +0.0000000000000000e+00 +4.5499999518421355e+00 -2.9545834284474957e-02 -5.5713608116911861e-01 +5.4142896456776850e-03
4.5999999999999917e+00 +8.3644140671243203e+00 +0.0000000000000000e+00 +4.5999999502359854e+00 -2.9547454751038926e-02 -5.5716287604670456e-01 +5.4145064762374769e-03
4.6499999999999915e+00 +8.3644012550683708e+00 +0.0000000000000000e+00 +4.6499999485944814e+00 -2.9549087200586376e-02 -5.5718988721234475e-01 +5.4147317946870027e-03
4.6999999999999913e+00 +8.3643883042832670e+00 +0.0000000000000000e+00 +4.6999999469172371e+00 -2.9550731490796577e-02 -5.5721711213039937e-01 +5.4149656019932867e-03
4.7499999999999911e+00 +8.3643752147622283e+00 +0.0000000000000000e+00 +4.7499999452038653e+00 -2.9552387479348245e-02 -5.5724454826522873e-01 +5.4152078991236046e-03
4.7999999999999909e+00 +8.3643619864984249e+00 +0.0000000000000000e+00 +4.7999999434539795e+00 -2.9554055023919477e-02 -5.5727219308119269e-01 +5.4154586870454862e-03
4.8499999999999908e+00 +8.3643486194849750e+00 +0.0000000000000000e+00 +4.8499999416671926e+00 -2.9555733982187783e-02 -5.5730004404265077e-01 +5.4157179667267165e-03
4.8999999999999906e+00 +8.3643351137149438e+00 +0.0000000000000000e+00 +4.8999999398431182e+00 -2.9557424211830066e-02 -5.5732809861396104e-01 +5.4159857391353214e-03
4.9499999999999904e+00 +8.3643214691813448e+00 +0.0000000000000000e+00 +4.9499999379813691e+00 -2.9559125570522555e-02 -5.5735635425948138e-01 +5.4162620052395890e-03
4.9999999999999902e+00 +8.3643076858771437e+00 +0.0000000000000000e+00 +4.9999999360815579e+00 -2.9560837915940823e-02 -5.5738480844356775e-01 +5.4165467660080473e-03
5.0499999999999901e+00 +8.3642937637952581e+00 +0.0000000000000000e+00 +5.0499999341432984e+00 -2.9562561105759777e-02 -5.5741345863057556e-01 +5.4168400224094831e-03
5.0999999999999899e+00 +8.3642797029285525e+00 +0.0000000000000000e+00 +5.0999999321662024e+00 -2.9564294997653572e-02 -5.5744230228485747e-01 +5.4171417754129304e-03
5.1499999999999897e+00 +8.3642655032698467e+00 +0.0000000000000000e+00 +5.1499999301498836e+00 -2.9566039449295686e-02 -5.5747133687076444e-01 +5.4174520259876674e-03
5.1999999999999895e+00 +8.3642511648119111e+00 +0.0000000000000000e+00 +5.1999999280939537e+00 -2.9567794318358823e-02 -5.5750055985264535e-01 +5.4177707751032296e-03
5.2499999999999893e+00 +8.3642366875474714e+00 +0.0000000000000000e+00 +5.2499999259980257e+00 -2.9569559462514949e-02 -5.5752996869484672e-01 +5.4180980237293940e-03
5.2999999999999892e+00 +8.3642220714692037e+00 +0.0000000000000000e+00 +5.2999999238617121e+00 -2.9571334739435198e-02 -5.5755956086171254e-01 +5.4184337728361929e-03
5.3499999999999890e+00 +8.3642073165697415e+00 +0.0000000000000000e+00 +5.3499999216846250e+00 -2.9573120006789948e-02 -5.5758933381758324e-01 +5.4187780233939022e-03
5.3999999999999888e+00 +8.3641924228416720e+00 +0.0000000000000000e+00 +5.3999999194663779e+00 -2.9574915122248729e-02 -5.5761928502679659e-01 +5.4191307763730460e-03
5.4499999999999886e+00 +8.3641773902775380e+00 +0.0000000000000000e+00 +5.4499999172065818e+00 -2.9576719943480215e-02 -5.5764941195368711e-01 +5.4194920327443989e-03
5.4999999999999885e+00 +8.3641622188698381e+00 +0.0000000000000000e+00 +5.4999999149048495e+00 -2.9578534328152249e-02 -5.5767971206258515e-01 +5.4198617934789837e-03
5.5499999999999883e+00 +8.3641469086110298e+00 +0.0000000000000000e+00 +5.5499999125607928e+00 -2.9580358133931759e-02 -5.5771018281781781e-01 +5.4202400595480633e-03
5.5999999999999881e+00 +8.3641314594935245e+00 +0.0000000000000000e+00 +5.5999999101740245e+00 -2.9582191218484755e-02 -5.5774082168370764e-01 +5.4206268319231506e-03
5.6499999999999879e+00 +8.3641158715096964e+00 +0.0000000000000000e+00 +5.6499999077441556e+00 -2.9584033439476378e-02 -5.5777162612457298e-01 +5.4210221115760073e-03
5.6999999999999877e+00 +8.3641001446518732e+00 +0.0000000000000000e+00 +5.6999999052707988e+00 -2.9585884654570762e-02 -5.5780259360472784e-01 +5.4214258994786449e-03
5.7499999999999876e+00 +8.3640842789123475e+00 +0.0000000000000000e+00 +5.7499999027535660e+00 -2.9587744721431122e-02 -5.5783372158848121e-01 +5.4218381966033083e-03
5.7999999999999874e+00 +8.3640682742833672e+00 +0.0000000000000000e+00 +5.7999999001920681e+00 -2.9589613497719641e-02 -5.5786500754013701e-01 +5.4222590039224991e-03
5.8499999999999872e+00 +8.3640521307571447e+00 +0.0000000000000000e+00 +5.8499998975859180e+00 -2.9591490841097537e-02 -5.5789644892399348e-01 +5.4226883224089565e-03
5.8999999999999870e+00 +8.3640358483258499e+00 +0.0000000000000000e+00 +5.8999998949347265e+00 -2.9593376609224994e-02 -5.5792804320434453e-01 +5.4231261530356713e-03
