# multipoles
# s[mm] polynom_b[n=0][T/m^n] polynom_b[n=1][T/m^n] polynom_b[n=2][T/m^n] polynom_b[n=3][T/m^n] polynom_b[n=4][T/m^n] polynom_b[n=5][T/m^n] polynom_b[n=6][T/m^n] 
+0.0000000000000000e+00 -5.5586518651098316e-01 +7.2896009013883294e+00 +5.3892861435936013e+00 -1.1937058564027328e+02 -7.1944130398971010e+03 +3.3426973942878889e+05 +5.2145239470687203e+07 
+5.0000000000000003e-02 -5.5586459991927006e-01 +7.2896092292726546e+00 +5.3841868060971985e+00 -1.1974080798093675e+02 -7.1073897370219947e+03 +3.3759069456534844e+05 +5.1683474629590593e+07 
+1.0000000000000001e-01 -5.5586436387545968e-01 +7.2896374156047417e+00 +5.3786146409971254e+00 -1.2012697159753434e+02 -7.0190227274970084e+03 +3.4107135200011043e+05 +5.1210625725974761e+07 
+1.5000000000000002e-01 -5.5586447768635694e-01 +7.2896853608853673e+00 +5.3725729941580278e+00 -1.2052764116147094e+02 -6.9293358231866687e+03 +3.4470076881868823e+05 +5.0726899563129745e+07 
+2.0000000000000001e-01 -5.5586494065878411e-01 +7.2897529656189919e+00 +5.3660652110061875e+00 -1.2094138148240759e+02 -6.8383528211073481e+03 +3.4846800329261518e+05 +5.0232502832180701e+07 
+2.5000000000000000e-01 -5.5586575209957800e-01 +7.2898401303078000e+00 +5.3590946371295489e+00 -1.2136675724176132e+02 -6.7460975242345776e+03 +3.5236211262658896e+05 +4.9727642267091937e+07 
+2.9999999999999999e-01 -5.5586691131558363e-01 +7.2899467554559152e+00 +5.3516646165980788e+00 -1.2180233317547433e+02 -6.6525936969624718e+03 +3.5637215448081912e+05 +4.9212524350935318e+07 
+3.4999999999999998e-01 -5.5586841761367756e-01 +7.2900727415667923e+00 +5.3437784960192056e+00 -1.2224667396894128e+02 -6.5578651697961986e+03 +3.6048718611872604e+05 +4.8687355999994263e+07 
+3.9999999999999997e-01 -5.5587027030074132e-01 +7.2902179891440593e+00 +5.3354396202068566e+00 -1.2269834428135364e+02 -6.4619357259845947e+03 +3.6469626456480526e+05 +4.8152343816431306e+07 
+4.4999999999999996e-01 -5.5587246868368800e-01 +7.2903823986974743e+00 +5.3266513360579504e+00 -1.2315590902212921e+02 -6.3648292008949411e+03 +3.6898844900955824e+05 +4.7607694737039320e+07 
+4.9999999999999994e-01 -5.5587501206942136e-01 +7.2905658707312444e+00 +5.3174169867143197e+00 -1.2361793282117105e+02 -6.2665693342163559e+03 +3.7335279623567773e+05 +4.7053615071906030e+07 
+5.4999999999999993e-01 -5.5587789976488822e-01 +7.2907683057525157e+00 +5.3077399199109925e+00 -1.2408298041630366e+02 -6.1671799889498961e+03 +3.7777836397618538e+05 +4.6490311961719602e+07 
+5.9999999999999998e-01 -5.5588113107702197e-01 +7.2909896042671196e+00 +5.2976234777643842e+00 -1.2454961647158851e+02 -6.0666848736756829e+03 +3.8225420937099034e+05 +4.5917991492604323e+07 
+6.5000000000000002e-01 -5.5588470531280965e-01 +7.2912296667860579e+00 +5.2870710095114246e+00 -1.2501640583589167e+02 -5.9651078908059262e+03 +3.8676939109225367e+05 +4.5336861063907310e+07 
+7.0000000000000007e-01 -5.5588862177921750e-01 +7.2914883938172181e+00 +5.2760858581860379e+00 -1.2548191320159954e+02 -5.8624727807118343e+03 +3.9131296649396274e+05 +4.4747127001092449e+07 
+7.5000000000000011e-01 -5.5589287978324209e-01 +7.2917656858689304e+00 +5.2646713685006468e+00 -1.2594470326402406e+02 -5.7588033197324121e+03 +3.9587399299836898e+05 +4.4148995836979799e+07 
+8.0000000000000016e-01 -5.5589747863190808e-01 +7.2920614434518223e+00 +5.2528308881995684e+00 -1.2640334078416596e+02 -5.6541233748229597e+03 +4.0044152855222503e+05 +4.3542674748801991e+07 
+8.5000000000000020e-01 -5.5590241763223236e-01 +7.2923755670762889e+00 +5.2405677605648808e+00 -1.2685639050368722e+02 -5.5484566889249227e+03 +4.0500463100522512e+05 +4.2928370061541252e+07 
+9.0000000000000024e-01 -5.5590769609125668e-01 +7.2927079572545557e+00 +5.2278853311629234e+00 -1.2730241719177647e+02 -5.4418270735605420e+03 +4.0955235832638683e+05 +4.2306288590207554e+07 
+9.5000000000000029e-01 -5.5591331331603988e-01 +7.2930585144983251e+00 +5.2147869446645236e+00 -1.2773998559515546e+02 -5.3342583055139794e+03 +4.1407376840301312e+05 +4.1676636875270218e+07 
+1.0000000000000002e+00 -5.5591926861365792e-01 +7.2934271393176040e+00 +5.2012759472177876e+00 -1.2816766035964142e+02 -5.2257742119321729e+03 +4.1855791825187672e+05 +4.1039621836576387e+07 
+1.0500000000000003e+00 -5.5592556129118864e-01 +7.2938137322269307e+00 +5.1873556820070119e+00 -1.2858400630367584e+02 -5.1163985349548657e+03 +4.2299386634680221e+05 +4.0395449799637131e+07 
+1.1000000000000003e+00 -5.5593219065573285e-01 +7.2942181937413260e+00 +5.1730294942127744e+00 -1.2898758823465997e+02 -5.0061550777377570e+03 +4.2737067104129237e+05 +3.9744327531073593e+07 
+1.1500000000000004e+00 -5.5593915601441557e-01 +7.2946404243717584e+00 +5.1583007300320762e+00 -1.2937697077613046e+02 -4.8950676650850173e+03 +4.3167738919426169e+05 +3.9086461921783924e+07 
+1.2000000000000004e+00 -5.5594645667435494e-01 +7.2950803246350056e+00 +5.1431727325163159e+00 -1.2975071877180039e+02 -4.7831600451176337e+03 +4.3590307947833324e+05 +3.8422059375885040e+07 
+1.2500000000000004e+00 -5.5595409194269996e-01 +7.2955377950444706e+00 +5.1276488467499997e+00 -1.3010739689676330e+02 -4.6704560120046153e+03 +4.4003679915704805e+05 +3.7751326574783653e+07 
+1.3000000000000005e+00 -5.5596206112659219e-01 +7.2960127361156184e+00 +5.1117324147664300e+00 -1.3044556990777227e+02 -4.5569792892740952e+03 +4.4406760622935236e+05 +3.7074469769273117e+07 
+1.3500000000000005e+00 -5.5597036353322138e-01 +7.2965050483651268e+00 +5.0954267836950615e+00 -1.3076380257585015e+02 -4.4427537297618210e+03 +4.4798455875694397e+05 +3.6391696052876763e+07 
+1.4000000000000006e+00 -5.5597899846975540e-01 +7.2970146323102991e+00 +5.0787352955510752e+00 -1.3106065968208574e+02 -4.3278030603585667e+03 +4.5177671489909419e+05 +3.5703211712408833e+07 
+1.4500000000000006e+00 -5.5598796524339877e-01 +7.2975413884664038e+00 +5.0616612948921222e+00 -1.3133470590655733e+02 -4.2121510663350982e+03 +4.5543313198757626e+05 +3.5009223394520268e+07 
+1.5000000000000007e+00 -5.5599726316136688e-01 +7.2980852173516784e+00 +5.0442081263278782e+00 -1.3158450602732614e+02 -4.0958215421714949e+03 +4.5894286815561779e+05 +3.4309937838213615e+07 
+1.5500000000000007e+00 -5.5600689153085703e-01 +7.2986460194852363e+00 +5.0263791292951083e+00 -1.3180862484564634e+02 -3.9788381463661299e+03 +4.6229498174271733e+05 +3.3605560876172043e+07 
+1.6000000000000008e+00 -5.5601684965912512e-01 +7.2992236953831640e+00 +5.0081776501619775e+00 -1.3200562701634860e+02 -3.8612247192102454e+03 +4.6547852987191442e+05 +3.2896299553562697e+07 
+1.6500000000000008e+00 -5.5602713685341654e-01 +7.2998181455664604e+00 +4.9896070316392942e+00 -1.3217407737408459e+02 -3.7430050088609532e+03 +4.6848257112943369e+05 +3.2182360316993129e+07 
+1.7000000000000008e+00 -5.5603775242098874e-01 +7.3004292705540941e+00 +4.9706706156576672e+00 -1.3231254065548151e+02 -3.6242027402158724e+03 +4.7129616331743397e+05 +3.1463949451228276e+07 
+1.7500000000000009e+00 -5.5604869566911341e-01 +7.3010569708638160e+00 +4.9513717450250496e+00 -1.3241958152853439e+02 -3.5048416706299804e+03 +4.7390836365276022e+05 +3.0741273494167000e+07 
+1.8000000000000009e+00 -5.5605996590508266e-01 +7.3017011470180222e+00 +4.9317137629059742e+00 -1.3249376483691927e+02 -3.3849455593602011e+03 +4.7630823082377319e+05 +3.0014538967942532e+07 
+1.8500000000000010e+00 -5.5607156243618028e-01 +7.3023616995377809e+00 +4.9117000091250089e+00 -1.3253365534263111e+02 -3.2645380846928783e+03 +4.7848482279169391e+05 +2.9283951886329267e+07 
+1.9000000000000010e+00 -5.5608348456972501e-01 +7.3030385289423609e+00 +4.8913338272137912e+00 -1.3253781772874950e+02 -3.1436430231142099e+03 +4.8042719692509889e+05 +2.8549718918971051e+07 
+1.9500000000000011e+00 -5.5609573161303705e-01 +7.3037315357550519e+00 +4.8706185583726747e+00 -1.3250481681985363e+02 -3.0222840907749005e+03 +4.8212441171596211e+05 +2.7812046343908045e+07 
+2.0000000000000009e+00 -5.5610830287344704e-01 +7.3044406204953107e+00 +4.8495575440245879e+00 -1.3243321726476725e+02 -2.9004850143963658e+03 +4.8356552421536960e+05 +2.7071140524683755e+07 
+2.0500000000000007e+00 -5.5612119745244926e-01 +7.3051656844476822e+00 +4.8281547448870983e+00 -1.3232198799927150e+02 -2.7782852232170831e+03 +4.8474228838522354e+05 +2.6327298463863272e+07 
+2.1000000000000005e+00 -5.5613441362853644e-01 +7.3059066262537788e+00 +4.8064166800287955e+00 -1.3217171295333952e+02 -2.6557785910009702e+03 +4.8565725113745418e+05 +2.5581124674747854e+07 
+2.1500000000000004e+00 -5.5614794947451474e-01 +7.3066633424871865e+00 +4.7843505276985141e+00 -1.3198338054322411e+02 -2.5330702202645202e+03 +4.8631566372631129e+05 +2.4833284731226381e+07 
+2.2000000000000002e+00 -5.5616180306321927e-01 +7.3074357297238155e+00 +4.7619634699873128e+00 -1.3175797925001282e+02 -2.4102653227859241e+03 +4.8672277785812819e+05 +2.4084444968791485e+07 
+2.2500000000000000e+00 -5.5617597246749562e-01 +7.3082236845403132e+00 +4.7392626885145930e+00 -1.3149649757897174e+02 -2.2874690942518714e+03 +4.8688384546412708e+05 +2.3335271603183605e+07 
+2.2999999999999998e+00 -5.5619045576019843e-01 +7.3090271035117524e+00 +4.7162553644290615e+00 -1.3119992394655060e+02 -2.1647867199527504e+03 +4.8680411771743407e+05 +2.2586430793812886e+07 
+2.3499999999999996e+00 -5.5620525101418450e-01 +7.3098458832143320e+00 +4.6929486776471014e+00 -1.3086924681554225e+02 -2.0423233510179696e+03 +4.8648884622193885e+05 +2.1838588463066395e+07 
+2.3999999999999995e+00 -5.5622035630233213e-01 +7.3106799202211832e+00 +4.6693498098804316e+00 -1.3050545448932957e+02 -1.9201841860657755e+03 +4.8594328119758598e+05 +2.1092410853675570e+07 
+2.4499999999999993e+00 -5.5623576969752730e-01 +7.3115291111096967e+00 +4.6454659422119340e+00 -1.3010953544290496e+02 -1.7984744079198388e+03 +4.8517267431517917e+05 +2.0348564110009000e+07 
+2.4999999999999991e+00 -5.5625148927266843e-01 +7.3123933524589804e+00 +4.6213042561113511e+00 -1.2968247819784943e+02 -1.6772992078005429e+03 +4.8418227757529792e+05 +1.9607714425028794e+07 
+2.5499999999999989e+00 -5.5626751310065747e-01 +7.3132725408403454e+00 +4.5968719315709867e+00 -1.2922527095440506e+02 -1.5567637349742579e+03 +4.8297734039938689e+05 +1.8870527704224635e+07 
+2.5999999999999988e+00 -5.5628383925440961e-01 +7.3141665728337220e+00 +4.5721761498501587e+00 -1.2873890224022327e+02 -1.4369731799741412e+03 +4.8156311483348405e+05 +1.8137670161255971e+07 
+2.6499999999999986e+00 -5.5630046580685100e-01 +7.3150753450161226e+00 +4.5472240917191824e+00 -1.2822436045263495e+02 -1.3180327094686211e+03 +4.7994485186343529e+05 +1.7409807805573307e+07 
+2.6999999999999984e+00 -5.5631739083092269e-01 +7.3159987539604678e+00 +4.5220229391238611e+00 -1.2768263381619367e+02 -1.2000475285365942e+03 +4.7812780108094326e+05 +1.6687606939603614e+07 
+2.7499999999999982e+00 -5.5633461239955484e-01 +7.3169366962455440e+00 +4.4965798704786391e+00 -1.2711471076772065e+02 -1.0831227433065601e+03 +4.7611721375493589e+05 +1.5971733181298740e+07 
+2.7999999999999980e+00 -5.5635212858571892e-01 +7.3178890684472861e+00 +4.4709020693904389e+00 -1.2652157962376550e+02 -9.6736359823527823e+02 +4.7391834019833844e+05 +1.5262853082430054e+07 
+2.8499999999999979e+00 -5.5636993746237440e-01 +7.3188557671441608e+00 +4.4449967162865649e+00 -1.2590422878780254e+02 -8.5287525416341634e+02 +4.7153643141266069e+05 +1.4561632637012402e+07 
+2.8999999999999977e+00 -5.5638803710249307e-01 +7.3198366889112751e+00 +4.4188709920911551e+00 -1.2526364652082560e+02 -7.3976288552687413e+02 +4.6897673725574568e+05 +1.3868737935960030e+07 
+2.9499999999999975e+00 -5.5640642557905395e-01 +7.3208317303258781e+00 +4.3925320766455318e+00 -1.2460082114160397e+02 -6.2813162857518012e+02 +4.6624450797510543e+05 +1.3184834781405736e+07 
+2.9999999999999973e+00 -5.5642510096506004e-01 +7.3218407879644616e+00 +4.3659871536462473e+00 -1.2391674095250298e+02 -5.1808673321197602e+02 +4.6334499378531205e+05 +1.2510589780246800e+07 
+3.0499999999999972e+00 -5.5644406133349267e-01 +7.3228637584019385e+00 +4.3392434005397673e+00 -1.2321239414712787e+02 -4.0973327033060758e+02 +4.6028344387156382e+05 +1.1846668293930180e+07 
+3.0999999999999970e+00 -5.5646330475737538e-01 +7.3239005382176572e+00 +4.3123080012005834e+00 -1.2248876912183029e+02 -3.0317648935362763e+02 +4.5706510919860721e+05 +1.1193736912863135e+07 
+3.1499999999999968e+00 -5.5648282930971826e-01 +7.3249510239876807e+00 +4.2851881356726107e+00 -1.2174685409851057e+02 -1.9852153466912156e+02 +4.5369523917813791e+05 +1.0552461514533309e+07 
+3.1999999999999966e+00 -5.5650263306355219e-01 +7.3260151122861261e+00 +4.2578909858280323e+00 -1.2098763722319801e+02 -9.5873593899359491e+01 +4.5017908264778921e+05 +9.9235082469160631e+06 
+3.2499999999999964e+00 -5.5652271409190657e-01 +7.3270926996907804e+00 +4.2304237324469778e+00 -1.2021210677933477e+02 +4.6621706992939380e+00 +4.4652188955456408e+05 +9.3075431048952918e+06 
+3.2999999999999963e+00 -5.5654307046782148e-01 +7.3281836827781630e+00 +4.2027935563433205e+00 -1.1942125099075284e+02 +1.0298060107565908e+02 +4.4272890936311282e+05 +8.7052320394791123e+06 
+3.3499999999999961e+00 -5.5656370026435775e-01 +7.3292879581233255e+00 +4.1750076410908630e+00 -1.1861605799762991e+02 +1.9897646244613208e+02 +4.3880539077537990e+05 +8.1172415320212012e+06 
+3.3999999999999959e+00 -5.5658460155456457e-01 +7.3304054223031105e+00 +4.1470731665597649e+00 -1.1779751601979352e+02 +2.9254462621018445e+02 +4.3475658320804767e+05 +7.5442373226311347e+06 
+3.4499999999999957e+00 -5.5660577241150921e-01 +7.3315359718936604e+00 +4.1189973146897776e+00 -1.1696661323170137e+02 +3.8357990486768045e+02 +4.3058773567061831e+05 +6.9868855692679724e+06 
+3.4999999999999956e+00 -5.5662721090826095e-01 +7.3326795034683840e+00 +4.0907872664579115e+00 -1.1612433768465934e+02 +4.7197714270077353e+02 +4.2630409613012499e+05 +6.4458521915944880e+06 
+3.5499999999999954e+00 -5.5664891511790382e-01 +7.3338359136046609e+00 +4.0624502045655966e+00 -1.1527167758049545e+02 +5.5763113395791117e+02 +4.2191091377912008e+05 +5.9218034650731348e+06 
+3.5999999999999952e+00 -5.5667088311352253e-01 +7.3350050988772937e+00 +4.0339933100969532e+00 -1.1440962101194762e+02 +6.4043672375328970e+02 +4.1741343691653421e+05 +5.4154052996161226e+06 
+3.6499999999999950e+00 -5.5669311296822110e-01 +7.3361869558586719e+00 +4.0054237668623349e+00 -1.1353915596470853e+02 +7.2028868175034199e+02 +4.1281691295343667e+05 +4.9273241219881466e+06 
+3.6999999999999948e+00 -5.5671560275509124e-01 +7.3373813811271651e+00 +3.9767487549190119e+00 -1.1266127064785371e+02 +7.9708188433950022e+02 +4.0812659106782248e+05 +4.4582256236476991e+06 
+3.7499999999999947e+00 -5.5673835054724230e-01 +7.3385882712536912e+00 +3.9479754571661481e+00 -1.1177695298036605e+02 +8.7071112664158534e+02 +4.0334771814254666e+05 +4.0087760624205358e+06 
+3.7999999999999945e+00 -5.5676135441779240e-01 +7.3398075228153381e+00 +3.9191110557510171e+00 -1.1088719110571436e+02 +9.4107123478054814e+02 +3.9848554279716068e+05 +3.5796414546939670e+06 
+3.8499999999999943e+00 -5.5678461243985977e-01 +7.3410390323847849e+00 +3.8901627328483612e+00 -1.0999297298348711e+02 +1.0080570315434287e+03 +3.9354531216240692e+05 +3.1714878460741425e+06 
+3.8999999999999941e+00 -5.5680812268658175e-01 +7.3422826965347179e+00 +3.8611376724089426e+00 -1.0909528656628385e+02 +1.0715632945147051e+03 +3.8853227327764040e+05 +2.7849815867084935e+06 
+3.9499999999999940e+00 -5.5683188323107802e-01 +7.3435384118381419e+00 +3.8320430553736764e+00 -1.0819511981776056e+02 +1.1314848780407301e+03 +3.8345167329591740e+05 +2.4207885251894658e+06 
+3.9999999999999938e+00 -5.5685589214649633e-01 +7.3448060748693633e+00 +3.8028860647020686e+00 -1.0729346073897554e+02 +1.1877166006243040e+03 +3.7830875966414611e+05 +2.0795746923085500e+06 
+4.0499999999999936e+00 -5.5688014740207514e-01 +7.3460855714112743e+00 +3.7736738729944692e+00 -1.0639123778227224e+02 +1.2401598835525490e+03 +3.7310904508248018e+05 +1.7619752257506584e+06 
+4.0999999999999934e+00 -5.5690464655176908e-01 +7.3473767387194089e+00 +3.7444142870480195e+00 -1.0548915866283234e+02 +1.2887376772215778e+03 +3.6785906635441969e+05 +1.4685005755099973e+06 
+4.1499999999999932e+00 -5.5692938704579764e-01 +7.3486794005765343e+00 +3.7151154595018610e+00 -1.0458788256652787e+02 +1.3333771264507197e+03 +3.6256562281208456e+05 +1.1996300567678032e+06 
+4.1999999999999931e+00 -5.5695436633439521e-01 +7.3499933807637996e+00 +3.6857855461128795e+00 -1.0368806862685939e+02 +1.3740052888228054e+03 +3.5723551329398807e+05 +9.5584359150181396e+05 
+4.2499999999999929e+00 -5.5697958186777474e-01 +7.3513185030637578e+00 +3.6564326978043384e+00 -1.0279037603094913e+02 +1.4105493581025012e+03 +3.5187553704159579e+05 +7.3762015840977454e+05 
+4.2999999999999927e+00 -5.5700503109617217e-01 +7.3526545912579024e+00 +3.6270650702117204e+00 -1.0189546394157200e+02 +1.4429363956228597e+03 +3.4649249314101820e+05 +5.4543964577196655e+05 
+4.3499999999999925e+00 -5.5703071146981109e-01 +7.3540014691241140e+00 +3.5976908164931540e+00 -1.0100399135810491e+02 +1.4710935326788344e+03 +3.4109317923983402e+05 +3.7978145340735232e+05 
+4.3999999999999924e+00 -5.5705662043893056e-01 +7.3553589604447493e+00 +3.5683180918632034e+00 -1.0011661749080699e+02 +1.4949478488596569e+03 +3.3568439480895840e+05 +2.4112531545865687e+05 
+4.4499999999999922e+00 -5.5708275545375974e-01 +7.3567268889996997e+00 +3.5389550508367842e+00 -9.9234001445030046e+01 +1.5144264343106170e+03 +3.3027293839997641e+05 +1.2995092021985097e+05 
+4.4999999999999920e+00 -5.5710911396453133e-01 +7.3581050785650657e+00 +3.5096098476282336e+00 -9.8356802177685964e+01 +1.5294563966370663e+03 +3.2486560732982395e+05 +4.6737800790152862e+04 
+4.5499999999999918e+00 -5.5713569342148239e-01 +7.3594933529221889e+00 +3.4802906379777654e+00 -9.7485678870897843e+01 +1.5399647954594982e+03 +3.1946920077752665e+05 -8.0341651862838380e+03 
+4.5999999999999917e+00 -5.5716249127484097e-01 +7.3608915358461502e+00 +3.4510055758322036e+00 -9.6621290461352459e+01 +1.5458787433211680e+03 +3.1409051590378769e+05 -3.3885477415220150e+04 
+4.6499999999999915e+00 -5.5718950497485176e-01 +7.3622994511162680e+00 +3.4217628185015854e+00 -9.5764296061564437e+01 +1.5471252604961207e+03 +3.0873635128039907e+05 -3.0336012795930696e+04 
+4.6999999999999913e+00 -5.5721673197173505e-01 +7.3637169225076029e+00 +3.3925705190216671e+00 -9.4915354625421656e+01 +1.5436314821366966e+03 +3.0341350419659383e+05 +3.0935771337238557e+03 
+4.7499999999999911e+00 -5.5724416971574187e-01 +7.3651437737967953e+00 +3.3634368363099876e+00 -9.4075125177597513e+01 +1.5353243873158519e+03 +2.9812877248882252e+05 +6.6883675309233586e+04 
+4.7999999999999909e+00 -5.5727181565710371e-01 +7.3665798287601403e+00 +3.3343699258888067e+00 -9.3244266748715390e+01 +1.5221310457136997e+03 +2.9288895408866165e+05 +1.6151405741117359e+05 
+4.8499999999999908e+00 -5.5729966724604640e-01 +7.3680249111709069e+00 +3.3053779430320183e+00 -9.2423438236315377e+01 +1.5039785323840993e+03 +2.8770084573218168e+05 +2.8746445922125608e+05 
+4.8999999999999906e+00 -5.5732772193281066e-01 +7.3694788448040720e+00 +3.2764690458367047e+00 -9.1613298640788088e+01 +1.4807938490763954e+03 +2.8257124507399119e+05 +4.4521509813106823e+05 
+4.9499999999999904e+00 -5.5735597716762453e-01 +7.3709414534316000e+00 +3.2476513908533526e+00 -9.0814506843395392e+01 +1.4525040367993943e+03 +2.7750694876590691e+05 +6.3524592824298458e+05 
+4.9999999999999902e+00 -5.5738443040071561e-01 +7.3724125608268958e+00 +3.2189331347820143e+00 -9.0027721796172699e+01 +1.4190361349700111e+03 +2.7251475401193090e+05 +8.5803690351001406e+05 
+5.0499999999999901e+00 -5.5741307908232129e-01 +7.3738919907615905e+00 +3.1903224366839149e+00 -8.9253602391554566e+01 +1.3803171189305767e+03 +2.6760145752956677e+05 +1.1140684050763745e+06 
