# field on trajectory
# s[mm] rx[mm] ry[mm] rz[mm] bx[T] by[T] bz[T]
0.0000000000000000e+00 +8.5980000000000008e+00 +0.0000000000000000e+00 +0.0000000000000000e+00 -3.0346506278837528e-02 -5.5220896713046319e-01 +5.6234998736274062e-03
-5.0000000000000003e-02 +8.5979999310416542e+00 +0.0000000000000000e+00 -4.9999999999936595e-02 -3.0346935734955609e-02 -5.5221101298790443e-01 +5.6269223973039063e-03
-1.0000000000000001e-01 +8.5979997241662609e+00 +0.0000000000000000e+00 -9.9999999999492772e-02 -3.0347391828124376e-02 -5.5221344648236970e-01 +5.6303390113724315e-03
-1.5000000000000002e-01 +8.5979993793732117e+00 +0.0000000000000000e+00 -1.4999999999828811e-01 -3.0347874529432026e-02 -5.5221626669569979e-01 +5.6337494817313748e-03
-2.0000000000000001e-01 +8.5979988966618013e+00 +0.0000000000000000e+00 -1.9999999999594217e-01 -3.0348383809967371e-02 -5.5221947270975091e-01 +5.6371535742787207e-03
-2.5000000000000000e-01 +8.5979982760312303e+00 +0.0000000000000000e+00 -2.4999999999207451e-01 -3.0348919640819788e-02 -5.5222306360639728e-01 +5.6405510549120182e-03
-2.9999999999999999e-01 +8.5979975174806018e+00 +0.0000000000000000e+00 -2.9999999998630467e-01 -3.0349481993079387e-02 -5.5222703846752907e-01 +5.6439416895283602e-03
-3.4999999999999998e-01 +8.5979966210089227e+00 +0.0000000000000000e+00 -3.4999999997825221e-01 -3.0350070837836952e-02 -5.5223139637505436e-01 +5.6473252440243640e-03
-3.9999999999999997e-01 +8.5979955866151041e+00 +0.0000000000000000e+00 -3.9999999996753666e-01 -3.0350686146184046e-02 -5.5223613641089786e-01 +5.6507014842961415e-03
-4.4999999999999996e-01 +8.5979944142979630e+00 +0.0000000000000000e+00 -4.4999999995377754e-01 -3.0351327889212982e-02 -5.5224125765700083e-01 +5.6540701762392807e-03
-4.9999999999999994e-01 +8.5979931040562203e+00 +0.0000000000000000e+00 -4.9999999993659439e-01 -3.0351996038017012e-02 -5.5224675919532218e-01 +5.6574310857488257e-03
-5.4999999999999993e-01 +8.5979916558885012e+00 +0.0000000000000000e+00 -5.4999999991560666e-01 -3.0352690563690134e-02 -5.5225264010783670e-01 +5.6607839787192376e-03
-5.9999999999999998e-01 +8.5979900697933367e+00 +0.0000000000000000e+00 -5.9999999989043384e-01 -3.0353411437327355e-02 -5.5225889947653650e-01 +5.6641286210443965e-03
-6.5000000000000002e-01 +8.5979883457691653e+00 +0.0000000000000000e+00 -6.4999999986069534e-01 -3.0354158630024598e-02 -5.5226553638343057e-01 +5.6674647786175538e-03
-7.0000000000000007e-01 +8.5979864838143278e+00 +0.0000000000000000e+00 -6.9999999982601069e-01 -3.0354932112878808e-02 -5.5227254991054409e-01 +5.6707922173313266e-03
-7.5000000000000011e-01 +8.5979844839270729e+00 +0.0000000000000000e+00 -7.4999999978599929e-01 -3.0355731856987984e-02 -5.5227993913991935e-01 +5.6741107030776651e-03
-8.0000000000000016e-01 +8.5979823461055567e+00 +0.0000000000000000e+00 -7.9999999974028069e-01 -3.0356557833451175e-02 -5.5228770315361553e-01 +5.6774200017478309e-03
-8.5000000000000020e-01 +8.5979800703478393e+00 +0.0000000000000000e+00 -8.4999999968847406e-01 -3.0357410013368589e-02 -5.5229584103370755e-01 +5.6807198792323743e-03
-9.0000000000000024e-01 +8.5979776566518868e+00 +0.0000000000000000e+00 -8.9999999963019894e-01 -3.0358288367841584e-02 -5.5230435186228777e-01 +5.6840101014211204e-03
-9.5000000000000029e-01 +8.5979751050155748e+00 +0.0000000000000000e+00 -9.4999999956507464e-01 -3.0359192867972697e-02 -5.5231323472146443e-01 +5.6872904342031225e-03
-1.0000000000000002e+00 +8.5979724154366846e+00 +0.0000000000000000e+00 -9.9999999949272045e-01 -3.0360123484865789e-02 -5.5232248869336320e-01 +5.6905606434666653e-03
-1.0500000000000003e+00 +8.5979695879129050e+00 +0.0000000000000000e+00 -1.0499999994127558e+00 -3.0361080189625946e-02 -5.5233211286012485e-01 +5.6938204950992295e-03
-1.1000000000000003e+00 +8.5979666224418327e+00 +0.0000000000000000e+00 -1.0999999993247997e+00 -3.0362062953359605e-02 -5.5234210630390812e-01 +5.6970697549874622e-03
-1.1500000000000004e+00 +8.5979635190209720e+00 +0.0000000000000000e+00 -1.1499999992284717e+00 -3.0363071747174578e-02 -5.5235246810688687e-01 +5.7003081890171642e-03
-1.2000000000000004e+00 +8.5979602776477346e+00 +0.0000000000000000e+00 -1.1999999991233909e+00 -3.0364106542180105e-02 -5.5236319735125217e-01 +5.7035355630732660e-03
-1.2500000000000004e+00 +8.5979568983194419e+00 +0.0000000000000000e+00 -1.2499999990091766e+00 -3.0365167309486855e-02 -5.5237429311921116e-01 +5.7067516430397980e-03
-1.3000000000000005e+00 +8.5979533810333209e+00 +0.0000000000000000e+00 -1.2999999988854478e+00 -3.0366254020207012e-02 -5.5238575449298699e-01 +5.7099561947998754e-03
-1.3500000000000005e+00 +8.5979497257865098e+00 +0.0000000000000000e+00 -1.3499999987518236e+00 -3.0367366645454318e-02 -5.5239758055481969e-01 +5.7131489842356664e-03
-1.4000000000000006e+00 +8.5979459325760565e+00 +0.0000000000000000e+00 -1.3999999986079232e+00 -3.0368505156344039e-02 -5.5240977038696482e-01 +5.7163297772283746e-03
-1.4500000000000006e+00 +8.5979420013989145e+00 +0.0000000000000000e+00 -1.4499999984533658e+00 -3.0369669523993104e-02 -5.5242232307169492e-01 +5.7194983396582164e-03
-1.5000000000000007e+00 +8.5979379322519502e+00 +0.0000000000000000e+00 -1.4999999982877703e+00 -3.0370859719520110e-02 -5.5243523769129799e-01 +5.7226544374043928e-03
-1.5500000000000007e+00 +8.5979337251319379e+00 +0.0000000000000000e+00 -1.5499999981107559e+00 -3.0372075714045328e-02 -5.5244851332807843e-01 +5.7257978363450725e-03
-1.6000000000000008e+00 +8.5979293800355610e+00 +0.0000000000000000e+00 -1.5999999979219415e+00 -3.0373317478690817e-02 -5.5246214906435720e-01 +5.7289283023573669e-03
-1.6500000000000008e+00 +8.5979248969594142e+00 +0.0000000000000000e+00 -1.6499999977209459e+00 -3.0374584984580361e-02 -5.5247614398247036e-01 +5.7320456013172970e-03
-1.7000000000000008e+00 +8.5979202759000035e+00 +0.0000000000000000e+00 -1.6999999975073881e+00 -3.0375878202839639e-02 -5.5249049716477072e-01 +5.7351494990997886e-03
-1.7500000000000009e+00 +8.5979155168537424e+00 +0.0000000000000000e+00 -1.7499999972808871e+00 -3.0377197104596139e-02 -5.5250520769362699e-01 +5.7382397615786335e-03
-1.8000000000000009e+00 +8.5979106198169593e+00 +0.0000000000000000e+00 -1.7999999970410616e+00 -3.0378541660979315e-02 -5.5252027465142362e-01 +5.7413161546264720e-03
-1.8500000000000010e+00 +8.5979055847858898e+00 +0.0000000000000000e+00 -1.8499999967875305e+00 -3.0379911843120538e-02 -5.5253569712056105e-01 +5.7443784441147741e-03
-1.9000000000000010e+00 +8.5979004117566813e+00 +0.0000000000000000e+00 -1.8999999965199124e+00 -3.0381307622153166e-02 -5.5255147418345607e-01 +5.7474263959138025e-03
-1.9500000000000011e+00 +8.5978951007253936e+00 +0.0000000000000000e+00 -1.9499999962378260e+00 -3.0382728969212621e-02 -5.5256760492254031e-01 +5.7504597758926083e-03
-2.0000000000000009e+00 +8.5978896516879999e+00 +0.0000000000000000e+00 -1.9999999959408901e+00 -3.0384175855436398e-02 -5.5258408842026241e-01 +5.7534783499189959e-03
-2.0500000000000007e+00 +8.5978840646403825e+00 +0.0000000000000000e+00 -2.0499999956287231e+00 -3.0385648219552114e-02 -5.5260092355250456e-01 +5.7564818993184651e-03
-2.1000000000000005e+00 +8.5978783395783367e+00 +0.0000000000000000e+00 -2.0999999953009438e+00 -3.0387145870641129e-02 -5.5261810836883873e-01 +5.7594702672511726e-03
-2.1500000000000004e+00 +8.5978724764975709e+00 +0.0000000000000000e+00 -2.1499999949571706e+00 -3.0388668585373570e-02 -5.5263564071226812e-01 +5.7624433123351134e-03
-2.2000000000000002e+00 +8.5978664753937046e+00 +0.0000000000000000e+00 -2.1999999945970221e+00 -3.0390216140420076e-02 -5.5265351842580823e-01 +5.7654008931871401e-03
-2.2500000000000000e+00 +8.5978603362622756e+00 +0.0000000000000000e+00 -2.2499999942201168e+00 -3.0391788312451831e-02 -5.5267173935248681e-01 +5.7683428684229543e-03
-2.2999999999999998e+00 +8.5978540590987311e+00 +0.0000000000000000e+00 -2.2999999938260731e+00 -3.0393384878140420e-02 -5.5269030133534303e-01 +5.7712690966571015e-03
-2.3499999999999996e+00 +8.5978476438984366e+00 +0.0000000000000000e+00 -2.3499999934145093e+00 -3.0395005614157863e-02 -5.5270920221742825e-01 +5.7741794365029379e-03
-2.3999999999999995e+00 +8.5978410906566705e+00 +0.0000000000000000e+00 -2.3999999929850437e+00 -3.0396650297176503e-02 -5.5272843984180509e-01 +5.7770737465726481e-03
-2.4499999999999993e+00 +8.5978343993686295e+00 +0.0000000000000000e+00 -2.4499999925372946e+00 -3.0398318703868967e-02 -5.5274801205154700e-01 +5.7799518854772074e-03
-2.4999999999999991e+00 +8.5978275700294251e+00 +0.0000000000000000e+00 -2.4999999920708800e+00 -3.0400010610908110e-02 -5.5276791668973879e-01 +5.7828137118263751e-03
-2.5499999999999989e+00 +8.5978206026340853e+00 +0.0000000000000000e+00 -2.5499999915854179e+00 -3.0401725794967006e-02 -5.5278815159947625e-01 +5.7856590842286998e-03
-2.5999999999999988e+00 +8.5978134971775582e+00 +0.0000000000000000e+00 -2.5999999910805269e+00 -3.0403464032718829e-02 -5.5280871462386527e-01 +5.7884878612914819e-03
-2.6499999999999986e+00 +8.5978062536547064e+00 +0.0000000000000000e+00 -2.6499999905558247e+00 -3.0405225100836843e-02 -5.5282960360602218e-01 +5.7912999016207778e-03
-2.6999999999999984e+00 +8.5977988720603129e+00 +0.0000000000000000e+00 -2.6999999900109293e+00 -3.0407008775994337e-02 -5.5285081638907307e-01 +5.7940950638213830e-03
-2.7499999999999982e+00 +8.5977913523890805e+00 +0.0000000000000000e+00 -2.7499999894454588e+00 -3.0408814834864576e-02 -5.5287235081615460e-01 +5.7968732064968198e-03
-2.7999999999999980e+00 +8.5977836946356305e+00 +0.0000000000000000e+00 -2.7999999888590308e+00 -3.0410643054120733e-02 -5.5289420473041273e-01 +5.7996341882493203e-03
-2.8499999999999979e+00 +8.5977758987945059e+00 +0.0000000000000000e+00 -2.8499999882512634e+00 -3.0412493210435872e-02 -5.5291637597500254e-01 +5.8023778676798273e-03
-2.8999999999999977e+00 +8.5977679648601697e+00 +0.0000000000000000e+00 -2.8999999876217744e+00 -3.0414365080482845e-02 -5.5293886239308876e-01 +5.8051041033879642e-03
-2.9499999999999975e+00 +8.5977598928270051e+00 +0.0000000000000000e+00 -2.9499999869701812e+00 -3.0416258440934287e-02 -5.5296166182784456e-01 +5.8078127539720453e-03
-2.9999999999999973e+00 +8.5977516826893172e+00 +0.0000000000000000e+00 -2.9999999862961015e+00 -3.0418173068462531e-02 -5.5298477212245267e-01 +5.8105036780290321e-03
-3.0499999999999972e+00 +8.5977433344413345e+00 +0.0000000000000000e+00 -3.0499999855991531e+00 -3.0420108739739569e-02 -5.5300819112010335e-01 +5.8131767341545538e-03
-3.0999999999999970e+00 +8.5977348480772093e+00 +0.0000000000000000e+00 -3.0999999848789535e+00 -3.0422065231437010e-02 -5.5303191666399609e-01 +5.8158317809428733e-03
-3.1499999999999968e+00 +8.5977262235910157e+00 +0.0000000000000000e+00 -3.1499999841351198e+00 -3.0424042320226014e-02 -5.5305594659733792e-01 +5.8184686769868913e-03
-3.1999999999999966e+00 +8.5977174609767513e+00 +0.0000000000000000e+00 -3.1999999833672699e+00 -3.0426039782777220e-02 -5.5308027876334376e-01 +5.8210872808781124e-03
-3.2499999999999964e+00 +8.5977085602283392e+00 +0.0000000000000000e+00 -3.2499999825750208e+00 -3.0428057395760724e-02 -5.5310491100523629e-01 +5.8236874512066512e-03
-3.2999999999999963e+00 +8.5976995213396279e+00 +0.0000000000000000e+00 -3.2999999817579897e+00 -3.0430094935846037e-02 -5.5312984116624553e-01 +5.8262690465612178e-03
-3.3499999999999961e+00 +8.5976903443043931e+00 +0.0000000000000000e+00 -3.3499999809157939e+00 -3.0432152179701979e-02 -5.5315506708960838e-01 +5.8288319255290922e-03
-3.3999999999999959e+00 +8.5976810291163321e+00 +0.0000000000000000e+00 -3.3999999800480505e+00 -3.0434228903996656e-02 -5.5318058661856950e-01 +5.8313759466961336e-03
-3.4499999999999957e+00 +8.5976715757690716e+00 +0.0000000000000000e+00 -3.4499999791543767e+00 -3.0436324885397471e-02 -5.5320639759637980e-01 +5.8339009686467465e-03
-3.4999999999999956e+00 +8.5976619842561668e+00 +0.0000000000000000e+00 -3.4999999782343898e+00 -3.0438439900570931e-02 -5.5323249786629647e-01 +5.8364068499638811e-03
-3.5499999999999954e+00 +8.5976522545710985e+00 +0.0000000000000000e+00 -3.5499999772877060e+00 -3.0440573726182710e-02 -5.5325888527158296e-01 +5.8388934492290155e-03
-3.5999999999999952e+00 +8.5976423867072747e+00 +0.0000000000000000e+00 -3.5999999763139425e+00 -3.0442726138897588e-02 -5.5328555765550913e-01 +5.8413606250221533e-03
-3.6499999999999950e+00 +8.5976323806580357e+00 +0.0000000000000000e+00 -3.6499999753127166e+00 -3.0444896915379337e-02 -5.5331251286135130e-01 +5.8438082359218027e-03
-3.6999999999999948e+00 +8.5976222364166492e+00 +0.0000000000000000e+00 -3.6999999742836445e+00 -3.0447085832290669e-02 -5.5333974873238989e-01 +5.8462361405049474e-03
-3.7499999999999947e+00 +8.5976119539763136e+00 +0.0000000000000000e+00 -3.7499999732263429e+00 -3.0449292666293301e-02 -5.5336726311191198e-01 +5.8486441973470788e-03
-3.7999999999999945e+00 +8.5976015333301561e+00 +0.0000000000000000e+00 -3.7999999721404283e+00 -3.0451517194047751e-02 -5.5339505384320908e-01 +5.8510322650221405e-03
-3.8499999999999943e+00 +8.5975909744712364e+00 +0.0000000000000000e+00 -3.8499999710255173e+00 -3.0453759192213367e-02 -5.5342311876957795e-01 +5.8534002021025352e-03
-3.8999999999999941e+00 +8.5975802773925452e+00 +0.0000000000000000e+00 -3.8999999698812262e+00 -3.0456018437448284e-02 -5.5345145573432042e-01 +5.8557478671591116e-03
-3.9499999999999940e+00 +8.5975694420870070e+00 +0.0000000000000000e+00 -3.9499999687071718e+00 -3.0458294706409306e-02 -5.5348006258074200e-01 +5.8580751187611484e-03
-3.9999999999999938e+00 +8.5975584685474757e+00 +0.0000000000000000e+00 -3.9999999675029700e+00 -3.0460587775751922e-02 -5.5350893715215332e-01 +5.8603818154763466e-03
-4.0499999999999936e+00 +8.5975473567667393e+00 +0.0000000000000000e+00 -4.0499999662682376e+00 -3.0462897422296555e-02 -5.5353807715705405e-01 +5.8626678358970168e-03
-4.0999999999999934e+00 +8.5975361067375200e+00 +0.0000000000000000e+00 -4.0999999650025902e+00 -3.0465223423528334e-02 -5.5356747976469112e-01 +5.8649331387190928e-03
-4.1499999999999932e+00 +8.5975247184524761e+00 +0.0000000000000000e+00 -4.1499999637056435e+00 -3.0467565557099438e-02 -5.5359714200949750e-01 +5.8671777026638831e-03
-4.1999999999999931e+00 +8.5975131919041985e+00 +0.0000000000000000e+00 -4.1999999623770146e+00 -3.0469923600662974e-02 -5.5362706092590874e-01 +5.8694015064518585e-03
-4.2499999999999929e+00 +8.5975015270852158e+00 +0.0000000000000000e+00 -4.2499999610163188e+00 -3.0472297331873004e-02 -5.5365723354836127e-01 +5.8716045288026604e-03
-4.2999999999999927e+00 +8.5974897239879908e+00 +0.0000000000000000e+00 -4.2999999596231717e+00 -3.0474686528384542e-02 -5.5368765691129374e-01 +5.8737867484351192e-03
-4.3499999999999925e+00 +8.5974777826049262e+00 +0.0000000000000000e+00 -4.3499999581971895e+00 -3.0477090967853625e-02 -5.5371832804914445e-01 +5.8759481440672570e-03
-4.3999999999999924e+00 +8.5974657029283623e+00 +0.0000000000000000e+00 -4.3999999567379877e+00 -3.0479510427937263e-02 -5.5374924399635306e-01 +5.8780886944162971e-03
-4.4499999999999922e+00 +8.5974534849505773e+00 +0.0000000000000000e+00 -4.4499999552451817e+00 -3.0481944686293540e-02 -5.5378040178735943e-01 +5.8802083781986977e-03
-4.4999999999999920e+00 +8.5974411286637906e+00 +0.0000000000000000e+00 -4.4999999537183877e+00 -3.0484393520581542e-02 -5.5381179845660344e-01 +5.8823071741301251e-03
-4.5499999999999918e+00 +8.5974286340601598e+00 +0.0000000000000000e+00 -4.5499999521572203e+00 -3.0486856708461473e-02 -5.5384343103852507e-01 +5.8843850609254953e-03
-4.5999999999999917e+00 +8.5974160011317853e+00 +0.0000000000000000e+00 -4.5999999505612958e+00 -3.0489334027594593e-02 -5.5387529656756318e-01 +5.8864420172989734e-03
-4.6499999999999915e+00 +8.5974032298707073e+00 +0.0000000000000000e+00 -4.6499999489302288e+00 -3.0491825255643305e-02 -5.5390739207815698e-01 +5.8884780219639887e-03
-4.6999999999999913e+00 +8.5973903202689126e+00 +0.0000000000000000e+00 -4.6999999472636347e+00 -3.0494330170271110e-02 -5.5393971460474356e-01 +5.8904930536332343e-03
-4.7499999999999911e+00 +8.5973772723183259e+00 +0.0000000000000000e+00 -4.7499999455611288e+00 -3.0496848549142679e-02 -5.5397226118175902e-01 +5.8924870910186944e-03
-4.7999999999999909e+00 +8.5973640860108205e+00 +0.0000000000000000e+00 -4.7999999438223258e+00 -3.0499380169923901e-02 -5.5400502884363845e-01 +5.8944601128316449e-03
-4.8499999999999908e+00 +8.5973507613382125e+00 +0.0000000000000000e+00 -4.8499999420468409e+00 -3.0501924810281772e-02 -5.5403801462481439e-01 +5.8964120977826710e-03
-4.8999999999999906e+00 +8.5973372982922633e+00 +0.0000000000000000e+00 -4.8999999402342889e+00 -3.0504482247884546e-02 -5.5407121555971772e-01 +5.8983430245816634e-03
-4.9499999999999904e+00 +8.5973236968646809e+00 +0.0000000000000000e+00 -4.9499999383842850e+00 -3.0507052260401742e-02 -5.5410462868277677e-01 +5.9002528719378474e-03
-4.9999999999999902e+00 +8.5973099570471199e+00 +0.0000000000000000e+00 -4.9999999364964429e+00 -3.0509634625504080e-02 -5.5413825102841752e-01 +5.9021416185597916e-03
-5.0499999999999901e+00 +8.5972960788311834e+00 +0.0000000000000000e+00 -5.0499999345703781e+00 -3.0512229120863592e-02 -5.5417207963106241e-01 +5.9040092431554021e-03
-5.0999999999999899e+00 +8.5972820622084249e+00 +0.0000000000000000e+00 -5.0999999326057051e+00 -3.0514835524153586e-02 -5.5420611152513122e-01 +5.9058557244319569e-03
-5.1499999999999897e+00 +8.5972679071703428e+00 +0.0000000000000000e+00 -5.1499999306020383e+00 -3.0517453613048695e-02 -5.5424034374503972e-01 +5.9076810410960958e-03
-5.1999999999999895e+00 +8.5972536137083875e+00 +0.0000000000000000e+00 -5.1999999285589915e+00 -3.0520083165224882e-02 -5.5427477332520070e-01 +5.9094851718538470e-03
-5.2499999999999893e+00 +8.5972391818139613e+00 +0.0000000000000000e+00 -5.2499999264761801e+00 -3.0522723958359473e-02 -5.5430939730002227e-01 +5.9112680954106281e-03
-5.2999999999999892e+00 +8.5972246114784152e+00 +0.0000000000000000e+00 -5.2999999243532177e+00 -3.0525375770131178e-02 -5.5434421270390821e-01 +5.9130297904712642e-03
-5.3499999999999890e+00 +8.5972099026930557e+00 +0.0000000000000000e+00 -5.3499999221897179e+00 -3.0528038378220077e-02 -5.5437921657125855e-01 +5.9147702357399932e-03
-5.3999999999999888e+00 +8.5971950554491396e+00 +0.0000000000000000e+00 -5.3999999199852953e+00 -3.0530711560307698e-02 -5.5441440593646707e-01 +5.9164894099204817e-03
-5.4499999999999886e+00 +8.5971800697378793e+00 +0.0000000000000000e+00 -5.4499999177395635e+00 -3.0533395094076984e-02 -5.5444977783392391e-01 +5.9181872917158295e-03
-5.4999999999999885e+00 +8.5971649455504409e+00 +0.0000000000000000e+00 -5.4999999154521371e+00 -3.0536088757212351e-02 -5.5448532929801275e-01 +5.9198638598285894e-03
-5.5499999999999883e+00 +8.5971496828779443e+00 +0.0000000000000000e+00 -5.5499999131226296e+00 -3.0538792327399693e-02 -5.5452105736311219e-01 +5.9215190929607720e-03
-5.5999999999999881e+00 +8.5971342817114671e+00 +0.0000000000000000e+00 -5.5999999107506540e+00 -3.0541505582326406e-02 -5.5455695906359459e-01 +5.9231529698138543e-03
-5.6499999999999879e+00 +8.5971187420420438e+00 +0.0000000000000000e+00 -5.6499999083358245e+00 -3.0544228299681377e-02 -5.5459303143382577e-01 +5.9247654690887984e-03
-5.6999999999999877e+00 +8.5971030638606631e+00 +0.0000000000000000e+00 -5.6999999058777551e+00 -3.0546960257155073e-02 -5.5462927150816632e-01 +5.9263565694860606e-03
-5.7499999999999876e+00 +8.5970872471582762e+00 +0.0000000000000000e+00 -5.7499999033760583e+00 -3.0549701232439507e-02 -5.5466567632096808e-01 +5.9279262497055956e-03
-5.7999999999999874e+00 +8.5970712919257899e+00 +0.0000000000000000e+00 -5.7999999008303478e+00 -3.0552451003228256e-02 -5.5470224290657788e-01 +5.9294744884468738e-03
-5.8499999999999872e+00 +8.5970551981540719e+00 +0.0000000000000000e+00 -5.8499998982402373e+00 -3.0555209347216523e-02 -5.5473896829933400e-01 +5.9310012644088958e-03
