# field on trajectory
# s[mm] rx[mm] ry[mm] rz[mm] bx[T] by[T] bz[T]
-0.0000000000000000e+00 +8.5270000000000206e+00 +0.0000000000000000e+00 -0.0000000000000000e+00 -3.2191912369236318e-02 -5.7666441589757789e-01 +5.7247464288157461e-03
-5.0000000000000003e-02 +8.5269999309457507e+00 +0.0000000000000000e+00 -4.9999999999936401e-02 -3.2192179518549559e-02 -5.7666573876987226e-01 +5.7275813793346217e-03
-1.0000000000000001e-01 +8.5269997237846802e+00 +0.0000000000000000e+00 -9.9999999999491399e-02 -3.2192476898172111e-02 -5.7666748541512092e-01 +5.7304172014701260e-03
-1.4999999999999999e-01 +8.5269993785186706e+00 +0.0000000000000000e+00 -1.4999999999828301e-01 -3.2192804416210002e-02 -5.7666965497800626e-01 +5.7332536448419374e-03
-2.0000000000000001e-01 +8.5269988951477007e+00 +0.0000000000000000e+00 -1.9999999999593099e-01 -3.2193161980770393e-02 -5.7667224660324323e-01 +5.7360904590697814e-03
-2.5000000000000000e-01 +8.5269982736681396e+00 +0.0000000000000000e+00 -2.4999999999205300e-01 -3.2193549499962414e-02 -5.7667525943559284e-01 +5.7389273937735463e-03
-2.9999999999999999e-01 +8.5269975140799907e+00 +0.0000000000000000e+00 -2.9999999998626697e-01 -3.2193966881894347e-02 -5.7667869261980620e-01 +5.7417641985726678e-03
-3.4999999999999998e-01 +8.5269966163905302e+00 +0.0000000000000000e+00 -3.4999999997819298e-01 -3.2194414034672332e-02 -5.7668254530059981e-01 +5.7446006230858259e-03
-4.0000000000000002e-01 +8.5269955805888493e+00 +0.0000000000000000e+00 -3.9999999996744801e-01 -3.2194890866410183e-02 -5.7668681662284427e-01 +5.7474364169329680e-03
-4.5000000000000001e-01 +8.5269944066858407e+00 +0.0000000000000000e+00 -4.4999999995365197e-01 -3.2195397285214034e-02 -5.7669150573126404e-01 +5.7502713297320476e-03
-5.0000000000000000e-01 +8.5269930946742498e+00 +0.0000000000000000e+00 -4.9999999993642202e-01 -3.2195933199197752e-02 -5.7669661177073883e-01 +5.7531051111022417e-03
-5.5000000000000004e-01 +8.5269916445577092e+00 +0.0000000000000000e+00 -5.4999999991537796e-01 -3.2196498516471835e-02 -5.7670213388608460e-01 +5.7559375106615756e-03
-5.9999999999999998e-01 +8.5269900563289394e+00 +0.0000000000000000e+00 -5.9999999989013697e-01 -3.2197093145151880e-02 -5.7670807122221690e-01 +5.7587682780286783e-03
-6.5000000000000002e-01 +8.5269883299988596e+00 +0.0000000000000000e+00 -6.4999999986031898e-01 -3.2197716993347322e-02 -5.7671442292393260e-01 +5.7615971628203529e-03
-6.9999999999999996e-01 +8.5269864655601904e+00 +0.0000000000000000e+00 -6.9999999982554195e-01 -3.2198369969175578e-02 -5.7672118813618223e-01 +5.7644239146545616e-03
-7.5000000000000000e-01 +8.5269844630165608e+00 +0.0000000000000000e+00 -7.4999999978542398e-01 -3.2199051980750855e-02 -5.7672836600385369e-01 +5.7672482831480050e-03
-8.0000000000000004e-01 +8.5269823223679904e+00 +0.0000000000000000e+00 -7.9999999973958402e-01 -3.2199762936189778e-02 -5.7673595567187774e-01 +5.7700700179172931e-03
-8.4999999999999998e-01 +8.5269800436108198e+00 +0.0000000000000000e+00 -8.4999999968764095e-01 -3.2200502743611546e-02 -5.7674395628523134e-01 +5.7728888685789192e-03
-9.0000000000000002e-01 +8.5269776267450705e+00 +0.0000000000000000e+00 -8.9999999962921295e-01 -3.2201271311134982e-02 -5.7675236698888122e-01 +5.7757045847486432e-03
-9.4999999999999996e-01 +8.5269750717743609e+00 +0.0000000000000000e+00 -9.4999999956391801e-01 -3.2202068546878709e-02 -5.7676118692778344e-01 +5.7785169160414623e-03
-1.0000000000000000e+00 +8.5269723786986997e+00 +0.0000000000000000e+00 -9.9999999949137597e-01 -3.2202894358964035e-02 -5.7677041524693895e-01 +5.7813256120721919e-03
-1.0500000000000000e+00 +8.5269695475144491e+00 +0.0000000000000000e+00 -1.0499999994111999e+00 -3.2203748655514862e-02 -5.7678005109139308e-01 +5.7841304224554363e-03
-1.1000000000000001e+00 +8.5269665782288904e+00 +0.0000000000000000e+00 -1.0999999993230201e+00 -3.2204631344652263e-02 -5.7679009360612632e-01 +5.7869310968043739e-03
-1.1499999999999999e+00 +8.5269634708311095e+00 +0.0000000000000000e+00 -1.1499999992264500e+00 -3.2205542334505649e-02 -5.7680054193627261e-01 +5.7897273847331253e-03
-1.2000000000000000e+00 +8.5269602253283701e+00 +0.0000000000000000e+00 -1.1999999991210999e+00 -3.2206481533198848e-02 -5.7681139522684555e-01 +5.7925190358537326e-03
-1.2500000000000000e+00 +8.5269568417206791e+00 +0.0000000000000000e+00 -1.2499999990065900e+00 -3.2207448848859913e-02 -5.7682265262293064e-01 +5.7953057997782312e-03
-1.3000000000000000e+00 +8.5269533200044005e+00 +0.0000000000000000e+00 -1.2999999988825499e+00 -3.2208444189619830e-02 -5.7683431326965739e-01 +5.7980874261183424e-03
-1.3500000000000001e+00 +8.5269496601795307e+00 +0.0000000000000000e+00 -1.3499999987485900e+00 -3.2209467463609712e-02 -5.7684637631214442e-01 +5.8008636644848307e-03
-1.3999999999999999e+00 +8.5269458622533403e+00 +0.0000000000000000e+00 -1.3999999986043401e+00 -3.2210518578959450e-02 -5.7685884089547090e-01 +5.8036342644871806e-03
-1.4500000000000000e+00 +8.5269419262185693e+00 +0.0000000000000000e+00 -1.4499999984494001e+00 -3.2211597443806202e-02 -5.7687170616484362e-01 +5.8063989757353917e-03
-1.5000000000000000e+00 +8.5269378520752106e+00 +0.0000000000000000e+00 -1.4999999982833900e+00 -3.2212703966285991e-02 -5.7688497126542970e-01 +5.8091575478381409e-03
-1.5500000000000000e+00 +8.5269336398268898e+00 +0.0000000000000000e+00 -1.5499999981059500e+00 -3.2213838054535149e-02 -5.7689863534238495e-01 +5.8119097304030589e-03
-1.6000000000000001e+00 +8.5269292894736299e+00 +0.0000000000000000e+00 -1.5999999979166799e+00 -3.2214999616693205e-02 -5.7691269754090901e-01 +5.8146552730373021e-03
-1.6499999999999999e+00 +8.5269248010117700e+00 +0.0000000000000000e+00 -1.6499999977152000e+00 -3.2216188560902921e-02 -5.7692715700624508e-01 +5.8173939253475518e-03
-1.7000000000000000e+00 +8.5269201744449692e+00 +0.0000000000000000e+00 -1.6999999975011300e+00 -3.2217404795306076e-02 -5.7694201288359626e-01 +5.8201254369390585e-03
-1.7500000000000000e+00 +8.5269154097695701e+00 +0.0000000000000000e+00 -1.7499999972740901e+00 -3.2218648228049207e-02 -5.7695726431823768e-01 +5.8228495574168511e-03
-1.8000000000000000e+00 +8.5269105069892195e+00 +0.0000000000000000e+00 -1.7999999970336999e+00 -3.2219918767277964e-02 -5.7697291045540422e-01 +5.8255660363844761e-03
-1.8500000000000001e+00 +8.5269054661039299e+00 +0.0000000000000000e+00 -1.8499999967795799e+00 -3.2221216321141430e-02 -5.7698895044037357e-01 +5.8282746234449038e-03
-1.8999999999999999e+00 +8.5269002871100401e+00 +0.0000000000000000e+00 -1.8999999965113501e+00 -3.2222540797792146e-02 -5.7700538341846752e-01 +5.8309750682005090e-03
-1.9500000000000000e+00 +8.5268949700112007e+00 +0.0000000000000000e+00 -1.9499999962286201e+00 -3.2223892105381909e-02 -5.7702220853496722e-01 +5.8336671202521102e-03
-2.0000000000000000e+00 +8.5268895148037700e+00 +0.0000000000000000e+00 -1.9999999959310100e+00 -3.2225270152067491e-02 -5.7703942493522487e-01 +5.8363505292001860e-03
-2.0499999999999998e+00 +8.5268839213858900e+00 +0.0000000000000000e+00 -2.0499999956181298e+00 -3.2226674823494943e-02 -5.7705703151399734e-01 +5.8390250585762596e-03
-2.1000000000000001e+00 +8.5268781896593300e+00 +0.0000000000000000e+00 -2.0999999952895898e+00 -3.2228105915107275e-02 -5.7707502616062378e-01 +5.8416905276051324e-03
-2.1499999999999999e+00 +8.5268723196240899e+00 +0.0000000000000000e+00 -2.1499999949449999e+00 -3.2229563199759566e-02 -5.7709340651236229e-01 +5.8443467694261012e-03
-2.2000000000000002e+00 +8.5268663112729008e+00 +0.0000000000000000e+00 -2.1999999945839801e+00 -3.2231046450310649e-02 -5.7711217020653938e-01 +5.8469936171783683e-03
-2.2500000000000000e+00 +8.5268601646093902e+00 +0.0000000000000000e+00 -2.2499999942061502e+00 -3.2232555439616062e-02 -5.7713131488041292e-01 +5.8496309039994775e-03
-2.2999999999999998e+00 +8.5268538796335598e+00 +0.0000000000000000e+00 -2.2999999938111202e+00 -3.2234089940533492e-02 -5.7715083817128088e-01 +5.8522584630265485e-03
-2.3500000000000001e+00 +8.5268474563490599e+00 +0.0000000000000000e+00 -2.3499999933985198e+00 -3.2235649725920155e-02 -5.7717073771642702e-01 +5.8548761273956550e-03
-2.3999999999999999e+00 +8.5268408947522403e+00 +0.0000000000000000e+00 -2.3999999929679601e+00 -3.2237234568636815e-02 -5.7719101115320293e-01 +5.8574837302427562e-03
-2.4500000000000002e+00 +8.5268341948467405e+00 +0.0000000000000000e+00 -2.4499999925190501e+00 -3.2238844241542157e-02 -5.7721165611891811e-01 +5.8600811047024391e-03
-2.5000000000000000e+00 +8.5268273566252901e+00 +0.0000000000000000e+00 -2.4999999920514302e+00 -3.2240478517499803e-02 -5.7723267025097658e-01 +5.8626680839094806e-03
-2.5499999999999998e+00 +8.5268203800987994e+00 +0.0000000000000000e+00 -2.5499999915646900e+00 -3.2242137169367073e-02 -5.7725405118665696e-01 +5.8652445009963238e-03
-2.6000000000000001e+00 +8.5268132652563509e+00 +0.0000000000000000e+00 -2.5999999910584699e+00 -3.2243819970010343e-02 -5.7727579656341588e-01 +5.8678101890965520e-03
-2.6499999999999999e+00 +8.5268060121015896e+00 +0.0000000000000000e+00 -2.6499999905323701e+00 -3.2245526692291034e-02 -5.7729790401861170e-01 +5.8703649813417105e-03
-2.7000000000000002e+00 +8.5267986206345103e+00 +0.0000000000000000e+00 -2.6999999899860101e+00 -3.2247257109072468e-02 -5.7732037118964119e-01 +5.8729087108628881e-03
-2.7500000000000000e+00 +8.5267910908551094e+00 +0.0000000000000000e+00 -2.7499999894190199e+00 -3.2249010993218620e-02 -5.7734319571391424e-01 +5.8754412107904046e-03
-2.7999999999999998e+00 +8.5267834227670392e+00 +0.0000000000000000e+00 -2.7999999888310101e+00 -3.2250788117592515e-02 -5.7736637522882328e-01 +5.8779623142534718e-03
-2.8500000000000001e+00 +8.5267756163666508e+00 +0.0000000000000000e+00 -2.8499999882215898e+00 -3.2252588255060520e-02 -5.7738990737182749e-01 +5.8804718543811491e-03
-2.8999999999999999e+00 +8.5267676716539391e+00 +0.0000000000000000e+00 -2.8999999875903901e+00 -3.2254411178488027e-02 -5.7741378978037028e-01 +5.8829696643013935e-03
-2.9500000000000002e+00 +8.5267595886289200e+00 +0.0000000000000000e+00 -2.9499999869370299e+00 -3.2256256660740883e-02 -5.7743802009190537e-01 +5.8854555771413542e-03
-3.0000000000000000e+00 +8.5267513672915793e+00 +0.0000000000000000e+00 -2.9999999862611100e+00 -3.2258124474685332e-02 -5.7746259594389671e-01 +5.8879294260273836e-03
-3.0499999999999998e+00 +8.5267430076455604e+00 +0.0000000000000000e+00 -3.0499999855622502e+00 -3.2260014393186515e-02 -5.7748751497379303e-01 +5.8903910440847038e-03
-3.1000000000000001e+00 +8.5267345096872305e+00 +0.0000000000000000e+00 -3.0999999848400801e+00 -3.2261926189112777e-02 -5.7751277481910668e-01 +5.8928402644383608e-03
-3.1499999999999999e+00 +8.5267258734165807e+00 +0.0000000000000000e+00 -3.1499999840942201e+00 -3.2263859635331321e-02 -5.7753837311733391e-01 +5.8952769202122671e-03
-3.2000000000000002e+00 +8.5267170988336094e+00 +0.0000000000000000e+00 -3.1999999833242700e+00 -3.2265814504709625e-02 -5.7756430750598031e-01 +5.8977008445295093e-03
-3.2500000000000000e+00 +8.5267081859419704e+00 +0.0000000000000000e+00 -3.2499999825298600e+00 -3.2267790570113954e-02 -5.7759057562253435e-01 +5.9001118705120145e-03
-3.2999999999999998e+00 +8.5266991347380099e+00 +0.0000000000000000e+00 -3.2999999817106000e+00 -3.2269787604413680e-02 -5.7761717510454946e-01 +5.9025098312815378e-03
-3.3500000000000001e+00 +8.5266899452181004e+00 +0.0000000000000000e+00 -3.3499999808661101e+00 -3.2271805380478198e-02 -5.7764410358958773e-01 +5.9048945599589767e-03
-3.3999999999999999e+00 +8.5266806173895002e+00 +0.0000000000000000e+00 -3.3999999799960099e+00 -3.2273843671172954e-02 -5.7767135871513908e-01 +5.9072658896634281e-03
-3.4500000000000002e+00 +8.5266711512522306e+00 +0.0000000000000000e+00 -3.4499999790999101e+00 -3.2275902249366210e-02 -5.7769893811875694e-01 +5.9096236535137771e-03
-3.5000000000000000e+00 +8.5266615468026394e+00 +0.0000000000000000e+00 -3.4999999781774398e+00 -3.2277980887927764e-02 -5.7772683943803160e-01 +5.9119676846283798e-03
-3.5499999999999998e+00 +8.5266518040407409e+00 +0.0000000000000000e+00 -3.5499999772282100e+00 -3.2280079359725974e-02 -5.7775506031053458e-01 +5.9142978161244083e-03
-3.6000000000000001e+00 +8.5266419229665207e+00 +0.0000000000000000e+00 -3.5999999762518402e+00 -3.2282197437629265e-02 -5.7778359837384663e-01 +5.9166138811181717e-03
-3.6499999999999999e+00 +8.5266319035799807e+00 +0.0000000000000000e+00 -3.6499999752479400e+00 -3.2284334894506023e-02 -5.7781245126555625e-01 +5.9189157127251084e-03
-3.6999999999999900e+00 +8.5266217458847695e+00 +0.0000000000000000e+00 -3.6999999742161398e+00 -3.2286491503223103e-02 -5.7784161662323275e-01 +5.9212031440594483e-03
-3.7499999999999898e+00 +8.5266114498736005e+00 +0.0000000000000000e+00 -3.7499999731560498e+00 -3.2288667036651578e-02 -5.7787109208453735e-01 +5.9234760082355281e-03
-3.7999999999999901e+00 +8.5266010155537497e+00 +0.0000000000000000e+00 -3.7999999720672801e+00 -3.2290861267656679e-02 -5.7790087528702783e-01 +5.9257341383654851e-03
-3.8499999999999899e+00 +8.5265904429179500e+00 +0.0000000000000000e+00 -3.8499999709494599e+00 -3.2293073969109180e-02 -5.7793096386838083e-01 +5.9279773675618768e-03
-3.8999999999999901e+00 +8.5265797319771099e+00 +0.0000000000000000e+00 -3.8999999698022001e+00 -3.2295304913872523e-02 -5.7796135546614202e-01 +5.9302055289347285e-03
-3.9499999999999900e+00 +8.5265688827203103e+00 +0.0000000000000000e+00 -3.9499999686251202e+00 -3.2297553874818509e-02 -5.7799204771803092e-01 +5.9324184555951251e-03
-3.9999999999999898e+00 +8.5265578951548395e+00 +0.0000000000000000e+00 -3.9999999674178399e+00 -3.2299820624811494e-02 -5.7802303826163592e-01 +5.9346159806516058e-03
-4.0499999999999901e+00 +8.5265467692734092e+00 +0.0000000000000000e+00 -4.0499999661799704e+00 -3.2302104944557597e-02 -5.7805432461899564e-01 +5.9367979528132239e-03
-4.0999999999999899e+00 +8.5265355050833005e+00 +0.0000000000000000e+00 -4.0999999649111301e+00 -3.2304406646102006e-02 -5.7808590384937619e-01 +5.9389642831873231e-03
-4.1499999999999897e+00 +8.5265241025808791e+00 +0.0000000000000000e+00 -4.1499999636109504e+00 -3.2306725549329812e-02 -5.7811777289645983e-01 +5.9411148984812858e-03
-4.1999999999999904e+00 +8.5265125617697795e+00 +0.0000000000000000e+00 -4.1999999622790298e+00 -3.2309061474122429e-02 -5.7814992870387483e-01 +5.9432497254007285e-03
-4.2499999999999902e+00 +8.5265008826427202e+00 +0.0000000000000000e+00 -4.2499999609149901e+00 -3.2311414240364732e-02 -5.7818236821533242e-01 +5.9453686906511061e-03
-4.2999999999999901e+00 +8.5264890652069898e+00 +0.0000000000000000e+00 -4.2999999595184599e+00 -3.2313783667935018e-02 -5.7821508837443381e-01 +5.9474717209354105e-03
-4.3499999999999899e+00 +8.5264771094589396e+00 +0.0000000000000000e+00 -4.3499999580890396e+00 -3.2316169576714945e-02 -5.7824808612486356e-01 +5.9495587429564635e-03
-4.3999999999999897e+00 +8.5264650153985695e+00 +0.0000000000000000e+00 -4.3999999566263703e+00 -3.2318571786583733e-02 -5.7828135841027684e-01 +5.9516296834155819e-03
-4.4499999999999904e+00 +8.5264527830295300e+00 +0.0000000000000000e+00 -4.4499999551300400e+00 -3.2320990117418173e-02 -5.7831490217430104e-01 +5.9536844690125717e-03
-4.4999999999999902e+00 +8.5264404123481707e+00 +0.0000000000000000e+00 -4.4999999535996897e+00 -3.2323424389096904e-02 -5.7834871436061774e-01 +5.9557230264467090e-03
-4.5499999999999901e+00 +8.5264279033544899e+00 +0.0000000000000000e+00 -4.5499999520349199e+00 -3.2325874421495954e-02 -5.7838279191287933e-01 +5.9577452824157275e-03
-4.5999999999999899e+00 +8.5264152560448601e+00 +0.0000000000000000e+00 -4.5999999504353601e+00 -3.2328340034491664e-02 -5.7841713177476339e-01 +5.9597511636164816e-03
-4.6499999999999897e+00 +8.5264024704301793e+00 +0.0000000000000000e+00 -4.6499999488006196e+00 -3.2330821047953498e-02 -5.7845173088983504e-01 +5.9617405967432764e-03
-4.6999999999999904e+00 +8.5263895464995603e+00 +0.0000000000000000e+00 -4.6999999471303298e+00 -3.2333317281758187e-02 -5.7848658620182336e-01 +5.9637135084911605e-03
-4.7499999999999902e+00 +8.5263764842602505e+00 +0.0000000000000000e+00 -4.7499999454240900e+00 -3.2335828555774111e-02 -5.7852169465431491e-01 +5.9656698255522835e-03
-4.7999999999999901e+00 +8.5263632837050007e+00 +0.0000000000000000e+00 -4.7999999436815299e+00 -3.2338354689873977e-02 -5.7855705319100492e-01 +5.9676094746188560e-03
-4.8499999999999899e+00 +8.5263499448447000e+00 +0.0000000000000000e+00 -4.8499999419022597e+00 -3.2340895503922044e-02 -5.7859265875544597e-01 +5.9695323823801627e-03
-4.8999999999999897e+00 +8.5263364676684397e+00 +0.0000000000000000e+00 -4.8999999400859000e+00 -3.2343450817789637e-02 -5.7862850829135326e-01 +5.9714384755261930e-03
-4.9499999999999904e+00 +8.5263228521798702e+00 +0.0000000000000000e+00 -4.9499999382320699e+00 -3.2346020451340982e-02 -5.7866459874232645e-01 +5.9733276807443199e-03
-4.9999999999999902e+00 +8.5263090983826295e+00 +0.0000000000000000e+00 -4.9999999363403900e+00 -3.2348604224438769e-02 -5.7870092705196075e-01 +5.9751999247206087e-03
-5.0499999999999901e+00 +8.5262952059529198e+00 +0.0000000000000000e+00 -5.0499999344103799e+00 -3.2351201957072709e-02 -5.7873749016634923e-01 +5.9770551341697320e-03
-5.0999999999999899e+00 +8.5262811745706095e+00 +0.0000000000000000e+00 -5.0999999324415599e+00 -3.2353813469229650e-02 -5.7877428503155404e-01 +5.9788932358047801e-03
-5.1499999999999897e+00 +8.5262670042357094e+00 +0.0000000000000000e+00 -5.1499999304335597e+00 -3.2356438580769170e-02 -5.7881130859118635e-01 +5.9807141563083081e-03
-5.1999999999999904e+00 +8.5262526949518396e+00 +0.0000000000000000e+00 -5.1999999283859903e+00 -3.2359077111547695e-02 -5.7884855778882216e-01 +5.9825178223611745e-03
-5.2499999999999902e+00 +8.5262382467153692e+00 +0.0000000000000000e+00 -5.2499999262984600e+00 -3.2361728881422872e-02 -5.7888602956808832e-01 +5.9843041606435464e-03
-5.2999999999999901e+00 +8.5262236595299292e+00 +0.0000000000000000e+00 -5.2999999241705797e+00 -3.2364393710247630e-02 -5.7892372087254862e-01 +5.9860730978335466e-03
-5.3499999999999899e+00 +8.5262089333882596e+00 +0.0000000000000000e+00 -5.3499999220019703e+00 -3.2367071417877390e-02 -5.7896162864584344e-01 +5.9878245606089118e-03
-5.3999999999999897e+00 +8.5261940682976292e+00 +0.0000000000000000e+00 -5.3999999197922497e+00 -3.2369761824160008e-02 -5.7899974983149471e-01 +5.9895584756446511e-03
-5.4499999999999904e+00 +8.5261790642507496e+00 +0.0000000000000000e+00 -5.4499999175410201e+00 -3.2372464748947172e-02 -5.7903808137312762e-01 +5.9912747696156997e-03
-5.4999999999999902e+00 +8.5261639212585596e+00 +0.0000000000000000e+00 -5.4999999152479004e+00 -3.2375180012081436e-02 -5.7907662021422068e-01 +5.9929733691938998e-03
-5.5499999999999901e+00 +8.5261486393137602e+00 +0.0000000000000000e+00 -5.5499999129125097e+00 -3.2377907433410541e-02 -5.7911536329838276e-01 +5.9946542010513373e-03
-5.5999999999999899e+00 +8.5261332184127205e+00 +0.0000000000000000e+00 -5.5999999105344500e+00 -3.2380646832778727e-02 -5.7915430756918707e-01 +5.9963171918583236e-03
-5.6499999999999897e+00 +8.5261176585627307e+00 +0.0000000000000000e+00 -5.6499999081133403e+00 -3.2383398030023880e-02 -5.7919344997011257e-01 +5.9979622682827076e-03
-5.6999999999999904e+00 +8.5261019597637606e+00 +0.0000000000000000e+00 -5.6999999056488004e+00 -3.2386160844984621e-02 -5.7923278744468654e-01 +5.9995893569915523e-03
-5.7499999999999902e+00 +8.5260861220122006e+00 +0.0000000000000000e+00 -5.7499999031404396e+00 -3.2388935097498801e-02 -5.7927231693645276e-01 +6.0011983846507732e-03
-5.7999999999999901e+00 +8.5260701453080401e+00 +0.0000000000000000e+00 -5.7999999005878804e+00 -3.2391720607400649e-02 -5.7931203538891818e-01 +6.0027892779244739e-03
-5.8499999999999899e+00 +8.5260540296512808e+00 +0.0000000000000000e+00 -5.8499998979907204e+00 -3.2394517194522146e-02 -5.7935193974557853e-01 +6.0043619634752507e-03
