# multipoles
# s[mm] polynom_b[n=0][T/m^n] polynom_b[n=1][T/m^n] polynom_b[n=2][T/m^n] polynom_b[n=3][T/m^n] polynom_b[n=4][T/m^n] polynom_b[n=5][T/m^n] polynom_b[n=6][T/m^n] 
-0.0000000000000000e+00 -5.7666361579249481e-01 +7.5395625182053116e+00 +6.8368177749204788e+00 -6.6670826970365937e+01 -7.3613370391228555e+03 +9.2700209220073099e+04 +4.5302570785312958e+07 
-5.0000000000000003e-02 -5.7666493250152173e-01 +7.5395887223054405e+00 +6.8367128762226193e+00 -6.6582450353900214e+01 -7.3939350682255199e+03 +9.3364038080178128e+04 +4.5557035070880920e+07 
-1.0000000000000001e-01 -5.7666667306226349e-01 +7.5396376614237957e+00 +6.8358983083877263e+00 -6.6489357799687767e+01 -7.4230147470622178e+03 +9.4060894928411886e+04 +4.5796027605321959e+07 
-1.4999999999999999e-01 -5.7666883663163027e-01 +7.5397092754324531e+00 +6.8343790412177929e+00 -6.6391376153471782e+01 -7.4485865516298873e+03 +9.4787138988684746e+04 +4.6019331219270781e+07 
-2.0000000000000001e-01 -5.7667142236662206e-01 +7.5398035042038796e+00 +6.8321600462216123e+00 -6.6288332245867110e+01 -7.4706610197215869e+03 +9.5539129351390700e+04 +4.6226729221380323e+07 
-2.5000000000000000e-01 -5.7667442942415359e-01 +7.5399202876125617e+00 +6.8292462946521804e+00 -6.6180052956909094e+01 -7.4892486688782410e+03 +9.6313225543032153e+04 +4.6418004729466520e+07 
-2.9999999999999999e-01 -5.7667785696121043e-01 +7.5400595655321556e+00 +6.8256427532860142e+00 -6.6066365094049004e+01 -7.5043599048191436e+03 +9.7105786435309914e+04 +4.6592940137878202e+07 
-3.4999999999999998e-01 -5.7668170413483300e-01 +7.5402212778396756e+00 +6.8213543950581759e+00 -6.5947095563786363e+01 -7.5160052982598709e+03 +9.7913171686882168e+04 +4.6751318950594291e+07 
-4.0000000000000002e-01 -5.7668597010198575e-01 +7.5404053644093034e+00 +6.8163861906149013e+00 -6.5822071123094659e+01 -7.5241953563622101e+03 +9.8731739744527920e+04 +4.6892924232171953e+07 
-4.5000000000000001e-01 -5.7669065401970676e-01 +7.5406117651206799e+00 +6.8107431058639332e+00 -6.5691118726929005e+01 -7.5289404590665408e+03 +9.9557850676122325e+04 +4.7017538188922353e+07 
-5.0000000000000000e-01 -5.7669575504506643e-01 +7.5408404198531880e+00 +6.8044301142018782e+00 -6.5554065274766856e+01 -7.5302511919210383e+03 +1.0038786406217219e+05 +4.7124944430749401e+07 
-5.5000000000000004e-01 -5.7670127233511326e-01 +7.5410912684871629e+00 +6.7974521866721274e+00 -6.5410737683188955e+01 -7.5281380746203804e+03 +1.0121813965228123e+05 +4.7214926107580774e+07 
-5.9999999999999998e-01 -5.7670720504697759e-01 +7.5413642509016530e+00 +6.7898142911284349e+00 -6.5260962772957939e+01 -7.5226115420127335e+03 +1.0204503635152985e+05 +4.7287265803594679e+07 
-6.5000000000000002e-01 -5.7671355233774546e-01 +7.5416593069797146e+00 +6.7815213983691072e+00 -6.5104567508123168e+01 -7.5136821059736876e+03 +1.0286491430095273e+05 +4.7341746612449020e+07 
-6.9999999999999996e-01 -5.7672031336451091e-01 +7.5419763766045902e+00 +6.7725784782147276e+00 -6.4941378816489731e+01 -7.5013602560240179e+03 +1.0367413329431284e+05 +4.7378151489457659e+07 
-7.5000000000000000e-01 -5.7672748728444045e-01 +7.5423153996585874e+00 +6.7629904998554142e+00 -6.4771223559197153e+01 -7.4856564627653579e+03 +1.0446905257894807e+05 +4.7396263256659463e+07 
-8.0000000000000004e-01 -5.7673507325469753e-01 +7.5426763160288068e+00 +6.7527624341563168e+00 -6.4593928766015466e+01 -7.4665812463916709e+03 +1.0524603280714777e+05 +4.7395865086238138e+07 
-8.4999999999999998e-01 -5.7674307043245754e-01 +7.5430590655978786e+00 +6.7418992503377044e+00 -6.4409321260590076e+01 -7.4441450755823453e+03 +1.0600143296963544e+05 +4.7376739772631593e+07 
-9.0000000000000002e-01 -5.7675147797492432e-01 +7.5434635882537338e+00 +6.7304059196255608e+00 -6.4217228030400719e+01 -7.4183584757851158e+03 +1.0673161331603944e+05 +4.7338670507712834e+07 
-9.4999999999999996e-01 -5.7676029503926862e-01 +7.5438898238844354e+00 +6.7182874097272878e+00 -6.4017476064660144e+01 -7.3892318833718755e+03 +1.0743293423089580e+05 +4.7281439899378709e+07 
-1.0000000000000000e+00 -5.7676952078277521e-01 +7.5443377123782760e+00 +6.7055486898901639e+00 -6.3809892318411357e+01 -7.3567757676286656e+03 +1.0810175574565258e+05 +4.7204830748333022e+07 
-1.0500000000000000e+00 -5.7677915436267879e-01 +7.5448071936214065e+00 +6.6921947329074190e+00 -6.3594303629475931e+01 -7.3210007013826516e+03 +1.0873443695269698e+05 +4.7108626583260544e+07 
-1.1000000000000001e+00 -5.7678919493619807e-01 +7.5452982075069261e+00 +6.6782305048973853e+00 -6.3370537097164103e+01 -7.2819170709085720e+03 +1.0932733913969681e+05 +4.6992609647230007e+07 
-1.1499999999999999e+00 -5.7679964166065734e-01 +7.5458106939251621e+00 +6.6636609783768437e+00 -6.3138419674424789e+01 -7.2395354401785662e+03 +1.0987682235219859e+05 +4.6856563405475654e+07 
-1.2000000000000000e+00 -5.7681049369333592e-01 +7.5463445927659665e+00 +6.6484911193167004e+00 -6.2897778275653252e+01 -7.1938661913449378e+03 +1.1037924639114756e+05 +4.6700270072976597e+07 
-1.2500000000000000e+00 -5.7682175019157023e-01 +7.5468998439223602e+00 +6.6327259011856512e+00 -6.2648439909257164e+01 -7.1449199159843565e+03 +1.1083097179690152e+05 +4.6523513310560167e+07 
-1.3000000000000000e+00 -5.7683341031266444e-01 +7.5474763872857258e+00 +6.6163702881983850e+00 -6.2390231491632129e+01 -7.0927069479381689e+03 +1.1122835839521811e+05 +4.6326075004654877e+07 
-1.3500000000000001e+00 -5.7684547321399193e-01 +7.5480741627531280e+00 +6.5994292541472763e+00 -6.2122980146208839e+01 -7.0372378850949644e+03 +1.1156776772266124e+05 +4.6107738850231022e+07 
-1.3999999999999999e+00 -5.7685793805287933e-01 +7.5486931102151491e+00 +6.5819077661182614e+00 -6.1846512705439068e+01 -6.9785231404934948e+03 +1.1184555896148269e+05 +4.5868287278108932e+07 
-1.4500000000000000e+00 -5.7687080398675172e-01 +7.5493331695688051e+00 +6.5638107914644959e+00 -6.1560656243152309e+01 -6.9165731377180427e+03 +1.1205809328663987e+05 +4.5607502803456314e+07 
-1.5000000000000000e+00 -5.7688407017297560e-01 +7.5499942807107034e+00 +6.5451433032833712e+00 -6.1265237784613646e+01 -6.8513984534615001e+03 +1.1220173150857090e+05 +4.5325168973213956e+07 
-1.5500000000000000e+00 -5.7689773576896874e-01 +7.5506763835345083e+00 +6.5259102663351518e+00 -6.0960084218664996e+01 -6.7830094383018932e+03 +1.1227283334530859e+05 +4.5021067799112760e+07 
-1.6000000000000001e+00 -5.7691179993217601e-01 +7.5513794179376266e+00 +6.5061166519778393e+00 -6.0645022548320718e+01 -6.7114166227108817e+03 +1.1226775943701374e+05 +4.4694982520655908e+07 
-1.6499999999999999e+00 -5.7692626182003093e-01 +7.5521033238202975e+00 +6.4857674266539851e+00 -6.0319879889459052e+01 -6.6366304020874259e+03 +1.1218287146063516e+05 +4.4346695455493331e+07 
-1.7000000000000000e+00 -5.7694112059000013e-01 +7.5528480410770973e+00 +6.4648675597460619e+00 -5.9984483088338045e+01 -6.5586612511647509e+03 +1.1201452885239947e+05 +4.3975989458472945e+07 
-1.7500000000000000e+00 -5.7695637539956535e-01 +7.5536135096078478e+00 +6.4434220205120933e+00 -5.9638659183065947e+01 -6.4775196433035180e+03 +1.1175909264899848e+05 +4.3582647384591199e+07 
-1.8000000000000000e+00 -5.7697202540619741e-01 +7.5543996693135202e+00 +6.4214357779594806e+00 -5.9282235240864480e+01 -6.3932160434288189e+03 +1.1141292420094283e+05 +4.3166452031389691e+07 
-1.8500000000000001e+00 -5.7698806976741024e-01 +7.5552064600919637e+00 +6.3989137962885270e+00 -5.8915038181451870e+01 -6.3057607835944946e+03 +1.1097238366257197e+05 +4.2727185282167979e+07 
-1.8999999999999999e+00 -5.7700450764078348e-01 +7.5560338218435970e+00 +6.3758610482522657e+00 -5.8536895006256330e+01 -6.2151644288321750e+03 +1.1043383190293783e+05 +4.2264630610716663e+07 
-1.9500000000000000e+00 -5.7702133818378742e-01 +7.5568816944697854e+00 +6.3522824995644944e+00 -5.8147632727746291e+01 -6.1214373576033395e+03 +1.0979362991141407e+05 +4.1778570242180079e+07 
-2.0000000000000000e+00 -5.7703856055400304e-01 +7.5577500178714940e+00 +6.3281831171061924e+00 -5.7747078324970538e+01 -6.0245899689249763e+03 +1.0904813843975289e+05 +4.1268786503186189e+07 
-2.0499999999999998e+00 -5.7705617365194584e-01 +7.5586387185312569e+00 +6.3035689567301221e+00 -5.7335251116424644e+01 -5.9246625711323222e+03 +1.0819562923961494e+05 +4.0735310492921866e+07 
-2.1000000000000001e+00 -5.7707417534753447e-01 +7.5595476706551388e+00 +6.2784504488268453e+00 -5.6912906053281823e+01 -5.8218138066192905e+03 +1.0724170484875709e+05 +4.0179143426248871e+07 
-2.1499999999999999e+00 -5.7709256325229463e-01 +7.5604767313836110e+00 +6.2528393522228907e+00 -5.6480979656286166e+01 -5.7162314983392598e+03 +1.0619372873061230e+05 +3.9601523091777667e+07 
-2.2000000000000002e+00 -5.7711133497786704e-01 +7.5614257578601434e+00 +6.2267474292053686e+00 -5.6040408557310293e+01 -5.6081035623312682e+03 +1.0505906525131837e+05 +3.9003687906137042e+07 
-2.2500000000000000e+00 -5.7713048813588741e-01 +7.5623946072296988e+00 +6.2001864435061664e+00 -5.5592129436598576e+01 -5.4976179497200737e+03 +1.0384507922100191e+05 +3.8386876508539408e+07 
-2.2999999999999998e+00 -5.7715002033801766e-01 +7.5633831366334556e+00 +6.1731681566525367e+00 -5.5137078798700649e+01 -5.3849625557806521e+03 +1.0255913398407008e+05 +3.7752327175635479e+07 
-2.3500000000000001e+00 -5.7716992919584120e-01 +7.5643912032141278e+00 +6.1457043284497344e+00 -5.4676193184532693e+01 -5.2703252260031413e+03 +1.0120859318170467e+05 +3.7101277834612317e+07 
-2.3999999999999999e+00 -5.7719021232105727e-01 +7.5654186641196475e+00 +6.1178067229657529e+00 -5.4210409339010646e+01 -5.1538939249443192e+03 +9.9800822143163357e+04 +3.6434967230561502e+07 
-2.4500000000000002e+00 -5.7721086732530447e-01 +7.5664653764897363e+00 +6.0894871004973963e+00 -5.3740663660502101e+01 -5.0358565082824307e+03 +9.8343183394107808e+04 +3.5754633346092686e+07 
-2.5000000000000000e+00 -5.7723189182032653e-01 +7.5675311974695880e+00 +6.0607572235284302e+00 -5.3267892732462826e+01 -4.9164008938452671e+03 +9.6843040875735882e+04 +3.5061514597036690e+07 
-2.5499999999999998e+00 -5.7725328341780879e-01 +7.5686159842033218e+00 +6.0316288569251917e+00 -5.2793033114714511e+01 -4.7957150633430028e+03 +9.5307758504251789e+04 +3.4356849825622186e+07 
-2.6000000000000001e+00 -5.7727503972941585e-01 +7.5697195938341677e+00 +6.0021137596211664e+00 -5.2317021276530241e+01 -4.6739868360949686e+03 +9.3744699302862296e+04 +3.3641876770339146e+07 
-2.6499999999999999e+00 -5.7729715836694262e-01 +7.5708418835100044e+00 +5.9722236971198432e+00 -5.1840793888999691e+01 -4.5514042079171531e+03 +9.2161228033366220e+04 +3.2917834356539100e+07 
-2.7000000000000002e+00 -5.7731963694205168e-01 +7.5719827103725859e+00 +5.9419704295187969e+00 -5.1365287352480841e+01 -4.4281550322927633e+03 +9.0564707250377614e+04 +3.2185960561231747e+07 
-2.7500000000000000e+00 -5.7734247306652742e-01 +7.5731419315664850e+00 +5.9113657211181634e+00 -5.0891438160391118e+01 -4.3044272687938028e+03 +8.8962500216064160e+04 +3.1447494050695024e+07 
-2.7999999999999998e+00 -5.7736566435215519e-01 +7.5743194042368307e+00 +5.8804213351477648e+00 -5.0420182823228245e+01 -4.1804088515710901e+03 +8.7361970370788418e+04 +3.0703673331602953e+07 
-2.8500000000000001e+00 -5.7738920841064734e-01 +7.5755149855274890e+00 +5.8491490345284136e+00 -4.9952457786816510e+01 -4.0562877046694944e+03 +8.5770480636610577e+04 +2.9955736833893877e+07 
-2.8999999999999999e+00 -5.7741310285381475e-01 +7.5767285325841112e+00 +5.8175605833508053e+00 -4.9489199545594538e+01 -3.9322517814598646e+03 +8.4195394279412300e+04 +2.9204923175706740e+07 
-2.9500000000000002e+00 -5.7743734529342750e-01 +7.5779599025504085e+00 +5.7856677415643603e+00 -4.9031344519111258e+01 -3.8084889256139177e+03 +8.2644074011285644e+04 +2.8452470242580440e+07 
-3.0000000000000000e+00 -5.7746193334131246e-01 +7.5792089525699504e+00 +5.7534822777241423e+00 -4.8579829099715866e+01 -3.6851872119850054e+03 +8.1123882290909474e+04 +2.7699617476656854e+07 
-3.0499999999999998e+00 -5.7748686460923426e-01 +7.5804755397899735e+00 +5.7210159520662387e+00 -4.8135589821124306e+01 -3.5625344859495895e+03 +7.9642182754992784e+04 +2.6947602748850573e+07 
-3.1000000000000001e+00 -5.7751213670908297e-01 +7.5817595213503619e+00 +5.6882805313928291e+00 -4.7699562902001254e+01 -3.4407187744512885e+03 +7.8206336417168408e+04 +2.6197665173477035e+07 
-3.1499999999999999e+00 -5.7753774725265272e-01 +7.5830607543981721e+00 +5.6552877780098942e+00 -4.7272684845815206e+01 -3.3199279762326855e+03 +7.6823706642966223e+04 +2.5451042970327452e+07 
-3.2000000000000002e+00 -5.7756369385178952e-01 +7.5843790960754625e+00 +5.6220494578297853e+00 -4.6855891944884426e+01 -3.2003500954315246e+03 +7.5501655084668630e+04 +2.4708975101057984e+07 
-3.2500000000000000e+00 -5.7758997411831048e-01 +7.5857144035282715e+00 +5.5885773341144160e+00 -4.6450120638061847e+01 -3.0821730533268396e+03 +7.4247544565493910e+04 +2.3972699924527396e+07 
-3.2999999999999998e+00 -5.7761658566411089e-01 +7.5870665338977403e+00 +5.5548831734225717e+00 -4.6056307157159232e+01 -2.9655848664734049e+03 +7.3068736200336949e+04 +2.3243456464631524e+07 
-3.3500000000000001e+00 -5.7764352610108838e-01 +7.5884353443281691e+00 +5.5209787409157016e+00 -4.5675387867185194e+01 -2.8507735081344176e+03 +7.1972592252407441e+04 +2.2522483430174597e+07 
-3.3999999999999999e+00 -5.7767079304105229e-01 +7.5898206919622178e+00 +5.4868757999945634e+00 -4.5308299027374417e+01 -2.7379269082906717e+03 +7.0966473998130255e+04 +2.1811019252023142e+07 
-3.4500000000000002e+00 -5.7769838409593355e-01 +7.5912224339415628e+00 +5.4525861190202560e+00 -4.4955976880528411e+01 -2.6272331263081223e+03 +7.0057742693414621e+04 +2.1110303218540940e+07 
-3.5000000000000000e+00 -5.7772629687761712e-01 +7.5926404274103643e+00 +5.4181214617708484e+00 -4.4619357746412646e+01 -2.5188800938325362e+03 +6.9253760142140920e+04 +2.0421573738087207e+07 
-3.5499999999999998e+00 -5.7775452899800461e-01 +7.5940745295094523e+00 +5.3834935944732587e+00 -4.4299377808358955e+01 -2.4130558145402529e+03 +6.8561887059919041e+04 +1.9746069723790880e+07 
-3.6000000000000001e+00 -5.7778307806905471e-01 +7.5955245973817016e+00 +5.3487142865398072e+00 -4.3996973317497066e+01 -2.3099483708855296e+03 +6.7989484666974909e+04 +1.9085030596214760e+07 
-3.6499999999999999e+00 -5.7781194170259220e-01 +7.5969904881668953e+00 +5.3137953025077103e+00 -4.3713080401613567e+01 -2.2097457152316620e+03 +6.7543913219701411e+04 +1.8439694897735853e+07 
-3.6999999999999900e+00 -5.7784111751062750e-01 +7.5984720590064274e+00 +5.2787484093594550e+00 -4.3448635247194545e+01 -2.1126358659223283e+03 +6.7232533407602154e+04 +1.7811301617311396e+07 
-3.7499999999999898e+00 -5.7787060310507243e-01 +7.5999691670390197e+00 +5.2435853748723362e+00 -4.3204573919546107e+01 -2.0188068580214090e+03 +6.7062704914110480e+04 +1.7201089834453586e+07 
-3.7999999999999901e+00 -5.7790039609784793e-01 +7.6014816694086385e+00 +5.2083179675434845e+00 -4.2981832704085335e+01 -1.9284467480261151e+03 +6.7041789263693208e+04 +1.6610298782464106e+07 
-3.8499999999999899e+00 -5.7793049410095398e-01 +7.6030094232505832e+00 +5.1729579541568924e+00 -4.2781347521726616e+01 -1.8417435438467630e+03 +6.7177144934887430e+04 +1.6040167352952141e+07 
-3.8999999999999901e+00 -5.7796089472629852e-01 +7.6045522857051129e+00 +5.1375171040696417e+00 -4.2604054488338292e+01 -1.7588853239191783e+03 +6.7476132001281701e+04 +1.5491934919198252e+07 
-3.9499999999999900e+00 -5.7799159558589697e-01 +7.6061101139124139e+00 +5.1020071846411943e+00 -4.2450889723789054e+01 -1.6800601054452964e+03 +6.7946110586087336e+04 +1.4966840407251732e+07 
-3.9999999999999898e+00 -5.7802259429167502e-01 +7.6076827650081311e+00 +5.0664399664376685e+00 -4.2322789141981104e+01 -1.6054559953387275e+03 +6.8594439085549995e+04 +1.4466123364566989e+07 
-4.0499999999999901e+00 -5.7805388834613347e-01 +7.6092700811296758e+00 +5.0308256292840907e+00 -4.2220387784031630e+01 -1.5352132688663544e+03 +6.9426195933337163e+04 +1.3990720383388739e+07 
-4.0999999999999899e+00 -5.7808547481258055e-01 +7.6108718400206747e+00 +4.9951685846709477e+00 -4.2143160114232508e+01 -1.4692899126138882e+03 +7.0437479064828483e+04 +1.3540429678732034e+07 
-4.1499999999999897e+00 -5.7811735064412917e-01 +7.6124878022049343e+00 +4.9594719652441315e+00 -4.2090301517274192e+01 -1.4076004551554074e+03 +7.1622166509808871e+04 +1.3114782767167440e+07 
-4.1999999999999904e+00 -5.7814951279406790e-01 +7.6141177282053931e+00 +4.9237389051067124e+00 -4.2061007385988212e+01 -1.3500594645792530e+03 +7.2974136339361488e+04 +1.2713311442538505e+07 
-4.2499999999999902e+00 -5.7818195821554963e-01 +7.6157613785444180e+00 +4.8879725331029862e+00 -4.2054473079031148e+01 -1.2965813623953711e+03 +7.4487266273971691e+04 +1.2335546498093588e+07 
-4.2999999999999901e+00 -5.7821468386178043e-01 +7.6174185137468680e+00 +4.8521759834289115e+00 -4.2069894080237830e+01 -1.2470807225379053e+03 +7.6155435090645406e+04 +1.1981019783509307e+07 
-4.3499999999999899e+00 -5.7824768668595006e-01 +7.6190888943325117e+00 +4.8163523867745015e+00 -4.2106465670502971e+01 -1.2014720202444757e+03 +7.7972519866300616e+04 +1.1649262469862795e+07 
-4.3999999999999897e+00 -5.7828096364121717e-01 +7.6207722808257268e+00 +4.7805048732461062e+00 -4.2163383341744314e+01 -1.1596697149209754e+03 +7.9932399443248680e+04 +1.1339805622987641e+07 
-4.4499999999999904e+00 -5.7831451168084624e-01 +7.6224684337489483e+00 +4.7446365774674089e+00 -4.2239842520305380e+01 -1.1215883939476298e+03 +8.2028952092115185e+04 +1.1052181196568165e+07 
-4.4999999999999902e+00 -5.7834832775799583e-01 +7.6241771136219079e+00 +4.7087506293104964e+00 -4.2335038520538106e+01 -1.0871425074462516e+03 +8.4256055111707115e+04 +1.0785920185447300e+07 
-4.5499999999999901e+00 -5.7838240882582181e-01 +7.6258980809679278e+00 +4.6728501590089246e+00 -4.2448166837454373e+01 -1.0562465248658932e+03 +8.6607587343064268e+04 +1.0540553753637031e+07 
-4.5999999999999899e+00 -5.7841675183754671e-01 +7.6276310963059970e+00 +4.6369382990220078e+00 -4.2578422801497410e+01 -1.0288149742029711e+03 +8.9077426246230199e+04 +1.0315613455587523e+07 
-4.6499999999999897e+00 -5.7845135374636070e-01 +7.6293759201596831e+00 +4.6010181807660819e+00 -4.2725001946181955e+01 -1.0047623530059348e+03 +9.1659450927536469e+04 +1.0110630635051448e+07 
-4.6999999999999904e+00 -5.7848621150546709e-01 +7.6311323130486546e+00 +4.5650929338038777e+00 -4.2887099661639979e+01 -9.8400311246515571e+02 +9.4347539297097857e+04 +9.9251363365193307e+06 
-4.7499999999999902e+00 -5.7852132206800633e-01 +7.6329000354910619e+00 +4.5291656917243390e+00 -4.3063911301583317e+01 -9.6645181333683036e+02 +9.7135568990610744e+04 +9.7586623509242516e+06 
-4.7999999999999901e+00 -5.7855668238715774e-01 +7.6346788480098962e+00 +4.4932395802628537e+00 -4.3254632426915045e+01 -9.5202280220158639e+02 +1.0001741929000551e+05 +9.6107390163613334e+06 
-4.8499999999999899e+00 -5.7859228941608953e-01 +7.6364685111213362e+00 +4.4573177338235697e+00 -4.3458458349016347e+01 -9.4063066183007254e+02 +1.0298696744487219e+05 +9.4808982765291836e+06 
-4.8999999999999897e+00 -5.7862814010805019e-01 +7.6382687853464510e+00 +4.4214032818651567e+00 -4.3674584611525141e+01 -9.3218984459029059e+02 +1.0603809263510238e+05 +9.3686712095893268e+06 
-4.9499999999999904e+00 -5.7866423141609369e-01 +7.6400794312037670e+00 +4.3854993545673517e+00 -4.3902206646204540e+01 -9.2661482172814510e+02 +1.0916467302075913e+05 +9.2735890190849621e+06 
-4.9999999999999902e+00 -5.7870056029346362e-01 +7.6419002092100259e+00 +4.3496090817090973e+00 -4.4140519858449736e+01 -9.2382005426459170e+02 +1.1236058659001434e+05 +9.1951828452742659e+06 
-5.0499999999999901e+00 -5.7873712369570018e-01 +7.6437308705441565e+00 +4.3137360593950511e+00 -4.4388728856614129e+01 -9.2372002621531169e+02 +1.1561970996697867e+05 +9.1329843884159327e+06 
