# trajectory
# s[mm] rx[mm] ry[mm] rz[mm] px[rad] py[rad] pz[rad]
0.0000000000000000e+00 +8.5269999999999992e+00 +0.0000000000000000e+00 +0.0000000000000000e+00 +0.0000000000000000e+00 +0.0000000000000000e+00 +1.0000000000000000e+00
-5.0000000000000003e-02 +8.5269999309975795e+00 +0.0000000000000000e+00 -4.9999999999936512e-02 +2.7600970095928753e-06 +0.0000000000000000e+00 +9.9999999999619094e-01
-1.0000000000000001e-01 +8.5269997239902580e+00 +0.0000000000000000e+00 -9.9999999999492134e-02 +5.5201963849485360e-06 +0.0000000000000000e+00 +9.9999999998476374e-01
-1.5000000000000002e-01 +8.5269993789778695e+00 +0.0000000000000000e+00 -1.4999999999828592e-01 +8.2803000488107049e-06 +0.0000000000000000e+00 +9.9999999996571831e-01
-2.0000000000000001e-01 +8.5269988959601495e+00 +0.0000000000000000e+00 -1.9999999999593698e-01 +1.1040409920318920e-05 +0.0000000000000000e+00 +9.9999999993905464e-01
-2.5000000000000000e-01 +8.5269982749367408e+00 +0.0000000000000000e+00 -2.4999999999206440e-01 +1.3800527915008627e-05 +0.0000000000000000e+00 +9.9999999990477273e-01
-2.9999999999999999e-01 +8.5269975159071905e+00 +0.0000000000000000e+00 -2.9999999998628729e-01 +1.6560655944811262e-05 +0.0000000000000000e+00 +9.9999999986287236e-01
-3.4999999999999998e-01 +8.5269966188709478e+00 +0.0000000000000000e+00 -3.4999999997822467e-01 +1.9320795918054349e-05 +0.0000000000000000e+00 +9.9999999981335341e-01
-3.9999999999999997e-01 +8.5269955838273681e+00 +0.0000000000000000e+00 -3.9999999996749563e-01 +2.2080949739461574e-05 +0.0000000000000000e+00 +9.9999999975621578e-01
-4.4999999999999996e-01 +8.5269944107757123e+00 +0.0000000000000000e+00 -4.4999999995371925e-01 +2.4841119310152888e-05 +0.0000000000000000e+00 +9.9999999969145936e-01
-4.9999999999999994e-01 +8.5269930997151437e+00 +0.0000000000000000e+00 -4.9999999993651456e-01 +2.7601306527644595e-05 +0.0000000000000000e+00 +9.9999999961908392e-01
-5.4999999999999993e-01 +8.5269916506447334e+00 +0.0000000000000000e+00 -5.4999999991550064e-01 +3.0361513285849431e-05 +0.0000000000000000e+00 +9.9999999953908925e-01
-5.9999999999999998e-01 +8.5269900635634581e+00 +0.0000000000000000e+00 -5.9999999989029651e-01 +3.3121741475076661e-05 +0.0000000000000000e+00 +9.9999999945147511e-01
-6.5000000000000002e-01 +8.5269883384701970e+00 +0.0000000000000000e+00 -6.4999999986052115e-01 +3.5881992982032168e-05 +0.0000000000000000e+00 +9.9999999935624129e-01
-7.0000000000000007e-01 +8.5269864753637385e+00 +0.0000000000000000e+00 -6.9999999982579364e-01 +3.8642269689818533e-05 +0.0000000000000000e+00 +9.9999999925338745e-01
-7.5000000000000011e-01 +8.5269844742427754e+00 +0.0000000000000000e+00 -7.4999999978573295e-01 +4.1402573477935137e-05 +0.0000000000000000e+00 +9.9999999914291338e-01
-8.0000000000000016e-01 +8.5269823351059078e+00 +0.0000000000000000e+00 -7.9999999973995806e-01 +4.4162906222278237e-05 +0.0000000000000000e+00 +9.9999999902481873e-01
-8.5000000000000020e-01 +8.5269800579516399e+00 +0.0000000000000000e+00 -8.4999999968808782e-01 +4.6923269795141067e-05 +0.0000000000000000e+00 +9.9999999889910329e-01
-9.0000000000000024e-01 +8.5269776427783839e+00 +0.0000000000000000e+00 -8.9999999962974131e-01 +4.9683666065213921e-05 +0.0000000000000000e+00 +9.9999999876576662e-01
-9.5000000000000029e-01 +8.5269750895844574e+00 +0.0000000000000000e+00 -9.4999999956453740e-01 +5.2444096897584237e-05 +0.0000000000000000e+00 +9.9999999862480826e-01
-1.0000000000000002e+00 +8.5269723983680858e+00 +0.0000000000000000e+00 -9.9999999949209506e-01 +5.5204564153736695e-05 +0.0000000000000000e+00 +9.9999999847622800e-01
-1.0500000000000003e+00 +8.5269695691274023e+00 +0.0000000000000000e+00 -1.0499999994120333e+00 +5.7965069691553301e-05 +0.0000000000000000e+00 +9.9999999832002529e-01
-1.1000000000000003e+00 +8.5269666018604475e+00 +0.0000000000000000e+00 -1.0999999993239706e+00 +6.0725615365313473e-05 +0.0000000000000000e+00 +9.9999999815619978e-01
-1.1500000000000004e+00 +8.5269634965651662e+00 +0.0000000000000000e+00 -1.1499999992275263e+00 +6.3486203025694152e-05 +0.0000000000000000e+00 +9.9999999798475092e-01
-1.2000000000000004e+00 +8.5269602532394142e+00 +0.0000000000000000e+00 -1.1999999991223187e+00 +6.6246834519769846e-05 +0.0000000000000000e+00 +9.9999999780567839e-01
-1.2500000000000004e+00 +8.5269568718809534e+00 +0.0000000000000000e+00 -1.2499999990079669e+00 +6.9007511691012761e-05 +0.0000000000000000e+00 +9.9999999761898162e-01
-1.3000000000000005e+00 +8.5269533524874532e+00 +0.0000000000000000e+00 -1.2999999988840898e+00 +7.1768236379292884e-05 +0.0000000000000000e+00 +9.9999999742466006e-01
-1.3500000000000005e+00 +8.5269496950564925e+00 +0.0000000000000000e+00 -1.3499999987503060e+00 +7.4529010420878045e-05 +0.0000000000000000e+00 +9.9999999722271327e-01
-1.4000000000000006e+00 +8.5269458995855576e+00 +0.0000000000000000e+00 -1.3999999986062341e+00 +7.7289835648434034e-05 +0.0000000000000000e+00 +9.9999999701314057e-01
-1.4500000000000006e+00 +8.5269419660720445e+00 +0.0000000000000000e+00 -1.4499999984514931e+00 +8.0050713891024686e-05 +0.0000000000000000e+00 +9.9999999679594154e-01
-1.5000000000000007e+00 +8.5269378945132548e+00 +0.0000000000000000e+00 -1.4999999982857013e+00 +8.2811646974111956e-05 +0.0000000000000000e+00 +9.9999999657111549e-01
-1.5500000000000007e+00 +8.5269336849064015e+00 +0.0000000000000000e+00 -1.5499999981084776e+00 +8.5572636719556027e-05 +0.0000000000000000e+00 +9.9999999633866188e-01
-1.6000000000000008e+00 +8.5269293372486068e+00 +0.0000000000000000e+00 -1.5999999979194404e+00 +8.8333684945615372e-05 +0.0000000000000000e+00 +9.9999999609858004e-01
-1.6500000000000008e+00 +8.5269248515369007e+00 +0.0000000000000000e+00 -1.6499999977182085e+00 +9.1094793466946883e-05 +0.0000000000000000e+00 +9.9999999585086929e-01
-1.7000000000000008e+00 +8.5269202277682243e+00 +0.0000000000000000e+00 -1.6999999975044002e+00 +9.3855964094605922e-05 +0.0000000000000000e+00 +9.9999999559552899e-01
-1.7500000000000009e+00 +8.5269154659394264e+00 +0.0000000000000000e+00 -1.7499999972776341e+00 +9.6617198636046427e-05 +0.0000000000000000e+00 +9.9999999533255846e-01
-1.8000000000000009e+00 +8.5269105660472650e+00 +0.0000000000000000e+00 -1.7999999970375289e+00 +9.9378498895120998e-05 +0.0000000000000000e+00 +9.9999999506195691e-01
-1.8500000000000010e+00 +8.5269055280884114e+00 +0.0000000000000000e+00 -1.8499999967837026e+00 +1.0213986667208100e-04 +0.0000000000000000e+00 +9.9999999478372370e-01
-1.9000000000000010e+00 +8.5269003520594424e+00 +0.0000000000000000e+00 -1.8999999965157739e+00 +1.0490130376357663e-04 +0.0000000000000000e+00 +9.9999999449785815e-01
-1.9500000000000011e+00 +8.5268950379568498e+00 +0.0000000000000000e+00 -1.9499999962333612e+00 +1.0766281196265704e-04 +0.0000000000000000e+00 +9.9999999420435937e-01
-2.0000000000000009e+00 +8.5268895857770310e+00 +0.0000000000000000e+00 -1.9999999959360826e+00 +1.1042439305877036e-04 +0.0000000000000000e+00 +9.9999999390322658e-01
-2.0500000000000007e+00 +8.5268839955162985e+00 +0.0000000000000000e+00 -2.0499999956235566e+00 +1.1318604883746018e-04 +0.0000000000000000e+00 +9.9999999359445901e-01
-2.1000000000000005e+00 +8.5268782671708720e+00 +0.0000000000000000e+00 -2.0999999952954012e+00 +1.1594778107702524e-04 +0.0000000000000000e+00 +9.9999999327805589e-01
-2.1500000000000004e+00 +8.5268724007368863e+00 +0.0000000000000000e+00 -2.1499999949512349e+00 +1.1870959154517900e-04 +0.0000000000000000e+00 +9.9999999295401631e-01
-2.2000000000000002e+00 +8.5268663962103854e+00 +0.0000000000000000e+00 -2.1999999945906756e+00 +1.2147148199874616e-04 +0.0000000000000000e+00 +9.9999999262233941e-01
-2.2500000000000000e+00 +8.5268602535873246e+00 +0.0000000000000000e+00 -2.2499999942133417e+00 +1.2423345418366262e-04 +0.0000000000000000e+00 +9.9999999228302427e-01
-2.2999999999999998e+00 +8.5268539728635755e+00 +0.0000000000000000e+00 -2.2999999938188509e+00 +1.2699550983497559e-04 +0.0000000000000000e+00 +9.9999999193607003e-01
-2.3499999999999996e+00 +8.5268475540349211e+00 +0.0000000000000000e+00 -2.3499999934068212e+00 +1.2975765067684363e-04 +0.0000000000000000e+00 +9.9999999158147579e-01
-2.3999999999999995e+00 +8.5268409970970591e+00 +0.0000000000000000e+00 -2.3999999929768712e+00 +1.3251987842253675e-04 +0.0000000000000000e+00 +9.9999999121924066e-01
-2.4499999999999993e+00 +8.5268343020456019e+00 +0.0000000000000000e+00 -2.4499999925286180e+00 +1.3528219477443638e-04 +0.0000000000000000e+00 +9.9999999084936364e-01
-2.4999999999999991e+00 +8.5268274688760766e+00 +0.0000000000000000e+00 -2.4999999920616802e+00 +1.3804460142403555e-04 +0.0000000000000000e+00 +9.9999999047184374e-01
-2.5499999999999989e+00 +8.5268204975839268e+00 +0.0000000000000000e+00 -2.5499999915756750e+00 +1.4080710005193883e-04 +0.0000000000000000e+00 +9.9999999008668006e-01
-2.5999999999999988e+00 +8.5268133881645110e+00 +0.0000000000000000e+00 -2.5999999910702205e+00 +1.4356969232786246e-04 +0.0000000000000000e+00 +9.9999998969387149e-01
-2.6499999999999986e+00 +8.5268061406131057e+00 +0.0000000000000000e+00 -2.6499999905449347e+00 +1.4633237991063436e-04 +0.0000000000000000e+00 +9.9999998929341705e-01
-2.6999999999999984e+00 +8.5267987549249042e+00 +0.0000000000000000e+00 -2.6999999899994349e+00 +1.4909516444819418e-04 +0.0000000000000000e+00 +9.9999998888531572e-01
-2.7499999999999982e+00 +8.5267912310950180e+00 +0.0000000000000000e+00 -2.7499999894333387e+00 +1.5185804757759339e-04 +0.0000000000000000e+00 +9.9999998846956639e-01
-2.7999999999999980e+00 +8.5267835691184768e+00 +0.0000000000000000e+00 -2.7999999888462641e+00 +1.5462103092499525e-04 +0.0000000000000000e+00 +9.9999998804616808e-01
-2.8499999999999979e+00 +8.5267757689902286e+00 +0.0000000000000000e+00 -2.8499999882378280e+00 +1.5738411610567496e-04 +0.0000000000000000e+00 +9.9999998761511966e-01
-2.8999999999999977e+00 +8.5267678307051415e+00 +0.0000000000000000e+00 -2.8999999876076483e+00 +1.6014730472401961e-04 +0.0000000000000000e+00 +9.9999998717642002e-01
-2.9499999999999975e+00 +8.5267597542580056e+00 +0.0000000000000000e+00 -2.9499999869553424e+00 +1.6291059837352830e-04 +0.0000000000000000e+00 +9.9999998673006807e-01
-2.9999999999999973e+00 +8.5267515396435272e+00 +0.0000000000000000e+00 -2.9999999862805273e+00 +1.6567399863681210e-04 +0.0000000000000000e+00 +9.9999998627606268e-01
-3.0499999999999972e+00 +8.5267431868563381e+00 +0.0000000000000000e+00 -3.0499999855828208e+00 +1.6843750708559418e-04 +0.0000000000000000e+00 +9.9999998581440264e-01
-3.0999999999999970e+00 +8.5267346958909886e+00 +0.0000000000000000e+00 -3.0999999848618400e+00 +1.7120112528070975e-04 +0.0000000000000000e+00 +9.9999998534508683e-01
-3.1499999999999968e+00 +8.5267260667419542e+00 +0.0000000000000000e+00 -3.1499999841172022e+00 +1.7396485477210618e-04 +0.0000000000000000e+00 +9.9999998486811414e-01
-3.1999999999999966e+00 +8.5267172994036304e+00 +0.0000000000000000e+00 -3.1999999833485240e+00 +1.7672869709884303e-04 +0.0000000000000000e+00 +9.9999998438348325e-01
-3.2499999999999964e+00 +8.5267083938703383e+00 +0.0000000000000000e+00 -3.2499999825554227e+00 +1.7949265378909202e-04 +0.0000000000000000e+00 +9.9999998389119304e-01
-3.2999999999999963e+00 +8.5266993501363206e+00 +0.0000000000000000e+00 -3.2999999817375154e+00 +1.8225672636013713e-04 +0.0000000000000000e+00 +9.9999998339124230e-01
-3.3499999999999961e+00 +8.5266901681957457e+00 +0.0000000000000000e+00 -3.3499999808944190e+00 +1.8502091631837460e-04 +0.0000000000000000e+00 +9.9999998288362968e-01
-3.3999999999999959e+00 +8.5266808480427070e+00 +0.0000000000000000e+00 -3.3999999800257505e+00 +1.8778522515931298e-04 +0.0000000000000000e+00 +9.9999998236835397e-01
-3.4499999999999957e+00 +8.5266713896712236e+00 +0.0000000000000000e+00 -3.4499999791311269e+00 +1.9054965436757313e-04 +0.0000000000000000e+00 +9.9999998184541394e-01
-3.4999999999999956e+00 +8.5266617930752400e+00 +0.0000000000000000e+00 -3.4999999782101643e+00 +1.9331420541688824e-04 +0.0000000000000000e+00 +9.9999998131480827e-01
-3.5499999999999954e+00 +8.5266520582486276e+00 +0.0000000000000000e+00 -3.5499999772624800e+00 +1.9607887977010394e-04 +0.0000000000000000e+00 +9.9999998077653574e-01
-3.5999999999999952e+00 +8.5266421851851835e+00 +0.0000000000000000e+00 -3.5999999762876902e+00 +1.9884367887917819e-04 +0.0000000000000000e+00 +9.9999998023059500e-01
-3.6499999999999950e+00 +8.5266321738786353e+00 +0.0000000000000000e+00 -3.6499999752854118e+00 +2.0160860418518147e-04 +0.0000000000000000e+00 +9.9999997967698462e-01
-3.6999999999999948e+00 +8.5266220243226378e+00 +0.0000000000000000e+00 -3.6999999742552609e+00 +2.0437365711829661e-04 +0.0000000000000000e+00 +9.9999997911570337e-01
-3.7499999999999947e+00 +8.5266117365107732e+00 +0.0000000000000000e+00 -3.7499999731968541e+00 +2.0713883909781900e-04 +0.0000000000000000e+00 +9.9999997854674993e-01
-3.7999999999999945e+00 +8.5266013104365541e+00 +0.0000000000000000e+00 -3.7999999721098079e+00 +2.0990415153215644e-04 +0.0000000000000000e+00 +9.9999997797012286e-01
-3.8499999999999943e+00 +8.5265907460934223e+00 +0.0000000000000000e+00 -3.8499999709937383e+00 +2.1266959581882930e-04 +0.0000000000000000e+00 +9.9999997738582080e-01
-3.8999999999999941e+00 +8.5265800434747518e+00 +0.0000000000000000e+00 -3.8999999698482619e+00 +2.1543517334447044e-04 +0.0000000000000000e+00 +9.9999997679384234e-01
-3.9499999999999940e+00 +8.5265692025738442e+00 +0.0000000000000000e+00 -3.9499999686729947e+00 +2.1820088548482527e-04 +0.0000000000000000e+00 +9.9999997619418601e-01
-3.9999999999999938e+00 +8.5265582233839368e+00 +0.0000000000000000e+00 -3.9999999674675526e+00 +2.2096673360475175e-04 +0.0000000000000000e+00 +9.9999997558685050e-01
-4.0499999999999936e+00 +8.5265471058981959e+00 +0.0000000000000000e+00 -4.0499999662315513e+00 +2.2373271905808047e-04 +0.0000000000000000e+00 +9.9999997497183435e-01
-4.0999999999999934e+00 +8.5265358501097204e+00 +0.0000000000000000e+00 -4.0999999649646073e+00 +2.2649884318607565e-04 +0.0000000000000000e+00 +9.9999997434913612e-01
-4.1499999999999932e+00 +8.5265244560115434e+00 +0.0000000000000000e+00 -4.1499999636663363e+00 +2.2926510731589606e-04 +0.0000000000000000e+00 +9.9999997371875438e-01
-4.1999999999999931e+00 +8.5265129235966324e+00 +0.0000000000000000e+00 -4.1999999623363546e+00 +2.3203151276045511e-04 +0.0000000000000000e+00 +9.9999997308068767e-01
-4.2499999999999929e+00 +8.5265012528578890e+00 +0.0000000000000000e+00 -4.2499999609742769e+00 +2.3479806081842084e-04 +0.0000000000000000e+00 +9.9999997243493444e-01
-4.2999999999999927e+00 +8.5264894437881509e+00 +0.0000000000000000e+00 -4.2999999595797194e+00 +2.3756475277421593e-04 +0.0000000000000000e+00 +9.9999997178149325e-01
-4.3499999999999925e+00 +8.5264774963801919e+00 +0.0000000000000000e+00 -4.3499999581522975e+00 +2.4033158989801765e-04 +0.0000000000000000e+00 +9.9999997112036254e-01
-4.3999999999999924e+00 +8.5264654106267201e+00 +0.0000000000000000e+00 -4.3999999566916275e+00 +2.4309857344575789e-04 +0.0000000000000000e+00 +9.9999997045154088e-01
-4.4499999999999922e+00 +8.5264531865203850e+00 +0.0000000000000000e+00 -4.4499999551973239e+00 +2.4586570465912310e-04 +0.0000000000000000e+00 +9.9999996977502670e-01
-4.4999999999999920e+00 +8.5264408240537719e+00 +0.0000000000000000e+00 -4.4999999536690023e+00 +2.4863298476555435e-04 +0.0000000000000000e+00 +9.9999996909081845e-01
-4.5499999999999918e+00 +8.5264283232194060e+00 +0.0000000000000000e+00 -4.5499999521062779e+00 +2.5140041497824723e-04 +0.0000000000000000e+00 +9.9999996839891470e-01
-4.5999999999999917e+00 +8.5264156840097520e+00 +0.0000000000000000e+00 -4.5999999505087654e+00 +2.5416799649615189e-04 +0.0000000000000000e+00 +9.9999996769931376e-01
-4.6499999999999915e+00 +8.5264029064172142e+00 +0.0000000000000000e+00 -4.6499999488760810e+00 +2.5693573050397298e-04 +0.0000000000000000e+00 +9.9999996699201421e-01
-4.6999999999999913e+00 +8.5263899904341400e+00 +0.0000000000000000e+00 -4.6999999472078384e+00 +2.5970361817216961e-04 +0.0000000000000000e+00 +9.9999996627701437e-01
-4.7499999999999911e+00 +8.5263769360528165e+00 +0.0000000000000000e+00 -4.7499999455036539e+00 +2.6247166065695548e-04 +0.0000000000000000e+00 +9.9999996555431270e-01
-4.7999999999999909e+00 +8.5263637432654740e+00 +0.0000000000000000e+00 -4.7999999437631411e+00 +2.6523985910029862e-04 +0.0000000000000000e+00 +9.9999996482390752e-01
-4.8499999999999908e+00 +8.5263504120642875e+00 +0.0000000000000000e+00 -4.8499999419859154e+00 +2.6800821462992150e-04 +0.0000000000000000e+00 +9.9999996408579739e-01
-4.8999999999999906e+00 +8.5263369424413735e+00 +0.0000000000000000e+00 -4.8999999401715923e+00 +2.7077672835930096e-04 +0.0000000000000000e+00 +9.9999996333998065e-01
-4.9499999999999904e+00 +8.5263233343887954e+00 +0.0000000000000000e+00 -4.9499999383197855e+00 +2.7354540138766826e-04 +0.0000000000000000e+00 +9.9999996258645563e-01
-4.9999999999999902e+00 +8.5263095878985613e+00 +0.0000000000000000e+00 -4.9999999364301093e+00 +2.7631423480000897e-04 +0.0000000000000000e+00 +9.9999996182522077e-01
-5.0499999999999901e+00 +8.5262957029626243e+00 +0.0000000000000000e+00 -5.0499999345021784e+00 +2.7908322966706289e-04 +0.0000000000000000e+00 +9.9999996105627442e-01
-5.0999999999999899e+00 +8.5262816795728860e+00 +0.0000000000000000e+00 -5.0999999325356082e+00 +2.8185238704532415e-04 +0.0000000000000000e+00 +9.9999996027961491e-01
-5.1499999999999897e+00 +8.5262675177211946e+00 +0.0000000000000000e+00 -5.1499999305300115e+00 +2.8462170797704102e-04 +0.0000000000000000e+00 +9.9999995949524056e-01
-5.1999999999999895e+00 +8.5262532173993453e+00 +0.0000000000000000e+00 -5.1999999284850036e+00 +2.8739119349021594e-04 +0.0000000000000000e+00 +9.9999995870314984e-01
-5.2499999999999893e+00 +8.5262387785990850e+00 +0.0000000000000000e+00 -5.2499999264001982e+00 +2.9016084459860555e-04 +0.0000000000000000e+00 +9.9999995790334095e-01
-5.2999999999999892e+00 +8.5262242013121092e+00 +0.0000000000000000e+00 -5.2999999242752089e+00 +2.9293066230172052e-04 +0.0000000000000000e+00 +9.9999995709581235e-01
-5.3499999999999890e+00 +8.5262094855300621e+00 +0.0000000000000000e+00 -5.3499999221096504e+00 +2.9570064758482559e-04 +0.0000000000000000e+00 +9.9999995628056226e-01
-5.3999999999999888e+00 +8.5261946312445414e+00 +0.0000000000000000e+00 -5.3999999199031361e+00 +2.9847080141893946e-04 +0.0000000000000000e+00 +9.9999995545758902e-01
-5.4499999999999886e+00 +8.5261796384470951e+00 +0.0000000000000000e+00 -5.4499999176552807e+00 +3.0124112476083480e-04 +0.0000000000000000e+00 +9.9999995462689095e-01
-5.4999999999999885e+00 +8.5261645071292236e+00 +0.0000000000000000e+00 -5.4999999153656969e+00 +3.0401161855303814e-04 +0.0000000000000000e+00 +9.9999995378846640e-01
-5.5499999999999883e+00 +8.5261492372823824e+00 +0.0000000000000000e+00 -5.5499999130339983e+00 +3.0678228372382988e-04 +0.0000000000000000e+00 +9.9999995294231370e-01
-5.5999999999999881e+00 +8.5261338288979793e+00 +0.0000000000000000e+00 -5.5999999106597995e+00 +3.0955312118724417e-04 +0.0000000000000000e+00 +9.9999995208843107e-01
-5.6499999999999879e+00 +8.5261182819673778e+00 +0.0000000000000000e+00 -5.6499999082427133e+00 +3.1232413184306891e-04 +0.0000000000000000e+00 +9.9999995122681673e-01
-5.6999999999999877e+00 +8.5261025964818948e+00 +0.0000000000000000e+00 -5.6999999057823523e+00 +3.1509531657684573e-04 +0.0000000000000000e+00 +9.9999995035746914e-01
-5.7499999999999876e+00 +8.5260867724328051e+00 +0.0000000000000000e+00 -5.7499999032783311e+00 +3.1786667625986975e-04 +0.0000000000000000e+00 +9.9999994948038640e-01
-5.7999999999999874e+00 +8.5260708098113387e+00 +0.0000000000000000e+00 -5.7999999007302625e+00 +3.2063821174918973e-04 +0.0000000000000000e+00 +9.9999994859556685e-01
-5.8499999999999872e+00 +8.5260547086086849e+00 +0.0000000000000000e+00 -5.8499998981377592e+00 +3.2340992388760784e-04 +0.0000000000000000e+00 +9.9999994770300882e-01
