# multipoles
# s[mm] polynom_b[n=0][T/m^n] polynom_b[n=1][T/m^n] polynom_b[n=2][T/m^n] polynom_b[n=3][T/m^n] polynom_b[n=4][T/m^n] polynom_b[n=5][T/m^n] polynom_b[n=6][T/m^n] 
+0.0000000000000000e+00 -5.7691426694983727e-01 +7.5554180004708176e+00 +5.4167260702198305e+00 -3.2091930666180438e+01 +1.3029030064153872e+04 -1.3810777353770242e+05 -7.8954230674604014e+07 
+5.0000000000000003e-02 -5.7690568959684763e-01 +7.5549821397538839e+00 +5.4302304228648168e+00 -3.1683228553878848e+01 +1.2921916020439636e+04 -1.4047076425397914e+05 -7.8367490403278321e+07 
+1.0000000000000001e-01 -5.7689750947453711e-01 +7.5545676256542880e+00 +5.4430291886118889e+00 -3.1264036375760863e+01 +1.2821582654760759e+04 -1.4289553130699813e+05 -7.7826475555394426e+07 
+1.5000000000000002e-01 -5.7688972657089654e-01 +7.5541744911307571e+00 +5.4551271062880833e+00 -3.0835258487029044e+01 +1.2727858678552364e+04 -1.4537626725287165e+05 -7.7329891554934233e+07 
+2.0000000000000001e-01 -5.7688234087394707e-01 +7.5538027691423020e+00 +5.4665289169373166e+00 -3.0397799228724182e+01 +1.2640572743028693e+04 -1.4790716475516750e+05 -7.6876443420303792e+07 
+2.5000000000000000e-01 -5.7687535237172161e-01 +7.5534524926463300e+00 +5.4772393598817857e+00 -2.9952562862923024e+01 +1.2559553549001215e+04 -1.5048241705023503e+05 -7.6464836513462916e+07 
+2.9999999999999999e-01 -5.7686876105228357e-01 +7.5531236946042526e+00 +5.4872631770599778e+00 -2.9500453778048403e+01 +1.2484629724284006e+04 -1.5309621637461788e+05 -7.6093775699126780e+07 
+3.4999999999999998e-01 -5.7686256690369420e-01 +7.5528164079743183e+00 +5.4966051063786852e+00 -2.9042376205913705e+01 +1.2415630006872021e+04 -1.5574275622922080e+05 -7.5761966589628056e+07 
+3.9999999999999997e-01 -5.7685676991405022e-01 +7.5525306657211919e+00 +5.5052698888989289e+00 -2.8579234619693057e+01 +1.2352383048626451e+04 -1.5841622811562853e+05 -7.5468114210899994e+07 
+4.4999999999999996e-01 -5.7685137007146725e-01 +7.5522665008081615e+00 +5.5132622657388968e+00 -2.8111933405676872e+01 +1.2294717499980297e+04 -1.6111082424055913e+05 -7.5210923581526414e+07 
+4.9999999999999994e-01 -5.7684636736406414e-01 +7.5520239461960372e+00 +5.5205869751185928e+00 -2.7641376824882204e+01 +1.2242462091141644e+04 -1.6382073782835095e+05 -7.4989100264907852e+07 
+5.4999999999999993e-01 -5.7684176177999802e-01 +7.5518030348521288e+00 +5.5272487587864063e+00 -2.7168469376670142e+01 +1.2195445456530144e+04 -1.6654016013419771e+05 -7.4801349175137296e+07 
+5.9999999999999998e-01 -5.7683755330742692e-01 +7.5516037997389871e+00 +5.5332523553412347e+00 -2.6694115329176071e+01 +1.2153496316077692e+04 -1.6926328434402170e+05 -7.4646375805844635e+07 
+6.5000000000000002e-01 -5.7683374193453985e-01 +7.5514262738266504e+00 +5.5386025057869182e+00 -2.6219219236303445e+01 +1.2116443323101455e+04 -1.7198430126496186e+05 -7.4522885196146786e+07 
+7.0000000000000007e-01 -5.7683032764954723e-01 +7.5512704900766101e+00 +5.5433039508261173e+00 -2.5744685274197465e+01 +1.2084115145624617e+04 -1.7469740480664821e+05 -7.4429582505957752e+07 
+7.5000000000000011e-01 -5.7682731044066338e-01 +7.5511364814641713e+00 +5.5473614295309241e+00 -2.5271418156328053e+01 +1.2056340487290463e+04 -1.7739678445684435e+05 -7.4365173108816952e+07 
+8.0000000000000016e-01 -5.7682469029612971e-01 +7.5510242809529853e+00 +5.5507796816260866e+00 -2.4800322080174698e+01 +1.2032948041380478e+04 -1.8007663400165958e+05 -7.4328362331749633e+07 
+8.5000000000000020e-01 -5.7682246720420816e-01 +7.5509339215158162e+00 +5.5535634476520217e+00 -2.4332301596605383e+01 +1.2013766476277009e+04 -1.8273114427096405e+05 -7.4317855326017842e+07 
+9.0000000000000024e-01 -5.7682064115319065e-01 +7.5508654361210077e+00 +5.5557174699442902e+00 -2.3868261049447021e+01 +1.1998624412879417e+04 -1.8535450780295048e+05 -7.4332356922580272e+07 
+9.5000000000000029e-01 -5.7681921213136667e-01 +7.5508188577437521e+00 +5.5572464867515086e+00 -2.3409105026014423e+01 +1.1987350586259403e+04 -1.8794091516382704e+05 -7.4370572741467819e+07 
+1.0000000000000002e+00 -5.7681818012705099e-01 +7.5507942193544002e+00 +5.5581552379205235e+00 -2.2955737881391403e+01 +1.1979773683057148e+04 -1.9048455886086836e+05 -7.4431208052966386e+07 
+1.0500000000000003e+00 -5.7681754512859151e-01 +7.5507915539248627e+00 +5.5584484656265589e+00 -2.2509064015010750e+01 +1.1975722332710357e+04 -1.9297963099788059e+05 -7.4512967765085116e+07 
+1.1000000000000003e+00 -5.7681730712433499e-01 +7.5508108944330887e+00 +5.5581309083484634e+00 -2.2069988033521284e+01 +1.1975025264325373e+04 -1.9542032204236358e+05 -7.4614557456450909e+07 
+1.1500000000000004e+00 -5.7681746610266571e-01 +7.5508522738510209e+00 +5.5572073082212112e+00 -2.1639414273812644e+01 +1.1977511103932751e+04 -1.9780082464542484e+05 -7.4734681992614388e+07 
+1.2000000000000004e+00 -5.7681802205197541e-01 +7.5509157251569183e+00 +5.5556824047420736e+00 -2.1218247299119639e+01 +1.1983008558780683e+04 -2.0011532963872235e+05 -7.4872046827502042e+07 
+1.2500000000000004e+00 -5.7681897496068280e-01 +7.5510012813256004e+00 +5.5535609395080536e+00 -2.0807391497983726e+01 +1.1991346270754320e+04 -2.0235802930763841e+05 -7.5025356938689992e+07 
+1.3000000000000005e+00 -5.7682032481722800e-01 +7.5511089753360769e+00 +5.5508476539530278e+00 -2.0407751400399373e+01 +1.2002352893407495e+04 -2.0452311479512157e+05 -7.5193317410114482e+07 
+1.3500000000000005e+00 -5.7682207161005117e-01 +7.5512388401678887e+00 +5.5475472866564139e+00 -2.0020231529298918e+01 +1.2015857154658550e+04 -2.0660477730571479e+05 -7.5374633820309490e+07 
+1.4000000000000006e+00 -5.7682421532764405e-01 +7.5513909087969351e+00 +5.5436645813628820e+00 -1.9645736210892217e+01 +1.2031687647454923e+04 -2.0859720975901448e+05 -7.5568010848990917e+07 
+1.4500000000000006e+00 -5.7682675595848443e-01 +7.5515652142069385e+00 +5.5392042764914180e+00 -1.9285170082288278e+01 +1.2049673105485237e+04 -2.1049460243908883e+05 -7.5772154117248297e+07 
+1.5000000000000007e+00 -5.7682969349109459e-01 +7.5517617893771236e+00 +5.5341711148640913e+00 -1.8939437551537655e+01 +1.2069642145732354e+04 -2.1229114760462687e+05 -7.5985768464952052e+07 
+1.5500000000000007e+00 -5.7683302791401170e-01 +7.5519806672897261e+00 +5.5285698381493820e+00 -1.8609443121619531e+01 +1.2091423420842899e+04 -2.1398103672814966e+05 -7.6207558991091743e+07 
+1.6000000000000008e+00 -5.7683675921578503e-01 +7.5522218809285331e+00 +5.5224051874004489e+00 -1.8296091316914129e+01 +1.2114845594851611e+04 -2.1555846118597058e+05 -7.6436230849763587e+07 
+1.6500000000000008e+00 -5.7684088738498440e-01 +7.5524854632746523e+00 +5.5156819031533706e+00 -1.8000286527460318e+01 +1.2139737353523684e+04 -2.1701761345594330e+05 -7.6670489371231124e+07 
+1.7000000000000008e+00 -5.7684541241021325e-01 +7.5527714473139778e+00 +5.5084047291790208e+00 -1.7722933302974592e+01 +1.2165927292146987e+04 -2.1835268474206858e+05 -7.6909039263651341e+07 
+1.7500000000000009e+00 -5.7685033428007815e-01 +7.5530798660316671e+00 +5.5005784062498693e+00 -1.7464936126624018e+01 +1.2193244086962501e+04 -2.1955786684278728e+05 -7.7150585780022398e+07 
+1.8000000000000009e+00 -5.7685565298321162e-01 +7.5534107524132148e+00 +5.4922076761564051e+00 -1.7227199475478624e+01 +1.2221516392364711e+04 -2.2062735159124146e+05 -7.7393834048724025e+07 
+1.8500000000000010e+00 -5.7686136850827707e-01 +7.5537641394459998e+00 +5.4832972826193807e+00 -1.7010627840099207e+01 +1.2250572809872998e+04 -2.2155533086086149e+05 -7.7637488835346177e+07 
+1.9000000000000010e+00 -5.7686748084394168e-01 +7.5541400601161959e+00 +5.4738519669326848e+00 -1.6816125654342940e+01 +1.2280242007443971e+04 -2.2233599693172422e+05 -7.7880255359299570e+07 
+1.9500000000000011e+00 -5.7687398997889838e-01 +7.5545385474139639e+00 +5.4638764715263708e+00 -1.6644597467409451e+01 +1.2310352622374219e+04 -2.2296354121931890e+05 -7.8120838630823687e+07 
+2.0000000000000009e+00 -5.7688089590186520e-01 +7.5549596343279912e+00 +5.4533755397494694e+00 -1.6496947741668571e+01 +1.2340733271104727e+04 -2.2343215586662109e+05 -7.8357943535294116e+07 
+2.0500000000000007e+00 -5.7688819833959315e-01 +7.5554033224392239e+00 +5.4423534391982411e+00 -1.6373747346118080e+01 +1.2371250080714870e+04 -2.2373800861084595e+05 -7.8590567008703277e+07 
+2.1000000000000005e+00 -5.7689589597043367e-01 +7.5558694814723566e+00 +5.4308132922385353e+00 -1.6274283770609770e+01 +1.2401913272954120e+04 -2.2388485638036518e+05 -7.8818841998234823e+07 
+2.1500000000000004e+00 -5.7690398721053915e-01 +7.5563579466231854e+00 +5.4187581356584191e+00 -1.6197537109493798e+01 +1.2432767663215060e+04 -2.2387827559750891e+05 -7.9043177720354989e+07 
+2.2000000000000002e+00 -5.7691247047606953e-01 +7.5568685530873720e+00 +5.4061910041772396e+00 -1.6142487427957867e+01 +1.2463858128456308e+04 -2.2372384297856558e+05 -7.9263983826252207e+07 
+2.2500000000000000e+00 -5.7692134418320007e-01 +7.5574011360602515e+00 +5.3931149334287687e+00 -1.6108114748797515e+01 +1.2495229514266017e+04 -2.2342713560026218e+05 -7.9481669734272361e+07 
+2.2999999999999998e+00 -5.7693060674811969e-01 +7.5579555307425972e+00 +5.3795329582611222e+00 -1.6093399296864028e+01 +1.2526926690132927e+04 -2.2299372889923988e+05 -7.9696645031599313e+07 
+2.3499999999999996e+00 -5.7694025658704773e-01 +7.5585315723291053e+00 +5.3654481163003354e+00 -1.6097321032299039e+01 +1.2558994452232815e+04 -2.2242920045400088e+05 -7.9909318822763801e+07 
+2.3999999999999995e+00 -5.7695029211618953e-01 +7.5591290960185926e+00 +5.3508634404072843e+00 -1.6118860060745948e+01 +1.2591477718864358e+04 -2.2173912667085583e+05 -8.0120101007675186e+07 
+2.4499999999999993e+00 -5.7696071175177910e-01 +7.5597479370129923e+00 +5.3357819658654204e+00 -1.6156996598892366e+01 +1.2624421345114208e+04 -2.2092908301864291e+05 -8.0329401073666409e+07 
+2.4999999999999991e+00 -5.7697151391008683e-01 +7.5603879305090240e+00 +5.3202067313477537e+00 -1.6210710629129107e+01 +1.2657870099008172e+04 -2.2000464690475521e+05 -8.0537627936587945e+07 
+2.5499999999999989e+00 -5.7698269700735594e-01 +7.5610489117072737e+00 +5.3041407690115641e+00 -1.6278982267216158e+01 +1.2691868915487765e+04 -2.1897139465946489e+05 -8.0745191606277421e+07 
+2.5999999999999988e+00 -5.7699425945986960e-01 +7.5617307158103104e+00 +5.2875871152508012e+00 -1.6360791704533543e+01 +1.2726462619241111e+04 -2.1783490193550696e+05 -8.0952501366827220e+07 
+2.6499999999999986e+00 -5.7700619968390854e-01 +7.5624331780183898e+00 +5.2705488040498665e+00 -1.6455119000335220e+01 +1.2761696093801724e+04 -2.1660074555091717e+05 -8.1159966877562344e+07 
+2.6999999999999984e+00 -5.7701851609579347e-01 +7.5631561335337096e+00 +5.2530288732774988e+00 -1.6560944297476951e+01 +1.2797614125029197e+04 -2.1527450153950555e+05 -8.1367997164375126e+07 
+2.7499999999999982e+00 -5.7703120711182276e-01 +7.5638994175595942e+00 +5.2350303549586856e+00 -1.6677247760098044e+01 +1.2834261650152825e+04 -2.1386174579087095e+05 -8.1577002256100029e+07 
+2.7999999999999980e+00 -5.7704427114833834e-01 +7.5646628652963495e+00 +5.2165562867703299e+00 -1.6803009397915730e+01 +1.2871683453480020e+04 -2.1236805551114335e+05 -8.1787391148091227e+07 
+2.8499999999999979e+00 -5.7705770662166467e-01 +7.5654463119510478e+00 +5.1976097008612081e+00 -1.6937209499236836e+01 +1.2909924465397586e+04 -2.1079900554125060e+05 -8.1999573812078506e+07 
+2.8999999999999977e+00 -5.7707151194816797e-01 +7.5662495927236968e+00 +5.1781936344060835e+00 -1.7078828043319806e+01 +1.2949029484444911e+04 -2.0916017327158729e+05 -8.2213959347280189e+07 
+2.9499999999999975e+00 -5.7708568554420447e-01 +7.5670725428227179e+00 +5.1583111205586274e+00 -1.7226845345677471e+01 +1.2989043412426836e+04 -2.0745713329214975e+05 -8.2430957529185027e+07 
+2.9999999999999973e+00 -5.7710022582615317e-01 +7.5679149974495488e+00 +5.1379651947945382e+00 -1.7380241402801790e+01 +1.3030011086379327e+04 -2.0569546287804499e+05 -8.2650977692103788e+07 
+3.0499999999999972e+00 -5.7711513121040303e-01 +7.5687767918120503e+00 +5.1171588917483799e+00 -1.7537996474641773e+01 +1.3071977368492553e+04 -2.0388073707104041e+05 -8.2874429351992965e+07 
+3.0999999999999970e+00 -5.7713040011335648e-01 +7.5696577611167903e+00 +5.0958952464453642e+00 -1.7699090746470162e+01 +1.3114987106477571e+04 -2.0201853155443506e+05 -8.3101721912164763e+07 
+3.1499999999999968e+00 -5.7714603095139749e-01 +7.5705577405644959e+00 +5.0741772890899135e+00 -1.7862504162998516e+01 +1.3159085274196761e+04 -2.0011442391608260e+05 -8.3333265618656859e+07 
+3.1999999999999966e+00 -5.7716202214098211e-01 +7.5714765653684957e+00 +5.0520080596409391e+00 -1.8027217166927908e+01 +1.3204316587674271e+04 -1.9817398766878835e+05 -8.3569468994749084e+07 
+3.2499999999999964e+00 -5.7717837209851863e-01 +7.5724140707332159e+00 +5.0293905891175923e+00 -1.8192209816167487e+01 +1.3250725990411622e+04 -1.9620279950102960e+05 -8.3810742053520977e+07 
+3.2999999999999963e+00 -5.7719507924044988e-01 +7.5733700918649713e+00 +5.0063279107039778e+00 -1.8356462243266982e+01 +1.3298358383283181e+04 -1.9420643544484780e+05 -8.4057494580926329e+07 
+3.3499999999999961e+00 -5.7721214198322579e-01 +7.5743444639734268e+00 +4.9828230589208884e+00 -1.8518954709968217e+01 +1.3347258611702930e+04 -1.9219047043194054e+05 -8.4310135918219030e+07 
+3.3999999999999959e+00 -5.7722955874332127e-01 +7.5753370222669600e+00 +4.9588790694316156e+00 -1.8678667402364198e+01 +1.3397471500762780e+04 -1.9016048005911411e+05 -8.4569075310905367e+07 
+3.4499999999999957e+00 -5.7724732793718170e-01 +7.5763476019534490e+00 +4.9344989717692638e+00 -1.8834580486174332e+01 +1.3449042028621892e+04 -1.8812204001814991e+05 -8.4834722992755026e+07 
+3.4999999999999956e+00 -5.7726544798130552e-01 +7.5773760382415656e+00 +4.9096858025214853e+00 -1.8985674151328816e+01 +1.3502014990518250e+04 -1.8608072578918404e+05 -8.5107487997147292e+07 
+3.5499999999999954e+00 -5.7728391729217399e-01 +7.5784221663416833e+00 +4.8844425935399958e+00 -1.9130928638304095e+01 +1.3556435303016100e+04 -1.8404211245557453e+05 -8.5387780151923344e+07 
+3.5999999999999952e+00 -5.7730273428628409e-01 +7.5794858214613443e+00 +4.8587723777731631e+00 -1.9269324074290399e+01 +1.3612347851208637e+04 -1.8201177596363518e+05 -8.5676009067625567e+07 
+3.6499999999999950e+00 -5.7732189738015172e-01 +7.5805668388138407e+00 +4.8326781900941880e+00 -1.9399840806679840e+01 +1.3669797465082685e+04 -1.7999529045589248e+05 -8.5972583976089910e+07 
+3.6999999999999948e+00 -5.7734140499027087e-01 +7.5816650536075727e+00 +4.8061630596344695e+00 -1.9521458971746704e+01 +1.3728829127485586e+04 -1.7799823180136280e+05 -8.6277915134599611e+07 
+3.7499999999999947e+00 -5.7736125553317441e-01 +7.5827803010538215e+00 +4.7792300206228493e+00 -1.9633158831824108e+01 +1.3789487683380177e+04 -1.7602617475088278e+05 -8.6592411871305257e+07 
+3.7999999999999945e+00 -5.7738144742538677e-01 +7.5839124163639262e+00 +4.7518821042521582e+00 -1.9733920631135273e+01 +1.3851818057664295e+04 -1.7408469423388975e+05 -8.6916484050664455e+07 
+3.8499999999999943e+00 -5.7740197908345914e-01 +7.5850612347478332e+00 +4.7241223452252346e+00 -1.9822724553218045e+01 +1.3915865073347461e+04 -1.7217936564353618e+05 -8.7250540823162973e+07 
+3.8999999999999941e+00 -5.7742284892392126e-01 +7.5862265914170237e+00 +4.6959537726551517e+00 -1.9898550844112979e+01 +1.3981673707074844e+04 -1.7031576380911950e+05 -8.7594992393015951e+07 
+3.9499999999999940e+00 -5.7744405536332732e-01 +7.5874083215848751e+00 +4.6673794186196629e+00 -1.9960379809528803e+01 +1.4049288847561711e+04 -1.6849946310159218e+05 -8.7950248341202438e+07 
+3.9999999999999938e+00 -5.7746559681824783e-01 +7.5886062604616304e+00 +4.6384023167422725e+00 -2.0007191638678218e+01 +1.4118755344340609e+04 -1.6673603870557237e+05 -8.8316717997220576e+07 
+4.0499999999999936e+00 -5.7748747153399338e-01 +7.5898202435785302e+00 +4.6090279596978991e+00 -2.0038202814549461e+01 +1.4190061620511531e+04 -1.6502994719158049e+05 -8.8694468369260490e+07 
+4.0999999999999934e+00 -5.7750967707142797e-01 +7.5910500970173080e+00 +4.5792718563362111e+00 -2.0053562687791384e+01 +1.4262979265406193e+04 -1.6338126327069098e+05 -8.9082230996030450e+07 
+4.1499999999999932e+00 -5.7753221082047412e-01 +7.5922956418386383e+00 +4.5491521007425897e+00 -2.0053652900980389e+01 +1.4337227816673108e+04 -1.6178899582860424e+05 -8.9478411471450031e+07 
+4.1999999999999931e+00 -5.7755507017102914e-01 +7.5935566991058385e+00 +4.5186867817976832e+00 -2.0038855226152613e+01 +1.4412526951810027e+04 -1.6025215276076872e+05 -8.9881416314292163e+07 
+4.2499999999999929e+00 -5.7757825251303019e-01 +7.5948330898722922e+00 +4.4878939945552787e+00 -2.0009551029228426e+01 +1.4488596181599243e+04 -1.5876974526596104e+05 -9.0289650913099423e+07 
+4.2999999999999927e+00 -5.7760175523638968e-01 +7.5961246351998097e+00 +4.4567918290727340e+00 -1.9966122018547257e+01 +1.4565155150608844e+04 -1.5734078173600917e+05 -9.0701521556636155e+07 
+4.3499999999999925e+00 -5.7762557573104589e-01 +7.5974311561420524e+00 +4.4253983787449354e+00 -1.9908949560073435e+01 +1.4641923417142989e+04 -1.5596427338790294e+05 -9.1115433962609693e+07 
+4.3999999999999924e+00 -5.7764971138692167e-01 +7.5987524737554013e+00 +4.3937317336369048e+00 -1.9838415150857696e+01 +1.4718620627630758e+04 -1.5463923026959907e+05 -9.1529794435191929e+07 
+4.4499999999999922e+00 -5.7767415959396362e-01 +7.6000884090957834e+00 +4.3618099875289662e+00 -1.9754900262741192e+01 +1.4794966326504096e+04 -1.5336466265351631e+05 -9.1943008580562845e+07 
+4.4999999999999920e+00 -5.7769891774210969e-01 +7.6014387832150803e+00 +4.3296512313477509e+00 -1.9658786199879074e+01 +1.4870680143669202e+04 -1.5213958218185775e+05 -9.2353482614156961e+07 
+4.5499999999999918e+00 -5.7772398322131935e-01 +7.6028034171671663e+00 +4.2972735598149301e+00 -1.9550454365255284e+01 +1.4945481597198834e+04 -1.5096299961964396e+05 -9.2759621954656541e+07 
+4.5999999999999917e+00 -5.7774935342151756e-01 +7.6041821320024132e+00 +4.2646950609598866e+00 -1.9430286008388276e+01 +1.5019090391079350e+04 -1.4983392701822598e+05 -9.3159833298890516e+07 
+4.6499999999999915e+00 -5.7777502573267203e-01 +7.6055747487721872e+00 +4.2319338291029522e+00 -1.9298662430188930e+01 +1.5091226062010404e+04 -1.4875137595644689e+05 -9.3552522215043917e+07 
+4.6999999999999913e+00 -5.7780099754474501e-01 +7.6069810885228675e+00 +4.1990079579667459e+00 -1.9155964735554473e+01 +1.5161608158739107e+04 -1.4771435959619025e+05 -9.3936094339660913e+07 
+4.7499999999999911e+00 -5.7782726624768921e-01 +7.6084009723034161e+00 +4.1659355386343035e+00 -1.9002574135410235e+01 +1.5229956305922162e+04 -1.4672189021684727e+05 -9.4308955834864229e+07 
+4.7999999999999909e+00 -5.7785382923146267e-01 +7.6098342211607131e+00 +4.1327346626506394e+00 -1.8838871758863881e+01 +1.5295990116089321e+04 -1.4577298076865918e+05 -9.4669512779637218e+07 
+4.8499999999999908e+00 -5.7788068388603464e-01 +7.6112806561397992e+00 +4.0994234237531693e+00 -1.8665238681255275e+01 +1.5359429138980498e+04 -1.4486664454438622e+05 -9.5016170812753156e+07 
+4.8999999999999906e+00 -5.7790782760136039e-01 +7.6127400982828100e+00 +4.0660199122816554e+00 -1.8482055855785269e+01 +1.5419993020805250e+04 -1.4400189587223536e+05 -9.5347336238156706e+07 
+4.9499999999999904e+00 -5.7793525776742194e-01 +7.6142123686325824e+00 +4.0325422233776784e+00 -1.8289704265925980e+01 +1.5477401278308969e+04 -1.4317774881917046e+05 -9.5661414487027019e+07 
+4.9999999999999902e+00 -5.7796297177418610e-01 +7.6156972882291614e+00 +3.9990084489946822e+00 -1.8088564805067211e+01 +1.5531373515759095e+04 -1.4239321811297274e+05 -9.5956811578870058e+07 
+5.0499999999999901e+00 -5.7799096701161468e-01 +7.6171946781119262e+00 +3.9654366803464853e+00 -1.7879018333331825e+01 +1.5581629355694400e+04 -1.4164731878195648e+05 -9.6231933651322633e+07 
