# field on trajectory
# s[mm] rx[mm] ry[mm] rz[mm] bx[T] by[T] bz[T]
-0.0000000000000000e+00 +8.5270000000000206e+00 +0.0000000000000000e+00 -0.0000000000000000e+00 -3.0049880383806588e-02 -5.7764747208662504e-01 +5.7044503477920797e-03
-5.0000000000000003e-02 +8.5269999309457507e+00 +0.0000000000000000e+00 -4.9999999999936401e-02 -3.0050278605787999e-02 -5.7765476195063670e-01 +5.7037189311783610e-03
-1.0000000000000001e-01 +8.5269997237846802e+00 +0.0000000000000000e+00 -9.9999999999491399e-02 -3.0050696372229561e-02 -5.7766243452525345e-01 +5.7029928534512928e-03
-1.4999999999999999e-01 +8.5269993785186706e+00 +0.0000000000000000e+00 -1.4999999999828301e-01 -3.0051133532270707e-02 -5.7767048858663461e-01 +5.7022721388606005e-03
-2.0000000000000001e-01 +8.5269988951477007e+00 +0.0000000000000000e+00 -1.9999999999593099e-01 -3.0051589935052043e-02 -5.7767892291097167e-01 +5.7015568116565128e-03
-2.5000000000000000e-01 +8.5269982736681396e+00 +0.0000000000000000e+00 -2.4999999999205300e-01 -3.0052065429715932e-02 -5.7768773627450010e-01 +5.7008468960898818e-03
-2.9999999999999999e-01 +8.5269975140799907e+00 +0.0000000000000000e+00 -2.9999999998626697e-01 -3.0052559865403686e-02 -5.7769692745344570e-01 +5.7001424164116344e-03
-3.4999999999999998e-01 +8.5269966163905302e+00 +0.0000000000000000e+00 -3.4999999997819298e-01 -3.0053073091254011e-02 -5.7770649522399642e-01 +5.6994433968724769e-03
-4.0000000000000002e-01 +8.5269955805888493e+00 +0.0000000000000000e+00 -3.9999999996744801e-01 -3.0053604956413141e-02 -5.7771643836249442e-01 +5.6987498617248186e-03
-4.5000000000000001e-01 +8.5269944066858407e+00 +0.0000000000000000e+00 -4.4999999995365197e-01 -3.0054155310018881e-02 -5.7772675564513420e-01 +5.6980618352197292e-03
-5.0000000000000000e-01 +8.5269930946742498e+00 +0.0000000000000000e+00 -4.9999999993642202e-01 -3.0054724001216469e-02 -5.7773744584826336e-01 +5.6973793416099624e-03
-5.5000000000000004e-01 +8.5269916445577092e+00 +0.0000000000000000e+00 -5.4999999991537796e-01 -3.0055310879147049e-02 -5.7774850774816433e-01 +5.6967024051477397e-03
-5.9999999999999998e-01 +8.5269900563289394e+00 +0.0000000000000000e+00 -5.9999999989013697e-01 -3.0055915792956259e-02 -5.7775994012121834e-01 +5.6960310500864001e-03
-6.5000000000000002e-01 +8.5269883299988596e+00 +0.0000000000000000e+00 -6.4999999986031898e-01 -3.0056538591782599e-02 -5.7777174174368451e-01 +5.6953653006781785e-03
-6.9999999999999996e-01 +8.5269864655601904e+00 +0.0000000000000000e+00 -6.9999999982554195e-01 -3.0057179124771946e-02 -5.7778391139197571e-01 +5.6947051811769489e-03
-7.5000000000000000e-01 +8.5269844630165608e+00 +0.0000000000000000e+00 -7.4999999978542398e-01 -3.0057837241065956e-02 -5.7779644784243900e-01 +5.6940507158360250e-03
-8.0000000000000004e-01 +8.5269823223679904e+00 +0.0000000000000000e+00 -7.9999999973958402e-01 -3.0058512789807687e-02 -5.7780934987146326e-01 +5.6934019289092367e-03
-8.4999999999999998e-01 +8.5269800436108198e+00 +0.0000000000000000e+00 -8.4999999968764095e-01 -3.0059205620141766e-02 -5.7782261625548137e-01 +5.6927588446509325e-03
-9.0000000000000002e-01 +8.5269776267450705e+00 +0.0000000000000000e+00 -8.9999999962921295e-01 -3.0059915581211304e-02 -5.7783624577091330e-01 +5.6921214873154116e-03
-9.4999999999999996e-01 +8.5269750717743609e+00 +0.0000000000000000e+00 -9.4999999956391801e-01 -3.0060642522157951e-02 -5.7785023719416717e-01 +5.6914898811569140e-03
-1.0000000000000000e+00 +8.5269723786986997e+00 +0.0000000000000000e+00 -9.9999999949137597e-01 -3.0061386292124730e-02 -5.7786458930169282e-01 +5.6908640504301717e-03
-1.0500000000000000e+00 +8.5269695475144491e+00 +0.0000000000000000e+00 -1.0499999994111999e+00 -3.0062146740256011e-02 -5.7787930086998351e-01 +5.6902440193903779e-03
-1.1000000000000001e+00 +8.5269665782288904e+00 +0.0000000000000000e+00 -1.0999999993230201e+00 -3.0062923715691733e-02 -5.7789437067546356e-01 +5.6896298122921119e-03
-1.1499999999999999e+00 +8.5269634708311095e+00 +0.0000000000000000e+00 -1.1499999992264500e+00 -3.0063717067578891e-02 -5.7790979749471039e-01 +5.6890214533914830e-03
-1.2000000000000000e+00 +8.5269602253283701e+00 +0.0000000000000000e+00 -1.1999999991210999e+00 -3.0064526645057064e-02 -5.7792558010417683e-01 +5.6884189669434157e-03
-1.2500000000000000e+00 +8.5269568417206791e+00 +0.0000000000000000e+00 -1.2499999990065900e+00 -3.0065352297268529e-02 -5.7794171728038624e-01 +5.6878223772035379e-03
-1.3000000000000000e+00 +8.5269533200044005e+00 +0.0000000000000000e+00 -1.2999999988825499e+00 -3.0066193873356743e-02 -5.7795820779990292e-01 +5.6872317084279032e-03
-1.3500000000000001e+00 +8.5269496601795307e+00 +0.0000000000000000e+00 -1.3499999987485900e+00 -3.0067051222463503e-02 -5.7797505043927733e-01 +5.6866469848724380e-03
-1.3999999999999999e+00 +8.5269458622533403e+00 +0.0000000000000000e+00 -1.3999999986043401e+00 -3.0067924193727343e-02 -5.7799224397501858e-01 +5.6860682307926444e-03
-1.4500000000000000e+00 +8.5269419262185693e+00 +0.0000000000000000e+00 -1.4499999984494001e+00 -3.0068812636292307e-02 -5.7800978718375939e-01 +5.6854954704452483e-03
-1.5000000000000000e+00 +8.5269378520752106e+00 +0.0000000000000000e+00 -1.4999999982833900e+00 -3.0069716399299191e-02 -5.7802767884209116e-01 +5.6849287280865404e-03
-1.5500000000000000e+00 +8.5269336398268898e+00 +0.0000000000000000e+00 -1.5499999981059500e+00 -3.0070635331886926e-02 -5.7804591772659031e-01 +5.6843680279726446e-03
-1.6000000000000001e+00 +8.5269292894736299e+00 +0.0000000000000000e+00 -1.5999999979166799e+00 -3.0071569283195505e-02 -5.7806450261387365e-01 +5.6838133943600388e-03
-1.6499999999999999e+00 +8.5269248010117700e+00 +0.0000000000000000e+00 -1.6499999977152000e+00 -3.0072518102365928e-02 -5.7808343228059977e-01 +5.6832648515055808e-03
-1.7000000000000000e+00 +8.5269201744449692e+00 +0.0000000000000000e+00 -1.6999999975011300e+00 -3.0073481638535796e-02 -5.7810270550338327e-01 +5.6827224236656341e-03
-1.7500000000000000e+00 +8.5269154097695701e+00 +0.0000000000000000e+00 -1.7499999972740901e+00 -3.0074459740845157e-02 -5.7812232105890715e-01 +5.6821861350971883e-03
-1.8000000000000000e+00 +8.5269105069892195e+00 +0.0000000000000000e+00 -1.7999999970336999e+00 -3.0075452258430568e-02 -5.7814227772381110e-01 +5.6816560100567360e-03
-1.8500000000000001e+00 +8.5269054661039299e+00 +0.0000000000000000e+00 -1.8499999967795799e+00 -3.0076459040429531e-02 -5.7816257427477469e-01 +5.6811320728010874e-03
-1.8999999999999999e+00 +8.5269002871100401e+00 +0.0000000000000000e+00 -1.8999999965113501e+00 -3.0077479935980405e-02 -5.7818320948851842e-01 +5.6806143475873691e-03
-1.9500000000000000e+00 +8.5268949700112007e+00 +0.0000000000000000e+00 -1.9499999962286201e+00 -3.0078514794218008e-02 -5.7820418214171720e-01 +5.6801028586721805e-03
-2.0000000000000000e+00 +8.5268895148037700e+00 +0.0000000000000000e+00 -1.9999999959310100e+00 -3.0079563464279417e-02 -5.7822549101111465e-01 +5.6795976303126890e-03
-2.0499999999999998e+00 +8.5268839213858900e+00 +0.0000000000000000e+00 -2.0499999956181298e+00 -3.0080625814571122e-02 -5.7824713465771038e-01 +5.6790986872409461e-03
-2.1000000000000001e+00 +8.5268781896593300e+00 +0.0000000000000000e+00 -2.0999999952895898e+00 -3.0081701790421821e-02 -5.7826911077648691e-01 +5.6786060560588955e-03
-2.1499999999999999e+00 +8.5268723196240899e+00 +0.0000000000000000e+00 -2.1499999949449999e+00 -3.0082791356353226e-02 -5.7829141684518881e-01 +5.6781197638288835e-03
-2.2000000000000002e+00 +8.5268663112729008e+00 +0.0000000000000000e+00 -2.1999999945839801e+00 -3.0083894476891603e-02 -5.7831405034162675e-01 +5.6776398376140883e-03
-2.2500000000000000e+00 +8.5268601646093902e+00 +0.0000000000000000e+00 -2.2499999942061502e+00 -3.0085011116560558e-02 -5.7833700874353722e-01 +5.6771663044771787e-03
-2.2999999999999998e+00 +8.5268538796335598e+00 +0.0000000000000000e+00 -2.2999999938111202e+00 -3.0086141239886972e-02 -5.7836028952869289e-01 +5.6766991914813858e-03
-2.3500000000000001e+00 +8.5268474563490599e+00 +0.0000000000000000e+00 -2.3499999933985198e+00 -3.0087284811398191e-02 -5.7838389017484937e-01 +5.6762385256899960e-03
-2.3999999999999999e+00 +8.5268408947522403e+00 +0.0000000000000000e+00 -2.3999999929679601e+00 -3.0088441795626551e-02 -5.7840780815982540e-01 +5.6757843341671563e-03
-2.4500000000000002e+00 +8.5268341948467405e+00 +0.0000000000000000e+00 -2.4499999925190501e+00 -3.0089612157103516e-02 -5.7843204096139289e-01 +5.6753366439767977e-03
-2.5000000000000000e+00 +8.5268273566252901e+00 +0.0000000000000000e+00 -2.4999999920514302e+00 -3.0090795860367250e-02 -5.7845658605741512e-01 +5.6748954821840098e-03
-2.5499999999999998e+00 +8.5268203800987994e+00 +0.0000000000000000e+00 -2.5499999915646900e+00 -3.0091992869950887e-02 -5.7848144092562503e-01 +5.6744608758528530e-03
-2.6000000000000001e+00 +8.5268132652563509e+00 +0.0000000000000000e+00 -2.5999999910584699e+00 -3.0093203150398828e-02 -5.7850660304392965e-01 +5.6740328520493901e-03
-2.6499999999999999e+00 +8.5268060121015896e+00 +0.0000000000000000e+00 -2.6499999905323701e+00 -3.0094426666252127e-02 -5.7853206989013295e-01 +5.6736114378389451e-03
-2.7000000000000002e+00 +8.5267986206345103e+00 +0.0000000000000000e+00 -2.6999999899860101e+00 -3.0095663382055944e-02 -5.7855783894207291e-01 +5.6731966602874776e-03
-2.7500000000000000e+00 +8.5267910908551094e+00 +0.0000000000000000e+00 -2.7499999894190199e+00 -3.0096913262358253e-02 -5.7858390767759604e-01 +5.6727885464613326e-03
-2.7999999999999998e+00 +8.5267834227670392e+00 +0.0000000000000000e+00 -2.7999999888310101e+00 -3.0098176271708344e-02 -5.7861027357452643e-01 +5.6723871234269580e-03
-2.8500000000000001e+00 +8.5267756163666508e+00 +0.0000000000000000e+00 -2.8499999882215898e+00 -3.0099452374661436e-02 -5.7863693411075134e-01 +5.6719924182517412e-03
-2.8999999999999999e+00 +8.5267676716539391e+00 +0.0000000000000000e+00 -2.8999999875903901e+00 -3.0100741535774331e-02 -5.7866388676413638e-01 +5.6716044580031955e-03
-2.9500000000000002e+00 +8.5267595886289200e+00 +0.0000000000000000e+00 -2.9499999869370299e+00 -3.0102043719606984e-02 -5.7869112901255326e-01 +5.6712232697492398e-03
-3.0000000000000000e+00 +8.5267513672915793e+00 +0.0000000000000000e+00 -2.9999999862611100e+00 -3.0103358890722642e-02 -5.7871865833387925e-01 +5.6708488805582028e-03
-3.0499999999999998e+00 +8.5267430076455604e+00 +0.0000000000000000e+00 -3.0499999855622502e+00 -3.0104687013686439e-02 -5.7874647220596975e-01 +5.6704813174985715e-03
-3.1000000000000001e+00 +8.5267345096872305e+00 +0.0000000000000000e+00 -3.0999999848400801e+00 -3.0106028053069916e-02 -5.7877456810674111e-01 +5.6701206076397977e-03
-3.1499999999999999e+00 +8.5267258734165807e+00 +0.0000000000000000e+00 -3.1499999840942201e+00 -3.0107381973446729e-02 -5.7880294351408723e-01 +5.6697667780515031e-03
-3.2000000000000002e+00 +8.5267170988336094e+00 +0.0000000000000000e+00 -3.1999999833242700e+00 -3.0108748739394193e-02 -5.7883159590590672e-01 +5.6694198558037501e-03
-3.2500000000000000e+00 +8.5267081859419704e+00 +0.0000000000000000e+00 -3.2499999825298600e+00 -3.0110128315491969e-02 -5.7886052276007482e-01 +5.6690798679667883e-03
-3.2999999999999998e+00 +8.5266991347380099e+00 +0.0000000000000000e+00 -3.2999999817106000e+00 -3.0111520666326531e-02 -5.7888972155452734e-01 +5.6687468416118667e-03
-3.3500000000000001e+00 +8.5266899452181004e+00 +0.0000000000000000e+00 -3.3499999808661101e+00 -3.0112925756488308e-02 -5.7891918976720358e-01 +5.6684208038106998e-03
-3.3999999999999999e+00 +8.5266806173895002e+00 +0.0000000000000000e+00 -3.3999999799960099e+00 -3.0114343550567472e-02 -5.7894892487596450e-01 +5.6681017816346668e-03
-3.4500000000000002e+00 +8.5266711512522306e+00 +0.0000000000000000e+00 -3.4499999790999101e+00 -3.0115774013161307e-02 -5.7897892435872933e-01 +5.6677898021561734e-03
-3.5000000000000000e+00 +8.5266615468026394e+00 +0.0000000000000000e+00 -3.4999999781774398e+00 -3.0117217108872836e-02 -5.7900918569344917e-01 +5.6674848924483864e-03
-3.5499999999999998e+00 +8.5266518040407409e+00 +0.0000000000000000e+00 -3.5499999772282100e+00 -3.0118672802308025e-02 -5.7903970635804991e-01 +5.6671870795847006e-03
-3.6000000000000001e+00 +8.5266419229665207e+00 +0.0000000000000000e+00 -3.5999999762518402e+00 -3.0120141058077365e-02 -5.7907048383046156e-01 +5.6668963906390162e-03
-3.6499999999999999e+00 +8.5266319035799807e+00 +0.0000000000000000e+00 -3.6499999752479400e+00 -3.0121621840795924e-02 -5.7910151558861578e-01 +5.6666128526857472e-03
-3.6999999999999900e+00 +8.5266217458847695e+00 +0.0000000000000000e+00 -3.6999999742161398e+00 -3.0123115115082061e-02 -5.7913279911041937e-01 +5.6663364927995565e-03
-3.7499999999999898e+00 +8.5266114498736005e+00 +0.0000000000000000e+00 -3.7499999731560498e+00 -3.0124620845563291e-02 -5.7916433187386518e-01 +5.6660673380564608e-03
-3.7999999999999901e+00 +8.5266010155537497e+00 +0.0000000000000000e+00 -3.7999999720672801e+00 -3.0126138996866243e-02 -5.7919611135683646e-01 +5.6658054155319165e-03
-3.8499999999999899e+00 +8.5265904429179500e+00 +0.0000000000000000e+00 -3.8499999709494599e+00 -3.0127669533628353e-02 -5.7922813503732951e-01 +5.6655507523030177e-03
-3.8999999999999901e+00 +8.5265797319771099e+00 +0.0000000000000000e+00 -3.8999999698022001e+00 -3.0129212420484917e-02 -5.7926040039320315e-01 +5.6653033754460493e-03
-3.9499999999999900e+00 +8.5265688827203103e+00 +0.0000000000000000e+00 -3.9499999686251202e+00 -3.0130767622085240e-02 -5.7929290490248508e-01 +5.6650633120394938e-03
-3.9999999999999898e+00 +8.5265578951548395e+00 +0.0000000000000000e+00 -3.9999999674178399e+00 -3.0132335103076585e-02 -5.7932564604306369e-01 +5.6648305891610299e-03
-4.0499999999999901e+00 +8.5265467692734092e+00 +0.0000000000000000e+00 -4.0499999661799704e+00 -3.0133914805944687e-02 -5.7935862119665060e-01 +5.6646052288713165e-03
-4.0999999999999899e+00 +8.5265355050833005e+00 +0.0000000000000000e+00 -4.0999999649111301e+00 -3.0135506584480855e-02 -5.7939182735968697e-01 +5.6643872331555625e-03
-4.1499999999999897e+00 +8.5265241025808791e+00 +0.0000000000000000e+00 -4.1499999636109504e+00 -3.0137110270306508e-02 -5.7942526143240425e-01 +5.6641765989813618e-03
-4.1999999999999904e+00 +8.5265125617697795e+00 +0.0000000000000000e+00 -4.1999999622790298e+00 -3.0138725695038115e-02 -5.7945892031497803e-01 +5.6639733233160112e-03
-4.2499999999999902e+00 +8.5265008826427202e+00 +0.0000000000000000e+00 -4.2499999609149901e+00 -3.0140352690294338e-02 -5.7949280090766453e-01 +5.6637774031278757e-03
-4.2999999999999901e+00 +8.5264890652069898e+00 +0.0000000000000000e+00 -4.2999999595184599e+00 -3.0141991087685688e-02 -5.7952690011060670e-01 +5.6635888353844775e-03
-4.3499999999999899e+00 +8.5264771094589396e+00 +0.0000000000000000e+00 -4.3499999580890396e+00 -3.0143640718824659e-02 -5.7956121482402834e-01 +5.6634076170543959e-03
-4.3999999999999897e+00 +8.5264650153985695e+00 +0.0000000000000000e+00 -4.3999999566263703e+00 -3.0145301415319719e-02 -5.7959574194812180e-01 +5.6632337451061896e-03
-4.4499999999999904e+00 +8.5264527830295300e+00 +0.0000000000000000e+00 -4.4499999551300400e+00 -3.0146973008775158e-02 -5.7963047838304926e-01 +5.6630672165083737e-03
-4.4999999999999902e+00 +8.5264404123481707e+00 +0.0000000000000000e+00 -4.4999999535996897e+00 -3.0148655330795443e-02 -5.7966542102902496e-01 +5.6629080282302466e-03
-4.5499999999999901e+00 +8.5264279033544899e+00 +0.0000000000000000e+00 -4.5499999520349199e+00 -3.0150348212980630e-02 -5.7970056678623072e-01 +5.6627561772410713e-03
-4.5999999999999899e+00 +8.5264152560448601e+00 +0.0000000000000000e+00 -4.5999999504353601e+00 -3.0152051486929135e-02 -5.7973591255487278e-01 +5.6626116605106094e-03
-4.6499999999999897e+00 +8.5264024704301793e+00 +0.0000000000000000e+00 -4.6499999488006196e+00 -3.0153764984230409e-02 -5.7977145523504159e-01 +5.6624744750077742e-03
-4.6999999999999904e+00 +8.5263895464995603e+00 +0.0000000000000000e+00 -4.6999999471303298e+00 -3.0155488536479324e-02 -5.7980719172698936e-01 +5.6623446177033188e-03
-4.7499999999999902e+00 +8.5263764842602505e+00 +0.0000000000000000e+00 -4.7499999454240900e+00 -3.0157221975259996e-02 -5.7984311893082441e-01 +5.6622220855668797e-03
-4.7999999999999901e+00 +8.5263632837050007e+00 +0.0000000000000000e+00 -4.7999999436815299e+00 -3.0158965132158877e-02 -5.7987923374676198e-01 +5.6621068755693888e-03
-4.8499999999999899e+00 +8.5263499448447000e+00 +0.0000000000000000e+00 -4.8499999419022597e+00 -3.0160717838751374e-02 -5.7991553307487087e-01 +5.6619989846806501e-03
-4.8999999999999897e+00 +8.5263364676684397e+00 +0.0000000000000000e+00 -4.8999999400859000e+00 -3.0162479926617872e-02 -5.7995201381538242e-01 +5.6618984098722996e-03
-4.9499999999999904e+00 +8.5263228521798702e+00 +0.0000000000000000e+00 -4.9499999382320699e+00 -3.0164251227328957e-02 -5.7998867286840949e-01 +5.6618051481151059e-03
-4.9999999999999902e+00 +8.5263090983826295e+00 +0.0000000000000000e+00 -4.9999999363403900e+00 -3.0166031572451173e-02 -5.8002550713405954e-01 +5.6617191963800597e-03
-5.0499999999999901e+00 +8.5262952059529198e+00 +0.0000000000000000e+00 -5.0499999344103799e+00 -3.0167820793678791e-02 -5.8006251351494942e-01 +5.6616405516626842e-03
-5.0999999999999899e+00 +8.5262811745706095e+00 +0.0000000000000000e+00 -5.0999999324415599e+00 -3.0169618722700454e-02 -5.8009968891366503e-01 +5.6615692109584434e-03
-5.1499999999999897e+00 +8.5262670042357094e+00 +0.0000000000000000e+00 -5.1499999304335597e+00 -3.0171425191071428e-02 -5.8013703023032270e-01 +5.6615051712392058e-03
-5.1999999999999904e+00 +8.5262526949518396e+00 +0.0000000000000000e+00 -5.1999999283859903e+00 -3.0173240030340949e-02 -5.8017453436500410e-01 +5.6614484294767835e-03
-5.2499999999999902e+00 +8.5262382467153692e+00 +0.0000000000000000e+00 -5.2499999262984600e+00 -3.0175063072056481e-02 -5.8021219821783854e-01 +5.6613989826437188e-03
-5.2999999999999901e+00 +8.5262236595299292e+00 +0.0000000000000000e+00 -5.2999999241705797e+00 -3.0176894147757725e-02 -5.8025001868889092e-01 +5.6613568277122132e-03
-5.3499999999999899e+00 +8.5262089333882596e+00 +0.0000000000000000e+00 -5.3499999220019703e+00 -3.0178733088983872e-02 -5.8028799267830233e-01 +5.6613219616554805e-03
-5.3999999999999897e+00 +8.5261940682976292e+00 +0.0000000000000000e+00 -5.3999999197922497e+00 -3.0180579727263113e-02 -5.8032611708609239e-01 +5.6612943814458340e-03
-5.4499999999999904e+00 +8.5261790642507496e+00 +0.0000000000000000e+00 -5.4499999175410201e+00 -3.0182433894124359e-02 -5.8036438881238350e-01 +5.6612740840568717e-03
-5.4999999999999902e+00 +8.5261639212585596e+00 +0.0000000000000000e+00 -5.4999999152479004e+00 -3.0184295421083824e-02 -5.8040280475714889e-01 +5.6612610664610137e-03
-5.5499999999999901e+00 +8.5261486393137602e+00 +0.0000000000000000e+00 -5.5499999129125097e+00 -3.0186164139659633e-02 -5.8044136182049277e-01 +5.6612553256322300e-03
-5.5999999999999899e+00 +8.5261332184127205e+00 +0.0000000000000000e+00 -5.5999999105344500e+00 -3.0188039881362844e-02 -5.8048005690248050e-01 +5.6612568585443926e-03
-5.6499999999999897e+00 +8.5261176585627307e+00 +0.0000000000000000e+00 -5.6499999081133403e+00 -3.0189922477694378e-02 -5.8051888690308251e-01 +5.6612656621707440e-03
-5.6999999999999904e+00 +8.5261019597637606e+00 +0.0000000000000000e+00 -5.6999999056488004e+00 -3.0191811760152336e-02 -5.8055784872231608e-01 +5.6612817334852523e-03
-5.7499999999999902e+00 +8.5260861220122006e+00 +0.0000000000000000e+00 -5.7499999031404396e+00 -3.0193707560230244e-02 -5.8059693926021505e-01 +5.6613050694623163e-03
-5.7999999999999901e+00 +8.5260701453080401e+00 +0.0000000000000000e+00 -5.7999999005878804e+00 -3.0195609709414123e-02 -5.8063615541677394e-01 +5.6613356670762527e-03
-5.8499999999999899e+00 +8.5260540296512808e+00 +0.0000000000000000e+00 -5.8499998979907204e+00 -3.0197518039183760e-02 -5.8067549409197583e-01 +5.6613735233015322e-03
