# trajectory
# s[mm] rx[mm] ry[mm] rz[mm] px[rad] py[rad] pz[rad]
0.0000000000000000e+00 +8.3650000000000002e+00 +0.0000000000000000e+00 +0.0000000000000000e+00 +0.0000000000000000e+00 +0.0000000000000000e+00 +1.0000000000000000e+00
-5.0000000000000003e-02 +8.3649999309874694e+00 +0.0000000000000000e+00 -4.9999999999936498e-02 +2.7605000023702096e-06 +0.0000000000000000e+00 +9.9999999999618983e-01
-1.0000000000000001e-01 +8.3649997239501026e+00 +0.0000000000000000e+00 -9.9999999999491981e-02 +5.5209937591077274e-06 +0.0000000000000000e+00 +9.9999999998475930e-01
-1.5000000000000002e-01 +8.3649993788881645e+00 +0.0000000000000000e+00 -1.4999999999828542e-01 +8.2814831962725895e-06 +0.0000000000000000e+00 +9.9999999996570854e-01
-2.0000000000000001e-01 +8.3649988958018220e+00 +0.0000000000000000e+00 -1.9999999999593582e-01 +1.1041970236174232e-05 +0.0000000000000000e+00 +9.9999999993903743e-01
-2.5000000000000000e-01 +8.3649982746911480e+00 +0.0000000000000000e+00 -2.4999999999206216e-01 +1.3802456797371582e-05 +0.0000000000000000e+00 +9.9999999990474608e-01
-2.9999999999999999e-01 +8.3649975155561176e+00 +0.0000000000000000e+00 -2.9999999998628341e-01 +1.6562944794673139e-05 +0.0000000000000000e+00 +9.9999999986283439e-01
-3.4999999999999998e-01 +8.3649966183966118e+00 +0.0000000000000000e+00 -3.4999999997821857e-01 +1.9323436139137071e-05 +0.0000000000000000e+00 +9.9999999981330234e-01
-3.9999999999999997e-01 +8.3649955832124157e+00 +0.0000000000000000e+00 -3.9999999996748664e-01 +2.2083932738071298e-05 +0.0000000000000000e+00 +9.9999999975614984e-01
-4.4999999999999996e-01 +8.3649944100032183e+00 +0.0000000000000000e+00 -4.4999999995370654e-01 +2.4844436495033570e-05 +0.0000000000000000e+00 +9.9999999969137687e-01
-4.9999999999999994e-01 +8.3649930987686147e+00 +0.0000000000000000e+00 -4.9999999993649730e-01 +2.7604949309831568e-05 +0.0000000000000000e+00 +9.9999999961898323e-01
-5.4999999999999993e-01 +8.3649916495081040e+00 +0.0000000000000000e+00 -5.4999999991547788e-01 +3.0365473078522978e-05 +0.0000000000000000e+00 +9.9999999953896890e-01
-5.9999999999999998e-01 +8.3649900622210929e+00 +0.0000000000000000e+00 -5.9999999989026720e-01 +3.3126009693415579e-05 +0.0000000000000000e+00 +9.9999999945133367e-01
-6.5000000000000002e-01 +8.3649883369068903e+00 +0.0000000000000000e+00 -6.4999999986048418e-01 +3.5886561043067325e-05 +0.0000000000000000e+00 +9.9999999935607731e-01
-7.0000000000000007e-01 +8.3649864735647128e+00 +0.0000000000000000e+00 -6.9999999982574790e-01 +3.8647129012286434e-05 +0.0000000000000000e+00 +9.9999999925319960e-01
-7.5000000000000011e-01 +8.3649844721936812e+00 +0.0000000000000000e+00 -7.4999999978567711e-01 +4.1407715482131460e-05 +0.0000000000000000e+00 +9.9999999914270044e-01
-8.0000000000000016e-01 +8.3649823327928239e+00 +0.0000000000000000e+00 -7.9999999973989089e-01 +4.4168322329911387e-05 +0.0000000000000000e+00 +9.9999999902457959e-01
-8.5000000000000020e-01 +8.3649800553610767e+00 +0.0000000000000000e+00 -8.4999999968800810e-01 +4.6928951429185696e-05 +0.0000000000000000e+00 +9.9999999889883673e-01
-9.0000000000000024e-01 +8.3649776398972797e+00 +0.0000000000000000e+00 -8.9999999962964761e-01 +4.9689604649764466e-05 +0.0000000000000000e+00 +9.9999999876547152e-01
-9.5000000000000029e-01 +8.3649750864001788e+00 +0.0000000000000000e+00 -9.4999999956442827e-01 +5.2450283857708437e-05 +0.0000000000000000e+00 +9.9999999862448374e-01
-1.0000000000000002e+00 +8.3649723948684294e+00 +0.0000000000000000e+00 -9.9999999949196894e-01 +5.5210990915329088e-05 +0.0000000000000000e+00 +9.9999999847587318e-01
-1.0500000000000003e+00 +8.3649695653005924e+00 +0.0000000000000000e+00 -1.0499999994118885e+00 +5.7971727681188734e-05 +0.0000000000000000e+00 +9.9999999831963937e-01
-1.1000000000000003e+00 +8.3649665976951351e+00 +0.0000000000000000e+00 -1.0999999993238059e+00 +6.0732496010100594e-05 +0.0000000000000000e+00 +9.9999999815578189e-01
-1.1500000000000004e+00 +8.3649634920504337e+00 +0.0000000000000000e+00 -1.1499999992273398e+00 +6.3493297753128858e-05 +0.0000000000000000e+00 +9.9999999798430050e-01
-1.2000000000000004e+00 +8.3649602483647723e+00 +0.0000000000000000e+00 -1.1999999991221089e+00 +6.6254134757588775e-05 +0.0000000000000000e+00 +9.9999999780519477e-01
-1.2500000000000004e+00 +8.3649568666363407e+00 +0.0000000000000000e+00 -1.2499999990077322e+00 +6.9015008867046748e-05 +0.0000000000000000e+00 +9.9999999761846425e-01
-1.3000000000000005e+00 +8.3649533468632367e+00 +0.0000000000000000e+00 -1.2999999988838282e+00 +7.1775921921320368e-05 +0.0000000000000000e+00 +9.9999999742410850e-01
-1.3500000000000005e+00 +8.3649496890434687e+00 +0.0000000000000000e+00 -1.3499999987500160e+00 +7.4536875756478518e-05 +0.0000000000000000e+00 +9.9999999722212707e-01
-1.4000000000000006e+00 +8.3649458931749514e+00 +0.0000000000000000e+00 -1.3999999986059140e+00 +7.7297872204841448e-05 +0.0000000000000000e+00 +9.9999999701251951e-01
-1.4500000000000006e+00 +8.3649419592555088e+00 +0.0000000000000000e+00 -1.4499999984511409e+00 +8.0058913094980836e-05 +0.0000000000000000e+00 +9.9999999679528528e-01
-1.5000000000000007e+00 +8.3649378872828724e+00 +0.0000000000000000e+00 -1.4999999982853154e+00 +8.2820000251719879e-05 +0.0000000000000000e+00 +9.9999999657042382e-01
-1.5500000000000007e+00 +8.3649336772546832e+00 +0.0000000000000000e+00 -1.5499999981080561e+00 +8.5581135496133349e-05 +0.0000000000000000e+00 +9.9999999633793468e-01
-1.6000000000000008e+00 +8.3649293291684916e+00 +0.0000000000000000e+00 -1.5999999979189816e+00 +8.8342320645547659e-05 +0.0000000000000000e+00 +9.9999999609781720e-01
-1.6500000000000008e+00 +8.3649248430217575e+00 +0.0000000000000000e+00 -1.6499999977177107e+00 +9.1103557513540960e-05 +0.0000000000000000e+00 +9.9999999585007093e-01
-1.7000000000000008e+00 +8.3649202188118483e+00 +0.0000000000000000e+00 -1.6999999975038615e+00 +9.3864847909943207e-05 +0.0000000000000000e+00 +9.9999999559469521e-01
-1.7500000000000009e+00 +8.3649154565360444e+00 +0.0000000000000000e+00 -1.7499999972770530e+00 +9.6626193640836214e-05 +0.0000000000000000e+00 +9.9999999533168937e-01
-1.8000000000000009e+00 +8.3649105561915320e+00 +0.0000000000000000e+00 -1.7999999970369034e+00 +9.9387596508553722e-05 +0.0000000000000000e+00 +9.9999999506105286e-01
-1.8500000000000010e+00 +8.3649055177754104e+00 +0.0000000000000000e+00 -1.8499999967830312e+00 +1.0214905831168149e-04 +0.0000000000000000e+00 +9.9999999478278501e-01
-1.9000000000000010e+00 +8.3649003412846881e+00 +0.0000000000000000e+00 -1.8999999965150547e+00 +1.0491058084505735e-04 +0.0000000000000000e+00 +9.9999999449688504e-01
-1.9500000000000011e+00 +8.3648950267162832e+00 +0.0000000000000000e+00 -1.9499999962325925e+00 +1.0767216589977126e-04 +0.0000000000000000e+00 +9.9999999420335239e-01
-2.0000000000000009e+00 +8.3648895740670266e+00 +0.0000000000000000e+00 -1.9999999959352628e+00 +1.1043381526316543e-04 +0.0000000000000000e+00 +9.9999999390218630e-01
-2.0500000000000007e+00 +8.3648839833336570e+00 +0.0000000000000000e+00 -2.0499999956226840e+00 +1.1319553071852942e-04 +0.0000000000000000e+00 +9.9999999359338598e-01
-2.1000000000000005e+00 +8.3648782545128242e+00 +0.0000000000000000e+00 -2.0999999952944743e+00 +1.1595731404174670e-04 +0.0000000000000000e+00 +9.9999999327695077e-01
-2.1500000000000004e+00 +8.3648723876010926e+00 +0.0000000000000000e+00 -2.1499999949502517e+00 +1.1871916699794106e-04 +0.0000000000000000e+00 +9.9999999295287978e-01
-2.2000000000000002e+00 +8.3648663825949345e+00 +0.0000000000000000e+00 -2.1999999945896347e+00 +1.2148109134117181e-04 +0.0000000000000000e+00 +9.9999999262117234e-01
-2.2500000000000000e+00 +8.3648602394907385e+00 +0.0000000000000000e+00 -2.2499999942122413e+00 +1.2424308881443384e-04 +0.0000000000000000e+00 +9.9999999228182757e-01
-2.2999999999999998e+00 +8.3648539582848045e+00 +0.0000000000000000e+00 -2.2999999938176900e+00 +1.2700516114965771e-04 +0.0000000000000000e+00 +9.9999999193484468e-01
-2.3499999999999996e+00 +8.3648475389733470e+00 +0.0000000000000000e+00 -2.3499999934055986e+00 +1.2976731006770963e-04 +0.0000000000000000e+00 +9.9999999158022279e-01
-2.3999999999999995e+00 +8.3648409815524936e+00 +0.0000000000000000e+00 -2.3999999929755851e+00 +1.3252953727839161e-04 +0.0000000000000000e+00 +9.9999999121796102e-01
-2.4499999999999993e+00 +8.3648342860182865e+00 +0.0000000000000000e+00 -2.4499999925272675e+00 +1.3529184448044144e-04 +0.0000000000000000e+00 +9.9999999084805857e-01
-2.4999999999999991e+00 +8.3648274523666846e+00 +0.0000000000000000e+00 -2.4999999920602636e+00 +1.3805423336153282e-04 +0.0000000000000000e+00 +9.9999999047051447e-01
-2.5499999999999989e+00 +8.3648204805935613e+00 +0.0000000000000000e+00 -2.5499999915741913e+00 +1.4081670559827533e-04 +0.0000000000000000e+00 +9.9999999008532781e-01
-2.5999999999999988e+00 +8.3648133706947085e+00 +0.0000000000000000e+00 -2.5999999910686689e+00 +1.4357926285621451e-04 +0.0000000000000000e+00 +9.9999998969249770e-01
-2.6499999999999986e+00 +8.3648061226658328e+00 +0.0000000000000000e+00 -2.6499999905433138e+00 +1.4634190678983202e-04 +0.0000000000000000e+00 +9.9999998929202327e-01
-2.6999999999999984e+00 +8.3647987365025589e+00 +0.0000000000000000e+00 -2.6999999899977438e+00 +1.4910463904254555e-04 +0.0000000000000000e+00 +9.9999998888390340e-01
-2.7499999999999982e+00 +8.3647912122004300e+00 +0.0000000000000000e+00 -2.7499999894315765e+00 +1.5186746124670891e-04 +0.0000000000000000e+00 +9.9999998846813720e-01
-2.7999999999999980e+00 +8.3647835497549075e+00 +0.0000000000000000e+00 -2.7999999888444300e+00 +1.5463037502361210e-04 +0.0000000000000000e+00 +9.9999998804472368e-01
-2.8499999999999979e+00 +8.3647757491613746e+00 +0.0000000000000000e+00 -2.8499999882359215e+00 +1.5739338198348139e-04 +0.0000000000000000e+00 +9.9999998761366171e-01
-2.8999999999999977e+00 +8.3647678104151293e+00 +0.0000000000000000e+00 -2.8999999876056686e+00 +1.6015648372547930e-04 +0.0000000000000000e+00 +9.9999998717495042e-01
-2.9499999999999975e+00 +8.3647597335113950e+00 +0.0000000000000000e+00 -2.9499999869532889e+00 +1.6291968183770468e-04 +0.0000000000000000e+00 +9.9999998672858870e-01
-2.9999999999999973e+00 +8.3647515184453134e+00 +0.0000000000000000e+00 -2.9999999862783997e+00 +1.6568297789719278e-04 +0.0000000000000000e+00 +9.9999998627457543e-01
-3.0499999999999972e+00 +8.3647431652119479e+00 +0.0000000000000000e+00 -3.0499999855806186e+00 +1.6844637346991528e-04 +0.0000000000000000e+00 +9.9999998581290961e-01
-3.0999999999999970e+00 +8.3647346738062822e+00 +0.0000000000000000e+00 -3.0999999848595632e+00 +1.7120987011078029e-04 +0.0000000000000000e+00 +9.9999998534359014e-01
-3.1499999999999968e+00 +8.3647260442232270e+00 +0.0000000000000000e+00 -3.1499999841148503e+00 +1.7397346936363250e-04 +0.0000000000000000e+00 +9.9999998486661590e-01
-3.1999999999999966e+00 +8.3647172764576112e+00 +0.0000000000000000e+00 -3.1999999833460970e+00 +1.7673717276125311e-04 +0.0000000000000000e+00 +9.9999998438198578e-01
-3.2499999999999964e+00 +8.3647083705041894e+00 +0.0000000000000000e+00 -3.2499999825529211e+00 +1.7950098182535992e-04 +0.0000000000000000e+00 +9.9999998388969868e-01
-3.2999999999999963e+00 +8.3646993263576412e+00 +0.0000000000000000e+00 -3.2999999817349392e+00 +1.8226489806660742e-04 +0.0000000000000000e+00 +9.9999998338975338e-01
-3.3499999999999961e+00 +8.3646901440125703e+00 +0.0000000000000000e+00 -3.3499999808917686e+00 +1.8502892298458674e-04 +0.0000000000000000e+00 +9.9999998288214875e-01
-3.3999999999999959e+00 +8.3646808234635053e+00 +0.0000000000000000e+00 -3.3999999800230265e+00 +1.8779305806782573e-04 +0.0000000000000000e+00 +9.9999998236688359e-01
-3.4499999999999957e+00 +8.3646713647049022e+00 +0.0000000000000000e+00 -3.4499999791283296e+00 +1.9055730479378906e-04 +0.0000000000000000e+00 +9.9999998184395666e-01
-3.4999999999999956e+00 +8.3646617677311408e+00 +0.0000000000000000e+00 -3.4999999782072946e+00 +1.9332166462887815e-04 +0.0000000000000000e+00 +9.9999998131336687e-01
-3.5499999999999954e+00 +8.3646520325365294e+00 +0.0000000000000000e+00 -3.5499999772595383e+00 +1.9608613902843128e-04 +0.0000000000000000e+00 +9.9999998077511287e-01
-3.5999999999999952e+00 +8.3646421591153040e+00 +0.0000000000000000e+00 -3.5999999762846779e+00 +1.9885072943672362e-04 +0.0000000000000000e+00 +9.9999998022919356e-01
-3.6499999999999950e+00 +8.3646321474616290e+00 +0.0000000000000000e+00 -3.6499999752823298e+00 +2.0161543728696726e-04 +0.0000000000000000e+00 +9.9999997967560761e-01
-3.6999999999999948e+00 +8.3646219975695946e+00 +0.0000000000000000e+00 -3.6999999742521106e+00 +2.0438026400131120e-04 +0.0000000000000000e+00 +9.9999997911435368e-01
-3.7499999999999947e+00 +8.3646117094332233e+00 +0.0000000000000000e+00 -3.7499999731936371e+00 +2.0714521099084147e-04 +0.0000000000000000e+00 +9.9999997854543066e-01
-3.7999999999999945e+00 +8.3646012830464667e+00 +0.0000000000000000e+00 -3.7999999721065256e+00 +2.0991027965558108e-04 +0.0000000000000000e+00 +9.9999997796883711e-01
-3.8499999999999943e+00 +8.3645907184032069e+00 +0.0000000000000000e+00 -3.8499999709903929e+00 +2.1267547138449012e-04 +0.0000000000000000e+00 +9.9999997738457180e-01
-3.8999999999999941e+00 +8.3645800154972552e+00 +0.0000000000000000e+00 -3.8999999698448549e+00 +2.1544078755546573e-04 +0.0000000000000000e+00 +9.9999997679263342e-01
-3.9499999999999940e+00 +8.3645691743223551e+00 +0.0000000000000000e+00 -3.9499999686695282e+00 +2.1820622953534221e-04 +0.0000000000000000e+00 +9.9999997619302061e-01
-3.9999999999999938e+00 +8.3645581948721830e+00 +0.0000000000000000e+00 -3.9999999674640292e+00 +2.2097179867989095e-04 +0.0000000000000000e+00 +9.9999997558573195e-01
-4.0499999999999936e+00 +8.3645470771403456e+00 +0.0000000000000000e+00 -4.0499999662279738e+00 +2.2373749633372271e-04 +0.0000000000000000e+00 +9.9999997497076620e-01
-4.0999999999999934e+00 +8.3645358211203860e+00 +0.0000000000000000e+00 -4.0999999649609782e+00 +2.2650332382921138e-04 +0.0000000000000000e+00 +9.9999997434812193e-01
-4.1499999999999932e+00 +8.3645244268057777e+00 +0.0000000000000000e+00 -4.1499999636626583e+00 +2.2926928248541775e-04 +0.0000000000000000e+00 +9.9999997371779781e-01
-4.1999999999999931e+00 +8.3645128941899305e+00 +0.0000000000000000e+00 -4.1999999623326305e+00 +2.3203537360799167e-04 +0.0000000000000000e+00 +9.9999997307979238e-01
-4.2499999999999929e+00 +8.3645012232661884e+00 +0.0000000000000000e+00 -4.2499999609705101e+00 +2.3480159848917212e-04 +0.0000000000000000e+00 +9.9999997243410432e-01
-4.2999999999999927e+00 +8.3644894140278314e+00 +0.0000000000000000e+00 -4.2999999595759126e+00 +2.3756795840778721e-04 +0.0000000000000000e+00 +9.9999997178073219e-01
-4.3499999999999925e+00 +8.3644774664680757e+00 +0.0000000000000000e+00 -4.3499999581484552e+00 +2.4033445462925409e-04 +0.0000000000000000e+00 +9.9999997111967454e-01
-4.3999999999999924e+00 +8.3644653805800750e+00 +0.0000000000000000e+00 -4.3999999566877523e+00 +2.4310108840557910e-04 +0.0000000000000000e+00 +9.9999997045092992e-01
-4.4499999999999922e+00 +8.3644531563569213e+00 +0.0000000000000000e+00 -4.4499999551934204e+00 +2.4586786097535767e-04 +0.0000000000000000e+00 +9.9999996977449701e-01
-4.4999999999999920e+00 +8.3644407937916441e+00 +0.0000000000000000e+00 -4.4999999536650739e+00 +2.4863477356377442e-04 +0.0000000000000000e+00 +9.9999996909037425e-01
-4.5499999999999918e+00 +8.3644282928772107e+00 +0.0000000000000000e+00 -4.5499999521023291e+00 +2.5140182738260302e-04 +0.0000000000000000e+00 +9.9999996839856009e-01
-4.5999999999999917e+00 +8.3644156536065317e+00 +0.0000000000000000e+00 -4.5999999505048015e+00 +2.5416902363020635e-04 +0.0000000000000000e+00 +9.9999996769905319e-01
-4.6499999999999915e+00 +8.3644028759724538e+00 +0.0000000000000000e+00 -4.6499999488721064e+00 +2.5693636349153638e-04 +0.0000000000000000e+00 +9.9999996699185201e-01
-4.6999999999999913e+00 +8.3643899599677685e+00 +0.0000000000000000e+00 -4.6999999472038585e+00 +2.5970384813813429e-04 +0.0000000000000000e+00 +9.9999996627695509e-01
-4.7499999999999911e+00 +8.3643769055852069e+00 +0.0000000000000000e+00 -4.7499999454996731e+00 +2.6247147872813029e-04 +0.0000000000000000e+00 +9.9999996555436088e-01
-4.7999999999999909e+00 +8.3643637128174433e+00 +0.0000000000000000e+00 -4.7999999437591656e+00 +2.6523925640624380e-04 +0.0000000000000000e+00 +9.9999996482406783e-01
-4.8499999999999908e+00 +8.3643503816570952e+00 +0.0000000000000000e+00 -4.8499999419819515e+00 +2.6800718230378335e-04 +0.0000000000000000e+00 +9.9999996408607450e-01
-4.8999999999999906e+00 +8.3643369120967233e+00 +0.0000000000000000e+00 -4.8999999401676453e+00 +2.7077525753864661e-04 +0.0000000000000000e+00 +9.9999996334037933e-01
-4.9499999999999904e+00 +8.3643233041288330e+00 +0.0000000000000000e+00 -4.9499999383158615e+00 +2.7354348321532036e-04 +0.0000000000000000e+00 +9.9999996258698076e-01
-4.9999999999999902e+00 +8.3643095577458748e+00 +0.0000000000000000e+00 -4.9999999364262147e+00 +2.7631186042488044e-04 +0.0000000000000000e+00 +9.9999996182587725e-01
-5.0499999999999901e+00 +8.3642956729402460e+00 +0.0000000000000000e+00 -5.0499999344983202e+00 +2.7908039024499183e-04 +0.0000000000000000e+00 +9.9999996105706723e-01
-5.0999999999999899e+00 +8.3642816497042887e+00 +0.0000000000000000e+00 -5.0999999325317926e+00 +2.8184907373990863e-04 +0.0000000000000000e+00 +9.9999996028054916e-01
-5.1499999999999897e+00 +8.3642674880302934e+00 +0.0000000000000000e+00 -5.1499999305262465e+00 +2.8461791196047402e-04 +0.0000000000000000e+00 +9.9999995949632137e-01
-5.1999999999999895e+00 +8.3642531879104975e+00 +0.0000000000000000e+00 -5.1999999284812963e+00 +2.8738690594412011e-04 +0.0000000000000000e+00 +9.9999995870438241e-01
-5.2499999999999893e+00 +8.3642387493370869e+00 +0.0000000000000000e+00 -5.2499999263965567e+00 +2.9015605671486823e-04 +0.0000000000000000e+00 +9.9999995790473062e-01
-5.2999999999999892e+00 +8.3642241723021957e+00 +0.0000000000000000e+00 -5.2999999242716411e+00 +2.9292536528332863e-04 +0.0000000000000000e+00 +9.9999995709736444e-01
-5.3499999999999890e+00 +8.3642094567979104e+00 +0.0000000000000000e+00 -5.3499999221061643e+00 +2.9569483264670066e-04 +0.0000000000000000e+00 +9.9999995628228222e-01
-5.3999999999999888e+00 +8.3641946028162675e+00 +0.0000000000000000e+00 -5.3999999198997406e+00 +2.9846445978877256e-04 +0.0000000000000000e+00 +9.9999995545948228e-01
-5.4499999999999886e+00 +8.3641796103492521e+00 +0.0000000000000000e+00 -5.4499999176519838e+00 +3.0123424767992165e-04 +0.0000000000000000e+00 +9.9999995462896318e-01
-5.4999999999999885e+00 +8.3641644793888030e+00 +0.0000000000000000e+00 -5.4999999153625083e+00 +3.0400419727711416e-04 +0.0000000000000000e+00 +9.9999995379072315e-01
-5.5499999999999883e+00 +8.3641492099268131e+00 +0.0000000000000000e+00 -5.5499999130309279e+00 +3.0677430952390526e-04 +0.0000000000000000e+00 +9.9999995294476063e-01
-5.5999999999999881e+00 +8.3641338019551252e+00 +0.0000000000000000e+00 -5.5999999106568561e+00 +3.0954458535043899e-04 +0.0000000000000000e+00 +9.9999995209107395e-01
-5.6499999999999879e+00 +8.3641182554655362e+00 +0.0000000000000000e+00 -5.6499999082399066e+00 +3.1231502567344831e-04 +0.0000000000000000e+00 +9.9999995122966145e-01
-5.6999999999999877e+00 +8.3641025704498002e+00 +0.0000000000000000e+00 -5.6999999057796931e+00 +3.1508563139625505e-04 +0.0000000000000000e+00 +9.9999995036052147e-01
-5.7499999999999876e+00 +8.3640867468996252e+00 +0.0000000000000000e+00 -5.7499999032758300e+00 +3.1785640340876986e-04 +0.0000000000000000e+00 +9.9999994948365234e-01
-5.7999999999999874e+00 +8.3640707848066729e+00 +0.0000000000000000e+00 -5.7999999007279301e+00 +3.2062734258749221e-04 +0.0000000000000000e+00 +9.9999994859905250e-01
-5.8499999999999872e+00 +8.3640546841625660e+00 +0.0000000000000000e+00 -5.8499998981356063e+00 +3.2339844979551027e-04 +0.0000000000000000e+00 +9.9999994770672018e-01
