# field on trajectory
# s[mm] rx[mm] ry[mm] rz[mm] bx[T] by[T] bz[T]
0.0000000000000000e+00 +8.5270000000000206e+00 +0.0000000000000000e+00 +0.0000000000000000e+00 -3.0221454101873376e-02 -5.7765502150730008e-01 +5.9542173220958885e-03
5.0000000000000003e-02 +8.5269999309457507e+00 +0.0000000000000000e+00 +4.9999999999936401e-02 -3.0221165041325559e-02 -5.7765525441949839e-01 +5.9537382155821139e-03
1.0000000000000001e-01 +8.5269997237846802e+00 +0.0000000000000000e+00 +9.9999999999491399e-02 -3.0220901302677336e-02 -5.7765589689862085e-01 +5.9532593060680761e-03
1.4999999999999999e-01 +8.5269993785186706e+00 +0.0000000000000000e+00 +1.4999999999828301e-01 -3.0220662733454171e-02 -5.7765694802805656e-01 +5.9527806438437782e-03
2.0000000000000001e-01 +8.5269988951477007e+00 +0.0000000000000000e+00 +1.9999999999593099e-01 -3.0220449181183807e-02 -5.7765840689122649e-01 +5.9523022791994557e-03
2.5000000000000000e-01 +8.5269982736681396e+00 +0.0000000000000000e+00 +2.4999999999205300e-01 -3.0220260493396916e-02 -5.7766027257159902e-01 +5.9518242624257249e-03
2.9999999999999999e-01 +8.5269975140799907e+00 +0.0000000000000000e+00 +2.9999999998626697e-01 -3.0220096517624122e-02 -5.7766254415263274e-01 +5.9513466438129983e-03
3.4999999999999998e-01 +8.5269966163905302e+00 +0.0000000000000000e+00 +3.4999999997819298e-01 -3.0219957101394503e-02 -5.7766522071774995e-01 +5.9508694736511722e-03
4.0000000000000002e-01 +8.5269955805888493e+00 +0.0000000000000000e+00 +3.9999999996744801e-01 -3.0219842092245781e-02 -5.7766830135052893e-01 +5.9503928022317364e-03
4.5000000000000001e-01 +8.5269944066858407e+00 +0.0000000000000000e+00 +4.4999999995365197e-01 -3.0219751337708080e-02 -5.7767178513440087e-01 +5.9499166798444650e-03
5.0000000000000000e-01 +8.5269930946742498e+00 +0.0000000000000000e+00 +4.9999999993642202e-01 -3.0219684685320079e-02 -5.7767567115295226e-01 +5.9494411567807236e-03
5.5000000000000004e-01 +8.5269916445577092e+00 +0.0000000000000000e+00 +5.4999999991537796e-01 -3.0219641982617184e-02 -5.7767995848970510e-01 +5.9489662833310713e-03
5.9999999999999998e-01 +8.5269900563289394e+00 +0.0000000000000000e+00 +5.9999999989013697e-01 -3.0219623077140292e-02 -5.7768464622828186e-01 +5.9484921097870602e-03
6.5000000000000002e-01 +8.5269883299988596e+00 +0.0000000000000000e+00 +6.4999999986031898e-01 -3.0219627816423920e-02 -5.7768973345218400e-01 +5.9480186864388296e-03
6.9999999999999996e-01 +8.5269864655601904e+00 +0.0000000000000000e+00 +6.9999999982554195e-01 -3.0219656048010898e-02 -5.7769521924506873e-01 +5.9475460635781113e-03
7.5000000000000000e-01 +8.5269844630165608e+00 +0.0000000000000000e+00 +7.4999999978542398e-01 -3.0219707619440591e-02 -5.7770110269052755e-01 +5.9470742914958397e-03
8.0000000000000004e-01 +8.5269823223679904e+00 +0.0000000000000000e+00 +7.9999999973958402e-01 -3.0219782378254595e-02 -5.7770738287219603e-01 +5.9466034204833330e-03
8.4999999999999998e-01 +8.5269800436108198e+00 +0.0000000000000000e+00 +8.4999999968764095e-01 -3.0219880171996810e-02 -5.7771405887375493e-01 +5.9461335008323098e-03
9.0000000000000002e-01 +8.5269776267450705e+00 +0.0000000000000000e+00 +8.9999999962921295e-01 -3.0220000848210360e-02 -5.7772112977887347e-01 +5.9456645828342876e-03
9.4999999999999996e-01 +8.5269750717743609e+00 +0.0000000000000000e+00 +9.4999999956391801e-01 -3.0220144254437548e-02 -5.7772859467120952e-01 +5.9451967167805670e-03
1.0000000000000000e+00 +8.5269723786986997e+00 +0.0000000000000000e+00 +9.9999999949137597e-01 -3.0220310238222758e-02 -5.7773645263446638e-01 +5.9447299529628624e-03
1.0500000000000000e+00 +8.5269695475144491e+00 +0.0000000000000000e+00 +1.0499999994111999e+00 -3.0220498647112366e-02 -5.7774470275238832e-01 +5.9442643416732707e-03
1.1000000000000001e+00 +8.5269665782288904e+00 +0.0000000000000000e+00 +1.0999999993230201e+00 -3.0220709328648863e-02 -5.7775334410865620e-01 +5.9437999332031003e-03
1.1499999999999999e+00 +8.5269634708311095e+00 +0.0000000000000000e+00 +1.1499999992264500e+00 -3.0220942130382483e-02 -5.7776237578710188e-01 +5.9433367778452453e-03
1.2000000000000000e+00 +8.5269602253283701e+00 +0.0000000000000000e+00 +1.1999999991210999e+00 -3.0221196899856459e-02 -5.7777179687143598e-01 +5.9428749258912117e-03
1.2500000000000000e+00 +8.5269568417206791e+00 +0.0000000000000000e+00 +1.2499999990065900e+00 -3.0221473484617307e-02 -5.7778160644544019e-01 +5.9424144276331945e-03
1.3000000000000000e+00 +8.5269533200044005e+00 +0.0000000000000000e+00 +1.2999999988825499e+00 -3.0221771732213236e-02 -5.7779180359293891e-01 +5.9419553333637980e-03
1.3500000000000001e+00 +8.5269496601795307e+00 +0.0000000000000000e+00 +1.3499999987485900e+00 -3.0222091490191186e-02 -5.7780238739774337e-01 +5.9414976933754235e-03
1.3999999999999999e+00 +8.5269458622533403e+00 +0.0000000000000000e+00 +1.3999999986043401e+00 -3.0222432606095265e-02 -5.7781335694362601e-01 +5.9410415579599779e-03
1.4500000000000000e+00 +8.5269419262185693e+00 +0.0000000000000000e+00 +1.4499999984494001e+00 -3.0222794927475552e-02 -5.7782471131448299e-01 +5.9405869774106640e-03
1.5000000000000000e+00 +8.5269378520752106e+00 +0.0000000000000000e+00 +1.4999999982833900e+00 -3.0223178301879185e-02 -5.7783644959417091e-01 +5.9401340020201936e-03
1.5500000000000000e+00 +8.5269336398268898e+00 +0.0000000000000000e+00 +1.5499999981059500e+00 -3.0223582576851805e-02 -5.7784857086653352e-01 +5.9396826820810825e-03
1.6000000000000001e+00 +8.5269292894736299e+00 +0.0000000000000000e+00 +1.5999999979166799e+00 -3.0224007599940376e-02 -5.7786107421545541e-01 +5.9392330678862465e-03
1.6499999999999999e+00 +8.5269248010117700e+00 +0.0000000000000000e+00 +1.6499999977152000e+00 -3.0224453218693218e-02 -5.7787395872486391e-01 +5.9387852097290165e-03
1.7000000000000000e+00 +8.5269201744449692e+00 +0.0000000000000000e+00 +1.6999999975011300e+00 -3.0224919280655429e-02 -5.7788722347864463e-01 +5.9383391579022147e-03
1.7500000000000000e+00 +8.5269154097695701e+00 +0.0000000000000000e+00 +1.7499999972740901e+00 -3.0225405633374839e-02 -5.7790086756075287e-01 +5.9378949626993829e-03
1.8000000000000000e+00 +8.5269105069892195e+00 +0.0000000000000000e+00 +1.7999999970336999e+00 -3.0225912124395932e-02 -5.7791489005510210e-01 +5.9374526744135634e-03
1.8500000000000001e+00 +8.5269054661039299e+00 +0.0000000000000000e+00 +1.8499999967795799e+00 -3.0226438601264269e-02 -5.7792929004564608e-01 +5.9370123433382070e-03
1.8999999999999999e+00 +8.5269002871100401e+00 +0.0000000000000000e+00 +1.8999999965113501e+00 -3.0226984911526478e-02 -5.7794406661638165e-01 +5.9365740197671792e-03
1.9500000000000000e+00 +8.5268949700112007e+00 +0.0000000000000000e+00 +1.9499999962286201e+00 -3.0227550902725657e-02 -5.7795921885126156e-01 +5.9361377539938458e-03
2.0000000000000000e+00 +8.5268895148037700e+00 +0.0000000000000000e+00 +1.9999999959310100e+00 -3.0228136422407320e-02 -5.7797474583430786e-01 +5.9357035963122865e-03
2.0499999999999998e+00 +8.5268839213858900e+00 +0.0000000000000000e+00 +2.0499999956181298e+00 -3.0228741336393569e-02 -5.7799064642624032e-01 +5.9352715880328453e-03
2.1000000000000001e+00 +8.5268781896593300e+00 +0.0000000000000000e+00 +2.0999999952895898e+00 -3.0229365583454296e-02 -5.7800691859153253e-01 +5.9348417344979639e-03
2.1499999999999999e+00 +8.5268723196240899e+00 +0.0000000000000000e+00 +2.1499999949449999e+00 -3.0230009120557368e-02 -5.7802356006986766e-01 +5.9344140320500864e-03
2.2000000000000002e+00 +8.5268663112729008e+00 +0.0000000000000000e+00 +2.1999999945839801e+00 -3.0230671904674405e-02 -5.7804056860099606e-01 +5.9339884770322586e-03
2.2500000000000000e+00 +8.5268601646093902e+00 +0.0000000000000000e+00 +2.2499999942061502e+00 -3.0231353892773358e-02 -5.7805794192459792e-01 +5.9335650657866227e-03
2.2999999999999998e+00 +8.5268538796335598e+00 +0.0000000000000000e+00 +2.2999999938111202e+00 -3.0232055041824413e-02 -5.7807567778039159e-01 +5.9331437946555966e-03
2.3500000000000001e+00 +8.5268474563490599e+00 +0.0000000000000000e+00 +2.3499999933985198e+00 -3.0232775308797161e-02 -5.7809377390808014e-01 +5.9327246599812948e-03
2.3999999999999999e+00 +8.5268408947522403e+00 +0.0000000000000000e+00 +2.3999999929679601e+00 -3.0233514650664997e-02 -5.7811222804743234e-01 +5.9323076581064014e-03
2.4500000000000002e+00 +8.5268341948467405e+00 +0.0000000000000000e+00 +2.4499999925190501e+00 -3.0234273024399214e-02 -5.7813103793817300e-01 +5.9318927853729674e-03
2.5000000000000000e+00 +8.5268273566252901e+00 +0.0000000000000000e+00 +2.4999999920514302e+00 -3.0235050386976495e-02 -5.7815020132012052e-01 +5.9314800381239053e-03
2.5499999999999998e+00 +8.5268203800987994e+00 +0.0000000000000000e+00 +2.5499999915646900e+00 -3.0235846695367014e-02 -5.7816971593296607e-01 +5.9310694127006026e-03
2.6000000000000001e+00 +8.5268132652563509e+00 +0.0000000000000000e+00 +2.5999999910584699e+00 -3.0236661906550843e-02 -5.7818957951657712e-01 +5.9306609054461841e-03
2.6499999999999999e+00 +8.5268060121015896e+00 +0.0000000000000000e+00 +2.6499999905323701e+00 -3.0237495977503120e-02 -5.7820978981072035e-01 +5.9302545127025300e-03
2.7000000000000002e+00 +8.5267986206345103e+00 +0.0000000000000000e+00 +2.6999999899860101e+00 -3.0238348865201447e-02 -5.7823034455520039e-01 +5.9298502308117547e-03
2.7500000000000000e+00 +8.5267910908551094e+00 +0.0000000000000000e+00 +2.7499999894190199e+00 -3.0239220526624550e-02 -5.7825124148983220e-01 +5.9294480561159222e-03
2.7999999999999998e+00 +8.5267834227670392e+00 +0.0000000000000000e+00 +2.7999999888310101e+00 -3.0240110918750642e-02 -5.7827247835441176e-01 +5.9290479849567115e-03
2.8500000000000001e+00 +8.5267756163666508e+00 +0.0000000000000000e+00 +2.8499999882215898e+00 -3.0241019998562123e-02 -5.7829405288880098e-01 +5.9286500136763350e-03
2.8999999999999999e+00 +8.5267676716539391e+00 +0.0000000000000000e+00 +2.8999999875903901e+00 -3.0241947723040962e-02 -5.7831596283284270e-01 +5.9282541386166234e-03
2.9500000000000002e+00 +8.5267595886289200e+00 +0.0000000000000000e+00 +2.9499999869370299e+00 -3.0242894049170355e-02 -5.7833820592638918e-01 +5.9278603561193207e-03
3.0000000000000000e+00 +8.5267513672915793e+00 +0.0000000000000000e+00 +2.9999999862611100e+00 -3.0243858933934623e-02 -5.7836077990930146e-01 +5.9274686625260765e-03
3.0499999999999998e+00 +8.5267430076455604e+00 +0.0000000000000000e+00 +3.0499999855622502e+00 -3.0244842334317880e-02 -5.7838368252142180e-01 +5.9270790541781438e-03
3.1000000000000001e+00 +8.5267345096872305e+00 +0.0000000000000000e+00 +3.0999999848400801e+00 -3.0245844207308411e-02 -5.7840691150265622e-01 +5.9266915274172717e-03
3.1499999999999999e+00 +8.5267258734165807e+00 +0.0000000000000000e+00 +3.1499999840942201e+00 -3.0246864509894295e-02 -5.7843046459289149e-01 +5.9263060785847985e-03
3.2000000000000002e+00 +8.5267170988336094e+00 +0.0000000000000000e+00 +3.1999999833242700e+00 -3.0247903199064938e-02 -5.7845433953202285e-01 +5.9259227040219546e-03
3.2500000000000000e+00 +8.5267081859419704e+00 +0.0000000000000000e+00 +3.2499999825298600e+00 -3.0248960231809556e-02 -5.7847853405992522e-01 +5.9255414000695377e-03
3.2999999999999998e+00 +8.5266991347380099e+00 +0.0000000000000000e+00 +3.2999999817106000e+00 -3.0250035565121725e-02 -5.7850304591653701e-01 +5.9251621630688296e-03
3.3500000000000001e+00 +8.5266899452181004e+00 +0.0000000000000000e+00 +3.3499999808661101e+00 -3.0251129155996374e-02 -5.7852787284180451e-01 +5.9247849893609705e-03
3.3999999999999999e+00 +8.5266806173895002e+00 +0.0000000000000000e+00 +3.3999999799960099e+00 -3.0252240961425415e-02 -5.7855301257559821e-01 +5.9244098752860765e-03
3.4500000000000002e+00 +8.5266711512522306e+00 +0.0000000000000000e+00 +3.4499999790999101e+00 -3.0253370938405157e-02 -5.7857846285785075e-01 +5.9240368171847076e-03
3.5000000000000000e+00 +8.5266615468026394e+00 +0.0000000000000000e+00 +3.4999999781774398e+00 -3.0254519043934856e-02 -5.7860422142853030e-01 +5.9236658113975792e-03
3.5499999999999998e+00 +8.5266518040407409e+00 +0.0000000000000000e+00 +3.5499999772282100e+00 -3.0255685235013770e-02 -5.7863028602758326e-01 +5.9232968542649493e-03
3.6000000000000001e+00 +8.5266419229665207e+00 +0.0000000000000000e+00 +3.5999999762518402e+00 -3.0256869468642721e-02 -5.7865665439496372e-01 +5.9229299421269220e-03
3.6499999999999999e+00 +8.5266319035799807e+00 +0.0000000000000000e+00 +3.6499999752479400e+00 -3.0258071701824034e-02 -5.7868332427063129e-01 +5.9225650713234275e-03
3.6999999999999900e+00 +8.5266217458847695e+00 +0.0000000000000000e+00 +3.6999999742161398e+00 -3.0259291891560146e-02 -5.7871029339452462e-01 +5.9222022381939304e-03
3.7499999999999898e+00 +8.5266114498736005e+00 +0.0000000000000000e+00 +3.7499999731560498e+00 -3.0260529994859561e-02 -5.7873755950667194e-01 +5.9218414390786135e-03
3.7999999999999901e+00 +8.5266010155537497e+00 +0.0000000000000000e+00 +3.7999999720672801e+00 -3.0261785968726473e-02 -5.7876512034699590e-01 +5.9214826703162804e-03
3.8499999999999899e+00 +8.5265904429179500e+00 +0.0000000000000000e+00 +3.8499999709494599e+00 -3.0263059770172681e-02 -5.7879297365553617e-01 +5.9211259282467392e-03
3.8999999999999901e+00 +8.5265797319771099e+00 +0.0000000000000000e+00 +3.8999999698022001e+00 -3.0264351356204224e-02 -5.7882111717219886e-01 +5.9207712092081153e-03
3.9499999999999900e+00 +8.5265688827203103e+00 +0.0000000000000000e+00 +3.9499999686251202e+00 -3.0265660683837813e-02 -5.7884954863706239e-01 +5.9204185095401212e-03
3.9999999999999898e+00 +8.5265578951548395e+00 +0.0000000000000000e+00 +3.9999999674178399e+00 -3.0266987710084431e-02 -5.7887826579007129e-01 +5.9200678255807672e-03
4.0499999999999901e+00 +8.5265467692734092e+00 +0.0000000000000000e+00 +4.0499999661799704e+00 -3.0268332370938723e-02 -5.7890726627821587e-01 +5.9197191611632142e-03
4.0999999999999899e+00 +8.5265355050833005e+00 +0.0000000000000000e+00 +4.0999999649111301e+00 -3.0269694518294216e-02 -5.7893654737610056e-01 +5.9193725500960677e-03
4.1499999999999897e+00 +8.5265241025808791e+00 +0.0000000000000000e+00 +4.1499999636109504e+00 -3.0271073983025056e-02 -5.7896610626534417e-01 +5.9190280336832912e-03
4.1999999999999904e+00 +8.5265125617697795e+00 +0.0000000000000000e+00 +4.1999999622790298e+00 -3.0272470596002642e-02 -5.7899594012751221e-01 +5.9186856532285857e-03
4.2499999999999902e+00 +8.5265008826427202e+00 +0.0000000000000000e+00 +4.2499999609149901e+00 -3.0273884188102968e-02 -5.7902604614425379e-01 +5.9183454500368830e-03
4.2999999999999901e+00 +8.5264890652069898e+00 +0.0000000000000000e+00 +4.2999999595184599e+00 -3.0275314590196285e-02 -5.7905642149710901e-01 +5.9180074654122689e-03
4.3499999999999899e+00 +8.5264771094589396e+00 +0.0000000000000000e+00 +4.3499999580890396e+00 -3.0276761633157404e-02 -5.7908706336770155e-01 +5.9176717406600908e-03
4.3999999999999897e+00 +8.5264650153985695e+00 +0.0000000000000000e+00 +4.3999999566263703e+00 -3.0278225147859765e-02 -5.7911796893762790e-01 +5.9173383170857703e-03
4.4499999999999904e+00 +8.5264527830295300e+00 +0.0000000000000000e+00 +4.4499999551300400e+00 -3.0279704965175396e-02 -5.7914913538845680e-01 +5.9170072359948089e-03
4.4999999999999902e+00 +8.5264404123481707e+00 +0.0000000000000000e+00 +4.4999999535996897e+00 -3.0281200915979415e-02 -5.7918055990181294e-01 +5.9166785386937015e-03
4.5499999999999901e+00 +8.5264279033544899e+00 +0.0000000000000000e+00 +4.5499999520349199e+00 -3.0282712831145447e-02 -5.7921223965929225e-01 +5.9163522664890528e-03
4.5999999999999899e+00 +8.5264152560448601e+00 +0.0000000000000000e+00 +4.5999999504353601e+00 -3.0284240541548674e-02 -5.7924417184251831e-01 +5.9160284606881641e-03
4.6499999999999897e+00 +8.5264024704301793e+00 +0.0000000000000000e+00 +4.6499999488006196e+00 -3.0285783878058303e-02 -5.7927635363300334e-01 +5.9157071625975926e-03
4.6999999999999904e+00 +8.5263895464995603e+00 +0.0000000000000000e+00 +4.6999999471303298e+00 -3.0287342671552461e-02 -5.7930878221242321e-01 +5.9153884135261054e-03
4.7499999999999902e+00 +8.5263764842602505e+00 +0.0000000000000000e+00 +4.7499999454240900e+00 -3.0288916752901789e-02 -5.7934145476231524e-01 +5.9150722547814281e-03
4.7999999999999901e+00 +8.5263632837050007e+00 +0.0000000000000000e+00 +4.7999999436815299e+00 -3.0290505952982858e-02 -5.7937436846432533e-01 +5.9147587276729427e-03
4.8499999999999899e+00 +8.5263499448447000e+00 +0.0000000000000000e+00 +4.8499999419022597e+00 -3.0292110102664697e-02 -5.7940752049995914e-01 +5.9144478735090062e-03
4.8999999999999897e+00 +8.5263364676684397e+00 +0.0000000000000000e+00 +4.8999999400859000e+00 -3.0293729032825137e-02 -5.7944090805088588e-01 +5.9141397336002393e-03
4.9499999999999904e+00 +8.5263228521798702e+00 +0.0000000000000000e+00 +4.9499999382320699e+00 -3.0295362574335977e-02 -5.7947452829866208e-01 +5.9138343492565627e-03
4.9999999999999902e+00 +8.5263090983826295e+00 +0.0000000000000000e+00 +4.9999999363403900e+00 -3.0297010558068861e-02 -5.7950837842484071e-01 +5.9135317617884046e-03
5.0499999999999901e+00 +8.5262952059529198e+00 +0.0000000000000000e+00 +5.0499999344103799e+00 -3.0298672815029570e-02 -5.7954245561347684e-01 +5.9132320125333477e-03
5.0999999999999899e+00 +8.5262811745706095e+00 +0.0000000000000000e+00 +5.0999999324415599e+00 -3.0300349176222326e-02 -5.7957675704859690e-01 +5.9129351428291897e-03
5.1499999999999897e+00 +8.5262670042357094e+00 +0.0000000000000000e+00 +5.1499999304335597e+00 -3.0302039472519887e-02 -5.7961127991177497e-01 +5.9126411939881933e-03
5.1999999999999904e+00 +8.5262526949518396e+00 +0.0000000000000000e+00 +5.1999999283859903e+00 -3.0303743534793291e-02 -5.7964602138455412e-01 +5.9123502073228709e-03
5.2499999999999902e+00 +8.5262382467153692e+00 +0.0000000000000000e+00 +5.2499999262984600e+00 -3.0305461193916316e-02 -5.7968097864852863e-01 +5.9120622241468782e-03
5.2999999999999901e+00 +8.5262236595299292e+00 +0.0000000000000000e+00 +5.2999999241705797e+00 -3.0307192280759489e-02 -5.7971614888523260e-01 +5.9117772857738508e-03
5.3499999999999899e+00 +8.5262089333882596e+00 +0.0000000000000000e+00 +5.3499999220019703e+00 -3.0308936626197529e-02 -5.7975152927627938e-01 +5.9114954335188772e-03
5.3999999999999897e+00 +8.5261940682976292e+00 +0.0000000000000000e+00 +5.3999999197922497e+00 -3.0310694061098875e-02 -5.7978711700316565e-01 +5.9112167086964587e-03
5.4499999999999904e+00 +8.5261790642507496e+00 +0.0000000000000000e+00 +5.4499999175410201e+00 -3.0312464416337601e-02 -5.7982290924749447e-01 +5.9109411526228782e-03
5.4999999999999902e+00 +8.5261639212585596e+00 +0.0000000000000000e+00 +5.4999999152479004e+00 -3.0314247522779968e-02 -5.7985890319072431e-01 +5.9106688066135425e-03
5.5499999999999901e+00 +8.5261486393137602e+00 +0.0000000000000000e+00 +5.5499999129125097e+00 -3.0316043211299343e-02 -5.7989509601444655e-01 +5.9103997119859626e-03
5.5999999999999899e+00 +8.5261332184127205e+00 +0.0000000000000000e+00 +5.5999999105344500e+00 -3.0317851312767204e-02 -5.7993148490021951e-01 +5.9101339100579792e-03
5.6499999999999897e+00 +8.5261176585627307e+00 +0.0000000000000000e+00 +5.6499999081133403e+00 -3.0319671658050103e-02 -5.7996806702951109e-01 +5.9098714421471910e-03
5.6999999999999904e+00 +8.5261019597637606e+00 +0.0000000000000000e+00 +5.6999999056488004e+00 -3.0321504078017203e-02 -5.8000483958383864e-01 +5.9096123495724351e-03
5.7499999999999902e+00 +8.5260861220122006e+00 +0.0000000000000000e+00 +5.7499999031404396e+00 -3.0323348403538637e-02 -5.8004179974474024e-01 +5.9093566736535099e-03
5.7999999999999901e+00 +8.5260701453080401e+00 +0.0000000000000000e+00 +5.7999999005878804e+00 -3.0325204465482609e-02 -5.8007894469371934e-01 +5.9091044557105909e-03
5.8499999999999899e+00 +8.5260540296512808e+00 +0.0000000000000000e+00 +5.8499998979907204e+00 -3.0327072094716835e-02 -5.8011627161227131e-01 +5.9088557370645381e-03
5.8999999999999897e+00 +8.5260377750455500e+00 +0.0000000000000000e+00 +5.8999998953485804e+00 -3.0328951122106974e-02 -5.8015377768185694e-01 +5.9086105590366077e-03
