# trajectory
# s[mm] rx[mm] ry[mm] rz[mm] px[rad] py[rad] pz[rad]
0.0000000000000000e+00 +8.5980000000000008e+00 +0.0000000000000000e+00 +0.0000000000000000e+00 +0.0000000000000000e+00 +0.0000000000000000e+00 +1.0000000000000000e+00
5.0000000000000003e-02 +8.5979999309665800e+00 +0.0000000000000000e+00 +4.9999999999936463e-02 -2.7613359636854511e-06 +0.0000000000000000e+00 +9.9999999999618749e-01
1.0000000000000001e-01 +8.5979997238664740e+00 +0.0000000000000000e+00 +9.9999999999491662e-02 -5.5226677538112152e-06 +0.0000000000000000e+00 +9.9999999998475009e-01
1.5000000000000002e-01 +8.5979993786998428e+00 +0.0000000000000000e+00 +1.4999999999828437e-01 -8.2839972663661163e-06 +0.0000000000000000e+00 +9.9999999996568767e-01
2.0000000000000001e-01 +8.5979988954667537e+00 +0.0000000000000000e+00 +1.9999999999593335e-01 -1.1045326393341296e-05 +0.0000000000000000e+00 +9.9999999993900035e-01
2.5000000000000000e-01 +8.5979982741671783e+00 +0.0000000000000000e+00 +2.4999999999205733e-01 -1.3806657022730311e-05 +0.0000000000000000e+00 +9.9999999990468813e-01
2.9999999999999999e-01 +8.5979975148009942e+00 +0.0000000000000000e+00 +2.9999999998627508e-01 -1.6567991038529208e-05 +0.0000000000000000e+00 +9.9999999986275090e-01
3.4999999999999998e-01 +8.5979966173679863e+00 +0.0000000000000000e+00 +3.4999999997820536e-01 -1.9329330320736635e-05 +0.0000000000000000e+00 +9.9999999981318854e-01
3.9999999999999997e-01 +8.5979955818678437e+00 +0.0000000000000000e+00 +3.9999999996746688e-01 -2.2090676745353912e-05 +0.0000000000000000e+00 +9.9999999975600107e-01
4.4999999999999996e-01 +8.5979944083001616e+00 +0.0000000000000000e+00 +4.4999999995367840e-01 -2.4852032184385130e-05 +0.0000000000000000e+00 +9.9999999969118836e-01
4.9999999999999994e-01 +8.5979930966644442e+00 +0.0000000000000000e+00 +4.9999999993645866e-01 -2.7613398505837231e-05 +0.0000000000000000e+00 +9.9999999961875019e-01
5.4999999999999993e-01 +8.5979916469601001e+00 +0.0000000000000000e+00 +5.4999999991542636e-01 -3.0374777573720108e-05 +0.0000000000000000e+00 +9.9999999953868657e-01
5.9999999999999998e-01 +8.5979900591864435e+00 +0.0000000000000000e+00 +5.9999999989020025e-01 -3.3136171248046684e-05 +0.0000000000000000e+00 +9.9999999945099716e-01
6.5000000000000002e-01 +8.5979883333427001e+00 +0.0000000000000000e+00 +6.4999999986039902e-01 -3.5897581384832995e-05 +0.0000000000000000e+00 +9.9999999935568196e-01
7.0000000000000007e-01 +8.5979864694279993e+00 +0.0000000000000000e+00 +6.9999999982564132e-01 -3.8659009836098296e-05 +0.0000000000000000e+00 +9.9999999925274063e-01
7.5000000000000011e-01 +8.5979844674413801e+00 +0.0000000000000000e+00 +7.4999999978554599e-01 -4.1420458449865113e-05 +0.0000000000000000e+00 +9.9999999914217297e-01
8.0000000000000016e-01 +8.5979823273817875e+00 +0.0000000000000000e+00 +7.9999999973973157e-01 -4.4181929070159370e-05 +0.0000000000000000e+00 +9.9999999902397874e-01
8.5000000000000020e-01 +8.5979800492480756e+00 +0.0000000000000000e+00 +8.4999999968781670e-01 -4.6943423537010450e-05 +0.0000000000000000e+00 +9.9999999889815760e-01
9.0000000000000024e-01 +8.5979776330390063e+00 +0.0000000000000000e+00 +8.9999999962942012e-01 -4.9704943686451272e-05 +0.0000000000000000e+00 +9.9999999876470935e-01
9.5000000000000029e-01 +8.5979750787532492e+00 +0.0000000000000000e+00 +9.4999999956416048e-01 -5.2466491350518394e-05 +0.0000000000000000e+00 +9.9999999862363376e-01
1.0000000000000002e+00 +8.5979723863893831e+00 +0.0000000000000000e+00 +9.9999999949165641e-01 -5.5228068357252090e-05 +0.0000000000000000e+00 +9.9999999847493037e-01
1.0500000000000003e+00 +8.5979695559458946e+00 +0.0000000000000000e+00 +1.0499999994115263e+00 -5.7989676530696430e-05 +0.0000000000000000e+00 +9.9999999831859887e-01
1.1000000000000003e+00 +8.5979665874211797e+00 +0.0000000000000000e+00 +1.0999999993233891e+00 -6.0751317690899380e-05 +0.0000000000000000e+00 +9.9999999815463891e-01
1.1500000000000004e+00 +8.5979634808135454e+00 +0.0000000000000000e+00 +1.1499999992268630e+00 -6.3512993653912851e-05 +0.0000000000000000e+00 +9.9999999798305006e-01
1.2000000000000004e+00 +8.5979602361212049e+00 +0.0000000000000000e+00 +1.1999999991215669e+00 -6.6274706231792810e-05 +0.0000000000000000e+00 +9.9999999780383186e-01
1.2500000000000004e+00 +8.5979568533422821e+00 +0.0000000000000000e+00 +1.2499999990071191e+00 -6.9036457232599365e-05 +0.0000000000000000e+00 +9.9999999761698399e-01
1.3000000000000005e+00 +8.5979533324748108e+00 +0.0000000000000000e+00 +1.2999999988831381e+00 -7.1798248460396821e-05 +0.0000000000000000e+00 +9.9999999742250600e-01
1.3500000000000005e+00 +8.5979496735167356e+00 +0.0000000000000000e+00 +1.3499999987492426e+00 -7.4560081715253776e-05 +0.0000000000000000e+00 +9.9999999722039734e-01
1.4000000000000006e+00 +8.5979458764659089e+00 +0.0000000000000000e+00 +1.3999999986050509e+00 -7.7321958793243192e-05 +0.0000000000000000e+00 +9.9999999701065756e-01
1.4500000000000006e+00 +8.5979419413200961e+00 +0.0000000000000000e+00 +1.4499999984501812e+00 -8.0083881486442499e-05 +0.0000000000000000e+00 +9.9999999679328622e-01
1.5000000000000007e+00 +8.5979378680769702e+00 +0.0000000000000000e+00 +1.4999999982842522e+00 -8.2845851582933656e-05 +0.0000000000000000e+00 +9.9999999656828265e-01
1.5500000000000007e+00 +8.5979336567341171e+00 +0.0000000000000000e+00 +1.5499999981068822e+00 -8.5607870866803213e-05 +0.0000000000000000e+00 +9.9999999633564640e-01
1.6000000000000008e+00 +8.5979293072890339e+00 +0.0000000000000000e+00 +1.5999999979176895e+00 -8.8369941118142436e-05 +0.0000000000000000e+00 +9.9999999609537693e-01
1.6500000000000008e+00 +8.5979248197391271e+00 +0.0000000000000000e+00 +1.6499999977162927e+00 -9.1132064113047331e-05 +0.0000000000000000e+00 +9.9999999584747357e-01
1.7000000000000008e+00 +8.5979201940817145e+00 +0.0000000000000000e+00 +1.6999999975023097e+00 -9.3894241623618770e-05 +0.0000000000000000e+00 +9.9999999559193586e-01
1.7500000000000009e+00 +8.5979154303140266e+00 +0.0000000000000000e+00 +1.7499999972753590e+00 -9.6656475417962543e-05 +0.0000000000000000e+00 +9.9999999532876305e-01
1.8000000000000009e+00 +8.5979105284332054e+00 +0.0000000000000000e+00 +1.7999999970350589e+00 -9.9418767260189427e-05 +0.0000000000000000e+00 +9.9999999505795456e-01
1.8500000000000010e+00 +8.5979054884363038e+00 +0.0000000000000000e+00 +1.8499999967810272e+00 -1.0218111891041529e-04 +0.0000000000000000e+00 +9.9999999477950963e-01
1.9000000000000010e+00 +8.5979003103202878e+00 +0.0000000000000000e+00 +1.8999999965128824e+00 -1.0494353212476114e-04 +0.0000000000000000e+00 +9.9999999449342769e-01
1.9500000000000011e+00 +8.5978949940820364e+00 +0.0000000000000000e+00 +1.9499999962302426e+00 -1.0770600865535322e-04 +0.0000000000000000e+00 +9.9999999419970798e-01
2.0000000000000009e+00 +8.5978895397183379e+00 +0.0000000000000000e+00 +1.9999999959327259e+00 -1.1046855025032308e-04 +0.0000000000000000e+00 +9.9999999389834981e-01
2.0500000000000007e+00 +8.5978839472258972e+00 +0.0000000000000000e+00 +2.0499999956199502e+00 -1.1323115865352282e-04 +0.0000000000000000e+00 +9.9999999358935243e-01
2.1000000000000005e+00 +8.5978782166013303e+00 +0.0000000000000000e+00 +2.0999999952915336e+00 -1.1599383560139255e-04 +0.0000000000000000e+00 +9.9999999327271516e-01
2.1500000000000004e+00 +8.5978723478411663e+00 +0.0000000000000000e+00 +2.1499999949470943e+00 -1.1875658281982770e-04 +0.0000000000000000e+00 +9.9999999294843711e-01
2.2000000000000002e+00 +8.5978663409418488e+00 +0.0000000000000000e+00 +2.1999999945862498e+00 -1.2151940202389433e-04 +0.0000000000000000e+00 +9.9999999261651751e-01
2.2500000000000000e+00 +8.5978601958997363e+00 +0.0000000000000000e+00 +2.2499999942086184e+00 -1.2428229491782914e-04 +0.0000000000000000e+00 +9.9999999227695557e-01
2.2999999999999998e+00 +8.5978539127111002e+00 +0.0000000000000000e+00 +2.2999999938138180e+00 -1.2704526319503955e-04 +0.0000000000000000e+00 +9.9999999192975053e-01
2.3499999999999996e+00 +8.5978474913721321e+00 +0.0000000000000000e+00 +2.3499999934014664e+00 -1.2980830853810373e-04 +0.0000000000000000e+00 +9.9999999157490149e-01
2.3999999999999995e+00 +8.5978409318789346e+00 +0.0000000000000000e+00 +2.3999999929711811e+00 -1.3257143261877070e-04 +0.0000000000000000e+00 +9.9999999121240757e-01
2.4499999999999993e+00 +8.5978342342275305e+00 +0.0000000000000000e+00 +2.4499999925225797e+00 -1.3533463709796033e-04 +0.0000000000000000e+00 +9.9999999084226798e-01
2.4999999999999991e+00 +8.5978273984138571e+00 +0.0000000000000000e+00 +2.4999999920552805e+00 -1.3809792362576341e-04 +0.0000000000000000e+00 +9.9999999046448174e-01
2.5499999999999989e+00 +8.5978204244337721e+00 +0.0000000000000000e+00 +2.5499999915689004e+00 -1.4086129384144168e-04 +0.0000000000000000e+00 +9.9999999007904794e-01
2.5999999999999988e+00 +8.5978133122830513e+00 +0.0000000000000000e+00 +2.5999999910630578e+00 -1.4362474937342789e-04 +0.0000000000000000e+00 +9.9999998968596571e-01
2.6499999999999986e+00 +8.5978060619573871e+00 +0.0000000000000000e+00 +2.6499999905373697e+00 -1.4638829183932583e-04 +0.0000000000000000e+00 +9.9999998928523404e-01
2.6999999999999984e+00 +8.5977986734523917e+00 +0.0000000000000000e+00 +2.6999999899914537e+00 -1.4915192284591038e-04 +0.0000000000000000e+00 +9.9999998887685193e-01
2.7499999999999982e+00 +8.5977911467635995e+00 +0.0000000000000000e+00 +2.7499999894249272e+00 -1.5191564398912757e-04 +0.0000000000000000e+00 +9.9999998846081850e-01
2.7999999999999980e+00 +8.5977834818864647e+00 +0.0000000000000000e+00 +2.7999999888374076e+00 -1.5467945685409458e-04 +0.0000000000000000e+00 +9.9999998803713275e-01
2.8499999999999979e+00 +8.5977756788163600e+00 +0.0000000000000000e+00 +2.8499999882285127e+00 -1.5744336301509978e-04 +0.0000000000000000e+00 +9.9999998760579367e-01
2.8999999999999977e+00 +8.5977677375485815e+00 +0.0000000000000000e+00 +2.8999999875978597e+00 -1.6020736403560282e-04 +0.0000000000000000e+00 +9.9999998716680016e-01
2.9499999999999975e+00 +8.5977596580783491e+00 +0.0000000000000000e+00 +2.9499999869450653e+00 -1.6297146146823459e-04 +0.0000000000000000e+00 +9.9999998672015122e-01
2.9999999999999973e+00 +8.5977514404008026e+00 +0.0000000000000000e+00 +2.9999999862697471e+00 -1.6573565685479733e-04 +0.0000000000000000e+00 +9.9999998626584585e-01
3.0499999999999972e+00 +8.5977430845110057e+00 +0.0000000000000000e+00 +3.0499999855715223e+00 -1.6849995172626457e-04 +0.0000000000000000e+00 +9.9999998580388294e-01
3.0999999999999970e+00 +8.5977345904039471e+00 +0.0000000000000000e+00 +3.0999999848500077e+00 -1.7126434760278127e-04 +0.0000000000000000e+00 +9.9999998533426138e-01
3.1499999999999968e+00 +8.5977259580745375e+00 +0.0000000000000000e+00 +3.1499999841048205e+00 -1.7402884599366372e-04 +0.0000000000000000e+00 +9.9999998485698016e-01
3.1999999999999966e+00 +8.5977171875176150e+00 +0.0000000000000000e+00 +3.1999999833355779e+00 -1.7679344839739971e-04 +0.0000000000000000e+00 +9.9999998437203808e-01
3.2499999999999964e+00 +8.5977082787279411e+00 +0.0000000000000000e+00 +3.2499999825418966e+00 -1.7955815630164845e-04 +0.0000000000000000e+00 +9.9999998387943401e-01
3.2999999999999963e+00 +8.5976992317002026e+00 +0.0000000000000000e+00 +3.2999999817233934e+00 -1.8232297118324063e-04 +0.0000000000000000e+00 +9.9999998337916685e-01
3.3499999999999961e+00 +8.5976900464290154e+00 +0.0000000000000000e+00 +3.3499999808796854e+00 -1.8508789450817842e-04 +0.0000000000000000e+00 +9.9999998287123537e-01
3.3999999999999959e+00 +8.5976807229089207e+00 +0.0000000000000000e+00 +3.3999999800103891e+00 -1.8785292773163554e-04 +0.0000000000000000e+00 +9.9999998235563847e-01
3.4499999999999957e+00 +8.5976712611343871e+00 +0.0000000000000000e+00 +3.4499999791151215e+00 -1.9061807229795726e-04 +0.0000000000000000e+00 +9.9999998183237493e-01
3.4999999999999956e+00 +8.5976616610998118e+00 +0.0000000000000000e+00 +3.4999999781934990e+00 -1.9338332964066038e-04 +0.0000000000000000e+00 +9.9999998130144352e-01
3.5499999999999954e+00 +8.5976519227995194e+00 +0.0000000000000000e+00 +3.5499999772451383e+00 -1.9614870118243332e-04 +0.0000000000000000e+00 +9.9999998076284313e-01
3.5999999999999952e+00 +8.5976420462277670e+00 +0.0000000000000000e+00 +3.5999999762696557e+00 -1.9891418833513605e-04 +0.0000000000000000e+00 +9.9999998021657244e-01
3.6499999999999950e+00 +8.5976320313787369e+00 +0.0000000000000000e+00 +3.6499999752666676e+00 -2.0167979249980018e-04 +0.0000000000000000e+00 +9.9999997966263021e-01
3.6999999999999948e+00 +8.5976218782465441e+00 +0.0000000000000000e+00 +3.6999999742357907e+00 -2.0444551506662893e-04 +0.0000000000000000e+00 +9.9999997910101524e-01
3.7499999999999947e+00 +8.5976115868252343e+00 +0.0000000000000000e+00 +3.7499999731766414e+00 -2.0721135741499718e-04 +0.0000000000000000e+00 +9.9999997853172617e-01
3.7999999999999945e+00 +8.5976011571087838e+00 +0.0000000000000000e+00 +3.7999999720888353e+00 -2.0997732091345141e-04 +0.0000000000000000e+00 +9.9999997795476181e-01
3.8499999999999943e+00 +8.5975905890911015e+00 +0.0000000000000000e+00 +3.8499999709719894e+00 -2.1274340691970978e-04 +0.0000000000000000e+00 +9.9999997737012081e-01
3.8999999999999941e+00 +8.5975798827660270e+00 +0.0000000000000000e+00 +3.8999999698257195e+00 -2.1550961678066212e-04 +0.0000000000000000e+00 +9.9999997677780195e-01
3.9499999999999940e+00 +8.5975690381273360e+00 +0.0000000000000000e+00 +3.9499999686496414e+00 -2.1827595183236990e-04 +0.0000000000000000e+00 +9.9999997617780378e-01
3.9999999999999938e+00 +8.5975580551687347e+00 +0.0000000000000000e+00 +3.9999999674433715e+00 -2.2104241340006628e-04 +0.0000000000000000e+00 +9.9999997557012510e-01
4.0499999999999936e+00 +8.5975469338838657e+00 +0.0000000000000000e+00 +4.0499999662065260e+00 -2.2380900279806383e-04 +0.0000000000000000e+00 +9.9999997495476445e-01
4.0999999999999934e+00 +8.5975356742663038e+00 +0.0000000000000000e+00 +4.0999999649387204e+00 -2.2657572132874006e-04 +0.0000000000000000e+00 +9.9999997433172050e-01
4.1499999999999932e+00 +8.5975242763095601e+00 +0.0000000000000000e+00 +4.1499999636395701e+00 -2.2934257028152274e-04 +0.0000000000000000e+00 +9.9999997370099192e-01
4.1999999999999931e+00 +8.5975127400070814e+00 +0.0000000000000000e+00 +4.1999999623086914e+00 -2.3210955093279782e-04 +0.0000000000000000e+00 +9.9999997306257737e-01
4.2499999999999929e+00 +8.5975010653522510e+00 +0.0000000000000000e+00 +4.2499999609456998e+00 -2.3487666454590929e-04 +0.0000000000000000e+00 +9.9999997241647542e-01
4.2999999999999927e+00 +8.5974892523383897e+00 +0.0000000000000000e+00 +4.2999999595502105e+00 -2.3764391237115934e-04 +0.0000000000000000e+00 +9.9999997176268463e-01
4.3499999999999925e+00 +8.5974773009587562e+00 +0.0000000000000000e+00 +4.3499999581218400e+00 -2.4041129564580826e-04 +0.0000000000000000e+00 +9.9999997110120364e-01
4.3999999999999924e+00 +8.5974652112065471e+00 +0.0000000000000000e+00 +4.3999999566602028e+00 -2.4317881559407452e-04 +0.0000000000000000e+00 +9.9999997043203104e-01
4.4499999999999922e+00 +8.5974529830748985e+00 +0.0000000000000000e+00 +4.4499999551649152e+00 -2.4594647342713471e-04 +0.0000000000000000e+00 +9.9999996975516525e-01
4.4999999999999920e+00 +8.5974406165568862e+00 +0.0000000000000000e+00 +4.4999999536355917e+00 -2.4871427034312368e-04 +0.0000000000000000e+00 +9.9999996907060495e-01
4.5499999999999918e+00 +8.5974281116455256e+00 +0.0000000000000000e+00 +4.5499999520718477e+00 -2.5148220752713434e-04 +0.0000000000000000e+00 +9.9999996837834870e-01
4.5999999999999917e+00 +8.5974154683337751e+00 +0.0000000000000000e+00 +4.5999999504732987e+00 -2.5425028615121787e-04 +0.0000000000000000e+00 +9.9999996767839505e-01
4.6499999999999915e+00 +8.5974026866145330e+00 +0.0000000000000000e+00 +4.6499999488395591e+00 -2.5701850737438363e-04 +0.0000000000000000e+00 +9.9999996697074245e-01
4.6999999999999913e+00 +8.5973897664806422e+00 +0.0000000000000000e+00 +4.6999999471702445e+00 -2.5978687234259911e-04 +0.0000000000000000e+00 +9.9999996625538945e-01
4.7499999999999911e+00 +8.5973767079248855e+00 +0.0000000000000000e+00 +4.7499999454649693e+00 -2.6255538218879004e-04 +0.0000000000000000e+00 +9.9999996553233461e-01
4.7999999999999909e+00 +8.5973635109399904e+00 +0.0000000000000000e+00 +4.7999999437233489e+00 -2.6532403803284033e-04 +0.0000000000000000e+00 +9.9999996480157638e-01
4.8499999999999908e+00 +8.5973501755186295e+00 +0.0000000000000000e+00 +4.8499999419449979e+00 -2.6809284098159208e-04 +0.0000000000000000e+00 +9.9999996406311320e-01
4.8999999999999906e+00 +8.5973367016534219e+00 +0.0000000000000000e+00 +4.8999999401295318e+00 -2.7086179212884565e-04 +0.0000000000000000e+00 +9.9999996331694363e-01
4.9499999999999904e+00 +8.5973230893369283e+00 +0.0000000000000000e+00 +4.9499999382765640e+00 -2.7363089255535950e-04 +0.0000000000000000e+00 +9.9999996256306611e-01
4.9999999999999902e+00 +8.5973093385616597e+00 +0.0000000000000000e+00 +4.9999999363857102e+00 -2.7640014332885036e-04 +0.0000000000000000e+00 +9.9999996180147910e-01
5.0499999999999901e+00 +8.5972954493200717e+00 +0.0000000000000000e+00 +5.0499999344565838e+00 -2.7916954550399312e-04 +0.0000000000000000e+00 +9.9999996103218114e-01
5.0999999999999899e+00 +8.5972814216045688e+00 +0.0000000000000000e+00 +5.0999999324887995e+00 -2.8193910012242081e-04 +0.0000000000000000e+00 +9.9999996025517057e-01
5.1499999999999897e+00 +8.5972672554075018e+00 +0.0000000000000000e+00 +5.1499999304819717e+00 -2.8470880821272472e-04 +0.0000000000000000e+00 +9.9999995947044584e-01
5.1999999999999895e+00 +8.5972529507211721e+00 +0.0000000000000000e+00 +5.1999999284357150e+00 -2.8747867079045430e-04 +0.0000000000000000e+00 +9.9999995867800551e-01
5.2499999999999893e+00 +8.5972385075378313e+00 +0.0000000000000000e+00 +5.2499999263496431e+00 -2.9024868885811714e-04 +0.0000000000000000e+00 +9.9999995787784790e-01
5.2999999999999892e+00 +8.5972239258496792e+00 +0.0000000000000000e+00 +5.2999999242233704e+00 -2.9301886340517898e-04 +0.0000000000000000e+00 +9.9999995706997136e-01
5.3499999999999890e+00 +8.5972092056488663e+00 +0.0000000000000000e+00 +5.3499999220565115e+00 -2.9578919540806372e-04 +0.0000000000000000e+00 +9.9999995625437443e-01
5.3999999999999888e+00 +8.5971943469274965e+00 +0.0000000000000000e+00 +5.3999999198486792e+00 -2.9855968583015346e-04 +0.0000000000000000e+00 +9.9999995543105547e-01
5.4499999999999886e+00 +8.5971793496776261e+00 +0.0000000000000000e+00 +5.4499999175994880e+00 -3.0133033562178838e-04 +0.0000000000000000e+00 +9.9999995460001290e-01
5.4999999999999885e+00 +8.5971642138912632e+00 +0.0000000000000000e+00 +5.4999999153085515e+00 -3.0410114572026673e-04 +0.0000000000000000e+00 +9.9999995376124506e-01
5.5499999999999883e+00 +8.5971489395603680e+00 +0.0000000000000000e+00 +5.5499999129754833e+00 -3.0687211704984494e-04 +0.0000000000000000e+00 +9.9999995291475030e-01
5.5999999999999881e+00 +8.5971335266768563e+00 +0.0000000000000000e+00 +5.5999999105998972e+00 -3.0964325052173749e-04 +0.0000000000000000e+00 +9.9999995206052705e-01
5.6499999999999879e+00 +8.5971179752325977e+00 +0.0000000000000000e+00 +5.6499999081814067e+00 -3.1241454703411696e-04 +0.0000000000000000e+00 +9.9999995119857366e-01
5.6999999999999877e+00 +8.5971022852194192e+00 +0.0000000000000000e+00 +5.6999999057196256e+00 -3.1518600747211398e-04 +0.0000000000000000e+00 +9.9999995032888855e-01
5.7499999999999876e+00 +8.5970864566291034e+00 +0.0000000000000000e+00 +5.7499999032141664e+00 -3.1795763270781724e-04 +0.0000000000000000e+00 +9.9999994945147008e-01
5.7999999999999874e+00 +8.5970704894533885e+00 +0.0000000000000000e+00 +5.7999999006646430e+00 -3.2072942360027347e-04 +0.0000000000000000e+00 +9.9999994856631658e-01
5.8499999999999872e+00 +8.5970543836839699e+00 +0.0000000000000000e+00 +5.8499998980706689e+00 -3.2350138099548729e-04 +0.0000000000000000e+00 +9.9999994767342637e-01
5.8999999999999870e+00 +8.5970381393125006e+00 +0.0000000000000000e+00 +5.8999998954318569e+00 -3.2627350572642149e-04 +0.0000000000000000e+00 +9.9999994677279780e-01
