# field on trajectory
# s[mm] rx[mm] ry[mm] rz[mm] bx[T] by[T] bz[T]
0.0000000000000000e+00 +8.3650000000000002e+00 +0.0000000000000000e+00 +0.0000000000000000e+00 -2.8871429625327939e-02 -5.5455163828008203e-01 +5.3572995205200379e-03
-5.0000000000000003e-02 +8.3649999309637799e+00 +0.0000000000000000e+00 -4.9999999999936449e-02 -2.8871264484174822e-02 -5.5455362807858288e-01 +5.3564940223244650e-03
-1.0000000000000001e-01 +8.3649997238547709e+00 +0.0000000000000000e+00 -9.9999999999491621e-02 -2.8871117262495315e-02 -5.5455598136255768e-01 +5.3556971744219469e-03
-1.5000000000000002e-01 +8.3649993786723886e+00 +0.0000000000000000e+00 -1.4999999999828423e-01 -2.8870987926475154e-02 -5.5455869705968464e-01 +5.3549089859682387e-03
-2.0000000000000001e-01 +8.3649988954159582e+00 +0.0000000000000000e+00 -1.9999999999593299e-01 -2.8870876442300502e-02 -5.5456177409765850e-01 +5.3541294661195171e-03
-2.5000000000000000e-01 +8.3649982740847122e+00 +0.0000000000000000e+00 -2.4999999999205658e-01 -2.8870782776157931e-02 -5.5456521140418980e-01 +5.3533586240323882e-03
-2.9999999999999999e-01 +8.3649975146777944e+00 +0.0000000000000000e+00 -2.9999999998627369e-01 -2.8870706894234491e-02 -5.5456900790700592e-01 +5.3525964688638863e-03
-3.4999999999999998e-01 +8.3649966171942598e+00 +0.0000000000000000e+00 -3.4999999997820302e-01 -2.8870648762717572e-02 -5.5457316253384947e-01 +5.3518430097714590e-03
-3.9999999999999997e-01 +8.3649955816330746e+00 +0.0000000000000000e+00 -3.9999999996746327e-01 -2.8870608347795063e-02 -5.5457767421247905e-01 +5.3510982559129856e-03
-4.4999999999999996e-01 +8.3649944079931160e+00 +0.0000000000000000e+00 -4.4999999995367307e-01 -2.8870585615655295e-02 -5.5458254187066880e-01 +5.3503622164467624e-03
-4.9999999999999994e-01 +8.3649930962731709e+00 +0.0000000000000000e+00 -4.9999999993645111e-01 -2.8870580532487002e-02 -5.5458776443620827e-01 +5.3496349005315068e-03
-5.4999999999999993e-01 +8.3649916464719389e+00 +0.0000000000000000e+00 -5.4999999991541593e-01 -2.8870593064479391e-02 -5.5459334083690315e-01 +5.3489163173263601e-03
-5.9999999999999998e-01 +8.3649900585880328e+00 +0.0000000000000000e+00 -5.9999999989018626e-01 -2.8870623177822161e-02 -5.5459927000057385e-01 +5.3482064759908833e-03
-6.5000000000000002e-01 +8.3649883326199745e+00 +0.0000000000000000e+00 -6.4999999986038071e-01 -2.8870670838705419e-02 -5.5460555085505614e-01 +5.3475053856850540e-03
-7.0000000000000007e-01 +8.3649864685662028e+00 +0.0000000000000000e+00 -6.9999999982561789e-01 -2.8870736013319808e-02 -5.5461218232820186e-01 +5.3468130555692737e-03
-7.5000000000000011e-01 +8.3649844664250654e+00 +0.0000000000000000e+00 -7.4999999978551635e-01 -2.8870818667856343e-02 -5.5461916334787553e-01 +5.3461294948043483e-03
-8.0000000000000016e-01 +8.3649823261948235e+00 +0.0000000000000000e+00 -7.9999999973969460e-01 -2.8870918768506653e-02 -5.5462649284195942e-01 +5.3454547125515242e-03
-8.5000000000000020e-01 +8.3649800478736527e+00 +0.0000000000000000e+00 -8.4999999968777118e-01 -2.8871036281462738e-02 -5.5463416973834878e-01 +5.3447887179724415e-03
-9.0000000000000024e-01 +8.3649776314596416e+00 +0.0000000000000000e+00 -8.9999999962936472e-01 -2.8871171172917147e-02 -5.5464219296495365e-01 +5.3441315202291690e-03
-9.5000000000000029e-01 +8.3649750769507936e+00 +0.0000000000000000e+00 -9.4999999956409364e-01 -2.8871323409062923e-02 -5.5465056144969960e-01 +5.3434831284841907e-03
-1.0000000000000002e+00 +8.3649723843450232e+00 +0.0000000000000000e+00 -9.9999999949157647e-01 -2.8871492956093592e-02 -5.5465927412052551e-01 +5.3428435519003951e-03
-1.0500000000000003e+00 +8.3649695536401634e+00 +0.0000000000000000e+00 -1.0499999994114317e+00 -2.8871679780203212e-02 -5.5466832990538584e-01 +5.3422127996410988e-03
-1.1000000000000003e+00 +8.3649665848339581e+00 +0.0000000000000000e+00 -1.0999999993232779e+00 -2.8871883847586346e-02 -5.5467772773224855e-01 +5.3415908808700204e-03
-1.1500000000000004e+00 +8.3649634779240678e+00 +0.0000000000000000e+00 -1.1499999992267331e+00 -2.8872105124438052e-02 -5.5468746652909562e-01 +5.3409778047512919e-03
-1.2000000000000004e+00 +8.3649602329080679e+00 +0.0000000000000000e+00 -1.1999999991214159e+00 -2.8872343576953969e-02 -5.5469754522392323e-01 +5.3403735804494670e-03
-1.2500000000000004e+00 +8.3649568497834483e+00 +0.0000000000000000e+00 -1.2499999990069446e+00 -2.8872599171330220e-02 -5.5470796274474143e-01 +5.3397782171294957e-03
-1.3000000000000005e+00 +8.3649533285476174e+00 +0.0000000000000000e+00 -1.2999999988829376e+00 -2.8872871873763497e-02 -5.5471871801957473e-01 +5.3391917239567540e-03
-1.3500000000000005e+00 +8.3649496691978946e+00 +0.0000000000000000e+00 -1.3499999987490132e+00 -2.8873161650451017e-02 -5.5472980997646049e-01 +5.3386141100970150e-03
-1.4000000000000006e+00 +8.3649458717315195e+00 +0.0000000000000000e+00 -1.3999999986047897e+00 -2.8873468467590528e-02 -5.5474123754344995e-01 +5.3380453847164709e-03
-1.4500000000000006e+00 +8.3649419361456481e+00 +0.0000000000000000e+00 -1.4499999984498855e+00 -2.8873792291380374e-02 -5.5475299964860791e-01 +5.3374855569817128e-03
-1.5000000000000007e+00 +8.3649378624373512e+00 +0.0000000000000000e+00 -1.4999999982839185e+00 -2.8874133088019432e-02 -5.5476509522001238e-01 +5.3369346360597463e-03
-1.5500000000000007e+00 +8.3649336506036160e+00 +0.0000000000000000e+00 -1.5499999981065071e+00 -2.8874490823707150e-02 -5.5477752318575457e-01 +5.3363926311179805e-03
-1.6000000000000008e+00 +8.3649293006413501e+00 +0.0000000000000000e+00 -1.5999999979172694e+00 -2.8874865464643563e-02 -5.5479028247393958e-01 +5.3358595513242372e-03
-1.6500000000000008e+00 +8.3649248125473754e+00 +0.0000000000000000e+00 -1.6499999977158237e+00 -2.8875256977029234e-02 -5.5480337201268415e-01 +5.3353354058467339e-03
-1.7000000000000008e+00 +8.3649201863184341e+00 +0.0000000000000000e+00 -1.6999999975017879e+00 -2.8875665327065377e-02 -5.5481679073011947e-01 +5.3348202038541017e-03
-1.7500000000000009e+00 +8.3649154219511832e+00 +0.0000000000000000e+00 -1.7499999972747800e+00 -2.8876090480953739e-02 -5.5483053755438849e-01 +5.3343139545153715e-03
-1.8000000000000009e+00 +8.3649105194422013e+00 +0.0000000000000000e+00 -1.7999999970344180e+00 -2.8876532404896686e-02 -5.5484461141364683e-01 +5.3338166669999803e-03
-1.8500000000000010e+00 +8.3649054787879855e+00 +0.0000000000000000e+00 -1.8499999967803202e+00 -2.8876991065097189e-02 -5.5485901123606374e-01 +5.3333283504777658e-03
-1.9000000000000010e+00 +8.3649002999849493e+00 +0.0000000000000000e+00 -1.8999999965121044e+00 -2.8877466427758819e-02 -5.5487373594981970e-01 +5.3328490141189740e-03
-1.9500000000000011e+00 +8.3648949830294264e+00 +0.0000000000000000e+00 -1.9499999962293884e+00 -2.8877958459085733e-02 -5.5488878448310874e-01 +5.3323786670942423e-03
-2.0000000000000009e+00 +8.3648895279176703e+00 +0.0000000000000000e+00 -1.9999999959317900e+00 -2.8878467125282727e-02 -5.5490415576413599e-01 +5.3319173185746166e-03
-2.0500000000000007e+00 +8.3648839346458548e+00 +0.0000000000000000e+00 -2.0499999956189270e+00 -2.8878992380194458e-02 -5.5491984854106058e-01 +5.3314649743989428e-03
-2.1000000000000005e+00 +8.3648782032100719e+00 +0.0000000000000000e+00 -2.0999999952904176e+00 -2.8879534128223073e-02 -5.5493586084181490e-01 +5.3310216270760109e-03
-2.1500000000000004e+00 +8.3648723336063355e+00 +0.0000000000000000e+00 -2.1499999949458792e+00 -2.8880092261411090e-02 -5.5495219051428346e-01 +5.3305872657823158e-03
-2.2000000000000002e+00 +8.3648663258305795e+00 +0.0000000000000000e+00 -2.1999999945849296e+00 -2.8880666671802183e-02 -5.5496883540636166e-01 +5.3301618796946443e-03
-2.2500000000000000e+00 +8.3648601798786597e+00 +0.0000000000000000e+00 -2.2499999942071862e+00 -2.8881257251441216e-02 -5.5498579336595488e-01 +5.3297454579900559e-03
-2.2999999999999998e+00 +8.3648538957463536e+00 +0.0000000000000000e+00 -2.2999999938122673e+00 -2.8881863892374297e-02 -5.5500306224097951e-01 +5.3293379898458927e-03
-2.3499999999999996e+00 +8.3648474734293625e+00 +0.0000000000000000e+00 -2.3499999933997899e+00 -2.8882486486648845e-02 -5.5502063987936201e-01 +5.3289394644397674e-03
-2.3999999999999995e+00 +8.3648409129233112e+00 +0.0000000000000000e+00 -2.3999999929693718e+00 -2.8883124926313574e-02 -5.5503852412903898e-01 +5.3285498709495522e-03
-2.4499999999999993e+00 +8.3648342142237446e+00 +0.0000000000000000e+00 -2.4499999925206302e+00 -2.8883779103418536e-02 -5.5505671283795621e-01 +5.3281691985533706e-03
-2.4999999999999991e+00 +8.3648273773261348e+00 +0.0000000000000000e+00 -2.4999999920531826e+00 -2.8884448910015185e-02 -5.5507520385407039e-01 +5.3277974364296047e-03
-2.5499999999999989e+00 +8.3648204022258792e+00 +0.0000000000000000e+00 -2.5499999915666463e+00 -2.8885134238156390e-02 -5.5509399502534640e-01 +5.3274345737568717e-03
-2.5999999999999988e+00 +8.3648132889182989e+00 +0.0000000000000000e+00 -2.5999999910606388e+00 -2.8885834979896493e-02 -5.5511308419976046e-01 +5.3270805997140238e-03
-2.6499999999999986e+00 +8.3648060373986404e+00 +0.0000000000000000e+00 -2.6499999905347775e+00 -2.8886551027291291e-02 -5.5513246922529569e-01 +5.3267355034801438e-03
-2.6999999999999984e+00 +8.3647986476620773e+00 +0.0000000000000000e+00 -2.6999999899886795e+00 -2.8887282272398146e-02 -5.5515214794994583e-01 +5.3263992742345360e-03
-2.7499999999999982e+00 +8.3647911197037104e+00 +0.0000000000000000e+00 -2.7499999894219620e+00 -2.8888028607275937e-02 -5.5517211822171286e-01 +5.3260719011567212e-03
-2.7999999999999980e+00 +8.3647834535185677e+00 +0.0000000000000000e+00 -2.7999999888342422e+00 -2.8888789923985216e-02 -5.5519237788860787e-01 +5.3257533734264260e-03
-2.8499999999999979e+00 +8.3647756491016043e+00 +0.0000000000000000e+00 -2.8499999882251368e+00 -2.8889566114588077e-02 -5.5521292479865036e-01 +5.3254436802235789e-03
-2.8999999999999977e+00 +8.3647677064477062e+00 +0.0000000000000000e+00 -2.8999999875942635e+00 -2.8890357071148346e-02 -5.5523375679986742e-01 +5.3251428107283019e-03
-2.9499999999999975e+00 +8.3647596255516845e+00 +0.0000000000000000e+00 -2.9499999869412386e+00 -2.8891162685731529e-02 -5.5525487174029564e-01 +5.3248507541209114e-03
-2.9999999999999973e+00 +8.3647514064082831e+00 +0.0000000000000000e+00 -2.9999999862656797e+00 -2.8891982850404882e-02 -5.5527626746797853e-01 +5.3245674995818964e-03
-3.0499999999999972e+00 +8.3647430490121764e+00 +0.0000000000000000e+00 -3.0499999855672031e+00 -2.8892817457237385e-02 -5.5529794183096792e-01 +5.3242930362919277e-03
-3.0999999999999970e+00 +8.3647345533579660e+00 +0.0000000000000000e+00 -3.0999999848454256e+00 -2.8893666398299916e-02 -5.5531989267732329e-01 +5.3240273534318370e-03
-3.1499999999999968e+00 +8.3647259194401880e+00 +0.0000000000000000e+00 -3.1499999840999644e+00 -2.8894529565665121e-02 -5.5534211785511134e-01 +5.3237704401826206e-03
-3.1999999999999966e+00 +8.3647171472533088e+00 +0.0000000000000000e+00 -3.1999999833304358e+00 -2.8895406851407568e-02 -5.5536461521240688e-01 +5.3235222857254336e-03
-3.2499999999999964e+00 +8.3647082367917260e+00 +0.0000000000000000e+00 -3.2499999825364565e+00 -2.8896298147603711e-02 -5.5538738259729048e-01 +5.3232828792415697e-03
-3.2999999999999963e+00 +8.3646991880497730e+00 +0.0000000000000000e+00 -3.2999999817176433e+00 -2.8897203346331980e-02 -5.5541041785785117e-01 +5.3230522099124693e-03
-3.3499999999999961e+00 +8.3646900010217120e+00 +0.0000000000000000e+00 -3.3499999808736125e+00 -2.8898122339672785e-02 -5.5543371884218407e-01 +5.3228302669197074e-03
-3.3999999999999959e+00 +8.3646806757017433e+00 +0.0000000000000000e+00 -3.3999999800039804e+00 -2.8899055019708530e-02 -5.5545728339839084e-01 +5.3226170394449802e-03
-3.4499999999999957e+00 +8.3646712120839997e+00 +0.0000000000000000e+00 -3.4499999791083638e+00 -2.8900001278523723e-02 -5.5548110937457973e-01 +5.3224125166701141e-03
-3.4999999999999956e+00 +8.3646616101625497e+00 +0.0000000000000000e+00 -3.4999999781863789e+00 -2.8900961008204912e-02 -5.5550519461886561e-01 +5.3222166877770361e-03
-3.5499999999999954e+00 +8.3646518699313965e+00 +0.0000000000000000e+00 -3.5499999772376420e+00 -2.8901934100840816e-02 -5.5552953697936902e-01 +5.3220295419477920e-03
-3.5999999999999952e+00 +8.3646419913844792e+00 +0.0000000000000000e+00 -3.5999999762617692e+00 -2.8902920448522287e-02 -5.5555413430421674e-01 +5.3218510683645257e-03
-3.6499999999999950e+00 +8.3646319745156728e+00 +0.0000000000000000e+00 -3.6499999752583765e+00 -2.8903919943342380e-02 -5.5557898444154097e-01 +5.3216812562094668e-03
-3.6999999999999948e+00 +8.3646218193187902e+00 +0.0000000000000000e+00 -3.6999999742270804e+00 -2.8904932477396398e-02 -5.5560408523948013e-01 +5.3215200946649423e-03
-3.7499999999999947e+00 +8.3646115257875842e+00 +0.0000000000000000e+00 -3.7499999731674967e+00 -2.8905957942781890e-02 -5.5562943454617730e-01 +5.3213675729133500e-03
-3.7999999999999945e+00 +8.3646010939157414e+00 +0.0000000000000000e+00 -3.7999999720792412e+00 -2.8906996231598731e-02 -5.5565503020978202e-01 +5.3212236801371687e-03
-3.8499999999999943e+00 +8.3645905236968900e+00 +0.0000000000000000e+00 -3.8499999709619299e+00 -2.8908047235949121e-02 -5.5568087007844769e-01 +5.3210884055189395e-03
-3.8999999999999941e+00 +8.3645798151245963e+00 +0.0000000000000000e+00 -3.8999999698151786e+00 -2.8909110847937632e-02 -5.5570695200033315e-01 +5.3209617382412623e-03
-3.9499999999999940e+00 +8.3645689681923656e+00 +0.0000000000000000e+00 -3.9499999686386031e+00 -2.8910186959671246e-02 -5.5573327382360183e-01 +5.3208436674867928e-03
-3.9999999999999938e+00 +8.3645579828936452e+00 +0.0000000000000000e+00 -3.9999999674318194e+00 -2.8911275463259410e-02 -5.5575983339642232e-01 +5.3207341824382326e-03
-4.0499999999999936e+00 +8.3645468592218215e+00 +0.0000000000000000e+00 -4.0499999661944424e+00 -2.8912376240535515e-02 -5.5578662848012872e-01 +5.3206332661401047e-03
-4.0999999999999934e+00 +8.3645355971702244e+00 +0.0000000000000000e+00 -4.0999999649260879e+00 -2.8913489132220058e-02 -5.5581365648870651e-01 +5.3205408770841834e-03
-4.1499999999999932e+00 +8.3645241967321251e+00 +0.0000000000000000e+00 -4.1499999636263718e+00 -2.8914613968753566e-02 -5.5584091474930220e-01 +5.3204569676243334e-03
-4.1999999999999931e+00 +8.3645126579007361e+00 +0.0000000000000000e+00 -4.1999999622949096e+00 -2.8915750580574755e-02 -5.5586840058906362e-01 +5.3203814901147959e-03
-4.2499999999999929e+00 +8.3645009806692148e+00 +0.0000000000000000e+00 -4.2499999609313166e+00 -2.8916898798120393e-02 -5.5589611133513728e-01 +5.3203143969101727e-03
-4.2999999999999927e+00 +8.3644891650306601e+00 +0.0000000000000000e+00 -4.2999999595352074e+00 -2.8918058451825220e-02 -5.5592404431466858e-01 +5.3202556403654519e-03
-4.3499999999999925e+00 +8.3644772109781194e+00 +0.0000000000000000e+00 -4.3499999581061974e+00 -2.8919229372121848e-02 -5.5595219685480335e-01 +5.3202051728359883e-03
-4.3999999999999924e+00 +8.3644651185045831e+00 +0.0000000000000000e+00 -4.3999999566439021e+00 -2.8920411389440692e-02 -5.5598056628268533e-01 +5.3201629466775252e-03
-4.4499999999999922e+00 +8.3644528876029867e+00 +0.0000000000000000e+00 -4.4499999551479368e+00 -2.8921604334209830e-02 -5.5600914992545625e-01 +5.3201289142461878e-03
-4.4999999999999920e+00 +8.3644405182662140e+00 +0.0000000000000000e+00 -4.4999999536179160e+00 -2.8922808036854913e-02 -5.5603794511025739e-01 +5.3201030278984913e-03
-4.5499999999999918e+00 +8.3644280104870976e+00 +0.0000000000000000e+00 -4.5499999520534544e+00 -2.8924022327799143e-02 -5.5606694916422617e-01 +5.3200852399913354e-03
-4.5999999999999917e+00 +8.3644153642584147e+00 +0.0000000000000000e+00 -4.5999999504541673e+00 -2.8925247037463075e-02 -5.5609615941449919e-01 +5.3200755028820308e-03
-4.6499999999999915e+00 +8.3644025795728929e+00 +0.0000000000000000e+00 -4.6499999488196693e+00 -2.8926481996264596e-02 -5.5612557318820954e-01 +5.3200737689282742e-03
-4.6999999999999913e+00 +8.3643896564232083e+00 +0.0000000000000000e+00 -4.6999999471495757e+00 -2.8927727034618784e-02 -5.5615518781248752e-01 +5.3200799904881682e-03
-4.7499999999999911e+00 +8.3643765948019873e+00 +0.0000000000000000e+00 -4.7499999454435002e+00 -2.8928981982937845e-02 -5.5618500061445952e-01 +5.3200941199202170e-03
-4.7999999999999909e+00 +8.3643633947018081e+00 +0.0000000000000000e+00 -4.7999999437010574e+00 -2.8930246671631001e-02 -5.5621500892124953e-01 +5.3201161095833447e-03
-4.8499999999999908e+00 +8.3643500561151995e+00 +0.0000000000000000e+00 -4.8499999419218627e+00 -2.8931520931104408e-02 -5.5624521005997707e-01 +5.3201459118368769e-03
-4.8999999999999906e+00 +8.3643365790346422e+00 +0.0000000000000000e+00 -4.8999999401055296e+00 -2.8932804591761029e-02 -5.5627560135775678e-01 +5.3201834790405625e-03
-4.9499999999999904e+00 +8.3643229634525689e+00 +0.0000000000000000e+00 -4.9499999382516728e+00 -2.8934097484000589e-02 -5.5630618014170041e-01 +5.3202287635545674e-03
-4.9999999999999902e+00 +8.3643092093613678e+00 +0.0000000000000000e+00 -4.9999999363599068e+00 -2.8935399438219447e-02 -5.5633694373891396e-01 +5.3202817177394821e-03
-5.0499999999999901e+00 +8.3642953167533776e+00 +0.0000000000000000e+00 -5.0499999344298452e+00 -2.8936710284810489e-02 -5.5636788947649807e-01 +5.3203422939563198e-03
-5.0999999999999899e+00 +8.3642812856208941e+00 +0.0000000000000000e+00 -5.0999999324611025e+00 -2.8938029854163078e-02 -5.5639901468154940e-01 +5.3204104445665305e-03
-5.1499999999999897e+00 +8.3642671159561690e+00 +0.0000000000000000e+00 -5.1499999304532924e+00 -2.8939357976662888e-02 -5.5643031668115728e-01 +5.3204861219319950e-03
-5.1999999999999895e+00 +8.3642528077514076e+00 +0.0000000000000000e+00 -5.1999999284060294e+00 -2.8940694482691928e-02 -5.5646179280240693e-01 +5.3205692784150296e-03
-5.2499999999999893e+00 +8.3642383609987743e+00 +0.0000000000000000e+00 -5.2499999263189272e+00 -2.8942039202628299e-02 -5.5649344037237580e-01 +5.3206598663783937e-03
-5.2999999999999892e+00 +8.3642237756903892e+00 +0.0000000000000000e+00 -5.2999999241915994e+00 -2.8943391966846196e-02 -5.5652525671813624e-01 +5.3207578381852865e-03
-5.3499999999999890e+00 +8.3642090518183299e+00 +0.0000000000000000e+00 -5.3499999220236596e+00 -2.8944752605715780e-02 -5.5655723916675248e-01 +5.3208631461993611e-03
-5.3999999999999888e+00 +8.3641941893746345e+00 +0.0000000000000000e+00 -5.3999999198147215e+00 -2.8946120949603131e-02 -5.5658938504528266e-01 +5.3209757427847204e-03
-5.4499999999999886e+00 +8.3641791883512990e+00 +0.0000000000000000e+00 -5.4499999175643987e+00 -2.8947496828870052e-02 -5.5662169168077713e-01 +5.3210955803059167e-03
-5.4999999999999885e+00 +8.3641640487402800e+00 +0.0000000000000000e+00 -5.4999999152723040e+00 -2.8948880073874080e-02 -5.5665415640027927e-01 +5.3212226111279673e-03
-5.5499999999999883e+00 +8.3641487705334949e+00 +0.0000000000000000e+00 -5.5499999129380519e+00 -2.8950270514968336e-02 -5.5668677653082366e-01 +5.3213567876163491e-03
-5.5999999999999881e+00 +8.3641333537228224e+00 +0.0000000000000000e+00 -5.5999999105612552e+00 -2.8951667982501435e-02 -5.5671954939943691e-01 +5.3214980621370013e-03
-5.6499999999999879e+00 +8.3641177983001018e+00 +0.0000000000000000e+00 -5.6499999081415275e+00 -2.8953072306817366e-02 -5.5675247233313740e-01 +5.3216463870563325e-03
-5.6999999999999877e+00 +8.3641021042571371e+00 +0.0000000000000000e+00 -5.6999999056784816e+00 -2.8954483318255467e-02 -5.5678554265893421e-01 +5.3218017147412299e-03
-5.7499999999999876e+00 +8.3640862715856947e+00 +0.0000000000000000e+00 -5.7499999031717310e+00 -2.8955900847150291e-02 -5.5681875770382805e-01 +5.3219639975590483e-03
-5.7999999999999874e+00 +8.3640703002775041e+00 +0.0000000000000000e+00 -5.7999999006208878e+00 -2.8957324723831467e-02 -5.5685211479480923e-01 +5.3221331878776220e-03
-5.8499999999999872e+00 +8.3640541903242607e+00 +0.0000000000000000e+00 -5.8499998980255654e+00 -2.8958754778623690e-02 -5.5688561125885960e-01 +5.3223092380652766e-03
