# field on trajectory
# s[mm] rx[mm] ry[mm] rz[mm] bx[T] by[T] bz[T]
0.0000000000000000e+00 +8.3650000000000002e+00 +0.0000000000000000e+00 +0.0000000000000000e+00 -2.8958199698483993e-02 -5.5342820094197853e-01 +5.4615139550730409e-03
5.0000000000000003e-02 +8.3649999308007974e+00 +0.0000000000000000e+00 +4.9999999999936151e-02 -2.8958307279870966e-02 -5.5342822160872474e-01 +5.4626318510414803e-03
1.0000000000000001e-01 +8.3649997232031712e+00 +0.0000000000000000e+00 +9.9999999999489220e-02 -2.8958430523778649e-02 -5.5342860071777633e-01 +5.4637570057086303e-03
1.5000000000000002e-01 +8.3649993772070275e+00 +0.0000000000000000e+00 +1.4999999999827612e-01 -2.8958569488566361e-02 -5.5342933772732239e-01 +5.4648893506468801e-03
2.0000000000000001e-01 +8.3649988928121797e+00 +0.0000000000000000e+00 +1.9999999999591378e-01 -2.8958724232593581e-02 -5.5343043209556730e-01 +5.4660288174288385e-03
2.5000000000000000e-01 +8.3649982700183561e+00 +0.0000000000000000e+00 +2.4999999999201911e-01 -2.8958894814219961e-02 -5.5343188328073356e-01 +5.4671753376273492e-03
2.9999999999999999e-01 +8.3649975088251942e+00 +0.0000000000000000e+00 +2.9999999998620902e-01 -2.8959081291805418e-02 -5.5343369074105841e-01 +5.4683288428154708e-03
3.4999999999999998e-01 +8.3649966092322412e+00 +0.0000000000000000e+00 +3.4999999997810038e-01 -2.8959283723710198e-02 -5.5343585393479633e-01 +5.4694892645665042e-03
3.9999999999999997e-01 +8.3649955712389552e+00 +0.0000000000000000e+00 +3.9999999996731012e-01 -2.8959502168294834e-02 -5.5343837232021775e-01 +5.4706565344539671e-03
4.4999999999999996e-01 +8.3649943948447074e+00 +0.0000000000000000e+00 +4.4999999995345513e-01 -2.8959736683920264e-02 -5.5344124535560946e-01 +5.4718305840516183e-03
4.9999999999999994e-01 +8.3649930800487802e+00 +0.0000000000000000e+00 +4.9999999993615230e-01 -2.8959987328947823e-02 -5.5344447249927442e-01 +5.4730113449334376e-03
5.4999999999999993e-01 +8.3649916268503652e+00 +0.0000000000000000e+00 +5.4999999991501847e-01 -2.8960254161739311e-02 -5.5344805320953161e-01 +5.4741987486736348e-03
5.9999999999999998e-01 +8.3649900352485673e+00 +0.0000000000000000e+00 +5.9999999988967057e-01 -2.8960537240657034e-02 -5.5345198694471598e-01 +5.4753927268466557e-03
6.5000000000000002e-01 +8.3649883052424041e+00 +0.0000000000000000e+00 +6.4999999985972534e-01 -2.8960836624063832e-02 -5.5345627316317880e-01 +5.4765932110271767e-03
7.0000000000000007e-01 +8.3649864368308027e+00 +0.0000000000000000e+00 +6.9999999982479977e-01 -2.8961152370323113e-02 -5.5346091132328723e-01 +5.4778001327901041e-03
7.5000000000000011e-01 +8.3649844300126031e+00 +0.0000000000000000e+00 +7.4999999978451060e-01 -2.8961484537798957e-02 -5.5346590088342462e-01 +5.4790134237105784e-03
8.0000000000000016e-01 +8.3649822847865565e+00 +0.0000000000000000e+00 +7.9999999973847469e-01 -2.8961833184856067e-02 -5.5347124130198977e-01 +5.4802330153639767e-03
8.5000000000000020e-01 +8.3649800011513289e+00 +0.0000000000000000e+00 +8.4999999968630879e-01 -2.8962198369859866e-02 -5.5347693203739767e-01 +5.4814588393259003e-03
9.0000000000000024e-01 +8.3649775791054974e+00 +0.0000000000000000e+00 +8.9999999962762978e-01 -2.8962580151176524e-02 -5.5348297254807888e-01 +5.4826908271721946e-03
9.5000000000000029e-01 +8.3649750186475504e+00 +0.0000000000000000e+00 +9.4999999956205439e-01 -2.8962978587172995e-02 -5.5348936229247980e-01 +5.4839289104789378e-03
1.0000000000000002e+00 +8.3649723197758910e+00 +0.0000000000000000e+00 +9.9999999948919938e-01 -2.8963393736217116e-02 -5.5349610072906319e-01 +5.4851730208224439e-03
1.0500000000000003e+00 +8.3649694824888332e+00 +0.0000000000000000e+00 +1.0499999994086815e+00 -2.8963825656677517e-02 -5.5350318731630610e-01 +5.4864230897792533e-03
1.1000000000000003e+00 +8.3649665067846062e+00 +0.0000000000000000e+00 +1.0999999993201173e+00 -2.8964274406923788e-02 -5.5351062151270269e-01 +5.4876790489261614e-03
1.1500000000000004e+00 +8.3649633926613500e+00 +0.0000000000000000e+00 +1.1499999992231236e+00 -2.8964740045326492e-02 -5.5351840277676212e-01 +5.4889408298401865e-03
1.2000000000000004e+00 +8.3649601401171179e+00 +0.0000000000000000e+00 +1.1999999991173171e+00 -2.8965222630257175e-02 -5.5352653056700862e-01 +5.4902083640985880e-03
1.2500000000000004e+00 +8.3649567491498793e+00 +0.0000000000000000e+00 +1.2499999990023145e+00 -2.8965722220088391e-02 -5.5353500434198255e-01 +5.4914815832788682e-03
1.3000000000000005e+00 +8.3649532197575134e+00 +0.0000000000000000e+00 +1.2999999988777324e+00 -2.8966238873193832e-02 -5.5354382356023979e-01 +5.4927604189587672e-03
1.3500000000000005e+00 +8.3649495519378156e+00 +0.0000000000000000e+00 +1.3499999987431874e+00 -2.8966772647948284e-02 -5.5355298768035111e-01 +5.4940448027162615e-03
1.4000000000000006e+00 +8.3649457456884946e+00 +0.0000000000000000e+00 +1.3999999985982960e+00 -2.8967323602727694e-02 -5.5356249616090292e-01 +5.4953346661295683e-03
1.4500000000000006e+00 +8.3649418010071717e+00 +0.0000000000000000e+00 +1.4499999984426750e+00 -2.8967891795909209e-02 -5.5357234846049674e-01 +5.4966299407771431e-03
1.5000000000000007e+00 +8.3649377178913831e+00 +0.0000000000000000e+00 +1.4999999982759407e+00 -2.8968477285871277e-02 -5.5358254403775020e-01 +5.4979305582376946e-03
1.5500000000000007e+00 +8.3649334963385797e+00 +0.0000000000000000e+00 +1.5499999980977095e+00 -2.8969080130993575e-02 -5.5359308235129512e-01 +5.4992364500901633e-03
1.6000000000000008e+00 +8.3649291363461256e+00 +0.0000000000000000e+00 +1.5999999979075983e+00 -2.8969700389657141e-02 -5.5360396285977909e-01 +5.5005475479137306e-03
1.6500000000000008e+00 +8.3649246379113009e+00 +0.0000000000000000e+00 +1.6499999977052231e+00 -2.8970338120244389e-02 -5.5361518502186491e-01 +5.5018637832878288e-03
1.7000000000000008e+00 +8.3649200010312992e+00 +0.0000000000000000e+00 +1.6999999974902005e+00 -2.8970993381139103e-02 -5.5362674829622927e-01 +5.5031850877921232e-03
1.7500000000000009e+00 +8.3649152257032284e+00 +0.0000000000000000e+00 +1.7499999972621469e+00 -2.8971666230726612e-02 -5.5363865214156627e-01 +5.5045113930065389e-03
1.8000000000000009e+00 +8.3649103119241115e+00 +0.0000000000000000e+00 +1.7999999970206788e+00 -2.8972356727393667e-02 -5.5365089601658291e-01 +5.5058426305112330e-03
1.8500000000000010e+00 +8.3649052596908877e+00 +0.0000000000000000e+00 +1.8499999967654122e+00 -2.8973064929528572e-02 -5.5366347938000193e-01 +5.5071787318866127e-03
1.9000000000000010e+00 +8.3649000690004094e+00 +0.0000000000000000e+00 +1.8999999964959635e+00 -2.8973790895521247e-02 -5.5367640169056098e-01 +5.5085196287133287e-03
1.9500000000000011e+00 +8.3648947398494453e+00 +0.0000000000000000e+00 +1.9499999962119490e+00 -2.8974534683763199e-02 -5.5368966240701278e-01 +5.5098652525722843e-03
2.0000000000000009e+00 +8.3648892722346790e+00 +0.0000000000000000e+00 +1.9999999959129848e+00 -2.8975296352647624e-02 -5.5370326098812428e-01 +5.5112155350446213e-03
2.0500000000000007e+00 +8.3648836661527106e+00 +0.0000000000000000e+00 +2.0499999955986872e+00 -2.8976075905364544e-02 -5.5371719661778374e-01 +5.5125704060572066e-03
2.1000000000000005e+00 +8.3648779216000548e+00 +0.0000000000000000e+00 +2.0999999952686723e+00 -2.8976873124286023e-02 -5.5373146738031775e-01 +5.5139297889189674e-03
2.1500000000000004e+00 +8.3648720385731412e+00 +0.0000000000000000e+00 +2.1499999949225561e+00 -2.8977687736580108e-02 -5.5374607108517049e-01 +5.5152936052843297e-03
2.2000000000000002e+00 +8.3648660170683211e+00 +0.0000000000000000e+00 +2.1999999945599549e+00 -2.8978519469415771e-02 -5.5376100554179863e-01 +5.5166617768077414e-03
2.2500000000000000e+00 +8.3648598570818571e+00 +0.0000000000000000e+00 +2.2499999941804845e+00 -2.8979368049962793e-02 -5.5377626855967166e-01 +5.5180342251436422e-03
2.2999999999999998e+00 +8.3648535586099335e+00 +0.0000000000000000e+00 +2.2999999937837612e+00 -2.8980233205391798e-02 -5.5379185794827068e-01 +5.5194108719464697e-03
2.3499999999999996e+00 +8.3648471216486531e+00 +0.0000000000000000e+00 +2.3499999933694005e+00 -2.8981114662874233e-02 -5.5380777151708849e-01 +5.5207916388706185e-03
2.3999999999999995e+00 +8.3648405461940349e+00 +0.0000000000000000e+00 +2.3999999929370186e+00 -2.8982012149582320e-02 -5.5382400707562951e-01 +5.5221764475704574e-03
2.4499999999999993e+00 +8.3648338322420184e+00 +0.0000000000000000e+00 +2.4499999924862310e+00 -2.8982925392689110e-02 -5.5384056243341018e-01 +5.5235652197002955e-03
2.4999999999999991e+00 +8.3648269797884645e+00 +0.0000000000000000e+00 +2.4999999920166540e+00 -2.8983854119368407e-02 -5.5385743539995758e-01 +5.5249578769143819e-03
2.5499999999999989e+00 +8.3648199888291543e+00 +0.0000000000000000e+00 +2.5499999915279030e+00 -2.8984798056794808e-02 -5.5387462378481001e-01 +5.5263543408668866e-03
2.5999999999999988e+00 +8.3648128593597892e+00 +0.0000000000000000e+00 +2.5999999910195939e+00 -2.8985756932143628e-02 -5.5389212539751709e-01 +5.5277545332118854e-03
2.6499999999999986e+00 +8.3648055913759922e+00 +0.0000000000000000e+00 +2.6499999904913421e+00 -2.8986730472590972e-02 -5.5390993804763888e-01 +5.5291583756033576e-03
2.6999999999999984e+00 +8.3647981848733099e+00 +0.0000000000000000e+00 +2.6999999899427634e+00 -2.8987718405313615e-02 -5.5392805954474600e-01 +5.5305657896951663e-03
2.7499999999999982e+00 +8.3647906398472092e+00 +0.0000000000000000e+00 +2.7499999893734732e+00 -2.8988720457489112e-02 -5.5394648769841992e-01 +5.5319766971410446e-03
2.7999999999999980e+00 +8.3647829562930820e+00 +0.0000000000000000e+00 +2.7999999887830871e+00 -2.8989736356295669e-02 -5.5396522031825202e-01 +5.5333910195945850e-03
2.8499999999999979e+00 +8.3647751342062442e+00 +0.0000000000000000e+00 +2.8499999881712208e+00 -2.8990765828912208e-02 -5.5398425521384342e-01 +5.5348086787092273e-03
2.8999999999999977e+00 +8.3647671735819369e+00 +0.0000000000000000e+00 +2.8999999875374893e+00 -2.8991808602518321e-02 -5.5400359019480516e-01 +5.5362295961382414e-03
2.9499999999999975e+00 +8.3647590744153231e+00 +0.0000000000000000e+00 +2.9499999868815086e+00 -2.8992864404294289e-02 -5.5402322307075935e-01 +5.5376536935347245e-03
2.9999999999999973e+00 +8.3647508367014947e+00 +0.0000000000000000e+00 +2.9999999862028934e+00 -2.8993932961420998e-02 -5.5404315165133566e-01 +5.5390808925515813e-03
3.0499999999999972e+00 +8.3647424604354672e+00 +0.0000000000000000e+00 +3.0499999855012589e+00 -2.8995014001080024e-02 -5.5406337374617409e-01 +5.5405111148415041e-03
3.0999999999999970e+00 +8.3647339456121852e+00 +0.0000000000000000e+00 +3.0999999847762210e+00 -2.8996107250453526e-02 -5.5408388716492429e-01 +5.5419442820569828e-03
3.1499999999999968e+00 +8.3647252922265167e+00 +0.0000000000000000e+00 +3.1499999840273940e+00 -2.8997212436724321e-02 -5.5410468971724403e-01 +5.5433803158502649e-03
3.1999999999999966e+00 +8.3647165002732606e+00 +0.0000000000000000e+00 +3.1999999832543935e+00 -2.8998329287075787e-02 -5.5412577921280015e-01 +5.5448191378733597e-03
3.2499999999999964e+00 +8.3647075697471429e+00 +0.0000000000000000e+00 +3.2499999824568344e+00 -2.8999457528691937e-02 -5.5414715346126897e-01 +5.5462606697780246e-03
3.2999999999999963e+00 +8.3646985006428203e+00 +0.0000000000000000e+00 +3.2999999816343317e+00 -2.9000596888757314e-02 -5.5416881027233356e-01 +5.5477048332157435e-03
3.3499999999999961e+00 +8.3646892929548748e+00 +0.0000000000000000e+00 +3.3499999807865004e+00 -2.9001747094457065e-02 -5.5419074745568753e-01 +5.5491515498377253e-03
3.3999999999999959e+00 +8.3646799466778212e+00 +0.0000000000000000e+00 +3.3999999799129554e+00 -2.9002907872976845e-02 -5.5421296282103027e-01 +5.5506007412948824e-03
3.4499999999999957e+00 +8.3646704618061047e+00 +0.0000000000000000e+00 +3.4499999790133113e+00 -2.9004078951502896e-02 -5.5423545417807085e-01 +5.5520523292378211e-03
3.4999999999999956e+00 +8.3646608383341015e+00 +0.0000000000000000e+00 +3.4999999780871831e+00 -2.9005260057221958e-02 -5.5425821933652575e-01 +5.5535062353168352e-03
3.5499999999999954e+00 +8.3646510762561164e+00 +0.0000000000000000e+00 +3.5499999771341852e+00 -2.9006450917321288e-02 -5.5428125610611845e-01 +5.5549623811818778e-03
3.5999999999999952e+00 +8.3646411755663905e+00 +0.0000000000000000e+00 +3.5999999761539327e+00 -2.9007651258988638e-02 -5.5430456229658054e-01 +5.5564206884825638e-03
3.6499999999999950e+00 +8.3646311362590957e+00 +0.0000000000000000e+00 +3.6499999751460397e+00 -2.9008860809412264e-02 -5.5432813571765061e-01 +5.5578810788681522e-03
3.6999999999999948e+00 +8.3646209583283362e+00 +0.0000000000000000e+00 +3.6999999741101210e+00 -2.9010079295780890e-02 -5.5435197417907434e-01 +5.5593434739875259e-03
3.7499999999999947e+00 +8.3646106417681505e+00 +0.0000000000000000e+00 +3.7499999730457909e+00 -2.9011306445283703e-02 -5.5437607549060430e-01 +5.5608077954891963e-03
3.7999999999999945e+00 +8.3646001865725115e+00 +0.0000000000000000e+00 +3.7999999719526638e+00 -2.9012541985110329e-02 -5.5440043746199941e-01 +5.5622739650212673e-03
3.8499999999999943e+00 +8.3645895927353280e+00 +0.0000000000000000e+00 +3.8499999708303538e+00 -2.9013785642450850e-02 -5.5442505790302554e-01 +5.5637419042314489e-03
3.8999999999999941e+00 +8.3645788602504432e+00 +0.0000000000000000e+00 +3.8999999696784755e+00 -2.9015037144495770e-02 -5.5444993462345571e-01 +5.5652115347670219e-03
3.9499999999999940e+00 +8.3645679891116345e+00 +0.0000000000000000e+00 +3.9499999684966429e+00 -2.9016296218436009e-02 -5.5447506543306779e-01 +5.5666827782748342e-03
3.9999999999999938e+00 +8.3645569793126189e+00 +0.0000000000000000e+00 +3.9999999672844702e+00 -2.9017562591462855e-02 -5.5450044814164612e-01 +5.5681555564012913e-03
4.0499999999999936e+00 +8.3645458308470495e+00 +0.0000000000000000e+00 +4.0499999660415709e+00 -2.9018836031156792e-02 -5.5452608050383345e-01 +5.5696297906025370e-03
4.0999999999999934e+00 +8.3645345437085155e+00 +0.0000000000000000e+00 +4.0999999647675596e+00 -2.9020116466653763e-02 -5.5455196005368435e-01 +5.5711054015751636e-03
4.1499999999999932e+00 +8.3645231178905455e+00 +0.0000000000000000e+00 +4.1499999634620508e+00 -2.9021403867478198e-02 -5.5457808427010569e-01 +5.5725823098258433e-03
4.1999999999999931e+00 +8.3645115533866061e+00 +0.0000000000000000e+00 +4.1999999621246573e+00 -2.9022698203153955e-02 -5.5460445063200559e-01 +5.5740604358611584e-03
4.2499999999999929e+00 +8.3644998501901036e+00 +0.0000000000000000e+00 +4.2499999607549928e+00 -2.9023999443204281e-02 -5.5463105661829071e-01 +5.5755397001875963e-03
4.2999999999999927e+00 +8.3644880082943853e+00 +0.0000000000000000e+00 +4.2999999593526717e+00 -2.9025307557151787e-02 -5.5465789970786705e-01 +5.5770200233115578e-03
4.3499999999999925e+00 +8.3644760276927386e+00 +0.0000000000000000e+00 +4.3499999579173076e+00 -2.9026622514518381e-02 -5.5468497737963940e-01 +5.5785013257393535e-03
4.3999999999999924e+00 +8.3644639083783936e+00 +0.0000000000000000e+00 +4.3999999564485135e+00 -2.9027944284825264e-02 -5.5471228711251208e-01 +5.5799835279771890e-03
4.4499999999999922e+00 +8.3644516503445185e+00 +0.0000000000000000e+00 +4.4499999549459037e+00 -2.9029272837592879e-02 -5.5473982638538699e-01 +5.5814665505311955e-03
4.4999999999999920e+00 +8.3644392535842282e+00 +0.0000000000000000e+00 +4.4999999534090911e+00 -2.9030608142340816e-02 -5.5476759267716369e-01 +5.5829503139073885e-03
4.5499999999999918e+00 +8.3644267180905789e+00 +0.0000000000000000e+00 +4.5499999518376892e+00 -2.9031950168587877e-02 -5.5479558346674007e-01 +5.5844347386117066e-03
4.5999999999999917e+00 +8.3644140438565699e+00 +0.0000000000000000e+00 +4.5999999502313109e+00 -2.9033298885851939e-02 -5.5482379623301059e-01 +5.5859197451499799e-03
4.6499999999999915e+00 +8.3644012308751474e+00 +0.0000000000000000e+00 +4.6499999485895698e+00 -2.9034654263649987e-02 -5.5485222845486692e-01 +5.5874052540279473e-03
4.6999999999999913e+00 +8.3643882791392006e+00 +0.0000000000000000e+00 +4.6999999469120795e+00 -2.9036016271498037e-02 -5.5488087761119809e-01 +5.5888911857512559e-03
4.7499999999999911e+00 +8.3643751886415654e+00 +0.0000000000000000e+00 +4.7499999451984518e+00 -2.9037384878911079e-02 -5.5490974118088787e-01 +5.5903774608254434e-03
4.7999999999999909e+00 +8.3643619593750245e+00 +0.0000000000000000e+00 +4.7999999434483005e+00 -2.9038760055403057e-02 -5.5493881664281719e-01 +5.5918639997559524e-03
4.8499999999999908e+00 +8.3643485913323055e+00 +0.0000000000000000e+00 +4.8499999416612392e+00 -2.9040141770486874e-02 -5.5496810147586217e-01 +5.5933507230481279e-03
4.8999999999999906e+00 +8.3643350845060862e+00 +0.0000000000000000e+00 +4.8999999398368796e+00 -2.9041529993674285e-02 -5.5499759315889408e-01 +5.5948375512072197e-03
4.9499999999999904e+00 +8.3643214388889913e+00 +0.0000000000000000e+00 +4.9499999379748347e+00 -2.9042924694475857e-02 -5.5502728917077904e-01 +5.5963244047383606e-03
4.9999999999999902e+00 +8.3643076544735955e+00 +0.0000000000000000e+00 +4.9999999360747172e+00 -2.9044325842400992e-02 -5.5505718699037820e-01 +5.5978112041465940e-03
5.0499999999999901e+00 +8.3642937312524221e+00 +0.0000000000000000e+00 +5.0499999341361406e+00 -2.9045733406957857e-02 -5.5508728409654673e-01 +5.5992978699368617e-03
5.0999999999999899e+00 +8.3642796692179449e+00 +0.0000000000000000e+00 +5.0999999321587159e+00 -2.9047147357653274e-02 -5.5511757796813321e-01 +5.6007843226139973e-03
5.1499999999999897e+00 +8.3642654683625874e+00 +0.0000000000000000e+00 +5.1499999301420569e+00 -2.9048567663992834e-02 -5.5514806608398082e-01 +5.6022704826827249e-03
5.1999999999999895e+00 +8.3642511286787258e+00 +0.0000000000000000e+00 +5.1999999280857754e+00 -2.9049994295480688e-02 -5.5517874592292538e-01 +5.6037562706476758e-03
5.2499999999999893e+00 +8.3642366501586878e+00 +0.0000000000000000e+00 +5.2499999259894841e+00 -2.9051427221619637e-02 -5.5520961496379528e-01 +5.6052416070133610e-03
5.2999999999999892e+00 +8.3642220327947534e+00 +0.0000000000000000e+00 +5.2999999238527948e+00 -2.9052866411910995e-02 -5.5524067068541183e-01 +5.6067264122842001e-03
5.3499999999999890e+00 +8.3642072765791582e+00 +0.0000000000000000e+00 +5.3499999216753196e+00 -2.9054311835854638e-02 -5.5527191056658909e-01 +5.6082106069644940e-03
5.3999999999999888e+00 +8.3641923815040897e+00 +0.0000000000000000e+00 +5.3999999194566710e+00 -2.9055763462948910e-02 -5.5530333208613225e-01 +5.6096941115584397e-03
5.4499999999999886e+00 +8.3641773475616894e+00 +0.0000000000000000e+00 +5.4499999171964610e+00 -2.9057221262690572e-02 -5.5533493272283840e-01 +5.6111768465701255e-03
5.4999999999999885e+00 +8.3641621747440560e+00 +0.0000000000000000e+00 +5.4999999148943006e+00 -2.9058685204574823e-02 -5.5536670995549631e-01 +5.6126587325035296e-03
5.5499999999999883e+00 +8.3641468630432421e+00 +0.0000000000000000e+00 +5.5499999125498025e+00 -2.9060155258095185e-02 -5.5539866126288451e-01 +5.6141396898625176e-03
5.5999999999999881e+00 +8.3641314124512576e+00 +0.0000000000000000e+00 +5.5999999101625786e+00 -2.9061631392743526e-02 -5.5543078412377311e-01 +5.6156196391508447e-03
5.6499999999999879e+00 +8.3641158229600698e+00 +0.0000000000000000e+00 +5.6499999077322398e+00 -2.9063113578009968e-02 -5.5546307601692235e-01 +5.6170985008721572e-03
5.6999999999999877e+00 +8.3641000945616035e+00 +0.0000000000000000e+00 +5.6999999052583989e+00 -2.9064601783382906e-02 -5.5549553442108168e-01 +5.6185761955299847e-03
5.7499999999999876e+00 +8.3640842272477425e+00 +0.0000000000000000e+00 +5.7499999027406661e+00 -2.9066095978348905e-02 -5.5552815681499079e-01 +5.6200526436277478e-03
5.7999999999999874e+00 +8.3640682210103279e+00 +0.0000000000000000e+00 +5.7999999001786540e+00 -2.9067596132392706e-02 -5.5556094067737816e-01 +5.6215277656687440e-03
5.8499999999999872e+00 +8.3640520758411618e+00 +0.0000000000000000e+00 +5.8499998975719727e+00 -2.9069102214997176e-02 -5.5559388348696159e-01 +5.6230014821561647e-03
5.8999999999999870e+00 +8.3640357917320074e+00 +0.0000000000000000e+00 +5.8999998949202341e+00 -2.9070614195643257e-02 -5.5562698272244704e-01 +5.6244737135930801e-03
