# multipoles
# s[mm] polynom_b[n=0][T/m^n] polynom_b[n=1][T/m^n] polynom_b[n=2][T/m^n] polynom_b[n=3][T/m^n] polynom_b[n=4][T/m^n] polynom_b[n=5][T/m^n] polynom_b[n=6][T/m^n] 
+0.0000000000000000e+00 -5.5342791443401029e-01 +7.2554588912416342e+00 +4.9922045467868861e+00 +1.8638269806985697e+01 +1.3580709927076871e+03 -5.1325819112824649e+05 +1.5496825221841889e+07 
+5.0000000000000003e-02 -5.5342794384010907e-01 +7.2554238847586321e+00 +4.9884909728806193e+00 +1.8543085424682825e+01 +1.4604020956432803e+03 -5.1213889134344761e+05 +1.4891546794361418e+07 
+1.0000000000000001e-01 -5.5342833221652632e-01 +7.2554082006695282e+00 +4.9842668492565041e+00 +1.8465643148074150e+01 +1.5662793333287243e+03 -5.1111175324400119e+05 +1.4258822847662587e+07 
+1.5000000000000002e-01 -5.5342907899976013e-01 +7.2554117975151025e+00 +4.9795431344808856e+00 +1.8405559216314309e+01 +1.6754840268261964e+03 -5.1017535651592544e+05 +1.3600023686706642e+07 
+2.0000000000000001e-01 -5.5343018362629059e-01 +7.2554346338411522e+00 +4.9743307812007815e+00 +1.8362449647772969e+01 +1.7877976522568458e+03 -5.0932827885728085e+05 +1.2916518590532646e+07 
+2.5000000000000000e-01 -5.5343164553264967e-01 +7.2554766681934311e+00 +4.9686407479272754e+00 +1.8335930497127787e+01 +1.9030015319044840e+03 -5.0856909828690562e+05 +1.2209677857152171e+07 
+2.9999999999999999e-01 -5.5343346415535177e-01 +7.2555378591162913e+00 +4.9624839872820443e+00 +1.8325617905898607e+01 +2.0208771450405713e+03 -5.0789639354615990e+05 +1.1480870731009269e+07 
+3.4999999999999998e-01 -5.5343563893095193e-01 +7.2556181651600253e+00 +4.9558714560737389e+00 +1.8331127787455010e+01 +2.1412058555911781e+03 -5.0730874145184964e+05 +1.0731467245610464e+07 
+3.9999999999999997e-01 -5.5343816929601486e-01 +7.2557175448675979e+00 +4.9488141099473300e+00 +1.8352076381423853e+01 +2.2637690616613795e+03 -5.0680472149546363e+05 +9.9628371901980769e+06 
+4.4999999999999996e-01 -5.5344105468711979e-01 +7.2558359567882427e+00 +4.9413229040590609e+00 +1.8388079686131636e+01 +2.3883481711311697e+03 -5.0638291114433820e+05 +9.1763503050366305e+06 
+4.9999999999999994e-01 -5.5344429454085953e-01 +7.2559733594709472e+00 +4.9334087932034185e+00 +1.8438753732288344e+01 +2.5147246028294080e+03 -5.0604188810550392e+05 +8.3733762472761609e+06 
+5.4999999999999993e-01 -5.5344788829384717e-01 +7.2561297114636352e+00 +4.9250827327238973e+00 +1.8503714629295033e+01 +2.6426797611889601e+03 -5.0578023077135463e+05 +7.5552847714154134e+06 
+5.9999999999999998e-01 -5.5345183538271492e-01 +7.2563049713140453e+00 +4.9163556787882303e+00 +1.8582578491869704e+01 +2.7719950246812582e+03 -5.0559651746593683e+05 +6.7234458212121176e+06 
+6.5000000000000002e-01 -5.5345613524410275e-01 +7.2564990975740953e+00 +4.9072385853161489e+00 +1.8674961307302745e+01 +2.9024518386970522e+03 -5.0548932553461002e+05 +5.8792288644663319e+06 
+7.0000000000000007e-01 -5.5346078731467441e-01 +7.2567120487932302e+00 +4.8977424084372814e+00 +1.8780479172156220e+01 +3.0338315808305879e+03 -5.0545723314186034e+05 +5.0240038591605751e+06 
+7.5000000000000011e-01 -5.5346579103109883e-01 +7.2569437835192669e+00 +4.8878781015831692e+00 +1.8898748272875320e+01 +3.1659157090031849e+03 -5.0549881919493945e+05 +4.1591401897085565e+06 
+8.0000000000000016e-01 -5.5347114583007717e-01 +7.2571942603056945e+00 +4.8776566215516466e+00 +1.9029384584872432e+01 +3.2984855856758559e+03 -5.0561266083984764e+05 +3.2860079043381447e+06 
+8.5000000000000020e-01 -5.5347685114831346e-01 +7.2574634377024676e+00 +4.8670889228077563e+00 +1.9172004251243067e+01 +3.4313226338679483e+03 -5.0579733659318963e+05 +2.4059766535186879e+06 
+9.0000000000000024e-01 -5.5348290642253040e-01 +7.2577512742617269e+00 +4.8561859601270774e+00 +1.9326223344423290e+01 +3.5642082719655723e+03 -5.0605142437304277e+05 +1.5204161015410062e+06 
+9.5000000000000029e-01 -5.5348931108945987e-01 +7.2580577285341858e+00 +4.8449586868285817e+00 +1.9491658009689697e+01 +3.6969239605441517e+03 -5.0637350264632318e+05 +6.3069561848958989e+05 
+1.0000000000000002e+00 -5.5349606458587608e-01 +7.2583827590728784e+00 +4.8334180613381479e+00 +1.9667924324608244e+01 +3.8292510155381046e+03 -5.0676214933974313e+05 -2.6181441950462828e+05 
+1.0500000000000003e+00 -5.5350316634852514e-01 +7.2587263244303344e+00 +4.8215750345891539e+00 +1.9854638416201084e+01 +3.9609709561816444e+03 -5.0721594280121959e+05 -1.1557450178176083e+06 
+1.1000000000000003e+00 -5.5351061581422245e-01 +7.2590883831581783e+00 +4.8094405659144259e+00 +2.0051416448074271e+01 +4.0918650819191039e+03 -5.0773346158604557e+05 -2.0497257184311675e+06 
+1.1500000000000004e+00 -5.5351841241973965e-01 +7.2594688938098120e+00 +4.7970256056148592e+00 +2.0257874542351292e+01 +4.2217149254713713e+03 -5.0831328393830854e+05 -2.9423876029989771e+06 
+1.2000000000000004e+00 -5.5352655560191599e-01 +7.2598678149389242e+00 +4.7843411118722941e+00 +2.0473628819280009e+01 +4.3503018160512875e+03 -5.0895398802596173e+05 -3.8323604088410679e+06 
+1.2500000000000004e+00 -5.5353504479756654e-01 +7.2602851050964361e+00 +4.7713980366913162e+00 +2.0698295552455697e+01 +4.4774072445216689e+03 -5.0965415335213213e+05 -4.7182749469990088e+06 
+1.3000000000000005e+00 -5.5354387944355621e-01 +7.2607207228379869e+00 +4.7582073375374243e+00 +2.0931490822788973e+01 +4.6028125583529009e+03 -5.1041235773878242e+05 -5.5987610733223977e+06 
+1.3500000000000005e+00 -5.5355305897673091e-01 +7.2611746267149213e+00 +4.7447799665363464e+00 +2.1172830910136909e+01 +4.7262992446912813e+03 -5.1122718065586226e+05 -6.4724495710270768e+06 
+1.4000000000000006e+00 -5.5356258283398263e-01 +7.2616467752827631e+00 +4.7311268806738589e+00 +2.1421931946915024e+01 +4.8476486624783729e+03 -5.1209720035148563e+05 -7.3379703658737503e+06 
+1.4500000000000006e+00 -5.5357245045219916e-01 +7.2621371270951034e+00 +4.7172590337913052e+00 +2.1678410158520357e+01 +4.9666422555383060e+03 -5.1302099581360799e+05 -8.1939539562431267e+06 
+1.5000000000000007e+00 -5.5358266126829125e-01 +7.2626456407063378e+00 +4.7031873810506246e+00 +2.1941881758252510e+01 +5.0830614310770616e+03 -5.1399714592104999e+05 -9.0390305890098605e+06 
+1.5500000000000007e+00 -5.5359321471917244e-01 +7.2631722746676406e+00 +4.6889228754108716e+00 +2.2211963106922557e+01 +5.1966876575891356e+03 -5.1502423074549186e+05 -9.8718309306452610e+06 
+1.6000000000000008e+00 -5.5360411024179301e-01 +7.2637169875349707e+00 +4.6744764736713362e+00 +2.2488270401623954e+01 +5.3073023001858910e+03 -5.1610082905169891e+05 -1.0690984949685311e+07 
+1.6500000000000008e+00 -5.5361534727310413e-01 +7.2642797378606856e+00 +4.6598591300773853e+00 +2.2770419978129013e+01 +5.4146867921695002e+03 -5.1722552061652759e+05 -1.1495123068922106e+07 
+1.7000000000000008e+00 -5.5362692525006907e-01 +7.2648604842015825e+00 +4.6450817987385475e+00 +2.3058028033589601e+01 +5.5186225695092580e+03 -5.1839688418073836e+05 -1.2282875725072041e+07 
+1.7500000000000009e+00 -5.5363884360967086e-01 +7.2654591851076633e+00 +4.6301554342143261e+00 +2.3350711049148440e+01 +5.6188910604390521e+03 -5.1961350074717909e+05 -1.3052873320509013e+07 
+1.8000000000000009e+00 -5.5365110178891341e-01 +7.2660757991351010e+00 +4.6150909921570742e+00 +2.3648085275623384e+01 +5.7152736621086169e+03 -5.2087394944135164e+05 -1.3803746035290234e+07 
+1.8500000000000010e+00 -5.5366369922480441e-01 +7.2667102848367904e+00 +4.5998994267896682e+00 +2.3949767109397754e+01 +5.8075518077853385e+03 -5.2217681053445541e+05 -1.4534124285835283e+07 
+1.9000000000000010e+00 -5.5367663535437373e-01 +7.2673626007666092e+00 +4.5845916931527437e+00 +2.4255372928620513e+01 +5.8955069139849493e+03 -5.2352066417041240e+05 -1.5242638392644400e+07 
+1.9500000000000011e+00 -5.5368990961465636e-01 +7.2680327054792873e+00 +4.5691787448296326e+00 +2.4564519093302792e+01 +5.9789204339436619e+03 -5.2490409032613446e+05 -1.5927918913179405e+07 
+2.0000000000000009e+00 -5.5370352144271795e-01 +7.2687205575238760e+00 +4.5536715383612574e+00 +2.4876822227009278e+01 +6.0575737421945269e+03 -5.2632567117213958e+05 -1.6588595875121683e+07 
+2.0500000000000007e+00 -5.5371747000409988e-01 +7.2694261029011997e+00 +4.5380780173055086e+00 +2.5191805935102149e+01 +6.1313048649735310e+03 -5.2778298008040059e+05 -1.7223590934651706e+07 
+2.1000000000000005e+00 -5.5373175337833647e-01 +7.2701492308792375e+00 +4.5223944559956832e+00 +2.5508640166145508e+01 +6.2001800690642249e+03 -5.2926976637587463e+05 -1.7833012920858346e+07 
+2.1500000000000004e+00 -5.5374636937352073e-01 +7.2708898149274672e+00 +4.5066143209618215e+00 +2.5826409439761484e+01 +6.2643229875817306e+03 -5.3077886737738468e+05 -1.8417271818371199e+07 
+2.2000000000000002e+00 -5.5376131579771748e-01 +7.2716477285136545e+00 +4.4907310712891046e+00 +2.6144198344361016e+01 +6.3238574594465717e+03 -5.3230312092449947e+05 -1.8976779016739123e+07 
+2.2500000000000000e+00 -5.5377659045903294e-01 +7.2724228451101425e+00 +4.4747381720510218e+00 +2.6461091321653349e+01 +6.3789071515483511e+03 -5.3383536375455640e+05 -1.9511944702852417e+07 
+2.2999999999999998e+00 -5.5379219116558021e-01 +7.2732150381858203e+00 +4.4586290863384104e+00 +2.6776172968873876e+01 +6.4295958014388507e+03 -5.3536843389120244e+05 -2.0023179610791411e+07 
+2.3499999999999996e+00 -5.5380811572546795e-01 +7.2740241812114634e+00 +4.4423972755658951e+00 +2.7088527824653163e+01 +6.4760471794950190e+03 -5.3689516888606991e+05 -2.0510894646958385e+07 
+2.3999999999999995e+00 -5.5382436194683349e-01 +7.2748501476594054e+00 +4.4260362039885228e+00 +2.7397240387116423e+01 +6.5183849834326356e+03 -5.3840840600151278e+05 -2.0975500243648544e+07 
+2.4499999999999993e+00 -5.5384092763782156e-01 +7.2756928109995664e+00 +4.4095393349884029e+00 +2.7701395277512699e+01 +6.5567329373244174e+03 -5.3990098355394462e+05 -2.1417407022114467e+07 
+2.4999999999999991e+00 -5.5385781060659389e-01 +7.2765520447073424e+00 +4.3929001331139910e+00 +2.8000076909983946e+01 +6.5912147363507775e+03 -5.4136573817877565e+05 -2.1837025421996843e+07 
+2.5499999999999989e+00 -5.5387500866130490e-01 +7.2774277222557266e+00 +4.3761120603547727e+00 +2.8292369819772951e+01 +6.6219541388696907e+03 -5.4279550754976366e+05 -2.2234766286682304e+07 
+2.5999999999999988e+00 -5.5389251961013686e-01 +7.2783197171185439e+00 +4.3591685811146439e+00 +2.8577358529895374e+01 +6.6490748466940786e+03 -5.4418312928534579e+05 -2.2611040111998405e+07 
+2.6499999999999986e+00 -5.5391034126128202e-01 +7.2792279027699376e+00 +4.3420631601372657e+00 +2.8854127576398529e+01 +6.6727005477679149e+03 -5.4552144115239778e+05 -2.2966257281284373e+07 
+2.6999999999999984e+00 -5.5392847142293833e-01 +7.2801521526842627e+00 +4.3247892617386805e+00 +2.9121761505296135e+01 +6.6929549434783466e+03 -5.4680328105592192e+05 -2.3300828281866696e+07 
+2.7499999999999982e+00 -5.5394690790330214e-01 +7.2810923403407077e+00 +4.3073403474647884e+00 +2.9379344678778715e+01 +6.7099618160787777e+03 -5.4802148538894160e+05 -2.3615164168177161e+07 
+2.7999999999999980e+00 -5.5396564851061314e-01 +7.2820483392150912e+00 +4.2897098857361851e+00 +2.9625961630511309e+01 +6.7238447561875864e+03 -5.4916889205079735e+05 -2.3909674680413470e+07 
+2.8499999999999979e+00 -5.5398469105308457e-01 +7.2830200227848838e+00 +4.2718913383539823e+00 +2.9860696847573305e+01 +6.7347275370057750e+03 -5.5023833861023409e+05 -2.4184770808724388e+07 
+2.8999999999999977e+00 -5.5400403333896520e-01 +7.2840072645284675e+00 +4.2538781715046712e+00 +3.0082634798777075e+01 +6.7427338171417841e+03 -5.5122266252195917e+05 -2.4440862783309463e+07 
+2.9499999999999975e+00 -5.5402367317649559e-01 +7.2850099379268345e+00 +4.2356638489997653e+00 +3.0290859858958978e+01 +6.7479873153603212e+03 -5.5211470048636908e+05 -2.4678361230414387e+07 
+2.9999999999999973e+00 -5.5404360837394662e-01 +7.2860279164573933e+00 +4.2172418379363465e+00 +3.0484456589514888e+01 +6.7506116677272657e+03 -5.5290729086191242e+05 -2.4897676240145121e+07 
+3.0499999999999972e+00 -5.5406383673957738e-01 +7.2870610736041712e+00 +4.1986056020245535e+00 +3.0662509297218275e+01 +6.7507305998867014e+03 -5.5359326995363925e+05 -2.5099218502238523e+07 
+3.0999999999999970e+00 -5.5408435608166584e-01 +7.2881092828468255e+00 +4.1797486073418826e+00 +3.0824102482688708e+01 +6.7484677754906461e+03 -5.5416547569352947e+05 -2.5283398300791349e+07 
+3.1499999999999968e+00 -5.5410516420850353e-01 +7.2891724176687429e+00 +4.1606643203102598e+00 +3.0968320525134828e+01 +6.7439468493457389e+03 -5.5461674510268902e+05 -2.5450625857990704e+07 
+3.1999999999999966e+00 -5.5412625892837808e-01 +7.2902503515534534e+00 +4.1413462055941821e+00 +3.1094247817753708e+01 +6.7372915275549803e+03 -5.5493991538086417e+05 -2.5601311765186962e+07 
+3.2499999999999964e+00 -5.5414763804961176e-01 +7.2913429579888467e+00 +4.1217877325720060e+00 +3.1200968600035925e+01 +6.7286253892058221e+03 -5.5512782254080626e+05 -2.5735865755389459e+07 
+3.2999999999999963e+00 -5.5416929938049486e-01 +7.2924501104551940e+00 +4.1019823640074353e+00 +3.1287567436643780e+01 +6.7180721897026233e+03 -5.5517330529272428e+05 -2.5854698747265596e+07 
+3.3499999999999961e+00 -5.5419124072936676e-01 +7.2935716824442585e+00 +4.0819235696356575e+00 +3.1353128459617157e+01 +6.7057555033517947e+03 -5.5506919892872428e+05 -2.5958220466630213e+07 
+3.3999999999999959e+00 -5.5421345990453907e-01 +7.2947075474401339e+00 +4.0616048134065696e+00 +3.1396736126177615e+01 +6.6917990570819329e+03 -5.5480834143423068e+05 -2.6046841657499511e+07 
+3.4499999999999957e+00 -5.5423595471436959e-01 +7.2958575789334130e+00 +4.0410195660021113e+00 +3.1417474658934012e+01 +6.6763264009982531e+03 -5.5438356898607127e+05 -2.6120971891544666e+07 
+3.4999999999999956e+00 -5.5425872296719192e-01 +7.2970216504125140e+00 +4.0201612928918173e+00 +3.1414428387447241e+01 +6.6594612260182885e+03 -5.5378771868700685e+05 -2.6181021696042668e+07 
+3.5499999999999954e+00 -5.5428176247136762e-01 +7.2981996353679541e+00 +3.9990234630331321e+00 +3.1386681584451939e+01 +6.6413271322830369e+03 -5.5301362728364661e+05 -2.6227400998478152e+07 
+3.5999999999999952e+00 -5.5430507103524573e-01 +7.2993914072939949e+00 +3.9775995426877371e+00 +3.1333318375191418e+01 +6.6220477887298748e+03 -5.5205413032146241e+05 -2.6260520178746931e+07 
+3.6499999999999950e+00 -5.5432864646721425e-01 +7.3005968396792102e+00 +3.9558830036614703e+00 +3.1253423170279394e+01 +6.6017467218461125e+03 -5.5090206588861265e+05 -2.6280788688491832e+07 
+3.6999999999999948e+00 -5.5435248657562253e-01 +7.3018158060216578e+00 +3.9338673096062227e+00 +3.1146079990475709e+01 +6.5805476784378907e+03 -5.4955026886080089e+05 -2.6288617466684099e+07 
+3.7499999999999947e+00 -5.5437658916887322e-01 +7.3030481798141365e+00 +3.9115459331803986e+00 +3.1010373106713764e+01 +6.5585741611583462e+03 -5.4799157630209951e+05 -2.6284415803701535e+07 
+3.7999999999999945e+00 -5.5440095205535744e-01 +7.3042938345542279e+00 +3.8889123436866466e+00 +3.0845386619005144e+01 +6.5359497696202397e+03 -5.4621882396684855e+05 -2.6268593674332269e+07 
+3.8499999999999943e+00 -5.5442557304345386e-01 +7.3055526437380527e+00 +3.8659600075159606e+00 +3.0650204709967738e+01 +6.5127981792307046e+03 -5.4422484837913548e+05 -2.6241561555325087e+07 
+3.8999999999999941e+00 -5.5445044994158699e-01 +7.3068244808654521e+00 +3.8426823983198002e+00 +3.0423911418716632e+01 +6.4892428739625857e+03 -5.4200248491650179e+05 -2.6203728652783301e+07 
+3.9499999999999940e+00 -5.5447558055815060e-01 +7.3081092194359929e+00 +3.8190729836590642e+00 +3.0165590847484175e+01 +6.4654074999231034e+03 -5.3954456969126454e+05 -2.6155505261075608e+07 
+3.9999999999999938e+00 -5.5450096270157034e-01 +7.3094067329486663e+00 +3.7951252353606968e+00 +2.9874327130889313e+01 +6.4414155977814771e+03 -5.3684393905461673e+05 -2.6097300999482051e+07 
+4.0499999999999936e+00 -5.5452659412695227e-01 +7.3107168780084120e+00 +3.7708349358506243e+00 +2.9549714644574951e+01 +6.4173719326253567e+03 -5.3389709277125611e+05 -2.6029501712735828e+07 
+4.0999999999999934e+00 -5.5455247237508720e-01 +7.3120394405605023e+00 +3.7462078217120043e+00 +2.9193280434328546e+01 +6.3932857477087182e+03 -5.3071443846240221e+05 -2.5952250380070556e+07 
+4.1499999999999932e+00 -5.5457859493300310e-01 +7.3133741880788108e+00 +3.7212523183232671e+00 +2.8807008522028713e+01 +6.3691373239260129e+03 -5.2730968478811509e+05 -2.5865592507809263e+07 
+4.1999999999999931e+00 -5.5460495928770082e-01 +7.3147208880379049e+00 +3.6959768472818024e+00 +2.8392882899041659e+01 +6.3449070354759560e+03 -5.2369654024654615e+05 -2.5769574194670554e+07 
+4.2499999999999929e+00 -5.5463156292616234e-01 +7.3160793079091251e+00 +3.6703898262240990e+00 +2.7952887689998526e+01 +6.3205753608731166e+03 -5.1988871445601474e+05 -2.5664242230532195e+07 
+4.2999999999999927e+00 -5.5465840333541494e-01 +7.3174492151673949e+00 +3.6444996802229834e+00 +2.7489006852003591e+01 +6.2961225822480556e+03 -5.1589991559966403e+05 -2.5549642094132502e+07 
+4.3499999999999925e+00 -5.5468547800244161e-01 +7.3188303772832182e+00 +3.6183148270757064e+00 +2.7003224530901690e+01 +6.2715291666665426e+03 -5.1174385346900084e+05 -2.5425820469482191e+07 
+4.3999999999999924e+00 -5.5471278441424809e-01 +7.3202225617308718e+00 +3.5918436884182015e+00 +2.6497524701958920e+01 +6.2467754780083278e+03 -5.0743423640424444e+05 -2.5292823342992976e+07 
+4.4499999999999922e+00 -5.5474032005783291e-01 +7.3216255359835385e+00 +3.5650946844427582e+00 +2.5973891375767145e+01 +6.2218419179513294e+03 -5.0298477304695611e+05 -2.5150696952131480e+07 
+4.4999999999999920e+00 -5.5476808242019138e-01 +7.3230390675083887e+00 +3.5380762349081185e+00 +2.5434308812325362e+01 +6.1967088939849100e+03 -4.9840917411821976e+05 -2.4999487547718748e+07 
+4.5499999999999918e+00 -5.5479606898830258e-01 +7.3244629237801924e+00 +3.5107967566362341e+00 +2.4880760940442446e+01 +6.1713568925106247e+03 -4.9372114757467888e+05 -2.4839241911266614e+07 
+4.5999999999999917e+00 -5.5482427724916938e-01 +7.3258968722710822e+00 +3.4832646713327238e+00 +2.4315231776899200e+01 +6.1457662604169391e+03 -4.8893440205451328e+05 -2.4670005852319017e+07 
+4.6499999999999915e+00 -5.5485270468976766e-01 +7.3273406804482502e+00 +3.4554883955691227e+00 +2.3739705554412723e+01 +6.1199174841488921e+03 -4.8406264805933501e+05 -2.4491826123694576e+07 
+4.6999999999999913e+00 -5.5488134879709261e-01 +7.3287941157852901e+00 +3.4274763497492562e+00 +2.3156166213987600e+01 +6.0937909421440263e+03 -4.7911959361435875e+05 -2.4304748730404727e+07 
+4.7499999999999911e+00 -5.5491020705811045e-01 +7.3302569457491114e+00 +3.3992369497157129e+00 +2.2566597959235413e+01 +6.0673671294303094e+03 -4.7411894890406611e+05 -2.4108820437523067e+07 
+4.7999999999999909e+00 -5.5493927695979983e-01 +7.3317289378112998e+00 +3.3707786135969298e+00 +2.1972984786776824e+01 +6.0406264778996301e+03 -4.6907442238392052e+05 -2.3904087577178013e+07 
+4.8499999999999908e+00 -5.5496855598912509e-01 +7.3332098594377966e+00 +3.3421097571142373e+00 +2.1377310928387978e+01 +6.0135494835287091e+03 -4.6399972451870731e+05 -2.3690596907775648e+07 
+4.8999999999999906e+00 -5.5499804163305611e-01 +7.3346994780990817e+00 +3.3132387981737810e+00 +2.0781560385879636e+01 +5.9861165719725504e+03 -4.5890856374769128e+05 -2.3468394668848053e+07 
+4.9499999999999904e+00 -5.5502773137854944e-01 +7.3361975612621277e+00 +3.2841741520508259e+00 +2.0187717310381622e+01 +5.9583082437560697e+03 -4.5381464980727789e+05 -2.3237527617805254e+07 
+4.9999999999999902e+00 -5.5505762271255910e-01 +7.3377038763938645e+00 +3.2549242347485774e+00 +1.9597765830895376e+01 +5.9301049685346388e+03 -4.4873169221309869e+05 -2.2998042258746907e+07 
+5.0499999999999901e+00 -5.5508771312203131e-01 +7.3392181909618763e+00 +3.2254974609607689e+00 +1.9013690031026176e+01 +5.9014872540385268e+03 -4.4367340008436504e+05 -2.2749985361944888e+07 
