# multipoles
# s[mm] polynom_b[n=0][T/m^n] polynom_b[n=1][T/m^n] polynom_b[n=2][T/m^n] polynom_b[n=3][T/m^n] polynom_b[n=4][T/m^n] polynom_b[n=5][T/m^n] polynom_b[n=6][T/m^n] 
+0.0000000000000000e+00 -5.7974340518550083e-01 +7.6050173503901943e+00 +5.0530577264464389e+00 -1.8460601833844993e+02 -4.4251557290839028e+03 +7.4757486382564378e+05 +6.0948775562559307e+07 
-5.0000000000000003e-02 -5.7974432170468149e-01 +7.6051177690734590e+00 +5.0497122463975384e+00 -1.8501484752775065e+02 -4.3565934939831204e+03 +7.4988441706131829e+05 +6.0361341531719089e+07 
-1.0000000000000001e-01 -5.7974561355594623e-01 +7.6052390324810606e+00 +5.0459101519042315e+00 -1.8545407346105952e+02 -4.2877471418654832e+03 +7.5248908863515127e+05 +5.9770877606881917e+07 
-1.5000000000000002e-01 -5.7974727993296393e-01 +7.6053810123295991e+00 +5.0416454539896494e+00 -1.8592154497311788e+02 -4.2184500945206073e+03 +7.5537212310166610e+05 +5.9176606675691329e+07 
-2.0000000000000001e-01 -5.7974932002940094e-01 +7.6055435803354827e+00 +5.0369121610274634e+00 -1.8641511088031950e+02 -4.1485357078335328e+03 +7.5851676493445819e+05 +5.8577751195440359e+07 
-2.5000000000000000e-01 -5.7975173303895389e-01 +7.6057266082224277e+00 +5.0317042829843714e+00 -1.8693262025673400e+02 -4.0778373743301427e+03 +7.6190626067580271e+05 +5.7973533845602438e+07 
-2.9999999999999999e-01 -5.7975451815535262e-01 +7.6059299677099883e+00 +5.0260158329173246e+00 -1.8747192198146311e+02 -4.0061885731256684e+03 +7.6552385527871922e+05 +5.7363177900261395e+07 
-3.4999999999999998e-01 -5.7975767457230265e-01 +7.6061535305186929e+00 +5.0198408169761022e+00 -1.8803086494274328e+02 -3.9334225989933020e+03 +7.6935279375283245e+05 +5.6745905392160043e+07 
-3.9999999999999997e-01 -5.7976120148356203e-01 +7.6063971683733476e+00 +5.0131732469480328e+00 -1.8860729819230278e+02 -3.8593728922722457e+03 +7.7337632250738936e+05 +5.6120939309537351e+07 
-4.4999999999999996e-01 -5.7976509808289245e-01 +7.6066607529938697e+00 +5.0060071327602280e+00 -1.8919907053159378e+02 -3.7838728490149833e+03 +7.7757768580548337e+05 +5.5487502362848036e+07 
-4.9999999999999994e-01 -5.7976936356407938e-01 +7.6069441561074731e+00 +4.9983364858400092e+00 -1.8980403104980306e+02 -3.7067559072279778e+03 +7.8194013032788073e+05 +5.4844817549528271e+07 
-5.4999999999999993e-01 -5.7977399712091671e-01 +7.6072472494356633e+00 +4.9901553154185221e+00 -1.9042002857353975e+02 -3.6278554387895565e+03 +7.8644690058365697e+05 +5.4192107391441770e+07 
-5.9999999999999998e-01 -5.7977899794721977e-01 +7.6075699047071978e+00 +4.9814576323704545e+00 -1.9104491220413428e+02 -3.5470048668746185e+03 +7.9108124334367283e+05 +5.3528594782076381e+07 
-6.5000000000000002e-01 -5.7978436523681687e-01 +7.6079119936461126e+00 +4.9722374465299302e+00 -1.9167653081274605e+02 -3.4640375816603128e+03 +7.9582640343769663e+05 +5.2853502370209724e+07 
-7.0000000000000007e-01 -5.7979009818356153e-01 +7.6082733879801054e+00 +4.9624887696491022e+00 -1.9231273340479100e+02 -3.3787870303686559e+03 +8.0066562683180103e+05 +5.2166053210547812e+07 
-7.5000000000000011e-01 -5.7979619598128973e-01 +7.6086539594390903e+00 +4.9522056074359284e+00 -1.9295136903738057e+02 -3.2910864953386094e+03 +8.0558215983956645e+05 +5.1465469234184645e+07 
-8.0000000000000016e-01 -5.7980265782391371e-01 +7.6090535797498635e+00 +4.9413819761503168e+00 -1.9359028664011882e+02 -3.2007695450339611e+03 +8.1055924782900419e+05 +5.0750974312569551e+07 
-8.5000000000000020e-01 -5.7980948290529599e-01 +7.6094721206427076e+00 +4.9300118808243765e+00 -1.9422733522681412e+02 -3.1076694457778904e+03 +8.1558013670401345e+05 +5.0021790273273446e+07 
-9.0000000000000024e-01 -5.7981667041936302e-01 +7.6099094538497294e+00 +4.9180893347364494e+00 -1.9486036389481595e+02 -3.0116196871436678e+03 +8.2062807317754778e+05 +4.9277140458187029e+07 
-9.5000000000000029e-01 -5.7982421956003349e-01 +7.6103654511030960e+00 +4.9056083468624312e+00 -1.9548722168928600e+02 -2.9124536404435635e+03 +8.2568630339363497e+05 +4.8516247399389282e+07 
-1.0000000000000002e+00 -5.7983212952123275e-01 +7.6108399841325562e+00 +4.8925629253206848e+00 -1.9610575754621405e+02 -2.8100046609152005e+03 +8.3073807263578032e+05 +4.7738333546907224e+07 
-1.0500000000000003e+00 -5.7984039949692834e-01 +7.6113329246740813e+00 +4.8789470823575076e+00 -1.9671382063591352e+02 -2.7041062118375553e+03 +8.3576662811528868e+05 +4.6942622068829864e+07 
-1.1000000000000003e+00 -5.7984902868107002e-01 +7.6118441444628893e+00 +4.8647548246600385e+00 -1.9730926006420532e+02 -2.5945916093838700e+03 +8.4075521645066375e+05 +4.6128335149758026e+07 
-1.1500000000000004e+00 -5.7985801626765576e-01 +7.6123735152347791e+00 +4.8499801646038980e+00 -1.9788992493996727e+02 -2.4812943215747300e+03 +8.4568708427402761e+05 +4.5294695993206523e+07 
-1.2000000000000004e+00 -5.7986736145067064e-01 +7.6129209087241971e+00 +4.8346171098825330e+00 -1.9845366428735480e+02 -2.3640476961293521e+03 +8.5054547747096303e+05 +4.4440927014839888e+07 
-1.2500000000000004e+00 -5.7987706342412193e-01 +7.6134861966696583e+00 +4.8186596695186026e+00 -1.9899832728899355e+02 -2.2426851156784387e+03 +8.5531364327333355e+05 +4.3566250860826306e+07 
-1.3000000000000005e+00 -5.7988712138202569e-01 +7.6140692508109780e+00 +4.8021018511625959e+00 -1.9952176313688091e+02 -2.1170399254501376e+03 +8.5997482887193188e+05 +4.2669889925487123e+07 
-1.3500000000000005e+00 -5.7989753451843185e-01 +7.6146699428871960e+00 +4.7849376662418051e+00 -2.0002182097752984e+02 -1.9869455774523708e+03 +8.6451228109755355e+05 +4.1751067343960814e+07 
-1.4000000000000006e+00 -5.7990830202736832e-01 +7.6152881446383045e+00 +4.7671611194210541e+00 -2.0049634998269505e+02 -1.8522353403447878e+03 +8.6890924699221179e+05 +4.0809005008834220e+07 
-1.4500000000000006e+00 -5.7991942310292166e-01 +7.6159237278079708e+00 +4.7487662234989090e+00 -2.0094319943045213e+02 -1.7127427062835854e+03 +8.7314897435955040e+05 +3.9842926341433071e+07 
-1.5000000000000007e+00 -5.7993089693913957e-01 +7.6165765641371683e+00 +4.7297469817693916e+00 -2.0136021847666152e+02 -1.5683009094620954e+03 +8.7721470999922464e+05 +3.8852053011489876e+07 
-1.5500000000000007e+00 -5.7994272273012470e-01 +7.6172465253719892e+00 +4.7100974045058663e+00 -2.0174525647411156e+02 -1.4187433773986936e+03 +8.8108970234151173e+05 +3.7835608021403611e+07 
-1.6000000000000008e+00 -5.7995489966996672e-01 +7.6179334832557579e+00 +4.6898114976800986e+00 -2.0209616262132863e+02 -1.2639034221183438e+03 +8.8475719843393075e+05 +3.6792813592610925e+07 
-1.6500000000000008e+00 -5.7996742695277947e-01 +7.6186373095358171e+00 +4.6688832687393473e+00 -2.0241078626634894e+02 -1.1036143974183869e+03 +8.8820044654250052e+05 +3.5722892239431135e+07 
-1.7000000000000008e+00 -5.7998030377268583e-01 +7.6193578759601230e+00 +4.6473067244918456e+00 -2.0268697676433024e+02 -9.3770964278448309e+02 +8.9140269496999425e+05 +3.4625066392664932e+07 
-1.7500000000000009e+00 -5.7999352932382586e-01 +7.6200950542750538e+00 +4.6250758722872529e+00 -2.0292258337966578e+02 -7.6602251398794590e+02 +8.9434719121559709e+05 +3.3498558601706419e+07 
-1.8000000000000009e+00 -5.8000710280033052e-01 +7.6208487162328131e+00 +4.6021847155207318e+00 -2.0311545559302110e+02 -5.8838626330564159e+02 +8.9701718450284540e+05 +3.2342590732007399e+07 
-1.8500000000000010e+00 -5.8002102339637385e-01 +7.6216187335823840e+00 +4.5786272624177400e+00 -2.0326344272561275e+02 -4.0463427038234028e+02 +8.9939592268789676e+05 +3.1156385499645587e+07 
-1.9000000000000010e+00 -5.8003529030611289e-01 +7.6224049780774461e+00 +4.5543975168195336e+00 -2.0336439428849528e+02 -2.1459980887003860e+02 +9.0146665520752920e+05 +2.9939164952948865e+07 
-1.9500000000000011e+00 -5.8004990272372814e-01 +7.6232073214703773e+00 +4.5294894834625437e+00 -2.0341615969007245e+02 -1.8116170222050847e+01 +9.0321263049803860e+05 +2.8690151242455274e+07 
-2.0000000000000009e+00 -5.8006485984341305e-01 +7.6240256355163156e+00 +4.5038971675672403e+00 -2.0341658845477843e+02 +1.8498333361446569e+02 +9.0461709800143761e+05 +2.7408566687326930e+07 
-2.0500000000000007e+00 -5.8008016062495593e-01 +7.6248598013612447e+00 +4.4776192062713660e+00 -2.0336418845298562e+02 +3.9475998219147704e+02 +9.0566796321007702e+05 +2.6094225859341484e+07 
-2.1000000000000005e+00 -5.8009580309133035e-01 +7.6257097300822991e+00 +4.4506727131800901e+00 -2.0326010120415347e+02 +6.1086593465108911e+02 +9.0637191931756877e+05 +2.4749223073330563e+07 
-2.1500000000000004e+00 -5.8011178503154892e-01 +7.6265753383430939e+00 +4.4230794243762821e+00 -2.0310612765839562e+02 +8.3285410533198933e+02 +9.0674040001367941e+05 +2.3376200626879480e+07 
-2.2000000000000002e+00 -5.8012810423465333e-01 +7.6274565428090533e+00 +4.3948610788733227e+00 -2.0290406881449488e+02 +1.0602773304520472e+03 +9.0678483930965303e+05 +2.1977801346894667e+07 
-2.2500000000000000e+00 -5.8014475848967428e-01 +7.6283532601452029e+00 +4.3660394119669874e+00 -2.0265572564291210e+02 +1.2926885457003905e+03 +9.0651667100099090e+05 +2.0556667390497297e+07 
-2.2999999999999998e+00 -5.8016174558567535e-01 +7.6292654070140866e+00 +4.3366361626857390e+00 -2.0236289899196561e+02 +1.5296405854080601e+03 +9.0594732784940663e+05 +1.9115441605327863e+07 
-2.3499999999999996e+00 -5.8017906331170488e-01 +7.6301929000821209e+00 +4.3066730654241638e+00 -2.0202738984738755e+02 +1.7706864094917823e+03 +9.0508824372514850e+05 +1.7656765987557873e+07 
-2.3999999999999995e+00 -5.8019670945684065e-01 +7.6311356560154540e+00 +4.2761718574987144e+00 -2.0165099915866730e+02 +2.0153789035560928e+03 +9.0395085215120483e+05 +1.6183283020479456e+07 
-2.4499999999999993e+00 -5.8021468181017000e-01 +7.6320935914787364e+00 +4.2451542766570052e+00 -2.0123552780453832e+02 +2.2632709337128740e+03 +9.0254658609092515e+05 +1.4697635349557314e+07 
-2.4999999999999991e+00 -5.8023297816079555e-01 +7.6330666231357940e+00 +4.2136420607212939e+00 -2.0078277658624282e+02 +2.5139153736686335e+03 +9.0088687775318057e+05 +1.3202465534042247e+07 
-2.5499999999999989e+00 -5.8025159629780909e-01 +7.6340546676511680e+00 +4.1816569444719836e+00 -2.0029454635019076e+02 +2.7668651722013983e+03 +8.9898315983679087e+05 +1.1700415653016668e+07 
-2.5999999999999988e+00 -5.8027053401034268e-01 +7.6350576416924207e+00 +4.1492206672702059e+00 -1.9977263801587529e+02 +3.0216731618987706e+03 +8.9684686549009278e+05 +1.0194128544417234e+07 
-2.6499999999999986e+00 -5.8028978908751716e-01 +7.6360754619208837e+00 +4.1163549651051508e+00 -1.9921885224311731e+02 +3.2778922630415823e+03 +8.9448942576627492e+05 +8.6862464672731590e+06 
-2.6999999999999984e+00 -5.8030935931849348e-01 +7.6371080450011881e+00 +4.0830815792689048e+00 -1.9863498980393041e+02 +3.5350752551688620e+03 +8.9192227260756772e+05 +7.1794126224855101e+06 
-2.7499999999999982e+00 -5.8032924249238960e-01 +7.6381553075999840e+00 +4.0494222416309205e+00 -1.9802285153302364e+02 +3.7927751711932615e+03 +8.8915683844058902e+05 +5.6762685070242789e+06 
-2.7999999999999980e+00 -5.8034943639838565e-01 +7.6392171663788959e+00 +4.0153986933908339e+00 -1.9738423804492240e+02 +4.0505447964609680e+03 +8.8620455388071912e+05 +4.1794572718631173e+06 
-2.8499999999999979e+00 -5.8036993882564913e-01 +7.6402935380015062e+00 +3.9810326718662945e+00 -1.9672095001382081e+02 +4.3079370192339238e+03 +8.8307685000168916e+05 +2.6916213834823309e+06 
-2.8999999999999977e+00 -5.8039074756336795e-01 +7.6413843391300125e+00 +3.9463459159666789e+00 -1.9603478803320328e+02 +4.5645046913238857e+03 +8.7978515717450192e+05 +1.2154035302488774e+06 
-2.9499999999999975e+00 -5.8041186040072545e-01 +7.6424894864278103e+00 +3.9113601628730850e+00 -1.9532755273191981e+02 +4.8198007038344595e+03 +8.7634090605494368e+05 -2.4655383546578526e+05 
-2.9999999999999973e+00 -5.8043327512692355e-01 +7.6436088965558149e+00 +3.8760971507635880e+00 -1.9460104461067326e+02 +5.0733779314356416e+03 +8.7275552619223495e+05 -1.6916081873985068e+06 
-3.0499999999999972e+00 -5.8045498953118413e-01 +7.6447424861768249e+00 +3.8405786204456440e+00 -1.9385706425280168e+02 +5.3247891713791159e+03 +8.6904044789376005e+05 -3.1171164530461766e+06 
-3.0999999999999970e+00 -5.8047700140272629e-01 +7.6458901719490626e+00 +3.8048263098872228e+00 -1.9309741201366208e+02 +5.5735873074264919e+03 +8.6520709947197302e+05 -4.5204361773230033e+06 
-3.1499999999999968e+00 -5.8049930853076637e-01 +7.6470518705358206e+00 +3.7688619558578957e+00 -1.9232388844053807e+02 +5.8193252505694927e+03 +8.6126691080918326e+05 -5.8989250712045617e+06 
-3.1999999999999966e+00 -5.8052190870456699e-01 +7.6482274985938297e+00 +3.7327073014238934e+00 -1.9153829379891383e+02 +6.0615557466360669e+03 +8.5723130947094294e+05 -7.2499397444952959e+06 
-3.2499999999999964e+00 -5.8054479971336781e-01 +7.6494169727834764e+00 +3.6963840842557629e+00 -1.9074242848864333e+02 +6.2998316880120010e+03 +8.5311172411275748e+05 -8.5708377988588847e+06 
-3.2999999999999963e+00 -5.8056797934642801e-01 +7.6506202097612830e+00 +3.6599140439702325e+00 -1.8993809273788798e+02 +6.5337059178131367e+03 +8.4891958197320718e+05 -9.8589765154823400e+06 
-3.3499999999999961e+00 -5.8059144539302976e-01 +7.6518371261842146e+00 +3.6233189227749794e+00 -1.8912708675483452e+02 +6.7627312119992048e+03 +8.4466631003200484e+05 -1.1111712729946513e+07 
-3.3999999999999959e+00 -5.8061519564243336e-01 +7.6530676387096630e+00 +3.5866204580323280e+00 -1.8831121078077695e+02 +6.9864604757574425e+03 +8.4036333563478396e+05 -1.2326404143365148e+07 
-3.4499999999999957e+00 -5.8063922788394895e-01 +7.6543116639913125e+00 +3.5498403945168295e+00 -1.8749226485833242e+02 +7.2044464180818577e+03 +8.3602208436827117e+05 -1.3500407145512393e+07 
-3.4999999999999956e+00 -5.8066353990685615e-01 +7.6555691186842090e+00 +3.5130004698768027e+00 -1.8667204908857084e+02 +7.4162419453454177e+03 +8.3165398235412373e+05 -1.4631079475164765e+07 
-3.5499999999999954e+00 -5.8068812950046655e-01 +7.6568399194427856e+00 +3.4761224264860417e+00 -1.8585236351820015e+02 +7.6213998354501300e+03 +8.2727045519144076e+05 -1.5715777998595737e+07 
-3.5999999999999952e+00 -5.8071299445410463e-01 +7.6581239829158827e+00 +3.4392280077977304e+00 -1.8503500796050835e+02 +7.8194728425706771e+03 +8.2288292660408397e+05 -1.6751859443390893e+07 
-3.6499999999999950e+00 -5.8073813255707829e-01 +7.6594212257572405e+00 +3.4023389530681749e+00 -1.8422178240869346e+02 +8.0100138317851834e+03 +8.1850282174183696e+05 -1.7736681270924412e+07 
-3.6999999999999948e+00 -5.8076354159873000e-01 +7.6607315646164400e+00 +3.3654770064704467e+00 -1.8341448666413280e+02 +8.1925755442197842e+03 +8.1414156414244242e+05 -1.8667600141089190e+07 
-3.7499999999999947e+00 -5.8078921936840533e-01 +7.6620549161413924e+00 +3.3286639114918808e+00 -1.8261492045040529e+02 +8.3667107382162485e+03 +8.0981057671497134e+05 -1.9541972819443986e+07 
-3.7999999999999945e+00 -5.8081516365544283e-01 +7.6633911969787150e+00 +3.2919214094525309e+00 -1.8182488342446189e+02 +8.5319722346871076e+03 +8.0552128180633811e+05 -2.0357156511761833e+07 
-3.8499999999999943e+00 -5.8084137224921051e-01 +7.6647403237766927e+00 +3.2552712455275397e+00 -1.8104617529181587e+02 +8.6879127549232744e+03 +8.0128510212880257e+05 -2.1110507762606241e+07 
-3.8999999999999941e+00 -5.8086784293906479e-01 +7.6661022131794576e+00 +3.2187351621642337e+00 -1.8028059556816635e+02 +8.8340850929662683e+03 +7.9711345880406804e+05 -2.1799383605005462e+07 
-3.9499999999999940e+00 -5.8089457351439355e-01 +7.6674767818288974e+00 +3.1823349059808836e+00 -1.7952994367621960e+02 +8.9700419379658942e+03 +7.9301777221896988e+05 -2.2421140389991093e+07 
-3.9999999999999938e+00 -5.8092156176456877e-01 +7.6688639463691164e+00 +3.1460922199254293e+00 -1.7879601909736130e+02 +9.0953360783147236e+03 +7.8900946320173214e+05 -2.2973135133170594e+07 
-4.0499999999999936e+00 -5.8094880541005667e-01 +7.6702636059168814e+00 +3.1100248038799987e+00 -1.7808037507508624e+02 +9.2096518788511257e+03 +7.8509876043331018e+05 -2.3453582447026946e+07 
-4.0999999999999934e+00 -5.8097630189471849e-01 +7.6716755900098796e+00 +3.0741349166127487e+00 -1.7738373234413126e+02 +9.3131935827911275e+03 +7.8129182830381719e+05 -2.3864108153634638e+07 
-4.1499999999999932e+00 -5.8100404859295496e-01 +7.6730997109109662e+00 +3.0384211261771550e+00 -1.7670664347461607e+02 +9.4062946266479830e+03 +7.7759400007388054e+05 -2.4207190680629618e+07 
-4.1999999999999931e+00 -5.8103204287919019e-01 +7.6745357808835575e+00 +3.0028820041509046e+00 -1.7604966108621809e+02 +9.4892883544423548e+03 +7.7401060938395164e+05 -2.4485307830128465e+07 
-4.2499999999999929e+00 -5.8106028212784266e-01 +7.6759836121888485e+00 +2.9675161206384737e+00 -1.7541333773975134e+02 +9.5625081572645595e+03 +7.7054698950841196e+05 -2.4700937759855006e+07 
-4.2999999999999927e+00 -5.8108876371332618e-01 +7.6774430170897485e+00 +2.9323220456248316e+00 -1.7479822608581421e+02 +9.6262874213086834e+03 +7.6720847450581216e+05 -2.4856558563069981e+07 
-4.3499999999999925e+00 -5.8111748501006288e-01 +7.6789138078442809e+00 +2.8972983493911157e+00 -1.7420487861108950e+02 +9.6809595354907815e+03 +7.6400039720890205e+05 -2.4954648397189040e+07 
-4.3999999999999924e+00 -5.8114644339248311e-01 +7.6803957967176038e+00 +2.8624436047465927e+00 -1.7363384813523521e+02 +9.7268578125420481e+03 +7.6092809332825511e+05 -2.4997684879433062e+07 
-4.4499999999999922e+00 -5.8117563623500268e-01 +7.6818887959656603e+00 +2.8277563809861754e+00 -1.7308568711326421e+02 +9.7643156704627527e+03 +7.5799689558729029e+05 -2.4988146382288367e+07 
-4.4999999999999920e+00 -5.8120506091205659e-01 +7.6833926178508838e+00 +2.7932352515717431e+00 -1.7256094831789676e+02 +9.7936664087785721e+03 +7.5521213951084355e+05 -2.4928510459386703e+07 
-4.5499999999999918e+00 -5.8123471479805711e-01 +7.6849070746308099e+00 +2.7588787858350607e+00 -1.7206018435197805e+02 +9.8152434409401267e+03 +7.5257915930696763e+05 -2.4821255446122874e+07 
-4.5999999999999917e+00 -5.8126459526743712e-01 +7.6864319785649196e+00 +2.7246855566839296e+00 -1.7158394793324621e+02 +9.8293800899388680e+03 +7.5010329023373092e+05 -2.4668859098153912e+07 
-4.6499999999999915e+00 -5.8129469969461844e-01 +7.6879671419112023e+00 +2.6906541357063238e+00 -1.7113279175993574e+02 +9.8364097097206231e+03 +7.4778986752002127e+05 -2.4473799365075935e+07 
-4.6999999999999913e+00 -5.8132502545403431e-01 +7.6895123769264568e+00 +2.6567830962270369e+00 -1.7070726852192954e+02 +9.8366656139045663e+03 +7.4564422644034843e+05 -2.4238553952824395e+07 
-4.7499999999999911e+00 -5.8135556992009352e-01 +7.6910674958679861e+00 +2.6230710085511082e+00 -1.7030793096242834e+02 +9.8304811912538371e+03 +7.4367170279716665e+05 -2.3965601059775610e+07 
-4.7999999999999909e+00 -5.8138633046723343e-01 +7.6926323109927699e+00 +2.5895164469887622e+00 -1.6993533187462555e+02 +9.8181897348184757e+03 +7.4187763301734114e+05 -2.3657418286350437e+07 
-4.8499999999999908e+00 -5.8141730446986839e-01 +7.6942066345554414e+00 +2.5561179835926167e+00 -1.6959002397190960e+02 +9.8001245888857575e+03 +7.4026735287757951e+05 -2.3316483550398022e+07 
-4.8999999999999906e+00 -5.8144848930241333e-01 +7.6957902788117991e+00 +2.5228741900366671e+00 -1.6927256008425394e+02 +9.7766191164246502e+03 +7.3884619935521937e+05 -2.2945274931419194e+07 
-4.9499999999999904e+00 -5.8147988233930548e-01 +7.6973830560178591e+00 +2.4897836428391682e+00 -1.6898349308792015e+02 +9.7480065484899515e+03 +7.3761950988154917e+05 -2.2546269620729454e+07 
-4.9999999999999902e+00 -5.8151148095495164e-01 +7.6989847784260848e+00 +2.4568449136386463e+00 -1.6872337576482249e+02 +9.7146202495892521e+03 +7.3659262128584553e+05 -2.2121945723353785e+07 
-5.0499999999999901e+00 -5.8154328252376952e-01 +7.7005952582892334e+00 +2.4240565766243383e+00 -1.6849276095618606e+02 +9.6767935164638748e+03 +7.3577087100307841e+05 -2.1674780896585997e+07 
