# multipoles
# s[mm] polynom_b[n=0][T/m^n] polynom_b[n=1][T/m^n] polynom_b[n=2][T/m^n] polynom_b[n=3][T/m^n] polynom_b[n=4][T/m^n] polynom_b[n=5][T/m^n] polynom_b[n=6][T/m^n] 
+0.0000000000000000e+00 -5.7765359222033807e-01 +7.5503383954728545e+00 +7.1513704739190009e+00 +4.4330888460961866e+01 -1.9771572373694085e+04 -6.0544994319116138e+05 +1.1876851983153635e+08 
+5.0000000000000003e-02 -5.7765382403569365e-01 +7.5503623384096175e+00 +7.1578276632751612e+00 +4.4384896743313696e+01 -1.9923332502456586e+04 -6.0610755082890799e+05 +1.1967882044448939e+08 
+1.0000000000000001e-01 -5.7765448697630650e-01 +7.5504107747731135e+00 +7.1637922616795899e+00 +4.4425975022215823e+01 -2.0074205902692698e+04 -6.0672376225732744e+05 +1.2057724575099705e+08 
+1.4999999999999999e-01 -5.7765558005680950e-01 +7.5504835784724005e+00 +7.1692591264665237e+00 +4.4454687764695301e+01 -2.0224047739516252e+04 -6.0729835677398392e+05 +1.2146308694381618e+08 
+2.0000000000000001e-01 -5.7765710229178646e-01 +7.5505806234164830e+00 +7.1742231193996906e+00 +4.4471599479253257e+01 -2.0372713289641255e+04 -6.0783111399095401e+05 +1.2233563593400727e+08 
+2.5000000000000000e-01 -5.7765905269591578e-01 +7.5507017835147483e+00 +7.1786790959243296e+00 +4.4477274686540625e+01 -2.0520057664697819e+04 -6.0832181360792730e+05 +1.2319418354378234e+08 
+2.9999999999999999e-01 -5.7766143028382799e-01 +7.5508469326737560e+00 +7.1826219140138843e+00 +4.4472278060800377e+01 -2.0665936041372428e+04 -6.0877023655877344e+05 +1.2403802102076337e+08 
+3.4999999999999998e-01 -5.7766423407021561e-01 +7.5510159448051484e+00 +7.1860464335451004e+00 +4.4457174097540062e+01 -2.0810203643132591e+04 -6.0917616229140165e+05 +1.2486643991172010e+08 
+4.0000000000000002e-01 -5.7766746306976968e-01 +7.5512086938213816e+00 +7.1889475115930299e+00 +4.4432527299344848e+01 -2.0952715625567591e+04 -6.0953937030868907e+05 +1.2567873133263497e+08 
+4.5000000000000001e-01 -5.7767111629724865e-01 +7.5514250536314576e+00 +7.1913200078436041e+00 +4.4398902322514935e+01 -2.1093327208263792e+04 -6.0985964129720069e+05 +1.2647418680945478e+08 
+5.0000000000000000e-01 -5.7767519276735679e-01 +7.5516648981527670e+00 +7.1931587789953362e+00 +4.4356863539353448e+01 -2.1231893531265618e+04 -6.1013675368389639e+05 +1.2725209733150387e+08 
+5.5000000000000004e-01 -5.7767969149483889e-01 +7.5519281012963644e+00 +7.1944586850184180e+00 +4.4306975594109495e+01 -2.1368269821131420e+04 -6.1037048802716902e+05 +1.2801175446698213e+08 
+5.9999999999999998e-01 -5.7768461149452222e-01 +7.5522145369753542e+00 +7.1952145830710679e+00 +4.4249803079462843e+01 -2.1502311232532396e+04 -6.1056062448574777e+05 +1.2875244931073937e+08 
+6.5000000000000002e-01 -5.7768995178118410e-01 +7.5525240791096016e+00 +7.1954213322191896e+00 +4.4185910352789094e+01 -2.1633872970276603e+04 -6.1070694127029635e+05 +1.2947347329225869e+08 
+6.9999999999999996e-01 -5.7769571136966957e-01 +7.5528566016127758e+00 +7.1950737902524500e+00 +4.4115862040253639e+01 -2.1762810199568350e+04 -6.1080921874984587e+05 +1.3017411754791600e+08 
+7.5000000000000000e-01 -5.7770188927476473e-01 +7.5532119784044491e+00 +7.1941668158659677e+00 +4.4040222575044126e+01 -2.1888978115962331e+04 -6.1086723573312222e+05 +1.3085367344500704e+08 
+8.0000000000000004e-01 -5.7770848451137746e-01 +7.5535900834009206e+00 +7.1926952668808086e+00 +4.3959556541918282e+01 -2.2012231891342475e+04 -6.1088077224732772e+05 +1.3151143218451987e+08 
+8.4999999999999998e-01 -5.7771549609436512e-01 +7.5539907905228079e+00 +7.1906540029956449e+00 +4.3874428390291889e+01 -2.2132426746883153e+04 -6.1084960720613727e+05 +1.3214668529517841e+08 
+9.0000000000000002e-01 -5.7772292303862027e-01 +7.5544139736901474e+00 +7.1880378817696808e+00 +4.3785402611101325e+01 -2.2249417841790229e+04 -6.1077351981870190e+05 +1.3275872386608639e+08 
+9.4999999999999996e-01 -5.7773076435906789e-01 +7.5548595068256805e+00 +7.1848417591499887e+00 +4.3693043620495800e+01 -2.2363060301964728e+04 -6.1065228869816603e+05 +1.3334683880000712e+08 
+1.0000000000000000e+00 -5.7773901907060699e-01 +7.5553272638510975e+00 +7.1810604973859125e+00 +4.3597915913440005e+01 -2.2473209416319380e+04 -6.1048569309171347e+05 +1.3391032206756274e+08 
+1.0500000000000000e+00 -5.7774768618820238e-01 +7.5558171186893608e+00 +7.1766889524184929e+00 +4.3500583957622439e+01 -2.2579720307173175e+04 -6.1027351202456956e+05 +1.3444846452985513e+08 
+1.1000000000000001e+00 -5.7775676472685378e-01 +7.5563289452653493e+00 +7.1717219833464609e+00 +4.3401612165260367e+01 -2.2682448180612697e+04 -6.1001552403211233e+05 +1.3496055760061872e+08 
+1.1499999999999999e+00 -5.7776625370151979e-01 +7.5568626175054154e+00 +7.1661544487698245e+00 +4.3301564925351713e+01 -2.2781248231666472e+04 -6.0971150745420845e+05 +1.3544589262497291e+08 
+1.2000000000000000e+00 -5.7777615212719247e-01 +7.5574180093354117e+00 +7.1599812053045833e+00 +4.3201006676324596e+01 -2.2875975604207204e+04 -6.0936124106269109e+05 +1.3590376060732472e+08 
+1.2500000000000000e+00 -5.7778645901890469e-01 +7.5579949946837655e+00 +7.1531971132636212e+00 +4.3100501773897989e+01 -2.2966485539045931e+04 -6.0896450290186086e+05 +1.3633345319410256e+08 
+1.3000000000000000e+00 -5.7779717339170922e-01 +7.5585934474794607e+00 +7.1457970287882357e+00 +4.3000614585828231e+01 -2.3052633166415566e+04 -6.0852107114998810e+05 +1.3673426128637603e+08 
+1.3500000000000001e+00 -5.7780829426061486e-01 +7.5592132416510038e+00 +7.1377758120688419e+00 +4.2901909524416759e+01 -2.3134273728808828e+04 -6.0803072430768143e+05 +1.3710547654822725e+08 
+1.3999999999999999e+00 -5.7781982064074788e-01 +7.5598542511311688e+00 +7.1291283213136341e+00 +4.2804950857427130e+01 -2.3211262415048950e+04 -6.0749323973108642e+05 +1.3744639028054327e+08 
+1.4500000000000000e+00 -5.7783175154716182e-01 +7.5605163498526489e+00 +7.1198494136956638e+00 +4.2710302883012730e+01 -2.3283454387217145e+04 -6.0690839498875232e+05 +1.3775629359808633e+08 
+1.5000000000000000e+00 -5.7784408599496306e-01 +7.5611994117472703e+00 +7.1099339477044676e+00 +4.2618529961910035e+01 -2.3350704843563926e+04 -6.0627596817997179e+05 +1.3803447786043569e+08 
+1.5500000000000000e+00 -5.7785682299926966e-01 +7.5619033107509877e+00 +7.0993767811403528e+00 +4.2530196316472306e+01 -2.3412868964638536e+04 -6.0559573627026414e+05 +1.3828023430328003e+08 
+1.6000000000000001e+00 -5.7786996157524628e-01 +7.5626279207974463e+00 +7.0881727728813058e+00 +4.2445866277235027e+01 -2.3469801968544780e+04 -6.0486747706870618e+05 +1.3849285444415843e+08 
+1.6499999999999999e+00 -5.7788350073799422e-01 +7.5633731158254776e+00 +7.0763167813054419e+00 +4.2366104011936564e+01 -2.3521359048214334e+04 -6.0409096712256095e+05 +1.3867162957659662e+08 
+1.7000000000000000e+00 -5.7789743950272698e-01 +7.5641387697722680e+00 +7.0638036629662331e+00 +4.2291473768186393e+01 -2.3567395359423015e+04 -6.0326598360277433e+05 +1.3881585078765634e+08 
+1.7500000000000000e+00 -5.7791177688463669e-01 +7.5649247565781730e+00 +7.0506282778772151e+00 +4.2222539687592558e+01 -2.3607766150964824e+04 -6.0239230278704362e+05 +1.3892480978067368e+08 
+1.8000000000000000e+00 -5.7792651189885880e-01 +7.5657309501835792e+00 +7.0367854823751683e+00 +4.2159865956019331e+01 -2.3642326571515616e+04 -6.0146970139460999e+05 +1.3899779757553884e+08 
+1.8500000000000001e+00 -5.7794164356064781e-01 +7.5665572245298467e+00 +7.0222701368823479e+00 +4.2104016717139324e+01 -2.3670931883829842e+04 -6.0049795570149377e+05 +1.3903410596928975e+08 
+1.8999999999999999e+00 -5.7795717088524412e-01 +7.5674034535591028e+00 +7.0070770967418810e+00 +4.2055556140578474e+01 -2.3693437215009206e+04 -5.9947684232612478e+05 +1.3903302583962119e+08 
+1.9500000000000000e+00 -5.7797309288784926e-01 +7.5682695112179683e+00 +6.9912012222019042e+00 +4.2015048210412793e+01 -2.3709697825932704e+04 -5.9840613623756485e+05 +1.3899384896635869e+08 
+2.0000000000000000e+00 -5.7798926842621112e-01 +7.5691476783420919e+00 +6.9747829759610473e+00 +4.1983206274914295e+01 -2.3719562636787872e+04 -5.9729595014066820e+05 +1.3891699040269417e+08 
+2.0499999999999998e+00 -5.7800582862445271e-01 +7.5700450682642551e+00 +6.9576969773064601e+00 +4.1959791061986031e+01 -2.3723302900023038e+04 -5.9614035854858125e+05 +1.3880309118633008e+08 
+2.1000000000000001e+00 -5.7802277109200717e-01 +7.5709615303339985e+00 +6.9399518893345435e+00 +4.1944857826751104e+01 -2.3721074469374471e+04 -5.9494294686731917e+05 +1.3865326788581145e+08 
+2.1499999999999999e+00 -5.7804009343829610e-01 +7.5718969138994145e+00 +6.9215563754867837e+00 +4.1938461904094389e+01 -2.3713033207442506e+04 -5.9370730117127323e+05 +1.3846863713172269e+08 
+2.2000000000000002e+00 -5.7805779327276541e-01 +7.5728510683125849e+00 +6.9025190965268335e+00 +4.1940658495432565e+01 -2.3699334904662428e+04 -5.9243700649827102e+05 +1.3825031506617203e+08 
+2.2500000000000000e+00 -5.7807586820491375e-01 +7.5738238429227867e+00 +6.8828487152088877e+00 +4.1951502934480821e+01 -2.3680135406194768e+04 -5.9113564898024756e+05 +1.3799941820791346e+08 
+2.2999999999999998e+00 -5.7809431584419346e-01 +7.5748150870812339e+00 +6.8625538942069690e+00 +4.1971050497362441e+01 -2.3655590555738065e+04 -5.8980681428414641e+05 +1.3771706306296811e+08 
+2.3500000000000001e+00 -5.7811313380016160e-01 +7.5758246501450301e+00 +6.8416432969766374e+00 +4.1999356245940632e+01 -2.3625856214853189e+04 -5.8845408637156035e+05 +1.3740436625373012e+08 
+2.3999999999999999e+00 -5.7813231968222945e-01 +7.5768523814605580e+00 +6.8201255848479061e+00 +4.2036475704671375e+01 -2.3591088196117707e+04 -5.8708105300759978e+05 +1.3706244409828579e+08 
+2.4500000000000002e+00 -5.7815187109996746e-01 +7.5778981303849218e+00 +6.7980094197170224e+00 +4.2082463981724615e+01 -2.3551442320219187e+04 -5.8569129859951895e+05 +1.3669241294714567e+08 
+2.5000000000000000e+00 -5.7817178566289529e-01 +7.5789617462712009e+00 +6.7753034673387376e+00 +4.2137376367099975e+01 -2.3507074513512140e+04 -5.8428840903926152e+05 +1.3629538987018391e+08 
+2.5499999999999998e+00 -5.7819206098052445e-01 +7.5800430784749206e+00 +6.7520163853205224e+00 +4.2201268074944679e+01 -2.3458140482860774e+04 -5.8287596963726333e+05 +1.3587249045721123e+08 
+2.6000000000000001e+00 -5.7821269466247349e-01 +7.5811419763498380e+00 +6.7281568384877080e+00 +4.2274194420196494e+01 -2.3404796132522140e+04 -5.8145756662168005e+05 +1.3542483164516628e+08 
+2.6499999999999999e+00 -5.7823368431824862e-01 +7.5822582892535735e+00 +6.7037334895575462e+00 +4.2356210565457403e+01 -2.3347197308746905e+04 -5.8003678489335033e+05 +1.3495352997311473e+08 
+2.7000000000000002e+00 -5.7825502755741709e-01 +7.5833918665396345e+00 +6.6787549997262285e+00 +4.2447371882067209e+01 -2.3285499813167971e+04 -5.7861721121124236e+05 +1.3445970167113671e+08 
+2.7500000000000000e+00 -5.7827672198958169e-01 +7.5845425575678647e+00 +6.6532300305048313e+00 +4.2547733483920972e+01 -2.3219859461074800e+04 -5.7720243017045001e+05 +1.3394446308185069e+08 
+2.7999999999999998e+00 -5.7829876522431378e-01 +7.5857102116921533e+00 +6.6271672455493436e+00 +4.2657350770454634e+01 -2.3150432124696003e+04 -5.7579602883838932e+05 +1.3340893093123299e+08 
+2.8500000000000001e+00 -5.7832115487123437e-01 +7.5868946782734401e+00 +6.6005753055157870e+00 +4.2776278856333398e+01 -2.3077373592365289e+04 -5.7440159191734227e+05 +1.3285422137138897e+08 
+2.8999999999999999e+00 -5.7834388853995811e-01 +7.5880958066686341e+00 +6.5734628734786869e+00 +4.2904573040972402e+01 -2.3000839720721699e+04 -5.7302270566418988e+05 +1.3228145102933952e+08 
+2.9500000000000002e+00 -5.7836696384004560e-01 +7.5893134462373668e+00 +6.5458386105634609e+00 +4.3042288549807751e+01 -2.2920986311101951e+04 -5.7166295583126578e+05 +1.3169173615356220e+08 
+3.0000000000000000e+00 -5.7839037838118323e-01 +7.5905474463337841e+00 +6.5177111793641380e+00 +4.3189480836550736e+01 -2.2837969205754103e+04 -5.7032593004413787e+05 +1.3108619327228737e+08 
+3.0499999999999998e+00 -5.7841412977299833e-01 +7.5917976563239691e+00 +6.4890892401648044e+00 +4.3346204888165090e+01 -2.2751944186396504e+04 -5.6901521213897550e+05 +1.3046593852133295e+08 
+3.1000000000000001e+00 -5.7843821562511377e-01 +7.5930639255641754e+00 +6.4599814556467594e+00 +4.3512516121708096e+01 -2.2663067097606003e+04 -5.6773438956294511e+05 +1.2983208845483084e+08 
+3.1499999999999999e+00 -5.7846263354724425e-01 +7.5943461034136659e+00 +6.4303964881374061e+00 +4.3688469841047599e+01 -2.2571493771181769e+04 -5.6648704886052618e+05 +1.2918575953425190e+08 
+3.2000000000000002e+00 -5.7848738114896492e-01 +7.5956440392348590e+00 +6.4003429989700109e+00 +4.3874121247909557e+01 -2.2477380017261021e+04 -5.6527677579051640e+05 +1.2852806809620689e+08 
+3.2500000000000000e+00 -5.7851245603996992e-01 +7.5969575823878346e+00 +6.3698296489753350e+00 +4.4069525646983870e+01 -2.2380881628893956e+04 -5.6410715698305832e+05 +1.2786013035628940e+08 
+3.2999999999999998e+00 -5.7853785582997530e-01 +7.5982865822329275e+00 +6.3388651015917468e+00 +4.4274738365906686e+01 -2.2282154471115471e+04 -5.6298177937638608e+05 +1.2718306302546304e+08 
+3.3500000000000001e+00 -5.7856357812865211e-01 +7.5996308881319710e+00 +6.3074580158026778e+00 +4.4489814678786800e+01 -2.2181354285819900e+04 -5.6190422946687462e+05 +1.2649798197565603e+08 
+3.3999999999999999e+00 -5.7858962054566576e-01 +7.6009903494470130e+00 +6.2756170529917288e+00 +4.4714809871695721e+01 -2.2078636880948183e+04 -5.6087809391549451e+05 +1.2580600353809921e+08 
+3.4500000000000002e+00 -5.7861598069075970e-01 +7.6023648155383166e+00 +6.2433508774928859e+00 +4.4949779323436793e+01 -2.1974158145044563e+04 -5.5990696022569784e+05 +1.2510824459511970e+08 
+3.5000000000000000e+00 -5.7864265617359112e-01 +7.6037541357697540e+00 +6.2106681466554878e+00 +4.5194778280440737e+01 -2.1868073775516172e+04 -5.5899441483745910e+05 +1.2440582073558082e+08 
+3.5499999999999998e+00 -5.7866964460388859e-01 +7.6051581595016540e+00 +6.1775775242626754e+00 +4.5449862156562276e+01 -2.1760539643461398e+04 -5.5814404566814215e+05 +1.2369984872698669e+08 
+3.6000000000000001e+00 -5.7869694359142199e-01 +7.6065767360972174e+00 +6.1440876709792240e+00 +4.5715086255512254e+01 -2.1651711538266070e+04 -5.5735943975101702e+05 +1.2299144479894993e+08 
+3.6499999999999999e+00 -5.7872455074583762e-01 +7.6080097149215593e+00 +6.1102072482034728e+00 +4.5990505826296392e+01 -2.1541745264058343e+04 -5.5664418373834924e+05 +1.2228172526920053e+08 
+3.6999999999999900e+00 -5.7875246367693778e-01 +7.6094569453323588e+00 +6.0759449147445270e+00 +4.6276176436882416e+01 -2.1430796558065656e+04 -5.5600186699151597e+05 +1.2157180602188247e+08 
+3.7499999999999898e+00 -5.7878067999439586e-01 +7.6109182766949708e+00 +6.0413093347823459e+00 +4.6572153365218725e+01 -2.1319021298246651e+04 -5.5543607654696342e+05 +1.2086280388146320e+08 
+3.7999999999999901e+00 -5.7880919730798475e-01 +7.6123935583728723e+00 +6.0063091648476794e+00 +4.6878491974921403e+01 -2.1206575162368135e+04 -5.5495040022285294e+05 +1.2015583435272355e+08 
+3.8499999999999899e+00 -5.7883801322748707e-01 +7.6138826397289767e+00 +5.9709530716637227e+00 +4.7195247662895625e+01 -2.1093614095229466e+04 -5.5454842612877395e+05 +1.1945201471786827e+08 
+3.8999999999999901e+00 -5.7886712536259410e-01 +7.6153853701259147e+00 +5.9352497098018295e+00 +4.7522475864139281e+01 -2.0980293718084358e+04 -5.5423374280847399e+05 +1.1875246010091808e+08 
+3.9499999999999900e+00 -5.7889653129483454e-01 +7.6169015966339879e+00 +5.8992078101295107e+00 +4.7860224972457395e+01 -2.0866763952256235e+04 -5.5400972493630543e+05 +1.1805823477859062e+08 
+3.9999999999999898e+00 -5.7892622827742246e-01 +7.6184311354380627e+00 +5.8628373515341909e+00 +4.8208363115353499e+01 -2.0753103403703215e+04 -5.5387666743500973e+05 +1.1736974823254587e+08 
+4.0499999999999901e+00 -5.7895621335163339e-01 +7.6199737807872436e+00 +5.8261493649759979e+00 +4.8566591903723811e+01 -2.0639343191446649e+04 -5.5383257756530936e+05 +1.1668696377775227e+08 
+4.0999999999999899e+00 -5.7898648355524840e-01 +7.6215293264786350e+00 +5.7891549117610097e+00 +4.8934607501728117e+01 -2.0525513547628329e+04 -5.5387540833061817e+05 +1.1600983604794341e+08 
+4.1499999999999897e+00 -5.7901703592617892e-01 +7.6230975663152716e+00 +5.7518650567784411e+00 +4.9312105828944610e+01 -2.0411644801359165e+04 -5.5400311078845058e+05 +1.1533832032718739e+08 
+4.1999999999999904e+00 -5.7904786750215409e-01 +7.6246782940906295e+00 +5.7142908570371560e+00 +4.9698783156842794e+01 -2.0297767069898804e+04 -5.5421363872080774e+05 +1.1467237047504601e+08 
+4.2499999999999902e+00 -5.7907897532102592e-01 +7.6262713036006415e+00 +5.6764433761120561e+00 +5.0094335655721409e+01 -2.0183910646430159e+04 -5.5450494514841889e+05 +1.1401194153705157e+08 
+4.2999999999999901e+00 -5.7911035642058473e-01 +7.6278763886432106e+00 +5.6383336766186627e+00 +5.0498459404011790e+01 -2.0070105798424982e+04 -5.5487498231781239e+05 +1.1335698838441472e+08 
+4.3499999999999899e+00 -5.7914200783862524e-01 +7.6294933430139320e+00 +5.5999728172223531e+00 +5.0910850527947289e+01 -1.9956382687545840e+04 -5.5532170272953343e+05 +1.1270746517663085e+08 
+4.3999999999999897e+00 -5.7917392661300082e-01 +7.6311219605068787e+00 +5.5613718615658456e+00 +5.1331205221239493e+01 -1.9842771604190628e+04 -5.5584305952035985e+05 +1.1206332692314512e+08 
+4.4499999999999904e+00 -5.7920610978152165e-01 +7.6327620349180201e+00 +5.5225418710884489e+00 +5.1759219569725147e+01 -1.9729302785685908e+04 -5.5643700485686050e+05 +1.1142452829976730e+08 
+4.4999999999999902e+00 -5.7923855438194394e-01 +7.6344133600372031e+00 +5.4834939071612423e+00 +5.2194589886605200e+01 -1.9616006461001598e+04 -5.5710149272959412e+05 +1.1079102390351915e+08 
+4.5499999999999901e+00 -5.7927125745218178e-01 +7.6360757296575965e+00 +5.4442390306070720e+00 +5.2637012321509872e+01 -1.9502912850375717e+04 -5.5783447576177795e+05 +1.1016276829164435e+08 
+4.5999999999999899e+00 -5.7930421602991355e-01 +7.6377489375739236e+00 +5.4047883042214018e+00 +5.3086182943400267e+01 -1.9390052221008693e+04 -5.5863390585734916e+05 +1.0953971631928757e+08 
+4.6499999999999897e+00 -5.7933742715302849e-01 +7.6394327775737167e+00 +5.3651527891007138e+00 +5.3541798086920174e+01 -1.9277454793220706e+04 -5.5949773708568735e+05 +1.0892182252041242e+08 
+4.6999999999999904e+00 -5.7937088785933488e-01 +7.6411270434492051e+00 +5.3253435476414994e+00 +5.4003553864627790e+01 -1.9165150827090645e+04 -5.6042392163956119e+05 +1.0830904171600389e+08 
+4.7499999999999902e+00 -5.7940459518660892e-01 +7.6428315289887019e+00 +5.2853716418136649e+00 +5.4471146525563050e+01 -1.9053170569309073e+04 -5.6141041278014216e+05 +1.0770132862907511e+08 
+4.7999999999999901e+00 -5.7943854617267576e-01 +7.6445460279786959e+00 +5.2452481321551581e+00 +5.4944272354267696e+01 -1.8941544221839733e+04 -5.6245516399709205e+05 +1.0709863765965535e+08 
+4.8499999999999899e+00 -5.7947273785536113e-01 +7.6462703342083289e+00 +5.2049840808862955e+00 +5.5422627507037703e+01 -1.8830302039829796e+04 -5.6355612771406642e+05 +1.0650092359399864e+08 
+4.8999999999999897e+00 -5.7950716727235985e-01 +7.6480042414634850e+00 +5.1645905511484989e+00 +5.5905908247350069e+01 -1.8719474293879422e+04 -5.6471125718628557e+05 +1.0590814129207331e+08 
+4.9499999999999904e+00 -5.7954159725659637e-01 +7.6497357642968646e+00 +5.1243522283464005e+00 +5.6390501460278088e+01 -1.8609832856021658e+04 -5.6591020405252744e+05 +1.0532418773037653e+08 
+4.9999999999999902e+00 -5.7957625596395979e-01 +7.6514763536374817e+00 +5.0840079227593096e+00 +5.6879356770204062e+01 -1.8500659753479838e+04 -5.6715856425519718e+05 +1.0474501054998566e+08 
+5.0499999999999901e+00 -5.7961114049166851e-01 +7.6532258074063053e+00 +5.0435684728242647e+00 +5.7372176667079131e+01 -1.8391984587095354e+04 -5.6845433305509062e+05 +1.0417056511681658e+08 
