# field on trajectory
# s[mm] rx[mm] ry[mm] rz[mm] bx[T] by[T] bz[T]
0.0000000000000000e+00 +8.5980000000000008e+00 +0.0000000000000000e+00 +0.0000000000000000e+00 -2.9729363679962519e-02 -5.5378273622652685e-01 +4.9823092557102497e-03
5.0000000000000003e-02 +8.5979999308452477e+00 +0.0000000000000000e+00 +4.9999999999936227e-02 -2.9729988421255994e-02 -5.5378187911544019e-01 +4.9804910448926426e-03
1.0000000000000001e-01 +8.5979997233811165e+00 +0.0000000000000000e+00 +9.9999999999489872e-02 -2.9730634219888551e-02 -5.5378137771196179e-01 +4.9786848640629945e-03
1.5000000000000002e-01 +8.5979993776077333e+00 +0.0000000000000000e+00 +1.4999999999827834e-01 -2.9731301042527785e-02 -5.5378123148756753e-01 +4.9768908403798667e-03
2.0000000000000001e-01 +8.5979988935251335e+00 +0.0000000000000000e+00 +1.9999999999591905e-01 -2.9731988855842301e-02 -5.5378143991375040e-01 +4.9751091010023889e-03
2.5000000000000000e-01 +8.5979982711332656e+00 +0.0000000000000000e+00 +2.4999999999202940e-01 -2.9732697626501617e-02 -5.5378200246201792e-01 +4.9733397730902622e-03
2.9999999999999999e-01 +8.5979975104319877e+00 +0.0000000000000000e+00 +2.9999999998622678e-01 -2.9733427321176308e-02 -5.5378291860389450e-01 +4.9715829838037715e-03
3.4999999999999998e-01 +8.5979966114210722e+00 +0.0000000000000000e+00 +3.4999999997812864e-01 -2.9734177906537890e-02 -5.5378418781092098e-01 +4.9698388603037977e-03
3.9999999999999997e-01 +8.5979955741002030e+00 +0.0000000000000000e+00 +3.9999999996735236e-01 -2.9734949349258903e-02 -5.5378580955465384e-01 +4.9681075297518147e-03
4.4999999999999996e-01 +8.5979943984689733e+00 +0.0000000000000000e+00 +4.4999999995351536e-01 -2.9735741616012869e-02 -5.5378778330666578e-01 +4.9663891193098952e-03
4.9999999999999994e-01 +8.5979930845268910e+00 +0.0000000000000000e+00 +4.9999999993623501e-01 -2.9736554673474313e-02 -5.5379010853854527e-01 +4.9646837561407291e-03
5.4999999999999993e-01 +8.5979916322733754e+00 +0.0000000000000000e+00 +5.4999999991512871e-01 -2.9737388488318781e-02 -5.5379278472189752e-01 +4.9629915674076243e-03
5.9999999999999998e-01 +8.5979900417077584e+00 +0.0000000000000000e+00 +5.9999999988981378e-01 -2.9738243027222815e-02 -5.5379581132834310e-01 +4.9613126802745136e-03
6.5000000000000002e-01 +8.5979883128292833e+00 +0.0000000000000000e+00 +6.4999999985990764e-01 -2.9739118256863976e-02 -5.5379918782951909e-01 +4.9596472219059625e-03
7.0000000000000007e-01 +8.5979864456371082e+00 +0.0000000000000000e+00 +6.9999999982502759e-01 -2.9740014143920825e-02 -5.5380291369707813e-01 +4.9579953194671721e-03
7.5000000000000011e-01 +8.5979844401303023e+00 +0.0000000000000000e+00 +7.4999999978479104e-01 -2.9740930655072970e-02 -5.5380698840268960e-01 +4.9563571001239948e-03
8.0000000000000016e-01 +8.5979822963078476e+00 +0.0000000000000000e+00 +7.9999999973881530e-01 -2.9741867757001043e-02 -5.5381141141803858e-01 +4.9547326910429398e-03
8.5000000000000020e-01 +8.5979800141686393e+00 +0.0000000000000000e+00 +8.4999999968671780e-01 -2.9742825416386679e-02 -5.5381618221482609e-01 +4.9531222193911709e-03
9.0000000000000024e-01 +8.5979775937114855e+00 +0.0000000000000000e+00 +8.9999999962811572e-01 -2.9743803599912581e-02 -5.5382130026476906e-01 +4.9515258123365227e-03
9.5000000000000029e-01 +8.5979750349351090e+00 +0.0000000000000000e+00 +9.4999999956262637e-01 -2.9744802274262433e-02 -5.5382676503960093e-01 +4.9499435970475044e-03
1.0000000000000002e+00 +8.5979723378381436e+00 +0.0000000000000000e+00 +9.9999999948986706e-01 -2.9745821406121056e-02 -5.5383257601107083e-01 +4.9483757006933112e-03
1.0500000000000003e+00 +8.5979695024191383e+00 +0.0000000000000000e+00 +1.0499999994094551e+00 -2.9746860962174222e-02 -5.5383873265094419e-01 +4.9468222504438254e-03
1.1000000000000003e+00 +8.5979665286765563e+00 +0.0000000000000000e+00 +1.0999999993210077e+00 -2.9747920909108782e-02 -5.5384523443100186e-01 +4.9452833734696224e-03
1.1500000000000004e+00 +8.5979634166087742e+00 +0.0000000000000000e+00 +1.1499999992241421e+00 -2.9749001213612677e-02 -5.5385208082304183e-01 +4.9437591969419938e-03
1.2000000000000004e+00 +8.5979601662140812e+00 +0.0000000000000000e+00 +1.1999999991184755e+00 -2.9750101842374838e-02 -5.5385927129887635e-01 +4.9422498480329270e-03
1.2500000000000004e+00 +8.5979567774906815e+00 +0.0000000000000000e+00 +1.2499999990036250e+00 -2.9751222762085316e-02 -5.5386680533033528e-01 +4.9407554539151336e-03
1.3000000000000005e+00 +8.5979532504366940e+00 +0.0000000000000000e+00 +1.2999999988792079e+00 -2.9752363939435183e-02 -5.5387468238926396e-01 +4.9392761417620589e-03
1.3500000000000005e+00 +8.5979495850501504e+00 +0.0000000000000000e+00 +1.3499999987448414e+00 -2.9753525341116631e-02 -5.5388290194752388e-01 +4.9378120387478710e-03
1.4000000000000006e+00 +8.5979457813289990e+00 +0.0000000000000000e+00 +1.3999999986001426e+00 -2.9754706933822862e-02 -5.5389146347699159e-01 +4.9363632720474766e-03
1.4500000000000006e+00 +8.5979418392711011e+00 +0.0000000000000000e+00 +1.4499999984447285e+00 -2.9755908684248201e-02 -5.5390036644956098e-01 +4.9349299688365364e-03
1.5000000000000007e+00 +8.5979377588742327e+00 +0.0000000000000000e+00 +1.4999999982782162e+00 -2.9757130559088033e-02 -5.5390961033714126e-01 +4.9335122562914665e-03
1.5500000000000007e+00 +8.5979335401360864e+00 +0.0000000000000000e+00 +1.5499999981002226e+00 -2.9758372525038830e-02 -5.5391919461165740e-01 +4.9321102615894306e-03
1.6000000000000008e+00 +8.5979291830542675e+00 +0.0000000000000000e+00 +1.5999999979103650e+00 -2.9759634548798149e-02 -5.5392911874505080e-01 +4.9307241119083767e-03
1.6500000000000008e+00 +8.5979246876262962e+00 +0.0000000000000000e+00 +1.6499999977082602e+00 -2.9760916597064660e-02 -5.5393938220927874e-01 +4.9293539344270193e-03
1.7000000000000008e+00 +8.5979200538496112e+00 +0.0000000000000000e+00 +1.6999999974935254e+00 -2.9762218636538097e-02 -5.5394998447631405e-01 +4.9279998563248580e-03
1.7500000000000009e+00 +8.5979152817215638e+00 +0.0000000000000000e+00 +1.7499999972657774e+00 -2.9763540633919311e-02 -5.5396092501814642e-01 +4.9266620047821825e-03
1.8000000000000009e+00 +8.5979103712394220e+00 +0.0000000000000000e+00 +1.7999999970246330e+00 -2.9764882555910262e-02 -5.5397220330678032e-01 +4.9253405069800771e-03
1.8500000000000010e+00 +8.5979053224003703e+00 +0.0000000000000000e+00 +1.8499999967697092e+00 -2.9766244369214000e-02 -5.5398381881423731e-01 +4.9240354901004370e-03
1.9000000000000010e+00 +8.5979001352015061e+00 +0.0000000000000000e+00 +1.8999999965006229e+00 -2.9767626040534713e-02 -5.5399577101255426e-01 +4.9227470813259597e-03
1.9500000000000011e+00 +8.5978948096398433e+00 +0.0000000000000000e+00 +1.9499999962169909e+00 -2.9769027536577668e-02 -5.5400805937378383e-01 +4.9214754078401668e-03
2.0000000000000009e+00 +8.5978893457123142e+00 +0.0000000000000000e+00 +1.9999999959184300e+00 -2.9770448824049289e-02 -5.5402068336999521e-01 +4.9202205968274064e-03
2.0500000000000007e+00 +8.5978837434157658e+00 +0.0000000000000000e+00 +2.0499999956045567e+00 -2.9771889860835204e-02 -5.5403364223064921e-01 +4.9189827633726192e-03
2.1000000000000005e+00 +8.5978780027469632e+00 +0.0000000000000000e+00 +2.0999999952749882e+00 -2.9773350569534295e-02 -5.5404693421472551e-01 +4.9177619741605904e-03
2.1500000000000004e+00 +8.5978721237025848e+00 +0.0000000000000000e+00 +2.1499999949293405e+00 -2.9774830863924028e-02 -5.5406055733859116e-01 +4.9165582837766260e-03
2.2000000000000002e+00 +8.5978661062792288e+00 +0.0000000000000000e+00 +2.1999999945672308e+00 -2.9776330657782228e-02 -5.5407450961862548e-01 +4.9153717468067995e-03
2.2500000000000000e+00 +8.5978599504734099e+00 +0.0000000000000000e+00 +2.2499999941882756e+00 -2.9777849864887077e-02 -5.5408878907121972e-01 +4.9142024178379451e-03
2.2999999999999998e+00 +8.5978536562815631e+00 +0.0000000000000000e+00 +2.2999999937920910e+00 -2.9779388399017049e-02 -5.5410339371277528e-01 +4.9130503514576542e-03
2.3499999999999996e+00 +8.5978472237000396e+00 +0.0000000000000000e+00 +2.3499999933782938e+00 -2.9780946173950891e-02 -5.5411832155970564e-01 +4.9119156022542961e-03
2.3999999999999995e+00 +8.5978406527251128e+00 +0.0000000000000000e+00 +2.3999999929465008e+00 -2.9782523103467566e-02 -5.5413357062843416e-01 +4.9107982248170036e-03
2.4499999999999993e+00 +8.5978339433529740e+00 +0.0000000000000000e+00 +2.4499999924963283e+00 -2.9784119101346249e-02 -5.5414913893539575e-01 +4.9096982737356814e-03
2.4999999999999991e+00 +8.5978270955797331e+00 +0.0000000000000000e+00 +2.4999999920273925e+00 -2.9785734081366227e-02 -5.5416502449703464e-01 +4.9086158036010076e-03
2.5499999999999989e+00 +8.5978201094014253e+00 +0.0000000000000000e+00 +2.5499999915393099e+00 -2.9787367957306923e-02 -5.5418122532980563e-01 +4.9075508690044336e-03
2.5999999999999988e+00 +8.5978129848140021e+00 +0.0000000000000000e+00 +2.5999999910316967e+00 -2.9789020642947823e-02 -5.5419773945017325e-01 +4.9065035245381876e-03
2.6499999999999986e+00 +8.5978057218133408e+00 +0.0000000000000000e+00 +2.6499999905041691e+00 -2.9790692052068479e-02 -5.5421456487461129e-01 +4.9054738247952803e-03
2.6999999999999984e+00 +8.5977983203952384e+00 +0.0000000000000000e+00 +2.6999999899563432e+00 -2.9792382098448408e-02 -5.5423169961960417e-01 +4.9044618243695012e-03
2.7499999999999982e+00 +8.5977907805554175e+00 +0.0000000000000000e+00 +2.7499999893878355e+00 -2.9794090695867064e-02 -5.5424914170164330e-01 +4.9034675778554214e-03
2.7999999999999980e+00 +8.5977831022895188e+00 +0.0000000000000000e+00 +2.7999999887982621e+00 -2.9795817758103867e-02 -5.5426688913723043e-01 +4.9024911398483943e-03
2.8499999999999979e+00 +8.5977752855931122e+00 +0.0000000000000000e+00 +2.8499999881872387e+00 -2.9797563198938115e-02 -5.5428493994287553e-01 +4.9015325649445695e-03
2.8999999999999977e+00 +8.5977673304616893e+00 +0.0000000000000000e+00 +2.8999999875543816e+00 -2.9799326932148922e-02 -5.5430329213509733e-01 +4.9005919077408774e-03
2.9499999999999975e+00 +8.5977592368906652e+00 +0.0000000000000000e+00 +2.9499999868993068e+00 -2.9801108871515235e-02 -5.5432194373042187e-01 +4.8996692228350435e-03
2.9999999999999973e+00 +8.5977510048753825e+00 +0.0000000000000000e+00 +2.9999999862216300e+00 -2.9802908930815736e-02 -5.5434089274538390e-01 +4.8987645648255768e-03
3.0499999999999972e+00 +8.5977426344111088e+00 +0.0000000000000000e+00 +3.0499999855209672e+00 -2.9804727023828883e-02 -5.5436013719652522e-01 +4.8978779883117963e-03
3.0999999999999970e+00 +8.5977341254930391e+00 +0.0000000000000000e+00 +3.0999999847969342e+00 -2.9806563064332769e-02 -5.5437967510039521e-01 +4.8970095478938058e-03
3.1499999999999968e+00 +8.5977254781162920e+00 +0.0000000000000000e+00 +3.1499999840491468e+00 -2.9808416966105200e-02 -5.5439950447355124e-01 +4.8961592981725142e-03
3.1999999999999966e+00 +8.5977166922759150e+00 +0.0000000000000000e+00 +3.1999999832772210e+00 -2.9810288642923559e-02 -5.5441962333255657e-01 +4.8953272937496285e-03
3.2499999999999964e+00 +8.5977077679668845e+00 +0.0000000000000000e+00 +3.2499999824807722e+00 -2.9812178008564796e-02 -5.5444002969398110e-01 +4.8945135892276568e-03
3.2999999999999963e+00 +8.5976987051841043e+00 +0.0000000000000000e+00 +3.2999999816594157e+00 -2.9814084976805443e-02 -5.5446072157440218e-01 +4.8937182392099158e-03
3.3499999999999961e+00 +8.5976895039224051e+00 +0.0000000000000000e+00 +3.3499999808127674e+00 -2.9816009461421482e-02 -5.5448169699040228e-01 +4.8929412983005280e-03
3.3999999999999959e+00 +8.5976801641765501e+00 +0.0000000000000000e+00 +3.3999999799404428e+00 -2.9817951376188395e-02 -5.5450295395857119e-01 +4.8921828211044242e-03
3.4499999999999957e+00 +8.5976706859412300e+00 +0.0000000000000000e+00 +3.4499999790420572e+00 -2.9819910634881087e-02 -5.5452449049550312e-01 +4.8914428622273444e-03
3.4999999999999956e+00 +8.5976610692110658e+00 +0.0000000000000000e+00 +3.4999999781172262e+00 -2.9821887151273801e-02 -5.5454630461779852e-01 +4.8907214762758441e-03
3.5499999999999954e+00 +8.5976513139806094e+00 +0.0000000000000000e+00 +3.5499999771655650e+00 -2.9823880839140168e-02 -5.5456839434206229e-01 +4.8900187178572930e-03
3.5999999999999952e+00 +8.5976414202443436e+00 +0.0000000000000000e+00 +3.5999999761866888e+00 -2.9825891612253137e-02 -5.5459075768490584e-01 +4.8893346415798747e-03
3.6499999999999950e+00 +8.5976313879966835e+00 +0.0000000000000000e+00 +3.6499999751802128e+00 -2.9827919384384893e-02 -5.5461339266294385e-01 +4.8886693020525999e-03
3.6999999999999948e+00 +8.5976212172319748e+00 +0.0000000000000000e+00 +3.6999999741457521e+00 -2.9829964069306901e-02 -5.5463629729279651e-01 +4.8880227538852881e-03
3.7499999999999947e+00 +8.5976109079444978e+00 +0.0000000000000000e+00 +3.7499999730829221e+00 -2.9832025580789758e-02 -5.5465946959108803e-01 +4.8873950516885910e-03
3.7999999999999945e+00 +8.5976004601284668e+00 +0.0000000000000000e+00 +3.7999999719913373e+00 -2.9834103832603265e-02 -5.5468290757444660e-01 +4.8867862500739830e-03
3.8499999999999943e+00 +8.5975898737780270e+00 +0.0000000000000000e+00 +3.8499999708706132e+00 -2.9836198738516322e-02 -5.5470660925950444e-01 +4.8861964036537638e-03
3.8999999999999941e+00 +8.5975791488872577e+00 +0.0000000000000000e+00 +3.8999999697203642e+00 -2.9838310212296913e-02 -5.5473057266289660e-01 +4.8856255670410636e-03
3.9499999999999940e+00 +8.5975682854501763e+00 +0.0000000000000000e+00 +3.9499999685402054e+00 -2.9840438167712060e-02 -5.5475479580126275e-01 +4.8850737948498407e-03
3.9999999999999938e+00 +8.5975572834607323e+00 +0.0000000000000000e+00 +3.9999999673297517e+00 -2.9842582518527793e-02 -5.5477927669124516e-01 +4.8845411416948911e-03
4.0499999999999936e+00 +8.5975461429128117e+00 +0.0000000000000000e+00 +4.0499999660886177e+00 -2.9844743150448549e-02 -5.5480401326211404e-01 +4.8840276485431914e-03
4.0999999999999934e+00 +8.5975348638002362e+00 +0.0000000000000000e+00 +4.0999999648164183e+00 -2.9846919836935732e-02 -5.5482900309364802e-01 +4.8835333017677781e-03
4.1499999999999932e+00 +8.5975234461167638e+00 +0.0000000000000000e+00 +4.1499999635127676e+00 -2.9849112323390024e-02 -5.5485424367825265e-01 +4.8830580740936106e-03
4.1999999999999931e+00 +8.5975118898560918e+00 +0.0000000000000000e+00 +4.1999999621772801e+00 -2.9851320355212173e-02 -5.5487973250833611e-01 +4.8826019382462562e-03
4.2499999999999929e+00 +8.5975001950118539e+00 +0.0000000000000000e+00 +4.2499999608095704e+00 -2.9853543677802977e-02 -5.5490546707630783e-01 +4.8821648669518727e-03
4.2999999999999927e+00 +8.5974883615776232e+00 +0.0000000000000000e+00 +4.2999999594092531e+00 -2.9855782036563236e-02 -5.5493144487457879e-01 +4.8817468329372220e-03
4.3499999999999925e+00 +8.5974763895469124e+00 +0.0000000000000000e+00 +4.3499999579759416e+00 -2.9858035176893838e-02 -5.5495766339556141e-01 +4.8813478089296527e-03
4.3999999999999924e+00 +8.5974642789131721e+00 +0.0000000000000000e+00 +4.3999999565092507e+00 -2.9860302844195691e-02 -5.5498412013166931e-01 +4.8809677676570993e-03
4.4499999999999922e+00 +8.5974520296697960e+00 +0.0000000000000000e+00 +4.4499999550087947e+00 -2.9862584783869738e-02 -5.5501081257531648e-01 +4.8806066818480745e-03
4.4999999999999920e+00 +8.5974396418101175e+00 +0.0000000000000000e+00 +4.4999999534741884e+00 -2.9864880741316945e-02 -5.5503773821891733e-01 +4.8802645242316672e-03
4.5499999999999918e+00 +8.5974271153274113e+00 +0.0000000000000000e+00 +4.5499999519050442e+00 -2.9867190461938285e-02 -5.5506489455488706e-01 +4.8799412675375351e-03
4.5999999999999917e+00 +8.5974144502148953e+00 +0.0000000000000000e+00 +4.5999999503009779e+00 -2.9869513691134813e-02 -5.5509227907564029e-01 +4.8796368844959050e-03
4.6499999999999915e+00 +8.5974016464657304e+00 +0.0000000000000000e+00 +4.6499999486616019e+00 -2.9871850174307542e-02 -5.5511988927359190e-01 +4.8793513478375553e-03
4.6999999999999913e+00 +8.5973887040730226e+00 +0.0000000000000000e+00 +4.6999999469865310e+00 -2.9874199656857562e-02 -5.5514772264115608e-01 +4.8790846302938272e-03
4.7499999999999911e+00 +8.5973756230298175e+00 +0.0000000000000000e+00 +4.7499999452753778e+00 -2.9876561884185911e-02 -5.5517577667074636e-01 +4.8788367045966086e-03
4.7999999999999909e+00 +8.5973624033291109e+00 +0.0000000000000000e+00 +4.7999999435277569e+00 -2.9878936601693704e-02 -5.5520404885477526e-01 +4.8786075434783388e-03
4.8499999999999908e+00 +8.5973490449638419e+00 +0.0000000000000000e+00 +4.8499999417432820e+00 -2.9881323554782031e-02 -5.5523253668565398e-01 +4.8783971196719855e-03
4.8999999999999906e+00 +8.5973355479268943e+00 +0.0000000000000000e+00 +4.8999999399215657e+00 -2.9883722488851995e-02 -5.5526123765579261e-01 +4.8782054059110644e-03
4.9499999999999904e+00 +8.5973219122111004e+00 +0.0000000000000000e+00 +4.9499999380622217e+00 -2.9886133149304696e-02 -5.5529014925759934e-01 +4.8780323749296108e-03
4.9999999999999902e+00 +8.5973081378092395e+00 +0.0000000000000000e+00 +4.9999999361648646e+00 -2.9888555281541249e-02 -5.5531926898348016e-01 +4.8778779994621945e-03
5.0499999999999901e+00 +8.5972942247140391e+00 +0.0000000000000000e+00 +5.0499999342291062e+00 -2.9890988630962761e-02 -5.5534859432583972e-01 +4.8777422522439011e-03
5.0999999999999899e+00 +8.5972801729181771e+00 +0.0000000000000000e+00 +5.0999999322545602e+00 -2.9893432942970290e-02 -5.5537812277707876e-01 +4.8776251060103281e-03
5.1499999999999897e+00 +8.5972659824142763e+00 +0.0000000000000000e+00 +5.1499999302408401e+00 -2.9895887962964975e-02 -5.5540785182959707e-01 +4.8775265334975917e-03
5.1999999999999895e+00 +8.5972516531949132e+00 +0.0000000000000000e+00 +5.1999999281875589e+00 -2.9898353436347849e-02 -5.5543777897578972e-01 +4.8774465074423075e-03
5.2499999999999893e+00 +8.5972371852526130e+00 +0.0000000000000000e+00 +5.2499999260943291e+00 -2.9900829108520002e-02 -5.5546790170805038e-01 +4.8773850005815952e-03
5.2999999999999892e+00 +8.5972225785798528e+00 +0.0000000000000000e+00 +5.2999999239607645e+00 -2.9903314724882463e-02 -5.5549821751876827e-01 +4.8773419856530690e-03
5.3499999999999890e+00 +8.5972078331690600e+00 +0.0000000000000000e+00 +5.3499999217864769e+00 -2.9905810030836262e-02 -5.5552872390032881e-01 +4.8773174353948312e-03
5.3999999999999888e+00 +8.5971929490126175e+00 +0.0000000000000000e+00 +5.3999999195710799e+00 -2.9908314771782386e-02 -5.5555941834511402e-01 +4.8773113225454726e-03
5.4499999999999886e+00 +8.5971779261028587e+00 +0.0000000000000000e+00 +5.4499999173141855e+00 -2.9910828693121800e-02 -5.5559029834550155e-01 +4.8773236198440669e-03
5.4999999999999885e+00 +8.5971627644320705e+00 +0.0000000000000000e+00 +5.4999999150154064e+00 -2.9913351540255439e-02 -5.5562136139386464e-01 +4.8773543000301574e-03
5.5499999999999883e+00 +8.5971474639924974e+00 +0.0000000000000000e+00 +5.5499999126743562e+00 -2.9915883058584228e-02 -5.5565260498257196e-01 +4.8774033358437632e-03
5.5999999999999881e+00 +8.5971320247763341e+00 +0.0000000000000000e+00 +5.5999999102906459e+00 -2.9918422993509025e-02 -5.5568402660398730e-01 +4.8774707000253702e-03
5.6499999999999879e+00 +8.5971164467757344e+00 +0.0000000000000000e+00 +5.6499999078638892e+00 -2.9920971090430667e-02 -5.5571562375046935e-01 +4.8775563653159198e-03
5.6999999999999877e+00 +8.5971007299828059e+00 +0.0000000000000000e+00 +5.6999999053936969e+00 -2.9923527094749929e-02 -5.5574739391437089e-01 +4.8776603044568146e-03
5.7499999999999876e+00 +8.5970848743896138e+00 +0.0000000000000000e+00 +5.7499999028796829e+00 -2.9926090751867546e-02 -5.5577933458803952e-01 +4.8777824901899023e-03
5.7999999999999874e+00 +8.5970688799881820e+00 +0.0000000000000000e+00 +5.7999999003214580e+00 -2.9928661807184245e-02 -5.5581144326381726e-01 +4.8779228952574817e-03
5.8499999999999872e+00 +8.5970527467704905e+00 +0.0000000000000000e+00 +5.8499998977186349e+00 -2.9931240006100642e-02 -5.5584371743403971e-01 +4.8780814924022928e-03
5.8999999999999870e+00 +8.5970364747284798e+00 +0.0000000000000000e+00 +5.8999998950708257e+00 -2.9933825094017309e-02 -5.5587615459103545e-01 +4.8782582543675061e-03
