# multipoles
# s[mm] polynom_b[n=0][T/m^n] polynom_b[n=1][T/m^n] polynom_b[n=2][T/m^n] polynom_b[n=3][T/m^n] polynom_b[n=4][T/m^n] polynom_b[n=5][T/m^n] polynom_b[n=6][T/m^n] 
+0.0000000000000000e+00 -5.5389427340957831e-01 +7.2332059327475235e+00 +5.5570868114077721e+00 -7.0900786536176440e+01 -2.9652971016236952e+03 +8.3961480747898211e+04 +1.6990247738293529e+07 
+5.0000000000000003e-02 -5.5389259035743521e-01 +7.2331255714020974e+00 +5.5618686692829336e+00 -7.0648972681766665e+01 -3.0596378997213383e+03 +8.2375899669682593e+04 +1.7570187965745240e+07 
+1.0000000000000001e-01 -5.5389129981351770e-01 +7.2330652286214567e+00 +5.5661745701564476e+00 -7.0353736516280236e+01 -3.1551523182862434e+03 +8.0551577639370837e+04 +1.8159919724155392e+07 
+1.5000000000000002e-01 -5.5389040119449262e-01 +7.2330248962429415e+00 +5.5700021786592675e+00 -7.0016115601235953e+01 -3.2517010708288517e+03 +7.8493995904786832e+04 +1.8758537077348396e+07 
+2.0000000000000001e-01 -5.5388989391703591e-01 +7.2330045660994324e+00 +5.5733491577173480e+00 -6.9637147276042185e+01 -3.3491448260668217e+03 +7.6208633847915902e+04 +1.9365133789554738e+07 
+2.5000000000000000e-01 -5.5388977739784151e-01 +7.2330042300283468e+00 +5.5762131699367066e+00 -6.9217869028667508e+01 -3.4473442441008820e+03 +7.3700972035722763e+04 +1.9978803568797093e+07 
+2.9999999999999999e-01 -5.5389005105363331e-01 +7.2330238798664510e+00 +5.5785918807845105e+00 -6.8759318302516405e+01 -3.5461600658415459e+03 +7.0976490720275542e+04 +2.0598640676564883e+07 
+3.4999999999999998e-01 -5.5389071430113501e-01 +7.2330635074479819e+00 +5.5804829517898549e+00 -6.8262532386688164e+01 -3.6454529251409558e+03 +6.8040668789103307e+04 +2.1223738654018298e+07 
+3.9999999999999997e-01 -5.5389176655709749e-01 +7.2331231046144939e+00 +5.5818840466525366e+00 -6.7728548855970985e+01 -3.7450835160545817e+03 +6.4898987540794995e+04 +2.1853191448755689e+07 
+4.4999999999999996e-01 -5.5389320723828539e-01 +7.2332026632020234e+00 +5.5827928284406436e+00 -6.7158405025634906e+01 -3.8449125191723338e+03 +6.1556926115891336e+04 +2.2486092932241242e+07 
+4.9999999999999994e-01 -5.5389503576148214e-01 +7.2333021750497357e+00 +5.5832069598780363e+00 -6.6553138302933291e+01 -3.9448006035271756e+03 +5.8019964381117112e+04 +2.3121536891206201e+07 
+5.4999999999999993e-01 -5.5389725154349190e-01 +7.2334216320026075e+00 +5.5831241047766085e+00 -6.5913786309230943e+01 -4.0446084685593569e+03 +5.4293583969804808e+04 +2.3758617316174634e+07 
+5.9999999999999998e-01 -5.5389985400111619e-01 +7.2335610258965826e+00 +5.5825419231148397e+00 -6.5241386264912265e+01 -4.1441967139296630e+03 +5.0383263218105647e+04 +2.4396427541543230e+07 
+6.5000000000000002e-01 -5.5390284255121158e-01 +7.2337203485755994e+00 +5.5814580814350645e+00 -6.4536975691389600e+01 -4.2434261149807262e+03 +4.6294482920672745e+04 +2.5034062081396878e+07 
+7.0000000000000007e-01 -5.5390621661061046e-01 +7.2338995918845717e+00 +5.5798702392237800e+00 -6.3801592119161143e+01 -4.3421572584022479e+03 +4.2032723948626910e+04 +2.5670614180112392e+07 
+7.5000000000000011e-01 -5.5390997559619271e-01 +7.2340987476609033e+00 +5.5777760609808951e+00 -6.3036272743442062e+01 -4.4402508667632919e+03 +3.7603464397102754e+04 +2.6305178003425103e+07 
+8.0000000000000016e-01 -5.5391411892483600e-01 +7.2343178077548185e+00 +5.5751732077229139e+00 -6.2242055257380784e+01 -4.5375675668017684e+03 +3.3012186459461562e+04 +2.6936847060844649e+07 
+8.5000000000000020e-01 -5.5391864601344465e-01 +7.2345567640084694e+00 +5.5720593424192275e+00 -6.1419977004602742e+01 -4.6339680437685192e+03 +2.8264369477907781e+04 +2.7564715281565998e+07 
+9.0000000000000024e-01 -5.5392355627894352e-01 +7.2348156082691339e+00 +5.5684321283130522e+00 -6.0571075496555153e+01 -4.7293129858735874e+03 +2.3365494108133764e+04 +2.8187876594450545e+07 
+9.5000000000000029e-01 -5.5392884913825624e-01 +7.2350943323826860e+00 +5.5642892253840781e+00 -5.9696388174847883e+01 -4.8234629957095540e+03 +1.8321040492967546e+04 +2.8805424362856284e+07 
+1.0000000000000002e+00 -5.5393452400834586e-01 +7.2353929281959442e+00 +5.5596282973806357e+00 -5.8796952484250923e+01 -4.9162787761094332e+03 +1.3136488746646039e+04 +2.9416452620161131e+07 
+1.0500000000000003e+00 -5.5394058030618198e-01 +7.2357113875583030e+00 +5.5544470068232439e+00 -5.7873805957326809e+01 -5.0076210018481133e+03 +7.8173197386115553e+03 +3.0020055226910312e+07 
+1.1000000000000003e+00 -5.5394701744874575e-01 +7.2360497023186339e+00 +5.5487430144255026e+00 -5.6927986074170349e+01 -5.0973502931416260e+03 +2.3690138844352787e+03 +3.0615325657552827e+07 
+1.1500000000000004e+00 -5.5395383485305372e-01 +7.2364078643258258e+00 +5.5425139846345717e+00 -5.5960530295664881e+01 -5.1853273744601029e+03 -3.2029485495148560e+03 +3.1201358100132775e+07 
+1.2000000000000004e+00 -5.5396103193611190e-01 +7.2367858654304760e+00 +5.5357575767802718e+00 -5.4972476130130367e+01 -5.2714128328045053e+03 -8.8930868921944857e+03 +3.1777245820515394e+07 
+1.2500000000000004e+00 -5.5396860811496884e-01 +7.2371836974863042e+00 +5.5284714547289484e+00 -5.3964861177932875e+01 -5.3554673743020157e+03 -1.4695919772032174e+04 +3.2342082873393539e+07 
+1.3000000000000005e+00 -5.5397656280666974e-01 +7.2376013523421321e+00 +5.5206532786884202e+00 -5.2938722832222702e+01 -5.4373516072715729e+03 -2.0605967453760641e+04 +3.2894962657264903e+07 
+1.3500000000000005e+00 -5.5398489542829954e-01 +7.2380388218535670e+00 +5.5123007130690818e+00 -5.1895098728658951e+01 -5.5169262572784173e+03 -2.6617748251226596e+04 +3.3434979380519442e+07 
+1.4000000000000006e+00 -5.5399360539694131e-01 +7.2384960978748394e+00 +5.5034114187524201e+00 -5.0835026431130970e+01 -5.5940519484156148e+03 -3.2725781044101706e+04 +3.3961226538892560e+07 
+1.4500000000000006e+00 -5.5400269212969633e-01 +7.2389731722587243e+00 +5.4939830567631258e+00 -4.9759543416716369e+01 -5.6685893112169006e+03 -3.8924585446994322e+04 +3.4472797684006058e+07 
+1.5000000000000007e+00 -5.5401215504369028e-01 +7.2394700368605100e+00 +5.4840132900100480e+00 -4.8669687252277427e+01 -5.7403990290755855e+03 -4.5208680291185643e+04 +3.4968786731147185e+07 
+1.5500000000000007e+00 -5.5402199355606585e-01 +7.2399866835385343e+00 +5.4734997806483934e+00 -4.7566495592702843e+01 -5.8093417597950174e+03 -5.1572583748768418e+04 +3.5448287405387856e+07 
+1.6000000000000008e+00 -5.5403220708397838e-01 +7.2405231041479521e+00 +5.4624401906565074e+00 -4.6451005956389473e+01 -5.8752781589718325e+03 -5.8010815056099760e+04 +3.5910393425627291e+07 
+1.6500000000000008e+00 -5.5404279504460030e-01 +7.2410792905483889e+00 +5.4508321816397105e+00 -4.5324256021322732e+01 -5.9380688698347094e+03 -6.4517892139267075e+04 +3.6354198419376723e+07 
+1.7000000000000008e+00 -5.5405375685512037e-01 +7.2416552345978156e+00 +5.4386734155679326e+00 -4.4187283368603353e+01 -5.9975745469490075e+03 -7.1088333753549101e+04 +3.6778796097894199e+07 
+1.7500000000000009e+00 -5.5406509193274156e-01 +7.2422509281552117e+00 +5.4259615537402031e+00 -4.3041125616562461e+01 -6.0536558238483749e+03 -7.7716658289174375e+04 +3.7183280018387340e+07 
+1.8000000000000009e+00 -5.5407679969470658e-01 +7.2428663630823822e+00 +5.4126942614101274e+00 -4.1886820465440628e+01 -6.1061734403340351e+03 -8.4397383503604942e+04 +3.7566744456535719e+07 
+1.8500000000000010e+00 -5.5408887955823238e-01 +7.2435015312402333e+00 +5.3988691965958733e+00 -4.0725405569937266e+01 -6.1549879422186414e+03 -9.1125027491125424e+04 +3.7928282382838428e+07 
+1.9000000000000010e+00 -5.5410133094059510e-01 +7.2441564244893408e+00 +5.3844840246000754e+00 -3.9557918542405346e+01 -6.1999600669641586e+03 -9.7894108725501894e+04 +3.8266988044049889e+07 
+1.9500000000000011e+00 -5.5411415325905711e-01 +7.2448310346935560e+00 +5.3695364053783061e+00 -3.8385397119345157e+01 -6.2409504086120342e+03 -1.0469914462355277e+05 +3.8581954723436892e+07 
+2.0000000000000009e+00 -5.5412734593091617e-01 +7.2455253537170741e+00 +5.3540240025786741e+00 -3.7208879038181244e+01 -6.2778196632011322e+03 -1.1153465255865242e+05 +3.8872276402752444e+07 
+2.0500000000000007e+00 -5.5414090813743921e-01 +7.2462393523810871e+00 +5.3379466895360874e+00 -3.6029323581643347e+01 -6.3104736978774508e+03 -1.1839527751652985e+05 +3.9137302814695314e+07 
+2.1000000000000005e+00 -5.5415483811589450e-01 +7.2469729104633354e+00 +5.3213137942465556e+00 -3.4847382922307006e+01 -6.3390021478112103e+03 -1.2527611087809417e+05 +3.9377417104011953e+07 
+2.1500000000000004e+00 -5.5416913386759359e-01 +7.2477258832565656e+00 +5.3041371721546087e+00 -3.3663634789084909e+01 -6.3635413055150384e+03 -1.3217233959648822e+05 +3.9593262966011412e+07 
+2.2000000000000002e+00 -5.5418379339386037e-01 +7.2484981260555381e+00 +5.2864286781069509e+00 -3.2478656993588622e+01 -6.3842274430641719e+03 -1.3907914989318504e+05 +3.9785483941507801e+07 
+2.2500000000000000e+00 -5.5419881469604171e-01 +7.2492894941543371e+00 +5.2682001693682610e+00 -3.1293027305008415e+01 -6.4011969035688307e+03 -1.4599172833851559e+05 +3.9954724074823417e+07 
+2.2999999999999998e+00 -5.5421419577548625e-01 +7.2500998428487176e+00 +5.2494635006296351e+00 -3.0107323533022061e+01 -6.4145859539303146e+03 -1.5290526120608070e+05 +4.0101626865262106e+07 
+2.3499999999999996e+00 -5.5422993463356363e-01 +7.2509290274357854e+00 +5.2302305283156656e+00 -2.8922123558683030e+01 -6.4245309093892884e+03 -1.5981493404141197e+05 +4.0226836147006787e+07 
+2.3999999999999995e+00 -5.5424602927163913e-01 +7.2517769032060375e+00 +5.2105131058830683e+00 -2.7738004957192757e+01 -6.4311680052191959e+03 -1.6671593498299827e+05 +4.0330995210595720e+07 
+2.4499999999999993e+00 -5.5426247769112780e-01 +7.2526433254588634e+00 +5.1903230935099716e+00 -2.6555545673218933e+01 -6.4346336577575303e+03 -1.7360344904605360e+05 +4.0414748568179063e+07 
+2.4999999999999991e+00 -5.5427927789341014e-01 +7.2535281494887753e+00 +5.1696723432665399e+00 -2.5375323428258259e+01 -6.4350640659062328e+03 -1.8047266309962698e+05 +4.0478739266580969e+07 
+2.5499999999999989e+00 -5.5429642787991562e-01 +7.2544312305909848e+00 +5.1485727135316992e+00 -2.4197915979968926e+01 -6.4325955924294885e+03 -1.8731876363155982e+05 +4.0523611433542728e+07 
+2.5999999999999988e+00 -5.5431392565206228e-01 +7.2553524240617717e+00 +5.1270360588126538e+00 -2.3023901105254296e+01 -6.4273645011566696e+03 -1.9413693699456649e+05 +4.0550008549037881e+07 
+2.6499999999999986e+00 -5.5433176921129568e-01 +7.2562915851970864e+00 +5.1050742367084689e+00 -2.1853856578760684e+01 -6.4195071372176653e+03 -2.0092236946021329e+05 +4.0558574630626872e+07 
+2.6999999999999984e+00 -5.5434995655906527e-01 +7.2572485692908755e+00 +5.0826991031011755e+00 -2.0688360061146426e+01 -6.4091597965840701e+03 -2.0767024829835477e+05 +4.0549953353299648e+07 
+2.7499999999999982e+00 -5.5436848569683572e-01 +7.2582232316414075e+00 +5.0599225152245673e+00 -1.9527989399697994e+01 -6.3964588157749586e+03 -2.1437575914893515e+05 +4.0524788679434903e+07 
+2.7999999999999980e+00 -5.5438735462607092e-01 +7.2592154275415686e+00 +5.0367563276522551e+00 -1.8373322214367384e+01 -6.3815404528437430e+03 -2.2103408948830899e+05 +4.0483724012269109e+07 
+2.8499999999999979e+00 -5.5440656134826716e-01 +7.2602250122886911e+00 +5.0132123995860383e+00 -1.7224936299763723e+01 -6.3645410962705364e+03 -2.2764042532420679e+05 +4.0427403656850308e+07 
+2.8999999999999977e+00 -5.5442610386490021e-01 +7.2612518411774030e+00 +4.9893025841715595e+00 -1.6083409329270058e+01 -6.3455969654433238e+03 -2.3418995365138957e+05 +4.0356470751696140e+07 
+2.9499999999999975e+00 -5.5444598017749336e-01 +7.2622957695044512e+00 +4.9650387416109165e+00 -1.4949319067998266e+01 -6.3248444740630139e+03 -2.4067786063329945e+05 +4.0271569762575932e+07 
+2.9999999999999973e+00 -5.5446618828756089e-01 +7.2633566525604119e+00 +4.9404327287856447e+00 -1.3823243010412483e+01 -6.3024199432464457e+03 -2.4709933467533396e+05 +4.0173344513399445e+07 
+3.0499999999999972e+00 -5.5448672619661943e-01 +7.2644343456446112e+00 +4.9154964010598112e+00 -1.2705759028417582e+01 -6.2784596527992999e+03 -2.5344956094960979e+05 +4.0062438548594840e+07 
+3.0999999999999970e+00 -5.5450759190621257e-01 +7.2655287040485472e+00 +4.8902416170940617e+00 -1.1597444650602931e+01 -6.2530999693819067e+03 -2.5972372749022767e+05 +3.9939495985640116e+07 
+3.1499999999999968e+00 -5.5452878341788081e-01 +7.2666395830688977e+00 +4.8646802333770074e+00 -1.0498877624541121e+01 -6.2264772021317885e+03 -2.6591702045009687e+05 +3.9805160558186747e+07 
+3.1999999999999966e+00 -5.5455029873317530e-01 +7.2677668379967644e+00 +4.8388241070061628e+00 -9.4106354604242810e+00 -6.1987276791389359e+03 -2.7202462792354572e+05 +3.9660076133880429e+07 
+3.2499999999999964e+00 -5.5457213585367149e-01 +7.2689103241292887e+00 +4.8126850972553150e+00 -8.3332959217738516e+00 -6.1699877782104340e+03 -2.7804173584347224e+05 +3.9504886879024141e+07 
+3.2999999999999963e+00 -5.5459429278093597e-01 +7.2700698967547233e+00 +4.7862750609450408e+00 -7.2674364114037235e+00 -6.1403938185408488e+03 -2.8396353305464919e+05 +3.9340236591893516e+07 
+3.3499999999999961e+00 -5.5461676751655609e-01 +7.2712454111708125e+00 +4.7596058569503183e+00 -6.2136347118601032e+00 -6.1100821707929417e+03 -2.8978520526378544e+05 +3.9166769398831978e+07 
+3.3999999999999959e+00 -5.5463955806211795e-01 +7.2724367226665008e+00 +4.7326893423813665e+00 -5.1724682470130965e+00 -6.0791891562570408e+03 -2.9550194107790518e+05 +3.8985129084143296e+07 
+3.4499999999999957e+00 -5.5466266241922113e-01 +7.2736436865355980e+00 +4.7055373755711996e+00 -4.1445146515958067e+00 -6.0478511320393018e+03 -3.0110892727241101e+05 +3.8795959684162542e+07 
+3.4999999999999956e+00 -5.5468607858947006e-01 +7.2748661580675762e+00 +4.6781618139819718e+00 -3.1303513695043250e+00 -6.0162044235857666e+03 -3.0660135221614508e+05 +3.8599904983501740e+07 
+3.5499999999999954e+00 -5.5470980457449948e-01 +7.2761039925550941e+00 +4.6505745197587736e+00 -2.1305559897938897e+00 -5.9843854907205732e+03 -3.1197440296504356e+05 +3.8397609704123452e+07 
+3.5999999999999952e+00 -5.5473383837591650e-01 +7.2773570452890723e+00 +4.6227873483663373e+00 -1.1457060297565709e+00 -5.9525306060743078e+03 -3.1722326714334596e+05 +3.8189717275378615e+07 
+3.6499999999999950e+00 -5.5475817799535376e-01 +7.2786251715559853e+00 +4.5948121591928270e+00 -1.7637882075999800e-01 -5.9207761531305687e+03 -3.2234313387069816e+05 +3.7976871889543541e+07 
+3.6999999999999948e+00 -5.5478282143445945e-01 +7.2799082266473878e+00 +4.5666608126040567e+00 +7.7684807584492588e-01 -5.8892585349547635e+03 -3.2732919024867704e+05 +3.7759717842709757e+07 
+3.7499999999999947e+00 -5.5480776669488052e-01 +7.2812060658504203e+00 +4.5383451676393705e+00 +1.7133972945776661e+00 -5.8581141200857255e+03 -3.3217662502066727e+05 +3.7538899201077081e+07 
+3.7999999999999945e+00 -5.5483301177825617e-01 +7.2825185444550229e+00 +4.5098770814916831e+00 +2.6326913449121645e+00 -5.8274792287764103e+03 -3.3688062581890012e+05 +3.7315059704435542e+07 
+3.8499999999999943e+00 -5.5485855468627032e-01 +7.2838455177469488e+00 +4.4812684176668069e+00 +3.5341528840988863e+00 -5.7974903484900569e+03 -3.4143638135919720e+05 +3.7088844208919927e+07 
+3.8999999999999941e+00 -5.5488439342057316e-01 +7.2851868410118490e+00 +4.4525310327590653e+00 +4.4172045895186329e+00 -5.7682837789944806e+03 -3.4583908055251610e+05 +3.6860896293858148e+07 
+3.9499999999999940e+00 -5.5491052598285562e-01 +7.2865423695372193e+00 +4.4236767898103899e+00 +5.2812690458485916e+00 -5.7399959953924845e+03 -3.5008391145574418e+05 +3.6631860726018451e+07 
+3.9999999999999938e+00 -5.5493695037478608e-01 +7.2879119586050534e+00 +4.3947175469172626e+00 +6.1257690662032296e+00 -5.7127633368698098e+03 -3.5416606393194752e+05 +3.6402381343432099e+07 
+4.0499999999999936e+00 -5.5496366444641887e-01 +7.2892954570534787e+00 +4.3656627515785615e+00 +6.9502423907773974e+00 -5.6866797078823456e+03 -3.5808179190536257e+05 +3.6172915087935075e+07 
+4.0999999999999934e+00 -5.5499066544082742e-01 +7.2906926807650354e+00 +4.3365125004535265e+00 +7.7547369876250896e+00 -5.6616729243300133e+03 -3.6183222070382186e+05 +3.5943212538117632e+07 
+4.1499999999999932e+00 -5.5501795044925650e-01 +7.2921034355895076e+00 +4.3072646557505960e+00 +8.5394403557902336e+00 -5.6376305289379725e+03 -3.6541985286764737e+05 +3.5712861131990805e+07 
+4.1999999999999931e+00 -5.5504551656291801e-01 +7.2935275273723015e+00 +4.2779170728602942e+00 +9.3045401567586072e+00 -5.6144398770116104e+03 -3.6884719234549598e+05 +3.5481447040948473e+07 
+4.2499999999999929e+00 -5.5507336087306258e-01 +7.2949647619591618e+00 +4.2484676140630286e+00 +1.0050224058805904e+01 -5.5919885117386175e+03 -3.7211674325936212e+05 +3.5248557713950567e+07 
+4.2999999999999927e+00 -5.5510148047091445e-01 +7.2964149451988147e+00 +4.2189141364171165e+00 +1.0776679588875604e+01 -5.5701638342736051e+03 -3.7523100853914133e+05 +3.5013779636424944e+07 
+4.3499999999999925e+00 -5.5512987244771683e-01 +7.2978778829387307e+00 +4.1892544997102101e+00 +1.1484094327340145e+01 -5.5488533187444273e+03 -3.7819249159714987e+05 +3.4776699788415983e+07 
+4.3999999999999924e+00 -5.5515853389471337e-01 +7.2993533810257496e+00 +4.1594865637337763e+00 +1.2172655885699516e+01 -5.5279444369493031e+03 -3.8100369617853826e+05 +3.4536905122092836e+07 
+4.4499999999999922e+00 -5.5518746190313228e-01 +7.3008412453105054e+00 +4.1296081853801416e+00 +1.2842551701807949e+01 -5.5073245863992524e+03 -3.8366712456768798e+05 +3.4293982107823856e+07 
+4.4999999999999920e+00 -5.5521665356423111e-01 +7.3023412816398157e+00 +4.0996172260439918e+00 +1.3493969388940423e+01 -5.4868812795654967e+03 -3.8618528062727174e+05 +3.4047517968317971e+07 
+4.5499999999999918e+00 -5.5524610596923951e-01 +7.3038532958630897e+00 +4.0695115427698614e+00 +1.4127096428184108e+01 -5.4665019187036005e+03 -3.8856066708032787e+05 +3.3797099208897196e+07 
+4.5999999999999917e+00 -5.5527581620942235e-01 +7.3053770938299785e+00 +4.0392889977491118e+00 +1.4742120304385208e+01 -5.4460740360079808e+03 -3.9079578679884999e+05 +3.3542313183555704e+07 
+4.6499999999999915e+00 -5.5530578137600906e-01 +7.3069124813922164e+00 +4.0089474478952472e+00 +1.5339228401402186e+01 -5.4254850287910958e+03 -3.9289314181823272e+05 +3.3282746361822601e+07 
+4.6999999999999913e+00 -5.5533599856024851e-01 +7.3084592643968866e+00 +3.9784847524044262e+00 +1.5918608297834297e+01 -5.4046223487180623e+03 -3.9485523585666582e+05 +3.3017985559369855e+07 
+4.7499999999999911e+00 -5.5536646485338337e-01 +7.3100172486962576e+00 +3.9478987704073973e+00 +1.6480447348995419e+01 -5.3833734506145111e+03 -3.9668457082568936e+05 +3.2747617628503125e+07 
+4.7999999999999909e+00 -5.5539717734666583e-01 +7.3115862401431935e+00 +3.9171873621920192e+00 +1.7024932885795561e+01 -5.3616258170165111e+03 -3.9838364850466384e+05 +3.2471229601120748e+07 
+4.8499999999999908e+00 -5.5542813313132733e-01 +7.3131660445879190e+00 +3.8863483846198354e+00 +1.7552252336051911e+01 -5.3392668388260636e+03 -3.9995497149303911e+05 +3.2188407894746400e+07 
+4.8999999999999906e+00 -5.5545932929863440e-01 +7.3147564678823862e+00 +3.8553797006739252e+00 +1.8062593059677720e+01 -5.3161840673609313e+03 -4.0140104192952503e+05 +3.1898739993590448e+07 
+4.9499999999999904e+00 -5.5549076293980537e-01 +7.3163573158788715e+00 +3.8242791655785582e+00 +1.8556142389273500e+01 -5.2922648514574521e+03 -4.0272436174577073e+05 +3.1601812042678688e+07 
+4.9999999999999902e+00 -5.5552243114609690e-01 +7.3179683944310812e+00 +3.7930446410813574e+00 +1.9033087593666743e+01 -5.2673967106479586e+03 -4.0392743240850215e+05 +3.1297211323030338e+07 
+5.0499999999999901e+00 -5.5555433100874063e-01 +7.3195895093912551e+00 +3.7616739849966443e+00 +1.9493616005063938e+01 -5.2414670580013226e+03 -4.0501275601161283e+05 +3.0984524396370605e+07 
