# trajectory
# s[mm] rx[mm] ry[mm] rz[mm] px[rad] py[rad] pz[rad]
0.0000000000000000e+00 +8.5980000000000008e+00 +0.0000000000000000e+00 +0.0000000000000000e+00 +0.0000000000000000e+00 +0.0000000000000000e+00 +1.0000000000000000e+00
-5.0000000000000003e-02 +8.5979999310316408e+00 +0.0000000000000000e+00 -4.9999999999936581e-02 +2.7587350583333387e-06 +0.0000000000000000e+00 +9.9999999999619471e-01
-1.0000000000000001e-01 +8.5979997241264083e+00 +0.0000000000000000e+00 -9.9999999999492634e-02 +5.5174752187625260e-06 +0.0000000000000000e+00 +9.9999999998477873e-01
-1.5000000000000002e-01 +8.5979993792840013e+00 +0.0000000000000000e+00 -1.4999999999828761e-01 +8.2762223594476221e-06 +0.0000000000000000e+00 +9.9999999996575206e-01
-2.0000000000000001e-01 +8.5979988965040235e+00 +0.0000000000000000e+00 -1.9999999999594098e-01 +1.1034978354670022e-05 +0.0000000000000000e+00 +9.9999999993911459e-01
-2.5000000000000000e-01 +8.5979982757859865e+00 +0.0000000000000000e+00 -2.4999999999207223e-01 +1.3793745074832545e-05 +0.0000000000000000e+00 +9.9999999990486621e-01
-2.9999999999999999e-01 +8.5979975171293059e+00 +0.0000000000000000e+00 -2.9999999998630078e-01 +1.6552524386459511e-05 +0.0000000000000000e+00 +9.9999999986300692e-01
-3.4999999999999998e-01 +8.5979966205333067e+00 +0.0000000000000000e+00 -3.4999999997824610e-01 +1.9311318152196830e-05 +0.0000000000000000e+00 +9.9999999981353649e-01
-3.9999999999999997e-01 +8.5979955859972197e+00 +0.0000000000000000e+00 -3.9999999996752761e-01 +2.2070128230812081e-05 +0.0000000000000000e+00 +9.9999999975645470e-01
-4.4999999999999996e-01 +8.5979944135201816e+00 +0.0000000000000000e+00 -4.4999999995376472e-01 +2.4828956477194600e-05 +0.0000000000000000e+00 +9.9999999969176145e-01
-4.9999999999999994e-01 +8.5979931031012384e+00 +0.0000000000000000e+00 -4.9999999993657690e-01 +2.7587804742355550e-05 +0.0000000000000000e+00 +9.9999999961945651e-01
-5.4999999999999993e-01 +8.5979916547393422e+00 +0.0000000000000000e+00 -5.4999999991558357e-01 +3.0346674873428013e-05 +0.0000000000000000e+00 +9.9999999953953966e-01
-5.9999999999999998e-01 +8.5979900684333543e+00 +0.0000000000000000e+00 -5.9999999989040409e-01 +3.3105568713667070e-05 +0.0000000000000000e+00 +9.9999999945201068e-01
-6.5000000000000002e-01 +8.5979883441820437e+00 +0.0000000000000000e+00 -6.4999999986065782e-01 +3.5864488102449877e-05 +0.0000000000000000e+00 +9.9999999935686923e-01
-7.0000000000000007e-01 +8.5979864819840870e+00 +0.0000000000000000e+00 -6.9999999982596417e-01 +3.8623434875275750e-05 +0.0000000000000000e+00 +9.9999999925411509e-01
-7.5000000000000011e-01 +8.5979844818380684e+00 +0.0000000000000000e+00 -7.4999999978594245e-01 +4.1382410863766245e-05 +0.0000000000000000e+00 +9.9999999914374804e-01
-8.0000000000000016e-01 +8.5979823437424834e+00 +0.0000000000000000e+00 -7.9999999974021208e-01 +4.4141417895665239e-05 +0.0000000000000000e+00 +9.9999999902576764e-01
-8.5000000000000020e-01 +8.5979800676957314e+00 +0.0000000000000000e+00 -8.4999999968839235e-01 +4.6900457794839006e-05 +0.0000000000000000e+00 +9.9999999890017355e-01
-9.0000000000000024e-01 +8.5979776536961250e+00 +0.0000000000000000e+00 -8.9999999963010258e-01 +4.9659532381276298e-05 +0.0000000000000000e+00 +9.9999999876696544e-01
-9.5000000000000029e-01 +8.5979751017418842e+00 +0.0000000000000000e+00 -9.4999999956496206e-01 +5.2418643471088430e-05 +0.0000000000000000e+00 +9.9999999862614297e-01
-1.0000000000000002e+00 +8.5979724118311385e+00 +0.0000000000000000e+00 -9.9999999949259000e-01 +5.5177792876509352e-05 +0.0000000000000000e+00 +9.9999999847770560e-01
-1.0500000000000003e+00 +8.5979695839619268e+00 +0.0000000000000000e+00 -1.0499999994126057e+00 +5.7936982405895724e-05 +0.0000000000000000e+00 +9.9999999832165309e-01
-1.1000000000000003e+00 +8.5979666181321992e+00 +0.0000000000000000e+00 -1.0999999993246283e+00 +6.0696213863727003e-05 +0.0000000000000000e+00 +9.9999999815798490e-01
-1.1500000000000004e+00 +8.5979635143398117e+00 +0.0000000000000000e+00 -1.1499999992282772e+00 +6.3455489050605522e-05 +0.0000000000000000e+00 +9.9999999798670058e-01
-1.2000000000000004e+00 +8.5979602725825348e+00 +0.0000000000000000e+00 -1.1999999991231716e+00 +6.6214809763256557e-05 +0.0000000000000000e+00 +9.9999999780779958e-01
-1.2500000000000004e+00 +8.5979568928580470e+00 +0.0000000000000000e+00 -1.2499999990089303e+00 +6.8974177794528416e-05 +0.0000000000000000e+00 +9.9999999762128144e-01
-1.3000000000000005e+00 +8.5979533751639377e+00 +0.0000000000000000e+00 -1.2999999988851727e+00 +7.1733594933392507e-05 +0.0000000000000000e+00 +9.9999999742714574e-01
-1.3500000000000005e+00 +8.5979497194977057e+00 +0.0000000000000000e+00 -1.3499999987515179e+00 +7.4493062964943433e-05 +0.0000000000000000e+00 +9.9999999722539179e-01
-1.4000000000000006e+00 +8.5979459258567630e+00 +0.0000000000000000e+00 -1.3999999986075848e+00 +7.7252583670399025e-05 +0.0000000000000000e+00 +9.9999999701601916e-01
-1.4500000000000006e+00 +8.5979419942384308e+00 +0.0000000000000000e+00 -1.4499999984529928e+00 +8.0012158827100471e-05 +0.0000000000000000e+00 +9.9999999679902718e-01
-1.5000000000000007e+00 +8.5979379246399432e+00 +0.0000000000000000e+00 -1.4999999982873606e+00 +8.2771790208512364e-05 +0.0000000000000000e+00 +9.9999999657441530e-01
-1.5500000000000007e+00 +8.5979337170584440e+00 +0.0000000000000000e+00 -1.5499999981103074e+00 +8.5531479584222776e-05 +0.0000000000000000e+00 +9.9999999634218295e-01
-1.6000000000000008e+00 +8.5979293714909897e+00 +0.0000000000000000e+00 -1.5999999979214521e+00 +8.8291228719943347e-05 +0.0000000000000000e+00 +9.9999999610232937e-01
-1.6500000000000008e+00 +8.5979248879345480e+00 +0.0000000000000000e+00 -1.6499999977204134e+00 +9.1051039377509330e-05 +0.0000000000000000e+00 +9.9999999585485400e-01
-1.7000000000000008e+00 +8.5979202663859979e+00 +0.0000000000000000e+00 -1.6999999975068103e+00 +9.3810913314879723e-05 +0.0000000000000000e+00 +9.9999999559975616e-01
-1.7500000000000009e+00 +8.5979155068421331e+00 +0.0000000000000000e+00 -1.7499999972802618e+00 +9.6570852286137273e-05 +0.0000000000000000e+00 +9.9999999533703510e-01
-1.8000000000000009e+00 +8.5979106092996567e+00 +0.0000000000000000e+00 -1.7999999970403866e+00 +9.9330858041488609e-05 +0.0000000000000000e+00 +9.9999999506669013e-01
-1.8500000000000010e+00 +8.5979055737551864e+00 +0.0000000000000000e+00 -1.8499999967868037e+00 +1.0209093232726428e-04 +0.0000000000000000e+00 +9.9999999478872059e-01
-1.9000000000000010e+00 +8.5979004002052530e+00 +0.0000000000000000e+00 -1.8999999965191317e+00 +1.0485107688591884e-04 +0.0000000000000000e+00 +9.9999999450312571e-01
-1.9500000000000011e+00 +8.5978950886462986e+00 +0.0000000000000000e+00 -1.9499999962369892e+00 +1.0761129345603094e-04 +0.0000000000000000e+00 +9.9999999420990460e-01
-2.0000000000000009e+00 +8.5978896390746780e+00 +0.0000000000000000e+00 -1.9999999959399950e+00 +1.1037158377230336e-04 +0.0000000000000000e+00 +9.9999999390905658e-01
-2.0500000000000007e+00 +8.5978840514866626e+00 +0.0000000000000000e+00 -2.0499999956277679e+00 +1.1313194956531063e-04 +0.0000000000000000e+00 +9.9999999360058078e-01
-2.1000000000000005e+00 +8.5978783258784350e+00 +0.0000000000000000e+00 -2.0999999952999260e+00 +1.1589239255872211e-04 +0.0000000000000000e+00 +9.9999999328447642e-01
-2.1500000000000004e+00 +8.5978724622460909e+00 +0.0000000000000000e+00 -2.1499999949560884e+00 +1.1865291446652495e-04 +0.0000000000000000e+00 +9.9999999296074271e-01
-2.2000000000000002e+00 +8.5978664605856441e+00 +0.0000000000000000e+00 -2.1999999945958733e+00 +1.2141351699277172e-04 +0.0000000000000000e+00 +9.9999999262937866e-01
-2.2500000000000000e+00 +8.5978603208930195e+00 +0.0000000000000000e+00 -2.2499999942188991e+00 +1.2417420183158048e-04 +0.0000000000000000e+00 +9.9999999229038350e-01
-2.2999999999999998e+00 +8.5978540431640607e+00 +0.0000000000000000e+00 -2.2999999938247844e+00 +1.2693497066713479e-04 +0.0000000000000000e+00 +9.9999999194375633e-01
-2.3499999999999996e+00 +8.5978476273945255e+00 +0.0000000000000000e+00 -2.3499999934131477e+00 +1.2969582517368384e-04 +0.0000000000000000e+00 +9.9999999158949615e-01
-2.3999999999999995e+00 +8.5978410735800885e+00 +0.0000000000000000e+00 -2.3999999929836071e+00 +1.3245676701554248e-04 +0.0000000000000000e+00 +9.9999999122760208e-01
-2.4499999999999993e+00 +8.5978343817163410e+00 +0.0000000000000000e+00 -2.4499999925357807e+00 +1.3521779784709127e-04 +0.0000000000000000e+00 +9.9999999085807323e-01
-2.4999999999999991e+00 +8.5978275517987939e+00 +0.0000000000000000e+00 -2.4999999920692870e+00 +1.3797891931277651e-04 +0.0000000000000000e+00 +9.9999999048090860e-01
-2.5499999999999989e+00 +8.5978205838228732e+00 +0.0000000000000000e+00 -2.5499999915837441e+00 +1.4074013304711040e-04 +0.0000000000000000e+00 +9.9999999009610718e-01
-2.5999999999999988e+00 +8.5978134777839248e+00 +0.0000000000000000e+00 -2.5999999910787706e+00 +1.4350144067467097e-04 +0.0000000000000000e+00 +9.9999998970366799e-01
-2.6499999999999986e+00 +8.5978062336772147e+00 +0.0000000000000000e+00 -2.6499999905539839e+00 +1.4626284381010220e-04 +0.0000000000000000e+00 +9.9999998930359002e-01
-2.6999999999999984e+00 +8.5977988514979256e+00 +0.0000000000000000e+00 -2.6999999900090024e+00 +1.4902434405811407e-04 +0.0000000000000000e+00 +9.9999998889587216e-01
-2.7499999999999982e+00 +8.5977913312411633e+00 +0.0000000000000000e+00 -2.7499999894434439e+00 +1.5178594301348263e-04 +0.0000000000000000e+00 +9.9999998848051341e-01
-2.7999999999999980e+00 +8.5977836729019526e+00 +0.0000000000000000e+00 -2.7999999888569262e+00 +1.5454764226105000e-04 +0.0000000000000000e+00 +9.9999998805751278e-01
-2.8499999999999979e+00 +8.5977758764752394e+00 +0.0000000000000000e+00 -2.8499999882490679e+00 +1.5730944337572449e-04 +0.0000000000000000e+00 +9.9999998762686915e-01
-2.8999999999999977e+00 +8.5977679419558903e+00 +0.0000000000000000e+00 -2.8999999876194860e+00 +1.6007134792248056e-04 +0.0000000000000000e+00 +9.9999998718858141e-01
-2.9499999999999975e+00 +8.5977598693386970e+00 +0.0000000000000000e+00 -2.9499999869677986e+00 +1.6283335745635898e-04 +0.0000000000000000e+00 +9.9999998674264845e-01
-2.9999999999999973e+00 +8.5977516586183693e+00 +0.0000000000000000e+00 -2.9999999862936235e+00 +1.6559547352246678e-04 +0.0000000000000000e+00 +9.9999998628906916e-01
-3.0499999999999972e+00 +8.5977433097895428e+00 +0.0000000000000000e+00 -3.0499999855965783e+00 +1.6835769765597737e-04 +0.0000000000000000e+00 +9.9999998582784244e-01
-3.0999999999999970e+00 +8.5977348228467765e+00 +0.0000000000000000e+00 -3.0999999848762805e+00 +1.7112003138213057e-04 +0.0000000000000000e+00 +9.9999998535896706e-01
-3.1499999999999968e+00 +8.5977261977845529e+00 +0.0000000000000000e+00 -3.1499999841323474e+00 +1.7388247621623261e-04 +0.0000000000000000e+00 +9.9999998488244191e-01
-3.1999999999999966e+00 +8.5977174345972784e+00 +0.0000000000000000e+00 -3.1999999833643971e+00 +1.7664503366365621e-04 +0.0000000000000000e+00 +9.9999998439826576e-01
-3.2499999999999964e+00 +8.5977085332792846e+00 +0.0000000000000000e+00 -3.2499999825720467e+00 +1.7940770521984069e-04 +0.0000000000000000e+00 +9.9999998390643741e-01
-3.2999999999999963e+00 +8.5976994938248303e+00 +0.0000000000000000e+00 -3.2999999817549135e+00 +1.8217049237029189e-04 +0.0000000000000000e+00 +9.9999998340695562e-01
-3.3499999999999961e+00 +8.5976903162280980e+00 +0.0000000000000000e+00 -3.3499999809126146e+00 +1.8493339659058226e-04 +0.0000000000000000e+00 +9.9999998289981917e-01
-3.3999999999999959e+00 +8.5976810004831972e+00 +0.0000000000000000e+00 -3.3999999800447678e+00 +1.8769641934635099e-04 +0.0000000000000000e+00 +9.9999998238502685e-01
-3.4499999999999957e+00 +8.5976715465841647e+00 +0.0000000000000000e+00 -3.4499999791509897e+00 +1.9045956209330392e-04 +0.0000000000000000e+00 +9.9999998186257733e-01
-3.4999999999999956e+00 +8.5976619545249644e+00 +0.0000000000000000e+00 -3.4999999782308979e+00 +1.9322282627721367e-04 +0.0000000000000000e+00 +9.9999998133246937e-01
-3.5499999999999954e+00 +8.5976522242994893e+00 +0.0000000000000000e+00 -3.5499999772841093e+00 +1.9598621333391967e-04 +0.0000000000000000e+00 +9.9999998079470176e-01
-3.5999999999999952e+00 +8.5976423559015593e+00 +0.0000000000000000e+00 -3.5999999763102406e+00 +1.9874972468932810e-04 +0.0000000000000000e+00 +9.9999998024927317e-01
-3.6499999999999950e+00 +8.5976323493249254e+00 +0.0000000000000000e+00 -3.6499999753089090e+00 +2.0151336175941209e-04 +0.0000000000000000e+00 +9.9999997969618215e-01
-3.6999999999999948e+00 +8.5976222045632653e+00 +0.0000000000000000e+00 -3.6999999742797312e+00 +2.0427712595021165e-04 +0.0000000000000000e+00 +9.9999997913542749e-01
-3.7499999999999947e+00 +8.5976119216101878e+00 +0.0000000000000000e+00 -3.7499999732223239e+00 +2.0704101865783373e-04 +0.0000000000000000e+00 +9.9999997856700784e-01
-3.7999999999999945e+00 +8.5976015004592341e+00 +0.0000000000000000e+00 -3.7999999721363040e+00 +2.0980504126845225e-04 +0.0000000000000000e+00 +9.9999997799092188e-01
-3.8499999999999943e+00 +8.5975909411038725e+00 +0.0000000000000000e+00 -3.8499999710212882e+00 +2.1256919515830815e-04 +0.0000000000000000e+00 +9.9999997740716817e-01
-3.8999999999999941e+00 +8.5975802435375073e+00 +0.0000000000000000e+00 -3.8999999698768928e+00 +2.1533348169370945e-04 +0.0000000000000000e+00 +9.9999997681574537e-01
-3.9499999999999940e+00 +8.5975694077534701e+00 +0.0000000000000000e+00 -3.9499999687027345e+00 +2.1809790223103117e-04 +0.0000000000000000e+00 +9.9999997621665204e-01
-3.9999999999999938e+00 +8.5975584337450286e+00 +0.0000000000000000e+00 -3.9999999674984301e+00 +2.2086245811671554e-04 +0.0000000000000000e+00 +9.9999997560988685e-01
-4.0499999999999936e+00 +8.5975473215053810e+00 +0.0000000000000000e+00 -4.0499999662635950e+00 +2.2362715068707998e-04 +0.0000000000000000e+00 +9.9999997499544824e-01
-4.0999999999999934e+00 +8.5975360710276600e+00 +0.0000000000000000e+00 -4.0999999649978465e+00 +2.2639198126620595e-04 +0.0000000000000000e+00 +9.9999997437333488e-01
-4.1499999999999932e+00 +8.5975246823049325e+00 +0.0000000000000000e+00 -4.1499999637008003e+00 +2.2915695116382790e-04 +0.0000000000000000e+00 +9.9999997374354532e-01
-4.1999999999999931e+00 +8.5975131553301996e+00 +0.0000000000000000e+00 -4.1999999623720727e+00 +2.3192206167514125e-04 +0.0000000000000000e+00 +9.9999997310607813e-01
-4.2499999999999929e+00 +8.5975014900964002e+00 +0.0000000000000000e+00 -4.2499999610112802e+00 +2.3468731408080246e-04 +0.0000000000000000e+00 +9.9999997246093175e-01
-4.2999999999999927e+00 +8.5974896865964059e+00 +0.0000000000000000e+00 -4.2999999596180380e+00 +2.3745270964692903e-04 +0.0000000000000000e+00 +9.9999997180810474e-01
-4.3499999999999925e+00 +8.5974777448230277e+00 +0.0000000000000000e+00 -4.3499999581919626e+00 +2.4021824962509948e-04 +0.0000000000000000e+00 +9.9999997114759565e-01
-4.3999999999999924e+00 +8.5974656647690146e+00 +0.0000000000000000e+00 -4.3999999567326693e+00 +2.4298393525235335e-04 +0.0000000000000000e+00 +9.9999997047940292e-01
-4.4499999999999922e+00 +8.5974534464270533e+00 +0.0000000000000000e+00 -4.4499999552397744e+00 +2.4574976775119126e-04 +0.0000000000000000e+00 +9.9999996980352512e-01
-4.4999999999999920e+00 +8.5974410897897702e+00 +0.0000000000000000e+00 -4.4999999537128934e+00 +2.4851574832957489e-04 +0.0000000000000000e+00 +9.9999996911996070e-01
-4.5499999999999918e+00 +8.5974285948497311e+00 +0.0000000000000000e+00 -4.5499999521516425e+00 +2.5128187818092691e-04 +0.0000000000000000e+00 +9.9999996842870809e-01
-4.5999999999999917e+00 +8.5974159615994434e+00 +0.0000000000000000e+00 -4.5999999505556364e+00 +2.5404815848413103e-04 +0.0000000000000000e+00 +9.9999996772976585e-01
-4.6499999999999915e+00 +8.5974031900313559e+00 +0.0000000000000000e+00 -4.6499999489244912e+00 +2.5681459040353206e-04 +0.0000000000000000e+00 +9.9999996702313232e-01
-4.6999999999999913e+00 +8.5973902801378568e+00 +0.0000000000000000e+00 -4.6999999472578216e+00 +2.5958117508893580e-04 +0.0000000000000000e+00 +9.9999996630880594e-01
-4.7499999999999911e+00 +8.5973772319112811e+00 +0.0000000000000000e+00 -4.7499999455552437e+00 +2.6234791367560904e-04 +0.0000000000000000e+00 +9.9999996558678528e-01
-4.7999999999999909e+00 +8.5973640453439053e+00 +0.0000000000000000e+00 -4.7999999438163723e+00 +2.6511480728427968e-04 +0.0000000000000000e+00 +9.9999996485706866e-01
-4.8499999999999908e+00 +8.5973507204279507e+00 +0.0000000000000000e+00 -4.8499999420408226e+00 +2.6788185702113654e-04 +0.0000000000000000e+00 +9.9999996411965453e-01
-4.8999999999999906e+00 +8.5973372571555835e+00 +0.0000000000000000e+00 -4.8999999402282093e+00 +2.7064906397782958e-04 +0.0000000000000000e+00 +9.9999996337454122e-01
-4.9499999999999904e+00 +8.5973236555189150e+00 +0.0000000000000000e+00 -4.9499999383781477e+00 +2.7341642923146955e-04 +0.0000000000000000e+00 +9.9999996262172719e-01
-4.9999999999999902e+00 +8.5973099155100048e+00 +0.0000000000000000e+00 -4.9999999364902532e+00 +2.7618395384462839e-04 +0.0000000000000000e+00 +9.9999996186121087e-01
-5.0499999999999901e+00 +8.5972960371208575e+00 +0.0000000000000000e+00 -5.0499999345641404e+00 +2.7895163886533882e-04 +0.0000000000000000e+00 +9.9999996109299061e-01
-5.0999999999999899e+00 +8.5972820203434281e+00 +0.0000000000000000e+00 -5.0999999325994239e+00 +2.8171948532709464e-04 +0.0000000000000000e+00 +9.9999996031706473e-01
-5.1499999999999897e+00 +8.5972678651696182e+00 +0.0000000000000000e+00 -5.1499999305957180e+00 +2.8448749424885055e-04 +0.0000000000000000e+00 +9.9999995953343168e-01
-5.1999999999999895e+00 +8.5972535715912795e+00 +0.0000000000000000e+00 -5.1999999285526384e+00 +2.8725566663502207e-04 +0.0000000000000000e+00 +9.9999995874208980e-01
-5.2499999999999893e+00 +8.5972391396002141e+00 +0.0000000000000000e+00 -5.2499999264697985e+00 +2.9002400347548574e-04 +0.0000000000000000e+00 +9.9999995794303753e-01
-5.2999999999999892e+00 +8.5972245691881746e+00 +0.0000000000000000e+00 -5.2999999243468130e+00 +2.9279250574557893e-04 +0.0000000000000000e+00 +9.9999995713627310e-01
-5.3499999999999890e+00 +8.5972098603468652e+00 +0.0000000000000000e+00 -5.3499999221832972e+00 +2.9556117440609976e-04 +0.0000000000000000e+00 +9.9999995632179484e-01
-5.3999999999999888e+00 +8.5971950130679442e+00 +0.0000000000000000e+00 -5.3999999199788640e+00 +2.9833001040330736e-04 +0.0000000000000000e+00 +9.9999995549960119e-01
-5.4499999999999886e+00 +8.5971800273430201e+00 +0.0000000000000000e+00 -5.4499999177331286e+00 +3.0109901466892150e-04 +0.0000000000000000e+00 +9.9999995466969038e-01
-5.4999999999999885e+00 +8.5971649031636570e+00 +0.0000000000000000e+00 -5.4999999154457049e+00 +3.0386818812012272e-04 +0.0000000000000000e+00 +9.9999995383206075e-01
-5.5499999999999883e+00 +8.5971496405213728e+00 +0.0000000000000000e+00 -5.5499999131162063e+00 +3.0663753165955244e-04 +0.0000000000000000e+00 +9.9999995298671063e-01
-5.5999999999999881e+00 +8.5971342394076409e+00 +0.0000000000000000e+00 -5.5999999107442475e+00 +3.0940704617531264e-04 +0.0000000000000000e+00 +9.9999995213363835e-01
-5.6499999999999879e+00 +8.5971186998138904e+00 +0.0000000000000000e+00 -5.6499999083294421e+00 +3.1217673254096609e-04 +0.0000000000000000e+00 +9.9999995127284225e-01
-5.6999999999999877e+00 +8.5971030217315079e+00 +0.0000000000000000e+00 -5.6999999058714037e+00 +3.1494659161553616e-04 +0.0000000000000000e+00 +9.9999995040432055e-01
-5.7499999999999876e+00 +8.5970872051518370e+00 +0.0000000000000000e+00 -5.7499999033697460e+00 +3.1771662424350683e-04 +0.0000000000000000e+00 +9.9999994952807159e-01
-5.7999999999999874e+00 +8.5970712500661772e+00 +0.0000000000000000e+00 -5.7999999008240826e+00 +3.2048683125482261e-04 +0.0000000000000000e+00 +9.9999994864409369e-01
-5.8499999999999872e+00 +8.5970551564657907e+00 +0.0000000000000000e+00 -5.8499998982340271e+00 +3.2325721346488864e-04 +0.0000000000000000e+00 +9.9999994775238510e-01
