# field on trajectory
# s[mm] rx[mm] ry[mm] rz[mm] bx[T] by[T] bz[T]
0.0000000000000000e+00 +8.5269999999999904e+00 +0.0000000000000000e+00 +0.0000000000000000e+00 -2.6840497820135062e-02 -5.2342595631824229e-01 +5.3409662619149688e-03
5.0000000000000003e-02 +8.5269999309457507e+00 +0.0000000000000000e+00 +4.9999999999936401e-02 -2.6840375519361557e-02 -5.2342560673459837e-01 +5.3403277552122978e-03
1.0000000000000001e-01 +8.5269997237883199e+00 +0.0000000000000000e+00 +9.9999999999491399e-02 -2.6840275714418892e-02 -5.2342561198746973e-01 +5.3396897002459340e-03
1.4999999999999999e-01 +8.5269993785295792e+00 +0.0000000000000000e+00 +1.4999999999828301e-01 -2.6840198280304983e-02 -5.2342597148208647e-01 +5.3390521400120171e-03
2.0000000000000001e-01 +8.5269988951622508e+00 +0.0000000000000000e+00 +1.9999999999593099e-01 -2.6840143092022119e-02 -5.2342668462375774e-01 +5.3384151175074447e-03
2.5000000000000000e-01 +8.5269982736936107e+00 +0.0000000000000000e+00 +2.4999999999205300e-01 -2.6840110024567997e-02 -5.2342775081770687e-01 +5.3377786757281649e-03
2.9999999999999999e-01 +8.5269975141200103e+00 +0.0000000000000000e+00 +2.9999999998626797e-01 -2.6840098952945399e-02 -5.2342916946924922e-01 +5.3371428576710050e-03
3.4999999999999998e-01 +8.5269966164378292e+00 +0.0000000000000000e+00 +3.4999999997819298e-01 -2.6840109752158028e-02 -5.2343093998371371e-01 +5.3365077063328662e-03
4.0000000000000002e-01 +8.5269955806543294e+00 +0.0000000000000000e+00 +3.9999999996744900e-01 -2.6840142297206455e-02 -5.2343306176637094e-01 +5.3358732647099541e-03
4.5000000000000001e-01 +8.5269944067658798e+00 +0.0000000000000000e+00 +4.4999999995365297e-01 -2.6840196463096246e-02 -5.2343553422258149e-01 +5.3352395757993321e-03
5.0000000000000000e-01 +8.5269930947724806e+00 +0.0000000000000000e+00 +4.9999999993642402e-01 -2.6840272124832587e-02 -5.2343835675769623e-01 +5.3346066825978719e-03
5.5000000000000004e-01 +8.5269916446777607e+00 +0.0000000000000000e+00 +5.4999999991537996e-01 -2.6840369157420278e-02 -5.2344152877705585e-01 +5.3339746281022412e-03
5.9999999999999998e-01 +8.5269900564744603e+00 +0.0000000000000000e+00 +5.9999999989013997e-01 -2.6840487435869156e-02 -5.2344504968609251e-01 +5.3333434553099555e-03
6.5000000000000002e-01 +8.5269883301661995e+00 +0.0000000000000000e+00 +6.4999999986032297e-01 -2.6840626835185923e-02 -5.2344891889017819e-01 +5.3327132072178030e-03
6.9999999999999996e-01 +8.5269864657566394e+00 +0.0000000000000000e+00 +6.9999999982554695e-01 -2.6840787230378263e-02 -5.2345313579469976e-01 +5.3320839268226122e-03
7.5000000000000000e-01 +8.5269844632421208e+00 +0.0000000000000000e+00 +7.4999999978543097e-01 -2.6840968496457576e-02 -5.2345769980510981e-01 +5.3314556571217872e-03
8.0000000000000004e-01 +8.5269823226226400e+00 +0.0000000000000000e+00 +7.9999999973959202e-01 -2.6841170508434885e-02 -5.2346261032685182e-01 +5.3308284411124991e-03
8.4999999999999998e-01 +8.5269800438982202e+00 +0.0000000000000000e+00 +8.4999999968765005e-01 -2.6841393141322153e-02 -5.2346786676538293e-01 +5.3302023217919525e-03
9.0000000000000002e-01 +8.5269776270688507e+00 +0.0000000000000000e+00 +8.9999999962922395e-01 -2.6841636270132412e-02 -5.2347346852617760e-01 +5.3295773421573791e-03
9.4999999999999996e-01 +8.5269750721381605e+00 +0.0000000000000000e+00 +9.4999999956393100e-01 -2.6841899769878264e-02 -5.2347941501469941e-01 +5.3289535452057859e-03
1.0000000000000000e+00 +8.5269723790988792e+00 +0.0000000000000000e+00 +9.9999999949139096e-01 -2.6842183515577458e-02 -5.2348570563650232e-01 +5.3283309739349527e-03
1.0500000000000000e+00 +8.5269695479546499e+00 +0.0000000000000000e+00 +1.0499999994112199e+00 -2.6842487382244609e-02 -5.2349233979708099e-01 +5.3277096713419082e-03
1.1000000000000001e+00 +8.5269665787091107e+00 +0.0000000000000000e+00 +1.0999999993230400e+00 -2.6842811244895359e-02 -5.2349931690194496e-01 +5.3270896804236802e-03
1.1499999999999999e+00 +8.5269634713586093e+00 +0.0000000000000000e+00 +1.1499999992264700e+00 -2.6843154978549111e-02 -5.2350663635666894e-01 +5.3264710441778178e-03
1.2000000000000000e+00 +8.5269602259031707e+00 +0.0000000000000000e+00 +1.1999999991211201e+00 -2.6843518458224910e-02 -5.2351429756681866e-01 +5.3258538056016073e-03
1.2500000000000000e+00 +8.5269568423427700e+00 +0.0000000000000000e+00 +1.2499999990066200e+00 -2.6843901558942850e-02 -5.2352229993797417e-01 +5.3252380076923246e-03
1.3000000000000000e+00 +8.5269533206774195e+00 +0.0000000000000000e+00 +1.2999999988825901e+00 -2.6844304155724023e-02 -5.2353064287573148e-01 +5.3246236934472264e-03
1.3500000000000001e+00 +8.5269496609071194e+00 +0.0000000000000000e+00 +1.3499999987486300e+00 -2.6844726123590599e-02 -5.2353932578570195e-01 +5.3240109058635575e-03
1.3999999999999999e+00 +8.5269458630355093e+00 +0.0000000000000000e+00 +1.3999999986043801e+00 -2.6845167337564372e-02 -5.2354834807348616e-01 +5.3233996879382657e-03
1.4500000000000000e+00 +8.5269419270553009e+00 +0.0000000000000000e+00 +1.4499999984494401e+00 -2.6845627672672342e-02 -5.2355770914477617e-01 +5.3227900826690574e-03
1.5000000000000000e+00 +8.5269378529737896e+00 +0.0000000000000000e+00 +1.4999999982834400e+00 -2.6846107003937022e-02 -5.2356740840517846e-01 +5.3221821330525611e-03
1.5500000000000000e+00 +8.5269336407873197e+00 +0.0000000000000000e+00 +1.5499999981060000e+00 -2.6846605206386157e-02 -5.2357744526038985e-01 +5.3215758820861336e-03
1.6000000000000001e+00 +8.5269292904959002e+00 +0.0000000000000000e+00 +1.5999999979167401e+00 -2.6847122155047125e-02 -5.2358781911609809e-01 +5.3209713727668442e-03
1.6499999999999999e+00 +8.5269248020995292e+00 +0.0000000000000000e+00 +1.6499999977152600e+00 -2.6847657724948400e-02 -5.2359852937800488e-01 +5.3203686480916895e-03
1.7000000000000000e+00 +8.5269201755982102e+00 +0.0000000000000000e+00 +1.6999999975011999e+00 -2.6848211791119538e-02 -5.2360957545182862e-01 +5.3197677510576210e-03
1.7500000000000000e+00 +8.5269154109919292e+00 +0.0000000000000000e+00 +1.7499999972741700e+00 -2.6848784228591136e-02 -5.2362095674330178e-01 +5.3191687246615261e-03
1.8000000000000000e+00 +8.5269105082843506e+00 +0.0000000000000000e+00 +1.7999999970337901e+00 -2.6849374912393507e-02 -5.2363267265814695e-01 +5.3185716118999589e-03
1.8500000000000001e+00 +8.5269054674718099e+00 +0.0000000000000000e+00 +1.8499999967796801e+00 -2.6849983717560838e-02 -5.2364472260215311e-01 +5.3179764557699299e-03
1.8999999999999999e+00 +8.5269002885506797e+00 +0.0000000000000000e+00 +1.8999999965114500e+00 -2.6850610519128345e-02 -5.2365710598112325e-01 +5.3173832992683577e-03
1.9500000000000000e+00 +8.5268949715282396e+00 +0.0000000000000000e+00 +1.9499999962287300e+00 -2.6851255192128269e-02 -5.2366982220080105e-01 +5.3167921853913142e-03
2.0000000000000000e+00 +8.5268895164008391e+00 +0.0000000000000000e+00 +1.9999999959311201e+00 -2.6851917611598025e-02 -5.2368287066702046e-01 +5.3162031571355427e-03
2.0499999999999998e+00 +8.5268839230666291e+00 +0.0000000000000000e+00 +2.0499999956182600e+00 -2.6852597668762350e-02 -5.2369625057442182e-01 +5.3156162538804987e-03
2.1000000000000001e+00 +8.5268781914164702e+00 +0.0000000000000000e+00 +2.0999999952897199e+00 -2.6853295319445254e-02 -5.2370996027016692e-01 +5.3150315005094503e-03
2.1499999999999999e+00 +8.5268723214576294e+00 +0.0000000000000000e+00 +2.1499999949451398e+00 -2.6854010535575523e-02 -5.2372399788873947e-01 +5.3144489182733352e-03
2.2000000000000002e+00 +8.5268663131864706e+00 +0.0000000000000000e+00 +2.1999999945841302e+00 -2.6854743289085884e-02 -5.2373836156470954e-01 +5.3138685284239455e-03
2.2500000000000000e+00 +8.5268601666030008e+00 +0.0000000000000000e+00 +2.2499999942063100e+00 -2.6855493551907333e-02 -5.2375304943263290e-01 +5.3132903522129203e-03
2.2999999999999998e+00 +8.5268538817035697e+00 +0.0000000000000000e+00 +2.2999999938113000e+00 -2.6856261295971920e-02 -5.2376805962710138e-01 +5.3127144108922591e-03
2.3500000000000001e+00 +8.5268474584954692e+00 +0.0000000000000000e+00 +2.3499999933987001e+00 -2.6857046493207075e-02 -5.2378339028264098e-01 +5.3121407257132915e-03
2.3999999999999999e+00 +8.5268408969750507e+00 +0.0000000000000000e+00 +2.3999999929681501e+00 -2.6857849115543852e-02 -5.2379903953386364e-01 +5.3115693179282379e-03
2.4500000000000002e+00 +8.5268341971459396e+00 +0.0000000000000000e+00 +2.4499999925192602e+00 -2.6858669134909998e-02 -5.2381500551534121e-01 +5.3110002087889329e-03
2.5000000000000000e+00 +8.5268273590008903e+00 +0.0000000000000000e+00 +2.4999999920516398e+00 -2.6859506523236716e-02 -5.2383128636172949e-01 +5.3104334195480992e-03
2.5499999999999998e+00 +8.5268203825435194e+00 +0.0000000000000000e+00 +2.5499999915649201e+00 -2.6860361252450334e-02 -5.2384788020761885e-01 +5.3098689714578201e-03
2.6000000000000001e+00 +8.5268132677774702e+00 +0.0000000000000000e+00 +2.5999999910586999e+00 -2.6861233294476393e-02 -5.2386478518760904e-01 +5.3093068857703284e-03
2.6499999999999999e+00 +8.5268060146954703e+00 +0.0000000000000000e+00 +2.6499999905326099e+00 -2.6862122621243746e-02 -5.2388199943638336e-01 +5.3087471837387637e-03
2.7000000000000002e+00 +8.5267986233047797e+00 +0.0000000000000000e+00 +2.6999999899862699e+00 -2.6863029204674722e-02 -5.2389952108853366e-01 +5.3081898866153884e-03
2.7500000000000000e+00 +8.5267910936017905e+00 +0.0000000000000000e+00 +2.7499999894192899e+00 -2.6863953016694826e-02 -5.2391734827873548e-01 +5.3076350156534002e-03
2.7999999999999998e+00 +8.5267834255828294e+00 +0.0000000000000000e+00 +2.7999999888312899e+00 -2.6864894029228481e-02 -5.2393547914167304e-01 +5.3070825921061500e-03
2.8500000000000001e+00 +8.5267756192552007e+00 +0.0000000000000000e+00 +2.8499999882218900e+00 -2.6865852214194810e-02 -5.2395391181196160e-01 +5.3065326372263898e-03
2.8999999999999999e+00 +8.5267676746152592e+00 +0.0000000000000000e+00 +2.8999999875907001e+00 -2.6866827543515850e-02 -5.2397264442430092e-01 +5.3059851722678172e-03
2.9500000000000002e+00 +8.5267595916629908e+00 +0.0000000000000000e+00 +2.9499999869373399e+00 -2.6867819989110999e-02 -5.2399167511337286e-01 +5.3054402184840562e-03
3.0000000000000000e+00 +8.5267513703984203e+00 +0.0000000000000000e+00 +2.9999999862614302e+00 -2.6868829522898263e-02 -5.2401100201386619e-01 +5.3048977971289074e-03
3.0499999999999998e+00 +8.5267430108251592e+00 +0.0000000000000000e+00 +3.0499999855625899e+00 -2.6869856116792872e-02 -5.2403062326045091e-01 +5.3043579294561214e-03
3.1000000000000001e+00 +8.5267345129359509e+00 +0.0000000000000000e+00 +3.0999999848404300e+00 -2.6870899742712659e-02 -5.2405053698788018e-01 +5.3038206367204003e-03
3.1499999999999999e+00 +8.5267258767344192e+00 +0.0000000000000000e+00 +3.1499999840945798e+00 -2.6871960372569767e-02 -5.2407074133083786e-01 +5.3032859401758959e-03
3.2000000000000002e+00 +8.5267171022205694e+00 +0.0000000000000000e+00 +3.1999999833246400e+00 -2.6873037978276077e-02 -5.2409123442403927e-01 +5.3027538610772142e-03
3.2500000000000000e+00 +8.5267081893980503e+00 +0.0000000000000000e+00 +3.2499999825302401e+00 -2.6874132531740366e-02 -5.2411201440218014e-01 +5.3022244206789278e-03
3.2999999999999998e+00 +8.5266991382632096e+00 +0.0000000000000000e+00 +3.2999999817109900e+00 -2.6875244004872404e-02 -5.2413307940001286e-01 +5.3016976402363433e-03
3.3500000000000001e+00 +8.5266899488124199e+00 +0.0000000000000000e+00 +3.3499999808665200e+00 -2.6876372369580119e-02 -5.2415442755229480e-01 +5.3011735410049884e-03
3.3999999999999999e+00 +8.5266806210529502e+00 +0.0000000000000000e+00 +3.3999999799964300e+00 -2.6877517597765334e-02 -5.2417605699371383e-01 +5.3006521442398634e-03
3.4500000000000002e+00 +8.5266711549811607e+00 +0.0000000000000000e+00 +3.4499999791003502e+00 -2.6878679661332054e-02 -5.2419796585903788e-01 +5.3001334711969758e-03
3.5000000000000000e+00 +8.5266615505970496e+00 +0.0000000000000000e+00 +3.4999999781778901e+00 -2.6879858532180827e-02 -5.2422015228301433e-01 +5.2996175431323208e-03
3.5499999999999998e+00 +8.5266518079006293e+00 +0.0000000000000000e+00 +3.5499999772286701e+00 -2.6881054182210071e-02 -5.2424261440039566e-01 +5.2991043813021364e-03
3.6000000000000001e+00 +8.5266419268882601e+00 +0.0000000000000000e+00 +3.5999999762523198e+00 -2.6882266583317389e-02 -5.2426535034596400e-01 +5.2985940069631924e-03
3.6499999999999999e+00 +8.5266319075708505e+00 +0.0000000000000000e+00 +3.6499999752484298e+00 -2.6883495707392555e-02 -5.2428835825440401e-01 +5.2980864413714832e-03
3.6999999999999900e+00 +8.5266217499374797e+00 +0.0000000000000000e+00 +3.6999999742166398e+00 -2.6884741526331316e-02 -5.2431163626055610e-01 +5.2975817057848134e-03
3.7499999999999898e+00 +8.5266114539917908e+00 +0.0000000000000000e+00 +3.7499999731565601e+00 -2.6886004012021476e-02 -5.2433518249916300e-01 +5.2970798214602415e-03
3.7999999999999901e+00 +8.5266010197374307e+00 +0.0000000000000000e+00 +3.7999999720678099e+00 -2.6887283136348309e-02 -5.2435899510497164e-01 +5.2965808096550986e-03
3.8499999999999899e+00 +8.5265904471671092e+00 +0.0000000000000000e+00 +3.8499999709499999e+00 -2.6888578871198745e-02 -5.2438307221280656e-01 +5.2960846916277806e-03
3.8999999999999901e+00 +8.5265797362881095e+00 +0.0000000000000000e+00 +3.8999999698027499e+00 -2.6889891188451507e-02 -5.2440741195739571e-01 +5.2955914886359465e-03
3.9499999999999900e+00 +8.5265688870931609e+00 +0.0000000000000000e+00 +3.9499999686256899e+00 -2.6891220059988168e-02 -5.2443201247356952e-01 +5.2951012219385786e-03
3.9999999999999898e+00 +8.5265578995895304e+00 +0.0000000000000000e+00 +3.9999999674184199e+00 -2.6892565457682004e-02 -5.2445687189605994e-01 +5.2946139127939430e-03
4.0499999999999901e+00 +8.5265467737735907e+00 +0.0000000000000000e+00 +4.0499999661805601e+00 -2.6893927320350026e-02 -5.2448198825496273e-01 +5.2941295862586699e-03
4.0999999999999899e+00 +8.5265355096416897e+00 +0.0000000000000000e+00 +4.0999999649117402e+00 -2.6895305454577616e-02 -5.2450735916151425e-01 +5.2936482825789426e-03
4.1499999999999897e+00 +8.5265241072047502e+00 +0.0000000000000000e+00 +4.1499999636115703e+00 -2.6896699633888899e-02 -5.2453298212213773e-01 +5.2931700457976563e-03
4.1999999999999904e+00 +8.5265125664518600e+00 +0.0000000000000000e+00 +4.1999999622796604e+00 -2.6898109631818854e-02 -5.2455885464341012e-01 +5.2926949199597027e-03
4.2499999999999902e+00 +8.5265008873866499e+00 +0.0000000000000000e+00 +4.2499999609156403e+00 -2.6899535221899518e-02 -5.2458497423180983e-01 +5.2922229491094127e-03
4.2999999999999901e+00 +8.5264890700091200e+00 +0.0000000000000000e+00 +4.2999999595191198e+00 -2.6900976177667055e-02 -5.2461133839384277e-01 +5.2917541772918549e-03
4.3499999999999899e+00 +8.5264771143192792e+00 +0.0000000000000000e+00 +4.3499999580897200e+00 -2.6902432272660416e-02 -5.2463794463601687e-01 +5.2912886485525753e-03
4.3999999999999897e+00 +8.5264650203207601e+00 +0.0000000000000000e+00 +4.3999999566270596e+00 -2.6903903280420072e-02 -5.2466479046481673e-01 +5.2908264069373764e-03
4.4499999999999904e+00 +8.5264527880062797e+00 +0.0000000000000000e+00 +4.4499999551307496e+00 -2.6905388974493679e-02 -5.2469187338680456e-01 +5.2903674964933176e-03
4.4999999999999902e+00 +8.5264404173794901e+00 +0.0000000000000000e+00 +4.4999999536004101e+00 -2.6906889128427789e-02 -5.2471919090846741e-01 +5.2899119612672121e-03
4.5499999999999901e+00 +8.5264279084440204e+00 +0.0000000000000000e+00 +4.5499999520356598e+00 -2.6908403515772124e-02 -5.2474674053629422e-01 +5.2894598453064020e-03
4.5999999999999899e+00 +8.5264152611962292e+00 +0.0000000000000000e+00 +4.5999999504361098e+00 -2.6909931910082514e-02 -5.2477451977682543e-01 +5.2890111926592685e-03
4.6499999999999897e+00 +8.5264024756361305e+00 +0.0000000000000000e+00 +4.6499999488013897e+00 -2.6911474084916721e-02 -5.2480252613657674e-01 +5.2885660473744860e-03
4.6999999999999904e+00 +8.5263895517600794e+00 +0.0000000000000000e+00 +4.6999999471311096e+00 -2.6913029813837374e-02 -5.2483075712208915e-01 +5.2881244535015384e-03
4.7499999999999902e+00 +8.5263764895753393e+00 +0.0000000000000000e+00 +4.7499999454248902e+00 -2.6914598870406519e-02 -5.2485921023982940e-01 +5.2876864550897061e-03
4.7999999999999901e+00 +8.5263632890782901e+00 +0.0000000000000000e+00 +4.7999999436823400e+00 -2.6916181028193986e-02 -5.2488788299633971e-01 +5.2872520961896093e-03
4.8499999999999899e+00 +8.5263499502725608e+00 +0.0000000000000000e+00 +4.8499999419030901e+00 -2.6917776060770587e-02 -5.2491677289811112e-01 +5.2868214208519407e-03
4.8999999999999897e+00 +8.5263364731472393e+00 +0.0000000000000000e+00 +4.8999999400867402e+00 -2.6919383741716540e-02 -5.2494587745173682e-01 +5.2863944731290089e-03
4.9499999999999904e+00 +8.5263228577168793e+00 +0.0000000000000000e+00 +4.9499999382329296e+00 -2.6921003844606252e-02 -5.2497519416363136e-01 +5.2859712970719386e-03
4.9999999999999902e+00 +8.5263091039705596e+00 +0.0000000000000000e+00 +4.9999999363412497e+00 -2.6922636143027895e-02 -5.2500472054038605e-01 +5.2855519367342486e-03
5.0499999999999901e+00 +8.5262952115954196e+00 +0.0000000000000000e+00 +5.0499999344112600e+00 -2.6924280410689522e-02 -5.2503445409069638e-01 +5.2851364361912396e-03
5.0999999999999899e+00 +8.5262811802713294e+00 +0.0000000000000000e+00 +5.0999999324424596e+00 -2.6925936421306289e-02 -5.2506439232330926e-01 +5.2847248395193397e-03
5.1499999999999897e+00 +8.5262670100019005e+00 +0.0000000000000000e+00 +5.1499999304344799e+00 -2.6927603948473575e-02 -5.2509453274471463e-01 +5.2843171907729393e-03
5.1999999999999904e+00 +8.5262527007798798e+00 +0.0000000000000000e+00 +5.1999999283869203e+00 -2.6929282765795350e-02 -5.2512487286147680e-01 +5.2839135340078348e-03
5.2499999999999902e+00 +8.5262382526088896e+00 +0.0000000000000000e+00 +5.2499999262994104e+00 -2.6930972646875898e-02 -5.2515541018008294e-01 +5.2835139132797271e-03
5.2999999999999901e+00 +8.5262236654925800e+00 +0.0000000000000000e+00 +5.2999999241715603e+00 -2.6932673365324122e-02 -5.2518614220701809e-01 +5.2831183726449894e-03
5.3499999999999899e+00 +8.5262089394273097e+00 +0.0000000000000000e+00 +5.3499999220029704e+00 -2.6934384694756338e-02 -5.2521706644881572e-01 +5.2827269561611795e-03
5.3999999999999897e+00 +8.5261940744130698e+00 +0.0000000000000000e+00 +5.3999999197932702e+00 -2.6936106408792321e-02 -5.2524818041198162e-01 +5.2823397078863030e-03
5.4499999999999904e+00 +8.5261790704498708e+00 +0.0000000000000000e+00 +5.4499999175420601e+00 -2.6937838281056670e-02 -5.2527948160301985e-01 +5.2819566718790576e-03
5.4999999999999902e+00 +8.5261639275377092e+00 +0.0000000000000000e+00 +5.4999999152489698e+00 -2.6939580085178990e-02 -5.2531096752843132e-01 +5.2815778921988547e-03
5.5499999999999901e+00 +8.5261486456802196e+00 +0.0000000000000000e+00 +5.5499999129136004e+00 -2.6941331594792520e-02 -5.2534263569468875e-01 +5.2812034129055725e-03
5.5999999999999899e+00 +8.5261332248737691e+00 +0.0000000000000000e+00 +5.5999999105355700e+00 -2.6943092583538442e-02 -5.2537448360831196e-01 +5.2808332780603260e-03
5.6499999999999897e+00 +8.5261176651147306e+00 +0.0000000000000000e+00 +5.6499999081144896e+00 -2.6944862825063254e-02 -5.2540650877581863e-01 +5.2804675317249770e-03
5.6999999999999904e+00 +8.5261019664103497e+00 +0.0000000000000000e+00 +5.6999999056499897e+00 -2.6946642093014523e-02 -5.2543870870364584e-01 +5.2801062179613648e-03
5.7499999999999902e+00 +8.5260861287570204e+00 +0.0000000000000000e+00 +5.7499999031416600e+00 -2.6948430161049523e-02 -5.2547108089830352e-01 +5.2797493808328586e-03
5.7999999999999901e+00 +8.5260701521547198e+00 +0.0000000000000000e+00 +5.7999999005891203e+00 -2.6950226802829609e-02 -5.2550362286627250e-01 +5.2793970644033411e-03
5.8499999999999899e+00 +8.5260540366070892e+00 +0.0000000000000000e+00 +5.8499998979920003e+00 -2.6952031792020388e-02 -5.2553633211400352e-01 +5.2790493127372147e-03
5.8999999999999897e+00 +8.5260377821068705e+00 +0.0000000000000000e+00 +5.8999998953498896e+00 -2.6953844902297370e-02 -5.2556920614801994e-01 +5.2787061699004385e-03
