# multipoles
# s[mm] polynom_b[n=0][T/m^n] polynom_b[n=1][T/m^n] polynom_b[n=2][T/m^n] polynom_b[n=3][T/m^n] polynom_b[n=4][T/m^n] polynom_b[n=5][T/m^n] polynom_b[n=6][T/m^n] 
+0.0000000000000000e+00 -5.2819857258827085e-01 +6.9585212099374347e+00 +4.1176290701156644e+00 -9.2486287883287616e+01 -7.1624968629816267e+03 +2.3345176338861280e+05 +4.0594352745328285e+07 
+5.0000000000000003e-02 -5.2819934863612927e-01 +6.9584950285032878e+00 +4.1244699889121543e+00 -9.2627557627144029e+01 -7.2981275521670150e+03 +2.3531612119833168e+05 +4.1337421835306883e+07 
+1.0000000000000001e-01 -5.2820041973882204e-01 +6.9584841836492570e+00 +4.1312683776780421e+00 -9.2723836334686695e+01 -7.4434903375243057e+03 +2.3687407193823540e+05 +4.2143322294123285e+07 
+1.5000000000000002e-01 -5.2820178533780893e-01 +6.9584886706843161e+00 +4.1380063959436955e+00 -9.2776570326256959e+01 -7.5980314727033447e+03 +2.3813531159456918e+05 +4.3008539488766909e+07 
+2.0000000000000001e-01 -5.2820344487459203e-01 +6.9585084849146019e+00 +4.1446662083774930e+00 -9.2787205775790568e+01 -7.7611973499824398e+03 +2.3910953492966775e+05 +4.3929559721813671e+07 
+2.5000000000000000e-01 -5.2820539779066555e-01 +6.9585436216484711e+00 +4.1512299749177126e+00 -9.2757188925868746e+01 -7.9324342298341835e+03 +2.3980643728537930e+05 +4.4902868393641122e+07 
+2.9999999999999999e-01 -5.2820764352753247e-01 +6.9585940761930658e+00 +4.1576798553036776e+00 -9.2687965931358590e+01 -8.1111883748404271e+03 +2.4023571321606368e+05 +4.5924950947976984e+07 
+3.4999999999999998e-01 -5.2821018152673083e-01 +6.9586598438574638e+00 +4.1639980130248926e+00 -9.2580983009661821e+01 -8.2969061482785855e+03 +2.4040705782668933e+05 +4.6992293505793817e+07 
+3.9999999999999997e-01 -5.2821301122978881e-01 +6.9587409199505350e+00 +4.1701666069629200e+00 -9.2437686336867031e+01 -8.4890337882628155e+03 +2.4033016584149073e+05 +4.8101381342611745e+07 
+4.4999999999999996e-01 -5.2821613207825202e-01 +6.9588372997828998e+00 +4.1761677970195343e+00 -9.2259522134522683e+01 -8.6870175633827475e+03 +2.4001473235462804e+05 +4.9248699950971738e+07 
+4.9999999999999994e-01 -5.2821954351369393e-01 +6.9589489786619634e+00 +4.1819837454763045e+00 -9.2047936469663256e+01 -8.8903038057243793e+03 +2.3947045118181349e+05 +5.0430735249192558e+07 
+5.4999999999999993e-01 -5.2822324497769613e-01 +6.9590759518989609e+00 +4.1875966134810714e+00 -9.1804375550666364e+01 -9.0983388169626051e+03 +2.3870701732588149e+05 +5.1643972952757984e+07 
+5.9999999999999998e-01 -5.2822723591183718e-01 +6.9592182148041735e+00 +4.1929885598255607e+00 -9.1530285498256148e+01 -9.3105688409430259e+03 +2.3773412497734843e+05 +5.2884898408471115e+07 
+6.5000000000000002e-01 -5.2823151575773331e-01 +6.9593757626908621e+00 +4.1981417463234809e+00 -9.1227112559209132e+01 -9.5264401927284725e+03 +2.3656146944739029e+05 +5.4149997407186091e+07 
+7.0000000000000007e-01 -5.2823608395698940e-01 +6.9595485908686516e+00 +4.2030383318262530e+00 -9.0896302796566900e+01 -9.7453991207424169e+03 +2.3519874449877994e+05 +5.5435755338139609e+07 
+7.5000000000000011e-01 -5.2824093995124299e-01 +6.9597366946519807e+00 +4.2076604775548896e+00 -9.0539302449146462e+01 -9.9668919272567036e+03 +2.3365564532690035e+05 +5.6738657916389912e+07 
+8.0000000000000016e-01 -5.2824608318213118e-01 +6.9599400693541282e+00 +4.2119903427253105e+00 -9.0157557692080573e+01 -1.0190364867757944e+04 +2.3194186662494714e+05 +5.8055190571821466e+07 
+8.5000000000000020e-01 -5.2825151309132068e-01 +6.9601587102860627e+00 +4.2160100890032242e+00 -8.9752514577346929e+01 -1.0415264257286943e+04 +2.3006710204530865e+05 +5.9381839110125206e+07 
+9.0000000000000024e-01 -5.2825722912047746e-01 +6.9603926127655296e+00 +4.2197018763009249e+00 -8.9325619422511423e+01 -1.0641036372744898e+04 +2.2804104744472131e+05 +6.0715089115339786e+07 
+9.5000000000000029e-01 -5.2826323071127657e-01 +6.9606417721071985e+00 +4.2230478629463537e+00 -8.8878318402681288e+01 -1.0867127438631651e+04 +2.2587339752714662e+05 +6.2051425778976284e+07 
+1.0000000000000002e+00 -5.2826951730542615e-01 +6.9609061836272703e+00 +4.2260302114637334e+00 -8.8412057731388714e+01 -1.1092983800145608e+04 +2.2357384729412603e+05 +6.3387335138321228e+07 
+1.0500000000000003e+00 -5.2827608834462481e-01 +6.9611858426416404e+00 +4.2286310797302527e+00 -8.7928283585869892e+01 -1.1318051672502730e+04 +2.2115209142145596e+05 +6.4719302336000830e+07 
+1.1000000000000003e+00 -5.2828294327060543e-01 +6.9614807444696014e+00 +4.2308326296069279e+00 -8.7428442287558070e+01 -1.1541777377983195e+04 +2.1861782587012617e+05 +6.6043813234028086e+07 
+1.1500000000000004e+00 -5.2829008152509638e-01 +6.9617908844279031e+00 +4.2326170202192719e+00 -8.6913980016670607e+01 -1.1763607169375824e+04 +2.1598074536101430e+05 +6.7357353241525218e+07 
+1.2000000000000004e+00 -5.2829750254984098e-01 +6.9621162578388143e+00 +4.2339664103570547e+00 -8.6386343176505207e+01 -1.1982987284675200e+04 +2.1325054650608113e+05 +6.8656407647457778e+07 
+1.2500000000000004e+00 -5.2830520578661666e-01 +6.9624568600209757e+00 +4.2348629628033434e+00 -8.5846978004704212e+01 -1.2199364071553626e+04 +2.1043692455990103e+05 +6.9937462488231614e+07 
+1.3000000000000005e+00 -5.2831319067718763e-01 +6.9628126862954423e+00 +4.2352888357262417e+00 -8.5297330815731570e+01 -1.2412183751655193e+04 +2.0754957538379432e+05 +7.1197002941644013e+07 
+1.3500000000000005e+00 -5.2832145666334351e-01 +6.9631837319854011e+00 +4.2352261897384169e+00 -8.4738848008755951e+01 -1.2620892615328823e+04 +2.0459819559307670e+05 +7.2431514660627633e+07 
+1.4000000000000006e+00 -5.2833000318689449e-01 +6.9635699924141878e+00 +4.2346571860723232e+00 -8.4172975975849951e+01 -1.2824936962026735e+04 +2.0159248175554333e+05 +7.3637483331295133e+07 
+1.4500000000000006e+00 -5.2833882968964252e-01 +6.9639714629055360e+00 +4.2335639830925578e+00 -8.3601161106088014e+01 -1.3023763020819322e+04 +1.9854213040136802e+05 +7.4811394188032627e+07 
+1.5000000000000007e+00 -5.2834793561341720e-01 +6.9643881387875011e+00 +4.2319287411111031e+00 -8.3024849968162044e+01 -1.3216817064592522e+04 +1.9545683960751066e+05 +7.5949732728557482e+07 
+1.5500000000000007e+00 -5.2835732040006966e-01 +6.9648200153839932e+00 +4.2297336224039412e+00 -8.2445488933923826e+01 -1.3403545427558693e+04 +1.9234630578388053e+05 +7.7048984898684531e+07 
+1.6000000000000008e+00 -5.2836698349144517e-01 +6.9652670880234338e+00 +4.2269607857411948e+00 -8.1864524561918614e+01 -1.3583394338322769e+04 +1.8922022694381679e+05 +7.8105635882276684e+07 
+1.6500000000000008e+00 -5.2837692432941652e-01 +6.9657293520358250e+00 +4.2235923923187189e+00 -8.1283403467202731e+01 -1.3755810096037902e+04 +1.8608830158593014e+05 +7.9116171365655079e+07 
+1.7000000000000008e+00 -5.2838714235586004e-01 +6.9662068027506621e+00 +4.2196106022627458e+00 -8.0703572226478997e+01 -1.3920238968940052e+04 +1.8296022788228915e+05 +8.0077076812463090e+07 
+1.7500000000000009e+00 -5.2839763701266662e-01 +6.9666994354980218e+00 +4.2149975756275166e+00 -8.0126477445573428e+01 -1.4076127220585136e+04 +1.7984570431463933e+05 +8.0984837643963292e+07 
+1.8000000000000009e+00 -5.2840840774174924e-01 +6.9672072456130634e+00 +4.2097354741773048e+00 -7.9553565917229051e+01 -1.4222921159950611e+04 +1.7675443087543143e+05 +8.1835939587921739e+07 
+1.8500000000000010e+00 -5.2841945398502421e-01 +6.9677302284270235e+00 +4.2038064580741450e+00 -7.8986284284495014e+01 -1.4360067049880152e+04 +1.7369610641477880e+05 +8.2626868044375241e+07 
+1.9000000000000010e+00 -5.2843077518442449e-01 +6.9682683792768065e+00 +4.1971926881741561e+00 -7.8426079400588677e+01 -1.4487011172888113e+04 +1.7068043147576432e+05 +8.3354108552649558e+07 
+1.9500000000000011e+00 -5.2844237078189282e-01 +6.9688216934994580e+00 +4.1898763249792408e+00 -7.7874398133683542e+01 -1.4603199797276851e+04 +1.6771710680618178e+05 +8.4014146533355847e+07 
+2.0000000000000009e+00 -5.2845424021940057e-01 +6.9693901664317544e+00 +4.1818395319655810e+00 -7.7332687323703951e+01 -1.4708079274881295e+04 +1.6481583290828613e+05 +8.4603467986654088e+07 
+2.0500000000000007e+00 -5.2846638276448732e-01 +6.9699737734581459e+00 +4.1730697602897919e+00 -7.6802119691077564e+01 -1.4801233681185995e+04 +1.6198440227390139e+05 +8.5119422246160910e+07 
+2.1000000000000005e+00 -5.2847879698712075e-01 +6.9705724033374112e+00 +4.1635762081908805e+00 -7.6282729021325878e+01 -1.4882806609335277e+04 +1.5922276431625197e+05 +8.5562871817680672e+07 
+2.1500000000000004e+00 -5.2849148128287426e-01 +6.9711859214627099e+00 +4.1533736594768200e+00 -7.5774254154594487e+01 -1.4953083419747660e+04 +1.5652885416458332e+05 +8.5935570433867201e+07 
+2.2000000000000002e+00 -5.2850443404736203e-01 +6.9718141932246738e+00 +4.1424769037309357e+00 -7.5276433824958062e+01 -1.5012349635393170e+04 +1.5390060608387145e+05 +8.6239272958223283e+07 
+2.2500000000000000e+00 -5.2851765367619763e-01 +6.9724570840164661e+00 +4.1309007288033603e+00 -7.4789006852377241e+01 -1.5060890729539075e+04 +1.5133595503057318e+05 +8.6475733905088380e+07 
+2.2999999999999998e+00 -5.2853113856499800e-01 +6.9731144592310264e+00 +4.1186599213256612e+00 -7.4311712047641066e+01 -1.5098992142987485e+04 +1.4883283592027726e+05 +8.6646707572217166e+07 
+2.3499999999999996e+00 -5.2854488710940417e-01 +6.9737861842628996e+00 +4.1057692709645028e+00 -7.3844288268076639e+01 -1.5126939399167732e+04 +1.4638918401904113e+05 +8.6753948816363141e+07 
+2.3999999999999995e+00 -5.2855889770504805e-01 +6.9744721245039871e+00 +4.0922435633937786e+00 -7.3386474257826734e+01 -1.5145017910500570e+04 +1.4400293368774420e+05 +8.6799211738418370e+07 
+2.4499999999999993e+00 -5.2857316874758420e-01 +6.9751721453486706e+00 +4.0780975875531418e+00 -7.2938008856954824e+01 -1.5153513180882912e+04 +1.4167202008957317e+05 +8.6784251062667415e+07 
+2.4999999999999991e+00 -5.2858769863266564e-01 +6.9758861121937681e+00 +4.0633461299401397e+00 -7.2498630990410192e+01 -1.5152710645782390e+04 +1.3939437906721130e+05 +8.6710821050417542e+07 
+2.5499999999999989e+00 -5.2860248575596147e-01 +6.9766138904290589e+00 +4.0480039787407280e+00 -7.2068079298190312e+01 -1.5142895786248204e+04 +1.3716794417270648e+05 +8.6580676264413744e+07 
+2.5999999999999988e+00 -5.2861752851314747e-01 +6.9773553454506088e+00 +4.0320859220073366e+00 -7.1646092656758839e+01 -1.5124354082279155e+04 +1.3499065085194286e+05 +8.6395571274124324e+07 
+2.6499999999999986e+00 -5.2863282529990396e-01 +6.9781103426545350e+00 +4.0156067468497421e+00 -7.1232409941503931e+01 -1.5097370985978994e+04 +1.3286043456944032e+05 +8.6157260452707872e+07 
+2.6999999999999984e+00 -5.2864837451192526e-01 +6.9788787474334413e+00 +3.9985812414389845e+00 -7.0826769881319635e+01 -1.5062231976541427e+04 +1.3077522960223036e+05 +8.5867498348031625e+07 
+2.7499999999999982e+00 -5.2866417454490755e-01 +6.9796604251839831e+00 +3.9810241929058043e+00 -7.0428911354649557e+01 -1.5019222507237642e+04 +1.2873297142928529e+05 +8.5528039346717864e+07 
+2.7999999999999980e+00 -5.2868022379456003e-01 +6.9804552412995786e+00 +3.9629503896888041e+00 -7.0038573109542710e+01 -1.4968628066444120e+04 +1.2673159450001613e+05 +8.5140638066698715e+07 
+2.8499999999999979e+00 -5.2869652065658646e-01 +6.9812630611744293e+00 +3.9443746175554284e+00 -6.9655493911295366e+01 -1.4910734069701848e+04 +1.2476903337332407e+05 +8.4707048636137888e+07 
+2.8999999999999977e+00 -5.2871306352671188e-01 +6.9820837502045539e+00 +3.9253116649568578e+00 -6.9279412598877215e+01 -1.4845826005524088e+04 +1.2284322323847993e+05 +8.4229025678793624e+07 
+2.9499999999999975e+00 -5.2872985080066670e-01 +6.9829171737837648e+00 +3.9057763201383007e+00 -6.8910067908276176e+01 -1.4774189356654126e+04 +1.2095209842086209e+05 +8.3708323776853859e+07 
+2.9999999999999973e+00 -5.2874688087418442e-01 +6.9837631973061667e+00 +3.8857833704418794e+00 -6.8547198590540418e+01 -1.4696109581400644e+04 +1.1909359340751139e+05 +8.3146697351150736e+07 
+3.0499999999999972e+00 -5.2876415214300432e-01 +6.9846216861678938e+00 +3.8653476032581207e+00 -6.8190543464485600e+01 -1.4611872139831954e+04 +1.1726564320249952e+05 +8.2545900836506963e+07 
+3.0999999999999970e+00 -5.2878166300287410e-01 +6.9854925057606865e+00 +3.8444838060956785e+00 -6.7839841165051084e+01 -1.4521762492569793e+04 +1.1546618131943497e+05 +8.1907688660394982e+07 
+3.1499999999999968e+00 -5.2879941184954349e-01 +6.9863755214805980e+00 +3.8232067659556499e+00 -6.7494830508919890e+01 -1.4426066090905908e+04 +1.1369314279221291e+05 +8.1233815208466724e+07 
+3.1999999999999966e+00 -5.2881739707877395e-01 +6.9872705987207722e+00 +3.8015312709070539e+00 -6.7155250168489403e+01 -1.4325068412678200e+04 +1.1194446140595684e+05 +8.0526035034001186e+07 
+3.2499999999999964e+00 -5.2883561708633087e-01 +6.9881776028735922e+00 +3.7794721082732554e+00 -6.6820838798821597e+01 -1.4219054915296783e+04 +1.1021807087272413e+05 +7.9786102556479141e+07 
+3.2999999999999963e+00 -5.2885407026799247e-01 +6.9890963993344419e+00 +3.7570440668159835e+00 -6.6491335161148285e+01 -1.4108311094705912e+04 +1.0851190572828407e+05 +7.9015772453820378e+07 
+3.3499999999999961e+00 -5.2887275501951880e-01 +6.9900268534956851e+00 +3.7342619314129881e+00 -6.6166477896425533e+01 -1.3993122345069693e+04 +1.0682389955405773e+05 +7.8216798727546766e+07 
+3.3999999999999959e+00 -5.2889166973669721e-01 +6.9909688307485220e+00 +3.7111404904727432e+00 -6.5846005585079041e+01 -1.3873774153842625e+04 +1.0515198540401380e+05 +7.7390936006113559e+07 
+3.4499999999999957e+00 -5.2891081281532260e-01 +6.9919221964875407e+00 +3.6876945328986630e+00 -6.5529656947889507e+01 -1.3750552021841240e+04 +1.0349409750229299e+05 +7.6539939008649856e+07 
+3.4999999999999956e+00 -5.2893018265117142e-01 +6.9928868161017714e+00 +3.6639388434913709e+00 -6.5217170474335475e+01 -1.3623741339316048e+04 +1.0184816817376275e+05 +7.5665561707530245e+07 
+3.5499999999999954e+00 -5.2894977764005624e-01 +6.9938625549847506e+00 +3.6398882123917922e+00 -6.4908284836685993e+01 -1.3493627640505660e+04 +1.0021213125652634e+05 +7.4769559051502317e+07 
+3.5999999999999952e+00 -5.2896959617776451e-01 +6.9948492785253897e+00 +3.6155574247637241e+00 -6.4602738503310846e+01 -1.3360496326803068e+04 +9.8583918859222802e+04 +7.3853685096369684e+07 
+3.6499999999999950e+00 -5.2898963666010512e-01 +6.9958468521179027e+00 +3.5909612687578152e+00 -6.4300270171704838e+01 -1.3224632880499907e+04 +9.6961465037796588e+04 +7.2919694448798880e+07 
+3.6999999999999948e+00 -5.2900989748287641e-01 +6.9968551411481101e+00 +3.5661145298510668e+00 -6.4000618176903757e+01 -1.3086322712174289e+04 +9.5342700808856622e+04 +7.1969341233690158e+07 
+3.7499999999999947e+00 -5.2903037704190536e-01 +6.9978740110071582e+00 +3.5410319975086040e+00 -6.3703521083117103e+01 -1.2945851335806625e+04 +9.3725559116455450e+04 +7.1004380259024143e+07 
+3.7999999999999945e+00 -5.2905107373301463e-01 +6.9989033270836867e+00 +3.5157284603462244e+00 -6.3408717343501500e+01 -1.2803504248982750e+04 +9.2107971970478189e+04 +7.0026566249810293e+07 
+3.8499999999999943e+00 -5.2907198595200589e-01 +6.9999429547647249e+00 +3.4902187023494560e+00 -6.3115945338535226e+01 -1.2659566822765972e+04 +9.0487870764916006e+04 +6.9037653071841538e+07 
+3.8999999999999941e+00 -5.2909311209470244e-01 +7.0009927594399155e+00 +3.4645175104705030e+00 -6.2824943562764659e+01 -1.2514324505228595e+04 +8.8863187858934703e+04 +6.8039395099771470e+07 
+3.9499999999999940e+00 -5.2911445055694184e-01 +7.0020526064934447e+00 +3.4386396739933738e+00 -6.2535450280489584e+01 -1.2368062811860649e+04 +8.7231853702069988e+04 +6.7033547183369383e+07 
+3.9999999999999938e+00 -5.2913599973455028e-01 +7.0031223613121991e+00 +3.4125999792613810e+00 -6.2247203862032563e+01 -1.2221067175924842e+04 +8.5591799627994260e+04 +6.6021863612152331e+07 
+4.0499999999999936e+00 -5.2915775792201558e-01 +7.0042018900187273e+00 +3.3864122451680174e+00 -6.1960116896222367e+01 -1.2073611427944974e+04 +8.3942480607012680e+04 +6.5006074011642940e+07 
+4.0999999999999934e+00 -5.2917972300897409e-01 +7.0052910564085016e+00 +3.3600865182395823e+00 -6.1674761018091040e+01 -1.1925916809421053e+04 +8.2289069933658175e+04 +6.3987750624655247e+07 
+4.1499999999999932e+00 -5.2920189278395446e-01 +7.0063897224032070e+00 +3.3336319392725318e+00 -6.1391865355438071e+01 -1.1778189866011748e+04 +8.0638090410788529e+04 +6.2968412016280420e+07 
+4.1999999999999931e+00 -5.2922426503549724e-01 +7.0074977499258484e+00 +3.3070576516755565e+00 -6.1112159070825143e+01 -1.1630637217323616e+04 +7.8996064950150816e+04 +6.1949577262334391e+07 
+4.2499999999999929e+00 -5.2924683755212221e-01 +7.0086150008972785e+00 +3.2803727943125711e+00 -6.0836371246002386e+01 -1.1483465355768540e+04 +7.7369515802986542e+04 +6.0932764564599492e+07 
+4.2999999999999927e+00 -5.2926960812237844e-01 +7.0097413372379007e+00 +3.2535865115650968e+00 -6.0565230929580260e+01 -1.1336880924182213e+04 +7.5764964867859177e+04 +5.9919493138912678e+07 
+4.3499999999999925e+00 -5.2929257453480949e-01 +7.0108766208676716e+00 +3.2267079465066510e+00 -6.0299467145077685e+01 -1.1191090528892397e+04 +7.4188933770026531e+04 +5.8911281949605763e+07 
+4.3999999999999924e+00 -5.2931573457794401e-01 +7.0120207137088508e+00 +3.1997462394629501e+00 -6.0039809008026303e+01 -1.1046300700964228e+04 +7.2647944849351683e+04 +5.7909649444927245e+07 
+4.4499999999999922e+00 -5.2933908604033719e-01 +7.0131734776791319e+00 +3.1727105357217686e+00 -5.9786985440165580e+01 -1.0902718108064324e+04 +7.1148518796415199e+04 +5.6916115002758466e+07 
+4.4999999999999920e+00 -5.2936262671052725e-01 +7.0143347747006715e+00 +3.1456099771697810e+00 -5.9541725531139726e+01 -1.0760549320932078e+04 +6.9697177581350639e+04 +5.5932197323417239e+07 
+4.5499999999999918e+00 -5.2938635437706838e-01 +7.0155044666917714e+00 +3.1184537087975133e+00 -5.9304758214112056e+01 -1.0620000995817300e+04 +6.8300441856951875e+04 +5.4959415687731333e+07 
+4.5999999999999917e+00 -5.2941026682849079e-01 +7.0166824155705365e+00 +3.0912508715511442e+00 -5.9076812401243728e+01 -1.0481279680022155e+04 +6.6964832015912179e+04 +5.3999288637415491e+07 
+4.6499999999999915e+00 -5.2943436185335724e-01 +7.0178684832549107e+00 +3.0640106118958390e+00 -5.8858617002763616e+01 -1.0344592067221556e+04 +6.5696868397965241e+04 +5.3053335691293940e+07 
+4.6999999999999913e+00 -5.2945863724020448e-01 +7.0190625316669051e+00 +3.0367420722121898e+00 -5.8650901072615319e+01 -1.0210144741408318e+04 +6.4503072402480648e+04 +5.2123075622688815e+07 
+4.7499999999999911e+00 -5.2948309077758526e-01 +7.0202644227207482e+00 +3.0094543977361483e+00 -5.8454393349705889e+01 -1.0078144363863315e+04 +6.3389962799962959e+04 +5.1210027728424728e+07 
+4.7999999999999909e+00 -5.2950772025405102e-01 +7.0214740183356685e+00 +2.9821567337815851e+00 -5.8269822773078332e+01 -9.9487975956601331e+03 +6.2364059943079767e+04 +5.0315711285766199e+07 
+4.8499999999999908e+00 -5.2953252345814272e-01 +7.0226911804280219e+00 +2.9548582240216947e+00 -5.8097918146721909e+01 -9.8223110540051239e+03 +6.1431882952604974e+04 +4.9441645278577477e+07 
+4.8999999999999906e+00 -5.2955749817841458e-01 +7.0239157709141926e+00 +2.9275680149277044e+00 -5.7939408281765445e+01 -9.6988914305342714e+03 +6.0599950978615685e+04 +4.8589349180848330e+07 
+4.9499999999999904e+00 -5.2958264220341056e-01 +7.0251476517103129e+00 +2.9002952511800948e+00 -5.7795021967342642e+01 -9.5787453671135427e+03 +5.9874782895786157e+04 +4.7760342124323070e+07 
+4.9999999999999902e+00 -5.2960795332168320e-01 +7.0263866847319090e+00 +2.8730490798517305e+00 -5.7665487953486924e+01 -9.4620795720875849e+03 +5.9262897135120671e+04 +4.6956143689438015e+07 
+5.0499999999999901e+00 -5.2963342932177648e-01 +7.0276327318945384e+00 +2.8458386466661172e+00 -5.7551535003368414e+01 -9.3491007150009664e+03 +5.8770812233021323e+04 +4.6178273184131712e+07 
