# field on trajectory
# s[mm] rx[mm] ry[mm] rz[mm] bx[T] by[T] bz[T]
0.0000000000000000e+00 +8.2850000000000001e+00 +0.0000000000000000e+00 +0.0000000000000000e+00 -2.9455045039042626e-02 -5.5254085103345185e-01 +6.3547182701125223e-03
-5.0000000000000003e-02 +8.2849999309856202e+00 +0.0000000000000000e+00 -4.9999999999936498e-02 -2.9456731385757811e-02 -5.5254118749853942e-01 +6.3565358797498563e-03
-1.0000000000000001e-01 +8.2849997239424074e+00 +0.0000000000000000e+00 -9.9999999999491940e-02 -2.9458438492519622e-02 -5.5254191100420658e-01 +6.3583443738015047e-03
-1.5000000000000002e-01 +8.2849993788701806e+00 +0.0000000000000000e+00 -1.4999999999828531e-01 -2.9460166376787136e-02 -5.5254302074542883e-01 +6.3601436068254419e-03
-2.0000000000000001e-01 +8.2849988957686627e+00 +0.0000000000000000e+00 -1.9999999999593557e-01 -2.9461915056020443e-02 -5.5254451591719922e-01 +6.3619334333791131e-03
-2.5000000000000000e-01 +8.2849982746374806e+00 +0.0000000000000000e+00 -2.4999999999206166e-01 -2.9463684547680658e-02 -5.5254639571452935e-01 +6.3637137080194113e-03
-2.9999999999999999e-01 +8.2849975154761655e+00 +0.0000000000000000e+00 -2.9999999998628252e-01 -2.9465474869229829e-02 -5.5254865933244734e-01 +6.3654842853026732e-03
-3.4999999999999998e-01 +8.2849966182841506e+00 +0.0000000000000000e+00 -3.4999999997821712e-01 -2.9467286038131091e-02 -5.5255130596599999e-01 +6.3672450197846770e-03
-3.9999999999999997e-01 +8.2849955830607751e+00 +0.0000000000000000e+00 -3.9999999996748437e-01 -2.9469118071848464e-02 -5.5255433481025151e-01 +6.3689957660206199e-03
-4.4999999999999996e-01 +8.2849944098052841e+00 +0.0000000000000000e+00 -4.4999999995370321e-01 -2.9470970987847053e-02 -5.5255774506028288e-01 +6.3707363785651169e-03
-4.9999999999999994e-01 +8.2849930985168232e+00 +0.0000000000000000e+00 -4.9999999993649258e-01 -2.9472844803592916e-02 -5.5256153591119284e-01 +6.3724667119721932e-03
-5.4999999999999993e-01 +8.2849916491944473e+00 +0.0000000000000000e+00 -5.4999999991547133e-01 -2.9474739536553111e-02 -5.5256570655809722e-01 +6.3741866207952759e-03
-5.9999999999999998e-01 +8.2849900618371137e+00 +0.0000000000000000e+00 -5.9999999989025843e-01 -2.9476655204195679e-02 -5.5257025619612909e-01 +6.3758959595871783e-03
-6.5000000000000002e-01 +8.2849883364436856e+00 +0.0000000000000000e+00 -6.4999999986047274e-01 -2.9478591823989670e-02 -5.5257518402043848e-01 +6.3775945829000957e-03
-7.0000000000000007e-01 +8.2849864730129337e+00 +0.0000000000000000e+00 -6.9999999982573313e-01 -2.9480549413405097e-02 -5.5258048922619196e-01 +6.3792823452855970e-03
-7.5000000000000011e-01 +8.2849844715435310e+00 +0.0000000000000000e+00 -7.4999999978565846e-01 -2.9482527989912959e-02 -5.5258617100857332e-01 +6.3809591012946127e-03
-8.0000000000000016e-01 +8.2849823320340583e+00 +0.0000000000000000e+00 -7.9999999973986757e-01 -2.9484527570985294e-02 -5.5259222856278234e-01 +6.3826247054774342e-03
-8.5000000000000020e-01 +8.2849800544830021e+00 +0.0000000000000000e+00 -8.4999999968797935e-01 -2.9486548174095042e-02 -5.5259866108403610e-01 +6.3842790123836927e-03
-9.0000000000000024e-01 +8.2849776388887566e+00 +0.0000000000000000e+00 -8.9999999962961252e-01 -2.9488589816716194e-02 -5.5260546776756814e-01 +6.3859218765623550e-03
-9.5000000000000029e-01 +8.2849750852496218e+00 +0.0000000000000000e+00 -9.4999999956438597e-01 -2.9490652516323698e-02 -5.5261264780862762e-01 +6.3875531525617200e-03
-1.0000000000000002e+00 +8.2849723935638035e+00 +0.0000000000000000e+00 -9.9999999949191842e-01 -2.9492736290393486e-02 -5.5262020040248017e-01 +6.3891726949294051e-03
-1.0500000000000003e+00 +8.2849695638294154e+00 +0.0000000000000000e+00 -1.0499999994118285e+00 -2.9494841156402461e-02 -5.5262812474440803e-01 +6.3907803582123361e-03
-1.1000000000000003e+00 +8.2849665960444767e+00 +0.0000000000000000e+00 -1.0999999993237353e+00 -2.9496967131828533e-02 -5.5263642002970914e-01 +6.3923759969567416e-03
-1.1500000000000004e+00 +8.2849634902069162e+00 +0.0000000000000000e+00 -1.1499999992272572e+00 -2.9499114234150567e-02 -5.5264508545369750e-01 +6.3939594657081399e-03
-1.2000000000000004e+00 +8.2849602463145686e+00 +0.0000000000000000e+00 -1.1999999991220129e+00 -2.9501282480848403e-02 -5.5265412021170235e-01 +6.3955306190113309e-03
-1.2500000000000004e+00 +8.2849568643651779e+00 +0.0000000000000000e+00 -1.2499999990076212e+00 -2.9503471889402895e-02 -5.5266352349906966e-01 +6.3970893114104008e-03
-1.3000000000000005e+00 +8.2849533443563939e+00 +0.0000000000000000e+00 -1.2999999988837008e+00 -2.9505682477295819e-02 -5.5267329451115976e-01 +6.3986353974486831e-03
-1.3500000000000005e+00 +8.2849496862857777e+00 +0.0000000000000000e+00 -1.3499999987498701e+00 -2.9507914262009959e-02 -5.5268343244334961e-01 +6.4001687316687823e-03
-1.4000000000000006e+00 +8.2849458901507962e+00 +0.0000000000000000e+00 -1.3999999986057479e+00 -2.9510167261029070e-02 -5.5269393649103116e-01 +6.4016891686125427e-03
-1.4500000000000006e+00 +8.2849419559488240e+00 +0.0000000000000000e+00 -1.4499999984509526e+00 -2.9512441491837869e-02 -5.5270480584961112e-01 +6.4031965628210475e-03
-1.5000000000000007e+00 +8.2849378836771468e+00 +0.0000000000000000e+00 -1.4999999982851027e+00 -2.9514736971922067e-02 -5.5271603971451233e-01 +6.4046907688346177e-03
-1.5500000000000007e+00 +8.2849336733329579e+00 +0.0000000000000000e+00 -1.5499999981078167e+00 -2.9517053718768300e-02 -5.5272763728117180e-01 +6.4061716411927773e-03
-1.6000000000000008e+00 +8.2849293249133620e+00 +0.0000000000000000e+00 -1.5999999979187134e+00 -2.9519391749864225e-02 -5.5273959774504178e-01 +6.4076390344342850e-03
-1.6500000000000008e+00 +8.2849248384153693e+00 +0.0000000000000000e+00 -1.6499999977174109e+00 -2.9521751082698444e-02 -5.5275192030159004e-01 +6.4090928030970809e-03
-1.7000000000000008e+00 +8.2849202138359033e+00 +0.0000000000000000e+00 -1.6999999975035276e+00 -2.9524131734760511e-02 -5.5276460414629791e-01 +6.4105328017183142e-03
-1.7500000000000009e+00 +8.2849154511717948e+00 +0.0000000000000000e+00 -1.7499999972766820e+00 -2.9526533723540971e-02 -5.5277764847466271e-01 +6.4119588848343080e-03
-1.8000000000000009e+00 +8.2849105504197844e+00 +0.0000000000000000e+00 -1.7999999970364924e+00 -2.9528957066531338e-02 -5.5279105248219484e-01 +6.4133709069805729e-03
-1.8500000000000010e+00 +8.2849055115765236e+00 +0.0000000000000000e+00 -1.8499999967825771e+00 -2.9531401781224053e-02 -5.5280481536442050e-01 +6.4147687226917714e-03
-1.9000000000000010e+00 +8.2849003346385750e+00 +0.0000000000000000e+00 -1.8999999965145544e+00 -2.9533867885112572e-02 -5.5281893631687917e-01 +6.4161521865017390e-03
-1.9500000000000011e+00 +8.2848950196024127e+00 +0.0000000000000000e+00 -1.9499999962320425e+00 -2.9536355395691254e-02 -5.5283341453512558e-01 +6.4175211529434477e-03
-2.0000000000000009e+00 +8.2848895664644182e+00 +0.0000000000000000e+00 -1.9999999959346595e+00 -2.9538864330455470e-02 -5.5284824921472742e-01 +6.4188754765490165e-03
-2.0500000000000007e+00 +8.2848839752208860e+00 +0.0000000000000000e+00 -2.0499999956220236e+00 -2.9541394681747008e-02 -5.5286343934308091e-01 +6.4202150228059428e-03
-2.1000000000000005e+00 +8.2848782458680219e+00 +0.0000000000000000e+00 -2.0999999952937527e+00 -2.9543946341290539e-02 -5.5287898307485217e-01 +6.4215397010257752e-03
-2.1500000000000004e+00 +8.2848723784019427e+00 +0.0000000000000000e+00 -2.1499999949494653e+00 -2.9546519175657038e-02 -5.5289487835653239e-01 +6.4228494314753047e-03
-2.2000000000000002e+00 +8.2848663728186782e+00 +0.0000000000000000e+00 -2.1999999945887789e+00 -2.9549113051418295e-02 -5.5291112313462654e-01 +6.4241441344202567e-03
-2.2500000000000000e+00 +8.2848602291141695e+00 +0.0000000000000000e+00 -2.2499999942113118e+00 -2.9551727835146931e-02 -5.5292771535565111e-01 +6.4254237301252948e-03
-2.2999999999999998e+00 +8.2848539472842724e+00 +0.0000000000000000e+00 -2.2999999938166820e+00 -2.9554363393416376e-02 -5.5294465296613426e-01 +6.4266881388539933e-03
-2.3499999999999996e+00 +8.2848475273247573e+00 +0.0000000000000000e+00 -2.3499999934045075e+00 -2.9557019592800861e-02 -5.5296193391261705e-01 +6.4279372808688142e-03
-2.3999999999999995e+00 +8.2848409692313059e+00 +0.0000000000000000e+00 -2.3999999929744056e+00 -2.9559696299875381e-02 -5.5297955614165151e-01 +6.4291710764311071e-03
-2.4499999999999993e+00 +8.2848342729995164e+00 +0.0000000000000000e+00 -2.4499999925259943e+00 -2.9562393381215735e-02 -5.5299751759980076e-01 +6.4303894458010713e-03
-2.4999999999999991e+00 +8.2848274386249017e+00 +0.0000000000000000e+00 -2.4999999920588918e+00 -2.9565110703398508e-02 -5.5301581623364005e-01 +6.4315923092377525e-03
-2.5499999999999989e+00 +8.2848204661028912e+00 +0.0000000000000000e+00 -2.5499999915727152e+00 -2.9567848133001007e-02 -5.5303444998975537e-01 +6.4327795869990115e-03
-2.5999999999999988e+00 +8.2848133554288292e+00 +0.0000000000000000e+00 -2.5999999910670826e+00 -2.9570605536601350e-02 -5.5305341681474340e-01 +6.4339511993415314e-03
-2.6499999999999986e+00 +8.2848061065979781e+00 +0.0000000000000000e+00 -2.6499999905416112e+00 -2.9573382780778354e-02 -5.5307271465521191e-01 +6.4351070665207661e-03
-2.6999999999999984e+00 +8.2847987196055168e+00 +0.0000000000000000e+00 -2.6999999899959186e+00 -2.9576179732111598e-02 -5.5309234145777952e-01 +6.4362471087909528e-03
-2.7499999999999982e+00 +8.2847911944465444e+00 +0.0000000000000000e+00 -2.7499999894296225e+00 -2.9578996257181391e-02 -5.5311229516907434e-01 +6.4373712464050707e-03
-2.7999999999999980e+00 +8.2847835311160747e+00 +0.0000000000000000e+00 -2.7999999888423401e+00 -2.9581832222568768e-02 -5.5313257373573566e-01 +6.4384793996148399e-03
-2.8499999999999979e+00 +8.2847757296090432e+00 +0.0000000000000000e+00 -2.8499999882336891e+00 -2.9584687494855474e-02 -5.5315317510441209e-01 +6.4395714886706966e-03
-2.8999999999999977e+00 +8.2847677899203021e+00 +0.0000000000000000e+00 -2.8999999876032865e+00 -2.9587561940623938e-02 -5.5317409722176258e-01 +6.4406474338217778e-03
-2.9499999999999975e+00 +8.2847597120446270e+00 +0.0000000000000000e+00 -2.9499999869507496e+00 -2.9590455426457319e-02 -5.5319533803445531e-01 +6.4417071553158952e-03
-2.9999999999999973e+00 +8.2847514959767103e+00 +0.0000000000000000e+00 -2.9999999862756961e+00 -2.9593367818939460e-02 -5.5321689548916864e-01 +6.4427505733995333e-03
-3.0499999999999972e+00 +8.2847431417111679e+00 +0.0000000000000000e+00 -3.0499999855777427e+00 -2.9596298984654830e-02 -5.5323876753258916e-01 +6.4437776083178175e-03
-3.0999999999999970e+00 +8.2847346492425356e+00 +0.0000000000000000e+00 -3.0999999848565065e+00 -2.9599248790188663e-02 -5.5326095211141368e-01 +6.4447881803145037e-03
-3.1499999999999968e+00 +8.2847260185652711e+00 +0.0000000000000000e+00 -3.1499999841116049e+00 -2.9602217102126765e-02 -5.5328344717234745e-01 +6.4457822096319582e-03
-3.1999999999999966e+00 +8.2847172496737560e+00 +0.0000000000000000e+00 -3.1999999833426545e+00 -2.9605203787055660e-02 -5.5330625066210437e-01 +6.4467596165111397e-03
-3.2499999999999964e+00 +8.2847083425622934e+00 +0.0000000000000000e+00 -3.2499999825492720e+00 -2.9608208711562473e-02 -5.5332936052740733e-01 +6.4477203211915808e-03
-3.2999999999999963e+00 +8.2846992972251101e+00 +0.0000000000000000e+00 -3.2999999817310748e+00 -2.9611231742235004e-02 -5.5335277471498689e-01 +6.4486642439113709e-03
-3.3499999999999961e+00 +8.2846901136563584e+00 +0.0000000000000000e+00 -3.3499999808876795e+00 -2.9614272745661651e-02 -5.5337649117158316e-01 +6.4495913049071448e-03
-3.3999999999999959e+00 +8.2846807918501124e+00 +0.0000000000000000e+00 -3.3999999800187028e+00 -2.9617331588431436e-02 -5.5340050784394257e-01 +6.4505014244140499e-03
-3.4499999999999957e+00 +8.2846713318003751e+00 +0.0000000000000000e+00 -3.4499999791237617e+00 -2.9620408137134013e-02 -5.5342482267882109e-01 +6.4513945226657458e-03
-3.4999999999999956e+00 +8.2846617335010695e+00 +0.0000000000000000e+00 -3.4999999782024722e+00 -2.9623502258359604e-02 -5.5344943362298094e-01 +6.4522705198943719e-03
-3.5499999999999954e+00 +8.2846519969460495e+00 +0.0000000000000000e+00 -3.5499999772544513e+00 -2.9626613818699063e-02 -5.5347433862319328e-01 +6.4531293363305460e-03
-3.5999999999999952e+00 +8.2846421221290942e+00 +0.0000000000000000e+00 -3.5999999762793151e+00 -2.9629742684743811e-02 -5.5349953562623488e-01 +6.4539708922033215e-03
-3.6499999999999950e+00 +8.2846321090439083e+00 +0.0000000000000000e+00 -3.6499999752766805e+00 -2.9632888723085834e-02 -5.5352502257889125e-01 +6.4547951077402006e-03
-3.6999999999999948e+00 +8.2846219576841253e+00 +0.0000000000000000e+00 -3.6999999742461633e+00 -2.9636051800317718e-02 -5.5355079742795399e-01 +6.4556019031670863e-03
-3.7499999999999947e+00 +8.2846116680433060e+00 +0.0000000000000000e+00 -3.7499999731873803e+00 -2.9639231783032568e-02 -5.5357685812022162e-01 +6.4563911987082900e-03
-3.7999999999999945e+00 +8.2846012401149416e+00 +0.0000000000000000e+00 -3.7999999720999473e+00 -2.9642428537824075e-02 -5.5360320260249951e-01 +6.4571629145864966e-03
-3.8499999999999943e+00 +8.2845906738924509e+00 +0.0000000000000000e+00 -3.8499999709834807e+00 -2.9645641931286451e-02 -5.5362982882159884e-01 +6.4579169710227528e-03
-3.8999999999999941e+00 +8.2845799693691813e+00 +0.0000000000000000e+00 -3.8999999698375967e+00 -2.9648871830014467e-02 -5.5365673472433785e-01 +6.4586532882364555e-03
-3.9499999999999940e+00 +8.2845691265384129e+00 +0.0000000000000000e+00 -3.9499999686619107e+00 -2.9652118100603368e-02 -5.5368391825754060e-01 +6.4593717864453188e-03
-3.9999999999999938e+00 +8.2845581453933548e+00 +0.0000000000000000e+00 -3.9999999674560391e+00 -2.9655380609648996e-02 -5.5371137736803633e-01 +6.4600723858653742e-03
-4.0499999999999936e+00 +8.2845470259271483e+00 +0.0000000000000000e+00 -4.0499999662195982e+00 -2.9658659194107821e-02 -5.5373910989360631e-01 +6.4607550192306920e-03
-4.0999999999999934e+00 +8.2845357681328640e+00 +0.0000000000000000e+00 -4.0999999649522030e+00 -2.9661953572377109e-02 -5.5376711323581784e-01 +6.4614196693531349e-03
-4.1499999999999932e+00 +8.2845243720035082e+00 +0.0000000000000000e+00 -4.1499999636534692e+00 -2.9665263433213917e-02 -5.5379538468718614e-01 +6.4620663315636869e-03
-4.1999999999999931e+00 +8.2845128375320183e+00 +0.0000000000000000e+00 -4.1999999623230133e+00 -2.9668588465374918e-02 -5.5382392154022964e-01 +6.4626950011927656e-03
-4.2499999999999929e+00 +8.2845011647112656e+00 +0.0000000000000000e+00 -4.2499999609604497e+00 -2.9671928357616385e-02 -5.5385272108746786e-01 +6.4633056735702195e-03
-4.2999999999999927e+00 +8.2844893535340560e+00 +0.0000000000000000e+00 -4.2999999595653948e+00 -2.9675282798694160e-02 -5.5388178062142401e-01 +6.4638983440253785e-03
-4.3499999999999925e+00 +8.2844774039931295e+00 +0.0000000000000000e+00 -4.3499999581374640e+00 -2.9678651477363586e-02 -5.5391109743462141e-01 +6.4644730078870383e-03
-4.3999999999999924e+00 +8.2844653160811639e+00 +0.0000000000000000e+00 -4.3999999566762718e+00 -2.9682034082379516e-02 -5.5394066881958648e-01 +6.4650296604835010e-03
-4.4499999999999922e+00 +8.2844530897907713e+00 +0.0000000000000000e+00 -4.4499999551814344e+00 -2.9685430302496225e-02 -5.5397049206884619e-01 +6.4655682971425836e-03
-4.4999999999999920e+00 +8.2844407251145036e+00 +0.0000000000000000e+00 -4.4999999536525666e+00 -2.9688839826467431e-02 -5.5400056447492818e-01 +6.4660889131916248e-03
-4.5499999999999918e+00 +8.2844282220448466e+00 +0.0000000000000000e+00 -4.5499999520892827e+00 -2.9692262343046241e-02 -5.5403088333036143e-01 +6.4665915039575231e-03
-4.5999999999999917e+00 +8.2844155805742279e+00 +0.0000000000000000e+00 -4.5999999504911990e+00 -2.9695697540985107e-02 -5.5406144592767548e-01 +6.4670760647667410e-03
-4.6499999999999915e+00 +8.2844028006950126e+00 +0.0000000000000000e+00 -4.6499999488579302e+00 -2.9699145109035811e-02 -5.5409224955939995e-01 +6.4675425909453219e-03
-4.6999999999999913e+00 +8.2843898823995055e+00 +0.0000000000000000e+00 -4.6999999471890908e+00 -2.9702604735949399e-02 -5.5412329151806461e-01 +6.4679910778189156e-03
-4.7499999999999911e+00 +8.2843768256799510e+00 +0.0000000000000000e+00 -4.7499999454842952e+00 -2.9706076110476196e-02 -5.5415456909619853e-01 +6.4684215207127822e-03
-4.7999999999999909e+00 +8.2843636305285386e+00 +0.0000000000000000e+00 -4.7999999437431589e+00 -2.9709558921365717e-02 -5.5418607958633093e-01 +6.4688339149518255e-03
-4.8499999999999908e+00 +8.2843502969373954e+00 +0.0000000000000000e+00 -4.8499999419652964e+00 -2.9713052857366671e-02 -5.5421782028098954e-01 +6.4692282558605927e-03
-4.8999999999999906e+00 +8.2843368248985918e+00 +0.0000000000000000e+00 -4.8999999401503223e+00 -2.9716557607226933e-02 -5.5424978847270190e-01 +6.4696045387633121e-03
-4.9499999999999904e+00 +8.2843232144041430e+00 +0.0000000000000000e+00 -4.9499999382978510e+00 -2.9720072859693473e-02 -5.5428198145399366e-01 +6.4699627589838923e-03
-4.9999999999999902e+00 +8.2843094654460074e+00 +0.0000000000000000e+00 -4.9999999364074963e+00 -2.9723598303512344e-02 -5.5431439651738879e-01 +6.4703029118459493e-03
-5.0499999999999901e+00 +8.2842955780160867e+00 +0.0000000000000000e+00 -5.0499999344788735e+00 -2.9727133627428650e-02 -5.5434703095541005e-01 +6.4706249926728184e-03
-5.0999999999999899e+00 +8.2842815521062292e+00 +0.0000000000000000e+00 -5.0999999325115963e+00 -2.9730678520186519e-02 -5.5437988206057809e-01 +6.4709289967875760e-03
-5.1499999999999897e+00 +8.2842673877082298e+00 +0.0000000000000000e+00 -5.1499999305052784e+00 -2.9734232670529041e-02 -5.5441294712541056e-01 +6.4712149195130537e-03
-5.1999999999999895e+00 +8.2842530848138267e+00 +0.0000000000000000e+00 -5.1999999284595342e+00 -2.9737795767198271e-02 -5.5444622344242334e-01 +6.4714827561718627e-03
-5.2499999999999893e+00 +8.2842386434147084e+00 +0.0000000000000000e+00 -5.2499999263739783e+00 -2.9741367498935158e-02 -5.5447970830412885e-01 +6.4717325020863942e-03
-5.2999999999999892e+00 +8.2842240635025099e+00 +0.0000000000000000e+00 -5.2999999242482234e+00 -2.9744947554479532e-02 -5.5451339900303720e-01 +6.4719641525788577e-03
-5.3499999999999890e+00 +8.2842093450688168e+00 +0.0000000000000000e+00 -5.3499999220818841e+00 -2.9748535622570089e-02 -5.5454729283165372e-01 +6.4721777029712836e-03
-5.3999999999999888e+00 +8.2841944881051610e+00 +0.0000000000000000e+00 -5.3999999198745741e+00 -2.9752131391944311e-02 -5.5458138708248228e-01 +6.4723731485855441e-03
-5.4499999999999886e+00 +8.2841794926030250e+00 +0.0000000000000000e+00 -5.4499999176259069e+00 -2.9755734551338456e-02 -5.5461567904802067e-01 +6.4725504847433753e-03
-5.4999999999999885e+00 +8.2841643585538431e+00 +0.0000000000000000e+00 -5.4999999153354961e+00 -2.9759344789487555e-02 -5.5465016602076433e-01 +6.4727097067663903e-03
-5.5499999999999883e+00 +8.2841490859490019e+00 +0.0000000000000000e+00 -5.5499999130029556e+00 -2.9762961795125300e-02 -5.5468484529320339e-01 +6.4728508099760928e-03
-5.5999999999999881e+00 +8.2841336747798362e+00 +0.0000000000000000e+00 -5.5999999106278979e+00 -2.9766585256984099e-02 -5.5471971415782295e-01 +6.4729737896938979e-03
-5.6499999999999879e+00 +8.2841181250376366e+00 +0.0000000000000000e+00 -5.6499999082099368e+00 -2.9770214863794976e-02 -5.5475476990710459e-01 +6.4730786412411628e-03
-5.6999999999999877e+00 +8.2841024367136473e+00 +0.0000000000000000e+00 -5.6999999057486859e+00 -2.9773850304287568e-02 -5.5479000983352345e-01 +6.4731653599391734e-03
-5.7499999999999876e+00 +8.2840866097990631e+00 +0.0000000000000000e+00 -5.7499999032437579e+00 -2.9777491267190103e-02 -5.5482543122954975e-01 +6.4732339411091907e-03
-5.7999999999999874e+00 +8.2840706442850376e+00 +0.0000000000000000e+00 -5.7999999006947656e+00 -2.9781137441229309e-02 -5.5486103138764831e-01 +6.4732843800724580e-03
-5.8499999999999872e+00 +8.2840545401626766e+00 +0.0000000000000000e+00 -5.8499998981013217e+00 -2.9784788515130462e-02 -5.5489680760027738e-01 +6.4733166721502077e-03
