# multipoles
# s[mm] polynom_b[n=0][T/m^n] polynom_b[n=1][T/m^n] polynom_b[n=2][T/m^n] polynom_b[n=3][T/m^n] polynom_b[n=4][T/m^n] polynom_b[n=5][T/m^n] polynom_b[n=6][T/m^n] 
+0.0000000000000000e+00 -5.2591986211319908e-01 +6.9125881495832768e+00 +4.6523006086536665e+00 -7.9341411228681523e+01 +8.3028039762591834e+03 +2.6696284863967902e+05 -5.8622034226575367e+07 
-5.0000000000000003e-02 -5.2591991246599790e-01 +6.9125545012038598e+00 +4.6586849392723906e+00 -7.9369319490040937e+01 +8.1768058906266706e+03 +2.6804762796282582e+05 -5.7896770848170623e+07 
-1.0000000000000001e-01 -5.2592030037572313e-01 +6.9125395190098393e+00 +4.6646354348966312e+00 -7.9410508580838311e+01 +8.0500515399533742e+03 +2.6925837437879841e+05 -5.7163855674469508e+07 
-1.5000000000000002e-01 -5.2592102529066231e-01 +6.9125431719825370e+00 +4.6701490067190941e+00 -7.9465274699678830e+01 +7.9227275007854741e+03 +2.7059576534871105e+05 -5.6424540909043416e+07 
-2.0000000000000001e-01 -5.2592208665914397e-01 +6.9125654291046965e+00 +4.6752225706751531e+00 -7.9533914058475048e+01 +7.7950202177263855e+03 +2.7206047836871282e+05 -5.5680077847435825e+07 
-2.5000000000000000e-01 -5.2592348392948896e-01 +6.9126062593597561e+00 +4.6798530381807666e+00 -7.9616722881196807e+01 +7.6671162622209367e+03 +2.7365319106064358e+05 -5.4931718664964795e+07 
-2.9999999999999999e-01 -5.2592521655004898e-01 +6.9126656317323230e+00 +4.6840373233703572e+00 -7.9713997411006829e+01 +7.5392021312769157e+03 +2.7537458120299288e+05 -5.4180715027617760e+07 
-3.4999999999999998e-01 -5.2592728396919974e-01 +6.9127435152058228e+00 +4.6877723421985174e+00 -7.9826033808351170e+01 +7.4114642713305902e+03 +2.7722532585003239e+05 -5.3428318258189425e+07 
-3.9999999999999997e-01 -5.2592968563530995e-01 +6.9128398787670386e+00 +4.6910550062094138e+00 -7.9953128355812481e+01 +7.2840892506424798e+03 +2.7920610309230513e+05 -5.2675780511172391e+07 
-4.4999999999999996e-01 -5.2593242099677084e-01 +6.9129546913989826e+00 +4.6938822284246893e+00 -8.0095577146165695e+01 +7.1572635968900868e+03 +2.8131758942731807e+05 -5.1924353667924039e+07 
-4.9999999999999994e-01 -5.2593548950200730e-01 +6.9130879220932382e+00 +4.6962509247944544e+00 -8.0253676603470439e+01 +7.0311737612395091e+03 +2.8356046407811361e+05 -5.1175289101078868e+07 
-5.4999999999999993e-01 -5.2593889059944277e-01 +6.9132395398334143e+00 +4.6981580089089778e+00 -8.0427722798276875e+01 +6.9060062531248841e+03 +2.8593540336115868e+05 -5.0429838558573589e+07 
-5.9999999999999998e-01 -5.2594262373751832e-01 +6.9134095136106595e+00 +4.6996003941023439e+00 -8.0618012084995911e+01 +6.7819475953566443e+03 +2.8844308590881724e+05 -4.9689253901712902e+07 
-6.5000000000000002e-01 -5.2594668836469816e-01 +6.9135978124117452e+00 +4.7005749949718174e+00 -8.0824840623016030e+01 +6.6591842783332904e+03 +2.9108418878654554e+05 -4.8954786782208242e+07 
-7.0000000000000007e-01 -5.2595108392945300e-01 +6.9138044052280927e+00 +4.7010787254711666e+00 -8.1048504728397333e+01 +6.5379028031080825e+03 +2.9385939029849885e+05 -4.8227688899017677e+07 
-7.5000000000000011e-01 -5.2595580988027546e-01 +6.9140292610483574e+00 +4.7011084997932349e+00 -8.1289300586847929e+01 +6.4182896721124489e+03 +2.9676936770189065e+05 -4.7509211988084368e+07 
-8.0000000000000016e-01 -5.2596086566567202e-01 +6.9142723488663025e+00 +4.7006612323583665e+00 -8.1547524572938698e+01 +6.3005313779527987e+03 +2.9981479981180013e+05 -4.6800607707299285e+07 
-8.5000000000000020e-01 -5.2596625073416814e-01 +6.9145336376716475e+00 +4.6997338382547973e+00 -8.1823472867388034e+01 +6.1848143967388787e+03 +3.0299636381885660e+05 -4.6103127610021591e+07 
-9.0000000000000024e-01 -5.2597196453429640e-01 +6.9148130964587491e+00 +4.6983232307966540e+00 -8.2117441829579832e+01 +6.0713252565369685e+03 +3.0631473842862569e+05 -4.5418023613864154e+07 
-9.5000000000000029e-01 -5.2597800651460647e-01 +6.9151106942196678e+00 +4.6964263240896011e+00 -8.2429727698751421e+01 +5.9602504607058445e+03 +3.0977060133935045e+05 -4.4746547460483164e+07 
-1.0000000000000002e+00 -5.2598437612367022e-01 +6.9154263999502676e+00 +4.6940400332402286e+00 -8.2760626844494254e+01 +5.8517764887117119e+03 +3.1336463129538891e+05 -4.4089950739217676e+07 
-1.0500000000000003e+00 -5.2599107281008572e-01 +6.9157601826436412e+00 +4.6911612755523446e+00 -8.3110435522070588e+01 +5.7460897593784221e+03 +3.1709750618353795e+05 -4.3449484626836255e+07 
-1.1000000000000003e+00 -5.2599809602243031e-01 +6.9161120112972769e+00 +4.6877869618536678e+00 -8.3479450126312159e+01 +5.6433768690389388e+03 +3.2096990496020584e+05 -4.2826401508485556e+07 
-1.1500000000000004e+00 -5.2600544520933024e-01 +6.9164818549066558e+00 +4.6839140088866875e+00 -8.3867966970066888e+01 +5.5438242566581121e+03 +3.2498250597966212e+05 -4.2221952715654701e+07 
-1.2000000000000004e+00 -5.2601311981941601e-01 +6.9168696824693150e+00 +4.6795393318825598e+00 -8.4276282417804595e+01 +5.4476183989541996e+03 +3.2913598797432065e+05 -4.1637389823463261e+07 
-1.2500000000000004e+00 -5.2602111930132145e-01 +6.9172754629811823e+00 +4.6746598438170546e+00 -8.4704692762158729e+01 +5.3549458376688917e+03 +3.3343102913808433e+05 -4.1073964861698441e+07 
-1.3000000000000005e+00 -5.2602944310372046e-01 +6.9176991654440618e+00 +4.6692724621666830e+00 -8.5153494513974877e+01 +5.2659929927684789e+03 +3.3786830943969637e+05 -4.0532929036393903e+07 
-1.3500000000000005e+00 -5.2603809067528196e-01 +6.9181407588554320e+00 +4.6633741008559086e+00 -8.5622983995151046e+01 +5.1809463829309834e+03 +3.4244850732479774e+05 -4.0015534231303304e+07 
-1.4000000000000006e+00 -5.2604706146468660e-01 +6.9186002122167523e+00 +4.6569616735196453e+00 -8.6113457669021813e+01 +5.0999925316979961e+03 +3.4717230238808284e+05 -3.9523032350699969e+07 
-1.4500000000000006e+00 -5.2605635492065317e-01 +6.9190774945271558e+00 +4.6500320975752718e+00 -8.6625211897801535e+01 +5.0233178677143605e+03 +3.5204037344228168e+05 -3.9056674685979120e+07 
-1.5000000000000007e+00 -5.2606597049189752e-01 +6.9195725747901324e+00 +4.6425822877365368e+00 -8.7158543195302499e+01 +4.9511088894378991e+03 +3.5705340050700941e+05 -3.8617712988489233e+07 
-1.5500000000000007e+00 -5.2607590762715295e-01 +6.9200854220074364e+00 +4.6346091592711511e+00 -8.7713748008478376e+01 +4.8835520803036397e+03 +3.6221206313492259e+05 -3.8207398905333474e+07 
-1.6000000000000008e+00 -5.2608616577517142e-01 +6.9206160051819872e+00 +4.6261096277854881e+00 -8.8291122801566345e+01 +4.8208339198477888e+03 +3.6751704097326833e+05 -3.7826984077659436e+07 
-1.6500000000000008e+00 -5.2609674438471987e-01 +6.9211642933184621e+00 +4.6170806092418477e+00 -8.8890964104366063e+01 +4.7631408787075370e+03 +3.7296901424594811e+05 -3.7477720090731427e+07 
-1.7000000000000008e+00 -5.2610764290457268e-01 +6.9217302554196785e+00 +4.6075190185836936e+00 -8.9513568360761525e+01 +4.7106594522881123e+03 +3.7856866249695915e+05 -3.7160858683325544e+07 
-1.7500000000000009e+00 -5.2611886078351333e-01 +6.9223138604935714e+00 +4.5974217694294826e+00 -9.0159232210563573e+01 +4.6635761773408803e+03 +3.8431666688893008e+05 -3.6877651895553201e+07 
-1.8000000000000009e+00 -5.2613039747037793e-01 +6.9229150775452908e+00 +4.5867857823391596e+00 -9.0828252177305998e+01 +4.6220774048484091e+03 +3.9021370768059482e+05 -3.6629350518350646e+07 
-1.8500000000000010e+00 -5.2614225241396440e-01 +6.9235338755821356e+00 +4.5756079687217097e+00 -9.1520924839215482e+01 +4.5863497309335889e+03 +3.9626046551665704e+05 -3.6417206989996426e+07 
-1.9000000000000010e+00 -5.2615442506313481e-01 +6.9241702236115090e+00 +4.5638852488363204e+00 -9.2237546792447858e+01 +4.5565795156308550e+03 +4.0245762129492289e+05 -3.6242472164721332e+07 
-1.9500000000000011e+00 -5.2616691486671530e-01 +6.9248240906412111e+00 +4.5516145338664398e+00 -9.2978414630165688e+01 +4.5329533674230615e+03 +4.0880585587308306e+05 -3.6106398587124035e+07 
-2.0000000000000009e+00 -5.2617972127358070e-01 +6.9254954456830724e+00 +4.5387927414516378e+00 -9.3743825100018228e+01 +4.5156577183972222e+03 +4.1530585139887361e+05 -3.6010237600877352e+07 
-2.0500000000000007e+00 -5.2619284349011641e-01 +6.9261842343042970e+00 +4.5254178066571757e+00 -9.4533795633360839e+01 +4.5048384855476752e+03 +4.2195665835750493e+05 -3.5954957310256861e+07 
-2.1000000000000005e+00 -5.2620627975260981e-01 +6.9268903011719321e+00 +4.5114923636277808e+00 -9.5347195578213373e+01 +4.5004724742963526e+03 +4.2875061982473033e+05 -3.5940352111627750e+07 
-2.1500000000000004e+00 -5.2622002805485824e-01 +6.9276134639318654e+00 +4.4970203999285880e+00 -9.6182599684535617e+01 +4.5024921383417450e+03 +4.3567835382983583e+05 -3.5965910708262540e+07 
-2.2000000000000002e+00 -5.2623408639065594e-01 +6.9283535402310861e+00 +4.4820059004860973e+00 -9.7038582737660874e+01 +4.5108300043672170e+03 +4.4273047868357919e+05 -3.6031122300099045e+07 
-2.2500000000000000e+00 -5.2624845275381837e-01 +6.9291103477154321e+00 +4.4664528515621313e+00 -9.7913719464317339e+01 +4.5254185676019242e+03 +4.4989761222470051e+05 -3.6135475892488904e+07 
-2.2999999999999998e+00 -5.2626312513815621e-01 +6.9298837040340135e+00 +4.4503652376409129e+00 -9.8806584703419702e+01 +4.5461903616076625e+03 +4.5717037318346440e+05 -3.6278460712252557e+07 
-2.3499999999999996e+00 -5.2627810153749977e-01 +6.9306734268344377e+00 +4.4337470442169353e+00 -9.9715753223174517e+01 +4.5730778991125571e+03 +4.6453937971146998e+05 -3.6459565869106635e+07 
-2.3999999999999995e+00 -5.2629337994569358e-01 +6.9314793337676139e+00 +4.4166022577757111e+00 -1.0063979990897161e+02 +4.6060136631911291e+03 +4.7199525091510633e+05 -3.6678280262475483e+07 
-2.4499999999999993e+00 -5.2630895835658298e-01 +6.9323012424797916e+00 +4.3989348628835696e+00 -1.0157729944418995e+02 +4.6449301884797105e+03 +4.7952860424247012e+05 -3.6934093134727366e+07 
-2.4999999999999991e+00 -5.2632483476401559e-01 +6.9331389706236806e+00 +4.3807488434333308e+00 -1.0252682675273292e+02 +4.6897600254116060e+03 +4.8713005906110845e+05 -3.7226493831268564e+07 
-2.5499999999999989e+00 -5.2634100716186449e-01 +6.9339923358495694e+00 +4.3620481858076907e+00 -1.0348695665637597e+02 +4.7404356570936134e+03 +4.9479023394709104e+05 -3.7554971237740137e+07 
-2.5999999999999988e+00 -5.2635747354399398e-01 +6.9348611558081030e+00 +4.3428368730761591e+00 -1.0445626397295118e+02 +4.7968896569695835e+03 +5.0249974740369222e+05 -3.7919014854072899e+07 
-2.6499999999999986e+00 -5.2637423190430233e-01 +6.9357452481517976e+00 +4.3231188930329569e+00 -1.0543332358091190e+02 +4.8590544672895103e+03 +5.1024921842439281e+05 -3.8318113279150300e+07 
-2.6999999999999984e+00 -5.2639128023666515e-01 +6.9366444305341357e+00 +4.3028982279382584e+00 -1.0641671037801673e+02 +4.9268626785622091e+03 +5.1802926611296454e+05 -3.8751756109694034e+07 
-2.7499999999999982e+00 -5.2640861653497451e-01 +6.9375585206047230e+00 +4.2821788610117117e+00 -1.0740499910132651e+02 +5.0002468583268455e+03 +5.2583050829562277e+05 -3.9219432796776071e+07 
-2.7999999999999980e+00 -5.2642623879313910e-01 +6.9384873360191239e+00 +4.2609647775356372e+00 -1.0839676471123133e+02 +5.0791395104427866e+03 +5.3364356458701775e+05 -3.9720632329335310e+07 
-2.8499999999999979e+00 -5.2644414500507242e-01 +6.9394306944318496e+00 +4.2392599619208973e+00 -1.0939058210558062e+02 +5.1634731663033326e+03 +5.4145905405367538e+05 -4.0254843899290420e+07 
-2.8999999999999977e+00 -5.2646233316468760e-01 +6.9403884134959286e+00 +4.2170683972848941e+00 -1.1038502611752817e+02 +5.2531803878216424e+03 +5.4926759525292309e+05 -4.0821556886400126e+07 
-2.9499999999999975e+00 -5.2648080126590913e-01 +6.9413603108684248e+00 +4.1943940671971260e+00 -1.1137867172378469e+02 +5.3481937246650359e+03 +5.5705980786628311e+05 -4.1420260586729251e+07 
-2.9999999999999973e+00 -5.2649954730266924e-01 +6.9423462042005362e+00 +4.1712409554579537e+00 -1.1237009365255997e+02 +5.4484457189916238e+03 +5.6482630954664887e+05 -4.2050444240430333e+07 
-3.0499999999999972e+00 -5.2651856926890395e-01 +6.9433459111524147e+00 +4.1476130450028288e+00 -1.1335786697863006e+02 +5.5538689341530753e+03 +5.7255772074305872e+05 -4.2711597220187314e+07 
-3.0999999999999970e+00 -5.2653786515854772e-01 +6.9443592493783930e+00 +4.1235143178384659e+00 -1.1434056653231005e+02 +5.6643959540801052e+03 +5.8024465990898525e+05 -4.3403209022928260e+07 
-3.1499999999999968e+00 -5.2655743296555335e-01 +6.9453860365365943e+00 +4.0989487573150871e+00 -1.1531676727837872e+02 +5.7799593301974728e+03 +5.8787774654894357e+05 -4.4124768937571116e+07 
-3.1999999999999966e+00 -5.2657727068386251e-01 +6.9464260902829000e+00 +4.0739203442622296e+00 -1.1628504407661241e+02 +5.9004916752355912e+03 +5.9544759928701934e+05 -4.4875766642281912e+07 
-3.2499999999999964e+00 -5.2659737630745285e-01 +6.9474792282764088e+00 +4.0484330644961979e+00 -1.1724397191203033e+02 +6.0259254664611180e+03 +6.0294483777733240e+05 -4.5655690894196972e+07 
-3.2999999999999963e+00 -5.2661774783026516e-01 +6.9485452681745254e+00 +4.0224908960867314e+00 -1.1819212567587229e+02 +6.1561933905624119e+03 +6.1036008083856490e+05 -4.6464031867288701e+07 
-3.3499999999999961e+00 -5.2663838324627754e-01 +6.9496240276346688e+00 +3.9960978229766302e+00 -1.1912808025731374e+02 +6.2912279707488879e+03 +6.1768394729107886e+05 -4.7300278611001827e+07 
-3.3999999999999959e+00 -5.2665928054945244e-01 +6.9507153243185149e+00 +3.9692578250893447e+00 -1.2005041070019411e+02 +6.4309618375628397e+03 +6.2490705717243860e+05 -4.8163920893749431e+07 
-3.4499999999999957e+00 -5.2668043773376505e-01 +6.9518189758844109e+00 +3.9419748839514770e+00 -1.2095769190093131e+02 +6.5753275752597956e+03 +6.3202002929009520e+05 -4.9054448161821663e+07 
-3.4999999999999956e+00 -5.2670185279319826e-01 +6.9529347999922271e+00 +3.9142529810725595e+00 -1.2184849880149859e+02 +6.7242577687926669e+03 +6.3901348278252862e+05 -4.9971349862494744e+07 
-3.5499999999999954e+00 -5.2672352372172282e-01 +6.9540626143019528e+00 +3.8860960952890391e+00 -1.2272140634685438e+02 +6.8776850691698492e+03 +6.4587803683164308e+05 -5.0914115867282532e+07 
-3.5999999999999952e+00 -5.2674544851332916e-01 +6.9552022364732640e+00 +3.8575082081523653e+00 -1.2357498943776234e+02 +7.0355420533941096e+03 +6.5260431015213218e+05 -5.1882235544940248e+07 
-3.6499999999999950e+00 -5.2676762516200371e-01 +6.9563534841703456e+00 +3.8284932993998066e+00 -1.2440782316477275e+02 +7.1977613441136546e+03 +6.5918292306083918e+05 -5.2875198557244591e+07 
-3.6999999999999948e+00 -5.2679005166172588e-01 +6.9575161750521435e+00 +3.7990553467009041e+00 -1.2521848237825249e+02 +7.3642756198727575e+03 +6.6560449381442892e+05 -5.3892494943084501e+07 
-3.7499999999999947e+00 -5.2681272600650375e-01 +6.9586901267809340e+00 +3.7691983326119614e+00 -1.2600554206086673e+02 +7.5350174206802203e+03 +6.7185964176367281e+05 -5.4933613783048317e+07 
-3.7999999999999945e+00 -5.2683564619031287e-01 +6.9598751570199928e+00 +3.7389262327347690e+00 -1.2676757721764010e+02 +7.7099194725640555e+03 +6.7793898638492066e+05 -5.5998045401209511e+07 
-3.8499999999999943e+00 -5.2685881020715530e-01 +6.9610710834296681e+00 +3.7082430268013389e+00 -1.2750316272135900e+02 +7.8889143890224213e+03 +6.8383314603558148e+05 -5.7085279360019192e+07 
-3.8999999999999941e+00 -5.2688221605102903e-01 +6.9622777236751210e+00 +3.6771526933781047e+00 -1.2821087363672882e+02 +8.0719348095264750e+03 +6.8953274064538779e+05 -5.8194805374665603e+07 
-3.9499999999999940e+00 -5.2690586171592280e-01 +6.9634948954193518e+00 +3.6456592085360122e+00 -1.2888928491253273e+02 +8.2589134414918735e+03 +6.9502838909365295e+05 -5.9326113621295832e+07 
-3.9999999999999938e+00 -5.2692974519584290e-01 +6.9647224163246158e+00 +3.6137665515753135e+00 -1.2953697147315890e+02 +8.4497828956114663e+03 +7.0031071012420685e+05 -6.0478693583400153e+07 
-4.0499999999999936e+00 -5.2695386442802272e-01 +6.9659601074681285e+00 +3.5814818916885214e+00 -1.3015272326731679e+02 +8.6444150469593878e+03 +7.0537168077698501e+05 -6.1651697937796660e+07 
-4.0999999999999934e+00 -5.2697821712329851e-01 +6.9672077989410566e+00 +3.5488251535683029e+00 -1.3073621919246935e+02 +8.8424462510907124e+03 +7.1020892387003440e+05 -6.2842976295262851e+07 
-4.1499999999999932e+00 -5.2700280093604468e-01 +6.9684653219453780e+00 +3.5158194554738502e+00 -1.3128736895141671e+02 +9.0434562080648084e+03 +7.1482152763804223e+05 -6.4050066093591996e+07 
-4.1999999999999931e+00 -5.2702761352068062e-01 +6.9697325076826040e+00 +3.4824879243927738e+00 -1.3180608222697776e+02 +9.2470243716326058e+03 +7.1920858005930716e+05 -6.5270503053521395e+07 
-4.2499999999999929e+00 -5.2705265253159561e-01 +6.9710091873553006e+00 +3.4488536810291364e+00 -1.3229226875441290e+02 +9.4527303717146769e+03 +7.2336916957675817e+05 -6.6501824111657478e+07 
-4.2999999999999927e+00 -5.2707791562320483e-01 +6.9722951921587928e+00 +3.4149398504928472e+00 -1.3274583797103313e+02 +9.6601537183691216e+03 +7.2730238218017796e+05 -6.7741565388253674e+07 
-4.3499999999999925e+00 -5.2710340044989323e-01 +6.9735903532932619e+00 +3.3807695531432520e+00 -1.3316669951714985e+02 +9.8688740405580884e+03 +7.3100730553460447e+05 -6.8987263769778371e+07 
-4.3999999999999924e+00 -5.2712910466607665e-01 +6.9748945019537665e+00 +3.3463659135905059e+00 -1.3355476282097757e+02 +1.0078470862297789e+04 +7.3448302555748634e+05 -7.0236455468202591e+07 
-4.4499999999999922e+00 -5.2715502592614449e-01 +6.9762074693369582e+00 +3.3117520524864283e+00 -1.3390993738442063e+02 +1.0288523803127440e+04 +7.3772862879002234e+05 -7.1486677294147760e+07 
-4.4999999999999920e+00 -5.2718116188450204e-01 +6.9775290866356352e+00 +3.2769510933754673e+00 -1.3423213255383470e+02 +1.0498612409123538e+04 +7.4074320049620385e+05 -7.2735465583672538e+07 
-4.5499999999999918e+00 -5.2720751019554968e-01 +6.9788591850422357e+00 +3.2419861581613456e+00 -1.3452125766544430e+02 +1.0708316267433622e+04 +7.4352582586977433e+05 -7.3980356925906807e+07 
-4.5999999999999917e+00 -5.2723406851368781e-01 +6.9801975957470557e+00 +3.2068803696178736e+00 -1.3477722197063406e+02 +1.0917214940661364e+04 +7.4607558940593852e+05 -7.5218887747645810e+07 
-4.6499999999999915e+00 -5.2726083449331185e-01 +6.9815441499395368e+00 +3.1716568495904962e+00 -1.3499993469648538e+02 +1.1124888011925676e+04 +7.4839157542633382e+05 -7.6448594588207766e+07 
-4.6999999999999913e+00 -5.2728780578881973e-01 +6.9828986788061851e+00 +3.1363387198726418e+00 -1.3518930494590467e+02 +1.1330915072182852e+04 +7.5047286720724369e+05 -7.7667014064920068e+07 
-4.7499999999999911e+00 -5.2731498005460009e-01 +6.9842610135339092e+00 +3.1009491016951598e+00 -1.3534524185200883e+02 +1.1534875718663749e+04 +7.5231854831102351e+05 -7.8871682800757244e+07 
-4.7999999999999909e+00 -5.2734235494504844e-01 +6.9856309853056242e+00 +3.0655111170561571e+00 -1.3546765439234301e+02 +1.1736349529703748e+04 +7.5392770103276253e+05 -8.0060137294176251e+07 
-4.8499999999999908e+00 -5.2736992811455741e-01 +6.9870084253037978e+00 +3.0300478883128519e+00 -1.3555645152329893e+02 +1.1934916070199499e+04 +7.5529940746952908e+05 -8.1229913938199714e+07 
-4.8999999999999906e+00 -5.2739769721751772e-01 +6.9883931647111837e+00 +2.9945825372263890e+00 -1.3561154223646065e+02 +1.2130154923883545e+04 +7.5643275007436052e+05 -8.2378549259799734e+07 
-4.9499999999999904e+00 -5.2742565990830415e-01 +6.9897850347026003e+00 +2.9591381834368660e+00 -1.3563283518820376e+02 +1.2321645725728516e+04 +7.5732680849368195e+05 -8.3503580106347352e+07 
-4.9999999999999902e+00 -5.2745381384131029e-01 +6.9911838664566934e+00 +2.9237379504313363e+00 -1.3562023921356285e+02 +1.2508968007865702e+04 +7.5798066389133385e+05 -8.4602542634344667e+07 
-5.0499999999999901e+00 -5.2748215667090403e-01 +6.9925894911470712e+00 +2.8884049571580355e+00 -1.3557366294654597e+02 +1.2691701423297362e+04 +7.5839339579147275e+05 -8.5672973803995311e+07 
