# multipoles
# s[mm] polynom_b[n=0][T/m^n] polynom_b[n=1][T/m^n] polynom_b[n=2][T/m^n] polynom_b[n=3][T/m^n] polynom_b[n=4][T/m^n] polynom_b[n=5][T/m^n] polynom_b[n=6][T/m^n] 
+0.0000000000000000e+00 -5.5068172913539704e-01 +7.1863354574064120e+00 +6.1997819321253704e+00 -7.6876621081782616e+01 -1.3332639581198700e+04 +1.0936788344156304e+05 +8.7154030729591385e+07 
-5.0000000000000003e-02 -5.5068250580382849e-01 +7.1863215540147758e+00 +6.1984601487849407e+00 -7.6723545854662120e+01 -1.3310566931605879e+04 +1.0878732761726635e+05 +8.7060306017480806e+07 
-1.0000000000000001e-01 -5.5068368303254167e-01 +7.1863291375199365e+00 +6.1964180049170574e+00 -7.6552941542540168e+01 -1.3285331283814310e+04 +1.0814033322113956e+05 +8.6953395641443253e+07 
-1.5000000000000002e-01 -5.5068526025526887e-01 +7.1863581600737509e+00 +6.1936713838665902e+00 -7.6365260355537785e+01 -1.3257169330540808e+04 +1.0742936830713549e+05 +8.6834522817215189e+07 
-2.0000000000000001e-01 -5.5068723690577281e-01 +7.1864085738310068e+00 +6.1902361709267542e+00 -7.6160954607678576e+01 -1.3226317819655435e+04 +1.0665690183820379e+05 +8.6704911144709095e+07 
-2.5000000000000000e-01 -5.5068961241783521e-01 +7.1864803309463348e+00 +6.1861282512972098e+00 -7.5940476565620003e+01 -1.3193013493164004e+04 +1.0582540234364617e+05 +8.6565784167878032e+07 
-2.9999999999999999e-01 -5.5069238622525440e-01 +7.1865733835729033e+00 +6.1813635100480164e+00 -7.5704278389141976e+01 -1.3157493093811474e+04 +1.0493733739620460e+05 +8.6418365452577665e+07 
-3.4999999999999998e-01 -5.5069555776183576e-01 +7.1866876838707592e+00 +6.1759578303476719e+00 -7.5452812504507193e+01 -1.3119993315019850e+04 +1.0399517682883311e+05 +8.6263878237196609e+07 
-3.9999999999999997e-01 -5.5069912646144248e-01 +7.1868231839940631e+00 +6.1699271019488577e+00 -7.5186531055339685e+01 -1.3080751022745912e+04 +1.0300138807952385e+05 +8.6103546904255465e+07 
-4.4999999999999996e-01 -5.5070309175789134e-01 +7.1869798361037667e+00 +6.1632872033502659e+00 -7.4905886431700083e+01 -1.3040002783173813e+04 +1.0195844061657587e+05 +8.5938593826668441e+07 
-4.9999999999999994e-01 -5.5070745308507385e-01 +7.1871575923566402e+00 +6.1560540233821914e+00 -7.4611330820687087e+01 -1.2997985443873235e+04 +1.0086880221730887e+05 +8.5770243284263298e+07 
-5.4999999999999993e-01 -5.5071220987687541e-01 +7.1873564049147749e+00 +6.1482434464106888e+00 -7.4303316596280069e+01 -1.2954935730934605e+04 +9.9734942184646468e+04 +8.5599718732885331e+07 
-5.9999999999999998e-01 -5.5071736156719497e-01 +7.1875762259384626e+00 +6.1398713555858428e+00 -7.3982296029446601e+01 -1.2911090335465497e+04 +9.8559328970036731e+04 +8.5428243383644640e+07 
-6.5000000000000002e-01 -5.5072290758997289e-01 +7.1878170075877117e+00 +6.1309536387548267e+00 -7.3648721351760202e+01 -1.2866686079143512e+04 +9.7344430702111407e+04 +8.5257041342313707e+07 
-7.0000000000000007e-01 -5.5072884737912930e-01 +7.1880787020251304e+00 +6.1215061766980510e+00 -7.3303044862586688e+01 -1.2821959590812619e+04 +9.6092716016604274e+04 +8.5087335402233064e+07 
-7.5000000000000011e-01 -5.5073518036863522e-01 +7.1883612614139878e+00 +6.1115448567062476e+00 -7.2945718865281307e+01 -1.2777147682392559e+04 +9.4806653603004452e+04 +8.4920349621790290e+07 
-8.0000000000000016e-01 -5.5074190599246864e-01 +7.1886646379180892e+00 +6.1010855632515035e+00 -7.2577195669159863e+01 -1.2732487079031886e+04 +9.3488712241792178e+04 +8.4757307429403633e+07 
-8.5000000000000020e-01 -5.5074902368461920e-01 +7.1889887836998767e+00 +6.0901441800050238e+00 -7.2197927473709484e+01 -1.2688214491245468e+04 +9.2141359699389825e+04 +8.4599432184519902e+07 
-9.0000000000000024e-01 -5.5075653287910631e-01 +7.1893336509247971e+00 +6.0787365932973678e+00 -7.1808366594357111e+01 -1.2644566702294655e+04 +9.0767064785184513e+04 +8.4447947736495659e+07 
-9.5000000000000029e-01 -5.5076443300995914e-01 +7.1896991917576685e+00 +6.0668786877995036e+00 -7.1408965289056027e+01 -1.2601780450644230e+04 +8.9368295794730439e+04 +8.4304077634084567e+07 
-1.0000000000000002e+00 -5.5077272351121076e-01 +7.1900853583628788e+00 +6.0545863455463564e+00 -7.1000175771294735e+01 -1.2560092399229177e+04 +8.7947520668130950e+04 +8.4169044895395666e+07 
-1.0500000000000003e+00 -5.5078140381694607e-01 +7.1904921029066333e+00 +6.0418754550429812e+00 -7.0582450300051704e+01 -1.2519739391981624e+04 +8.6507207702998072e+04 +8.4044073788684517e+07 
-1.1000000000000003e+00 -5.5079047336122888e-01 +7.1909193775555549e+00 +6.0287618978235811e+00 -7.0156241135210237e+01 -1.2480958080568909e+04 +8.5049825248671128e+04 +8.3930387263022393e+07 
-1.1500000000000004e+00 -5.5079993157817220e-01 +7.1913671344762102e+00 +6.0152615613927809e+00 -6.9722000499398732e+01 -1.2443985283672175e+04 +8.3577841299369058e+04 +8.3829209420095727e+07 
-1.2000000000000004e+00 -5.5080977790188312e-01 +7.1918353258345240e+00 +6.0013903286915156e+00 -6.9280180571715178e+01 -1.2409057689077261e+04 +8.2093723533166005e+04 +8.3741763445835650e+07 
-1.2500000000000004e+00 -5.5082001176648943e-01 +7.1923239037977371e+00 +5.9871640836617983e+00 -6.8831233561561177e+01 -1.2376412018225612e+04 +8.0599939876135628e+04 +8.3669272778977394e+07 
-1.3000000000000005e+00 -5.5083063260614828e-01 +7.1928328205337131e+00 +5.9725987124143884e+00 -6.8375611681341439e+01 -1.2346285046911011e+04 +7.9098958290326278e+04 +8.3612961206856936e+07 
-1.3500000000000005e+00 -5.5084163985503076e-01 +7.1933620282083259e+00 +5.9577101003394990e+00 -6.7913767033404454e+01 -1.2318913534988764e+04 +7.7593245817262694e+04 +8.3574052426084176e+07 
-1.4000000000000006e+00 -5.5085303294731769e-01 +7.1939114789893104e+00 +5.9425141321660622e+00 -6.7446151780610322e+01 -1.2294534225245816e+04 +7.6085270034211513e+04 +8.3553770015824527e+07 
-1.4500000000000006e+00 -5.5086481131720566e-01 +7.1944811250471217e+00 +5.9270266917967707e+00 -6.6973218182709630e+01 -1.2273383834297996e+04 +7.4577499345144781e+04 +8.3553337365561068e+07 
-1.5000000000000007e+00 -5.5087697439890504e-01 +7.1950709185462971e+00 +5.9112636627308390e+00 -6.6495418221779531e+01 -1.2255699068280534e+04 +7.3072399835587014e+04 +8.3573977795111358e+07 
-1.5500000000000007e+00 -5.5088952162666938e-01 +7.1956808116565121e+00 +5.8952409337270977e+00 -6.6013204081776820e+01 -1.2241716779957100e+04 +7.1572439303999781e+04 +8.3616915630872324e+07 
-1.6000000000000008e+00 -5.5090245243473701e-01 +7.1963107565447402e+00 +5.8789743874177560e+00 -6.5527027811324203e+01 -1.2231673652658224e+04 +7.0080084432004267e+04 +8.3683374039518148e+07 
-1.6500000000000008e+00 -5.5091576625737781e-01 +7.1969607053780509e+00 +5.8624799090773960e+00 -6.5037341442846667e+01 -1.2225806440394310e+04 +6.8597801783858333e+04 +8.3774576662323490e+07 
-1.7000000000000008e+00 -5.5092946252887032e-01 +7.1976306103241292e+00 +5.8457733829643495e+00 -6.4544597022807025e+01 -1.2224351872788209e+04 +6.7128058081758762e+04 +8.3891746987632111e+07 
-1.7500000000000009e+00 -5.5094354068352180e-01 +7.1983204235532705e+00 +5.8288706958733876e+00 -6.4049246680481261e+01 -1.2227546748289767e+04 +6.5673320733231041e+04 +8.4036108965496317e+07 
-1.8000000000000009e+00 -5.5095800015564711e-01 +7.1990300972302608e+00 +5.8117877321155920e+00 -6.3551742305705503e+01 -1.2235627794620761e+04 +6.4236055203567616e+04 +8.4208886061951011e+07 
-1.8500000000000010e+00 -5.5097284037957184e-01 +7.1997595835217902e+00 +5.7945403755328524e+00 -6.3052535846868309e+01 -1.2248831726505803e+04 +6.2818727451597479e+04 +8.4411301646699935e+07 
-1.9000000000000010e+00 -5.5098806078965723e-01 +7.2005088345948360e+00 +5.7771445138334379e+00 -6.2552079256252213e+01 -1.2267395368123654e+04 +6.1423803529645629e+04 +8.4644579850863710e+07 
-1.9500000000000011e+00 -5.5100366082025876e-01 +7.2012778026179829e+00 +5.7596160304489619e+00 -6.2050824520578367e+01 -1.2291555422885940e+04 +6.0053749732199089e+04 +8.4909943967187777e+07 
-2.0000000000000009e+00 -5.5101963990576042e-01 +7.2020664397565666e+00 +5.7419708113510932e+00 -6.1549223496010086e+01 -1.2321548666237513e+04 +5.8711031391229968e+04 +8.5208617791237295e+07 
-2.0500000000000007e+00 -5.5103599718764740e-01 +7.2028746830401573e+00 +5.7242211517034072e+00 -6.1047631530013199e+01 -1.2357532959945573e+04 +5.7397306184252935e+04 +8.5541371018609211e+07 
-2.1000000000000005e+00 -5.5105273063547222e-01 +7.2037024023022482e+00 +5.7063653498716258e+00 -6.0546019311390317e+01 -1.2399351450868828e+04 +5.6110930844098031e+04 +8.5907167288410112e+07 
-2.1500000000000004e+00 -5.5106983792569531e-01 +7.2045494489180735e+00 +5.6883982984295418e+00 -6.0044262422353775e+01 -1.2446768581478798e+04 +5.4849419661262691e+04 +8.6304519646964163e+07 
-2.2000000000000002e+00 -5.5108731673481570e-01 +7.2054156742612685e+00 +5.6703148938714687e+00 -5.9542236368358822e+01 -1.2499548896351165e+04 +5.3610286293010606e+04 +8.6731941822597221e+07 
-2.2500000000000000e+00 -5.5110516473934901e-01 +7.2063009297051464e+00 +5.6521100340141697e+00 -5.9039816630567600e+01 -1.2557456979784019e+04 +5.2391044218900090e+04 +8.7187947824273288e+07 
-2.2999999999999998e+00 -5.5112337961581170e-01 +7.2072050666257921e+00 +5.6337786139484338e+00 -5.8536878789091446e+01 -1.2620257340658669e+04 +5.1189207746003434e+04 +8.7671051149979159e+07 
-2.3499999999999996e+00 -5.5114195904073360e-01 +7.2081279363977222e+00 +5.6153155293854597e+00 -5.8033298343250678e+01 -1.2687714505517582e+04 +5.0002290512613647e+04 +8.8179765417152733e+07 
-2.3999999999999995e+00 -5.5116090069065715e-01 +7.2090693903965466e+00 +5.5967156756722192e+00 -5.7528950843661079e+01 -1.2759592989604023e+04 +4.8827806669260717e+04 +8.8712604165384069e+07 
-2.4499999999999993e+00 -5.5118020224214426e-01 +7.2100292799963217e+00 +5.5779739495138232e+00 -5.7023711734137891e+01 -1.2835657343886940e+04 +4.7663269378464887e+04 +8.9268081171442017e+07 
-2.4999999999999991e+00 -5.5119986137175203e-01 +7.2110074565755697e+00 +5.5590852446651784e+00 -5.6517456666182184e+01 -1.2915672041507616e+04 +4.6506193669572443e+04 +8.9844709695544749e+07 
-2.5499999999999989e+00 -5.5121987575607112e-01 +7.2120037715097647e+00 +5.5400444588264417e+00 -5.6010061130914728e+01 -1.2999401660791231e+04 +4.5354093163582053e+04 +9.0441003702739805e+07 
-2.5999999999999988e+00 -5.5124024307168351e-01 +7.2130180761756195e+00 +5.5208464858170112e+00 -5.5501400674792244e+01 -1.3086610674437161e+04 +4.4204482026796402e+04 +9.1055476445125759e+07 
-2.6499999999999986e+00 -5.5126096099519728e-01 +7.2140502219503047e+00 +5.5014862224580439e+00 -5.4991350846356340e+01 -1.3177063639270675e+04 +4.3054874415565042e+04 +9.1686641754885226e+07 
-2.6999999999999984e+00 -5.5128202720322639e-01 +7.2151000602127686e+00 +5.4819585642544233e+00 -5.4479787257716744e+01 -1.3270525073209788e+04 +4.1902785035595691e+04 +9.2333013190736040e+07 
-2.7499999999999982e+00 -5.5130343937239756e-01 +7.2161674423390920e+00 +5.4622584067292399e+00 -5.3966585409707001e+01 -1.3366759490811935e+04 +4.0745727750310747e+04 +9.2993104275388807e+07 
-2.7999999999999980e+00 -5.5132519517934897e-01 +7.2172522197091826e+00 +5.4423806464041027e+00 -5.3451620933582035e+01 -1.3465531442809011e+04 +3.9581217441938657e+04 +9.3665428812517092e+07 
-2.8499999999999979e+00 -5.5134729230071367e-01 +7.2183542437013948e+00 +5.4223201761462336e+00 -5.2934769401850765e+01 -1.3566605371417018e+04 +3.8406768578633477e+04 +9.4348499835669622e+07 
-2.8999999999999977e+00 -5.5136972841314658e-01 +7.2194733656960643e+00 +5.4020718912233940e+00 -5.2415906454721259e+01 -1.3669745790550955e+04 +3.7219896173724046e+04 +9.5040830895186275e+07 
-2.9499999999999975e+00 -5.5139250119332806e-01 +7.2206094370720164e+00 +5.3816306896126394e+00 -5.1894907675665841e+01 -1.3774717281814730e+04 +3.6018114847138335e+04 +9.5740935973881006e+07 
-2.9999999999999973e+00 -5.5141560831792324e-01 +7.2217623092097343e+00 +5.3609914646965455e+00 -5.1371648697730222e+01 -1.3881284306080983e+04 +3.4798939592002156e+04 +9.6447328258188963e+07 
-3.0499999999999972e+00 -5.5143904746361272e-01 +7.2229318334907227e+00 +5.3401491108853527e+00 -5.0846005202273076e+01 -1.3989211350059690e+04 +3.3559885869431033e+04 +9.7158521101600423e+07 
-3.0999999999999970e+00 -5.5146281630710225e-01 +7.2241178612953183e+00 +5.3190985252675915e+00 -5.0317852805078473e+01 -1.4098262969894451e+04 +3.2298468568852546e+04 +9.7873028317479119e+07 
-3.1499999999999968e+00 -5.5148691252508697e-01 +7.2253202440042168e+00 +5.2978346013594466e+00 -4.9787067148992193e+01 -1.4208203628935808e+04 +3.1012202890229397e+04 +9.8589363111543879e+07 
-3.1999999999999966e+00 -5.5151133379427986e-01 +7.2265388330019125e+00 +5.2763522342194111e+00 -4.9253524023299228e+01 -1.4318797829313162e+04 +2.9698605243357393e+04 +9.9306038940253511e+07 
-3.2499999999999964e+00 -5.5153607779139935e-01 +7.2277734796678859e+00 +5.2546463183542951e+00 -4.8717098998176844e+01 -1.4429810058377367e+04 +2.8355190208164298e+04 +1.0002156916212344e+08 
-3.2999999999999963e+00 -5.5156114219318553e-01 +7.2290240353883357e+00 +5.2327117505825536e+00 -4.8177667933451843e+01 -1.4541004867034486e+04 +2.6979474841820553e+04 +1.0073446757461007e+08 
-3.3499999999999961e+00 -5.5158652467636049e-01 +7.2302903515457002e+00 +5.2105434228972021e+00 -4.7635106524333040e+01 -1.4652146673804591e+04 +2.5568974841202435e+04 +1.0144324707400216e+08 
-3.3999999999999959e+00 -5.5161222291767686e-01 +7.2315722795218553e+00 +5.1881362308113976e+00 -4.7089290440741003e+01 -1.4762999989225846e+04 +2.4121205711005157e+04 +1.0214642116960096e+08 
-3.4499999999999957e+00 -5.5163823459389227e-01 +7.2328696707038942e+00 +5.1654850700730313e+00 -4.6540095567639710e+01 -1.4873329335904060e+04 +2.2633684762661182e+04 +1.0284250347629902e+08 
-3.4999999999999956e+00 -5.5166455738176257e-01 +7.2341823764750401e+00 +5.1425848340014531e+00 -4.5987397636357159e+01 -1.4982899164164992e+04 +2.1103928091636662e+04 +1.0353000709738885e+08 
-3.5499999999999954e+00 -5.5169118895806069e-01 +7.2355102482238545e+00 +5.1194304177506256e+00 -4.5431072593344823e+01 -1.5091473976647407e+04 +1.9529453567021334e+04 +1.0420744550574934e+08 
-3.5999999999999952e+00 -5.5171812699954570e-01 +7.2368531373320799e+00 +5.0960167129523413e+00 -4.4870996102219642e+01 -1.5198818181017399e+04 +1.7907776744074177e+04 +1.0487333153212866e+08 
-3.6499999999999950e+00 -5.5174536918301520e-01 +7.2382108951891162e+00 +5.0723386162669231e+00 -4.4307044155651312e+01 -1.5304696317066155e+04 +1.6236415973967831e+04 +1.0552617889195669e+08 
-3.6999999999999948e+00 -5.5177291318526145e-01 +7.2395833731822661e+00 +5.0483910223330613e+00 -4.3739092636421304e+01 -1.5408872871602218e+04 +1.4512888618656129e+04 +1.0616450095140304e+08 
-3.7499999999999947e+00 -5.5180075668306661e-01 +7.2409704226979246e+00 +5.0241688229623369e+00 -4.3167017421888907e+01 -1.5511112254786874e+04 +1.2734712151478758e+04 +1.0678681055963388e+08 
-3.7999999999999945e+00 -5.5182889735323903e-01 +7.2423718951235827e+00 +4.9996669127392481e+00 -4.2590694424837515e+01 -1.5611178946775402e+04 +1.0899404306555254e+04 +1.0739162102452157e+08 
-3.8499999999999943e+00 -5.5185733287259375e-01 +7.2437876418486180e+00 +4.9748801874289921e+00 -4.2009999628766700e+01 -1.5708837469484770e+04 +9.0044833933583686e+03 +1.0797744597672340e+08 
-3.8999999999999941e+00 -5.5188606091792658e-01 +7.2452175142632420e+00 +4.9498035366636612e+00 -4.1424809075491488e+01 -1.5803852163444924e+04 +7.0474683125768379e+03 +1.0854279776514593e+08 
-3.9499999999999940e+00 -5.5191507916607108e-01 +7.2466613637570330e+00 +4.9244318571692061e+00 -4.0834998769543745e+01 -1.5895987573759219e+04 +5.0258776213672036e+03 +1.0908619017221053e+08 
-3.9999999999999938e+00 -5.5194438529385037e-01 +7.2481190417198089e+00 +4.8987600417650352e+00 -4.0240444740490545e+01 -1.5985008131126773e+04 +2.9372301733692620e+03 +1.0960613618111226e+08 
-4.0499999999999936e+00 -5.5197397685598215e-01 +7.2495903921663363e+00 +4.8727838617036321e+00 -3.9641147791875397e+01 -1.6070711310341381e+04 +7.8033782533492081e+02 +1.1010140340522557e+08 
-4.0999999999999934e+00 -5.5200385091942550e-01 +7.2510752219313428e+00 +4.8465031798677174e+00 -3.9037552632179725e+01 -1.6153024447001542e+04 -1.4413091790549704e+03 +1.1057174038728710e+08 
-4.1499999999999932e+00 -5.5203400442941009e-01 +7.2525733266518024e+00 +4.8199190593395702e+00 -3.8430204288211968e+01 -1.6231907140377596e+04 -3.7231601126353066e+03 +1.1101713448301874e+08 
-4.1999999999999931e+00 -5.5206443433114949e-01 +7.2540845019636278e+00 +4.7930325602636046e+00 -3.7819647741707662e+01 -1.6307318910670137e+04 -6.0606647779365612e+03 +1.1143757252302617e+08 
-4.2499999999999929e+00 -5.5209513756986961e-01 +7.2556085435007995e+00 +4.7658447443820320e+00 -3.7206427902695509e+01 -1.6379219318086387e+04 -8.4492735689701040e+03 +1.1183304159564537e+08 
-4.2999999999999927e+00 -5.5212611109079679e-01 +7.2571452469020947e+00 +4.7383566731530395e+00 -3.6591089885233714e+01 -1.6447567915868294e+04 -1.0884435204091402e+04 +1.1220352874700712e+08 
-4.3499999999999925e+00 -5.5215735183915426e-01 +7.2586944078010642e+00 +4.7105694080239360e+00 -3.5974178572358227e+01 -1.6512324258694662e+04 -1.3361600415986637e+04 +1.1254902103212883e+08 
-4.3999999999999924e+00 -5.5218885676017260e-01 +7.2602558218401869e+00 +4.6824840106306373e+00 -3.5356239226809066e+01 -1.6573447899267154e+04 -1.5876216787689713e+04 +1.1286950546896234e+08 
-4.4499999999999922e+00 -5.5222062279907258e-01 +7.2618292846535493e+00 +4.6541015414500979e+00 -3.4737816766045846e+01 -1.6630898362371681e+04 -1.8423734803938110e+04 +1.1316496889547402e+08 
-4.4999999999999920e+00 -5.5225264690109233e-01 +7.2634145918806459e+00 +4.6254230641932148e+00 -3.4119456328828534e+01 -1.6684635263093416e+04 -2.0999603173415995e+04 +1.1343539877152829e+08 
-4.5499999999999918e+00 -5.5228492601145340e-01 +7.2650115391587873e+00 +4.5964496390229383e+00 -3.3501702972128307e+01 -1.6734618112740311e+04 -2.3599271287240237e+04 +1.1368078182276282e+08 
-4.5999999999999917e+00 -5.5231745707539315e-01 +7.2666199221282453e+00 +4.5671823294657337e+00 -3.2885101871276092e+01 -1.6780806517668487e+04 -2.6218187641759640e+04 +1.1390110543219025e+08 
-4.6499999999999915e+00 -5.5235023703814035e-01 +7.2682395364277070e+00 +4.5376221973699016e+00 -3.2270198147078240e+01 -1.6823160034373814e+04 -2.8851801188830214e+04 +1.1409635662621462e+08 
-4.6999999999999913e+00 -5.5238326284491135e-01 +7.2698701776973254e+00 +4.5077703028925695e+00 -3.1657536974059880e+01 -1.6861638176230823e+04 -3.1495560517084548e+04 +1.1426652214627731e+08 
-4.7499999999999911e+00 -5.5241653144095570e-01 +7.2715116415780772e+00 +4.4776277122165800e+00 -3.1047663573247497e+01 -1.6896200619207084e+04 -3.4144913849791330e+04 +1.1441158983596040e+08 
-4.7999999999999909e+00 -5.5245003977148299e-01 +7.2731637237080040e+00 +4.4471954846379012e+00 -3.0441123037610730e+01 -1.6926806849009081e+04 -3.6795310554036980e+04 +1.1453154622742577e+08 
-4.8499999999999908e+00 -5.5248378478172944e-01 +7.2748262197315112e+00 +4.4164746848734371e+00 -2.9838460738867738e+01 -1.6953416501049211e+04 -3.9442197697099356e+04 +1.1462637887927498e+08 
-4.8999999999999906e+00 -5.5251776341692216e-01 +7.2764989252877079e+00 +4.3854663757311156e+00 -2.9240221830758131e+01 -1.6975989152000267e+04 -4.2081024217115330e+04 +1.1469607492325820e+08 
-4.9499999999999904e+00 -5.5255197262227873e-01 +7.2781816360186502e+00 +4.3541716193149966e+00 -2.8646951588374385e+01 -1.6994484364655018e+04 -4.4707238117340115e+04 +1.1474062141565450e+08 
-4.9999999999999902e+00 -5.5258640934301884e-01 +7.2798741475662254e+00 +4.3225914790734530e+00 -2.8059195288925768e+01 -1.7008861738578387e+04 -4.7316287424228613e+04 +1.1476000565815963e+08 
-5.0499999999999901e+00 -5.5262107052436404e-01 +7.2815762555747172e+00 +4.2907270183563186e+00 -2.7477498317789809e+01 -1.7019080861200917e+04 -4.9903619314882621e+04 +1.1475421483218588e+08 
