# field on trajectory
# s[mm] rx[mm] ry[mm] rz[mm] bx[T] by[T] bz[T]
0.0000000000000000e+00 +8.3650000000000002e+00 +0.0000000000000000e+00 +0.0000000000000000e+00 -3.0712321880456514e-02 -5.5088265714499496e-01 +5.4587698254007413e-03
-5.0000000000000003e-02 +8.3649999311190335e+00 +0.0000000000000000e+00 -4.9999999999936734e-02 -3.0712587506711193e-02 -5.5088394450321665e-01 +5.4615072269318700e-03
-1.0000000000000001e-01 +8.3649997244759025e+00 +0.0000000000000000e+00 -9.9999999999493910e-02 -3.0712883900601208e-02 -5.5088564476624347e-01 +5.4642453246839069e-03
-1.5000000000000002e-01 +8.3649993800701807e+00 +0.0000000000000000e+00 -1.4999999999829194e-01 -3.0713210904715571e-02 -5.5088775690561298e-01 +5.4669838749961154e-03
-2.0000000000000001e-01 +8.3649988979013408e+00 +0.0000000000000000e+00 -1.9999999999595125e-01 -3.0713568361644905e-02 -5.5089027989288275e-01 +5.4697226342078119e-03
-2.5000000000000000e-01 +8.3649982779687502e+00 +0.0000000000000000e+00 -2.4999999999209227e-01 -3.0713956113981280e-02 -5.5089321269962888e-01 +5.4724613586582998e-03
-2.9999999999999999e-01 +8.3649975202716771e+00 +0.0000000000000000e+00 -2.9999999998633542e-01 -3.0714374004318291e-02 -5.5089655429744799e-01 +5.4751998046868866e-03
-3.4999999999999998e-01 +8.3649966248092849e+00 +0.0000000000000000e+00 -3.4999999997830106e-01 -3.0714821875250969e-02 -5.5090030365795462e-01 +5.4779377286328290e-03
-3.9999999999999997e-01 +8.3649955915806373e+00 +0.0000000000000000e+00 -3.9999999996760965e-01 -3.0715299569375673e-02 -5.5090445975278235e-01 +5.4806748868353114e-03
-4.4999999999999996e-01 +8.3649944205846936e+00 +0.0000000000000000e+00 -4.4999999995388151e-01 -3.0715806929290136e-02 -5.5090902155358468e-01 +5.4834110356334230e-03
-4.9999999999999994e-01 +8.3649931118203149e+00 +0.0000000000000000e+00 -4.9999999993673705e-01 -3.0716343797593373e-02 -5.5091398803203340e-01 +5.4861459313661279e-03
-5.4999999999999993e-01 +8.3649916652862579e+00 +0.0000000000000000e+00 -5.4999999991579662e-01 -3.0716910016885614e-02 -5.5091935815981896e-01 +5.4888793303722429e-03
-5.9999999999999998e-01 +8.3649900809811797e+00 +0.0000000000000000e+00 -5.9999999989068054e-01 -3.0717505429768317e-02 -5.5092513090865147e-01 +5.4916109889904018e-03
-6.5000000000000002e-01 +8.3649883589036360e+00 +0.0000000000000000e+00 -6.4999999986100920e-01 -3.0718129878844078e-02 -5.5093130525025846e-01 +5.4943406635590370e-03
-7.0000000000000007e-01 +8.3649864990520850e+00 +0.0000000000000000e+00 -6.9999999982640293e-01 -3.0718783206716584e-02 -5.5093788015638745e-01 +5.4970681104163557e-03
-7.5000000000000011e-01 +8.3649845014248800e+00 +0.0000000000000000e+00 -7.4999999978648202e-01 -3.0719465255990591e-02 -5.5094485459880338e-01 +5.4997930859002923e-03
-8.0000000000000016e-01 +8.3649823660202784e+00 +0.0000000000000000e+00 -7.9999999974086666e-01 -3.0720175869271876e-02 -5.5095222754929063e-01 +5.5025153463485084e-03
-8.5000000000000020e-01 +8.3649800928364364e+00 +0.0000000000000000e+00 -8.4999999968917717e-01 -3.0720914889167134e-02 -5.5095999797965112e-01 +5.5052346480983444e-03
-9.0000000000000024e-01 +8.3649776818714106e+00 +0.0000000000000000e+00 -8.9999999963103383e-01 -3.0721682158284049e-02 -5.5096816486170574e-01 +5.5079507474868113e-03
-9.5000000000000029e-01 +8.3649751331231599e+00 +0.0000000000000000e+00 -9.4999999956605685e-01 -3.0722477519231111e-02 -5.5097672716729396e-01 +5.5106634008505488e-03
-1.0000000000000002e+00 +8.3649724465895403e+00 +0.0000000000000000e+00 -9.9999999949386642e-01 -3.0723300814617670e-02 -5.5098568386827262e-01 +5.5133723645258027e-03
-1.0500000000000003e+00 +8.3649696222683136e+00 +0.0000000000000000e+00 -1.0499999994140827e+00 -3.0724151887053849e-02 -5.5099503393651739e-01 +5.5160773948484025e-03
-1.1000000000000003e+00 +8.3649666601571422e+00 +0.0000000000000000e+00 -1.0999999993263259e+00 -3.0725030579150502e-02 -5.5100477634392198e-01 +5.5187782481537322e-03
-1.1500000000000004e+00 +8.3649635602535888e+00 +0.0000000000000000e+00 -1.1499999992302161e+00 -3.0725936733519178e-02 -5.5101491006239722e-01 +5.5214746807766982e-03
-1.2000000000000004e+00 +8.3649603225551203e+00 +0.0000000000000000e+00 -1.1999999991253734e+00 -3.0726870192772055e-02 -5.5102543406387328e-01 +5.5241664490517104e-03
-1.2500000000000004e+00 +8.3649569470591043e+00 +0.0000000000000000e+00 -1.2499999990114179e+00 -3.0727830799521891e-02 -5.5103634732029727e-01 +5.5268533093126458e-03
-1.3000000000000005e+00 +8.3649534337628122e+00 +0.0000000000000000e+00 -1.2999999988879696e+00 -3.0728818396382050e-02 -5.5104764880363444e-01 +5.5295350178928395e-03
-1.3500000000000005e+00 +8.3649497826634178e+00 +0.0000000000000000e+00 -1.3499999987546485e+00 -3.0729832825966332e-02 -5.5105933748586777e-01 +5.5322113311250341e-03
-1.4000000000000006e+00 +8.3649459937579973e+00 +0.0000000000000000e+00 -1.3999999986110747e+00 -3.0730873930889038e-02 -5.5107141233899826e-01 +5.5348820053413685e-03
-1.4500000000000006e+00 +8.3649420670435326e+00 +0.0000000000000000e+00 -1.4499999984568681e+00 -3.0731941553764856e-02 -5.5108387233504330e-01 +5.5375467968733485e-03
-1.5000000000000007e+00 +8.3649380025169062e+00 +0.0000000000000000e+00 -1.4999999982916485e+00 -3.0733035537208853e-02 -5.5109671644603930e-01 +5.5402054620518199e-03
-1.5500000000000007e+00 +8.3649338001749065e+00 +0.0000000000000000e+00 -1.5499999981150359e+00 -3.0734155723836372e-02 -5.5110994364403920e-01 +5.5428577572069282e-03
-1.6000000000000008e+00 +8.3649294600142259e+00 +0.0000000000000000e+00 -1.5999999979266502e+00 -3.0735301956263093e-02 -5.5112355290111403e-01 +5.5455034386681246e-03
-1.6500000000000008e+00 +8.3649249820314608e+00 +0.0000000000000000e+00 -1.6499999977261111e+00 -3.0736474077104899e-02 -5.5113754318935149e-01 +5.5481422627641020e-03
-1.7000000000000008e+00 +8.3649203662231137e+00 +0.0000000000000000e+00 -1.6999999975130384e+00 -3.0737671928977795e-02 -5.5115191348085679e-01 +5.5507739858227882e-03
-1.7500000000000009e+00 +8.3649156125855910e+00 +0.0000000000000000e+00 -1.7499999972870519e+00 -3.0738895354498030e-02 -5.5116666274775283e-01 +5.5533983641713166e-03
-1.8000000000000009e+00 +8.3649107211152032e+00 +0.0000000000000000e+00 -1.7999999970477714e+00 -3.0740144196281818e-02 -5.5118178996217837e-01 +5.5560151541359957e-03
-1.8500000000000010e+00 +8.3649056918081683e+00 +0.0000000000000000e+00 -1.8499999967948162e+00 -3.0741418296945492e-02 -5.5119729409629059e-01 +5.5586241120422868e-03
-1.9000000000000010e+00 +8.3649005246606087e+00 +0.0000000000000000e+00 -1.8999999965278063e+00 -3.0742717499105367e-02 -5.5121317412226301e-01 +5.5612249942147748e-03
-1.9500000000000011e+00 +8.3648952196685542e+00 +0.0000000000000000e+00 -1.9499999962463610e+00 -3.0744041645377689e-02 -5.5122942901228655e-01 +5.5638175569771393e-03
-2.0000000000000009e+00 +8.3648897768279387e+00 +0.0000000000000000e+00 -1.9999999959501000e+00 -3.0745390578378617e-02 -5.5124605773856794e-01 +5.5664015566521292e-03
-2.0500000000000007e+00 +8.3648841961346037e+00 +0.0000000000000000e+00 -2.0499999956386428e+00 -3.0746764133317527e-02 -5.5126305907290163e-01 +5.5689767658977573e-03
-2.1000000000000005e+00 +8.3648784775842984e+00 +0.0000000000000000e+00 -2.0999999953116086e+00 -3.0748162115777460e-02 -5.5128043098537660e-01 +5.5715430227160365e-03
-2.1500000000000004e+00 +8.3648726211726778e+00 +0.0000000000000000e+00 -2.1499999949686170e+00 -3.0749584323935562e-02 -5.5129817124566471e-01 +5.5741001814444196e-03
-2.2000000000000002e+00 +8.3648666268953065e+00 +0.0000000000000000e+00 -2.1999999946092874e+00 -3.0751030555969852e-02 -5.5131627762345004e-01 +5.5766480964195850e-03
-2.2500000000000000e+00 +8.3648604947476564e+00 +0.0000000000000000e+00 -2.2499999942332392e+00 -3.0752500610059210e-02 -5.5133474788842940e-01 +5.5791866219774148e-03
-2.2999999999999998e+00 +8.3648542247251090e+00 +0.0000000000000000e+00 -2.2999999938400917e+00 -3.0753994284383402e-02 -5.5135357981031097e-01 +5.5817156124529912e-03
-2.3499999999999996e+00 +8.3648478168229552e+00 +0.0000000000000000e+00 -2.3499999934294635e+00 -3.0755511377123155e-02 -5.5137277115881456e-01 +5.5842349221805771e-03
-2.3999999999999995e+00 +8.3648412710363953e+00 +0.0000000000000000e+00 -2.3999999930009746e+00 -3.0757051686460035e-02 -5.5139231970367142e-01 +5.5867444054936077e-03
-2.4499999999999993e+00 +8.3648345873605408e+00 +0.0000000000000000e+00 -2.4499999925542433e+00 -3.0758615010576626e-02 -5.5141222321462346e-01 +5.5892439167246699e-03
-2.4999999999999991e+00 +8.3648277657904142e+00 +0.0000000000000000e+00 -2.4999999920888891e+00 -3.0760201147656440e-02 -5.5143247946142349e-01 +5.5917333102055121e-03
-2.5499999999999989e+00 +8.3648208063209513e+00 +0.0000000000000000e+00 -2.5499999916045311e+00 -3.0761809895883972e-02 -5.5145308621383482e-01 +5.5942124402670011e-03
-2.5999999999999988e+00 +8.3648137089469969e+00 +0.0000000000000000e+00 -2.5999999911007881e+00 -3.0763441053444696e-02 -5.5147404124163069e-01 +5.5966811612391297e-03
-2.6499999999999986e+00 +8.3648064736633128e+00 +0.0000000000000000e+00 -2.6499999905772791e+00 -3.0765094418525128e-02 -5.5149534231459374e-01 +5.5991393274510007e-03
-2.6999999999999984e+00 +8.3647991004645696e+00 +0.0000000000000000e+00 -2.6999999900336227e+00 -3.0766769789312778e-02 -5.5151698720251618e-01 +5.6015867932308044e-03
-2.7499999999999982e+00 +8.3647915893453568e+00 +0.0000000000000000e+00 -2.7499999894694378e+00 -3.0768466963996238e-02 -5.5153897367520022e-01 +5.6040234129058316e-03
-2.7999999999999980e+00 +8.3647839403001765e+00 +0.0000000000000000e+00 -2.7999999888843430e+00 -3.0770185740765149e-02 -5.5156129950245603e-01 +5.6064490408024217e-03
-2.8499999999999979e+00 +8.3647761533234437e+00 +0.0000000000000000e+00 -2.8499999882779572e+00 -3.0771925917810201e-02 -5.5158396245410213e-01 +5.6088635312459851e-03
-2.8999999999999977e+00 +8.3647682284094920e+00 +0.0000000000000000e+00 -2.8999999876498985e+00 -3.0773687293323221e-02 -5.5160696029996625e-01 +5.6112667385609764e-03
-2.9499999999999975e+00 +8.3647601655525712e+00 +0.0000000000000000e+00 -2.9499999869997859e+00 -3.0775469665497157e-02 -5.5163029080988357e-01 +5.6136585170708797e-03
-2.9999999999999973e+00 +8.3647519647468460e+00 +0.0000000000000000e+00 -2.9999999863272380e+00 -3.0777272832526056e-02 -5.5165395175369714e-01 +5.6160387210982040e-03
-3.0499999999999972e+00 +8.3647436259864012e+00 +0.0000000000000000e+00 -3.0499999856318727e+00 -3.0779096592605103e-02 -5.5167794090125677e-01 +5.6184072049644583e-03
-3.0999999999999970e+00 +8.3647351492652362e+00 +0.0000000000000000e+00 -3.0999999849133086e+00 -3.0780940743930708e-02 -5.5170225602241973e-01 +5.6207638229901517e-03
-3.1499999999999968e+00 +8.3647265345772706e+00 +0.0000000000000000e+00 -3.1499999841711643e+00 -3.0782805084700413e-02 -5.5172689488705073e-01 +5.6231084294947791e-03
-3.1999999999999966e+00 +8.3647177819163421e+00 +0.0000000000000000e+00 -3.1999999834050579e+00 -3.0784689413112971e-02 -5.5175185526501958e-01 +5.6254408787967912e-03
-3.2499999999999964e+00 +8.3647088912762104e+00 +0.0000000000000000e+00 -3.2499999826146073e+00 -3.0786593527368365e-02 -5.5177713492620362e-01 +5.6277610252136196e-03
-3.2999999999999963e+00 +8.3646998626505535e+00 +0.0000000000000000e+00 -3.2999999817994308e+00 -3.0788517225667812e-02 -5.5180273164048510e-01 +5.6300687230616160e-03
-3.3499999999999961e+00 +8.3646906960329712e+00 +0.0000000000000000e+00 -3.3499999809591463e+00 -3.0790460306213765e-02 -5.5182864317775215e-01 +5.6323638266560791e-03
-3.3999999999999959e+00 +8.3646813914169815e+00 +0.0000000000000000e+00 -3.3999999800933716e+00 -3.0792422567209942e-02 -5.5185486730789823e-01 +5.6346461903112226e-03
-3.4499999999999957e+00 +8.3646719487960279e+00 +0.0000000000000000e+00 -3.4499999792017246e+00 -3.0794403806861374e-02 -5.5188140180082146e-01 +5.6369156683401603e-03
-3.4999999999999956e+00 +8.3646623681634757e+00 +0.0000000000000000e+00 -3.4999999782838236e+00 -3.0796403823374386e-02 -5.5190824442642550e-01 +5.6391721150549174e-03
-3.5499999999999954e+00 +8.3646526495126121e+00 +0.0000000000000000e+00 -3.5499999773392861e+00 -3.0798422414956613e-02 -5.5193539295461724e-01 +5.6414153847663831e-03
-3.5999999999999952e+00 +8.3646427928366460e+00 +0.0000000000000000e+00 -3.5999999763677297e+00 -3.0800459379817027e-02 -5.5196284515530825e-01 +5.6436453317843258e-03
-3.6499999999999950e+00 +8.3646327981287154e+00 +0.0000000000000000e+00 -3.6499999753687722e+00 -3.0802514516165964e-02 -5.5199059879841395e-01 +5.6458618104173646e-03
-3.6999999999999948e+00 +8.3646226653818783e+00 +0.0000000000000000e+00 -3.6999999743420307e+00 -3.0804587622215135e-02 -5.5201865165385300e-01 +5.6480646749729685e-03
-3.7499999999999947e+00 +8.3646123945891198e+00 +0.0000000000000000e+00 -3.7499999732871228e+00 -3.0806678496177627e-02 -5.5204700149154740e-01 +5.6502537797574279e-03
-3.7999999999999945e+00 +8.3646019857433505e+00 +0.0000000000000000e+00 -3.7999999722036661e+00 -3.0808786936267957e-02 -5.5207564608142157e-01 +5.6524289790758648e-03
-3.8499999999999943e+00 +8.3645914388374063e+00 +0.0000000000000000e+00 -3.8499999710912780e+00 -3.0810912740702030e-02 -5.5210458319340294e-01 +5.6545901272321928e-03
-3.8999999999999941e+00 +8.3645807538640522e+00 +0.0000000000000000e+00 -3.8999999699495755e+00 -3.0813055707697212e-02 -5.5213381059742139e-01 +5.6567370785291305e-03
-3.9499999999999940e+00 +8.3645699308159784e+00 +0.0000000000000000e+00 -3.9499999687781759e+00 -3.0815215635472352e-02 -5.5216332606340823e-01 +5.6588696872681733e-03
-3.9999999999999938e+00 +8.3645589696858043e+00 +0.0000000000000000e+00 -3.9999999675766964e+00 -3.0817392322247724e-02 -5.5219312736129689e-01 +5.6609878077495757e-03
-4.0499999999999936e+00 +8.3645478704660778e+00 +0.0000000000000000e+00 -4.0499999663447541e+00 -3.0819585567887411e-02 -5.5222321213999936e-01 +5.6630913057216610e-03
-4.0999999999999934e+00 +8.3645366331492745e+00 +0.0000000000000000e+00 -4.0999999650819650e+00 -3.0821795178825197e-02 -5.5225357756433924e-01 +5.6651800927288764e-03
-4.1499999999999932e+00 +8.3645252577278022e+00 +0.0000000000000000e+00 -4.1499999637879466e+00 -3.0824020963136543e-02 -5.5228422067812055e-01 +5.6672540917640955e-03
-4.1999999999999931e+00 +8.3645137441939976e+00 +0.0000000000000000e+00 -4.1999999624623161e+00 -3.0826262728896017e-02 -5.5231513852515079e-01 +5.6693132258193099e-03
-4.2499999999999929e+00 +8.3645020925401283e+00 +0.0000000000000000e+00 -4.2499999611046899e+00 -3.0828520284177218e-02 -5.5234632814924112e-01 +5.6713574178856247e-03
-4.2999999999999927e+00 +8.3644903027583961e+00 +0.0000000000000000e+00 -4.2999999597146843e+00 -3.0830793437052764e-02 -5.5237778659420544e-01 +5.6733865909532524e-03
-4.3499999999999925e+00 +8.3644783748409335e+00 +0.0000000000000000e+00 -4.3499999582919164e+00 -3.0833081995594241e-02 -5.5240951090386048e-01 +5.6754006680115199e-03
-4.3999999999999924e+00 +8.3644663087798072e+00 +0.0000000000000000e+00 -4.3999999568360018e+00 -3.0835385767872106e-02 -5.5244149812202592e-01 +5.6773995720488645e-03
-4.4499999999999922e+00 +8.3644541045670184e+00 +0.0000000000000000e+00 -4.4499999553465575e+00 -3.0837704561955649e-02 -5.5247374529252413e-01 +5.6793832260528289e-03
-4.4999999999999920e+00 +8.3644417621945024e+00 +0.0000000000000000e+00 -4.4999999538231998e+00 -3.0840038185912980e-02 -5.5250624945917881e-01 +5.6813515530100677e-03
-4.5499999999999918e+00 +8.3644292816541306e+00 +0.0000000000000000e+00 -4.5499999522655452e+00 -3.0842386447810913e-02 -5.5253900766581698e-01 +5.6833044759063440e-03
-4.5999999999999917e+00 +8.3644166629377121e+00 +0.0000000000000000e+00 -4.5999999506732090e+00 -3.0844749155714963e-02 -5.5257201695626645e-01 +5.6852419177265212e-03
-4.6499999999999915e+00 +8.3644039060369924e+00 +0.0000000000000000e+00 -4.6499999490458075e+00 -3.0847126117689253e-02 -5.5260527437435769e-01 +5.6871638014545801e-03
-4.6999999999999913e+00 +8.3643910109436543e+00 +0.0000000000000000e+00 -4.6999999473829570e+00 -3.0849517141796456e-02 -5.5263877696392127e-01 +5.6890700500735868e-03
-4.7499999999999911e+00 +8.3643779776493190e+00 +0.0000000000000000e+00 -4.7499999456842739e+00 -3.0851922036097785e-02 -5.5267252176879000e-01 +5.6909605865657258e-03
-4.7999999999999909e+00 +8.3643648061455504e+00 +0.0000000000000000e+00 -4.7999999439493726e+00 -3.0854340608652924e-02 -5.5270650583279735e-01 +5.6928353339122826e-03
-4.8499999999999908e+00 +8.3643514964238470e+00 +0.0000000000000000e+00 -4.8499999421778694e+00 -3.0856772667519933e-02 -5.5274072619977765e-01 +5.6946942150936366e-03
-4.8999999999999906e+00 +8.3643380484756538e+00 +0.0000000000000000e+00 -4.8999999403693808e+00 -3.0859218020755214e-02 -5.5277517991356540e-01 +5.6965371530892754e-03
-4.9499999999999904e+00 +8.3643244622923536e+00 +0.0000000000000000e+00 -4.9499999385235212e+00 -3.0861676476413500e-02 -5.5280986401799626e-01 +5.6983640708777811e-03
-4.9999999999999902e+00 +8.3643107378652743e+00 +0.0000000000000000e+00 -4.9999999366399059e+00 -3.0864147842547745e-02 -5.5284477555690537e-01 +5.7001748914368381e-03
-5.0499999999999901e+00 +8.3642968751856834e+00 +0.0000000000000000e+00 -5.0499999347181515e+00 -3.0866631927209096e-02 -5.5287991157412786e-01 +5.7019695377432183e-03
-5.0999999999999899e+00 +8.3642828742447968e+00 +0.0000000000000000e+00 -5.0999999327578722e+00 -3.0869128538446824e-02 -5.5291526911349886e-01 +5.7037479327728072e-03
-5.1499999999999897e+00 +8.3642687350337717e+00 +0.0000000000000000e+00 -5.1499999307586837e+00 -3.0871637484308281e-02 -5.5295084521885285e-01 +5.7055099995005701e-03
-5.1999999999999895e+00 +8.3642544575437103e+00 +0.0000000000000000e+00 -5.1999999287202003e+00 -3.0874158572838845e-02 -5.5298663693402406e-01 +5.7072556609005743e-03
-5.2499999999999893e+00 +8.3642400417656635e+00 +0.0000000000000000e+00 -5.2499999266420376e+00 -3.0876691612081855e-02 -5.5302264130284495e-01 +5.7089848399459802e-03
-5.2999999999999892e+00 +8.3642254876906286e+00 +0.0000000000000000e+00 -5.2999999245238110e+00 -3.0879236410078569e-02 -5.5305885536914723e-01 +5.7106974596090390e-03
-5.3499999999999890e+00 +8.3642107953095479e+00 +0.0000000000000000e+00 -5.3499999223651340e+00 -3.0881792774868109e-02 -5.5309527617676157e-01 +5.7123934428610921e-03
-5.3999999999999888e+00 +8.3641959646133142e+00 +0.0000000000000000e+00 -5.3999999201656221e+00 -3.0884360514487393e-02 -5.5313190076951746e-01 +5.7140727126725787e-03
-5.4499999999999886e+00 +8.3641809955927684e+00 +0.0000000000000000e+00 -5.4499999179248908e+00 -3.0886939436971073e-02 -5.5316872619124091e-01 +5.7157351920130144e-03
-5.4999999999999885e+00 +8.3641658882387020e+00 +0.0000000000000000e+00 -5.4999999156425536e+00 -3.0889529350351542e-02 -5.5320574948575807e-01 +5.7173808038510155e-03
-5.5499999999999883e+00 +8.3641506425418566e+00 +0.0000000000000000e+00 -5.5499999133182252e+00 -3.0892130062658785e-02 -5.5324296769689152e-01 +5.7190094711542828e-03
-5.5999999999999881e+00 +8.3641352584929258e+00 +0.0000000000000000e+00 -5.5999999109515199e+00 -3.0894741381920405e-02 -5.5328037786846196e-01 +5.7206211168895991e-03
-5.6499999999999879e+00 +8.3641197360825537e+00 +0.0000000000000000e+00 -5.6499999085420516e+00 -3.0897363116161505e-02 -5.5331797704428742e-01 +5.7222156640228351e-03
-5.6999999999999877e+00 +8.3641040753013378e+00 +0.0000000000000000e+00 -5.6999999060894346e+00 -3.0899995073404702e-02 -5.5335576226818328e-01 +5.7237930355189476e-03
-5.7499999999999876e+00 +8.3640882761398281e+00 +0.0000000000000000e+00 -5.7499999035932836e+00 -3.0902637061670006e-02 -5.5339373058396157e-01 +5.7253531543419783e-03
-5.7999999999999874e+00 +8.3640723385885316e+00 +0.0000000000000000e+00 -5.7999999010532122e+00 -3.0905288888974806e-02 -5.5343187903543112e-01 +5.7268959434550485e-03
-5.8499999999999872e+00 +8.3640562626379076e+00 +0.0000000000000000e+00 -5.8499998984688339e+00 -3.0907950363333801e-02 -5.5347020466639751e-01 +5.7284213258203577e-03
