# multipoles
# s[mm] polynom_b[n=0][T/m^n] polynom_b[n=1][T/m^n] polynom_b[n=2][T/m^n] polynom_b[n=3][T/m^n] polynom_b[n=4][T/m^n] polynom_b[n=5][T/m^n] polynom_b[n=6][T/m^n] 
+0.0000000000000000e+00 -5.4974259541960835e-01 +7.1954320309327393e+00 +5.3346189981450891e+00 -7.3710027144827350e+01 +9.7555501929667407e+03 +6.1003954164287752e+04 -3.7633466681424223e+07 
+5.0000000000000003e-02 -5.4974164803510550e-01 +7.1954176453051684e+00 +5.3370770604736224e+00 -7.3594770227851711e+01 +9.6999197493402498e+03 +5.9890473993533153e+04 -3.7296990219427146e+07 
+1.0000000000000001e-01 -5.4974110338593907e-01 +7.1954249113351114e+00 +5.3392165035962975e+00 -7.3479835582755356e+01 +9.6390297705358826e+03 +5.8841333197712665e+04 -3.6927269833312809e+07 
+1.4999999999999999e-01 -5.4974096069638811e-01 +7.1954537993879493e+00 +5.3410367053687908e+00 -7.3365514735805064e+01 +9.5730250110254383e+03 +5.7856593060168969e+04 -3.6525379964398995e+07 
+2.0000000000000001e-01 -5.4974121919077812e-01 +7.1955042798313231e+00 +5.3425370462094710e+00 -7.3252099269852891e+01 +9.5020501587930157e+03 +5.6936315319731839e+04 -3.6092394620729581e+07 
+2.5000000000000000e-01 -5.4974187809344255e-01 +7.1955763230359064e+00 +5.3437169002724350e+00 -7.3139880857630118e+01 +9.4262500686395724e+03 +5.6080562459653578e+04 -3.5629388927008569e+07 
+2.9999999999999999e-01 -5.4974293662874141e-01 +7.1956698993716808e+00 +5.3445756474968897e+00 -7.3029151111259068e+01 +9.3457694427755832e+03 +5.5289396468016013e+04 -3.5137436995597102e+07 
+3.4999999999999998e-01 -5.4974439402097697e-01 +7.1957849792025792e+00 +5.3451126640215563e+00 -7.2920201335003696e+01 +9.2607530819570857e+03 +5.4562876717615145e+04 -3.4617613587457865e+07 
+4.0000000000000002e-01 -5.4974624949461992e-01 +7.1959215329055501e+00 +5.3453273296051114e+00 -7.2813323382182887e+01 +9.1713456910382120e+03 +5.3901067263736208e+04 -3.4070992827734001e+07 
+4.5000000000000001e-01 -5.4974850227398997e-01 +7.1960795308468715e+00 +5.3452190216683064e+00 -7.2708808578317758e+01 +9.0776920360630647e+03 +5.3304027634144986e+04 -3.3498649246255230e+07 
+5.0000000000000000e-01 -5.4975115158354237e-01 +7.1962589434010038e+00 +5.3447871157227835e+00 -7.2606948598049968e+01 +8.9799369361765930e+03 +5.2771820374160990e+04 -3.2901657742307052e+07 
+5.5000000000000004e-01 -5.4975419664770897e-01 +7.1964597409391988e+00 +5.3440309934652559e+00 -7.2508034923293891e+01 +8.8782250423444675e+03 +5.2304506365318899e+04 -3.2281092070725098e+07 
+5.9999999999999998e-01 -5.4975763669097344e-01 +7.1966818938332464e+00 +5.3429500292546352e+00 -7.2412359042926525e+01 +8.7727012037095283e+03 +5.1902146591300290e+04 -3.1638027332333039e+07 
+6.5000000000000002e-01 -5.4976147093773642e-01 +7.1969253724578088e+00 +5.3415436023270466e+00 -7.2320212524591426e+01 +8.6635101391110547e+03 +5.1564802690532226e+04 -3.0973537749324951e+07 
+6.9999999999999996e-01 -5.4976569861254188e-01 +7.1971901471868476e+00 +5.3398110916233774e+00 -7.2231886876383257e+01 +8.5507965729261050e+03 +5.1292535793417846e+04 -3.0288697577278335e+07 
+7.5000000000000000e-01 -5.4977031893986239e-01 +7.1974761883941030e+00 +5.3377518736677780e+00 -7.2147673569978593e+01 +8.4347052976070936e+03 +5.1085406755115386e+04 -2.9584581540483024e+07 
+8.0000000000000004e-01 -5.4977533114423360e-01 +7.1977834664543945e+00 +5.3353653290954206e+00 -7.2067864096154793e+01 +8.3153809912703455e+03 +5.0943476625512543e+04 -2.8862263580180988e+07 
+8.4999999999999998e-01 -5.4978073445019493e-01 +7.1981119517443393e+00 +5.3326508310071681e+00 -7.1992749987158916e+01 +8.1929685376098842e+03 +5.0866806770663017e+04 -2.8122819034374163e+07 
+9.0000000000000002e-01 -5.4978652808233208e-01 +7.1984616146395579e+00 +5.3296077624289353e+00 -7.1922622710470691e+01 +8.0676125554775945e+03 +5.0855458077228046e+04 -2.7367321467734221e+07 
+9.4999999999999996e-01 -5.4979271126517881e-01 +7.1988324255147154e+00 +5.3262354989179697e+00 -7.1857773653885175e+01 +7.9394578584014189e+03 +5.0909490731198712e+04 -2.6596845728924695e+07 
+1.0000000000000000e+00 -5.4979928322332716e-01 +7.1992243547517623e+00 +5.3225334183521982e+00 -7.1798494493872866e+01 +7.8086492064895056e+03 +5.1028967373062624e+04 -2.5812466346356183e+07 
+1.0500000000000000e+00 -5.4980624318142157e-01 +7.1996373727238305e+00 +5.3185009007124808e+00 -7.1745076510018592e+01 +7.6753312940625428e+03 +5.1213947356843251e+04 -2.5015257365564402e+07 
+1.1000000000000001e+00 -5.4981359036402733e-01 +7.2000714498129774e+00 +5.3141373225816411e+00 -7.1697811320177664e+01 +7.5396489147192578e+03 +5.1464492855149707e+04 -2.4206293537670515e+07 
+1.1499999999999999e+00 -5.4982132399586869e-01 +7.2005265563943937e+00 +5.3094420624014447e+00 -7.1656990253247059e+01 +7.4017468095477143e+03 +5.1780663702815749e+04 -2.3386649244358812e+07 
+1.2000000000000000e+00 -5.4982944330155981e-01 +7.2010026628512644e+00 +5.3044144995110551e+00 -7.1622904919946066e+01 +7.2617696958491015e+03 +5.2162522041487915e+04 -2.2557398713000465e+07 
+1.2500000000000000e+00 -5.4983794750576886e-01 +7.2014997395607860e+00 +5.2990540102329007e+00 -7.1595846674340663e+01 +7.1198623741635429e+03 +5.2610127947014385e+04 -2.1719616737249650e+07 
+1.3000000000000000e+00 -5.4984683583321814e-01 +7.2020177569046169e+00 +5.2933599733350487e+00 -7.1576107025012504e+01 +6.9761695761419778e+03 +5.3123542773705987e+04 -2.0874377635374881e+07 
+1.3500000000000001e+00 -5.4985610750863401e-01 +7.2025566852632315e+00 +5.2873317698825852e+00 -7.1563977409776598e+01 +6.8308359745251373e+03 +5.3702827321212892e+04 -2.0022755341864835e+07 
+1.3999999999999999e+00 -5.4986576175667279e-01 +7.2031164950185183e+00 +5.2809687742583415e+00 -7.1559749309702767e+01 +6.6840064239393078e+03 +5.4348042818734590e+04 -1.9165825021022752e+07 
+1.4500000000000000e+00 -5.4987579780214346e-01 +7.2036971565530026e+00 +5.2742703670483433e+00 -7.1563714206918775e+01 +6.5358256113219832e+03 +5.5059250484289245e+04 -1.8304660705809940e+07 
+1.5000000000000000e+00 -5.4988621486980527e-01 +7.2042986402470444e+00 +5.2672359260301462e+00 -7.1576163473341111e+01 +6.3864382979634647e+03 +5.5836510679108629e+04 -1.7440336924688809e+07 
+1.5500000000000000e+00 -5.4989701218441511e-01 +7.2049209164844328e+00 +5.2598648302986151e+00 -7.1597388598000336e+01 +6.2359892144504838e+03 +5.6679884748195684e+04 -1.6573928018529955e+07 
+1.6000000000000001e+00 -5.4990818897076366e-01 +7.2055639556510860e+00 +5.2521564574037871e+00 -7.1627681147543868e+01 +6.0846231305264700e+03 +5.7589434739717901e+04 -1.5706508579503743e+07 
+1.6499999999999999e+00 -5.4991974445368563e-01 +7.2062277281278764e+00 +5.2441101852949030e+00 -7.1667332454328516e+01 +5.9324848059084961e+03 +5.8565220760806049e+04 -1.4839153136844197e+07 
+1.7000000000000000e+00 -5.4993167785799346e-01 +7.2069122042995355e+00 +5.2357253936995898e+00 -7.1716633991937684e+01 +5.7797189576618366e+03 +5.9607304153725017e+04 -1.3972935949262481e+07 
+1.7500000000000000e+00 -5.4994398840855852e-01 +7.2076173545525526e+00 +5.2270014612758615e+00 -7.1775877297494318e+01 +5.6264703282538467e+03 +6.0715746822527391e+04 -1.3108931434943520e+07 
+1.8000000000000000e+00 -5.4995667533020576e-01 +7.2083431492714114e+00 +5.2179377649225245e+00 -7.1845353801975875e+01 +5.4728837059560637e+03 +6.1890609836778349e+04 -1.2248214312546320e+07 
+1.8500000000000001e+00 -5.4996973784782577e-01 +7.2090895588419732e+00 +5.2085336850035588e+00 -7.1925354971697757e+01 +5.3191037939045436e+03 +6.3131954562419283e+04 -1.1391858757857395e+07 
+1.8999999999999999e+00 -5.4998317518633022e-01 +7.2098565536501473e+00 +5.1987885983431124e+00 -7.2016172271750960e+01 +5.1652753868055852e+03 +6.4439842445281844e+04 -1.0540939546856949e+07 
+1.9500000000000000e+00 -5.4999698657062013e-01 +7.2106441040830331e+00 +5.1887018864470003e+00 -7.2118097189429150e+01 +5.0115431563344164e+03 +6.5814335121343203e+04 -9.6965306390860379e+06 
+2.0000000000000000e+00 -5.5001117122562815e-01 +7.2114521805274467e+00 +5.1782729241619689e+00 -7.2231421188689382e+01 +4.8580519531419550e+03 +6.7255494079074822e+04 -8.8597071955797654e+06 
+2.0499999999999998e+00 -5.5002572815291073e-01 +7.2122807195321554e+00 +5.1675003114854956e+00 -7.2356140818154870e+01 +4.7049501525592896e+03 +6.8762006552077088e+04 -8.0314864756962517e+06 
+2.1000000000000001e+00 -5.5004065545742964e-01 +7.2131295233533583e+00 +5.1563799929201277e+00 -7.2491031375593550e+01 +4.5523931741910847e+03 +7.0326719806701658e+04 -7.2126229972628513e+06 
+2.1499999999999999e+00 -5.5005595101930860e-01 +7.2139983574269699e+00 +5.1449075812343192e+00 -7.2634558194610221e+01 +4.4005360959085510e+03 +7.1940939191430662e+04 -6.4037951380580394e+06 
+2.2000000000000002e+00 -5.5007161271875438e-01 +7.2148869871794199e+00 +5.1330786915227229e+00 -7.2785186204882734e+01 +4.2495339387231979e+03 +7.3595966698415927e+04 -5.6056809082660284e+06 
+2.2500000000000000e+00 -5.5008763843588571e-01 +7.2157951780453811e+00 +5.1208889357772112e+00 -7.2941380647231711e+01 +4.0995418033568467e+03 +7.5283106855179460e+04 -4.8189588467324181e+06 
+2.2999999999999998e+00 -5.5010402605086706e-01 +7.2167226954572232e+00 +5.1083339272098058e+00 -7.3101606658420678e+01 +3.9507147550975319e+03 +7.6993663343987791e+04 -4.0443072408632836e+06 
+2.3500000000000001e+00 -5.5012077344384525e-01 +7.2176693048492133e+00 +5.0954092788226326e+00 -7.3264329432855163e+01 +3.8032078654472407e+03 +7.8718940291402614e+04 -3.2824044262919952e+06 
+2.3999999999999999e+00 -5.5013787849503326e-01 +7.2186347716553287e+00 +5.0821106043143436e+00 -7.3428014141690312e+01 +3.6571761817449792e+03 +8.0450241640884604e+04 -2.5339285557792089e+06 
+2.4500000000000002e+00 -5.5015533908458258e-01 +7.2196188613097023e+00 +5.0684335132570828e+00 -7.3591125946027049e+01 +3.5127748675638004e+03 +8.2178871234194681e+04 -1.7995585859425641e+06 
+2.5000000000000000e+00 -5.5017315309275716e-01 +7.2206213392504539e+00 +5.0543736204262348e+00 -7.3752130150483524e+01 +3.3701589356131562e+03 +8.3896134053848189e+04 -1.0799724166090521e+06 
+2.5499999999999998e+00 -5.5019131839969226e-01 +7.2216419709135673e+00 +5.0399265385594649e+00 -7.3909491961670724e+01 +3.2294834591686558e+03 +8.5593334290836981e+04 -3.7584838103234197e+05 
+2.6000000000000001e+00 -5.5020983288567649e-01 +7.2226805217352696e+00 +5.0250878781373194e+00 -7.4061676582250243e+01 +3.0909035683454722e+03 +8.7261776065841739e+04 +3.1213481859925075e+05 
+2.6499999999999999e+00 -5.5022869443091482e-01 +7.2237367571555557e+00 +5.0098532520737304e+00 -7.4207149353286724e+01 +2.9545743230988842e+03 +8.8892764625036667e+04 +9.8329896988551202e+05 
+2.7000000000000002e+00 -5.5024790091562925e-01 +7.2248104426107629e+00 +4.9942182695610438e+00 -7.4344375453290951e+01 +2.8206508861993516e+03 +9.0477603852621178e+04 +1.6369651552407350e+06 
+2.7500000000000000e+00 -5.5026745022008350e-01 +7.2259013435440886e+00 +4.9781785464950223e+00 -7.4471820321456747e+01 +2.6892882303444253e+03 +9.2007599735792654e+04 +2.2724557721596714e+06 
+2.7999999999999998e+00 -5.5028734022447345e-01 +7.2270092253936946e+00 +4.9617296890869129e+00 -7.4587949193891120e+01 +2.5606415942838448e+03 +9.3474056622089454e+04 +2.8890914023189018e+06 
+2.8500000000000001e+00 -5.5030756880909726e-01 +7.2281338536024782e+00 +4.9448673111972052e+00 -7.4691227472559262e+01 +2.4348660053904414e+03 +9.4868280132829095e+04 +3.4861940735366591e+06 
+2.8999999999999999e+00 -5.5032813385421220e-01 +7.2292749936135197e+00 +4.9275870230029239e+00 -7.4780120561438650e+01 +2.3121165863428673e+03 +9.6181575909173844e+04 +4.0630851803296534e+06 
+2.9500000000000002e+00 -5.5034903324008966e-01 +7.2304324108666931e+00 +4.9098844355047833e+00 -7.4853093714155264e+01 +2.1925484367717249e+03 +9.7405248296405116e+04 +4.6190862776383553e+06 
+3.0000000000000000e+00 -5.5037026484698892e-01 +7.2316058708094584e+00 +4.8917551566372088e+00 -7.4908612494391221e+01 +2.0763167343503437e+03 +9.8530604197939640e+04 +5.1535184058524501e+06 
+3.0499999999999998e+00 -5.5039182655518004e-01 +7.2327951388856198e+00 +4.8731947993756268e+00 -7.4945142294278412e+01 +1.9635765202763153e+03 +9.9548949042338427e+04 +5.6657035272748042e+06 
+3.1000000000000001e+00 -5.5041371624495872e-01 +7.2339999805408697e+00 +4.8541989707937461e+00 -7.4961148578720909e+01 +1.8544829914652776e+03 +1.0045158883514541e+05 +6.1549625650370661e+06 
+3.1499999999999999e+00 -5.5043593179662742e-01 +7.2352201612218865e+00 +4.8347632829079146e+00 -7.4955096838005588e+01 +1.7491912064312071e+03 +1.0122982973518099e+05 +6.6206173932879614e+06 
+3.2000000000000002e+00 -5.5045847109046575e-01 +7.2364554463767643e+00 +4.8148833422834540e+00 -7.4925452612965657e+01 +1.6478563714963725e+03 +1.0187497829804460e+05 +7.0619888815290770e+06 
+3.2500000000000000e+00 -5.5048133200675098e-01 +7.2377056014526548e+00 +4.7945547590868038e+00 -7.4870681393045615e+01 +1.5506335882231706e+03 +1.0237834060516924e+05 +7.4783986341723641e+06 
+3.2999999999999998e+00 -5.5050451242581522e-01 +7.2389703918995290e+00 +4.7737731425811658e+00 -7.4789248772854862e+01 +1.4576779826394029e+03 +1.0273122355136527e+05 +7.8691680884225732e+06 
+3.3500000000000001e+00 -5.5052801022796694e-01 +7.2402495831689722e+00 +4.7525340973176080e+00 -7.4679620407682918e+01 +1.3691448019435636e+03 +1.0292493449764732e+05 +8.2336178809400667e+06 
+3.3999999999999999e+00 -5.5055182329349295e-01 +7.2415429407109917e+00 +4.7308332366796426e+00 -7.4540261879139152e+01 +1.2851890538733546e+03 +1.0295078017713790e+05 +8.5710702685187813e+06 
+3.4500000000000002e+00 -5.5057594950267730e-01 +7.2428502299782345e+00 +4.7086661637148080e+00 -7.4369638856980004e+01 +1.2059660196220768e+03 +1.0280006793248175e+05 +8.8808456804051753e+06 
+3.5000000000000000e+00 -5.5060038673586820e-01 +7.2441712164231244e+00 +4.6860284870960456e+00 -7.4166217011895043e+01 +1.1316308279004397e+03 +1.0246410514646268e+05 +9.1622655731903072e+06 
+3.5499999999999998e+00 -5.5062513287338299e-01 +7.2455056655010566e+00 +4.6629158146393941e+00 -7.3928462107815136e+01 +1.0623386205784645e+03 +1.0193419983408207e+05 +9.4146513502613679e+06 
+3.6000000000000001e+00 -5.5065018579553149e-01 +7.2468533426656965e+00 +4.6393237513732819e+00 -7.3654839844018696e+01 +9.9824461685673907e+02 +1.0120165948376746e+05 +9.6373238840952776e+06 
+3.6499999999999999e+00 -5.5067554338263136e-01 +7.2482140133749571e+00 +4.6152479037121239e+00 -7.3343816083567532e+01 +9.3950399122084571e+02 +1.0025779286354063e+05 +9.8296043710552808e+06 
+3.6999999999999900e+00 -5.5070120351498841e-01 +7.2495874430844260e+00 +4.5906838793753044e+00 -7.2993856581606920e+01 +8.8627188343944169e+02 +9.9093907788602068e+04 +9.9908142381810937e+06 
+3.7499999999999898e+00 -5.5072716407295819e-01 +7.2509733972518742e+00 +4.5656272813623744e+00 -7.2603427186309318e+01 +8.3870354982159154e+02 +9.7701312794949132e+04 +1.0120274161877533e+07 
+3.7999999999999901e+00 -5.5075342293681651e-01 +7.2523716413388426e+00 +4.5400737157841782e+00 -7.2170993879374194e+01 +7.9695416303281513e+02 +9.6071317431142830e+04 +1.0217305383612460e+07 
+3.8499999999999899e+00 -5.5077997798693490e-01 +7.2537819408028179e+00 +4.5140187874001336e+00 -7.1695022479008173e+01 +7.6117892501898075e+02 +9.4195229846114235e+04 +1.0281228966544345e+07 
+3.8999999999999901e+00 -5.5080682710354567e-01 +7.2552040611066841e+00 +4.4874580986779620e+00 -7.1173979017613263e+01 +7.3153309876969274e+02 +9.2064359920631105e+04 +1.0311365562506996e+07 
+3.9499999999999900e+00 -5.5083396816705343e-01 +7.2566377677119149e+00 +4.4603872548316117e+00 -7.0606329466228800e+01 +7.0817186385022069e+02 +8.9670016926483702e+04 +1.0307036419359019e+07 
+3.9999999999999898e+00 -5.5086139905773124e-01 +7.2580828260825081e+00 +4.4328018602548713e+00 -6.9990539877789189e+01 +6.9125042518444127e+02 +8.7003510774020629e+04 +1.0267562602433013e+07 
+4.0499999999999901e+00 -5.5088911751949288e-01 +7.2595390240095563e+00 +4.4047019630189892e+00 -6.9325681788936535e+01 +6.8082994982000798e+02 +8.4059574236500892e+04 +1.0192770015595600e+07 
+4.0999999999999899e+00 -5.5091712075162635e-01 +7.2610062289893440e+00 +4.3761045315388696e+00 -6.8613272848269304e+01 +6.7662019882980462e+02 +8.0847100484512819e+04 +1.0084371836872775e+07 
+4.1499999999999897e+00 -5.5094540581770968e-01 +7.2624843260765397e+00 +4.3470305844593842e+00 -6.7855448687635715e+01 +6.7824925406757484e+02 +7.7378628599000876e+04 +9.9445193034889530e+06 
+4.1999999999999904e+00 -5.5097396978129376e-01 +7.2639732003300352e+00 +4.3175011442618700e+00 -6.7054345136878126e+01 +6.8534510003257924e+02 +7.3666699277042513e+04 +9.7753642982054427e+06 
+4.2499999999999902e+00 -5.5100280970596882e-01 +7.2654727368053811e+00 +4.2875372264271707e+00 -6.6212097878515721e+01 +6.9753590588264501e+02 +6.9723851945038725e+04 +9.5790574755504522e+06 
+4.2999999999999901e+00 -5.5103192265526735e-01 +7.2669828205553015e+00 +4.2571598539604985e+00 -6.5330842488887839e+01 +7.1444964758322408e+02 +6.5562625209818521e+04 +9.3577507582119834e+06 
+4.3499999999999899e+00 -5.5106130569278389e-01 +7.2685033366376759e+00 +4.2263900465070847e+00 -6.4412714765492581e+01 +7.3571439297039751e+02 +6.1195559512200954e+04 +9.1135954467767216e+06 
+4.3999999999999897e+00 -5.5109095588209156e-01 +7.2700341701023516e+00 +4.1952488248776989e+00 -6.3459850172567172e+01 +7.6095817549552953e+02 +5.6635192532723799e+04 +8.8487430864926409e+06 
+4.4499999999999904e+00 -5.5112087028674095e-01 +7.2715752060028871e+00 +4.1637572096383924e+00 -6.2474384335901853e+01 +7.8980904480530774e+02 +5.1894063301909824e+04 +8.5653450802976117e+06 
+4.4999999999999902e+00 -5.5115104597034670e-01 +7.2731263293899273e+00 +4.1319362234277062e+00 -6.1458452754131805e+01 +8.2189499402883382e+02 +4.6984709759010351e+04 +8.2655532151023792e+06 
+4.5499999999999901e+00 -5.5118147999648814e-01 +7.2746874253124920e+00 +4.0998068871734024e+00 -6.0414190892266369e+01 +8.5684406460940272e+02 +4.1919669690923176e+04 +7.9515189482612833e+06 
+4.5999999999999899e+00 -5.5121216942877937e-01 +7.2762583788200290e+00 +4.0673902228138967e+00 -5.9343734212556704e+01 +8.9428427714581574e+02 +3.6711480747580594e+04 +7.6253938543076199e+06 
+4.6499999999999897e+00 -5.5124311133073012e-01 +7.2778390749593109e+00 +4.0347072524510530e+00 -5.8249218088140481e+01 +9.3384365168995419e+02 +3.1372679943332994e+04 +7.2893294993960382e+06 
+4.6999999999999904e+00 -5.5127430276601841e-01 +7.2794293987774070e+00 +4.0017790003631113e+00 -5.7132777912413793e+01 +9.7515014464602939e+02 +2.5915804434684207e+04 +6.9454779034917606e+06 
+4.7499999999999902e+00 -5.5130574079818728e-01 +7.2810292353172308e+00 +3.9686264895188761e+00 -5.5996548912066430e+01 +1.0178317616495124e+03 +2.0353390029457551e+04 +6.5959906997702168e+06 
+4.7999999999999901e+00 -5.5133742249088891e-01 +7.2826384696217472e+00 +3.9352707440176755e+00 -5.4842666320904016e+01 +1.0615164755511935e+03 +1.4697972574715766e+04 +6.2430197580606490e+06 
+4.8499999999999899e+00 -5.5136934490764367e-01 +7.2842569867337303e+00 +3.9017327879522439e+00 -5.3673265386680583e+01 +1.1058322627727555e+03 +8.9620881127194316e+03 +5.8887169122488368e+06 
+4.8999999999999897e+00 -5.5140150511213015e-01 +7.2858846716940606e+00 +3.8680336451632580e+00 -5.2490481278493753e+01 +1.1504071140344790e+03 +3.1582719862977206e+03 +5.5352338752051871e+06 
+4.9499999999999904e+00 -5.5143390016794336e-01 +7.2875214095412488e+00 +3.8341943437155881e+00 -5.1296449079507937e+01 +1.1948689085113338e+03 -2.7009411341700747e+03 +5.1847231057369951e+06 
+4.9999999999999902e+00 -5.5146652713864086e-01 +7.2891670853108295e+00 +3.8002359052170056e+00 -5.0093303766737350e+01 +1.2388457019288235e+03 -8.6030174102977198e+03 +4.8393358673203830e+06 
+5.0499999999999901e+00 -5.5149938309022084e-01 +7.2908215755886472e+00 +3.7661797865465161e+00 -4.8883188445755863e+01 +1.2819655904743622e+03 -1.4535426103982780e+04 +4.5012237277052896e+06 
