# multipoles
# s[mm] polynom_b[n=0][T/m^n] polynom_b[n=1][T/m^n] polynom_b[n=2][T/m^n] polynom_b[n=3][T/m^n] polynom_b[n=4][T/m^n] polynom_b[n=5][T/m^n] polynom_b[n=6][T/m^n] 
+0.0000000000000000e+00 -5.2342432509756109e-01 +6.8835238573765647e+00 +5.8767163941843439e+00 -1.2636098271043932e+02 -1.5680811392729196e+04 +5.3931216710093513e+05 +9.0174083941700146e+07 
+5.0000000000000003e-02 -5.2342396498964783e-01 +6.8835002328728780e+00 +5.8806932514507864e+00 -1.2589096068265368e+02 -1.5792499648755294e+04 +5.3618790283836343e+05 +9.0949192234203935e+07 
+1.0000000000000001e-01 -5.2342396098767474e-01 +6.8834960280799340e+00 +5.8836215353079346e+00 -1.2540957698202926e+02 -1.5889839040095811e+04 +5.3298038011318364e+05 +9.1638403939941660e+07 
+1.5000000000000002e-01 -5.2342431245355026e-01 +6.8835112090868407e+00 +5.8855221853588526e+00 -1.2491744639843060e+02 -1.5973300172794914e+04 +5.2969466534656484e+05 +9.2244555948491782e+07 
+2.0000000000000001e-01 -5.2342501874922154e-01 +6.8835457419818757e+00 +5.8864161453800099e+00 -1.2441518367817343e+02 -1.6043353766551620e+04 +5.2633582465097809e+05 +9.2770485918092892e+07 
+2.5000000000000000e-01 -5.2342607923662543e-01 +6.8835995928601896e+00 +5.8863243542611414e+00 -1.2390340381309353e+02 -1.6100470408172558e+04 +5.2290892612244416e+05 +9.3219030606109038e+07 
+2.9999999999999999e-01 -5.2342749327775040e-01 +6.8836727278138294e+00 +5.8852677568970853e+00 -1.2338272164252186e+02 -1.6145120845900181e+04 +5.1941903659919865e+05 +9.3593027858653218e+07 
+3.4999999999999998e-01 -5.2342926023455816e-01 +6.8837651129353015e+00 +5.8832672906565158e+00 -1.2285375200471378e+02 -1.6177775624795007e+04 +5.1587122293811210e+05 +9.3895314147011846e+07 
+3.9999999999999997e-01 -5.2343137946907214e-01 +6.8838767143214472e+00 +5.8803439010151370e+00 -1.2231710988244116e+02 -1.6198905511443616e+04 +5.1227055314963090e+05 +9.4128727450655878e+07 
+4.4999999999999996e-01 -5.2343385034328693e-01 +6.8840074980687955e+00 +5.8765185252986871e+00 -1.2177341022209576e+02 -1.6208981049787966e+04 +5.0862209495322517e+05 +9.4296104233876318e+07 
+4.9999999999999994e-01 -5.2343667221925239e-01 +6.8841574302746258e+00 +5.8718121073895899e+00 -1.2122326797913090e+02 -1.6208472958609887e+04 +5.0493091615476558e+05 +9.4400282133295506e+07 
+5.4999999999999993e-01 -5.2343984445901459e-01 +6.8843264770366597e+00 +5.8662455881123075e+00 -1.2066729809391761e+02 -1.6197851878177471e+04 +5.0120208440756495e+05 +9.4444098270043969e+07 
+5.9999999999999998e-01 -5.2344336642463329e-01 +6.8845146044560650e+00 +5.8598399074418541e+00 -1.2010611563298231e+02 -1.6177588422576011e+04 +4.9744066844338365e+05 +9.4430389575982571e+07 
+6.5000000000000002e-01 -5.2344723747819111e-01 +6.8847217786335531e+00 +5.8526160067455626e+00 -1.1954033560741568e+02 -1.6148153247181946e+04 +4.9365173648922821e+05 +9.4361993276813120e+07 
+7.0000000000000007e-01 -5.2345145698179096e-01 +6.8849479656696770e+00 +5.8445948280633795e+00 -1.1897057300199043e+02 -1.6110017020191772e+04 +4.8984035658036172e+05 +9.4241746660720661e+07 
+7.5000000000000011e-01 -5.2345602429754245e-01 +6.8851931316679851e+00 +5.8357973116158401e+00 -1.1839744289044506e+02 -1.6063650363521820e+04 +4.8601159744804871e+05 +9.4072486715917423e+07 
+8.0000000000000016e-01 -5.2346093878757594e-01 +6.8854572427305758e+00 +5.8262443988153212e+00 -1.1782156027868893e+02 -1.6009523933879722e+04 +4.8217052733218926e+05 +9.3857050675544649e+07 
+8.5000000000000020e-01 -5.2346619981404174e-01 +6.8857402649626458e+00 +5.8159570311777262e+00 -1.1724354025963557e+02 -1.5948108382536908e+04 +4.7832221512814978e+05 +9.3598275701717317e+07 
+9.0000000000000024e-01 -5.2347180673910476e-01 +6.8860421644689565e+00 +5.8049561506532186e+00 -1.1666399787976616e+02 -1.5879874382050597e+04 +4.7447172933779372e+05 +9.3298999139567837e+07 
+9.5000000000000029e-01 -5.2347775892493453e-01 +6.8863629073530870e+00 +5.7932626966790890e+00 -1.1608354812683558e+02 -1.5805292529259406e+04 +4.7062413804062846e+05 +9.2962057788808033e+07 
+1.0000000000000002e+00 -5.2348405573373058e-01 +6.8867024597243871e+00 +5.7808976114485757e+00 -1.1550280617869629e+02 -1.5724833498660497e+04 +4.6678451079000172e+05 +9.2590288987168387e+07 
+1.0500000000000003e+00 -5.2349069652769931e-01 +6.8870607876876484e+00 +5.7678818356459871e+00 -1.1492238702210027e+02 -1.5638967924474657e+04 +4.6295791565425851e+05 +9.2186529800562724e+07 
+1.1000000000000003e+00 -5.2349768066907576e-01 +6.8874378573521469e+00 +5.7542363120841973e+00 -1.1434290579037636e+02 -1.5548166495940437e+04 +4.5914942185529647e+05 +9.1753617657293305e+07 
+1.1500000000000004e+00 -5.2350500752008189e-01 +6.8878336348234743e+00 +5.7399819785994106e+00 -1.1376497743809959e+02 -1.5452899769463334e+04 +4.5536409713650157e+05 +9.1294389092803523e+07 
+1.2000000000000004e+00 -5.2351267644300303e-01 +6.8882480862118403e+00 +5.7251397817000305e+00 -1.1318921708747038e+02 -1.5353638536671175e+04 +4.5160701063587359e+05 +9.0811682234540939e+07 
+1.2500000000000004e+00 -5.2352068680009645e-01 +6.8886811776266761e+00 +5.7097306594619264e+00 -1.1261623980414258e+02 -1.5250853355506395e+04 +4.4788323102020251e+05 +9.0308333609812766e+07 
+1.3000000000000005e+00 -5.2352903795364392e-01 +6.8891328751768439e+00 +5.6937755524511244e+00 -1.1204666060427498e+02 -1.5145014858233226e+04 +4.4419782655079529e+05 +8.9787180271683142e+07 
+1.3500000000000005e+00 -5.2353772926596753e-01 +6.8896031449709918e+00 +5.6772954051195912e+00 -1.1148109446369864e+02 -1.5036593776360616e+04 +4.4055586512684269e+05 +8.9251059921341658e+07 
+1.4000000000000006e+00 -5.2354676009938039e-01 +6.8900919531210985e+00 +5.6603111579781569e+00 -1.1092015647834464e+02 -1.4926060739561030e+04 +4.3696241567389364e+05 +8.8702809590572476e+07 
+1.4500000000000006e+00 -5.2355612981621225e-01 +6.8905992657370563e+00 +5.6428437517458301e+00 -1.1036446162405797e+02 -1.4813886379349857e+04 +4.3342254608534288e+05 +8.8145266304338455e+07 
+1.5000000000000007e+00 -5.2356583777882848e-01 +6.8911250489293678e+00 +5.6249141301027583e+00 -1.0981462488567657e+02 -1.4700541406378848e+04 +4.2994132436912757e+05 +8.7581267623964995e+07 
+1.5500000000000007e+00 -5.2357588334957994e-01 +6.8916692688089807e+00 +5.6065432326064037e+00 -1.0927126123097653e+02 -1.4586496423866907e+04 +4.2652381834754290e+05 +8.7013650393845350e+07 
+1.6000000000000008e+00 -5.2358626589086121e-01 +6.8922318914869241e+00 +5.5877520030060941e+00 -1.0873498561051878e+02 -1.4472222142590272e+04 +4.2317509572014830e+05 +8.6445252162385985e+07 
+1.6500000000000008e+00 -5.2359698476507099e-01 +6.8928128830745150e+00 +5.5685613834310193e+00 -1.0820641296374120e+02 -1.4358189233357443e+04 +4.1990022410011751e+05 +8.5878910226662904e+07 
+1.7000000000000008e+00 -5.2360803933461597e-01 +6.8934122096822170e+00 +5.5489923149961484e+00 -1.0768615816147062e+02 -1.4244868338657354e+04 +4.1670427050704096e+05 +8.5317461682395443e+07 
+1.7500000000000009e+00 -5.2361942896193092e-01 +6.8940298374248838e+00 +5.5290657410781039e+00 -1.0717483623609834e+02 -1.4132730162549578e+04 +4.1359230330552225e+05 +8.4763744044084609e+07 
+1.8000000000000009e+00 -5.2363115300946295e-01 +6.8946657324087406e+00 +5.5088026043969043e+00 -1.0667306183523976e+02 -1.4022245387002204e+04 +4.1056938767787052e+05 +8.4220594658210635e+07 
+1.8500000000000010e+00 -5.2364321083966670e-01 +6.8953198607478878e+00 +5.4882238466728168e+00 -1.0618144991047863e+02 -1.3913884671676225e+04 +4.0764059132652864e+05 +8.3690850739371464e+07 
+1.9000000000000010e+00 -5.2365560181501403e-01 +6.8959921885541045e+00 +5.4673504098762598e+00 -1.0570061528320117e+02 -1.3808118679012576e+04 +4.0481098084325640e+05 +8.3177349502106994e+07 
+1.9500000000000011e+00 -5.2366832529800478e-01 +6.8966826819365314e+00 +5.4462032387092307e+00 -1.0523117265348694e+02 -1.3705418148912695e+04 +4.0208562186589243e+05 +8.2682928699124798e+07 
+2.0000000000000009e+00 -5.2368138065114456e-01 +6.8973913070074682e+00 +5.4248032759933151e+00 -1.0477373681042999e+02 -1.3606253766086502e+04 +3.9946958070841507e+05 +8.2210425691574812e+07 
+2.0500000000000007e+00 -5.2369476703655293e-01 +6.8981180103709603e+00 +5.4031679237797734e+00 -1.0432878382005642e+02 -1.3510983619703591e+04 +3.9696686832751974e+05 +8.1761953342232823e+07 
+2.1000000000000005e+00 -5.2370848281414362e-01 +6.8988626570525096e+00 +5.3813008237405908e+00 -1.0389629520823435e+02 -1.3419515237602482e+04 +3.9457751978171081e+05 +8.1336727928841263e+07 
+2.1500000000000004e+00 -5.2372252614312453e-01 +6.8996250907975476e+00 +5.3592022826920527e+00 -1.0347614472188383e+02 -1.3331643328342054e+04 +3.9230063772805233e+05 +8.0933241310069993e+07 
+2.2000000000000002e+00 -5.2373689518268907e-01 +6.9004051553525576e+00 +5.3368726030359692e+00 -1.0306820614224327e+02 -1.3247162483697479e+04 +3.9013532511543989e+05 +8.0549984563585579e+07 
+2.2500000000000000e+00 -5.2375158809206535e-01 +6.9012026944622606e+00 +5.3143120907295671e+00 -1.0267235317371339e+02 -1.3165867384798854e+04 +3.8808068429264455e+05 +8.0185449345046178e+07 
+2.2999999999999998e+00 -5.2376660303048206e-01 +6.9020175518731159e+00 +5.2915210503897612e+00 -1.0228845957921919e+02 -1.3087552682066244e+04 +3.8613581811356236e+05 +7.9838127122964278e+07 
+2.3499999999999996e+00 -5.2378193815718432e-01 +6.9028495713298348e+00 +5.2684997871255570e+00 -1.0191639904386406e+02 -1.3012013034751169e+04 +3.8429982881336048e+05 +7.9506509407036930e+07 
+2.3999999999999995e+00 -5.2379759163140804e-01 +6.9036985965822888e+00 +5.2452486031840984e+00 -1.0155604546770007e+02 -1.2939043031007195e+04 +3.8257182047284639e+05 +7.9189087247986704e+07 
+2.4499999999999993e+00 -5.2381356161244141e-01 +6.9045644713738916e+00 +5.2217678075389466e+00 -1.0120727247501377e+02 -1.2868437432267543e+04 +3.8095089491727110e+05 +7.8884352833125383e+07 
+2.4999999999999991e+00 -5.2382984625953821e-01 +6.9054470394536827e+00 +5.1980577016692902e+00 -1.0086995392426493e+02 -1.2799990803500421e+04 +3.7943615596177179e+05 +7.8590797045446500e+07 
+2.5499999999999989e+00 -5.2384644373199163e-01 +6.9063461445669665e+00 +5.1741185918952945e+00 -1.0054396351928527e+02 -1.2733497836918645e+04 +3.7802670618937979e+05 +7.8306911612345010e+07 
+2.5999999999999988e+00 -5.2386335218910274e-01 +6.9072616304625605e+00 +5.1499507843309216e+00 -1.0022917509518383e+02 -1.2668753218958318e+04 +3.7672164927352068e+05 +7.8031188219597548e+07 
+2.6499999999999986e+00 -5.2388056979015662e-01 +6.9081933408861476e+00 +5.1255545810674485e+00 -9.9925462371717131e+01 -1.2605551532565378e+04 +3.7552008802717144e+05 +7.7762117870544747e+07 
+2.6999999999999984e+00 -5.2389809469447080e-01 +6.9091411195863213e+00 +5.1009302870171291e+00 -9.9632699183702940e+01 -1.2543687426760367e+04 +3.7442112624378689e+05 +7.7498191977907732e+07 
+2.7499999999999982e+00 -5.2391592506137441e-01 +6.9101048103113332e+00 +5.0760782090262850e+00 -9.9350759357732827e+01 -1.2482955613765302e+04 +3.7342386771028483e+05 +7.7237902418500915e+07 
+2.7999999999999980e+00 -5.2393405905020030e-01 +6.9110842568084578e+00 +5.0509986518525647e+00 -9.9079516681887540e+01 -1.2423150740353023e+04 +3.7252741595160280e+05 +7.6979740592459023e+07 
+2.8499999999999979e+00 -5.2395249482028183e-01 +6.9120793028242629e+00 +5.0256919192143954e+00 -9.8818844913882032e+01 -1.2364067428903249e+04 +3.7173087427033996e+05 +7.6722197747439101e+07 
+2.8999999999999977e+00 -5.2397123053097105e-01 +6.9130897921079431e+00 +5.0001583166128452e+00 -9.8568617935425493e+01 -1.2305500349144286e+04 +3.7103334708895278e+05 +7.6463765445592925e+07 
+2.9499999999999975e+00 -5.2399026434162588e-01 +6.9141155684087989e+00 +4.9743981488516766e+00 -9.8328709628154343e+01 -1.2247244150735978e+04 +3.7043393885969353e+05 +7.6202935109084606e+07 
+2.9999999999999973e+00 -5.2400959441160322e-01 +6.9151564754732346e+00 +4.9484117196817552e+00 -9.8098993766498566e+01 -1.2189093457251593e+04 +3.6993175321401755e+05 +7.5938197987177730e+07 
+3.0499999999999972e+00 -5.2402921890029353e-01 +6.9162123570506928e+00 +4.9221993368953258e+00 -9.7879344257019028e+01 -1.2130842999422373e+04 +3.6952589494618675e+05 +7.5668046047428742e+07 
+3.0999999999999970e+00 -5.2404913596706215e-01 +6.9172830568893229e+00 +4.8957613024715476e+00 -9.7669634966704194e+01 -1.2072287350612694e+04 +3.6921546860132320e+05 +7.5390970189741790e+07 
+3.1499999999999968e+00 -5.2406934377130576e-01 +6.9183684187377290e+00 +4.8690979228559499e+00 -9.7469739777663079e+01 -1.2013221205879390e+04 +3.6899957886137872e+05 +7.5105462138450831e+07 
+3.1999999999999966e+00 -5.2408984047242002e-01 +6.9194682863443164e+00 +4.8422095028260959e+00 -9.7279532592868620e+01 -1.1953439213053494e+04 +3.6887733072552580e+05 +7.4810013289481118e+07 
+3.2499999999999964e+00 -5.2411062422980770e-01 +6.9205825034576138e+00 +4.8150963470537551e+00 -9.7098887321300012e+01 -1.1892736016745126e+04 +3.6884782926488592e+05 +7.4503115011549518e+07 
+3.2999999999999963e+00 -5.2413169320286868e-01 +6.9217109138273871e+00 +4.7877587588587796e+00 -9.6927677935394343e+01 -1.1830906228026863e+04 +3.6891018014546856e+05 +7.4183258457717896e+07 
+3.3499999999999961e+00 -5.2415304555103071e-01 +6.9228533612011871e+00 +4.7601970450965272e+00 -9.6765778332639840e+01 -1.1767744551857417e+04 +3.6906348850349191e+05 +7.3848935409025386e+07 
+3.3999999999999959e+00 -5.2417467943371376e-01 +6.9240096893279670e+00 +4.7324115099129953e+00 -9.6613062485083873e+01 -1.1703045617064943e+04 +3.6930686016555654e+05 +7.3498637116266370e+07 
+3.4499999999999957e+00 -5.2419659301034660e-01 +6.9251797419562484e+00 +4.7044024580036874e+00 -9.6469404354541339e+01 -1.1636604069785526e+04 +3.6963940092939715e+05 +7.3130854956409037e+07 
+3.4999999999999956e+00 -5.2421878444036940e-01 +6.9263633628353674e+00 +4.6761701951925270e+00 -9.6334677970159973e+01 -1.1568214585929873e+04 +3.7006021728857519e+05 +7.2744080502295136e+07 
+3.5499999999999954e+00 -5.2424125188321236e-01 +6.9275603957136562e+00 +4.6477150244685896e+00 -9.6208757319652307e+01 -1.1497671765248839e+04 +3.7056841540641745e+05 +7.2336804810816631e+07 
+3.5999999999999952e+00 -5.2426399349832642e-01 +6.9287706843400345e+00 +4.6190372512926494e+00 -9.6091516437951270e+01 -1.1424770272511225e+04 +3.7116310193949001e+05 +7.1907519371389523e+07 
+3.6499999999999950e+00 -5.2428700744516399e-01 +6.9299940724633968e+00 +4.5901371806193971e+00 -9.5982829382989280e+01 -1.1349304760580271e+04 +3.7184338383093633e+05 +7.1454715597420514e+07 
+3.6999999999999948e+00 -5.2431029188318323e-01 +6.9312304038323882e+00 +4.5610151174213245e+00 -9.5882570228582480e+01 -1.1271069880293040e+04 +3.7260836827039323e+05 +7.0976884874754310e+07 
+3.7499999999999947e+00 -5.2433384497184110e-01 +6.9324795221951172e+00 +4.5316713653730130e+00 -9.5790613031325847e+01 -1.1189860247237451e+04 +3.7345716232724575e+05 +7.0472518351558775e+07 
+3.7999999999999945e+00 -5.2435766487060231e-01 +6.9337412713005770e+00 +4.5021062291761558e+00 -9.5706831917198031e+01 -1.1105470506913131e+04 +3.7438887377082650e+05 +6.9940107380162954e+07 
+3.8499999999999943e+00 -5.2438174973894036e-01 +6.9350154948976179e+00 +4.4723200139519630e+00 -9.5631101034127184e+01 -1.1017695315841263e+04 +3.7540261066491459e+05 +6.9378143389130324e+07 
+3.8999999999999941e+00 -5.2440609773632929e-01 +6.9363020367330144e+00 +4.4423130239713648e+00 -9.5563294458210834e+01 -1.0926329304310439e+04 +3.7649748053229274e+05 +6.8785117611771911e+07 
+3.9499999999999940e+00 -5.2443070702225170e-01 +6.9376007405567757e+00 +4.4120855645527080e+00 -9.5503286433894203e+01 -1.0831167132143375e+04 +3.7767259241741715e+05 +6.8159521484506711e+07 
+3.9999999999999938e+00 -5.2445557575618540e-01 +6.9389114501177795e+00 +4.3816379395120215e+00 -9.5450951181146124e+01 -1.0732003418341696e+04 +3.7892705526236305e+05 +6.7499846164850146e+07 
+4.0499999999999936e+00 -5.2448070198218266e-01 +6.9402340090309504e+00 +4.3509731579693911e+00 -9.5406193597086158e+01 -1.0628730692125282e+04 +3.8025992626150337e+05 +6.6805261665008858e+07 
+4.0999999999999934e+00 -5.2450608328343351e-01 +6.9415682509280732e+00 +4.3201052945229126e+00 -9.5368897573124471e+01 -1.0521637454661386e+04 +3.8166917076341866e+05 +6.6077697157476343e+07 
+4.1499999999999932e+00 -5.2453171712816327e-01 +6.9429140045755764e+00 +4.2890512887326020e+00 -9.5338905695421303e+01 -1.0411112942653252e+04 +3.8315225127623923e+05 +6.5319786806003772e+07 
+4.1999999999999931e+00 -5.2455760098461091e-01 +6.9442710987325009e+00 +4.2578280823720647e+00 -9.5316060250313910e+01 -1.0297546452651566e+04 +3.8470662777798623e+05 +6.4534165185026266e+07 
+4.2499999999999929e+00 -5.2458373232101041e-01 +6.9456393621633961e+00 +4.2264526157719775e+00 -9.5300203736405322e+01 -1.0181327242083527e+04 +3.8632976192473591e+05 +6.3723466609542266e+07 
+4.2999999999999927e+00 -5.2461010860559432e-01 +6.9470186236260680e+00 +4.1949418289828122e+00 -9.5291178384593579e+01 -1.0062844560453590e+04 +3.8801911319141614e+05 +6.2890325338813625e+07 
+4.3499999999999925e+00 -5.2463672730659738e-01 +6.9484087118809494e+00 +4.1633126620755236e+00 -9.5288826526913738e+01 -9.9424876611911495e+03 +3.8977214182830264e+05 +6.2037375679989055e+07 
+4.3999999999999924e+00 -5.2466358589226281e-01 +6.9498094556857755e+00 +4.1315820563831283e+00 -9.5292990377314055e+01 -9.8206458285803001e+03 +3.9158630707832129e+05 +6.1167252135210544e+07 
+4.4499999999999922e+00 -5.2469068183083334e-01 +6.9512206837975876e+00 +4.0997669529325389e+00 -9.5303512121535960e+01 -9.6977083399863077e+03 +3.9345906792147720e+05 +6.0282589170867413e+07 
+4.4999999999999920e+00 -5.2471801259054662e-01 +6.9526422249736735e+00 +4.0678842913117714e+00 -9.5320233942478751e+01 -9.5740644299550331e+03 +3.9538788323558017e+05 +5.9386020951730616e+07 
+4.5499999999999918e+00 -5.2474557563964508e-01 +6.9540739079687715e+00 +4.0359510127892539e+00 -9.5342997930056143e+01 -9.4501033874060231e+03 +3.9737021116025437e+05 +5.8480182048550151e+07 
+4.5999999999999917e+00 -5.2477336844636946e-01 +6.9555155615371076e+00 +4.0039840575569103e+00 -9.5371646138049002e+01 -9.3262144652632542e+03 +3.9940350944233232e+05 +5.7567706764837489e+07 
+4.6499999999999915e+00 -5.2480138847896740e-01 +6.9569670144324443e+00 +3.9720003671008688e+00 -9.5406020604122503e+01 -9.2027869540590400e+03 +4.0148523567734018e+05 +5.6651229675500274e+07 
+4.6999999999999913e+00 -5.2482963320567899e-01 +6.9584280954071094e+00 +3.9400168816893877e+00 -9.5445963294429490e+01 -9.0802101105079582e+03 +4.0361284678902465e+05 +5.5733385124650329e+07 
+4.7499999999999911e+00 -5.2485810009474854e-01 +6.9598986332109707e+00 +3.9080505423193155e+00 -9.5491316080199724e+01 -8.9588732110817018e+03 +4.0578379891247780e+05 +5.4816807595035858e+07 
+4.7999999999999909e+00 -5.2488678661441390e-01 +6.9613784565946633e+00 +3.8761182888753356e+00 -9.5541920853070351e+01 -8.8391655016528384e+03 +4.0799554826369049e+05 +5.3904131365802526e+07 
+4.8499999999999908e+00 -5.2491569023292250e-01 +6.9628673943051611e+00 +3.8442370634183076e+00 -9.5597619356278429e+01 -8.7214762917357257e+03 +4.1024554980744608e+05 +5.2997991169865333e+07 
+4.8999999999999906e+00 -5.2494480841850744e-01 +6.9643652750910992e+00 +3.8124238055561768e+00 -9.5658253394820463e+01 -8.6061948211104045e+03 +4.1253125895443989e+05 +5.2101021257374898e+07 
+4.9499999999999904e+00 -5.2497413863941211e-01 +6.9658719276980863e+00 +3.7806954565830466e+00 -9.5723664642574263e+01 -8.4937103734485190e+03 +4.1485012995957694e+05 +5.1215856176705673e+07 
+4.9999999999999902e+00 -5.2500367836387785e-01 +6.9673871808701344e+00 +3.7490689579535155e+00 -9.5793694712874569e+01 -8.3844122395928371e+03 +4.1719961655527196e+05 +5.0345130538972728e+07 
+5.0499999999999901e+00 -5.2503342506013340e-01 +6.9689108633506081e+00 +3.7175612493626486e+00 -9.5868185175885785e+01 -8.2786896630466454e+03 +4.1957717200962373e+05 +4.9491478640367091e+07 
