# field on trajectory
# s[mm] rx[mm] ry[mm] rz[mm] bx[T] by[T] bz[T]
0.0000000000000000e+00 +8.5270000000000206e+00 +0.0000000000000000e+00 +0.0000000000000000e+00 -3.0958534456454148e-02 -5.7774376837924346e-01 +5.5856261975220202e-03
5.0000000000000003e-02 +8.5269999273587000e+00 +0.0000000000000000e+00 +5.1282051281982703e-02 -3.0958714182131981e-02 -5.7774576731986904e-01 +5.5862113222794677e-03
1.0000000000000001e-01 +8.5269997094401297e+00 +0.0000000000000000e+00 +1.0256410256355400e-01 -3.0958912482308070e-02 -5.7774818375096304e-01 +5.5868066640877108e-03
1.4999999999999999e-01 +8.5269993462388793e+00 +0.0000000000000000e+00 +1.5384615384430200e-01 -3.0959129462612384e-02 -5.7775101688696595e-01 +5.5874122175272357e-03
2.0000000000000001e-01 +8.5269988377622195e+00 +0.0000000000000000e+00 +2.0512820512381499e-01 -3.0959365228670828e-02 -5.7775426594224011e-01 +5.5880279771781029e-03
2.5000000000000000e-01 +8.5269981840028795e+00 +0.0000000000000000e+00 +2.5641025640168202e-01 -3.0959619886116573e-02 -5.7775793013127630e-01 +5.5886539376219556e-03
2.9999999999999999e-01 +8.5269973849644902e+00 +0.0000000000000000e+00 +3.0769230767749101e-01 -3.0959893540579493e-02 -5.7776200866849992e-01 +5.5892900934401109e-03
3.4999999999999998e-01 +8.5269964406470500e+00 +0.0000000000000000e+00 +3.5897435895083102e-01 -3.0960186297692260e-02 -5.7776650076838298e-01 +5.5899364392146380e-03
4.0000000000000002e-01 +8.5269953510505694e+00 +0.0000000000000000e+00 +4.1025641022129000e-01 -3.0960498263088856e-02 -5.7777140564541463e-01 +5.5905929695280803e-03
4.5000000000000001e-01 +8.5269941161714105e+00 +0.0000000000000000e+00 +4.6153846148845601e-01 -3.0960829542406046e-02 -5.7777672251412937e-01 +5.5912596789637024e-03
5.0000000000000000e-01 +8.5269927360132005e+00 +0.0000000000000000e+00 +5.1282051275191798e-01 -3.0961180241278984e-02 -5.7778245058902566e-01 +5.5919365621046862e-03
5.5000000000000004e-01 +8.5269912105795793e+00 +0.0000000000000000e+00 +5.6410256401126402e-01 -3.0961550465344132e-02 -5.7778858908461872e-01 +5.5926236135346507e-03
5.9999999999999998e-01 +8.5269895398632798e+00 +0.0000000000000000e+00 +6.1538461526608301e-01 -3.0961940320243932e-02 -5.7779513721552433e-01 +5.5933208278384433e-03
6.5000000000000002e-01 +8.5269877238679292e+00 +0.0000000000000000e+00 +6.6666666651596296e-01 -3.0962349911617646e-02 -5.7780209419629414e-01 +5.5940281996005245e-03
6.9999999999999996e-01 +8.5269857625899004e+00 +0.0000000000000000e+00 +7.1794871776049296e-01 -3.0962779345109097e-02 -5.7780945924155303e-01 +5.5947457234063027e-03
7.5000000000000000e-01 +8.5269836560364602e+00 +0.0000000000000000e+00 +7.6923076899926102e-01 -3.0963228726358934e-02 -5.7781723156585940e-01 +5.5954733938407691e-03
8.0000000000000004e-01 +8.5269814042003400e+00 +0.0000000000000000e+00 +8.2051282023185501e-01 -3.0963698161015407e-02 -5.7782541038390167e-01 +5.5962112054903784e-03
8.4999999999999998e-01 +8.5269790070851705e+00 +0.0000000000000000e+00 +8.7179487145786405e-01 -3.0964187754723729e-02 -5.7783399491030218e-01 +5.5969591529411618e-03
9.0000000000000002e-01 +8.5269764646909607e+00 +0.0000000000000000e+00 +9.2307692267687602e-01 -3.0964697613132169e-02 -5.7784298435972858e-01 +5.5977172307797645e-03
9.4999999999999996e-01 +8.5269737770140601e+00 +0.0000000000000000e+00 +9.7435897388848103e-01 -3.0965227841892061e-02 -5.7785237794689459e-01 +5.5984854335934687e-03
1.0000000000000000e+00 +8.5269709440617607e+00 +0.0000000000000000e+00 +1.0256410250922601e+00 -3.0965778546651800e-02 -5.7786217488644820e-01 +5.5992637559690904e-03
1.0500000000000000e+00 +8.5269679658304103e+00 +0.0000000000000000e+00 +1.0769230762878199e+00 -3.0966349833065905e-02 -5.7787237439313832e-01 +5.6000521924945788e-03
1.1000000000000001e+00 +8.5269648423163709e+00 +0.0000000000000000e+00 +1.1282051274747300e+00 -3.0966941806790580e-02 -5.7788297568173175e-01 +5.6008507377582175e-03
1.1499999999999999e+00 +8.5269615735232893e+00 +0.0000000000000000e+00 +1.1794871786525800e+00 -3.0967554573480615e-02 -5.7789397796695707e-01 +5.6016593863480492e-03
1.2000000000000000e+00 +8.5269581594511692e+00 +0.0000000000000000e+00 +1.2307692298209700e+00 -3.0968188238794013e-02 -5.7790538046358852e-01 +5.6024781328526899e-03
1.2500000000000000e+00 +8.5269546000999998e+00 +0.0000000000000000e+00 +1.2820512809794800e+00 -3.0968842908390495e-02 -5.7791718238641809e-01 +5.6033069718610558e-03
1.3000000000000000e+00 +8.5269508954661397e+00 +0.0000000000000000e+00 +1.3333333321277101e+00 -3.0969518687933021e-02 -5.7792938295028295e-01 +5.6041458979625989e-03
1.3500000000000001e+00 +8.5269470455568808e+00 +0.0000000000000000e+00 +1.3846153832652299e+00 -3.0970215683081771e-02 -5.7794198136995534e-01 +5.6049949057462422e-03
1.3999999999999999e+00 +8.5269430503649293e+00 +0.0000000000000000e+00 +1.4358974343916400e+00 -3.0970933999504732e-02 -5.7795497686033492e-01 +5.6058539898022385e-03
1.4500000000000000e+00 +8.5269389098939392e+00 +0.0000000000000000e+00 +1.4871794855065199e+00 -3.0971673742867196e-02 -5.7796836863625645e-01 +5.6067231447202836e-03
1.5000000000000000e+00 +8.5269346241439106e+00 +0.0000000000000000e+00 +1.5384615366094700e+00 -3.0972435018837768e-02 -5.7798215591259960e-01 +5.6076023650905747e-03
1.5500000000000000e+00 +8.5269301931148203e+00 +0.0000000000000000e+00 +1.5897435877000701e+00 -3.0973217933086925e-02 -5.7799633790426208e-01 +5.6084916455035440e-03
1.6000000000000001e+00 +8.5269256168030605e+00 +0.0000000000000000e+00 +1.6410256387779201e+00 -3.0974022591288532e-02 -5.7801091382618652e-01 +5.6093909805501026e-03
1.6499999999999999e+00 +8.5269208952158806e+00 +0.0000000000000000e+00 +1.6923076898425899e+00 -3.0974849099113803e-02 -5.7802588289325008e-01 +5.6103003648205656e-03
1.7000000000000000e+00 +8.5269160283460206e+00 +0.0000000000000000e+00 +1.7435897408936800e+00 -3.0975697562241954e-02 -5.7804124432045756e-01 +5.6112197929065154e-03
1.7500000000000000e+00 +8.5269110161934805e+00 +0.0000000000000000e+00 +1.7948717919307799e+00 -3.0976568086351072e-02 -5.7805699732277727e-01 +5.6121492593991839e-03
1.8000000000000000e+00 +8.5269058587655309e+00 +0.0000000000000000e+00 +1.8461538429534701e+00 -3.0977460777118260e-02 -5.7807314111513797e-01 +5.6130887588894318e-03
1.8500000000000001e+00 +8.5269005560585391e+00 +0.0000000000000000e+00 +1.8974358939613500e+00 -3.0978375740227135e-02 -5.7808967491257013e-01 +5.6140382859690991e-03
1.8999999999999999e+00 +8.5268951080688602e+00 +0.0000000000000000e+00 +1.9487179449540000e+00 -3.0979313081363303e-02 -5.7810659793012087e-01 +5.6149978352301776e-03
1.9500000000000000e+00 +8.5268895148037700e+00 +0.0000000000000000e+00 +1.9999999959310100e+00 -3.0980272906209923e-02 -5.7812390938277225e-01 +5.6159674012639885e-03
2.0000000000000000e+00 +8.5268838253941794e+00 +0.0000000000000000e+00 +2.0508474532398102e+00 -3.0981246862409540e-02 -5.7814145659407046e-01 +5.6169386208749670e-03
2.0499999999999998e+00 +8.5268779929429002e+00 +0.0000000000000000e+00 +2.1016949105324101e+00 -3.0982242905798985e-02 -5.7815938250866139e-01 +5.6179195921541884e-03
2.1000000000000001e+00 +8.5268720174499304e+00 +0.0000000000000000e+00 +2.1525423678083899e+00 -3.0983260915328020e-02 -5.7817768472054021e-01 +5.6189102243543818e-03
2.1499999999999999e+00 +8.5268658989189099e+00 +0.0000000000000000e+00 +2.2033898250673700e+00 -3.0984300769945294e-02 -5.7819636082368919e-01 +5.6199104267284031e-03
2.2000000000000002e+00 +8.5268596373498404e+00 +0.0000000000000000e+00 +2.2542372823089400e+00 -3.0985362348601261e-02 -5.7821540841213137e-01 +5.6209201085297786e-03
2.2500000000000000e+00 +8.5268532327390893e+00 +0.0000000000000000e+00 +2.3050847395326799e+00 -3.0986445530248076e-02 -5.7823482507993207e-01 +5.6219391790127147e-03
2.2999999999999998e+00 +8.5268466850902804e+00 +0.0000000000000000e+00 +2.3559321967382099e+00 -3.0987550193835034e-02 -5.7825460842111531e-01 +5.6229675474312960e-03
2.3500000000000001e+00 +8.5268399943961395e+00 +0.0000000000000000e+00 +2.4067796539251201e+00 -3.0988676218316007e-02 -5.7827475602979983e-01 +5.6240051230408289e-03
2.3999999999999999e+00 +8.5268331606675893e+00 +0.0000000000000000e+00 +2.4576271110930099e+00 -3.0989823482637291e-02 -5.7829526549998034e-01 +5.6250518150957008e-03
2.4500000000000002e+00 +8.5268261838973594e+00 +0.0000000000000000e+00 +2.5084745682414700e+00 -3.0990991865752680e-02 -5.7831613442580287e-01 +5.6261075328520845e-03
2.5000000000000000e+00 +8.5268190640890698e+00 +0.0000000000000000e+00 +2.5593220253701001e+00 -3.0992181246611281e-02 -5.7833736040134354e-01 +5.6271721855657786e-03
2.5499999999999998e+00 +8.5268118012427294e+00 +0.0000000000000000e+00 +2.6101694824785100e+00 -3.0993391504163456e-02 -5.7835894102071783e-01 +5.6282456824933071e-03
2.6000000000000001e+00 +8.5268043953510606e+00 +0.0000000000000000e+00 +2.6610169395662799e+00 -3.0994622517362340e-02 -5.7838087387811088e-01 +5.6293279328921957e-03
2.6499999999999999e+00 +8.5267968464213499e+00 +0.0000000000000000e+00 +2.7118643966330200e+00 -3.0995874165154570e-02 -5.7840315656760743e-01 +5.6304188460193239e-03
2.7000000000000002e+00 +8.5267891544535797e+00 +0.0000000000000000e+00 +2.7627118536783102e+00 -3.0997146326489401e-02 -5.7842578668336142e-01 +5.6315183311326017e-03
2.7500000000000000e+00 +8.5267813194441295e+00 +0.0000000000000000e+00 +2.8135593107017698e+00 -3.0998438880317079e-02 -5.7844876181956584e-01 +5.6326262974906709e-03
2.7999999999999998e+00 +8.5267733413966198e+00 +0.0000000000000000e+00 +2.8644067677029899e+00 -3.0999751705584208e-02 -5.7847207957037028e-01 +5.6337426543521243e-03
2.8500000000000001e+00 +8.5267652203074196e+00 +0.0000000000000000e+00 +2.9152542246815600e+00 -3.1001084681239750e-02 -5.7849573752999106e-01 +5.6348673109765770e-03
2.8999999999999999e+00 +8.5267569561765395e+00 +0.0000000000000000e+00 +2.9661016816370900e+00 -3.1002437686230424e-02 -5.7851973329262907e-01 +5.6360001766238661e-03
2.9500000000000002e+00 +8.5267485490112396e+00 +0.0000000000000000e+00 +3.0169491385691698e+00 -3.1003810599499079e-02 -5.7854406445244044e-01 +5.6371411605537856e-03
3.0000000000000000e+00 +8.5267399988042598e+00 +0.0000000000000000e+00 +3.0677965954773900e+00 -3.1005203299993751e-02 -5.7856872860370356e-01 +5.6382901720277261e-03
3.0499999999999998e+00 +8.5267313055555896e+00 +0.0000000000000000e+00 +3.1186440523613599e+00 -3.1006615666658466e-02 -5.7859372334065262e-01 +5.6394471203070479e-03
3.1000000000000001e+00 +8.5267224692688597e+00 +0.0000000000000000e+00 +3.1694915092206801e+00 -3.1008047578434703e-02 -5.7861904625750493e-01 +5.6406119146533646e-03
3.1499999999999999e+00 +8.5267134899368102e+00 +0.0000000000000000e+00 +3.2203389660549400e+00 -3.1009498914267387e-02 -5.7864469494857118e-01 +5.6417844643296229e-03
3.2000000000000002e+00 +8.5267043675703498e+00 +0.0000000000000000e+00 +3.2711864228637300e+00 -3.1010969553092640e-02 -5.7867066700803449e-01 +5.6429646785979464e-03
3.2500000000000000e+00 +8.5266951021658297e+00 +0.0000000000000000e+00 +3.3220338796466700e+00 -3.1012459373851411e-02 -5.7869696003019899e-01 +5.6441524667220910e-03
3.2999999999999998e+00 +8.5266856937196298e+00 +0.0000000000000000e+00 +3.3728813364033301e+00 -3.1013968255483325e-02 -5.7872357160937882e-01 +5.6453477379663584e-03
3.3500000000000001e+00 +8.5266761422317394e+00 +0.0000000000000000e+00 +3.4237287931333298e+00 -3.1015496076925074e-02 -5.7875049933987066e-01 +5.6465504015953336e-03
3.3999999999999999e+00 +8.5266664477057894e+00 +0.0000000000000000e+00 +3.4745762498362600e+00 -3.1017042717110338e-02 -5.7877774081595335e-01 +5.6477603668738836e-03
3.4500000000000002e+00 +8.5266566101381596e+00 +0.0000000000000000e+00 +3.5254237065117100e+00 -3.1018608054974302e-02 -5.7880529363197064e-01 +5.6489775430679920e-03
3.5000000000000000e+00 +8.5266466295324808e+00 +0.0000000000000000e+00 +3.5762711631592898e+00 -3.1020191969447466e-02 -5.7883315538222013e-01 +5.6502018394436670e-03
3.5499999999999998e+00 +8.5266365058887494e+00 +0.0000000000000000e+00 +3.6271186197785901e+00 -3.1021794339460156e-02 -5.7886132366103704e-01 +5.6514331652677691e-03
3.6000000000000001e+00 +8.5266262391996896e+00 +0.0000000000000000e+00 +3.6779660763692101e+00 -3.1023415043943962e-02 -5.7888979606282043e-01 +5.6526714298083050e-03
3.6499999999999999e+00 +8.5266158294762100e+00 +0.0000000000000000e+00 +3.7288135329307499e+00 -3.1025053961821029e-02 -5.7891857018184067e-01 +5.6539165423324907e-03
3.6999999999999900e+00 +8.5266052767074108e+00 +0.0000000000000000e+00 +3.7796609894627999e+00 -3.1026710972020685e-02 -5.7894764361254236e-01 +5.6551684121097920e-03
3.7499999999999898e+00 +8.5265945809042005e+00 +0.0000000000000000e+00 +3.8305084459649699e+00 -3.1028385953461163e-02 -5.7897701394921319e-01 +5.6564269484086389e-03
3.7999999999999901e+00 +8.5265837420592998e+00 +0.0000000000000000e+00 +3.8813559024368498e+00 -3.1030078785066202e-02 -5.7900667878628698e-01 +5.6576920604994403e-03
3.8499999999999899e+00 +8.5265727601727104e+00 +0.0000000000000000e+00 +3.9322033588780299e+00 -3.1031789345754384e-02 -5.7903663571815178e-01 +5.6589636576526835e-03
3.8999999999999901e+00 +8.5265616352480702e+00 +0.0000000000000000e+00 +3.9830508152881201e+00 -3.1033517514440542e-02 -5.7906688233917469e-01 +5.6602416491392041e-03
3.9499999999999900e+00 +8.5265503672853793e+00 +0.0000000000000000e+00 +4.0338982716667102e+00 -3.1035263157158047e-02 -5.7909741621047106e-01 +5.6615259446843660e-03
3.9999999999999898e+00 +8.5265389562773599e+00 +0.0000000000000000e+00 +4.0847457280134103e+00 -3.1037025990203436e-02 -5.7912823450624296e-01 +5.6628164592879959e-03
4.0499999999999901e+00 +8.5265274022313005e+00 +0.0000000000000000e+00 +4.1355931843278002e+00 -3.1038805633262129e-02 -5.7915933415092202e-01 +5.6641131113510769e-03
4.0999999999999899e+00 +8.5265157051508105e+00 +0.0000000000000000e+00 +4.1864406406094901e+00 -3.1040601704412110e-02 -5.7919071206480721e-01 +5.6654158193315081e-03
4.1499999999999897e+00 +8.5265038650250098e+00 +0.0000000000000000e+00 +4.2372880968580704e+00 -3.1042413821738675e-02 -5.7922236516830816e-01 +5.6667245016882063e-03
4.1999999999999904e+00 +8.5264918818611495e+00 +0.0000000000000000e+00 +4.2881355530731398e+00 -3.1044241603320651e-02 -5.7925429038169562e-01 +5.6680390768786022e-03
4.2499999999999902e+00 +8.5264797556556005e+00 +0.0000000000000000e+00 +4.3389830092543002e+00 -3.1046084667242735e-02 -5.7928648462532306e-01 +5.6693594633608355e-03
4.2999999999999901e+00 +8.5264674864120007e+00 +0.0000000000000000e+00 +4.3898304654011504e+00 -3.1047942631587881e-02 -5.7931894481948765e-01 +5.6706855795923610e-03
4.3499999999999899e+00 +8.5264550741303502e+00 +0.0000000000000000e+00 +4.4406779215132799e+00 -3.1049815114441864e-02 -5.7935166788451242e-01 +5.6720173440307654e-03
4.3999999999999897e+00 +8.5264425188070199e+00 +0.0000000000000000e+00 +4.4915253775902899e+00 -3.1051701733893381e-02 -5.7938465074074708e-01 +5.6733546751337434e-03
4.4499999999999904e+00 +8.5264298204419902e+00 +0.0000000000000000e+00 +4.5423728336317897e+00 -3.1053602108030976e-02 -5.7941789030851043e-01 +5.6746974913585374e-03
4.4999999999999902e+00 +8.5264169790425495e+00 +0.0000000000000000e+00 +4.5932202896373502e+00 -3.1055515854941606e-02 -5.7945138350806380e-01 +5.6760457111616376e-03
4.5499999999999901e+00 +8.5264039945941494e+00 +0.0000000000000000e+00 +4.6440677456066002e+00 -3.1057442592722872e-02 -5.7948512725983314e-01 +5.6773992530009974e-03
4.5999999999999899e+00 +8.5263908671149693e+00 +0.0000000000000000e+00 +4.6949152015391098e+00 -3.1059381939460111e-02 -5.7951911848398918e-01 +5.6787580353318328e-03
4.6499999999999897e+00 +8.5263775965941004e+00 +0.0000000000000000e+00 +4.7457626574344998e+00 -3.1061333513252461e-02 -5.7955335410092212e-01 +5.6801219766113541e-03
4.6999999999999904e+00 +8.5263641830315500e+00 +0.0000000000000000e+00 +4.7966101132923500e+00 -3.1063296932196040e-02 -5.7958783103093559e-01 +5.6814909952956783e-03
4.7499999999999902e+00 +8.5263506264309399e+00 +0.0000000000000000e+00 +4.8474575691122697e+00 -3.1065271814387094e-02 -5.7962254619429987e-01 +5.6828650098403695e-03
4.7999999999999901e+00 +8.5263369267886393e+00 +0.0000000000000000e+00 +4.8983050248938502e+00 -3.1067257777926561e-02 -5.7965749651133647e-01 +5.6842439387012750e-03
4.8499999999999899e+00 +8.5263230841010191e+00 +0.0000000000000000e+00 +4.9491524806366902e+00 -3.1069254440917096e-02 -5.7969267890236176e-01 +5.6856277003339293e-03
4.8999999999999897e+00 +8.5263090983826295e+00 +0.0000000000000000e+00 +4.9999999363403900e+00 -3.1071261421455412e-02 -5.7972809028754690e-01 +5.6870162131921536e-03
4.9499999999999904e+00 +8.5262950649157592e+00 +0.0000000000000000e+00 +5.0505049848957304e+00 -3.1073264723482090e-02 -5.7976348685926726e-01 +5.6883999986203785e-03
4.9999999999999902e+00 +8.5262808896768494e+00 +0.0000000000000000e+00 +5.1010100334114901e+00 -3.1075277453846070e-02 -5.7979910330019724e-01 +5.6897883111908885e-03
5.0499999999999901e+00 +8.5262665726659197e+00 +0.0000000000000000e+00 +5.1515150818872497e+00 -3.1077299238318930e-02 -5.7983493659240237e-01 +5.6911810709940223e-03
5.0999999999999899e+00 +8.5262521138793108e+00 +0.0000000000000000e+00 +5.2020201303226203e+00 -3.1079329702675625e-02 -5.7987098371796986e-01 +5.6925781981200345e-03
5.1499999999999897e+00 +8.5262375133206696e+00 +0.0000000000000000e+00 +5.2525251787172103e+00 -3.1081368472689941e-02 -5.7990724165892504e-01 +5.6939796126582350e-03
5.1999999999999904e+00 +8.5262227709863492e+00 +0.0000000000000000e+00 +5.3030302270706198e+00 -3.1083415174140590e-02 -5.7994370739733969e-01 +5.6953852346981002e-03
5.2499999999999902e+00 +8.5262078868836397e+00 +0.0000000000000000e+00 +5.3535352753824403e+00 -3.1085469432803658e-02 -5.7998037791519474e-01 +5.6967949843278482e-03
5.2999999999999901e+00 +8.5261928610125306e+00 +0.0000000000000000e+00 +5.4040403236522803e+00 -3.1087530874460242e-02 -5.8001725019451777e-01 +5.6982087816358383e-03
5.3499999999999899e+00 +8.5261776933584805e+00 +0.0000000000000000e+00 +5.4545453718797399e+00 -3.1089599124899624e-02 -5.8005432121744083e-01 +5.6996265467111193e-03
5.3999999999999897e+00 +8.5261623839360308e+00 +0.0000000000000000e+00 +5.5050504200644301e+00 -3.1091673809900865e-02 -5.8009158796586258e-01 +5.7010481996400226e-03
5.4499999999999904e+00 +8.5261469327415398e+00 +0.0000000000000000e+00 +5.5555554682059496e+00 -3.1093754555252720e-02 -5.8012904742181193e-01 +5.7024736605098226e-03
5.4999999999999902e+00 +8.5261313397750200e+00 +0.0000000000000000e+00 +5.6060605163038897e+00 -3.1095840986744623e-02 -5.8016669656727982e-01 +5.7039028494070311e-03
5.5499999999999901e+00 +8.5261156050328299e+00 +0.0000000000000000e+00 +5.6565655643578596e+00 -3.1097932730169611e-02 -5.8020453238427572e-01 +5.7053356864179292e-03
5.5999999999999899e+00 +8.5260997285186004e+00 +0.0000000000000000e+00 +5.7070706123674597e+00 -3.1100029411319910e-02 -5.8024255185474183e-01 +5.7067720916277338e-03
5.6499999999999897e+00 +8.5260837102287006e+00 +0.0000000000000000e+00 +5.7575756603323001e+00 -3.1102130655993009e-02 -5.8028075196066553e-01 +5.7082119851216903e-03
5.6999999999999904e+00 +8.5260675501704100e+00 +0.0000000000000000e+00 +5.8080807082519703e+00 -3.1104236089984048e-02 -5.8031912968393917e-01 +5.7096552869836462e-03
5.7499999999999902e+00 +8.5260512483400799e+00 +0.0000000000000000e+00 +5.8585857561260797e+00 -3.1106345339095117e-02 -5.8035768200652815e-01 +5.7111019172977470e-03
5.7999999999999901e+00 +8.5260348047340795e+00 +0.0000000000000000e+00 +5.9090908039542303e+00 -3.1108458029130585e-02 -5.8039640591038388e-01 +5.7125517961475634e-03
5.8499999999999899e+00 +8.5260182193524106e+00 +0.0000000000000000e+00 +5.9595958517360303e+00 -3.1110573785895712e-02 -5.8043529837741947e-01 +5.7140048436157874e-03
5.8999999999999897e+00 +8.5260014921987004e+00 +0.0000000000000000e+00 +6.0101008994710599e+00 -3.1112692235676760e-02 -5.8047435638962419e-01 +5.7154609797334570e-03
