# field on trajectory
# s[mm] rx[mm] ry[mm] rz[mm] bx[T] by[T] bz[T]
0.0000000000000000e+00 +8.5269999999999992e+00 +0.0000000000000000e+00 +0.0000000000000000e+00 -2.8764087422164141e-02 -5.5065226663374289e-01 +5.6646631713877550e-03
-5.0000000000000003e-02 +8.5269999310002031e+00 +0.0000000000000000e+00 -4.9999999999936526e-02 -2.8764397065902135e-02 -5.5065239587884229e-01 +5.6651072018256846e-03
-1.0000000000000001e-01 +8.5269997240007775e+00 +0.0000000000000000e+00 -9.9999999999492176e-02 -2.8764727787202078e-02 -5.5065291679312367e-01 +5.6655512530877456e-03
-1.5000000000000002e-01 +8.5269993790015910e+00 +0.0000000000000000e+00 -1.4999999999828606e-01 -2.8765079592558997e-02 -5.5065382858552880e-01 +5.6659953041433425e-03
-2.0000000000000001e-01 +8.5269988960024161e+00 +0.0000000000000000e+00 -1.9999999999593732e-01 -2.8765452488468766e-02 -5.5065513046501746e-01 +5.6664393339616679e-03
-2.5000000000000000e-01 +8.5269982750029261e+00 +0.0000000000000000e+00 -2.4999999999206504e-01 -2.8765846481428048e-02 -5.5065682164056740e-01 +5.6668833215117124e-03
-2.9999999999999999e-01 +8.5269975160026981e+00 +0.0000000000000000e+00 -2.9999999998628835e-01 -2.8766261577934438e-02 -5.5065890132117423e-01 +5.6673272457622844e-03
-3.4999999999999998e-01 +8.5269966190012099e+00 +0.0000000000000000e+00 -3.4999999997822634e-01 -2.8766697784486456e-02 -5.5066136871585247e-01 +5.6677710856820173e-03
-3.9999999999999997e-01 +8.5269955839978433e+00 +0.0000000000000000e+00 -3.9999999996749813e-01 -2.8767155107583653e-02 -5.5066422303363394e-01 +5.6682148202393898e-03
-4.4999999999999996e-01 +8.5269944109918825e+00 +0.0000000000000000e+00 -4.4999999995372286e-01 -2.8767633553726569e-02 -5.5066746348356854e-01 +5.6686584284027335e-03
-4.9999999999999994e-01 +8.5269930999825174e+00 +0.0000000000000000e+00 -4.9999999993651956e-01 -2.8768133129416874e-02 -5.5067108927472430e-01 +5.6691018891402486e-03
-5.4999999999999993e-01 +8.5269916509688368e+00 +0.0000000000000000e+00 -5.4999999991550730e-01 -2.8768653841157343e-02 -5.5067509961618666e-01 +5.6695451814200116e-03
-5.9999999999999998e-01 +8.5269900639498371e+00 +0.0000000000000000e+00 -5.9999999989030517e-01 -2.8769195695451978e-02 -5.5067949371705915e-01 +5.6699882842100036e-03
-6.5000000000000002e-01 +8.5269883389244168e+00 +0.0000000000000000e+00 -6.4999999986053214e-01 -2.8769758698805964e-02 -5.5068427078646365e-01 +5.6704311764780987e-03
-7.0000000000000007e-01 +8.5269864758913787e+00 +0.0000000000000000e+00 -6.9999999982580730e-01 -2.8770342857725804e-02 -5.5068943003353854e-01 +5.6708738371921037e-03
-7.5000000000000011e-01 +8.5269844748494297e+00 +0.0000000000000000e+00 -7.4999999978574972e-01 -2.8770948178719336e-02 -5.5069497066744078e-01 +5.6713162453197585e-03
-8.0000000000000016e-01 +8.5269823357971823e+00 +0.0000000000000000e+00 -7.9999999973997837e-01 -2.8771574668295753e-02 -5.5070089189734428e-01 +5.6717583798287429e-03
-8.5000000000000020e-01 +8.5269800587331517e+00 +0.0000000000000000e+00 -8.4999999968811224e-01 -2.8772222332965679e-02 -5.5070719293244164e-01 +5.6722002196867042e-03
-9.0000000000000024e-01 +8.5269776436557585e+00 +0.0000000000000000e+00 -8.9999999962977040e-01 -2.8772891179241263e-02 -5.5071387298194197e-01 +5.6726417438612625e-03
-9.5000000000000029e-01 +8.5269750905633295e+00 +0.0000000000000000e+00 -9.4999999956457171e-01 -2.8773581213636094e-02 -5.5072093125507215e-01 +5.6730829313200249e-03
-1.0000000000000002e+00 +8.5269723994540954e+00 +0.0000000000000000e+00 -9.9999999949213514e-01 -2.8774292442665408e-02 -5.5072836696107674e-01 +5.6735237610305959e-03
-1.0500000000000003e+00 +8.5269695703261927e+00 +0.0000000000000000e+00 -1.0499999994120797e+00 -2.8775024872846017e-02 -5.5073617930921714e-01 +5.6739642119605993e-03
-1.1000000000000003e+00 +8.5269666031776641e+00 +0.0000000000000000e+00 -1.0999999993240241e+00 -2.8775778510696438e-02 -5.5074436750877276e-01 +5.6744042630776804e-03
-1.1500000000000004e+00 +8.5269634980064577e+00 +0.0000000000000000e+00 -1.1499999992275873e+00 -2.8776553362736879e-02 -5.5075293076904031e-01 +5.6748438933495295e-03
-1.2000000000000004e+00 +8.5269602548104277e+00 +0.0000000000000000e+00 -1.1999999991223882e+00 -2.8777349435489326e-02 -5.5076186829933260e-01 +5.6752830817438865e-03
-1.2500000000000004e+00 +8.5269568735873325e+00 +0.0000000000000000e+00 -1.2499999990080457e+00 -2.8778166735477579e-02 -5.5077117930898178e-01 +5.6757218072285634e-03
-1.3000000000000005e+00 +8.5269533543348395e+00 +0.0000000000000000e+00 -1.2999999988841784e+00 -2.8779005269227297e-02 -5.5078086300733486e-01 +5.6761600487714430e-03
-1.3500000000000005e+00 +8.5269496970505223e+00 +0.0000000000000000e+00 -1.3499999987504052e+00 -2.8779865043266063e-02 -5.5079091860375717e-01 +5.6765977853405142e-03
-1.4000000000000006e+00 +8.5269459017318621e+00 +0.0000000000000000e+00 -1.3999999986063449e+00 -2.8780746064123407e-02 -5.5080134530763158e-01 +5.6770349959038612e-03
-1.4500000000000006e+00 +8.5269419683762440e+00 +0.0000000000000000e+00 -1.4499999984516163e+00 -2.8781648338330881e-02 -5.5081214232835707e-01 +5.6774716594296957e-03
-1.5000000000000007e+00 +8.5269378969809626e+00 +0.0000000000000000e+00 -1.4999999982858379e+00 -2.8782571872422079e-02 -5.5082330887534958e-01 +5.6779077548863559e-03
-1.5500000000000007e+00 +8.5269336875432202e+00 +0.0000000000000000e+00 -1.5499999981086283e+00 -2.8783516672932719e-02 -5.5083484415804296e-01 +5.6783432612423348e-03
-1.6000000000000008e+00 +8.5269293400601249e+00 +0.0000000000000000e+00 -1.5999999979196065e+00 -2.8784482746400650e-02 -5.5084674738588679e-01 +5.6787781574662768e-03
-1.6500000000000008e+00 +8.5269248545286942e+00 +0.0000000000000000e+00 -1.6499999977183906e+00 -2.8785470099365957e-02 -5.5085901776834845e-01 +5.6792124225270050e-03
-1.7000000000000008e+00 +8.5269202309458532e+00 +0.0000000000000000e+00 -1.6999999975045994e+00 -2.8786478738370938e-02 -5.5087165451491149e-01 +5.6796460353935275e-03
-1.7500000000000009e+00 +8.5269154693084346e+00 +0.0000000000000000e+00 -1.7499999972778517e+00 -2.8787508669960216e-02 -5.5088465683507648e-01 +5.6800789750350500e-03
-1.8000000000000009e+00 +8.5269105696131806e+00 +0.0000000000000000e+00 -1.7999999970377658e+00 -2.8788559900680761e-02 -5.5089802393836029e-01 +5.6805112204209940e-03
-1.8500000000000010e+00 +8.5269055318567410e+00 +0.0000000000000000e+00 -1.8499999967839600e+00 -2.8789632437081925e-02 -5.5091175503429768e-01 +5.6809427505210052e-03
-1.9000000000000010e+00 +8.5269003560356751e+00 +0.0000000000000000e+00 -1.8999999965160528e+00 -2.8790726285715516e-02 -5.5092584933243816e-01 +5.6813735443049683e-03
-1.9500000000000011e+00 +8.5268950421464513e+00 +0.0000000000000000e+00 -1.9499999962336627e+00 -2.8791841453135833e-02 -5.5094030604234956e-01 +5.6818035807430214e-03
-2.0000000000000009e+00 +8.5268895901854442e+00 +0.0000000000000000e+00 -1.9999999959364081e+00 -2.8792977945899721e-02 -5.5095512437361527e-01 +5.6822328388055690e-03
-2.0500000000000007e+00 +8.5268840001489430e+00 +0.0000000000000000e+00 -2.0499999956239070e+00 -2.8794135736760641e-02 -5.5097030331664865e-01 +5.6826612978603096e-03
-2.1000000000000005e+00 +8.5268782720331426e+00 +0.0000000000000000e+00 -2.0999999952957782e+00 -2.8795314663250048e-02 -5.5098584098513381e-01 +5.6830889388631576e-03
-2.1500000000000004e+00 +8.5268724058341476e+00 +0.0000000000000000e+00 -2.1499999949516395e+00 -2.8796514529093906e-02 -5.5100173527358021e-01 +5.6835157431669682e-03
-2.2000000000000002e+00 +8.5268664015479771e+00 +0.0000000000000000e+00 -2.1999999945911091e+00 -2.8797735138018438e-02 -5.5101798407651037e-01 +5.6839416921244711e-03
-2.2500000000000000e+00 +8.5268602591705580e+00 +0.0000000000000000e+00 -2.2499999942138054e+00 -2.8798976293749931e-02 -5.5103458528845728e-01 +5.6843667670882720e-03
-2.2999999999999998e+00 +8.5268539786977300e+00 +0.0000000000000000e+00 -2.2999999938193461e+00 -2.8800237800014786e-02 -5.5105153680396735e-01 +5.6847909494108289e-03
-2.3499999999999996e+00 +8.5268475601252458e+00 +0.0000000000000000e+00 -2.3499999934073497e+00 -2.8801519460539309e-02 -5.5106883651759675e-01 +5.6852142204444457e-03
-2.3999999999999995e+00 +8.5268410034487694e+00 +0.0000000000000000e+00 -2.3999999929774338e+00 -2.8802821079049679e-02 -5.5108648232391377e-01 +5.6856365615412623e-03
-2.4499999999999993e+00 +8.5268343086638776e+00 +0.0000000000000000e+00 -2.4499999925292166e+00 -2.8804142459271827e-02 -5.5110447211749691e-01 +5.6860579540532448e-03
-2.4999999999999991e+00 +8.5268274757660638e+00 +0.0000000000000000e+00 -2.4999999920623157e+00 -2.8805483404931390e-02 -5.5112280379293532e-01 +5.6864783793321655e-03
-2.5499999999999989e+00 +8.5268205047507326e+00 +0.0000000000000000e+00 -2.5499999915763492e+00 -2.8806843719753557e-02 -5.5114147524482804e-01 +5.6868978187296030e-03
-2.5999999999999988e+00 +8.5268133956132051e+00 +0.0000000000000000e+00 -2.5999999910709350e+00 -2.8808223207463034e-02 -5.5116048436778442e-01 +5.6873162535969269e-03
-2.6499999999999986e+00 +8.5268061483487188e+00 +0.0000000000000000e+00 -2.6499999905456906e+00 -2.8809621671783903e-02 -5.5117982905642338e-01 +5.6877336652852830e-03
-2.6999999999999984e+00 +8.5267987629524242e+00 +0.0000000000000000e+00 -2.6999999900002338e+00 -2.8811038916439595e-02 -5.5119950720537325e-01 +5.6881500351455890e-03
-2.7499999999999982e+00 +8.5267912394193903e+00 +0.0000000000000000e+00 -2.7499999894341824e+00 -2.8812474745152722e-02 -5.5121951670927094e-01 +5.6885653445285138e-03
-2.7999999999999980e+00 +8.5267835777446042e+00 +0.0000000000000000e+00 -2.7999999888471541e+00 -2.8813928961645030e-02 -5.5123985546276288e-01 +5.6889795747844685e-03
-2.8499999999999979e+00 +8.5267757779229658e+00 +0.0000000000000000e+00 -2.8499999882387659e+00 -2.8815401369637346e-02 -5.5126052136050374e-01 +5.6893927072636146e-03
-2.8999999999999977e+00 +8.5267678399492990e+00 +0.0000000000000000e+00 -2.8999999876086355e+00 -2.8816891772849382e-02 -5.5128151229715627e-01 +5.6898047233158201e-03
-2.9499999999999975e+00 +8.5267597638183421e+00 +0.0000000000000000e+00 -2.9499999869563807e+00 -2.8818399974999732e-02 -5.5130282616739135e-01 +5.6902156042906741e-03
-2.9999999999999973e+00 +8.5267515495247537e+00 +0.0000000000000000e+00 -2.9999999862816185e+00 -2.8819925779805758e-02 -5.5132446086588727e-01 +5.6906253315374602e-03
-3.0499999999999972e+00 +8.5267431970631122e+00 +0.0000000000000000e+00 -3.0499999855839666e+00 -2.8821468990983465e-02 -5.5134641428733022e-01 +5.6910338864051575e-03
-3.0999999999999970e+00 +8.5267347064279146e+00 +0.0000000000000000e+00 -3.0999999848630417e+00 -2.8823029412247497e-02 -5.5136868432641295e-01 +5.6914412502424225e-03
-3.1499999999999968e+00 +8.5267260776135814e+00 +0.0000000000000000e+00 -3.1499999841184616e+00 -2.8824606847310912e-02 -5.5139126887783574e-01 +5.6918474043975743e-03
-3.1999999999999966e+00 +8.5267173106144529e+00 +0.0000000000000000e+00 -3.1999999833498429e+00 -2.8826201099885221e-02 -5.5141416583630465e-01 +5.6922523302185956e-03
-3.2499999999999964e+00 +8.5267084054247899e+00 +0.0000000000000000e+00 -3.2499999825568029e+00 -2.8827811973680215e-02 -5.5143737309653229e-01 +5.6926560090531037e-03
-3.2999999999999963e+00 +8.5266993620387765e+00 +0.0000000000000000e+00 -3.2999999817389587e+00 -2.8829439272403917e-02 -5.5146088855323772e-01 +5.6930584222483586e-03
-3.3499999999999961e+00 +8.5266901804505206e+00 +0.0000000000000000e+00 -3.3499999808959271e+00 -2.8831082799762455e-02 -5.5148471010114519e-01 +5.6934595511512389e-03
-3.3999999999999959e+00 +8.5266808606540518e+00 +0.0000000000000000e+00 -3.3999999800273253e+00 -2.8832742359459991e-02 -5.5150883563498443e-01 +5.6938593771082343e-03
-3.4499999999999957e+00 +8.5266714026433252e+00 +0.0000000000000000e+00 -3.4499999791327696e+00 -2.8834417755198651e-02 -5.5153326304949080e-01 +5.6942578814654365e-03
-3.4999999999999956e+00 +8.5266618064122177e+00 +0.0000000000000000e+00 -3.4999999782118771e+00 -2.8836108790678380e-02 -5.5155799023940377e-01 +5.6946550455685288e-03
-3.5499999999999954e+00 +8.5266520719545333e+00 +0.0000000000000000e+00 -3.5499999772642647e+00 -2.8837815269596907e-02 -5.5158301509946828e-01 +5.6950508507627572e-03
-3.5999999999999952e+00 +8.5266421992639998e+00 +0.0000000000000000e+00 -3.5999999762895487e+00 -2.8839536995649593e-02 -5.5160833552443278e-01 +5.6954452783929566e-03
-3.6499999999999950e+00 +8.5266321883342719e+00 +0.0000000000000000e+00 -3.6499999752873458e+00 -2.8841273772529420e-02 -5.5163394940905042e-01 +5.6958383098034979e-03
-3.6999999999999948e+00 +8.5266220391589318e+00 +0.0000000000000000e+00 -3.6999999742572722e+00 -2.8843025403926806e-02 -5.5165985464807765e-01 +5.6962299263383078e-03
-3.7499999999999947e+00 +8.5266117517314868e+00 +0.0000000000000000e+00 -3.7499999731989448e+00 -2.8844791693529610e-02 -5.5168604913627450e-01 +5.6966201093408405e-03
-3.7999999999999945e+00 +8.5266013260453715e+00 +0.0000000000000000e+00 -3.7999999721119795e+00 -2.8846572445022950e-02 -5.5171253076840421e-01 +5.6970088401540712e-03
-3.8499999999999943e+00 +8.5265907620939512e+00 +0.0000000000000000e+00 -3.8499999709959929e+00 -2.8848367462089176e-02 -5.5173929743923300e-01 +5.6973961001204922e-03
-3.8999999999999941e+00 +8.5265800598705166e+00 +0.0000000000000000e+00 -3.8999999698506009e+00 -2.8850176548407745e-02 -5.5176634704353000e-01 +5.6977818705820863e-03
-3.9499999999999940e+00 +8.5265692193682892e+00 +0.0000000000000000e+00 -3.9499999686754199e+00 -2.8851999507655164e-02 -5.5179367747606622e-01 +5.6981661328803319e-03
-3.9999999999999938e+00 +8.5265582405804192e+00 +0.0000000000000000e+00 -3.9999999674700661e+00 -2.8853836143504827e-02 -5.5182128663161467e-01 +5.6985488683561755e-03
-4.0499999999999936e+00 +8.5265471234999879e+00 +0.0000000000000000e+00 -4.0499999662341555e+00 -2.8855686257781947e-02 -5.5184917228843422e-01 +5.6989300563888906e-03
-4.0999999999999934e+00 +8.5265358681200070e+00 +0.0000000000000000e+00 -4.0999999649673038e+00 -2.8857549644929328e-02 -5.5187733175871800e-01 +5.6993096685127179e-03
-4.1499999999999932e+00 +8.5265244744334208e+00 +0.0000000000000000e+00 -4.1499999636691269e+00 -2.8859426097544702e-02 -5.5190576223814558e-01 +5.6996876743005158e-03
-4.1999999999999931e+00 +8.5265129424331025e+00 +0.0000000000000000e+00 -4.1999999623392403e+00 -2.8861315408226226e-02 -5.5193446092240139e-01 +5.7000640433249551e-03
-4.2499999999999929e+00 +8.5265012721118616e+00 +0.0000000000000000e+00 -4.2499999609772603e+00 -2.8863217369572383e-02 -5.5196342500717199e-01 +5.7004387451585117e-03
-4.2999999999999927e+00 +8.5264894634624397e+00 +0.0000000000000000e+00 -4.2999999595828022e+00 -2.8865131774182089e-02 -5.5199265168814760e-01 +5.7008117493734609e-03
-4.3499999999999925e+00 +8.5264775164775113e+00 +0.0000000000000000e+00 -4.3499999581554816e+00 -2.8867058414654655e-02 -5.5202213816102175e-01 +5.7011830255418927e-03
-4.3999999999999924e+00 +8.5264654311496866e+00 +0.0000000000000000e+00 -4.3999999566949137e+00 -2.8868997083589872e-02 -5.5205188162149055e-01 +5.7015525432356998e-03
-4.4499999999999922e+00 +8.5264532074715138e+00 +0.0000000000000000e+00 -4.4499999552007150e+00 -2.8870947573587959e-02 -5.5208187926525309e-01 +5.7019202720265758e-03
-4.4999999999999920e+00 +8.5264408454354736e+00 +0.0000000000000000e+00 -4.4999999536724999e+00 -2.8872909677249637e-02 -5.5211212828801037e-01 +5.7022861814860241e-03
-4.5499999999999918e+00 +8.5264283450339846e+00 +0.0000000000000000e+00 -4.5499999521098839e+00 -2.8874883187176112e-02 -5.5214262588546659e-01 +5.7026502411853487e-03
-4.5999999999999917e+00 +8.5264157062594066e+00 +0.0000000000000000e+00 -4.5999999505124816e+00 -2.8876867895969115e-02 -5.5217336925332661e-01 +5.7030124206956627e-03
-4.6499999999999915e+00 +8.5264029291040337e+00 +0.0000000000000000e+00 -4.6499999488799082e+00 -2.8878863596230948e-02 -5.5220435558729830e-01 +5.7033726895878798e-03
-4.6999999999999913e+00 +8.5263900135600998e+00 +0.0000000000000000e+00 -4.6999999472117793e+00 -2.8880870080564437e-02 -5.5223558208309098e-01 +5.7037310174327255e-03
-4.7499999999999911e+00 +8.5263769596197800e+00 +0.0000000000000000e+00 -4.7499999455077093e+00 -2.8882887141573027e-02 -5.5226704593641507e-01 +5.7040873738007170e-03
-4.7999999999999909e+00 +8.5263637672751891e+00 +0.0000000000000000e+00 -4.7999999437673138e+00 -2.8884914571860727e-02 -5.5229874434298243e-01 +5.7044417282621851e-03
-4.8499999999999908e+00 +8.5263504365183831e+00 +0.0000000000000000e+00 -4.8499999419902071e+00 -2.8886952164032212e-02 -5.5233067449850581e-01 +5.7047940503872647e-03
-4.8999999999999906e+00 +8.5263369673413614e+00 +0.0000000000000000e+00 -4.8999999401760039e+00 -2.8888999710692774e-02 -5.5236283359869864e-01 +5.7051443097458849e-03
-4.9499999999999904e+00 +8.5263233597360628e+00 +0.0000000000000000e+00 -4.9499999383243187e+00 -2.8891057004448360e-02 -5.5239521883927589e-01 +5.7054924759077884e-03
-4.9999999999999902e+00 +8.5263096136943730e+00 +0.0000000000000000e+00 -4.9999999364347660e+00 -2.8893123837905616e-02 -5.5242782741595153e-01 +5.7058385184425124e-03
-5.0499999999999901e+00 +8.5262957292081190e+00 +0.0000000000000000e+00 -5.0499999345069604e+00 -2.8895200003671916e-02 -5.5246065652444132e-01 +5.7061824069194050e-03
-5.0999999999999899e+00 +8.5262817062690743e+00 +0.0000000000000000e+00 -5.0999999325405163e+00 -2.8897285294355295e-02 -5.5249370336045989e-01 +5.7065241109076114e-03
-5.1499999999999897e+00 +8.5262675448689560e+00 +0.0000000000000000e+00 -5.1499999305350475e+00 -2.8899379502564607e-02 -5.5252696511972221e-01 +5.7068635999760840e-03
-5.1999999999999895e+00 +8.5262532449994293e+00 +0.0000000000000000e+00 -5.1999999284901683e+00 -2.8901482420909418e-02 -5.5256043899794272e-01 +5.7072008436935716e-03
-5.2499999999999893e+00 +8.5262388066521062e+00 +0.0000000000000000e+00 -5.2499999264054935e+00 -2.8903593842000089e-02 -5.5259412219083526e-01 +5.7075358116286268e-03
-5.2999999999999892e+00 +8.5262242298185456e+00 +0.0000000000000000e+00 -5.2999999242806366e+00 -2.8905713558447798e-02 -5.5262801189411259e-01 +5.7078684733496091e-03
-5.3499999999999890e+00 +8.5262095144902528e+00 +0.0000000000000000e+00 -5.3499999221152121e+00 -2.8907841362864548e-02 -5.5266210530348747e-01 +5.7081987984246721e-03
-5.3999999999999888e+00 +8.5261946606586854e+00 +0.0000000000000000e+00 -5.3999999199088329e+00 -2.8909977047863165e-02 -5.5269639961467054e-01 +5.7085267564217796e-03
-5.4499999999999886e+00 +8.5261796683152475e+00 +0.0000000000000000e+00 -5.4499999176611134e+00 -2.8912120406057371e-02 -5.5273089202337133e-01 +5.7088523169086898e-03
-5.4999999999999885e+00 +8.5261645374512973e+00 +0.0000000000000000e+00 -5.4999999153716672e+00 -2.8914271230061756e-02 -5.5276557972529772e-01 +5.7091754494529596e-03
-5.5499999999999883e+00 +8.5261492680581394e+00 +0.0000000000000000e+00 -5.5499999130401072e+00 -2.8916429312491828e-02 -5.5280045991615634e-01 +5.7094961236219622e-03
-5.5999999999999881e+00 +8.5261338601270342e+00 +0.0000000000000000e+00 -5.5999999106660479e+00 -2.8918594445963990e-02 -5.5283552979165085e-01 +5.7098143089828520e-03
-5.6499999999999879e+00 +8.5261183136491923e+00 +0.0000000000000000e+00 -5.6499999082491019e+00 -2.8920766423095635e-02 -5.5287078654748323e-01 +5.7101299751025946e-03
-5.6999999999999877e+00 +8.5261026286157779e+00 +0.0000000000000000e+00 -5.6999999057888830e+00 -2.8922945036505093e-02 -5.5290622737935347e-01 +5.7104430915479575e-03
-5.7499999999999876e+00 +8.5260868050179095e+00 +0.0000000000000000e+00 -5.7499999032850049e+00 -2.8925130078811697e-02 -5.5294184948295833e-01 +5.7107536278855004e-03
-5.7999999999999874e+00 +8.5260708428466607e+00 +0.0000000000000000e+00 -5.7999999007370802e+00 -2.8927321342635762e-02 -5.5297765005399180e-01 +5.7110615536815901e-03
-5.8499999999999872e+00 +8.5260547420930592e+00 +0.0000000000000000e+00 -5.8499998981447217e+00 -2.8929518620598657e-02 -5.5301362628814521e-01 +5.7113668385023932e-03
