# field on trajectory
# s[mm] rx[mm] ry[mm] rz[mm] bx[T] by[T] bz[T]
0.0000000000000000e+00 +8.5980000000000008e+00 +0.0000000000000000e+00 +0.0000000000000000e+00 -3.0335024510443107e-02 -5.7850356225160404e-01 +5.6546973150296007e-03
-5.0000000000000003e-02 +8.5979999308385420e+00 +0.0000000000000000e+00 -4.9999999999936227e-02 -3.0335175339983866e-02 -5.7850670330192011e-01 +5.6573438850013825e-03
-1.0000000000000001e-01 +8.5979997233536523e+00 +0.0000000000000000e+00 -9.9999999999489775e-02 -3.0335351109836151e-02 -5.7851021868711860e-01 +5.6599978643516657e-03
-1.5000000000000002e-01 +8.5979993775444896e+00 +0.0000000000000000e+00 -1.4999999999827801e-01 -3.0335551814833280e-02 -5.7851410759730448e-01 +5.6626590536819361e-03
-2.0000000000000001e-01 +8.5979988934101250e+00 +0.0000000000000000e+00 -1.9999999999591822e-01 -3.0335777449809909e-02 -5.7851836922259925e-01 +5.6653272535938876e-03
-2.5000000000000000e-01 +8.5979982709495406e+00 +0.0000000000000000e+00 -2.4999999999202771e-01 -3.0336028009602074e-02 -5.7852300275314283e-01 +5.6680022646894146e-03
-2.9999999999999999e-01 +8.5979975101616262e+00 +0.0000000000000000e+00 -2.9999999998622379e-01 -3.0336303489047145e-02 -5.7852800737909171e-01 +5.6706838875705875e-03
-3.4999999999999998e-01 +8.5979966110451862e+00 +0.0000000000000000e+00 -3.4999999997812375e-01 -3.0336603882983832e-02 -5.7853338229061924e-01 +5.6733719228396458e-03
-3.9999999999999997e-01 +8.5979955735989364e+00 +0.0000000000000000e+00 -3.9999999996734487e-01 -3.0336929186252210e-02 -5.7853912667791685e-01 +5.6760661710989844e-03
-4.4999999999999996e-01 +8.5979943978215019e+00 +0.0000000000000000e+00 -4.4999999995350437e-01 -3.0337279393693694e-02 -5.7854523973119143e-01 +5.6787664329511359e-03
-4.9999999999999994e-01 +8.5979930837114207e+00 +0.0000000000000000e+00 -4.9999999993621957e-01 -3.0337654500151041e-02 -5.7855172064066840e-01 +5.6814725089987589e-03
-5.4999999999999993e-01 +8.5979916312671456e+00 +0.0000000000000000e+00 -5.4999999991510773e-01 -3.0338054500468364e-02 -5.7855856859658894e-01 +5.6841841998446158e-03
-5.9999999999999998e-01 +8.5979900404870371e+00 +0.0000000000000000e+00 -5.9999999988978592e-01 -3.0338479389491087e-02 -5.7856578278921034e-01 +5.6869013060915690e-03
-6.5000000000000002e-01 +8.5979883113693703e+00 +0.0000000000000000e+00 -6.4999999985987145e-01 -3.0338929162066021e-02 -5.7857336240880830e-01 +5.6896236283425624e-03
-7.0000000000000007e-01 +8.5979864439123350e+00 +0.0000000000000000e+00 -6.9999999982498151e-01 -3.0339403813041305e-02 -5.7858130664567409e-01 +5.6923509672006057e-03
-7.5000000000000011e-01 +8.5979844381140289e+00 +0.0000000000000000e+00 -7.4999999978473331e-01 -3.0339903337266383e-02 -5.7858961469011505e-01 +5.6950831232687564e-03
-8.0000000000000016e-01 +8.5979822939724677e+00 +0.0000000000000000e+00 -7.9999999973874392e-01 -3.0340427729592084e-02 -5.7859828573245586e-01 +5.6978198971501153e-03
-8.5000000000000020e-01 +8.5979800114855767e+00 +0.0000000000000000e+00 -8.4999999968663054e-01 -3.0340976984870548e-02 -5.7860731896303652e-01 +5.7005610894478040e-03
-9.0000000000000024e-01 +8.5979775906511975e+00 +0.0000000000000000e+00 -8.9999999962801014e-01 -3.0341551097955249e-02 -5.7861671357221400e-01 +5.7033065007649529e-03
-9.5000000000000029e-01 +8.5979750314670831e+00 +0.0000000000000000e+00 -9.4999999956249992e-01 -3.0342150063701022e-02 -5.7862646875036083e-01 +5.7060559317046828e-03
-1.0000000000000002e+00 +8.5979723339309011e+00 +0.0000000000000000e+00 -9.9999999948971696e-01 -3.0342773876964001e-02 -5.7863658368786597e-01 +5.7088091828701023e-03
-1.0500000000000003e+00 +8.5979694980402321e+00 +0.0000000000000000e+00 -1.0499999994092784e+00 -3.0343422532601680e-02 -5.7864705757513479e-01 +5.7115660548642819e-03
-1.1000000000000003e+00 +8.5979665237925733e+00 +0.0000000000000000e+00 -1.0999999993208009e+00 -3.0344096025472871e-02 -5.7865788960258779e-01 +5.7143263482902417e-03
-1.1500000000000004e+00 +8.5979634111853329e+00 +0.0000000000000000e+00 -1.1499999992239018e+00 -3.0344794350437715e-02 -5.7866907896066133e-01 +5.7170898637509352e-03
-1.2000000000000004e+00 +8.5979601602158375e+00 +0.0000000000000000e+00 -1.1999999991181978e+00 -3.0345517502357689e-02 -5.7868062483980753e-01 +5.7198564018492472e-03
-1.2500000000000004e+00 +8.5979567708813249e+00 +0.0000000000000000e+00 -1.2499999990033059e+00 -3.0346265476095608e-02 -5.7869252643049507e-01 +5.7226257631879654e-03
-1.3000000000000005e+00 +8.5979532431789512e+00 +0.0000000000000000e+00 -1.2999999988788431e+00 -3.0347038266515580e-02 -5.7870478292320682e-01 +5.7253977483697665e-03
-1.3500000000000005e+00 +8.5979495771057852e+00 +0.0000000000000000e+00 -1.3499999987444262e+00 -3.0347835868483081e-02 -5.7871739350844209e-01 +5.7281721579972127e-03
-1.4000000000000006e+00 +8.5979457726588109e+00 +0.0000000000000000e+00 -1.3999999985996721e+00 -3.0348658276864879e-02 -5.7873035737671530e-01 +5.7309487926727257e-03
-1.4500000000000006e+00 +8.5979418298349284e+00 +0.0000000000000000e+00 -1.4499999984441976e+00 -3.0349505486529083e-02 -5.7874367371855606e-01 +5.7337274529985814e-03
-1.5000000000000007e+00 +8.5979377486309545e+00 +0.0000000000000000e+00 -1.4999999982776193e+00 -3.0350377492345114e-02 -5.7875734172450932e-01 +5.7365079395768903e-03
-1.5500000000000007e+00 +8.5979335290436207e+00 +0.0000000000000000e+00 -1.5499999980995542e+00 -3.0351274289183727e-02 -5.7877136058513545e-01 +5.7392900530095796e-03
-1.6000000000000008e+00 +8.5979291710695769e+00 +0.0000000000000000e+00 -1.5999999979096189e+00 -3.0352195871916971e-02 -5.7878572949100915e-01 +5.7420735938983865e-03
-1.6500000000000008e+00 +8.5979246747053857e+00 +0.0000000000000000e+00 -1.6499999977074300e+00 -3.0353142235418261e-02 -5.7880044763272143e-01 +5.7448583628448447e-03
-1.7000000000000008e+00 +8.5979200399475282e+00 +0.0000000000000000e+00 -1.6999999974926043e+00 -3.0354113374562283e-02 -5.7881551420087685e-01 +5.7476441604502595e-03
-1.7500000000000009e+00 +8.5979152667924019e+00 +0.0000000000000000e+00 -1.7499999972647582e+00 -3.0355109284225048e-02 -5.7883092838609507e-01 +5.7504307873156952e-03
-1.8000000000000009e+00 +8.5979103552363210e+00 +0.0000000000000000e+00 -1.7999999970235083e+00 -3.0356129959283908e-02 -5.7884668937901118e-01 +5.7532180440419802e-03
-1.8500000000000010e+00 +8.5979053052755177e+00 +0.0000000000000000e+00 -1.8499999967684713e+00 -3.0357175394617512e-02 -5.7886279637027471e-01 +5.7560057312296634e-03
-1.9000000000000010e+00 +8.5979001169061409e+00 +0.0000000000000000e+00 -1.8999999964992635e+00 -3.0358245585105800e-02 -5.7887924855054884e-01 +5.7587936494790199e-03
-1.9500000000000011e+00 +8.5978947901242559e+00 +0.0000000000000000e+00 -1.9499999962155015e+00 -3.0359340525630094e-02 -5.7889604511051296e-01 +5.7615815993900315e-03
-2.0000000000000009e+00 +8.5978893249258483e+00 +0.0000000000000000e+00 -1.9999999959168016e+00 -3.0360460211072922e-02 -5.7891318524085933e-01 +5.7643693815623625e-03
-2.0500000000000007e+00 +8.5978837213068182e+00 +0.0000000000000000e+00 -2.0499999956027803e+00 -3.0361604597555207e-02 -5.7893066790791470e-01 +5.7671568038575108e-03
-2.1000000000000005e+00 +8.5978779792629858e+00 +0.0000000000000000e+00 -2.0999999952730537e+00 -3.0362773486146862e-02 -5.7894849118049885e-01 +5.7699437031852232e-03
-2.1500000000000004e+00 +8.5978720987900914e+00 +0.0000000000000000e+00 -2.1499999949272381e+00 -3.0363966639155533e-02 -5.7896665290306282e-01 +5.7727299237170645e-03
-2.2000000000000002e+00 +8.5978660798837900e+00 +0.0000000000000000e+00 -2.1999999945649500e+00 -3.0365183818889512e-02 -5.7898515092007208e-01 +5.7755153096242543e-03
-2.2500000000000000e+00 +8.5978599225396604e+00 +0.0000000000000000e+00 -2.2499999941858051e+00 -3.0366424787657768e-02 -5.7900398307600420e-01 +5.7782997050776679e-03
-2.2999999999999998e+00 +8.5978536267531993e+00 +0.0000000000000000e+00 -2.2999999937894198e+00 -3.0367689307769868e-02 -5.7902314721534942e-01 +5.7810829542478065e-03
-2.3499999999999996e+00 +8.5978471925198239e+00 +0.0000000000000000e+00 -2.3499999933754103e+00 -3.0368977141535896e-02 -5.7904264118261128e-01 +5.7838649013047918e-03
-2.3999999999999995e+00 +8.5978406198348747e+00 +0.0000000000000000e+00 -2.3999999929433926e+00 -3.0370288051266507e-02 -5.7906246282230500e-01 +5.7866453904183426e-03
-2.4499999999999993e+00 +8.5978339086936106e+00 +0.0000000000000000e+00 -2.4499999924929825e+00 -3.0371621799272837e-02 -5.7908260997895833e-01 +5.7894242657577834e-03
-2.4999999999999991e+00 +8.5978270590912160e+00 +0.0000000000000000e+00 -2.4999999920237959e+00 -3.0372978147866426e-02 -5.7910308049711101e-01 +5.7922013714920137e-03
-2.5499999999999989e+00 +8.5978200710227952e+00 +0.0000000000000000e+00 -2.5499999915354490e+00 -3.0374356859359308e-02 -5.7912387222131534e-01 +5.7949765517894981e-03
-2.5999999999999988e+00 +8.5978129444833780e+00 +0.0000000000000000e+00 -2.5999999910275573e+00 -3.0375757696063852e-02 -5.7914498299613493e-01 +5.7977496508182574e-03
-2.6499999999999986e+00 +8.5978056794679159e+00 +0.0000000000000000e+00 -2.6499999904997367e+00 -3.0377180420292776e-02 -5.7916641066614472e-01 +5.8005205127458466e-03
-2.6999999999999984e+00 +8.5977982759712859e+00 +0.0000000000000000e+00 -2.6999999899516030e+00 -3.0378624794359106e-02 -5.7918815307593252e-01 +5.8032889817393575e-03
-2.7499999999999982e+00 +8.5977907339882886e+00 +0.0000000000000000e+00 -2.7499999893827720e+00 -3.0380090580576148e-02 -5.7921020807009604e-01 +5.8060549019653910e-03
-2.7999999999999980e+00 +8.5977830535136519e+00 +0.0000000000000000e+00 -2.7999999887928593e+00 -3.0381577541257410e-02 -5.7923257349324542e-01 +5.8088181175900483e-03
-2.8499999999999979e+00 +8.5977752345420271e+00 +0.0000000000000000e+00 -2.8499999881814801e+00 -3.0383085438716650e-02 -5.7925524719000154e-01 +5.8115784727789215e-03
-2.8999999999999977e+00 +8.5977672770679945e+00 +0.0000000000000000e+00 -2.8999999875482501e+00 -3.0384614035267727e-02 -5.7927822700499565e-01 +5.8143358116970727e-03
-2.9499999999999975e+00 +8.5977591810860581e+00 +0.0000000000000000e+00 -2.9499999868927849e+00 -3.0386163093224668e-02 -5.7930151078287107e-01 +5.8170899785090326e-03
-2.9999999999999973e+00 +8.5977509465906525e+00 +0.0000000000000000e+00 -2.9999999862146995e+00 -3.0387732374901579e-02 -5.7932509636828056e-01 +5.8198408173787772e-03
-3.0499999999999972e+00 +8.5977425735761361e+00 +0.0000000000000000e+00 -3.0499999855136100e+00 -3.0389321642612595e-02 -5.7934898160588832e-01 +5.8225881724697165e-03
-3.0999999999999970e+00 +8.5977340620367997e+00 +0.0000000000000000e+00 -3.0999999847891311e+00 -3.0390930658671895e-02 -5.7937316434036878e-01 +5.8253318879446835e-03
-3.1499999999999968e+00 +8.5977254119668611e+00 +0.0000000000000000e+00 -3.1499999840408779e+00 -3.0392559185393620e-02 -5.7939764241640634e-01 +5.8280718079659248e-03
-3.1999999999999966e+00 +8.5977166233604674e+00 +0.0000000000000000e+00 -3.1999999832684658e+00 -3.0394206985091873e-02 -5.7942241367869551e-01 +5.8308077766950801e-03
-3.2499999999999964e+00 +8.5977076962116943e+00 +0.0000000000000000e+00 -3.2499999824715098e+00 -3.0395873820080615e-02 -5.7944747597194113e-01 +5.8335396382931705e-03
-3.2999999999999963e+00 +8.5976986305145502e+00 +0.0000000000000000e+00 -3.2999999816496253e+00 -3.0397559452673726e-02 -5.7947282714085790e-01 +5.8362672369205873e-03
-3.3499999999999961e+00 +8.5976894262629742e+00 +0.0000000000000000e+00 -3.3499999808024268e+00 -3.0399263645184887e-02 -5.7949846503016933e-01 +5.8389904167370828e-03
-3.3999999999999959e+00 +8.5976800834508360e+00 +0.0000000000000000e+00 -3.3999999799295293e+00 -3.0400986159927590e-02 -5.7952438748460977e-01 +5.8417090219017491e-03
-3.4499999999999957e+00 +8.5976706020719380e+00 +0.0000000000000000e+00 -3.4499999790305478e+00 -3.0402726759215088e-02 -5.7955059234892214e-01 +5.8444228965730096e-03
-3.4999999999999956e+00 +8.5976609821200149e+00 +0.0000000000000000e+00 -3.4999999781050972e+00 -3.0404485205360349e-02 -5.7957707746785858e-01 +5.8471318849086110e-03
-3.5499999999999954e+00 +8.5976512235887341e+00 +0.0000000000000000e+00 -3.5499999771527917e+00 -3.0406261260676016e-02 -5.7960384068618098e-01 +5.8498358310655864e-03
-3.5999999999999952e+00 +8.5976413264716953e+00 +0.0000000000000000e+00 -3.5999999761732466e+00 -3.0408054687474411e-02 -5.7963087984865946e-01 +5.8525345792002862e-03
-3.6499999999999950e+00 +8.5976312907624344e+00 +0.0000000000000000e+00 -3.6499999751660761e+00 -3.0409865248067436e-02 -5.7965819280007302e-01 +5.8552279734683191e-03
-3.6999999999999948e+00 +8.5976211164544196e+00 +0.0000000000000000e+00 -3.6999999741308947e+00 -3.0411692704766589e-02 -5.7968577738521010e-01 +5.8579158580245611e-03
-3.7499999999999947e+00 +8.5976108035410572e+00 +0.0000000000000000e+00 -3.7499999730673168e+00 -3.0413536819882927e-02 -5.7971363144886701e-01 +5.8605980770231533e-03
-3.7999999999999945e+00 +8.5976003520156858e+00 +0.0000000000000000e+00 -3.7999999719749571e+00 -3.0415397355726959e-02 -5.7974175283584828e-01 +5.8632744746174564e-03
-3.8499999999999943e+00 +8.5975897618715837e+00 +0.0000000000000000e+00 -3.8499999708534296e+00 -3.0417274074608692e-02 -5.7977013939096733e-01 +5.8659448949600719e-03
-3.8999999999999941e+00 +8.5975790331019617e+00 +0.0000000000000000e+00 -3.8999999697023484e+00 -3.0419166738837579e-02 -5.7979878895904524e-01 +5.8686091822028018e-03
-3.9499999999999940e+00 +8.5975681656999701e+00 +0.0000000000000000e+00 -3.9499999685213281e+00 -3.0421075110722437e-02 -5.7982769938491108e-01 +5.8712671804966579e-03
-3.9999999999999938e+00 +8.5975571596586970e+00 +0.0000000000000000e+00 -3.9999999673099826e+00 -3.0422998952571455e-02 -5.7985686851340190e-01 +5.8739187339918297e-03
-4.0499999999999936e+00 +8.5975460149711669e+00 +0.0000000000000000e+00 -4.0499999660679258e+00 -3.0424938045398642e-02 -5.7988629407275971e-01 +5.8765636958737245e-03
-4.0999999999999934e+00 +8.5975347316303452e+00 +0.0000000000000000e+00 -4.0999999647947716e+00 -3.0426892245043687e-02 -5.7991597332482414e-01 +5.8792019554711568e-03
-4.1499999999999932e+00 +8.5975233096291355e+00 +0.0000000000000000e+00 -4.1499999634901341e+00 -3.0428861426052736e-02 -5.7994590341483154e-01 +5.8818334111481871e-03
-4.1999999999999931e+00 +8.5975117489603807e+00 +0.0000000000000000e+00 -4.1999999621536270e+00 -3.0430845462971787e-02 -5.7997608148802049e-01 +5.8844579612680305e-03
-4.2499999999999929e+00 +8.5975000496168654e+00 +0.0000000000000000e+00 -4.2499999607848649e+00 -3.0432844230346784e-02 -5.8000650468962867e-01 +5.8870755041930487e-03
-4.2999999999999927e+00 +8.5974882115913172e+00 +0.0000000000000000e+00 -4.2999999593834604e+00 -3.0434857602723495e-02 -5.8003717016489498e-01 +5.8896859382847428e-03
-4.3499999999999925e+00 +8.5974762348764013e+00 +0.0000000000000000e+00 -4.3499999579490272e+00 -3.0436885454647577e-02 -5.8006807505905644e-01 +5.8922891619037311e-03
-4.3999999999999924e+00 +8.5974641194647301e+00 +0.0000000000000000e+00 -4.3999999564811789e+00 -3.0438927660664503e-02 -5.8009921651735019e-01 +5.8948850734097374e-03
-4.4499999999999922e+00 +8.5974518653488587e+00 +0.0000000000000000e+00 -4.4499999549795293e+00 -3.0440984095319572e-02 -5.8013059168501180e-01 +5.8974735711615862e-03
-4.4999999999999920e+00 +8.5974394725212839e+00 +0.0000000000000000e+00 -4.4999999534436919e+00 -3.0443054633157888e-02 -5.8016219770727562e-01 +5.9000545535171835e-03
-4.5499999999999918e+00 +8.5974269409744473e+00 +0.0000000000000000e+00 -4.5499999518732794e+00 -3.0445139148724341e-02 -5.8019403172937445e-01 +5.9026279188335055e-03
-4.5999999999999917e+00 +8.5974142707007388e+00 +0.0000000000000000e+00 -4.5999999502679048e+00 -3.0447237516563599e-02 -5.8022609089653820e-01 +5.9051935654665880e-03
-4.6499999999999915e+00 +8.5974014616924936e+00 +0.0000000000000000e+00 -4.6499999486271815e+00 -3.0449349611220079e-02 -5.8025837235399480e-01 +5.9077513917715173e-03
-4.6999999999999913e+00 +8.5973885139419934e+00 +0.0000000000000000e+00 -4.6999999469507232e+00 -3.0451475307237946e-02 -5.8029087324696949e-01 +5.9103012961024080e-03
-4.7499999999999911e+00 +8.5973754274414667e+00 +0.0000000000000000e+00 -4.7499999452381418e+00 -3.0453614479161072e-02 -5.8032359072068351e-01 +5.9128431768123973e-03
-4.7999999999999909e+00 +8.5973622021830902e+00 +0.0000000000000000e+00 -4.7999999434890510e+00 -3.0455767001533053e-02 -5.8035652192035547e-01 +5.9153769322536302e-03
-4.8499999999999908e+00 +8.5973488381589913e+00 +0.0000000000000000e+00 -4.8499999417030635e+00 -3.0457932748897177e-02 -5.8038966399119996e-01 +5.9179024607772550e-03
-4.8999999999999906e+00 +8.5973353353612438e+00 +0.0000000000000000e+00 -4.8999999398797920e+00 -3.0460111595796379e-02 -5.8042301407842689e-01 +5.9204196607333965e-03
-4.9499999999999904e+00 +8.5973216937818755e+00 +0.0000000000000000e+00 -4.9499999380188493e+00 -3.0462303416773289e-02 -5.8045656932724177e-01 +5.9229284304711536e-03
-4.9999999999999902e+00 +8.5973079134128625e+00 +0.0000000000000000e+00 -4.9999999361198473e+00 -3.0464508086370148e-02 -5.8049032688284585e-01 +5.9254286683385832e-03
-5.0499999999999901e+00 +8.5972939942461348e+00 +0.0000000000000000e+00 -5.0499999341823996e+00 -3.0466725479128841e-02 -5.8052428389043431e-01 +5.9279202726826939e-03
-5.0999999999999899e+00 +8.5972799362735710e+00 +0.0000000000000000e+00 -5.0999999322061171e+00 -3.0468955469590855e-02 -5.8055843749519742e-01 +5.9304031418494236e-03
-5.1499999999999897e+00 +8.5972657394870069e+00 +0.0000000000000000e+00 -5.1499999301906136e+00 -3.0471197932297234e-02 -5.8059278484231824e-01 +5.9328771741836246e-03
-5.1999999999999895e+00 +8.5972514038782286e+00 +0.0000000000000000e+00 -5.1999999281355009e+00 -3.0473452741788691e-02 -5.8062732307697618e-01 +5.9353422680290761e-03
-5.2499999999999893e+00 +8.5972369294389797e+00 +0.0000000000000000e+00 -5.2499999260403909e+00 -3.0475719772605405e-02 -5.8066204934434107e-01 +5.9377983217284418e-03
-5.2999999999999892e+00 +8.5972223161609556e+00 +0.0000000000000000e+00 -5.2999999239048963e+00 -3.0477998899287123e-02 -5.8069696078957733e-01 +5.9402452336232694e-03
-5.3499999999999890e+00 +8.5972075640358092e+00 +0.0000000000000000e+00 -5.3499999217286280e+00 -3.0480289996373165e-02 -5.8073205455784249e-01 +5.9426829020539883e-03
-5.3999999999999888e+00 +8.5971926730551509e+00 +0.0000000000000000e+00 -5.3999999195111990e+00 -3.0482592938402275e-02 -5.8076732779428530e-01 +5.9451112253598743e-03
-5.4499999999999886e+00 +8.5971776432105464e+00 +0.0000000000000000e+00 -5.4499999172522209e+00 -3.0484907599912795e-02 -5.8080277764404775e-01 +5.9475301018790594e-03
-5.4999999999999885e+00 +8.5971624744935191e+00 +0.0000000000000000e+00 -5.4999999149513048e+00 -3.0487233855442442e-02 -5.8083840125226205e-01 +5.9499394299485026e-03
-5.5499999999999883e+00 +8.5971471668955513e+00 +0.0000000000000000e+00 -5.5499999126080635e+00 -3.0489571579528474e-02 -5.8087419576405319e-01 +5.9523391079039931e-03
-5.5999999999999881e+00 +8.5971317204080844e+00 +0.0000000000000000e+00 -5.5999999102221079e+00 -3.0491920646707547e-02 -5.8091015832453641e-01 +5.9547290340801222e-03
-5.6499999999999879e+00 +8.5971161350225209e+00 +0.0000000000000000e+00 -5.6499999077930489e+00 -3.0494280931515749e-02 -5.8094628607881749e-01 +5.9571091068102823e-03
-5.6999999999999877e+00 +8.5971004107302225e+00 +0.0000000000000000e+00 -5.6999999053204995e+00 -3.0496652308488626e-02 -5.8098257617199323e-01 +5.9594792244266493e-03
-5.7499999999999876e+00 +8.5970845475225115e+00 +0.0000000000000000e+00 -5.7499999028040696e+00 -3.0499034652161045e-02 -5.8101902574914965e-01 +5.9618392852601705e-03
-5.7999999999999874e+00 +8.5970685453906732e+00 +0.0000000000000000e+00 -5.7999999002433711e+00 -3.0501427837067316e-02 -5.8105563195536292e-01 +5.9641891876405506e-03
-5.8499999999999872e+00 +8.5970524043259555e+00 +0.0000000000000000e+00 -5.8499998976380150e+00 -3.0503831737741079e-02 -5.8109239193569817e-01 +5.9665288298962433e-03
