# trajectory
# s[mm] rx[mm] ry[mm] rz[mm] px[rad] py[rad] pz[rad]
0.0000000000000000e+00 +8.3650000000000002e+00 +0.0000000000000000e+00 +0.0000000000000000e+00 +0.0000000000000000e+00 +0.0000000000000000e+00 +1.0000000000000000e+00
-5.0000000000000003e-02 +8.3649999309944132e+00 +0.0000000000000000e+00 -4.9999999999936512e-02 +2.7602237179283619e-06 +0.0000000000000000e+00 +9.9999999999619060e-01
-1.0000000000000001e-01 +8.3649997239775900e+00 +0.0000000000000000e+00 -9.9999999999492079e-02 +5.5204497723485323e-06 +0.0000000000000000e+00 +9.9999999998476230e-01
-1.5000000000000002e-01 +8.3649993789493653e+00 +0.0000000000000000e+00 -1.4999999999828575e-01 +8.2806800987256868e-06 +0.0000000000000000e+00 +9.9999999996571520e-01
-2.0000000000000001e-01 +8.3649988959094763e+00 +0.0000000000000000e+00 -1.9999999999593659e-01 +1.1040916628931203e-05 +0.0000000000000000e+00 +9.9999999993904909e-01
-2.5000000000000000e-01 +8.3649982748575660e+00 +0.0000000000000000e+00 -2.4999999999206368e-01 +1.3801161291242747e-05 +0.0000000000000000e+00 +9.9999999990476396e-01
-2.9999999999999999e-01 +8.3649975157931795e+00 +0.0000000000000000e+00 -2.9999999998628601e-01 +1.6561416010344367e-05 +0.0000000000000000e+00 +9.9999999986285970e-01
-3.4999999999999998e-01 +8.3649966187157663e+00 +0.0000000000000000e+00 -3.4999999997822268e-01 +1.9321682707326574e-05 +0.0000000000000000e+00 +9.9999999981333620e-01
-3.9999999999999997e-01 +8.3649955836246779e+00 +0.0000000000000000e+00 -3.9999999996749269e-01 +2.2081963299686439e-05 +0.0000000000000000e+00 +9.9999999975619336e-01
-4.4999999999999996e-01 +8.3649944105191736e+00 +0.0000000000000000e+00 -4.4999999995371504e-01 +2.4842259701327677e-05 +0.0000000000000000e+00 +9.9999999969143094e-01
-4.9999999999999994e-01 +8.3649930993984132e+00 +0.0000000000000000e+00 -4.9999999993650879e-01 +2.7602573822560741e-05 +0.0000000000000000e+00 +9.9999999961904884e-01
-5.4999999999999993e-01 +8.3649916502614641e+00 +0.0000000000000000e+00 -5.4999999991549298e-01 +3.0362907570102901e-05 +0.0000000000000000e+00 +9.9999999953904684e-01
-5.9999999999999998e-01 +8.3649900631072978e+00 +0.0000000000000000e+00 -5.9999999989028652e-01 +3.3123262847078346e-05 +0.0000000000000000e+00 +9.9999999945142459e-01
-6.5000000000000002e-01 +8.3649883379347898e+00 +0.0000000000000000e+00 -6.4999999986050838e-01 +3.5883641553018259e-05 +0.0000000000000000e+00 +9.9999999935618200e-01
-7.0000000000000007e-01 +8.3649864747427216e+00 +0.0000000000000000e+00 -6.9999999982577765e-01 +3.8644045583860923e-05 +0.0000000000000000e+00 +9.9999999925331873e-01
-7.5000000000000011e-01 +8.3649844735297787e+00 +0.0000000000000000e+00 -7.4999999978571319e-01 +4.1404476831951784e-05 +0.0000000000000000e+00 +9.9999999914283455e-01
-8.0000000000000016e-01 +8.3649823342945542e+00 +0.0000000000000000e+00 -7.9999999973993408e-01 +4.4164937186043573e-05 +0.0000000000000000e+00 +9.9999999902472902e-01
-8.5000000000000020e-01 +8.3649800570355435e+00 +0.0000000000000000e+00 -8.4999999968805906e-01 +4.6925428531296374e-05 +0.0000000000000000e+00 +9.9999999889900193e-01
-9.0000000000000024e-01 +8.3649776417511532e+00 +0.0000000000000000e+00 -8.9999999962970723e-01 +4.9685952749277709e-05 +0.0000000000000000e+00 +9.9999999876565293e-01
-9.5000000000000029e-01 +8.3649750884396905e+00 +0.0000000000000000e+00 -9.4999999956449732e-01 +5.2446511717962646e-05 +0.0000000000000000e+00 +9.9999999862468159e-01
-1.0000000000000002e+00 +8.3649723970993719e+00 +0.0000000000000000e+00 -9.9999999949204832e-01 +5.5207107311733876e-05 +0.0000000000000000e+00 +9.9999999847608756e-01
-1.0500000000000003e+00 +8.3649695677283180e+00 +0.0000000000000000e+00 -1.0499999994119791e+00 +5.7967741401381798e-05 +0.0000000000000000e+00 +9.9999999831987041e-01
-1.1000000000000003e+00 +8.3649666003245589e+00 +0.0000000000000000e+00 -1.0999999993239082e+00 +6.0728415854104616e-05 +0.0000000000000000e+00 +9.9999999815602969e-01
-1.1500000000000004e+00 +8.3649634948860285e+00 +0.0000000000000000e+00 -1.1499999992274548e+00 +6.3489132533508434e-05 +0.0000000000000000e+00 +9.9999999798456496e-01
-1.2000000000000004e+00 +8.3649602514105705e+00 +0.0000000000000000e+00 -1.1999999991222376e+00 +6.6249893299607322e-05 +0.0000000000000000e+00 +9.9999999780547577e-01
-1.2500000000000004e+00 +8.3649568698959325e+00 +0.0000000000000000e+00 -1.2499999990078754e+00 +6.9010700008823427e-05 +0.0000000000000000e+00 +9.9999999761876157e-01
-1.3000000000000005e+00 +8.3649533503397731e+00 +0.0000000000000000e+00 -1.2999999988839868e+00 +7.1771554513987070e-05 +0.0000000000000000e+00 +9.9999999742442192e-01
-1.3500000000000005e+00 +8.3649496927396552e+00 +0.0000000000000000e+00 -1.3499999987501905e+00 +7.4532458664336801e-05 +0.0000000000000000e+00 +9.9999999722245625e-01
-1.4000000000000006e+00 +8.3649458970930493e+00 +0.0000000000000000e+00 -1.3999999986061054e+00 +7.7293414305519532e-05 +0.0000000000000000e+00 +9.9999999701286402e-01
-1.4500000000000006e+00 +8.3649419633973352e+00 +0.0000000000000000e+00 -1.4499999984513499e+00 +8.0054423279590580e-05 +0.0000000000000000e+00 +9.9999999679564466e-01
-1.5000000000000007e+00 +8.3649378916498005e+00 +0.0000000000000000e+00 -1.4999999982855428e+00 +8.2815487425013789e-05 +0.0000000000000000e+00 +9.9999999657079752e-01
-1.5500000000000007e+00 +8.3649336818476421e+00 +0.0000000000000000e+00 -1.5499999981083026e+00 +8.5576608576661621e-05 +0.0000000000000000e+00 +9.9999999633832204e-01
-1.6000000000000008e+00 +8.3649293339879627e+00 +0.0000000000000000e+00 -1.5999999979192479e+00 +8.8337788565815217e-05 +0.0000000000000000e+00 +9.9999999609821755e-01
-1.6500000000000008e+00 +8.3649248480677745e+00 +0.0000000000000000e+00 -1.6499999977179971e+00 +9.1099029220164513e-05 +0.0000000000000000e+00 +9.9999999585048338e-01
-1.7000000000000008e+00 +8.3649202240839990e+00 +0.0000000000000000e+00 -1.6999999975041689e+00 +9.3860332363808322e-05 +0.0000000000000000e+00 +9.9999999559511898e-01
-1.7500000000000009e+00 +8.3649154620334656e+00 +0.0000000000000000e+00 -1.7499999972773816e+00 +9.6621699817254421e-05 +0.0000000000000000e+00 +9.9999999533212358e-01
-1.8000000000000009e+00 +8.3649105619129145e+00 +0.0000000000000000e+00 -1.7999999970372540e+00 +9.9383133397419637e-05 +0.0000000000000000e+00 +9.9999999506149639e-01
-1.8500000000000010e+00 +8.3649055237189938e+00 +0.0000000000000000e+00 -1.8499999967834042e+00 +1.0214463491762995e-04 +0.0000000000000000e+00 +9.9999999478323676e-01
-1.9000000000000010e+00 +8.3649003474482608e+00 +0.0000000000000000e+00 -1.8999999965154506e+00 +1.0490620618762057e-04 +0.0000000000000000e+00 +9.9999999449734389e-01
-1.9500000000000011e+00 +8.3648950330971825e+00 +0.0000000000000000e+00 -1.9499999962330115e+00 +1.0766784901353601e-04 +0.0000000000000000e+00 +9.9999999420381713e-01
-2.0000000000000009e+00 +8.3648895806621368e+00 +0.0000000000000000e+00 -1.9999999959357051e+00 +1.1042956519793026e-04 +0.0000000000000000e+00 +9.9999999390265559e-01
-2.0500000000000007e+00 +8.3648839901394094e+00 +0.0000000000000000e+00 -2.0499999956231498e+00 +1.1319135653945667e-04 +0.0000000000000000e+00 +9.9999999359385838e-01
-2.1000000000000005e+00 +8.3648782615251989e+00 +0.0000000000000000e+00 -2.0999999952949637e+00 +1.1595322482945755e-04 +0.0000000000000000e+00 +9.9999999327742484e-01
-2.1500000000000004e+00 +8.3648723948156132e+00 +0.0000000000000000e+00 -2.1499999949507651e+00 +1.1871517184855347e-04 +0.0000000000000000e+00 +9.9999999295335396e-01
-2.2000000000000002e+00 +8.3648663900066715e+00 +0.0000000000000000e+00 -2.1999999945901720e+00 +1.2147719936633335e-04 +0.0000000000000000e+00 +9.9999999262164496e-01
-2.2500000000000000e+00 +8.3648602470943061e+00 +0.0000000000000000e+00 -2.2499999942128026e+00 +1.2423930914135450e-04 +0.0000000000000000e+00 +9.9999999228229697e-01
-2.2999999999999998e+00 +8.3648539660743584e+00 +0.0000000000000000e+00 -2.2999999938182745e+00 +1.2700150292114265e-04 +0.0000000000000000e+00 +9.9999999193530908e-01
-2.3499999999999996e+00 +8.3648475469425847e+00 +0.0000000000000000e+00 -2.3499999934062061e+00 +1.2976378244219206e-04 +0.0000000000000000e+00 +9.9999999158068031e-01
-2.3999999999999995e+00 +8.3648409896946561e+00 +0.0000000000000000e+00 -2.3999999929762152e+00 +1.3252614942996552e-04 +0.0000000000000000e+00 +9.9999999121840977e-01
-2.4499999999999993e+00 +8.3648342943261547e+00 +0.0000000000000000e+00 -2.4499999925279199e+00 +1.3528860559889447e-04 +0.0000000000000000e+00 +9.9999999084849656e-01
-2.4999999999999991e+00 +8.3648274608325810e+00 +0.0000000000000000e+00 -2.4999999920609377e+00 +1.3805115265237903e-04 +0.0000000000000000e+00 +9.9999999047093957e-01
-2.5499999999999989e+00 +8.3648204892093467e+00 +0.0000000000000000e+00 -2.5499999915748863e+00 +1.4081379228278804e-04 +0.0000000000000000e+00 +9.9999999008573792e-01
-2.5999999999999988e+00 +8.3648133794517818e+00 +0.0000000000000000e+00 -2.5999999910693838e+00 +1.4357652617145910e-04 +0.0000000000000000e+00 +9.9999998969289050e-01
-2.6499999999999986e+00 +8.3648061315551310e+00 +0.0000000000000000e+00 -2.6499999905440479e+00 +1.4633935598869869e-04 +0.0000000000000000e+00 +9.9999998929239642e-01
-2.6999999999999984e+00 +8.3647987455145572e+00 +0.0000000000000000e+00 -2.6999999899984961e+00 +1.4910228339378218e-04 +0.0000000000000000e+00 +9.9999998888425456e-01
-2.7499999999999982e+00 +8.3647912213251381e+00 +0.0000000000000000e+00 -2.7499999894323461e+00 +1.5186531003495384e-04 +0.0000000000000000e+00 +9.9999998846846383e-01
-2.7999999999999980e+00 +8.3647835589818715e+00 +0.0000000000000000e+00 -2.7999999888452152e+00 +1.5462843754942695e-04 +0.0000000000000000e+00 +9.9999998804502321e-01
-2.8499999999999979e+00 +8.3647757584796736e+00 +0.0000000000000000e+00 -2.8499999882367208e+00 +1.5739166756338380e-04 +0.0000000000000000e+00 +9.9999998761393150e-01
-2.8999999999999977e+00 +8.3647678198133786e+00 +0.0000000000000000e+00 -2.8999999876064808e+00 +1.6015500169197578e-04 +0.0000000000000000e+00 +9.9999998717518768e-01
-2.9499999999999975e+00 +8.3647597429777409e+00 +0.0000000000000000e+00 -2.9499999869541123e+00 +1.6291844153932337e-04 +0.0000000000000000e+00 +9.9999998672879065e-01
-2.9999999999999973e+00 +8.3647515279674352e+00 +0.0000000000000000e+00 -2.9999999862792324e+00 +1.6568198869851625e-04 +0.0000000000000000e+00 +9.9999998627473929e-01
-3.0499999999999972e+00 +8.3647431747770558e+00 +0.0000000000000000e+00 -3.0499999855814584e+00 +1.6844564475161324e-04 +0.0000000000000000e+00 +9.9999998581303240e-01
-3.0999999999999970e+00 +8.3647346834011191e+00 +0.0000000000000000e+00 -3.0999999848604078e+00 +1.7120941126964244e-04 +0.0000000000000000e+00 +9.9999998534366874e-01
-3.1499999999999968e+00 +8.3647260538340618e+00 +0.0000000000000000e+00 -3.1499999841156976e+00 +1.7397328981260120e-04 +0.0000000000000000e+00 +9.9999998486664721e-01
-3.1999999999999966e+00 +8.3647172860702454e+00 +0.0000000000000000e+00 -3.1999999833469448e+00 +1.7673728192945621e-04 +0.0000000000000000e+00 +9.9999998438196658e-01
-3.2499999999999964e+00 +8.3647083801039503e+00 +0.0000000000000000e+00 -3.2499999825537667e+00 +1.7950138915814350e-04 +0.0000000000000000e+00 +9.9999998388962563e-01
-3.2999999999999963e+00 +8.3646993359293855e+00 +0.0000000000000000e+00 -3.2999999817357799e+00 +1.8226561302556846e-04 +0.0000000000000000e+00 +9.9999998338962315e-01
-3.3499999999999961e+00 +8.3646901535406784e+00 +0.0000000000000000e+00 -3.3499999808926013e+00 +1.8502995504760591e-04 +0.0000000000000000e+00 +9.9999998288195791e-01
-3.3999999999999959e+00 +8.3646808329318851e+00 +0.0000000000000000e+00 -3.3999999800238481e+00 +1.8779441672910009e-04 +0.0000000000000000e+00 +9.9999998236662857e-01
-3.4499999999999957e+00 +8.3646713740969858e+00 +0.0000000000000000e+00 -3.4499999791291365e+00 +1.9055899956386474e-04 +0.0000000000000000e+00 +9.9999998184363392e-01
-3.4999999999999956e+00 +8.3646617770298857e+00 +0.0000000000000000e+00 -3.4999999782080837e+00 +1.9332370503468308e-04 +0.0000000000000000e+00 +9.9999998131297263e-01
-3.5499999999999954e+00 +8.3646520417244155e+00 +0.0000000000000000e+00 -3.5499999772603061e+00 +1.9608853461330786e-04 +0.0000000000000000e+00 +9.9999998077464336e-01
-3.5999999999999952e+00 +8.3646421681743330e+00 +0.0000000000000000e+00 -3.5999999762854205e+00 +1.9885348976046135e-04 +0.0000000000000000e+00 +9.9999998022864489e-01
-3.6499999999999950e+00 +8.3646321563733235e+00 +0.0000000000000000e+00 -3.6499999752830430e+00 +2.0161857192583547e-04 +0.0000000000000000e+00 +9.9999997967497578e-01
-3.6999999999999948e+00 +8.3646220063149990e+00 +0.0000000000000000e+00 -3.6999999742527900e+00 +2.0438378254809163e-04 +0.0000000000000000e+00 +9.9999997911363481e-01
-3.7499999999999947e+00 +8.3646117179929025e+00 +0.0000000000000000e+00 -3.7499999731942784e+00 +2.0714912305486093e-04 +0.0000000000000000e+00 +9.9999997854462053e-01
-3.7999999999999945e+00 +8.3646012914005041e+00 +0.0000000000000000e+00 -3.7999999721071243e+00 +2.0991459486274409e-04 +0.0000000000000000e+00 +9.9999997796793150e-01
-3.8499999999999943e+00 +8.3645907265312047e+00 +0.0000000000000000e+00 -3.8499999709909436e+00 +2.1268019937731143e-04 +0.0000000000000000e+00 +9.9999997738356650e-01
-3.8999999999999941e+00 +8.3645800233783323e+00 +0.0000000000000000e+00 -3.8999999698453527e+00 +2.1544593799310298e-04 +0.0000000000000000e+00 +9.9999997679152397e-01
-3.9499999999999940e+00 +8.3645691819351473e+00 +0.0000000000000000e+00 -3.9499999686699678e+00 +2.1821181209362848e-04 +0.0000000000000000e+00 +9.9999997619180259e-01
-3.9999999999999938e+00 +8.3645582021948410e+00 +0.0000000000000000e+00 -3.9999999674644049e+00 +2.2097782305136729e-04 +0.0000000000000000e+00 +9.9999997558440090e-01
-4.0499999999999936e+00 +8.3645470841505372e+00 +0.0000000000000000e+00 -4.0499999662282802e+00 +2.2374397222762725e-04 +0.0000000000000000e+00 +9.9999997496931747e-01
-4.0999999999999934e+00 +8.3645358277952919e+00 +0.0000000000000000e+00 -4.0999999649612091e+00 +2.2651026097099072e-04 +0.0000000000000000e+00 +9.9999997434655086e-01
-4.1499999999999932e+00 +8.3645244331220923e+00 +0.0000000000000000e+00 -4.1499999636628075e+00 +2.2927669061576056e-04 +0.0000000000000000e+00 +9.9999997371609961e-01
-4.1999999999999931e+00 +8.3645129001238594e+00 +0.0000000000000000e+00 -4.1999999623326909e+00 +2.3204326248181900e-04 +0.0000000000000000e+00 +9.9999997307796218e-01
-4.2499999999999929e+00 +8.3645012287934506e+00 +0.0000000000000000e+00 -4.2499999609704755e+00 +2.3480997787462746e-04 +0.0000000000000000e+00 +9.9999997243213712e-01
-4.2999999999999927e+00 +8.3644894191236574e+00 +0.0000000000000000e+00 -4.2999999595757767e+00 +2.3757683808522668e-04 +0.0000000000000000e+00 +9.9999997177862299e-01
-4.3499999999999925e+00 +8.3644774711072074e+00 +0.0000000000000000e+00 -4.3499999581482101e+00 +2.4034384439023670e-04 +0.0000000000000000e+00 +9.9999997111741823e-01
-4.3999999999999924e+00 +8.3644653847367625e+00 +0.0000000000000000e+00 -4.3999999566873909e+00 +2.4311099805185673e-04 +0.0000000000000000e+00 +9.9999997044852129e-01
-4.4499999999999922e+00 +8.3644531600049259e+00 +0.0000000000000000e+00 -4.4499999551929346e+00 +2.4587830031786535e-04 +0.0000000000000000e+00 +9.9999996977193062e-01
-4.4999999999999920e+00 +8.3644407969042351e+00 +0.0000000000000000e+00 -4.4999999536644557e+00 +2.4864575242162021e-04 +0.0000000000000000e+00 +9.9999996908764477e-01
-4.5499999999999918e+00 +8.3644282954271674e+00 +0.0000000000000000e+00 -4.5499999521015706e+00 +2.5141335558205835e-04 +0.0000000000000000e+00 +9.9999996839566219e-01
-4.5999999999999917e+00 +8.3644156555661393e+00 +0.0000000000000000e+00 -4.5999999505038938e+00 +2.5418111100369590e-04 +0.0000000000000000e+00 +9.9999996769598121e-01
-4.6499999999999915e+00 +8.3644028773135091e+00 +0.0000000000000000e+00 -4.6499999488710406e+00 +2.5694901987662820e-04 +0.0000000000000000e+00 +9.9999996698860039e-01
-4.6999999999999913e+00 +8.3643899606615744e+00 +0.0000000000000000e+00 -4.6999999472026257e+00 +2.5971708337652977e-04 +0.0000000000000000e+00 +9.9999996627351806e-01
-4.7499999999999911e+00 +8.3643769056025743e+00 +0.0000000000000000e+00 -4.7499999454982644e+00 +2.6248530266465421e-04 +0.0000000000000000e+00 +9.9999996555073267e-01
-4.7999999999999909e+00 +8.3643637121286911e+00 +0.0000000000000000e+00 -4.7999999437575713e+00 +2.6525367888783431e-04 +0.0000000000000000e+00 +9.9999996482024267e-01
-4.8499999999999908e+00 +8.3643503802320502e+00 +0.0000000000000000e+00 -4.8499999419801609e+00 +2.6802221317848195e-04 +0.0000000000000000e+00 +9.9999996408204639e-01
-4.8999999999999906e+00 +8.3643369099047202e+00 +0.0000000000000000e+00 -4.8999999401656478e+00 +2.7079090665458802e-04 +0.0000000000000000e+00 +9.9999996333614216e-01
-4.9499999999999904e+00 +8.3643233011387128e+00 +0.0000000000000000e+00 -4.9499999383136464e+00 +2.7355976041972246e-04 +0.0000000000000000e+00 +9.9999996258252843e-01
-4.9999999999999902e+00 +8.3643095539259882e+00 +0.0000000000000000e+00 -4.9999999364237722e+00 +2.7632877556303426e-04 +0.0000000000000000e+00 +9.9999996182120354e-01
-5.0499999999999901e+00 +8.3642956682584497e+00 +0.0000000000000000e+00 -5.0499999344956388e+00 +2.7909795315925130e-04 +0.0000000000000000e+00 +9.9999996105216593e-01
-5.0999999999999899e+00 +8.3642816441279475e+00 +0.0000000000000000e+00 -5.0999999325288607e+00 +2.8186729426868048e-04 +0.0000000000000000e+00 +9.9999996027541382e-01
-5.1499999999999897e+00 +8.3642674815262801e+00 +0.0000000000000000e+00 -5.1499999305230517e+00 +2.8463679993720757e-04 +0.0000000000000000e+00 +9.9999995949094567e-01
-5.1999999999999895e+00 +8.3642531804451945e+00 +0.0000000000000000e+00 -5.1999999284778262e+00 +2.8740647119629718e-04 +0.0000000000000000e+00 +9.9999995869875968e-01
-5.2499999999999893e+00 +8.3642387408763845e+00 +0.0000000000000000e+00 -5.2499999263927988e+00 +2.9017630906299282e-04 +0.0000000000000000e+00 +9.9999995789885432e-01
-5.2999999999999892e+00 +8.3642241628114942e+00 +0.0000000000000000e+00 -5.2999999242675830e+00 +2.9294631453991667e-04 +0.0000000000000000e+00 +9.9999995709122791e-01
-5.3499999999999890e+00 +8.3642094462421195e+00 +0.0000000000000000e+00 -5.3499999221017926e+00 +2.9571648861526968e-04 +0.0000000000000000e+00 +9.9999995627587868e-01
-5.3999999999999888e+00 +8.3641945911598068e+00 +0.0000000000000000e+00 -5.3999999198950421e+00 +2.9848683226283156e-04 +0.0000000000000000e+00 +9.9999995545280496e-01
-5.4499999999999886e+00 +8.3641795975560509e+00 +0.0000000000000000e+00 -5.4499999176469442e+00 +3.0125734644196066e-04 +0.0000000000000000e+00 +9.9999995462200508e-01
-5.4999999999999885e+00 +8.3641644654223040e+00 +0.0000000000000000e+00 -5.4999999153571135e+00 +3.0402803209759387e-04 +0.0000000000000000e+00 +9.9999995378347728e-01
-5.5499999999999883e+00 +8.3641491947499684e+00 +0.0000000000000000e+00 -5.5499999130251627e+00 +3.0679889016024667e-04 +0.0000000000000000e+00 +9.9999995293721988e-01
-5.5999999999999881e+00 +8.3641337855304005e+00 +0.0000000000000000e+00 -5.5999999106507063e+00 +3.0956992154601305e-04 +0.0000000000000000e+00 +9.9999995208323122e-01
-5.6499999999999879e+00 +8.3641182377549104e+00 +0.0000000000000000e+00 -5.6499999082333572e+00 +3.1234112715656538e-04 +0.0000000000000000e+00 +9.9999995122150953e-01
-5.6999999999999877e+00 +8.3641025514147653e+00 +0.0000000000000000e+00 -5.6999999057727289e+00 +3.1511250787915452e-04 +0.0000000000000000e+00 +9.9999995035205302e-01
-5.7499999999999876e+00 +8.3640867265011885e+00 +0.0000000000000000e+00 -5.7499999032684341e+00 +3.1788406458660960e-04 +0.0000000000000000e+00 +9.9999994947486004e-01
-5.7999999999999874e+00 +8.3640707630053583e+00 +0.0000000000000000e+00 -5.7999999007200858e+00 +3.2065579813733805e-04 +0.0000000000000000e+00 +9.9999994858992880e-01
-5.8499999999999872e+00 +8.3640546609184128e+00 +0.0000000000000000e+00 -5.8499998981272974e+00 +3.2342770937532551e-04 +0.0000000000000000e+00 +9.9999994769725764e-01
