# multipoles
# s[mm] polynom_b[n=0][T/m^n] polynom_b[n=1][T/m^n] polynom_b[n=2][T/m^n] polynom_b[n=3][T/m^n] polynom_b[n=4][T/m^n] polynom_b[n=5][T/m^n] polynom_b[n=6][T/m^n] 
-0.0000000000000000e+00 -5.5372088640439143e-01 +7.3180413727197937e+00 +4.8318034921094517e+00 -1.4584001665145047e+02 -1.6997895865405597e+04 +5.4626338083120680e+05 +1.0125552503345430e+08 
-5.0000000000000003e-02 -5.5372035350118265e-01 +7.3180785325170365e+00 +4.8287241987435197e+00 -1.4575463169540816e+02 -1.6979691318179357e+04 +5.4575258849120571e+05 +1.0118613261067767e+08 
-1.0000000000000001e-01 -5.5372012862182407e-01 +7.3181323746455202e+00 +4.8254356629324269e+00 -1.4566994575800405e+02 -1.6965072174210483e+04 +5.4531222422710375e+05 +1.0113799178145961e+08 
-1.4999999999999999e-01 -5.5372021094061041e-01 +7.3182028645146495e+00 +4.8219232351845447e+00 -1.4558623009143571e+02 -1.6953701624247919e+04 +5.4494232634389668e+05 +1.0110915012941463e+08 
-2.0000000000000001e-01 -5.5372059963190812e-01 +7.3182899675370123e+00 +4.8181722644404141e+00 -1.4550375604198655e+02 -1.6945242814362471e+04 +5.4464293385535676e+05 +1.0109765492410052e+08 
-2.5000000000000000e-01 -5.5372129386999713e-01 +7.3183936491220924e+00 +4.8141681010618562e+00 -1.4542279481436580e+02 -1.6939358936847657e+04 +5.4441408468332980e+05 +1.0110155377863343e+08 
-2.9999999999999999e-01 -5.5372229282925511e-01 +7.3185138746815630e+00 +4.8098960956194565e+00 -1.4534361766195818e+02 -1.6935713181739644e+04 +5.4425581706781127e+05 +1.0111889425638260e+08 
-3.4999999999999998e-01 -5.5372359568407170e-01 +7.3186506096294748e+00 +4.8053415991477344e+00 -1.4526649593488162e+02 -1.6933968759796822e+04 +5.4416817014091148e+05 +1.0114772409038532e+08 
-4.0000000000000002e-01 -5.5372520160875105e-01 +7.3188038193776803e+00 +4.8004899582096803e+00 -1.4519170084607998e+02 -1.6933788751039050e+04 +5.4415118182686029e+05 +1.0118609009037554e+08 
-4.5000000000000001e-01 -5.5372710977772988e-01 +7.3189734693391628e+00 +4.7953265275233186e+00 -1.4511950364574270e+02 -1.6934836467147001e+04 +5.4420489040915365e+05 +1.0123204067429252e+08 
-5.0000000000000000e-01 -5.5372931936539105e-01 +7.3191595249294235e+00 +4.7898366538134578e+00 -1.4505017565483513e+02 -1.6936774996847817e+04 +5.4432933472180262e+05 +1.0128362272342451e+08 
-5.5000000000000004e-01 -5.5373182954613220e-01 +7.3193619515631854e+00 +4.7840056887781417e+00 -1.4498398813876980e+02 -1.6939267562643057e+04 +5.4452455314291560e+05 +1.0133888401969586e+08 
-5.9999999999999998e-01 -5.5373463949443513e-01 +7.3195807146541210e+00 +4.7778189834693379e+00 -1.4492121229529786e+02 -1.6941977380269353e+04 +5.4479058348969521e+05 +1.0139587234027834e+08 
-6.5000000000000002e-01 -5.5373774838471490e-01 +7.3198157796213303e+00 +4.7712618872625621e+00 -1.4486211951912892e+02 -1.6944567601749764e+04 +5.4512746519755363e+05 +1.0145263495675375e+08 
-6.9999999999999996e-01 -5.5374115539138691e-01 +7.3200671118804879e+00 +4.7643197487804203e+00 -1.4480698104834255e+02 -1.6946701375979486e+04 +5.4553523644581588e+05 +1.0150721918609086e+08 
-7.5000000000000000e-01 -5.5374485968895659e-01 +7.3203346768503703e+00 +4.7569779201358031e+00 -1.4475606821306891e+02 -1.6948041937362330e+04 +5.4601393611268199e+05 +1.0155767288816945e+08 
-8.0000000000000004e-01 -5.5374886045191063e-01 +7.3206184399473351e+00 +4.7492217527622520e+00 -1.4470965222120674e+02 -1.6948252506625075e+04 +5.4656360207898356e+05 +1.0160204384728523e+08 
-8.4999999999999998e-01 -5.5375315685473336e-01 +7.3209183665932951e+00 +4.7410365949417148e+00 -1.4466800449068890e+02 -1.6946996213099894e+04 +5.4718427397398697e+05 +1.0163837920450093e+08 
-9.0000000000000002e-01 -5.5375774807193490e-01 +7.3212344222090513e+00 +4.7324077976978991e+00 -1.4463139636876869e+02 -1.6943936263442160e+04 +5.4787599083670916e+05 +1.0166472663272558e+08 
-9.4999999999999996e-01 -5.5376263327801112e-01 +7.3215665722147261e+00 +4.7233207115565650e+00 -1.4460009913917716e+02 -1.6938735850553552e+04 +5.4863879113776714e+05 +1.0167913371353808e+08 
-1.0000000000000000e+00 -5.5376781164754874e-01 +7.3219147820329322e+00 +4.7137606871432709e+00 -1.4457438417647742e+02 -1.6931058171246139e+04 +5.4947271412405965e+05 +1.0167964805714975e+08 
-1.0500000000000000e+00 -5.5377328235506751e-01 +7.3222790170855632e+00 +4.7037130747571974e+00 -1.4455452279167864e+02 -1.6920566410121948e+04 +5.5037779848733277e+05 +1.0166431717582795e+08 
-1.1000000000000001e+00 -5.5377904457510341e-01 +7.3226592428003796e+00 +4.6931632255136906e+00 -1.4454078652194053e+02 -1.6906923776722495e+04 +5.5135408481907996e+05 +1.0163118876352060e+08 
-1.1499999999999999e+00 -5.5378509748224380e-01 +7.3230554245997137e+00 +4.6820964876531503e+00 -1.4453344665104595e+02 -1.6889793398055859e+04 +5.5240161156839260e+05 +1.0157830993443821e+08 
-1.2000000000000000e+00 -5.5379144025108396e-01 +7.3234675279114070e+00 +4.6704982136267548e+00 -1.4453277466475981e+02 -1.6868838519402154e+04 +5.5352041885508131e+05 +1.0150372862028727e+08 
-1.2500000000000000e+00 -5.5379807205621734e-01 +7.3238955181622467e+00 +4.6583537531368648e+00 -1.4453904198122069e+02 -1.6843722307852491e+04 +5.5471054622398515e+05 +1.0140549220776740e+08 
-1.3000000000000000e+00 -5.5380499207226330e-01 +7.3243393607816722e+00 +4.6456484583185098e+00 -1.4455252010441521e+02 -1.6814107997739822e+04 +5.5597203392715298e+05 +1.0128164854449868e+08 
-1.3500000000000001e+00 -5.5381219947383131e-01 +7.3247990211986727e+00 +4.6323676770351687e+00 -1.4457348050194253e+02 -1.6779658703260840e+04 +5.5730492192897643e+05 +1.0113024464664963e+08 
-1.3999999999999999e+00 -5.5381969343554072e-01 +7.3252744648433623e+00 +4.6184967622430575e+00 -1.4460219464662561e+02 -1.6740037684289920e+04 +5.5870925016357098e+05 +1.0094932854460579e+08 
-1.4500000000000000e+00 -5.5382747313208514e-01 +7.3257656571517078e+00 +4.6040210625936417e+00 -1.4463893424050156e+02 -1.6694908073681720e+04 +5.6018506047594233e+05 +1.0073694737230657e+08 
-1.5000000000000000e+00 -5.5383553773807881e-01 +7.3262725635529673e+00 +4.5889259300493377e+00 -1.4468397069162120e+02 -1.6643933098500776e+04 +5.6173239232246240e+05 +1.0049114891471791e+08 
-1.5500000000000000e+00 -5.5384388642822102e-01 +7.3267951494847940e+00 +4.5731967152246416e+00 -1.4473757571025502e+02 -1.6586775948604292e+04 +5.6335128755135590e+05 +1.0020998070479186e+08 
-1.6000000000000001e+00 -5.5385251837719995e-01 +7.3273333803806127e+00 +4.5568187690742246e+00 -1.4480002082476790e+02 -1.6523099819316678e+04 +5.6504178655761702e+05 +9.9891490296113014e+07 
-1.6499999999999999e+00 -5.5386143275970601e-01 +7.3278872216803199e+00 +4.5397774412086545e+00 -1.4487157779593596e+02 -1.6452567874838493e+04 +5.6680393160280085e+05 +9.9533725054311007e+07 
-1.7000000000000000e+00 -5.5387062875044635e-01 +7.3284566388206622e+00 +4.5220580815208127e+00 -1.4495251823404774e+02 -1.6374843277720622e+04 +5.6863776370887412e+05 +9.9134732294917583e+07 
-1.7500000000000000e+00 -5.5388010552414868e-01 +7.3290415972427621e+00 +4.5036460415795236e+00 -1.4504311390997626e+02 -1.6289589240157869e+04 +5.7054332522171154e+05 +9.8692559689602241e+07 
-1.8000000000000000e+00 -5.5388986225552861e-01 +7.3296420623878298e+00 +4.4845266736910832e+00 -1.4514363656640850e+02 -1.6196468992375821e+04 +5.7252065821599495e+05 +9.8205255021890119e+07 
-1.8500000000000001e+00 -5.5389989811934237e-01 +7.3302579996999802e+00 +4.4646853254136545e+00 -1.4525435804604996e+02 -1.6095145636159335e+04 +5.7456980557776615e+05 +9.7670865209144250e+07 
-1.8999999999999999e+00 -5.5391021229038451e-01 +7.3308893746220196e+00 +4.4441073491582861e+00 -1.4537555010886751e+02 -1.5985282400629041e+04 +5.7669080947795603e+05 +9.7087438013000026e+07 
-1.9500000000000000e+00 -5.5392080394336884e-01 +7.3315361525999254e+00 +4.4227780950877653e+00 -1.4550748462788397e+02 -1.5866542456392441e+04 +5.7888371304480976e+05 +9.6453020811022207e+07 
-2.0000000000000000e+00 -5.5393167225311812e-01 +7.3321982990835446e+00 +4.4006829162953203e+00 -1.4565043360852758e+02 -1.5738589049405395e+04 +5.8114856045681029e+05 +9.5765661475572795e+07 
-2.0499999999999998e+00 -5.5394281628606434e-01 +7.3328757564752003e+00 +4.3778131609260775e+00 -1.4580445309072502e+02 -1.5601196650533204e+04 +5.8348428302803962e+05 +9.5024052497168347e+07 
-2.1000000000000001e+00 -5.5395423467271387e-01 +7.3335683761300530e+00 +4.3541845154704282e+00 -1.4596874976588941e+02 -1.5454592942999887e+04 +5.8588543353433546e+05 +9.4229511701284736e+07 
-2.1499999999999999e+00 -5.5396592593379779e-01 +7.3342759841619429e+00 +4.3298190056453532e+00 -1.4614232624915789e+02 -1.5299120753750965e+04 +5.8834549101891881e+05 +9.3384023865797967e+07 
-2.2000000000000002e+00 -5.5397788859013997e-01 +7.3349984066812208e+00 +4.3047386570504038e+00 -1.4632418499723514e+02 -1.5135122898067353e+04 +5.9085793316299503e+05 +9.2489573661267489e+07 
-2.2500000000000000e+00 -5.5399012116254476e-01 +7.3357354698043737e+00 +4.2789654957731305e+00 -1.4651332872222369e+02 -1.4962942212141834e+04 +5.9341623980586673e+05 +9.1548145927714199e+07 
-2.2999999999999998e+00 -5.5400262217185314e-01 +7.3364869996433466e+00 +4.2525215473991098e+00 -1.4670875993328468e+02 -1.4782921512324319e+04 +5.9601388908758364e+05 +9.0561725349731788e+07 
-2.3500000000000001e+00 -5.5401539013883772e-01 +7.3372528223136646e+00 +4.2254288391470602e+00 -1.4690948127795502e+02 -1.4595403667737544e+04 +5.9864436028443987e+05 +8.9532296998334885e+07 
-2.3999999999999999e+00 -5.5402842358434023e-01 +7.3380327639270364e+00 +4.1977093940029775e+00 -1.4711449524314082e+02 -1.4400731426537935e+04 +6.0130113136786071e+05 +8.8461845104827449e+07 
-2.4500000000000002e+00 -5.5404172102917881e-01 +7.3388266505962223e+00 +4.1693852394521080e+00 -1.4732280435310093e+02 -1.4199247665476289e+04 +6.0397768062382482e+05 +8.7352354795707181e+07 
-2.5000000000000000e+00 -5.5405528099424362e-01 +7.3396343084372315e+00 +4.1404784001767059e+00 -1.4753341125039557e+02 -1.3991295184847717e+04 +6.0666748725708399e+05 +8.6205810680276543e+07 
-2.5499999999999998e+00 -5.5406910200036497e-01 +7.3404555635620401e+00 +4.1110109025868669e+00 -1.4774531842383837e+02 -1.3777216826971204e+04 +6.0936402930195071e+05 +8.5024197632439494e+07 
-2.6000000000000001e+00 -5.5408318256836142e-01 +7.3412902420831294e+00 +4.0810047706973460e+00 -1.4795752835641065e+02 -1.3557355379926608e+04 +6.1206078464876476e+05 +8.3809500200120255e+07 
-2.6499999999999999e+00 -5.5409752121915135e-01 +7.3421381701135191e+00 +4.0504820301198166e+00 -1.4816904357829776e+02 -1.3332053668877448e+04 +6.1475123168857011e+05 +8.2563703160071954e+07 
-2.7000000000000002e+00 -5.5411211647354441e-01 +7.3429991737672795e+00 +4.0194647053571062e+00 -1.4837886663604758e+02 -1.3101654494430963e+04 +6.1742884886189550e+05 +8.1288791143583149e+07 
-2.7500000000000000e+00 -5.5412696685244933e-01 +7.3438730791546840e+00 +3.9879748228490319e+00 -1.4858599992563444e+02 -1.2866500708155783e+04 +6.2008711340443697e+05 +7.9986749123321310e+07 
-2.7999999999999998e+00 -5.5414207087677025e-01 +7.3447597123907169e+00 +3.9560344074440583e+00 -1.4878944604395576e+02 -1.2626935122436347e+04 +6.2271950423462584e+05 +7.8659561821446151e+07 
-2.8500000000000001e+00 -5.5415742706731919e-01 +7.3456588995830705e+00 +3.9236654803784199e+00 -1.4898820727488655e+02 -1.2383300449098329e+04 +6.2531949766104564e+05 +7.7309213268563002e+07 
-2.8999999999999999e+00 -5.5417303394503337e-01 +7.3465704668455807e+00 +3.8908900703191920e+00 -1.4918128616282135e+02 -1.2135939606866583e+04 +6.2788057216232165e+05 +7.5937688920038208e+07 
-2.9500000000000002e+00 -5.5418889003078964e-01 +7.3474942402856041e+00 +3.8577301991409834e+00 -1.4936768498848920e+02 -1.1885195333017879e+04 +6.3039620406983420e+05 +7.4546973010497436e+07 
-3.0000000000000000e+00 -5.5420499384549804e-01 +7.3484300460157197e+00 +3.8242078928917755e+00 -1.4954640624175849e+02 -1.1631410472867201e+04 +6.3285987140753283e+05 +7.3139050491623297e+07 
-3.0499999999999998e+00 -5.5422134391002176e-01 +7.3493777101444184e+00 +3.7903451738694929e+00 -1.4971645226285608e+02 -1.1374927779424002e+04 +6.3526505103550828e+05 +7.1715905723987937e+07 
-3.1000000000000001e+00 -5.5423793874532967e-01 +7.3503370587781731e+00 +3.7561640677663490e+00 -1.4987682528818991e+02 -1.1116090093379247e+04 +6.3760521887008147e+05 +7.0279523646499887e+07 
-3.1499999999999999e+00 -5.5425477687230129e-01 +7.3513079180269196e+00 +3.7216865978558000e+00 -1.5002652772760112e+02 -1.0855240195524464e+04 +6.3987385237609071e+05 +6.8831888815035298e+07 
-3.2000000000000002e+00 -5.5427185681184621e-01 +7.3522901139966166e+00 +3.6869347872748746e+00 -1.5016456181433810e+02 -1.0592720863813023e+04 +6.4206442749845237e+05 +6.7374985771385252e+07 
-3.2500000000000000e+00 -5.5428917708486025e-01 +7.3532834727960674e+00 +3.6519306606829547e+00 -1.5028992990983431e+02 -1.0328874918134730e+04 +6.4417042127291951e+05 +6.5910799343710281e+07 
-3.2999999999999998e+00 -5.5430673621228799e-01 +7.3542878205252320e+00 +3.6166962411349637e+00 -1.5040163401997623e+02 -1.0064045137544173e+04 +6.4618530781959265e+05 +6.4441314095173396e+07 
-3.3500000000000001e+00 -5.5432453271507165e-01 +7.3553029832934209e+00 +3.5812535508821273e+00 -1.5049867654051965e+02 -9.7985742833049062e+03 +6.4810256446439994e+05 +6.2968514484830566e+07 
-3.3999999999999999e+00 -5.5434256511408364e-01 +7.3563287871987262e+00 +3.5456246130168645e+00 -1.5058005941967991e+02 -9.5328051390924047e+03 +6.4991566489472694e+05 +6.1494385124707565e+07 
-3.4500000000000002e+00 -5.5436083193028729e-01 +7.3573650583478818e+00 +3.5098314522712486e+00 -1.5064478496626265e+02 -9.2670805365371907e+03 +6.5161808575868385e+05 +6.0020910963069603e+07 
-3.5000000000000000e+00 -5.5437933168460096e-01 +7.3584116228398466e+00 +3.4738960891725554e+00 -1.5069185517297672e+02 -9.0017431925780529e+03 +6.5320330108752265e+05 +5.8550076172333717e+07 
-3.5499999999999998e+00 -5.5439806289795868e-01 +7.3594683067746045e+00 +3.4378405474853229e+00 -1.5072027209501829e+02 -8.7371359232671712e+03 +6.5466478548297845e+05 +5.7083865639471970e+07 
-3.6000000000000001e+00 -5.5441702409131299e-01 +7.3605349362515158e+00 +3.4016868475573037e+00 -1.5072903777843311e+02 -8.4736014402103392e+03 +6.5599601349680568e+05 +5.5624263501447842e+07 
-3.6499999999999999e+00 -5.5443621378552888e-01 +7.3616113373674095e+00 +3.3654570139262185e+00 -1.5071715415326270e+02 -8.2114825819076232e+03 +6.5719045866428071e+05 +5.4173254805567905e+07 
-3.6999999999999900e+00 -5.5445563050161184e-01 +7.3626973362190302e+00 +3.3291730670613608e+00 -1.5068362318568023e+02 -7.9511220777478229e+03 +6.5824159491430735e+05 +5.2732823866051644e+07 
-3.7499999999999898e+00 -5.5447527276047859e-01 +7.3637927589001677e+00 +3.2928570295527484e+00 -1.5062744671971313e+02 -7.6928627111220003e+03 +6.5914289514281915e+05 +5.1304955351973005e+07 
-3.7999999999999901e+00 -5.5449513908303794e-01 +7.3648974315058533e+00 +3.2565309234722282e+00 -1.5054762666800491e+02 -7.4370472632040610e+03 +6.5988783283768629e+05 +4.9891633962763384e+07 
-3.8499999999999899e+00 -5.5451522799026387e-01 +7.3660111801264661e+00 +3.2202167666536310e+00 -1.5044316477443277e+02 -7.1840183935652030e+03 +6.6046988013812411e+05 +4.8494843551180698e+07 
-3.8999999999999901e+00 -5.5453553800306166e-01 +7.3671338308519365e+00 +3.1839365844599383e+00 -1.5031306276679067e+02 -6.9341189751351167e+03 +6.6088250901795540e+05 +4.7116569451743126e+07 
-3.9499999999999900e+00 -5.5455606764240428e-01 +7.3682652097735026e+00 +3.1477123945912755e+00 -1.5015632245255600e+02 -6.6876916734440074e+03 +6.6111919215250772e+05 +4.5758795595662661e+07 
-3.9999999999999898e+00 -5.5457681542918513e-01 +7.3694051429755563e+00 +3.1115662194863214e+00 -1.4997194536943363e+02 -6.4450792840156773e+03 +6.6117340003845724e+05 +4.4423506806919582e+07 
-4.0499999999999901e+00 -5.5459777975036506e-01 +7.3705534650784390e+00 +3.0755191967108098e+00 -1.4975917229811745e+02 -6.2066108247891616e+03 +6.6103996282234474e+05 +4.3112572299506292e+07 
-4.0999999999999899e+00 -5.5461895845696718e-01 +7.3717100383246112e+00 +3.0395885326376986e+00 -1.4951820311696738e+02 -5.9725479214414490e+03 +6.6071944134119281e+05 +4.1827327505293846e+07 
-4.1499999999999897e+00 -5.5464034926587980e-01 +7.3728747302575544e+00 +3.0037903629864422e+00 -1.4924947891575789e+02 -5.7431319822855012e+03 +6.6021390338866087e+05 +4.0568953706081830e+07 
-4.1999999999999904e+00 -5.5466194989416651e-01 +7.3740474084214966e+00 +2.9681408256929482e+00 -1.4895344083978841e+02 -5.5186044702272275e+03 +6.5952541722590290e+05 +3.9338632537563518e+07 
-4.2499999999999902e+00 -5.5468375805879044e-01 +7.3752279403565248e+00 +2.9326560597691751e+00 -1.4863052988360286e+02 -5.2992068799115850e+03 +6.5865604998457420e+05 +3.8137545865329154e+07 
-4.2999999999999901e+00 -5.5470577147673394e-01 +7.3764161936044381e+00 +2.8973522025529030e+00 -1.4828118712347140e+02 -5.0851806565697152e+03 +6.5760786950442207e+05 +3.6966875205036201e+07 
-4.3499999999999899e+00 -5.5472798786496946e-01 +7.3776120357029908e+00 +2.8622453899950990e+00 -1.4790585347399451e+02 -4.8767672118246537e+03 +6.5638294232321961e+05 +3.5827801863090515e+07 
-4.3999999999999897e+00 -5.5475040494045325e-01 +7.3788153341880456e+00 +2.8273517599711560e+00 -1.4750496980301793e+02 -4.6742080095230222e+03 +6.5498333471767535e+05 +3.4721507501620397e+07 
-4.4499999999999904e+00 -5.5477302042024013e-01 +7.3800259565959871e+00 +2.7926874529725474e+00 -1.4707897699961489e+02 -4.4777445781427614e+03 +6.5341111313188844e+05 +3.3649174199668117e+07 
-4.4999999999999902e+00 -5.5479583202126315e-01 +7.3812437704610376e+00 +2.7582686028827808e+00 -1.4662831589994465e+02 -4.2876182734449549e+03 +6.5166834373985464e+05 +3.2611982892402407e+07 
-4.5499999999999901e+00 -5.5481883746048910e-01 +7.3824686433118014e+00 +2.7241113493383682e+00 -1.4615342711091046e+02 -4.1040706025968766e+03 +6.4975709082206595e+05 +3.1611115525791708e+07 
-4.5999999999999899e+00 -5.5484203445492719e-01 +7.3837004426799444e+00 +2.6902318303451791e+00 -1.4565475138465371e+02 -3.9273430315278088e+03 +6.4767941993964347e+05 +3.0647753780566640e+07 
-4.6499999999999897e+00 -5.5486542072154721e-01 +7.3849390360930247e+00 +2.6566461817918845e+00 -1.4513272933367406e+02 -3.7576769669554801e+03 +6.4543739561389643e+05 +2.9723078931764811e+07 
-4.6999999999999904e+00 -5.5488899397736458e-01 +7.3861842910786208e+00 +2.6233705427948144e+00 -1.4458780157348457e+02 -3.5953138995911440e+03 +6.4303308239797212e+05 +2.8838272811755486e+07 
-4.7499999999999902e+00 -5.5491275193929845e-01 +7.3874360751592913e+00 +2.5904210502186467e+00 -1.4402040854052461e+02 -3.4404952639744370e+03 +6.4046854349811981e+05 +2.7994516896794628e+07 
-4.7999999999999901e+00 -5.5493669232435694e-01 +7.3886942558556781e+00 +2.5578138428197716e+00 -1.4343099062352402e+02 -3.2934625428699396e+03 +6.3774584182849340e+05 +2.7192992976863641e+07 
-4.8499999999999899e+00 -5.5496081284947552e-01 +7.3899587006896503e+00 +2.5255650559272627e+00 -1.4281998825468065e+02 -3.1544571244818189e+03 +6.3486704064505361e+05 +2.6434882198643815e+07 
-4.8999999999999897e+00 -5.5498511123171668e-01 +7.3912292771801829e+00 +2.4936908289055850e+00 -1.4218784180408815e+02 -3.0237205076593464e+03 +6.3183420290023496e+05 +2.5721366468870737e+07 
-4.9499999999999904e+00 -5.5500958518794674e-01 +7.3925058528388305e+00 +2.4622073001432994e+00 -1.4153499132575746e+02 -2.9014941634594738e+03 +6.2864938892381918e+05 +2.5053627498906102e+07 
-4.9999999999999902e+00 -5.5503423243521621e-01 +7.3937882951855478e+00 +2.4311306074345347e+00 -1.4086187725820699e+02 -2.7880195457019618e+03 +6.2531466233881295e+05 +2.4432846886688661e+07 
-5.0499999999999901e+00 -5.5505905069279582e-01 +7.3950764653723420e+00 +2.4004772166128800e+00 -1.4016894612564283e+02 -2.6835379068166239e+03 +6.2183208408977604e+05 +2.3860205195969954e+07 
