# trajectory
# s[mm] rx[mm] ry[mm] rz[mm] px[rad] py[rad] pz[rad]
0.0000000000000000e+00 +8.5389999999999997e+00 +0.0000000000000000e+00 +0.0000000000000000e+00 +0.0000000000000000e+00 +0.0000000000000000e+00 +1.0000000000000000e+00
-5.0000000000000003e-02 +8.5389999309542723e+00 +0.0000000000000000e+00 -4.9999999999936436e-02 +2.7618302702033898e-06 +0.0000000000000000e+00 +9.9999999999618616e-01
-1.0000000000000001e-01 +8.5389997238168416e+00 +0.0000000000000000e+00 -9.9999999999491496e-02 +5.5236684483806685e-06 +0.0000000000000000e+00 +9.9999999998474454e-01
-1.5000000000000002e-01 +8.5389993785872651e+00 +0.0000000000000000e+00 -1.4999999999828378e-01 +8.2855164025901953e-06 +0.0000000000000000e+00 +9.9999999996567512e-01
-2.0000000000000001e-01 +8.5389988952650082e+00 +0.0000000000000000e+00 -1.9999999999593188e-01 +1.1047375997894775e-05 +0.0000000000000000e+00 +9.9999999993897770e-01
-2.5000000000000000e-01 +8.5389982738494403e+00 +0.0000000000000000e+00 -2.4999999999205441e-01 +1.3809249096361740e-05 +0.0000000000000000e+00 +9.9999999990465227e-01
-2.9999999999999999e-01 +8.5389975143398420e+00 +0.0000000000000000e+00 -2.9999999998626997e-01 +1.6571137557063031e-05 +0.0000000000000000e+00 +9.9999999986269861e-01
-3.4999999999999998e-01 +8.5389966167353979e+00 +0.0000000000000000e+00 -3.4999999997819714e-01 +1.9333043236075293e-05 +0.0000000000000000e+00 +9.9999999981311660e-01
-3.9999999999999997e-01 +8.5389955810352003e+00 +0.0000000000000000e+00 -3.9999999996745450e-01 +2.2094967986479941e-05 +0.0000000000000000e+00 +9.9999999975590603e-01
-4.4999999999999996e-01 +8.5389944072382509e+00 +0.0000000000000000e+00 -4.4999999995366058e-01 +2.4856913658363261e-05 +0.0000000000000000e+00 +9.9999999969106679e-01
-4.9999999999999994e-01 +8.5389930953434554e+00 +0.0000000000000000e+00 -4.9999999993643401e-01 +2.7618882098816481e-05 +0.0000000000000000e+00 +9.9999999961859853e-01
-5.4999999999999993e-01 +8.5389916453496308e+00 +0.0000000000000000e+00 -5.4999999991539328e-01 +3.0380875151935858e-05 +0.0000000000000000e+00 +9.9999999953850105e-01
-5.9999999999999998e-01 +8.5389900572555000e+00 +0.0000000000000000e+00 -5.9999999989015695e-01 +3.3142894658822756e-05 +0.0000000000000000e+00 +9.9999999945077411e-01
-6.5000000000000002e-01 +8.5389883310596932e+00 +0.0000000000000000e+00 -6.4999999986034351e-01 +3.5904942457583743e-05 +0.0000000000000000e+00 +9.9999999935541739e-01
-7.0000000000000007e-01 +8.5389864667607522e+00 +0.0000000000000000e+00 -6.9999999982557148e-01 +3.8667020383330651e-05 +0.0000000000000000e+00 +9.9999999925243055e-01
-7.5000000000000011e-01 +8.5389844643571227e+00 +0.0000000000000000e+00 -7.4999999978545939e-01 +4.1429130268180668e-05 +0.0000000000000000e+00 +9.9999999914181337e-01
-8.0000000000000016e-01 +8.5389823238471614e+00 +0.0000000000000000e+00 -7.9999999973962566e-01 +4.4191273941256429e-05 +0.0000000000000000e+00 +9.9999999902356540e-01
-8.5000000000000020e-01 +8.5389800452291347e+00 +0.0000000000000000e+00 -8.4999999968768880e-01 +4.6953453228686077e-05 +0.0000000000000000e+00 +9.9999999889768632e-01
-9.0000000000000024e-01 +8.5389776285012147e+00 +0.0000000000000000e+00 -8.9999999962926713e-01 +4.9715669953603357e-05 +0.0000000000000000e+00 +9.9999999876417578e-01
-9.5000000000000029e-01 +8.5389750736614847e+00 +0.0000000000000000e+00 -9.4999999956397918e-01 +5.2477925936147701e-05 +0.0000000000000000e+00 +9.9999999862303335e-01
-1.0000000000000002e+00 +8.5389723807079356e+00 +0.0000000000000000e+00 -9.9999999949144325e-01 +5.5240222993464290e-05 +0.0000000000000000e+00 +9.9999999847425858e-01
-1.0500000000000003e+00 +8.5389695496384697e+00 +0.0000000000000000e+00 -1.0499999994112779e+00 +5.8002562939704154e-05 +0.0000000000000000e+00 +9.9999999831785102e-01
-1.1000000000000003e+00 +8.5389665804508965e+00 +0.0000000000000000e+00 -1.0999999993231011e+00 +6.0764947586024237e-05 +0.0000000000000000e+00 +9.9999999815381024e-01
-1.1500000000000004e+00 +8.5389634731429354e+00 +0.0000000000000000e+00 -1.1499999992265315e+00 +6.3527378740587480e-05 +0.0000000000000000e+00 +9.9999999798213579e-01
-1.2000000000000004e+00 +8.5389602277122165e+00 +0.0000000000000000e+00 -1.1999999991211874e+00 +6.6289858208562905e-05 +0.0000000000000000e+00 +9.9999999780282711e-01
-1.2500000000000004e+00 +8.5389568441562798e+00 +0.0000000000000000e+00 -1.2499999990066870e+00 +6.9052387792125684e-05 +0.0000000000000000e+00 +9.9999999761588365e-01
-1.3000000000000005e+00 +8.5389533224725724e+00 +0.0000000000000000e+00 -1.2999999988826485e+00 +7.1814969290457225e-05 +0.0000000000000000e+00 +9.9999999742130485e-01
-1.3500000000000005e+00 +8.5389496626584549e+00 +0.0000000000000000e+00 -1.3499999987486901e+00 +7.4577604499745251e-05 +0.0000000000000000e+00 +9.9999999721909016e-01
-1.4000000000000006e+00 +8.5389458647111969e+00 +0.0000000000000000e+00 -1.3999999986044303e+00 +7.7340295213183883e-05 +0.0000000000000000e+00 +9.9999999700923903e-01
-1.4500000000000006e+00 +8.5389419286279793e+00 +0.0000000000000000e+00 -1.4499999984494869e+00 +8.0103043220973691e-05 +0.0000000000000000e+00 +9.9999999679175089e-01
-1.5000000000000007e+00 +8.5389378544058907e+00 +0.0000000000000000e+00 -1.4999999982834782e+00 +8.2865850310321801e-05 +0.0000000000000000e+00 +9.9999999656662508e-01
-1.5500000000000007e+00 +8.5389336420419344e+00 +0.0000000000000000e+00 -1.5499999981060222e+00 +8.5628718265441970e-05 +0.0000000000000000e+00 +9.9999999633386094e-01
-1.6000000000000008e+00 +8.5389292915330213e+00 +0.0000000000000000e+00 -1.5999999979167370e+00 +8.8391648867554632e-05 +0.0000000000000000e+00 +9.9999999609345780e-01
-1.6500000000000008e+00 +8.5389248028759752e+00 +0.0000000000000000e+00 -1.6499999977152406e+00 +9.1154643894887009e-05 +0.0000000000000000e+00 +9.9999999584541499e-01
-1.7000000000000008e+00 +8.5389201760675295e+00 +0.0000000000000000e+00 -1.6999999975011511e+00 +9.3917705122673184e-05 +0.0000000000000000e+00 +9.9999999558973185e-01
-1.7500000000000009e+00 +8.5389154111043304e+00 +0.0000000000000000e+00 -1.7499999972740863e+00 +9.6680834323154146e-05 +0.0000000000000000e+00 +9.9999999532640760e-01
-1.8000000000000009e+00 +8.5389105079829353e+00 +0.0000000000000000e+00 -1.7999999970336644e+00 +9.9444033265577906e-05 +0.0000000000000000e+00 +9.9999999505544157e-01
-1.8500000000000010e+00 +8.5389054666998128e+00 +0.0000000000000000e+00 -1.8499999967795031e+00 +1.0220730371619953e-04 +0.0000000000000000e+00 +9.9999999477683299e-01
-1.9000000000000010e+00 +8.5389002872513426e+00 +0.0000000000000000e+00 -1.8999999965112202e+00 +1.0497064743828127e-04 +0.0000000000000000e+00 +9.9999999449058108e-01
-1.9500000000000011e+00 +8.5388949696338177e+00 +0.0000000000000000e+00 -1.9499999962284338e+00 +1.0773406619209257e-04 +0.0000000000000000e+00 +9.9999999419668495e-01
-2.0000000000000009e+00 +8.5388895138434435e+00 +0.0000000000000000e+00 -1.9999999959307613e+00 +1.1049756173491021e-04 +0.0000000000000000e+00 +9.9999999389514393e-01
-2.0500000000000007e+00 +8.5388839198763353e+00 +0.0000000000000000e+00 -2.0499999956178208e+00 +1.1326113582069905e-04 +0.0000000000000000e+00 +9.9999999358595704e-01
-2.1000000000000005e+00 +8.5388781877285229e+00 +0.0000000000000000e+00 -2.0999999952892296e+00 +1.1602479019660010e-04 +0.0000000000000000e+00 +9.9999999326912348e-01
-2.1500000000000004e+00 +8.5388723173959491e+00 +0.0000000000000000e+00 -2.1499999949446056e+00 +1.1878852659941857e-04 +0.0000000000000000e+00 +9.9999999294464237e-01
-2.2000000000000002e+00 +8.5388663088744678e+00 +0.0000000000000000e+00 -2.1999999945835662e+00 +1.2155234675530468e-04 +0.0000000000000000e+00 +9.9999999261251293e-01
-2.2500000000000000e+00 +8.5388601621598497e+00 +0.0000000000000000e+00 -2.2499999942057292e+00 +1.2431625237975367e-04 +0.0000000000000000e+00 +9.9999999227273417e-01
-2.2999999999999998e+00 +8.5388538772477780e+00 +0.0000000000000000e+00 -2.2999999938107121e+00 +1.2708024517760593e-04 +0.0000000000000000e+00 +9.9999999192530509e-01
-2.3499999999999996e+00 +8.5388474541338510e+00 +0.0000000000000000e+00 -2.3499999933981321e+00 +1.2984432684304698e-04 +0.0000000000000000e+00 +9.9999999157022479e-01
-2.3999999999999995e+00 +8.5388408928135835e+00 +0.0000000000000000e+00 -2.3999999929676070e+00 +1.3260849905960765e-04 +0.0000000000000000e+00 +9.9999999120749239e-01
-2.4499999999999993e+00 +8.5388341932824066e+00 +0.0000000000000000e+00 -2.4499999925187539e+00 +1.3537276350016400e-04 +0.0000000000000000e+00 +9.9999999083710689e-01
-2.4999999999999991e+00 +8.5388273555356680e+00 +0.0000000000000000e+00 -2.4999999920511899e+00 +1.3813712182693752e-04 +0.0000000000000000e+00 +9.9999999045906718e-01
-2.5499999999999989e+00 +8.5388203795686319e+00 +0.0000000000000000e+00 -2.5499999915645328e+00 +1.4090157569149507e-04 +0.0000000000000000e+00 +9.9999999007337237e-01
-2.5999999999999988e+00 +8.5388132653764792e+00 +0.0000000000000000e+00 -2.5999999910583997e+00 +1.4366612673474903e-04 +0.0000000000000000e+00 +9.9999998968002135e-01
-2.6499999999999986e+00 +8.5388060129543106e+00 +0.0000000000000000e+00 -2.6499999905324074e+00 +1.4643077658695730e-04 +0.0000000000000000e+00 +9.9999998927901312e-01
-2.6999999999999984e+00 +8.5387986222971453e+00 +0.0000000000000000e+00 -2.6999999899861735e+00 +1.4919552686772341e-04 +0.0000000000000000e+00 +9.9999998887034669e-01
-2.7499999999999982e+00 +8.5387910933999223e+00 +0.0000000000000000e+00 -2.7499999894193148e+00 +1.5196037918599651e-04 +0.0000000000000000e+00 +9.9999998845402083e-01
-2.7999999999999980e+00 +8.5387834262574991e+00 +0.0000000000000000e+00 -2.7999999888314480e+00 +1.5472533514007152e-04 +0.0000000000000000e+00 +9.9999998803003454e-01
-2.8499999999999979e+00 +8.5387756208646550e+00 +0.0000000000000000e+00 -2.8499999882221903e+00 +1.5749039631758903e-04 +0.0000000000000000e+00 +9.9999998759838671e-01
-2.8999999999999977e+00 +8.5387676772160876e+00 +0.0000000000000000e+00 -2.8999999875911588e+00 +1.6025556429553555e-04 +0.0000000000000000e+00 +9.9999998715907623e-01
-2.9499999999999975e+00 +8.5387595953064181e+00 +0.0000000000000000e+00 -2.9499999869379701e+00 +1.6302084064024342e-04 +0.0000000000000000e+00 +9.9999998671210188e-01
-2.9999999999999973e+00 +8.5387513751301913e+00 +0.0000000000000000e+00 -2.9999999862622411e+00 +1.6578622690739092e-04 +0.0000000000000000e+00 +9.9999998625746256e-01
-3.0499999999999972e+00 +8.5387430166818703e+00 +0.0000000000000000e+00 -3.0499999855635886e+00 +1.6855172464200232e-04 +0.0000000000000000e+00 +9.9999998579515714e-01
-3.0999999999999970e+00 +8.5387345199558435e+00 +0.0000000000000000e+00 -3.0999999848416291e+00 +1.7131733537844793e-04 +0.0000000000000000e+00 +9.9999998532518442e-01
-3.1499999999999968e+00 +8.5387258849464232e+00 +0.0000000000000000e+00 -3.1499999840959791e+00 +1.7408306064044412e-04 +0.0000000000000000e+00 +9.9999998484754316e-01
-3.1999999999999966e+00 +8.5387171116478449e+00 +0.0000000000000000e+00 -3.1999999833262556e+00 +1.7684890194105340e-04 +0.0000000000000000e+00 +9.9999998436223214e-01
-3.2499999999999964e+00 +8.5387082000542698e+00 +0.0000000000000000e+00 -3.2499999825320747e+00 +1.7961486078268450e-04 +0.0000000000000000e+00 +9.9999998386925004e-01
-3.2999999999999963e+00 +8.5386991501597826e+00 +0.0000000000000000e+00 -3.2999999817130528e+00 +1.8238093865709237e-04 +0.0000000000000000e+00 +9.9999998336859575e-01
-3.3499999999999961e+00 +8.5386899619583954e+00 +0.0000000000000000e+00 -3.3499999808688061e+00 +1.8514713704537823e-04 +0.0000000000000000e+00 +9.9999998286026792e-01
-3.3999999999999959e+00 +8.5386806354440452e+00 +0.0000000000000000e+00 -3.3999999799989515e+00 +1.8791345741798964e-04 +0.0000000000000000e+00 +9.9999998234426535e-01
-3.4499999999999957e+00 +8.5386711706105967e+00 +0.0000000000000000e+00 -3.4499999791031049e+00 +1.9067990123472053e-04 +0.0000000000000000e+00 +9.9999998182058669e-01
-3.4999999999999956e+00 +8.5386615674518413e+00 +0.0000000000000000e+00 -3.4999999781808824e+00 +1.9344646994471127e-04 +0.0000000000000000e+00 +9.9999998128923073e-01
-3.5499999999999954e+00 +8.5386518259614981e+00 +0.0000000000000000e+00 -3.5499999772319000e+00 +1.9621316498644867e-04 +0.0000000000000000e+00 +9.9999998075019603e-01
-3.5999999999999952e+00 +8.5386419461332146e+00 +0.0000000000000000e+00 -3.5999999762557739e+00 +1.9897998778776606e-04 +0.0000000000000000e+00 +9.9999998020348135e-01
-3.6499999999999950e+00 +8.5386319279605676e+00 +0.0000000000000000e+00 -3.6499999752521202e+00 +2.0174693976584337e-04 +0.0000000000000000e+00 +9.9999997964908527e-01
-3.6999999999999948e+00 +8.5386217714370627e+00 +0.0000000000000000e+00 -3.6999999742205545e+00 +2.0451402232720705e-04 +0.0000000000000000e+00 +9.9999997908700644e-01
-3.7499999999999947e+00 +8.5386114765561363e+00 +0.0000000000000000e+00 -3.7499999731606928e+00 +2.0728123686773026e-04 +0.0000000000000000e+00 +9.9999997851724354e-01
-3.7999999999999945e+00 +8.5386010433111537e+00 +0.0000000000000000e+00 -3.7999999720721509e+00 +2.1004858477263280e-04 +0.0000000000000000e+00 +9.9999997793979511e-01
-3.8499999999999943e+00 +8.5385904716954126e+00 +0.0000000000000000e+00 -3.8499999709545443e+00 +2.1281606741648120e-04 +0.0000000000000000e+00 +9.9999997735465984e-01
-3.8999999999999941e+00 +8.5385797617021435e+00 +0.0000000000000000e+00 -3.8999999698074888e+00 +2.1558368616318878e-04 +0.0000000000000000e+00 +9.9999997676183627e-01
-3.9499999999999940e+00 +8.5385689133245055e+00 +0.0000000000000000e+00 -3.9499999686305998e+00 +2.1835144236601563e-04 +0.0000000000000000e+00 +9.9999997616132297e-01
-3.9999999999999938e+00 +8.5385579265555940e+00 +0.0000000000000000e+00 -3.9999999674234927e+00 +2.2111933736756868e-04 +0.0000000000000000e+00 +9.9999997555311848e-01
-4.0499999999999936e+00 +8.5385468013884331e+00 +0.0000000000000000e+00 -4.0499999661857835e+00 +2.2388737249967917e-04 +0.0000000000000000e+00 +9.9999997493722137e-01
-4.0999999999999934e+00 +8.5385355378159851e+00 +0.0000000000000000e+00 -4.0999999649170871e+00 +2.2665554908205424e-04 +0.0000000000000000e+00 +9.9999997431363019e-01
-4.1499999999999932e+00 +8.5385241358311443e+00 +0.0000000000000000e+00 -4.1499999636170184e+00 +2.2942386842092862e-04 +0.0000000000000000e+00 +9.9999997368234339e-01
-4.1999999999999931e+00 +8.5385125954267416e+00 +0.0000000000000000e+00 -4.1999999622851929e+00 +2.3219233180894194e-04 +0.0000000000000000e+00 +9.9999997304335964e-01
-4.2499999999999929e+00 +8.5385009165955417e+00 +0.0000000000000000e+00 -4.2499999609212260e+00 +2.3496094052513880e-04 +0.0000000000000000e+00 +9.9999997239667726e-01
-4.2999999999999927e+00 +8.5384890993302456e+00 +0.0000000000000000e+00 -4.2999999595247322e+00 +2.3772969583496880e-04 +0.0000000000000000e+00 +9.9999997174229494e-01
-4.3499999999999925e+00 +8.5384771436234939e+00 +0.0000000000000000e+00 -4.3499999580953270e+00 +2.4049859899028656e-04 +0.0000000000000000e+00 +9.9999997108021099e-01
-4.3999999999999924e+00 +8.5384650494678613e+00 +0.0000000000000000e+00 -4.3999999566326249e+00 +2.4326765122935159e-04 +0.0000000000000000e+00 +9.9999997041042399e-01
-4.4499999999999922e+00 +8.5384528168558642e+00 +0.0000000000000000e+00 -4.4499999551362412e+00 +2.4603685377682847e-04 +0.0000000000000000e+00 +9.9999996973293237e-01
-4.4999999999999920e+00 +8.5384404457799583e+00 +0.0000000000000000e+00 -4.4999999536057897e+00 +2.4880620784378669e-04 +0.0000000000000000e+00 +9.9999996904773447e-01
-4.5499999999999918e+00 +8.5384279362325355e+00 +0.0000000000000000e+00 -4.5499999520408858e+00 +2.5157571462770074e-04 +0.0000000000000000e+00 +9.9999996835482885e-01
-4.5999999999999917e+00 +8.5384152882059308e+00 +0.0000000000000000e+00 -4.5999999504411440e+00 +2.5434537531245018e-04 +0.0000000000000000e+00 +9.9999996765421395e-01
-4.6499999999999915e+00 +8.5384025016924205e+00 +0.0000000000000000e+00 -4.6499999488061787e+00 +2.5711519106831940e-04 +0.0000000000000000e+00 +9.9999996694588811e-01
-4.6999999999999913e+00 +8.5383895766842208e+00 +0.0000000000000000e+00 -4.6999999471356046e+00 +2.5988516305199786e-04 +0.0000000000000000e+00 +9.9999996622984988e-01
-4.7499999999999911e+00 +8.5383765131734926e+00 +0.0000000000000000e+00 -4.7499999454290354e+00 +2.6265529240657995e-04 +0.0000000000000000e+00 +9.9999996550609749e-01
-4.7999999999999909e+00 +8.5383633111523380e+00 +0.0000000000000000e+00 -4.7999999436860854e+00 +2.6542558026156499e-04 +0.0000000000000000e+00 +9.9999996477462949e-01
-4.8499999999999908e+00 +8.5383499706128063e+00 +0.0000000000000000e+00 -4.8499999419063693e+00 +2.6819602773285725e-04 +0.0000000000000000e+00 +9.9999996403544411e-01
-4.8999999999999906e+00 +8.5383364915468860e+00 +0.0000000000000000e+00 -4.8999999400895007e+00 +2.7096663592276592e-04 +0.0000000000000000e+00 +9.9999996328853979e-01
-4.9499999999999904e+00 +8.5383228739465160e+00 +0.0000000000000000e+00 -4.9499999382350941e+00 +2.7373740592000515e-04 +0.0000000000000000e+00 +9.9999996253391499e-01
-4.9999999999999902e+00 +8.5383091178035784e+00 +0.0000000000000000e+00 -4.9999999363427632e+00 +2.7650833879969394e-04 +0.0000000000000000e+00 +9.9999996177156791e-01
-5.0499999999999901e+00 +8.5382952231099036e+00 +0.0000000000000000e+00 -5.0499999344121216e+00 +2.7927943562335619e-04 +0.0000000000000000e+00 +9.9999996100149702e-01
-5.0999999999999899e+00 +8.5382811898572673e+00 +0.0000000000000000e+00 -5.0999999324427838e+00 +2.8205069743892063e-04 +0.0000000000000000e+00 +9.9999996022370063e-01
-5.1499999999999897e+00 +8.5382670180373932e+00 +0.0000000000000000e+00 -5.1499999304343627e+00 +2.8482212528072086e-04 +0.0000000000000000e+00 +9.9999995943817699e-01
-5.1999999999999895e+00 +8.5382527076419557e+00 +0.0000000000000000e+00 -5.1999999283864726e+00 +2.8759372016949527e-04 +0.0000000000000000e+00 +9.9999995864492452e-01
-5.2499999999999893e+00 +8.5382382586625756e+00 +0.0000000000000000e+00 -5.2499999262987265e+00 +2.9036548311238712e-04 +0.0000000000000000e+00 +9.9999995784394158e-01
-5.2999999999999892e+00 +8.5382236710908259e+00 +0.0000000000000000e+00 -5.2999999241707378e+00 +2.9313741510294438e-04 +0.0000000000000000e+00 +9.9999995703522637e-01
-5.3499999999999890e+00 +8.5382089449182299e+00 +0.0000000000000000e+00 -5.3499999220021204e+00 +2.9590951712111970e-04 +0.0000000000000000e+00 +9.9999995621877724e-01
-5.3999999999999888e+00 +8.5381940801362628e+00 +0.0000000000000000e+00 -5.3999999197924868e+00 +2.9868179013327063e-04 +0.0000000000000000e+00 +9.9999995539459252e-01
-5.4499999999999886e+00 +8.5381790767363501e+00 +0.0000000000000000e+00 -5.4499999175414509e+00 +3.0145423509215922e-04 +0.0000000000000000e+00 +9.9999995456267043e-01
-5.4999999999999885e+00 +8.5381639347098712e+00 +0.0000000000000000e+00 -5.4999999152486252e+00 +3.0422685293695229e-04 +0.0000000000000000e+00 +9.9999995372300932e-01
-5.5499999999999883e+00 +8.5381486540481593e+00 +0.0000000000000000e+00 -5.5499999129136226e+00 +3.0699964459322121e-04 +0.0000000000000000e+00 +9.9999995287560739e-01
-5.5999999999999881e+00 +8.5381332347424994e+00 +0.0000000000000000e+00 -5.5999999105360567e+00 +3.0977261097294204e-04 +0.0000000000000000e+00 +9.9999995202046299e-01
-5.6499999999999879e+00 +8.5381176767841342e+00 +0.0000000000000000e+00 -5.6499999081155403e+00 +3.1254575297449527e-04 +0.0000000000000000e+00 +9.9999995115757434e-01
-5.6999999999999877e+00 +8.5381019801642601e+00 +0.0000000000000000e+00 -5.6999999056516852e+00 +3.1531907148266603e-04 +0.0000000000000000e+00 +9.9999995028693978e-01
-5.7499999999999876e+00 +8.5380861448740291e+00 +0.0000000000000000e+00 -5.7499999031441051e+00 +3.1809256736864384e-04 +0.0000000000000000e+00 +9.9999994940855741e-01
-5.7999999999999874e+00 +8.5380701709045521e+00 +0.0000000000000000e+00 -5.7999999005924119e+00 +3.2086624149002264e-04 +0.0000000000000000e+00 +9.9999994852242557e-01
-5.8499999999999872e+00 +8.5380540582468960e+00 +0.0000000000000000e+00 -5.8499998979962182e+00 +3.2364009469080087e-04 +0.0000000000000000e+00 +9.9999994762854250e-01
