# multipoles
# s[mm] polynom_b[n=0][T/m^n] polynom_b[n=1][T/m^n] polynom_b[n=2][T/m^n] polynom_b[n=3][T/m^n] polynom_b[n=4][T/m^n] polynom_b[n=5][T/m^n] polynom_b[n=6][T/m^n] 
+0.0000000000000000e+00 -5.5459890815237090e-01 +7.2577508990231614e+00 +5.3816852791821042e+00 -8.8121191816037392e+00 +1.1129339182580331e+03 -2.5564732566779002e+05 +1.5373104012217665e+07 
-5.0000000000000003e-02 -5.5459977599037980e-01 +7.2577765761096478e+00 +5.3822429257738644e+00 -8.5366064231512251e+00 +1.0985599087164262e+03 -2.5817158155679060e+05 +1.5369017313795773e+07 
-1.0000000000000001e-01 -5.5460102706991554e-01 +7.2578239730985095e+00 +5.3821499857669952e+00 -8.2618648504046224e+00 +1.0876211195695826e+03 -2.6072077112884622e+05 +1.5348028707336962e+07 
-1.5000000000000002e-01 -5.5460266055428342e-01 +7.2578930005440689e+00 +5.3814144197056217e+00 -7.9881106622848632e+00 +1.0799648279079713e+03 -2.6329038869542984e+05 +1.5311040634433435e+07 
-2.0000000000000001e-01 -5.5460467560678239e-01 +7.2579835689926764e+00 +5.3800441832792725e+00 -7.7155597051846172e+00 +1.0754384467728644e+03 -2.6587593145431834e+05 +1.5258954600101316e+07 
-2.5000000000000000e-01 -5.5460707139073662e-01 +7.2580955889984198e+00 +5.3780472338449368e+00 -7.4444281233799527e+00 +1.0738893406213037e+03 -2.6847289412282262e+05 +1.5192672452017607e+07 
-2.9999999999999999e-01 -5.5460984706948868e-01 +7.2582289711143106e+00 +5.3754315286094538e+00 -7.1749319674383738e+00 +1.0751648811874954e+03 -2.7107677228265867e+05 +1.5113095974652870e+07 
-3.4999999999999998e-01 -5.5461300180641138e-01 +7.2583836258906995e+00 +5.3722050268962098e+00 -6.9072871565936005e+00 +1.0791123811399314e+03 -2.7368306258276018e+05 +1.5021127363825534e+07 
-3.9999999999999997e-01 -5.5461653476488160e-01 +7.2585594638861721e+00 +5.3683756857509728e+00 -6.6417099281470628e+00 +1.0855792152569077e+03 -2.7628725901881140e+05 +1.4917668390015658e+07 
-4.4999999999999996e-01 -5.5462044510830744e-01 +7.2587563956538270e+00 +5.3639514640411159e+00 -6.3784162448994390e+00 +1.0944127131670759e+03 -2.7888485793849768e+05 +1.4803621115613732e+07 
-4.9999999999999994e-01 -5.5462473200008977e-01 +7.2589743317487478e+00 +5.3589403169810375e+00 -6.1176221382045339e+00 +1.1054602960217280e+03 -2.8147135507191269e+05 +1.4679887011244530e+07 
-5.4999999999999993e-01 -5.5462939460368188e-01 +7.2592131827297202e+00 +5.3533502055850652e+00 -5.8595437546644584e+00 +1.1185692334005837e+03 -2.8404224524565408e+05 +1.4547368551825814e+07 
-5.9999999999999998e-01 -5.5463443208251972e-01 +7.2594728591532283e+00 +5.3471890846169225e+00 -5.6043971106512878e+00 +1.1335869627777759e+03 -2.8659302438376105e+05 +1.4406967081522482e+07 
-6.5000000000000002e-01 -5.5463984360008944e-01 +7.2597532715791706e+00 +5.3404649147328422e+00 -5.3523983417067269e+00 +1.1503607642449504e+03 -2.8911918742487603e+05 +1.4259584998747021e+07 
-7.0000000000000007e-01 -5.5464562831986663e-01 +7.2600543305674856e+00 +5.3331856520158389e+00 -5.1037635581027709e+00 +1.1687380359497984e+03 -2.9161622950726870e+05 +1.4106123927616041e+07 
-7.5000000000000011e-01 -5.5465178540535387e-01 +7.2603759466760902e+00 +5.3253592536080747e+00 -4.8587087410170211e+00 +1.1885661548323665e+03 -2.9407964691012085e+05 +1.3947485603261286e+07 
-8.0000000000000016e-01 -5.5465831402008747e-01 +7.2607180304676602e+00 +5.3169936803237805e+00 -4.6174500533361353e+00 +1.2096923926914103e+03 -2.9650493437825789e+05 +1.3784572494836817e+07 
-8.5000000000000020e-01 -5.5466521332758845e-01 +7.2610804925024315e+00 +5.3080968868283058e+00 -4.3802035246671585e+00 +1.2319641907445048e+03 -2.9888758777088393e+05 +1.3618285912363736e+07 
-9.0000000000000024e-01 -5.5467248249142531e-01 +7.2614632433460491e+00 +5.2986768336849268e+00 -4.1471853785760224e+00 +1.2552288292886576e+03 -3.0122310136662662e+05 +1.3449528255828550e+07 
-9.5000000000000029e-01 -5.5468012067516870e-01 +7.2618661935559778e+00 +5.2887414783913140e+00 -3.9186114670377075e+00 +1.2793336722603997e+03 -3.0350697254087706e+05 +1.3279201359199846e+07 
-1.0000000000000002e+00 -5.5468812704240444e-01 +7.2622892537020354e+00 +5.2782987789148397e+00 -3.6946981278010873e+00 +1.3041260677396358e+03 -3.0573469465426943e+05 +1.3108207169961471e+07 
-1.0500000000000003e+00 -5.5469650075673271e-01 +7.2627323343449968e+00 +5.2673566921128607e+00 -3.4756612966712948e+00 +1.3294533997063991e+03 -3.0790176439234259e+05 +1.2937447369245216e+07 
-1.1000000000000003e+00 -5.5470524098178298e-01 +7.2631953460520897e+00 +5.2559231777523792e+00 -3.2617171408292895e+00 +1.3551629681700583e+03 -3.1000367657115078e+05 +1.2767824225825662e+07 
-1.1500000000000004e+00 -5.5471434688119114e-01 +7.2636781993872725e+00 +5.2440061938055393e+00 -3.0530816788901927e+00 +1.3811021206154019e+03 -3.1203592719008599e+05 +1.2600239688224861e+07 
-1.2000000000000004e+00 -5.5472381761862133e-01 +7.2641808049180714e+00 +5.2316137002869816e+00 -2.8499710266378488e+00 +1.4071181545222794e+03 -3.1399401153606060e+05 +1.2435596018816331e+07 
-1.2500000000000004e+00 -5.5473365235771965e-01 +7.2647030732121971e+00 +5.2187536511632313e+00 -2.6526012987002598e+00 +1.4330585271829068e+03 -3.1587342484423955e+05 +1.2274794412903799e+07 
-1.3000000000000005e+00 -5.5474385026219231e-01 +7.2652449148363631e+00 +5.2054340087144162e+00 -2.4611885240333806e+00 +1.4587704698209766e+03 -3.1766966312985023e+05 +1.2118737595538318e+07 
-1.3500000000000005e+00 -5.5475441049573804e-01 +7.2658062403574819e+00 +5.1916627304614398e+00 -2.2759487294438667e+00 +1.4841013463129659e+03 -3.1937822237167892e+05 +1.1968327377028452e+07 
-1.4000000000000006e+00 -5.5476533222207391e-01 +7.2663869603473703e+00 +5.1774477754681261e+00 -2.0970980954779779e+00 +1.5088984704548429e+03 -3.2099459737475327e+05 +1.1824465933380287e+07 
-1.4500000000000006e+00 -5.5477661460493510e-01 +7.2669869853730180e+00 +5.1627971024488257e+00 -1.9248525924523396e+00 +1.5330091739036554e+03 -3.2251428461224603e+05 +1.1688055285667593e+07 
-1.5000000000000007e+00 -5.5478825680805988e-01 +7.2676062260048022e+00 +5.1477186683049654e+00 -1.7594282968314821e+00 +1.5562808324277466e+03 -3.2393277972451155e+05 +1.1559997170742935e+07 
-1.5500000000000007e+00 -5.5480025799522081e-01 +7.2682445928136632e+00 +5.1322204333101986e+00 -1.6010412750674043e+00 +1.5785607311956046e+03 -3.2524557847099111e+05 +1.1441193933157261e+07 
-1.6000000000000008e+00 -5.5481261733020604e-01 +7.2689019963713921e+00 +5.1163103580980476e+00 -1.4499076166989662e+00 +1.5996961446872290e+03 -3.2644817636098008e+05 +1.1332547988521731e+07 
-1.6500000000000008e+00 -5.5482533397678768e-01 +7.2695783472455862e+00 +5.0999963978206209e+00 -1.3062431903312572e+00 +1.6195344933015108e+03 -3.2753607083047653e+05 +1.1234960769536398e+07 
-1.7000000000000008e+00 -5.5483840709880017e-01 +7.2702735560124738e+00 +5.0832865156810350e+00 -1.1702642078069205e+00 +1.6379229841953932e+03 -3.2850475642120728e+05 +1.1149335132399954e+07 
-1.7500000000000009e+00 -5.5485183586005504e-01 +7.2709875332415503e+00 +5.0661886687141120e+00 -1.0421865690240886e+00 +1.6547089878997406e+03 -3.2934973030420835e+05 +1.1076572832824416e+07 
-1.8000000000000009e+00 -5.5486561942439583e-01 +7.2717201895055465e+00 +5.0487108172274722e+00 -9.2222629192242100e-01 +1.6697397826041513e+03 -3.3006648862496391e+05 +1.1017576263071084e+07 
-1.8500000000000010e+00 -5.5487975695566782e-01 +7.2724714353802584e+00 +5.0308609187785907e+00 -8.1059947446983938e-01 +1.6828627276488546e+03 -3.3065052696983865e+05 +1.0973247235587215e+07 
-1.9000000000000010e+00 -5.5489424761775441e-01 +7.2732411814371325e+00 +5.0126469359476955e+00 -7.0752202460880154e-01 +1.6939250368965338e+03 -3.3109734242883913e+05 +1.0944488578153905e+07 
-1.9500000000000011e+00 -5.5490909057452786e-01 +7.2740293382492567e+00 +4.9940768259834343e+00 -6.1320988672681431e-01 +1.7027740769166144e+03 -3.3140243182748015e+05 +1.0932202049425637e+07 
-2.0000000000000009e+00 -5.5492428498988389e-01 +7.2748358163921756e+00 +4.9751585487766299e+00 -5.2787907593949512e-01 +1.7092571352441257e+03 -3.3156129142089078e+05 +1.0937289962907786e+07 
-2.0500000000000007e+00 -5.5493982982828716e-01 +7.2756605137497843e+00 +4.9558990732298289e+00 -4.5157183263704276e-01 +1.7132702562271347e+03 -3.3157143730306422e+05 +1.0960325342978315e+07 
-2.1000000000000005e+00 -5.5495572325588205e-01 +7.2765032729593377e+00 +4.9363016480214652e+00 -3.8367904551284554e-01 +1.7149031234905081e+03 -3.3143829692762630e+05 +1.1000595563287446e+07 
-2.1500000000000004e+00 -5.5497196323914388e-01 +7.2773639217080301e+00 +4.9163686665276103e+00 -3.2343917702010899e-01 +1.7142933859983514e+03 -3.3116924452248908e+05 +1.1057075327214258e+07 
-2.2000000000000002e+00 -5.5498854774451567e-01 +7.2782422876943400e+00 +4.8961025143702805e+00 -2.7009112208172026e-01 +1.7115789029878601e+03 -3.3077165083455032e+05 +1.1128737913879482e+07 
-2.2500000000000000e+00 -5.5500547473851058e-01 +7.2791381986083490e+00 +4.8755055874172681e+00 -2.2287343708514157e-01 +1.7068972545197144e+03 -3.3025288932002353e+05 +1.1214558501160756e+07 
-2.2999999999999998e+00 -5.5502274218758985e-01 +7.2800514821461899e+00 +4.8545802708418453e+00 -1.8102490172094141e-01 +1.7003863103035549e+03 -3.2962033163592539e+05 +1.1313510299552908e+07 
-2.3499999999999996e+00 -5.5504034805828173e-01 +7.2809819660005193e+00 +4.8333289589529409e+00 -1.4378415413714166e-01 +1.6921836940045403e+03 -3.2888135054444865e+05 +1.1424568186450757e+07 
-2.3999999999999995e+00 -5.5505829031708587e-01 +7.2819294778659946e+00 +4.8117540396851481e+00 -1.1038989815780531e-01 +1.6824271984074007e+03 -3.2804331827832351e+05 +1.1546705902998906e+07 
-2.4499999999999993e+00 -5.5507656693052498e-01 +7.2828938454361980e+00 +4.7898579030118675e+00 -8.0080793071769671e-02 +1.6712545611878820e+03 -3.2711360739675944e+05 +1.1678897566607354e+07 
-2.4999999999999991e+00 -5.5509517586514034e-01 +7.2838748964079096e+00 +4.7676429401338298e+00 -5.2095608314045569e-02 +1.6588034892599287e+03 -3.2609958957569732e+05 +1.1820117490287405e+07 
-2.5499999999999989e+00 -5.5511411508747344e-01 +7.2848724584775821e+00 +4.7451115409041469e+00 -2.5673102088419469e-02 +1.6452117210939070e+03 -3.2500863653276092e+05 +1.1969339792516772e+07 
-2.5999999999999988e+00 -5.5513338256406264e-01 +7.2858863593375665e+00 +4.7222660923376267e+00 -5.1861835883954491e-05 +1.6306170759948714e+03 -3.2384812136069871e+05 +1.2125538032001765e+07 
-2.6499999999999986e+00 -5.5515297626148885e-01 +7.2869164266858570e+00 +4.6991089877223891e+00 +2.5529307830696436e-02 +1.6151571997330648e+03 -3.2262541537369130e+05 +1.2287686955117593e+07 
-2.6999999999999984e+00 -5.5517289414631177e-01 +7.2879624882161442e+00 +4.6756426148663515e+00 +5.1831777140118225e-02 +1.5989698839378555e+03 -3.2134789127838425e+05 +1.2454760331377586e+07 
-2.7499999999999982e+00 -5.5519313418511196e-01 +7.2890243716277574e+00 +4.6518693631079620e+00 +7.9616691105850457e-02 +1.5821928856636398e+03 -3.2002291992098861e+05 +1.2625732138153808e+07 
-2.7999999999999980e+00 -5.5521369434448209e-01 +7.2901019046147137e+00 +4.6277916230768463e+00 +1.0964541000259588e-01 +1.5649639177614972e+03 -3.1865787386505853e+05 +1.2799576689489521e+07 
-2.8499999999999979e+00 -5.5523457259101883e-01 +7.2911949148768525e+00 +4.6034117838880224e+00 +1.4267906280431136e-01 +1.5474207396480622e+03 -3.1726012377404200e+05 +1.2975267963157631e+07 
-2.8999999999999977e+00 -5.5525576689131595e-01 +7.2923032301061790e+00 +4.5787322330702462e+00 +1.7947909875476362e-01 +1.5297011492933275e+03 -3.1583704290667770e+05 +1.3151779693348585e+07 
-2.9499999999999975e+00 -5.5527727521197601e-01 +7.2934266780027581e+00 +4.5537553578641043e+00 +2.2080663988849636e-01 +1.5119429549808940e+03 -3.1439600181432528e+05 +1.3328085536616426e+07 
-2.9999999999999973e+00 -5.5529909551964485e-01 +7.2945650862640905e+00 +4.5284835520797921e+00 +2.6742290234199573e-01 +1.4942837829942603e+03 -3.1294437175134459e+05 +1.3503160399498807e+07 
-3.0499999999999972e+00 -5.5532122578092236e-01 +7.2957182825858435e+00 +4.5029191995816635e+00 +3.2008918605386982e-01 +1.4768615326629354e+03 -3.1148952467353723e+05 +1.3675977324180553e+07 
-3.0999999999999970e+00 -5.5534366396245971e-01 +7.2968860946673262e+00 +4.4770646920898356e+00 +3.7956662952677883e-01 +1.4598138861278717e+03 -3.1003883113871288e+05 +1.3845510846485307e+07 
-3.1499999999999968e+00 -5.5536640803088455e-01 +7.2980683502040904e+00 +4.4509224159464083e+00 +4.4661653284818292e-01 +1.4432786727461248e+03 -3.0859966304141853e+05 +1.4010734497130932e+07 
-3.1999999999999966e+00 -5.5538945595284339e-01 +7.2992648768957551e+00 +4.4244947594035100e+00 +5.2200001849738353e-01 +1.4273936685939316e+03 -3.0717939075007912e+05 +1.4170622176510535e+07 
-3.2499999999999964e+00 -5.5541280569499241e-01 +7.3004755024373811e+00 +4.3977841113203500e+00 +6.0647838782465913e-01 +1.4122966309731428e+03 -3.0578538606362557e+05 +1.4324147924445856e+07 
-3.2999999999999963e+00 -5.5543645522398044e-01 +7.3017000545291246e+00 +4.3707928576638260e+00 +7.0081273714659187e-01 +1.3981253990524181e+03 -3.0442501909415971e+05 +1.4470285214324860e+07 
-3.3499999999999961e+00 -5.5546040250647988e-01 +7.3029383608675120e+00 +4.3435233875532040e+00 +8.0576428628199204e-01 +1.3850177233291004e+03 -3.0310566085222428e+05 +1.4608008134219617e+07 
-3.3999999999999959e+00 -5.5548464550915166e-01 +7.3041902491514046e+00 +4.3159780871709277e+00 +9.2209417511658864e-01 +1.3731114332133250e+03 -3.0183468175034324e+05 +1.4736290241507975e+07 
-3.4499999999999957e+00 -5.5550918219867562e-01 +7.3054555470778713e+00 +4.2881593447601105e+00 +1.0505635882647937e+00 +1.3625443002881445e+03 -3.0061945244805672e+05 +1.4854105497849785e+07 
-3.4999999999999956e+00 -5.5553401054171736e-01 +7.3067340823474032e+00 +4.2600695448289132e+00 +1.1919335709786874e+00 +1.3534542006098716e+03 -2.9946734245003306e+05 +1.4960427145181648e+07 
-3.5499999999999954e+00 -5.5555912850497213e-01 +7.3080256826541143e+00 +4.2317110765372314e+00 +1.3469654140771412e+00 +1.3459788768621565e+03 -2.9838572322545550e+05 +1.5054229361457653e+07 
-3.5999999999999952e+00 -5.5558453405512442e-01 +7.3093301756978279e+00 +4.2030863254437660e+00 +1.5164201680827540e+00 +1.3402561764906050e+03 -2.9738196422968211e+05 +1.5134485589707680e+07 
-3.6499999999999950e+00 -5.5561022515886160e-01 +7.3106473891777846e+00 +4.1741976772808371e+00 +1.7010588947212204e+00 +1.3364239367462137e+03 -2.9646343497134309e+05 +1.5200169364539424e+07 
-3.6999999999999948e+00 -5.5563619978287315e-01 +7.3119771507901241e+00 +4.1450475169486394e+00 +1.9016427609656050e+00 +1.3346200161891156e+03 -2.9563750573850702e+05 +1.5250254087004703e+07 
-3.7499999999999947e+00 -5.5566245589386787e-01 +7.3133192882329574e+00 +4.1156382319160132e+00 +2.1189328539846088e+00 +1.3349822062104922e+03 -2.9491154616824596e+05 +1.5283713604340881e+07 
-3.7999999999999945e+00 -5.5568899145854223e-01 +7.3146736292047247e+00 +4.0859722067832971e+00 +2.3536902237565376e+00 +1.3376483714724370e+03 -2.9429292551602470e+05 +1.5299521289032018e+07 
-3.8499999999999943e+00 -5.5571580444360924e-01 +7.3160400014039269e+00 +4.0560518278603199e+00 +2.6066758952305213e+00 +1.3427563341286518e+03 -2.9378901273834129e+05 +1.5296650791232051e+07 
-3.8999999999999941e+00 -5.5574289281576283e-01 +7.3174182325256814e+00 +4.0258794779619000e+00 +2.8786510286737523e+00 +1.3504440052062785e+03 -2.9340717791515670e+05 +1.5274075182639251e+07 
-3.9499999999999940e+00 -5.5577025454171591e-01 +7.3188081502698861e+00 +3.9954575418949196e+00 +3.1703765603722149e+00 +1.3608492435282274e+03 -2.9315478918196540e+05 +1.5230767889065640e+07 
-3.9999999999999938e+00 -5.5579788758818227e-01 +7.3202095823334057e+00 +3.9647884045000019e+00 +3.4826135548984620e+00 +1.3741099066343061e+03 -2.9303921572371764e+05 +1.5165702349826464e+07 
-4.0499999999999936e+00 -5.5582578977638342e-01 +7.3216223610737758e+00 +3.9338749188796394e+00 +3.8158963607330323e+00 +1.3903295607807952e+03 -2.9306617195658345e+05 +1.5078126204668267e+07 
-4.0999999999999934e+00 -5.5585395834622786e-01 +7.3230463284802658e+00 +3.9027217645802468e+00 +4.1699410090398059e+00 +1.4094819908736897e+03 -2.9323537096400670e+05 +1.4968328778462715e+07 
-4.1499999999999932e+00 -5.5588239039256437e-01 +7.3244813267140403e+00 +3.8713341124757514e+00 +4.5442796974305626e+00 +1.4315096364896192e+03 -2.9354517365961842e+05 +1.4836851175913606e+07 
-4.1999999999999931e+00 -5.5591108301019332e-01 +7.3259271979369842e+00 +3.8397171246235962e+00 +4.9384445749554882e+00 +1.4563551747281383e+03 -2.9399394059170998e+05 +1.4684232908317117e+07 
-4.2499999999999929e+00 -5.5594003329396002e-01 +7.3273837843088616e+00 +3.8078759704767067e+00 +5.3519678944587907e+00 +1.4839610885834024e+03 -2.9458003326226951e+05 +1.4511014777208598e+07 
-4.2999999999999927e+00 -5.5596923833868106e-01 +7.3288509279913114e+00 +3.7758158139867519e+00 +5.7843817999248728e+00 +1.5142700066526684e+03 -2.9530181218446244e+05 +1.4317736619779972e+07 
-4.3499999999999925e+00 -5.5599869523919032e-01 +7.3303284711462471e+00 +3.7435418221771974e+00 +6.2352184571425937e+00 +1.5472244759767896e+03 -2.9615763822549826e+05 +1.4104938817682555e+07 
-4.3999999999999924e+00 -5.5602840109032614e-01 +7.3318162559327495e+00 +3.7110591620048279e+00 +6.7040101149374998e+00 +1.5827670489854449e+03 -2.9714587284519034e+05 +1.3873161708629603e+07 
-4.4499999999999922e+00 -5.5605835298691431e-01 +7.3333141245148363e+00 +3.6783729988977538e+00 +7.1902888350393708e+00 +1.6208403124504960e+03 -2.9826487606632058e+05 +1.3622945428700725e+07 
-4.4999999999999920e+00 -5.5608854802378604e-01 +7.3348219190512243e+00 +3.6454884981005864e+00 +7.6935868762041464e+00 +1.6613868673087970e+03 -2.9951300950173062e+05 +1.3354829985743888e+07 
-4.5499999999999918e+00 -5.5611898329578302e-01 +7.3363394817027014e+00 +3.6124108271849686e+00 +8.2134364342447466e+00 +1.7043492490733918e+03 -3.0088863438169035e+05 +1.3069355841515822e+07 
-4.5999999999999917e+00 -5.5614965589773291e-01 +7.3378666546316875e+00 +3.5791451508765673e+00 +8.7493695981911710e+00 +1.7496700694336591e+03 -3.0239011094100517e+05 +1.2767062953747101e+07 
-4.6499999999999915e+00 -5.5618056292448370e-01 +7.3394032799989706e+00 +3.5456966372882670e+00 +9.3009185465847874e+00 +1.7972918532377009e+03 -3.0401580031038640e+05 +1.2448491851157580e+07 
-4.6999999999999913e+00 -5.5621170147086541e-01 +7.3409491999651948e+00 +3.5120704518432575e+00 +9.8676154519164943e+00 +1.8471571934457618e+03 -3.0576406356680818e+05 +1.2114182622986564e+07 
-4.7499999999999911e+00 -5.5624306863171968e-01 +7.3425042566881986e+00 +3.4782717613993777e+00 +1.0448992593657247e+01 +1.8992086519100876e+03 -3.0763326270158764e+05 +1.1764675544351622e+07 
-4.7999999999999909e+00 -5.5627466150187610e-01 +7.3440682923327421e+00 +3.4443057314757994e+00 +1.1044581963330648e+01 +1.9533888209664417e+03 -3.0962175737611769e+05 +1.1400510709404498e+07 
-4.8499999999999908e+00 -5.5630647717617132e-01 +7.3456411490564912e+00 +3.4101775281679130e+00 +1.1653915833197251e+01 +2.0096402835848785e+03 -3.1172790958138061e+05 +1.1022228258528268e+07 
-4.8999999999999906e+00 -5.5633851274944457e-01 +7.3472226690204421e+00 +3.3758923190118244e+00 +1.2276526342983583e+01 +2.0679055796846678e+03 -3.1395008031109808e+05 +1.0630368639937570e+07 
-4.9499999999999904e+00 -5.5637076531652474e-01 +7.3488126943859164e+00 +3.3414552689568033e+00 +1.2911945604143360e+01 +2.1281273269957687e+03 -3.1628663032339030e+05 +1.0225471753959596e+07 
-4.9999999999999902e+00 -5.5640323197225672e-01 +7.3504110673110459e+00 +3.3068715465802700e+00 +1.3559705852230728e+01 +2.1902480407789676e+03 -3.1873592145235877e+05 +9.8080782133731749e+06 
-5.0499999999999901e+00 -5.5643590981147062e-01 +7.3520176299582385e+00 +3.2721463182850221e+00 +1.4219339145911833e+01 +2.2542102969423408e+03 -3.2129631413386815e+05 +9.3787282178620659e+06 
