# trajectory
# s[mm] rx[mm] ry[mm] rz[mm] px[rad] py[rad] pz[rad]
0.0000000000000000e+00 +8.5389999999999997e+00 +0.0000000000000000e+00 +0.0000000000000000e+00 +0.0000000000000000e+00 +0.0000000000000000e+00 +1.0000000000000000e+00
5.0000000000000003e-02 +8.5389999310637634e+00 +0.0000000000000000e+00 +4.9999999999936644e-02 -2.7574433618372968e-06 +0.0000000000000000e+00 +9.9999999999619826e-01
1.0000000000000001e-01 +8.5389997242562572e+00 +0.0000000000000000e+00 +9.9999999999493105e-02 -5.5148511222396272e-06 +0.0000000000000000e+00 +9.9999999998479316e-01
1.5000000000000002e-01 +8.5389993795792130e+00 +0.0000000000000000e+00 +1.4999999999828922e-01 -8.2722251842696191e-06 +0.0000000000000000e+00 +9.9999999996578515e-01
2.0000000000000001e-01 +8.5389988970342685e+00 +0.0000000000000000e+00 +1.9999999999594489e-01 -1.1029567451476066e-05 +0.0000000000000000e+00 +9.9999999993917432e-01
2.5000000000000000e-01 +8.5389982766229657e+00 +0.0000000000000000e+00 +2.4999999999207995e-01 -1.3786879827894005e-05 +0.0000000000000000e+00 +9.9999999990496102e-01
2.9999999999999999e-01 +8.5389975183467524e+00 +0.0000000000000000e+00 +2.9999999998631427e-01 -1.6544164218044819e-05 +0.0000000000000000e+00 +9.9999999986314536e-01
3.4999999999999998e-01 +8.5389966222069784e+00 +0.0000000000000000e+00 +3.4999999997826775e-01 -1.9301422526936308e-05 +0.0000000000000000e+00 +9.9999999981372756e-01
3.9999999999999997e-01 +8.5389955882049016e+00 +0.0000000000000000e+00 +3.9999999996756030e-01 -2.2058656660062797e-05 +0.0000000000000000e+00 +9.9999999975670784e-01
4.4999999999999996e-01 +8.5389944163416835e+00 +0.0000000000000000e+00 +4.4999999995381185e-01 -2.4815868523405209e-05 +0.0000000000000000e+00 +9.9999999969208631e-01
4.9999999999999994e-01 +8.5389931066183884e+00 +0.0000000000000000e+00 +4.9999999993664224e-01 -2.7573060023431167e-05 +0.0000000000000000e+00 +9.9999999961986319e-01
5.4999999999999993e-01 +8.5389916590359878e+00 +0.0000000000000000e+00 +5.4999999991567150e-01 -3.0330233067095076e-05 +0.0000000000000000e+00 +9.9999999954003849e-01
5.9999999999999998e-01 +8.5389900735953574e+00 +0.0000000000000000e+00 +5.9999999989051944e-01 -3.3087389561838208e-05 +0.0000000000000000e+00 +9.9999999945261231e-01
6.5000000000000002e-01 +8.5389883502972754e+00 +0.0000000000000000e+00 +6.4999999986080603e-01 -3.5844531415588805e-05 +0.0000000000000000e+00 +9.9999999935758477e-01
7.0000000000000007e-01 +8.5389864891424274e+00 +0.0000000000000000e+00 +6.9999999982615124e-01 -3.8601660536762147e-05 +0.0000000000000000e+00 +9.9999999925495586e-01
7.5000000000000011e-01 +8.5389844901314014e+00 +0.0000000000000000e+00 +7.4999999978617493e-01 -4.1358778834260667e-05 +0.0000000000000000e+00 +9.9999999914472570e-01
8.0000000000000016e-01 +8.5389823532646911e+00 +0.0000000000000000e+00 +7.9999999974049707e-01 -4.4115888217474011e-05 +0.0000000000000000e+00 +9.9999999902689418e-01
8.5000000000000020e-01 +8.5389800785426964e+00 +0.0000000000000000e+00 +8.4999999968873763e-01 -4.6872990596279146e-05 +0.0000000000000000e+00 +9.9999999890146141e-01
9.0000000000000024e-01 +8.5389776659657173e+00 +0.0000000000000000e+00 +8.9999999963051647e-01 -4.9630087881040441e-05 +0.0000000000000000e+00 +9.9999999876842727e-01
9.5000000000000029e-01 +8.5389751155339617e+00 +0.0000000000000000e+00 +9.4999999956545356e-01 -5.2387181982609766e-05 +0.0000000000000000e+00 +9.9999999862779165e-01
1.0000000000000002e+00 +8.5389724272475398e+00 +0.0000000000000000e+00 +9.9999999949316887e-01 -5.5144274812326567e-05 +0.0000000000000000e+00 +9.9999999847955456e-01
1.0500000000000003e+00 +8.5389696011064693e+00 +0.0000000000000000e+00 +1.0499999994132823e+00 -5.7901368282017960e-05 +0.0000000000000000e+00 +9.9999999832371589e-01
1.1000000000000003e+00 +8.5389666371106685e+00 +0.0000000000000000e+00 +1.0999999993254137e+00 -6.0658464303998814e-05 +0.0000000000000000e+00 +9.9999999816027552e-01
1.1500000000000004e+00 +8.5389635352599633e+00 +0.0000000000000000e+00 +1.1499999992291832e+00 -6.3415564791071850e-05 +0.0000000000000000e+00 +9.9999999798923322e-01
1.2000000000000004e+00 +8.5389602955540820e+00 +0.0000000000000000e+00 +1.1999999991242103e+00 -6.6172671656527734e-05 +0.0000000000000000e+00 +9.9999999781058890e-01
1.2500000000000004e+00 +8.5389569179926585e+00 +0.0000000000000000e+00 +1.2499999990101152e+00 -6.8929786814145145e-05 +0.0000000000000000e+00 +9.9999999762434233e-01
1.3000000000000005e+00 +8.5389534025752294e+00 +0.0000000000000000e+00 +1.2999999988865176e+00 -7.1686912178190869e-05 +0.0000000000000000e+00 +9.9999999743049339e-01
1.3500000000000005e+00 +8.5389497493012385e+00 +0.0000000000000000e+00 +1.3499999987530378e+00 -7.4444049663419896e-05 +0.0000000000000000e+00 +9.9999999722904187e-01
1.4000000000000006e+00 +8.5389459581700304e+00 +0.0000000000000000e+00 +1.3999999986092952e+00 -7.7201201185075511e-05 +0.0000000000000000e+00 +9.9999999701998743e-01
1.4500000000000006e+00 +8.5389420291808555e+00 +0.0000000000000000e+00 +1.4499999984549099e+00 -7.9958368658889368e-05 +0.0000000000000000e+00 +9.9999999680332985e-01
1.5000000000000007e+00 +8.5389379623328683e+00 +0.0000000000000000e+00 +1.4999999982895016e+00 -8.2715554001081592e-05 +0.0000000000000000e+00 +9.9999999657906880e-01
1.5500000000000007e+00 +8.5389337576251272e+00 +0.0000000000000000e+00 +1.5499999981126902e+00 -8.5472759128360851e-05 +0.0000000000000000e+00 +9.9999999634720393e-01
1.6000000000000008e+00 +8.5389294150565949e+00 +0.0000000000000000e+00 +1.5999999979240953e+00 -8.8229985957924461e-05 +0.0000000000000000e+00 +9.9999999610773505e-01
1.6500000000000008e+00 +8.5389249346261380e+00 +0.0000000000000000e+00 +1.6499999977233368e+00 -9.0987236407458471e-05 +0.0000000000000000e+00 +9.9999999586066168e-01
1.7000000000000008e+00 +8.5389203163325291e+00 +0.0000000000000000e+00 +1.6999999975100346e+00 -9.3744512395137742e-05 +0.0000000000000000e+00 +9.9999999560598352e-01
1.7500000000000009e+00 +8.5389155601744413e+00 +0.0000000000000000e+00 +1.7499999972838083e+00 -9.6501815839626057e-05 +0.0000000000000000e+00 +9.9999999534370010e-01
1.8000000000000009e+00 +8.5389106661504552e+00 +0.0000000000000000e+00 +1.7999999970442777e+00 -9.9259148660076158e-05 +0.0000000000000000e+00 +9.9999999507381099e-01
1.8500000000000010e+00 +8.5389056342590539e+00 +0.0000000000000000e+00 +1.8499999967910625e+00 -1.0201651277612989e-04 +0.0000000000000000e+00 +9.9999999479631585e-01
1.9000000000000010e+00 +8.5389004644986244e+00 +0.0000000000000000e+00 +1.8999999965237824e+00 -1.0477391010791826e-04 +0.0000000000000000e+00 +9.9999999451121413e-01
1.9500000000000011e+00 +8.5388951568674578e+00 +0.0000000000000000e+00 +1.9499999962420571e+00 -1.0753134257606154e-04 +0.0000000000000000e+00 +9.9999999421850538e-01
2.0000000000000009e+00 +8.5388897113637494e+00 +0.0000000000000000e+00 +1.9999999959455061e+00 -1.1028881210166933e-04 +0.0000000000000000e+00 +9.9999999391818917e-01
2.0500000000000007e+00 +8.5388841279855985e+00 +0.0000000000000000e+00 +2.0499999956337494e+00 -1.1304632060601156e-04 +0.0000000000000000e+00 +9.9999999361026493e-01
2.1000000000000005e+00 +8.5388784067310084e+00 +0.0000000000000000e+00 +2.0999999953064061e+00 -1.1580387000689814e-04 +0.0000000000000000e+00 +9.9999999329473210e-01
2.1500000000000004e+00 +8.5388725475978848e+00 +0.0000000000000000e+00 +2.1499999949630957e+00 -1.1856146221505863e-04 +0.0000000000000000e+00 +9.9999999297159015e-01
2.2000000000000002e+00 +8.5388665505840411e+00 +0.0000000000000000e+00 +2.1999999946034383e+00 -1.2131909913381327e-04 +0.0000000000000000e+00 +9.9999999264083839e-01
2.2500000000000000e+00 +8.5388604156871946e+00 +0.0000000000000000e+00 +2.2499999942270530e+00 -1.2407678265907295e-04 +0.0000000000000000e+00 +9.9999999230247627e-01
2.2999999999999998e+00 +8.5388541429049667e+00 +0.0000000000000000e+00 +2.2999999938335591e+00 -1.2683451467933936e-04 +0.0000000000000000e+00 +9.9999999195650324e-01
2.3499999999999996e+00 +8.5388477322348866e+00 +0.0000000000000000e+00 +2.3499999934225766e+00 -1.2959229707570503e-04 +0.0000000000000000e+00 +9.9999999160291853e-01
2.3999999999999995e+00 +8.5388411836743874e+00 +0.0000000000000000e+00 +2.3999999929937244e+00 -1.3235013172185341e-04 +0.0000000000000000e+00 +9.9999999124172156e-01
2.4499999999999993e+00 +8.5388344972208117e+00 +0.0000000000000000e+00 +2.4499999925466218e+00 -1.3510802048405897e-04 +0.0000000000000000e+00 +9.9999999087291169e-01
2.4999999999999991e+00 +8.5388276728714061e+00 +0.0000000000000000e+00 +2.4999999920808884e+00 -1.3786596522118717e-04 +0.0000000000000000e+00 +9.9999999049648813e-01
2.5499999999999989e+00 +8.5388207106233249e+00 +0.0000000000000000e+00 +2.5499999915961435e+00 -1.4062396778469468e-04 +0.0000000000000000e+00 +9.9999999011245011e-01
2.5999999999999988e+00 +8.5388136104736319e+00 +0.0000000000000000e+00 +2.5999999910920066e+00 -1.4338203001862935e-04 +0.0000000000000000e+00 +9.9999998972079696e-01
2.6499999999999986e+00 +8.5388063724192982e+00 +0.0000000000000000e+00 +2.6499999905680967e+00 -1.4614015375963031e-04 +0.0000000000000000e+00 +9.9999998932152789e-01
2.6999999999999984e+00 +8.5387989964572011e+00 +0.0000000000000000e+00 +2.6999999900240326e+00 -1.4889834083692800e-04 +0.0000000000000000e+00 +9.9999998891464226e-01
2.7499999999999982e+00 +8.5387914825841289e+00 +0.0000000000000000e+00 +2.7499999894594338e+00 -1.5165659307234431e-04 +0.0000000000000000e+00 +9.9999998850013905e-01
2.7999999999999980e+00 +8.5387838307967776e+00 +0.0000000000000000e+00 +2.7999999888739193e+00 -1.5441491228029261e-04 +0.0000000000000000e+00 +9.9999998807801760e-01
2.8499999999999979e+00 +8.5387760410917544e+00 +0.0000000000000000e+00 +2.8499999882671085e+00 -1.5717330026777780e-04 +0.0000000000000000e+00 +9.9999998764827702e-01
2.8999999999999977e+00 +8.5387681134655740e+00 +0.0000000000000000e+00 +2.8999999876386200e+00 -1.5993175883439637e-04 +0.0000000000000000e+00 +9.9999998721091643e-01
2.9499999999999975e+00 +8.5387600479146641e+00 +0.0000000000000000e+00 +2.9499999869880731e+00 -1.6269028977233650e-04 +0.0000000000000000e+00 +9.9999998676593493e-01
2.9999999999999973e+00 +8.5387518444353603e+00 +0.0000000000000000e+00 +2.9999999863150864e+00 -1.6544889486637813e-04 +0.0000000000000000e+00 +9.9999998631333176e-01
3.0499999999999972e+00 +8.5387435030239107e+00 +0.0000000000000000e+00 +3.0499999856192792e+00 -1.6820757589389301e-04 +0.0000000000000000e+00 +9.9999998585310590e-01
3.0999999999999970e+00 +8.5387350236764750e+00 +0.0000000000000000e+00 +3.0999999849002702e+00 -1.7096633462484470e-04 +0.0000000000000000e+00 +9.9999998538525636e-01
3.1499999999999968e+00 +8.5387264063891237e+00 +0.0000000000000000e+00 +3.1499999841576778e+00 -1.7372517282178873e-04 +0.0000000000000000e+00 +9.9999998490978226e-01
3.1999999999999966e+00 +8.5387176511578389e+00 +0.0000000000000000e+00 +3.1999999833911210e+00 -1.7648409223987264e-04 +0.0000000000000000e+00 +9.9999998442668270e-01
3.2499999999999964e+00 +8.5387087579785170e+00 +0.0000000000000000e+00 +3.2499999826002188e+00 -1.7924309462683598e-04 +0.0000000000000000e+00 +9.9999998393595657e-01
3.2999999999999963e+00 +8.5386997268469642e+00 +0.0000000000000000e+00 +3.2999999817845898e+00 -1.8200218172301040e-04 +0.0000000000000000e+00 +9.9999998343760299e-01
3.3499999999999961e+00 +8.5386905577589030e+00 +0.0000000000000000e+00 +3.3499999809438523e+00 -1.8476135526131977e-04 +0.0000000000000000e+00 +9.9999998293162085e-01
3.3999999999999959e+00 +8.5386812507099688e+00 +0.0000000000000000e+00 +3.3999999800776251e+00 -1.8752061696728016e-04 +0.0000000000000000e+00 +9.9999998241800914e-01
3.4499999999999957e+00 +8.5386718056957083e+00 +0.0000000000000000e+00 +3.4499999791855260e+00 -1.9027996855899992e-04 +0.0000000000000000e+00 +9.9999998189676675e-01
3.4999999999999956e+00 +8.5386622227115865e+00 +0.0000000000000000e+00 +3.4999999782671742e+00 -1.9303941174717975e-04 +0.0000000000000000e+00 +9.9999998136789270e-01
3.5499999999999954e+00 +8.5386525017529795e+00 +0.0000000000000000e+00 +3.5499999773221882e+00 -1.9579894823511276e-04 +0.0000000000000000e+00 +9.9999998083138586e-01
3.5999999999999952e+00 +8.5386426428151800e+00 +0.0000000000000000e+00 +3.5999999763501860e+00 -1.9855857971868451e-04 +0.0000000000000000e+00 +9.9999998028724513e-01
3.6499999999999950e+00 +8.5386326458933954e+00 +0.0000000000000000e+00 +3.6499999753507857e+00 -2.0131830788637305e-04 +0.0000000000000000e+00 +9.9999997973546939e-01
3.6999999999999948e+00 +8.5386225109827514e+00 +0.0000000000000000e+00 +3.6999999743236058e+00 -2.0407813441924904e-04 +0.0000000000000000e+00 +9.9999997917605743e-01
3.7499999999999947e+00 +8.5386122380782865e+00 +0.0000000000000000e+00 +3.7499999732682645e+00 -2.0683806099097568e-04 +0.0000000000000000e+00 +9.9999997860900813e-01
3.7999999999999945e+00 +8.5386018271749577e+00 +0.0000000000000000e+00 +3.7999999721843793e+00 -2.0959808926780893e-04 +0.0000000000000000e+00 +9.9999997803432039e-01
3.8499999999999943e+00 +8.5385912782676368e+00 +0.0000000000000000e+00 +3.8499999710715689e+00 -2.1235822090859741e-04 +0.0000000000000000e+00 +9.9999997745199287e-01
3.8999999999999941e+00 +8.5385805913511152e+00 +0.0000000000000000e+00 +3.8999999699294512e+00 -2.1511845756478251e-04 +0.0000000000000000e+00 +9.9999997686202446e-01
3.9499999999999940e+00 +8.5385697664201015e+00 +0.0000000000000000e+00 +3.9499999687576439e+00 -2.1787880088039850e-04 +0.0000000000000000e+00 +9.9999997626441395e-01
3.9999999999999938e+00 +8.5385588034692219e+00 +0.0000000000000000e+00 +3.9999999675557651e+00 -2.2063925249207248e-04 +0.0000000000000000e+00 +9.9999997565915999e-01
4.0499999999999936e+00 +8.5385477024930196e+00 +0.0000000000000000e+00 +4.0499999663234325e+00 -2.2339981402881204e-04 +0.0000000000000000e+00 +9.9999997504626137e-01
4.0999999999999934e+00 +8.5385364634859595e+00 +0.0000000000000000e+00 +4.0999999650602641e+00 -2.2616048710966821e-04 +0.0000000000000000e+00 +9.9999997442571686e-01
4.1499999999999932e+00 +8.5385250864424229e+00 +0.0000000000000000e+00 +4.1499999637658771e+00 -2.2892127334139841e-04 +0.0000000000000000e+00 +9.9999997379752514e-01
4.1999999999999931e+00 +8.5385135713567131e+00 +0.0000000000000000e+00 +4.1999999624398896e+00 -2.3168217431825404e-04 +0.0000000000000000e+00 +9.9999997316168487e-01
4.2499999999999929e+00 +8.5385019182230533e+00 +0.0000000000000000e+00 +4.2499999610819188e+00 -2.3444319162198055e-04 +0.0000000000000000e+00 +9.9999997251819472e-01
4.2999999999999927e+00 +8.5384901270355869e+00 +0.0000000000000000e+00 +4.2999999596915819e+00 -2.3720432682181739e-04 +0.0000000000000000e+00 +9.9999997186705347e-01
4.3499999999999925e+00 +8.5384781977883808e+00 +0.0000000000000000e+00 +4.3499999582684969e+00 -2.3996558147449808e-04 +0.0000000000000000e+00 +9.9999997120825967e-01
4.3999999999999924e+00 +8.5384661304754239e+00 +0.0000000000000000e+00 +4.3999999568122803e+00 -2.4272695712425021e-04 +0.0000000000000000e+00 +9.9999997054181189e-01
4.4499999999999922e+00 +8.5384539250906268e+00 +0.0000000000000000e+00 +4.4499999553225500e+00 -2.4548845530279550e-04 +0.0000000000000000e+00 +9.9999996986770889e-01
4.4999999999999920e+00 +8.5384415816278256e+00 +0.0000000000000000e+00 +4.4999999537989233e+00 -2.4825007752934979e-04 +0.0000000000000000e+00 +9.9999996918594924e-01
4.5499999999999918e+00 +8.5384291000807817e+00 +0.0000000000000000e+00 +4.5499999522410173e+00 -2.5101182531062300e-04 +0.0000000000000000e+00 +9.9999996849653150e-01
4.5999999999999917e+00 +8.5384164804431784e+00 +0.0000000000000000e+00 +4.5999999506484492e+00 -2.5377370014081929e-04 +0.0000000000000000e+00 +9.9999996779945421e-01
4.6499999999999915e+00 +8.5384037227086260e+00 +0.0000000000000000e+00 +4.6499999490208355e+00 -2.5653570350163700e-04 +0.0000000000000000e+00 +9.9999996709471606e-01
4.6999999999999913e+00 +8.5383908268706623e+00 +0.0000000000000000e+00 +4.6999999473577931e+00 -2.5929783686226858e-04 +0.0000000000000000e+00 +9.9999996638231547e-01
4.7499999999999911e+00 +8.5383777929227502e+00 +0.0000000000000000e+00 +4.7499999456589395e+00 -2.6206010167940073e-04 +0.0000000000000000e+00 +9.9999996566225113e-01
4.7999999999999909e+00 +8.5383646208582800e+00 +0.0000000000000000e+00 +4.7999999439238907e+00 -2.6482249939721445e-04 +0.0000000000000000e+00 +9.9999996493452148e-01
4.8499999999999908e+00 +8.5383513106705724e+00 +0.0000000000000000e+00 +4.8499999421522642e+00 -2.6758503144738482e-04 +0.0000000000000000e+00 +9.9999996419912507e-01
4.8999999999999906e+00 +8.5383378623528738e+00 +0.0000000000000000e+00 +4.8999999403436760e+00 -2.7034769924908126e-04 +0.0000000000000000e+00 +9.9999996345606035e-01
4.9499999999999904e+00 +8.5383242758983613e+00 +0.0000000000000000e+00 +4.9499999384977427e+00 -2.7311050420896746e-04 +0.0000000000000000e+00 +9.9999996270532576e-01
4.9999999999999902e+00 +8.5383105513001425e+00 +0.0000000000000000e+00 +4.9999999366140804e+00 -2.7587344772120131e-04 +0.0000000000000000e+00 +9.9999996194691987e-01
5.0499999999999901e+00 +8.5382966885512559e+00 +0.0000000000000000e+00 +5.0499999346923063e+00 -2.7863653116743493e-04 +0.0000000000000000e+00 +9.9999996118084111e-01
5.0999999999999899e+00 +8.5382826876446707e+00 +0.0000000000000000e+00 +5.0999999327320369e+00 -2.8139975591681481e-04 +0.0000000000000000e+00 +9.9999996040708805e-01
5.1499999999999897e+00 +8.5382685485732868e+00 +0.0000000000000000e+00 +5.1499999307328874e+00 -2.8416312332598163e-04 +0.0000000000000000e+00 +9.9999995962565902e-01
5.1999999999999895e+00 +8.5382542713299383e+00 +0.0000000000000000e+00 +5.1999999286944742e+00 -2.8692663473907040e-04 +0.0000000000000000e+00 +9.9999995883655246e-01
5.2499999999999893e+00 +8.5382398559073902e+00 +0.0000000000000000e+00 +5.2499999266164146e+00 -2.8969029148771038e-04 +0.0000000000000000e+00 +9.9999995803976682e-01
5.2999999999999892e+00 +8.5382253022983452e+00 +0.0000000000000000e+00 +5.2999999244983229e+00 -2.9245409489102509e-04 +0.0000000000000000e+00 +9.9999995723530044e-01
5.3499999999999890e+00 +8.5382106104954349e+00 +0.0000000000000000e+00 +5.3499999223398165e+00 -2.9521804625563239e-04 +0.0000000000000000e+00 +9.9999995642315176e-01
5.3999999999999888e+00 +8.5381957804912307e+00 +0.0000000000000000e+00 +5.3999999201405107e+00 -2.9798214687564432e-04 +0.0000000000000000e+00 +9.9999995560331922e-01
5.4499999999999886e+00 +8.5381808122782381e+00 +0.0000000000000000e+00 +5.4499999179000209e+00 -3.0074639803266722e-04 +0.0000000000000000e+00 +9.9999995477580117e-01
5.4999999999999885e+00 +8.5381657058488969e+00 +0.0000000000000000e+00 +5.4999999156179626e+00 -3.0351080099580175e-04 +0.0000000000000000e+00 +9.9999995394059593e-01
5.5499999999999883e+00 +8.5381504611955865e+00 +0.0000000000000000e+00 +5.5499999132939521e+00 -3.0627535702164278e-04 +0.0000000000000000e+00 +9.9999995309770184e-01
5.5999999999999881e+00 +8.5381350783106225e+00 +0.0000000000000000e+00 +5.5999999109276049e+00 -3.0904006735427939e-04 +0.0000000000000000e+00 +9.9999995224711735e-01
5.6499999999999879e+00 +8.5381195571862580e+00 +0.0000000000000000e+00 +5.6499999085185362e+00 -3.1180493322529495e-04 +0.0000000000000000e+00 +9.9999995138884068e-01
5.6999999999999877e+00 +8.5381038978146861e+00 +0.0000000000000000e+00 +5.6999999060663606e+00 -3.1456995585376707e-04 +0.0000000000000000e+00 +9.9999995052287027e-01
5.7499999999999876e+00 +8.5380881001880393e+00 +0.0000000000000000e+00 +5.7499999035706946e+00 -3.1733513644626756e-04 +0.0000000000000000e+00 +9.9999994964920436e-01
5.7999999999999874e+00 +8.5380721642983897e+00 +0.0000000000000000e+00 +5.7999999010311525e+00 -3.2010047619686235e-04 +0.0000000000000000e+00 +9.9999994876784126e-01
5.8499999999999872e+00 +8.5380560901377489e+00 +0.0000000000000000e+00 +5.8499998984473498e+00 -3.2286597628711168e-04 +0.0000000000000000e+00 +9.9999994787877933e-01
5.8999999999999870e+00 +8.5380398776980702e+00 +0.0000000000000000e+00 +5.8999998958189019e+00 -3.2563163788606992e-04 +0.0000000000000000e+00 +9.9999994698201677e-01
