# field on trajectory
# s[mm] rx[mm] ry[mm] rz[mm] bx[T] by[T] bz[T]
0.0000000000000000e+00 +8.3650000000000002e+00 +0.0000000000000000e+00 +0.0000000000000000e+00 -2.6901626908996692e-02 -5.2454111043483176e-01 +5.3525359311692887e-03
-5.0000000000000003e-02 +8.3649999310189109e+00 +0.0000000000000000e+00 -4.9999999999936554e-02 -2.6901769342696297e-02 -5.2454182135229954e-01 +5.3531776399655074e-03
-1.0000000000000001e-01 +8.3649997240755027e+00 +0.0000000000000000e+00 -9.9999999999492439e-02 -2.6901934406674984e-02 -5.2454289018038491e-01 +5.3538197810192234e-03
-1.5000000000000002e-01 +8.3649993791694950e+00 +0.0000000000000000e+00 -1.4999999999828698e-01 -2.6902121946215610e-02 -5.2454431634267118e-01 +5.3544623544836403e-03
-2.0000000000000001e-01 +8.3649988963005129e+00 +0.0000000000000000e+00 -1.9999999999593948e-01 -2.6902331806601894e-02 -5.2454609926275775e-01 +5.3551053605120731e-03
-2.5000000000000000e-01 +8.3649982754680874e+00 +0.0000000000000000e+00 -2.4999999999206929e-01 -2.6902563833118558e-02 -5.2454823836426112e-01 +5.3557487992579485e-03
-2.9999999999999999e-01 +8.3649975166716555e+00 +0.0000000000000000e+00 -2.9999999998629573e-01 -2.6902817871051317e-02 -5.2455073307081324e-01 +5.3563926708747982e-03
-3.4999999999999998e-01 +8.3649966199105616e+00 +0.0000000000000000e+00 -3.4999999997823805e-01 -2.6903093765686972e-02 -5.2455358280606268e-01 +5.3570369755162424e-03
-3.9999999999999997e-01 +8.3649955851840545e+00 +0.0000000000000000e+00 -3.9999999996751562e-01 -2.6903391362313421e-02 -5.2455678699367381e-01 +5.3576817133359914e-03
-4.4999999999999996e-01 +8.3649944124912938e+00 +0.0000000000000000e+00 -4.4999999995374768e-01 -2.6903710506219786e-02 -5.2456034505732718e-01 +5.3583268844878311e-03
-4.9999999999999994e-01 +8.3649931018313417e+00 +0.0000000000000000e+00 -4.9999999993655353e-01 -2.6904051042696393e-02 -5.2456425642071924e-01 +5.3589724891256124e-03
-5.4999999999999993e-01 +8.3649916532031714e+00 +0.0000000000000000e+00 -5.4999999991555248e-01 -2.6904412817034838e-02 -5.2456852050756264e-01 +5.3596185274032513e-03
-5.9999999999999998e-01 +8.3649900666056602e+00 +0.0000000000000000e+00 -5.9999999989036368e-01 -2.6904795674528106e-02 -5.2457313674158501e-01 +5.3602649994747105e-03
-6.5000000000000002e-01 +8.3649883420375932e+00 +0.0000000000000000e+00 -6.4999999986060641e-01 -2.6905199460470576e-02 -5.2457810454653120e-01 +5.3609119054940100e-03
-7.0000000000000007e-01 +8.3649864794976647e+00 +0.0000000000000000e+00 -6.9999999982590000e-01 -2.6905624020158076e-02 -5.2458342334616059e-01 +5.3615592456151906e-03
-7.5000000000000011e-01 +8.3649844789844767e+00 +0.0000000000000000e+00 -7.4999999978586362e-01 -2.6906069198887897e-02 -5.2458909256424835e-01 +5.3622070199923271e-03
-8.0000000000000016e-01 +8.3649823404965371e+00 +0.0000000000000000e+00 -7.9999999974011649e-01 -2.6906534841958967e-02 -5.2459511162458550e-01 +5.3628552287795176e-03
-8.5000000000000020e-01 +8.3649800640322631e+00 +0.0000000000000000e+00 -8.4999999968827777e-01 -2.6907020794671783e-02 -5.2460147995097905e-01 +5.3635038721308670e-03
-9.0000000000000024e-01 +8.3649776495899797e+00 +0.0000000000000000e+00 -8.9999999962996657e-01 -2.6907526902328539e-02 -5.2460819696725047e-01 +5.3641529502004830e-03
-9.5000000000000029e-01 +8.3649750971679211e+00 +0.0000000000000000e+00 -9.4999999956480208e-01 -2.6908053010233163e-02 -5.2461526209723708e-01 +5.3648024631424733e-03
-1.0000000000000002e+00 +8.3649724067642275e+00 +0.0000000000000000e+00 -9.9999999949240348e-01 -2.6908598963691337e-02 -5.2462267476479185e-01 +5.3654524111109289e-03
-1.0500000000000003e+00 +8.3649695783769502e+00 +0.0000000000000000e+00 -1.0499999994123899e+00 -2.6909164608010606e-02 -5.2463043439378276e-01 +5.3661027942599167e-03
-1.1000000000000003e+00 +8.3649666120040482e+00 +0.0000000000000000e+00 -1.0999999993243803e+00 -2.6909749788500394e-02 -5.2463854040809255e-01 +5.3667536127434785e-03
-1.1500000000000004e+00 +8.3649635076433899e+00 +0.0000000000000000e+00 -1.1499999992279939e+00 -2.6910354350472090e-02 -5.2464699223161992e-01 +5.3674048667156212e-03
-1.2000000000000004e+00 +8.3649602652927513e+00 +0.0000000000000000e+00 -1.1999999991228496e+00 -2.6910978139239077e-02 -5.2465578928827816e-01 +5.3680565563303008e-03
-1.2500000000000004e+00 +8.3649568849498195e+00 +0.0000000000000000e+00 -1.2499999990085666e+00 -2.6911621000116785e-02 -5.2466493100199552e-01 +5.3687086817414140e-03
-1.3000000000000005e+00 +8.3649533666121911e+00 +0.0000000000000000e+00 -1.2999999988847637e+00 -2.6912282778422787e-02 -5.2467441679671556e-01 +5.3693612431028083e-03
-1.3500000000000005e+00 +8.3649497102773704e+00 +0.0000000000000000e+00 -1.3499999987510600e+00 -2.6912963319476787e-02 -5.2468424609639641e-01 +5.3700142405682539e-03
-1.4000000000000006e+00 +8.3649459159427710e+00 +0.0000000000000000e+00 -1.3999999986070744e+00 -2.6913662468600743e-02 -5.2469441832501096e-01 +5.3706676742914404e-03
-1.4500000000000006e+00 +8.3649419836057195e+00 +0.0000000000000000e+00 -1.4499999984524257e+00 -2.6914380071118852e-02 -5.2470493290654718e-01 +5.3713215444259662e-03
-1.5000000000000007e+00 +8.3649379132634483e+00 +0.0000000000000000e+00 -1.4999999982867329e+00 -2.6915115972357705e-02 -5.2471578926500773e-01 +5.3719758511253518e-03
-1.5500000000000007e+00 +8.3649337049131027e+00 +0.0000000000000000e+00 -1.5499999981096149e+00 -2.6915870017646205e-02 -5.2472698682440955e-01 +5.3726305945429971e-03
-1.6000000000000008e+00 +8.3649293585517395e+00 +0.0000000000000000e+00 -1.5999999979206905e+00 -2.6916642052315764e-02 -5.2473852500878404e-01 +5.3732857748321969e-03
-1.6500000000000008e+00 +8.3649248741763227e+00 +0.0000000000000000e+00 -1.6499999977195783e+00 -2.6917431921700249e-02 -5.2475040324217859e-01 +5.3739413921461299e-03
-1.7000000000000008e+00 +8.3649202517837278e+00 +0.0000000000000000e+00 -1.6999999975058973e+00 -2.6918239471136099e-02 -5.2476262094865234e-01 +5.3745974466378379e-03
-1.7500000000000009e+00 +8.3649154913707413e+00 +0.0000000000000000e+00 -1.7499999972792661e+00 -2.6919064545962355e-02 -5.2477517755228176e-01 +5.3752539384602366e-03
-1.8000000000000009e+00 +8.3649105929340610e+00 +0.0000000000000000e+00 -1.7999999970393035e+00 -2.6919906991520710e-02 -5.2478807247715520e-01 +5.3759108677660884e-03
-1.8500000000000010e+00 +8.3649055564702959e+00 +0.0000000000000000e+00 -1.8499999967856280e+00 -2.6920766653155587e-02 -5.2480130514737655e-01 +5.3765682347080117e-03
-1.9000000000000010e+00 +8.3649003819759642e+00 +0.0000000000000000e+00 -1.8999999965178582e+00 -2.6921643376214180e-02 -5.2481487498706370e-01 +5.3772260394384548e-03
-1.9500000000000011e+00 +8.3648950694474991e+00 +0.0000000000000000e+00 -1.9499999962356127e+00 -2.6922537006046490e-02 -5.2482878142034817e-01 +5.3778842821097031e-03
-2.0000000000000009e+00 +8.3648896188812412e+00 +0.0000000000000000e+00 -1.9999999959385102e+00 -2.6923447388005443e-02 -5.2484302387137682e-01 +5.3785429628738692e-03
-2.0500000000000007e+00 +8.3648840302734460e+00 +0.0000000000000000e+00 -2.0499999956261687e+00 -2.6924374372698626e-02 -5.2485760151214167e-01 +5.3792020749671319e-03
-2.1000000000000005e+00 +8.3648783036202783e+00 +0.0000000000000000e+00 -2.0999999952982074e+00 -2.6925317831742703e-02 -5.2487251250597877e-01 +5.3798615839625637e-03
-2.1500000000000004e+00 +8.3648724389178177e+00 +0.0000000000000000e+00 -2.1499999949542441e+00 -2.6926277642006557e-02 -5.2488775476406790e-01 +5.3805214485174516e-03
-2.2000000000000002e+00 +8.3648664361620533e+00 +0.0000000000000000e+00 -2.1999999945938975e+00 -2.6927253680359219e-02 -5.2490332619760061e-01 +5.3811816272890250e-03
-2.2500000000000000e+00 +8.3648602953488904e+00 +0.0000000000000000e+00 -2.2499999942167856e+00 -2.6928245823669705e-02 -5.2491922471777874e-01 +5.3818420789344800e-03
-2.2999999999999998e+00 +8.3648540164741494e+00 +0.0000000000000000e+00 -2.2999999938225271e+00 -2.6929253948806936e-02 -5.2493544823581562e-01 +5.3825027621109628e-03
-2.3499999999999996e+00 +8.3648475995335616e+00 +0.0000000000000000e+00 -2.3499999934107398e+00 -2.6930277932639631e-02 -5.2495199466293474e-01 +5.3831636354755878e-03
-2.3999999999999995e+00 +8.3648410445227750e+00 +0.0000000000000000e+00 -2.3999999929810425e+00 -2.6931317652036175e-02 -5.2496886191036984e-01 +5.3838246576854310e-03
-2.4499999999999993e+00 +8.3648343514373540e+00 +0.0000000000000000e+00 -2.4499999925330527e+00 -2.6932372983864548e-02 -5.2498604788936531e-01 +5.3844857873975244e-03
-2.4999999999999991e+00 +8.3648275202727778e+00 +0.0000000000000000e+00 -2.4999999920663889e+00 -2.6933443804992161e-02 -5.2500355051117498e-01 +5.3851469832688643e-03
-2.5499999999999989e+00 +8.3648205510244438e+00 +0.0000000000000000e+00 -2.5499999915806688e+00 -2.6934529992285780e-02 -5.2502136768706265e-01 +5.3858082039564123e-03
-2.5999999999999988e+00 +8.3648134436876660e+00 +0.0000000000000000e+00 -2.5999999910755105e+00 -2.6935631422611423e-02 -5.2503949732830146e-01 +5.3864694081170970e-03
-2.6499999999999986e+00 +8.3648061982576767e+00 +0.0000000000000000e+00 -2.6499999905505320e+00 -2.6936747972834213e-02 -5.2505793734617412e-01 +5.3871305544078117e-03
-2.6999999999999984e+00 +8.3647988147296246e+00 +0.0000000000000000e+00 -2.6999999900053511e+00 -2.6937879519818294e-02 -5.2507668565197241e-01 +5.3877916014854130e-03
-2.7499999999999982e+00 +8.3647912930985786e+00 +0.0000000000000000e+00 -2.7499999894395857e+00 -2.6939025940426731e-02 -5.2509574015699678e-01 +5.3884525080067289e-03
-2.7999999999999980e+00 +8.3647836333595293e+00 +0.0000000000000000e+00 -2.7999999888528539e+00 -2.6940187111521366e-02 -5.2511509877255658e-01 +5.3891132326285588e-03
-2.8499999999999979e+00 +8.3647758355073822e+00 +0.0000000000000000e+00 -2.8499999882447731e+00 -2.6941362909962720e-02 -5.2513475940996945e-01 +5.3897737340076702e-03
-2.8999999999999977e+00 +8.3647678995369681e+00 +0.0000000000000000e+00 -2.8999999876149607e+00 -2.6942553212609899e-02 -5.2515471998056107e-01 +5.3904339708008035e-03
-2.9499999999999975e+00 +8.3647598254430378e+00 +0.0000000000000000e+00 -2.9499999869630349e+00 -2.6943757896320468e-02 -5.2517497839566618e-01 +5.3910939016646653e-03
-2.9999999999999973e+00 +8.3647516132202622e+00 +0.0000000000000000e+00 -2.9999999862886129e+00 -2.6944976837950343e-02 -5.2519553256662610e-01 +5.3917534852559431e-03
-3.0499999999999972e+00 +8.3647432628632359e+00 +0.0000000000000000e+00 -3.0499999855913122e+00 -2.6946209914353668e-02 -5.2521638040479079e-01 +5.3924126802312924e-03
-3.0999999999999970e+00 +8.3647347743664753e+00 +0.0000000000000000e+00 -3.0999999848707507e+00 -2.6947457002382724e-02 -5.2523751982151667e-01 +5.3930714452473522e-03
-3.1499999999999968e+00 +8.3647261477244204e+00 +0.0000000000000000e+00 -3.1499999841265454e+00 -2.6948717978887829e-02 -5.2525894872816836e-01 +5.3937297389607302e-03
-3.1999999999999966e+00 +8.3647173829314347e+00 +0.0000000000000000e+00 -3.1999999833583135e+00 -2.6949992720717179e-02 -5.2528066503611648e-01 +5.3943875200280194e-03
-3.2499999999999964e+00 +8.3647084799818074e+00 +0.0000000000000000e+00 -3.2499999825656722e+00 -2.6951281104716774e-02 -5.2530266665673930e-01 +5.3950447471057799e-03
-3.2999999999999963e+00 +8.3646994388697529e+00 +0.0000000000000000e+00 -3.2999999817482393e+00 -2.6952583007730315e-02 -5.2532495150142122e-01 +5.3957013788505648e-03
-3.3499999999999961e+00 +8.3646902595894073e+00 +0.0000000000000000e+00 -3.3499999809056313e+00 -2.6953898306599059e-02 -5.2534751748155306e-01 +5.3963573739188950e-03
-3.3999999999999959e+00 +8.3646809421348376e+00 +0.0000000000000000e+00 -3.3999999800374656e+00 -2.6955226878161740e-02 -5.2537036250853186e-01 +5.3970126909672830e-03
-3.4499999999999957e+00 +8.3646714865000344e+00 +0.0000000000000000e+00 -3.4499999791433593e+00 -2.6956568599254438e-02 -5.2539348449376033e-01 +5.3976672886522203e-03
-3.4999999999999956e+00 +8.3646618926789174e+00 +0.0000000000000000e+00 -3.4999999782229292e+00 -2.6957923346710481e-02 -5.2541688134864784e-01 +5.3983211256301809e-03
-3.5499999999999954e+00 +8.3646521606653330e+00 +0.0000000000000000e+00 -3.5499999772757924e+00 -2.6959290997360327e-02 -5.2544055098460785e-01 +5.3989741605576279e-03
-3.5999999999999952e+00 +8.3646422904530553e+00 +0.0000000000000000e+00 -3.5999999763015658e+00 -2.6960671428031449e-02 -5.2546449131306028e-01 +5.3996263520910033e-03
-3.6499999999999950e+00 +8.3646322820357870e+00 +0.0000000000000000e+00 -3.6499999752998655e+00 -2.6962064515548230e-02 -5.2548870024542993e-01 +5.4002776588867422e-03
-3.6999999999999948e+00 +8.3646221354071617e+00 +0.0000000000000000e+00 -3.6999999742703089e+00 -2.6963470136731869e-02 -5.2551317569314593e-01 +5.4009280396012669e-03
-3.7499999999999947e+00 +8.3646118505607419e+00 +0.0000000000000000e+00 -3.7499999732125122e+00 -2.6964888168400227e-02 -5.2553791556764273e-01 +5.4015774528909819e-03
-3.7999999999999945e+00 +8.3646014274900207e+00 +0.0000000000000000e+00 -3.7999999721260922e+00 -2.6966318487367767e-02 -5.2556291778035868e-01 +5.4022258574122932e-03
-3.8499999999999943e+00 +8.3645908661884238e+00 +0.0000000000000000e+00 -3.8499999710106652e+00 -2.6967760970445388e-02 -5.2558818024273712e-01 +5.4028732118215879e-03
-3.8999999999999941e+00 +8.3645801666493043e+00 +0.0000000000000000e+00 -3.8999999698658478e+00 -2.6969215494440382e-02 -5.2561370086622505e-01 +5.4035194747752528e-03
-3.9499999999999940e+00 +8.3645693288659526e+00 +0.0000000000000000e+00 -3.9499999686912566e+00 -2.6970681936156246e-02 -5.2563947756227292e-01 +5.4041646049296597e-03
-3.9999999999999938e+00 +8.3645583528315868e+00 +0.0000000000000000e+00 -3.9999999674865072e+00 -2.6972160172392647e-02 -5.2566550824233560e-01 +5.4048085609411803e-03
-4.0499999999999936e+00 +8.3645472385393624e+00 +0.0000000000000000e+00 -4.0499999662512165e+00 -2.6973650090489295e-02 -5.2569179072199312e-01 +5.4054513068165951e-03
-4.0999999999999934e+00 +8.3645359859823660e+00 +0.0000000000000000e+00 -4.0999999649849999e+00 -2.6975151619959496e-02 -5.2571832243331618e-01 +5.4060928279644300e-03
-4.1499999999999932e+00 +8.3645245951536200e+00 +0.0000000000000000e+00 -4.1499999636874740e+00 -2.6976664700860704e-02 -5.2574510071250091e-01 +5.4067331151438245e-03
-4.1999999999999931e+00 +8.3645130660460811e+00 +0.0000000000000000e+00 -4.1999999623582545e+00 -2.6978189273250731e-02 -5.2577212289574504e-01 +5.4073721591141087e-03
-4.2499999999999929e+00 +8.3645013986526422e+00 +0.0000000000000000e+00 -4.2499999609969574e+00 -2.6979725277187842e-02 -5.2579938631924905e-01 +5.4080099506348192e-03
-4.2999999999999927e+00 +8.3644895929661320e+00 +0.0000000000000000e+00 -4.2999999596031993e+00 -2.6981272652730794e-02 -5.2582688831921498e-01 +5.4086464804657050e-03
-4.3499999999999925e+00 +8.3644776489793191e+00 +0.0000000000000000e+00 -4.3499999581765953e+00 -2.6982831339938774e-02 -5.2585462623184720e-01 +5.4092817393667303e-03
-4.3999999999999924e+00 +8.3644655666849062e+00 +0.0000000000000000e+00 -4.3999999567167611e+00 -2.6984401278871552e-02 -5.2588259739335119e-01 +5.4099157180980805e-03
-4.4499999999999922e+00 +8.3644533460755373e+00 +0.0000000000000000e+00 -4.4499999552233120e+00 -2.6985982409589410e-02 -5.2591079913993388e-01 +5.4105484074201769e-03
-4.4999999999999920e+00 +8.3644409871437961e+00 +0.0000000000000000e+00 -4.4999999536958644e+00 -2.6987574672153215e-02 -5.2593922880780308e-01 +5.4111797980936739e-03
-4.5499999999999918e+00 +8.3644284898822043e+00 +0.0000000000000000e+00 -4.5499999521340326e+00 -2.6989178006624450e-02 -5.2596788373316794e-01 +5.4118098808794762e-03
-4.5999999999999917e+00 +8.3644158542832248e+00 +0.0000000000000000e+00 -4.5999999505374332e+00 -2.6990792353065188e-02 -5.2599676125223793e-01 +5.4124386465387326e-03
-4.6499999999999915e+00 +8.3644030803392635e+00 +0.0000000000000000e+00 -4.6499999489056805e+00 -2.6992417651538224e-02 -5.2602585870122331e-01 +5.4130660858328593e-03
-4.6999999999999913e+00 +8.3643901680426680e+00 +0.0000000000000000e+00 -4.6999999472383909e+00 -2.6994053842106992e-02 -5.2605517341633379e-01 +5.4136921895235300e-03
-4.7499999999999911e+00 +8.3643771173857271e+00 +0.0000000000000000e+00 -4.7499999455351780e+00 -2.6995700864835655e-02 -5.2608470273378005e-01 +5.4143169483726926e-03
-4.7999999999999909e+00 +8.3643639283606745e+00 +0.0000000000000000e+00 -4.7999999437956582e+00 -2.6997358659789132e-02 -5.2611444398977203e-01 +5.4149403531425751e-03
-4.8499999999999908e+00 +8.3643506009596891e+00 +0.0000000000000000e+00 -4.8499999420194460e+00 -2.6999027167033091e-02 -5.2614439452051898e-01 +5.4155623945956943e-03
-4.8999999999999906e+00 +8.3643371351748925e+00 +0.0000000000000000e+00 -4.8999999402061567e+00 -2.7000706326634021e-02 -5.2617455166223004e-01 +5.4161830634948524e-03
-4.9499999999999904e+00 +8.3643235309983535e+00 +0.0000000000000000e+00 -4.9499999383554041e+00 -2.7002396078659223e-02 -5.2620491275111325e-01 +5.4168023506031568e-03
-4.9999999999999902e+00 +8.3643097884220872e+00 +0.0000000000000000e+00 -4.9999999364668044e+00 -2.7004096363176869e-02 -5.2623547512337576e-01 +5.4174202466840231e-03
-5.0499999999999901e+00 +8.3642959074380538e+00 +0.0000000000000000e+00 -5.0499999345399713e+00 -2.7005807120255979e-02 -5.2626623611522239e-01 +5.4180367425011727e-03
-5.0999999999999899e+00 +8.3642818880381640e+00 +0.0000000000000000e+00 -5.0999999325745193e+00 -2.7007528289966522e-02 -5.2629719306285727e-01 +5.4186518288186526e-03
-5.1499999999999897e+00 +8.3642677302142765e+00 +0.0000000000000000e+00 -5.1499999305700639e+00 -2.7009259812379401e-02 -5.2632834330248268e-01 +5.4192654964008375e-03
-5.1999999999999895e+00 +8.3642534339581971e+00 +0.0000000000000000e+00 -5.1999999285262186e+00 -2.7011001627566464e-02 -5.2635968417029921e-01 +5.4198777360124368e-03
-5.2499999999999893e+00 +8.3642389992616835e+00 +0.0000000000000000e+00 -5.2499999264425981e+00 -2.7012753675600572e-02 -5.2639121300250424e-01 +5.4204885384184949e-03
-5.2999999999999892e+00 +8.3642244261164436e+00 +0.0000000000000000e+00 -5.2999999243188167e+00 -2.7014515896555586e-02 -5.2642292713529337e-01 +5.4210978943844048e-03
-5.3499999999999890e+00 +8.3642097145141356e+00 +0.0000000000000000e+00 -5.3499999221544883e+00 -2.7016288230506467e-02 -5.2645482390485976e-01 +5.4217057946759229e-03
-5.3999999999999888e+00 +8.3641948644463717e+00 +0.0000000000000000e+00 -5.3999999199492272e+00 -2.7018070617529193e-02 -5.2648690064739312e-01 +5.4223122300591604e-03
-5.4499999999999886e+00 +8.3641798759047141e+00 +0.0000000000000000e+00 -5.4499999177026472e+00 -2.7019862997700879e-02 -5.2651915469908039e-01 +5.4229171913005953e-03
-5.4999999999999885e+00 +8.3641647488806807e+00 +0.0000000000000000e+00 -5.4999999154143628e+00 -2.7021665311099782e-02 -5.2655158339610453e-01 +5.4235206691670831e-03
-5.5499999999999883e+00 +8.3641494833657415e+00 +0.0000000000000000e+00 -5.5499999130839877e+00 -2.7023477497805298e-02 -5.2658418407464602e-01 +5.4241226544258624e-03
-5.5999999999999881e+00 +8.3641340793513219e+00 +0.0000000000000000e+00 -5.5999999107111353e+00 -2.7025299497898031e-02 -5.2661695407088094e-01 +5.4247231378445624e-03
-5.6499999999999879e+00 +8.3641185368288049e+00 +0.0000000000000000e+00 -5.6499999082954195e+00 -2.7027131251459790e-02 -5.2664989072098090e-01 +5.4253221101911971e-03
-5.6999999999999877e+00 +8.3641028557895254e+00 +0.0000000000000000e+00 -5.6999999058364539e+00 -2.7028972698573659e-02 -5.2668299136111418e-01 +5.4259195622342032e-03
-5.7499999999999876e+00 +8.3640870362247792e+00 +0.0000000000000000e+00 -5.7499999033338511e+00 -2.7030823779323955e-02 -5.2671625332744487e-01 +5.4265154847424084e-03
-5.7999999999999874e+00 +8.3640710781258178e+00 +0.0000000000000000e+00 -5.7999999007872258e+00 -2.7032684433796302e-02 -5.2674967395612993e-01 +5.4271098684850663e-03
-5.8499999999999872e+00 +8.3640549814838518e+00 +0.0000000000000000e+00 -5.8499998981961907e+00 -2.7034554602077699e-02 -5.2678325058332487e-01 +5.4277027042318503e-03
