# field on trajectory
# s[mm] rx[mm] ry[mm] rz[mm] bx[T] by[T] bz[T]
0.0000000000000000e+00 +8.5269999999999992e+00 +0.0000000000000000e+00 +0.0000000000000000e+00 -2.9712127446038506e-02 -5.7643842119237676e-01 +5.4978293768045616e-03
5.0000000000000003e-02 +8.5269999311577802e+00 +0.0000000000000000e+00 +4.9999999999936803e-02 -2.9712606751342567e-02 -5.7643808617456949e-01 +5.4968350485767401e-03
1.0000000000000001e-01 +8.5269997246311604e+00 +0.0000000000000000e+00 +9.9999999999494465e-02 -2.9713110553929112e-02 -5.7643817575926304e-01 +5.4958488592367462e-03
1.5000000000000002e-01 +8.5269993804201185e+00 +0.0000000000000000e+00 +1.4999999999829383e-01 -2.9713638842730653e-02 -5.7643868892501005e-01 +5.4948708698914321e-03
2.0000000000000001e-01 +8.5269988985245320e+00 +0.0000000000000000e+00 +1.9999999999595580e-01 -2.9714191606680627e-02 -5.7643962465038345e-01 +5.4939011416480022e-03
2.5000000000000000e-01 +8.5269982789441769e+00 +0.0000000000000000e+00 +2.4999999999210121e-01 -2.9714768834713450e-02 -5.7644098191397408e-01 +5.4929397356140060e-03
2.9999999999999999e-01 +8.5269975216787302e+00 +0.0000000000000000e+00 +2.9999999998635091e-01 -2.9715370515764516e-02 -5.7644275969439274e-01 +5.4919867128973765e-03
3.4999999999999998e-01 +8.5269966267277653e+00 +0.0000000000000000e+00 +3.4999999997832570e-01 -2.9715996638770326e-02 -5.7644495697026799e-01 +5.4910421346064308e-03
3.9999999999999997e-01 +8.5269955940907600e+00 +0.0000000000000000e+00 +3.9999999996764651e-01 -2.9716647192668495e-02 -5.7644757272024849e-01 +5.4901060618499026e-03
4.4999999999999996e-01 +8.5269944237670874e+00 +0.0000000000000000e+00 +4.4999999995393414e-01 -2.9717322166397817e-02 -5.7645060592300001e-01 +5.4891785557369416e-03
4.9999999999999994e-01 +8.5269931157560244e+00 +0.0000000000000000e+00 +4.9999999993680944e-01 -2.9718021548898313e-02 -5.7645405555720863e-01 +5.4882596773771480e-03
5.4999999999999993e-01 +8.5269916700567450e+00 +0.0000000000000000e+00 +5.4999999991589321e-01 -2.9718745329111305e-02 -5.7645792060157797e-01 +5.4873494878805787e-03
5.9999999999999998e-01 +8.5269900866683290e+00 +0.0000000000000000e+00 +5.9999999989080621e-01 -2.9719493495979500e-02 -5.7646220003483040e-01 +5.4864480483577645e-03
6.5000000000000002e-01 +8.5269883655897516e+00 +0.0000000000000000e+00 +6.4999999986116930e-01 -2.9720266038446932e-02 -5.7646689283570640e-01 +5.4855554199197357e-03
7.0000000000000007e-01 +8.5269865068198936e+00 +0.0000000000000000e+00 +6.9999999982660321e-01 -2.9721062945459131e-02 -5.7647199798296522e-01 +5.4846716636780231e-03
7.5000000000000011e-01 +8.5269845103575346e+00 +0.0000000000000000e+00 +7.4999999978672882e-01 -2.9721884205963146e-02 -5.7647751445538453e-01 +5.4837968407446987e-03
8.0000000000000016e-01 +8.5269823762013583e+00 +0.0000000000000000e+00 +7.9999999974116676e-01 -2.9722729808907573e-02 -5.7648344123175910e-01 +5.4829310122323635e-03
8.5000000000000020e-01 +8.5269801043499474e+00 +0.0000000000000000e+00 +8.4999999968953788e-01 -2.9723599743242606e-02 -5.7648977729090278e-01 +5.4820742392541937e-03
9.0000000000000024e-01 +8.5269776948017899e+00 +0.0000000000000000e+00 +8.9999999963146282e-01 -2.9724493997920171e-02 -5.7649652161164711e-01 +5.4812265829239336e-03
9.5000000000000029e-01 +8.5269751475552749e+00 +0.0000000000000000e+00 +9.4999999956656234e-01 -2.9725412561893878e-02 -5.7650367317284146e-01 +5.4803881043559285e-03
1.0000000000000002e+00 +8.5269724626086933e+00 +0.0000000000000000e+00 +9.9999999949445717e-01 -2.9726355424119118e-02 -5.7651123095335355e-01 +5.4795588646651336e-03
1.0500000000000003e+00 +8.5269696399602406e+00 +0.0000000000000000e+00 +1.0499999994147680e+00 -2.9727322573553167e-02 -5.7651919393206785e-01 +5.4787389249671380e-03
1.1000000000000003e+00 +8.5269666796080159e+00 +0.0000000000000000e+00 +1.0999999993271152e+00 -2.9728313999155129e-02 -5.7652756108788750e-01 +5.4779283463781700e-03
1.1500000000000004e+00 +8.5269635815500191e+00 +0.0000000000000000e+00 +1.1499999992311198e+00 -2.9729329689886105e-02 -5.7653633139973282e-01 +5.4771271900151287e-03
1.2000000000000004e+00 +8.5269603457841558e+00 +0.0000000000000000e+00 +1.1999999991264023e+00 -2.9730369634709174e-02 -5.7654550384654202e-01 +5.4763355169955893e-03
1.2500000000000004e+00 +8.5269569723082359e+00 +0.0000000000000000e+00 +1.2499999990125832e+00 -2.9731433822589470e-02 -5.7655507740727008e-01 +5.4755533884378212e-03
1.3000000000000005e+00 +8.5269534611199713e+00 +0.0000000000000000e+00 +1.2999999988892830e+00 -2.9732522242494272e-02 -5.7656505106088962e-01 +5.4747808654608161e-03
1.3500000000000005e+00 +8.5269498122169800e+00 +0.0000000000000000e+00 +1.3499999987561222e+00 -2.9733634883392982e-02 -5.7657542378639137e-01 +5.4740180091842981e-03
1.4000000000000006e+00 +8.5269460255967857e+00 +0.0000000000000000e+00 +1.3999999986127214e+00 -2.9734771734257242e-02 -5.7658619456278182e-01 +5.4732648807287272e-03
1.4500000000000006e+00 +8.5269421012568163e+00 +0.0000000000000000e+00 +1.4499999984587011e+00 -2.9735932784060972e-02 -5.7659736236908588e-01 +5.4725215412153383e-03
1.5000000000000007e+00 +8.5269380391944019e+00 +0.0000000000000000e+00 +1.4999999982936818e+00 -2.9737118021780442e-02 -5.7660892618434489e-01 +5.4717880517661495e-03
1.5500000000000007e+00 +8.5269338394067820e+00 +0.0000000000000000e+00 +1.5499999981172838e+00 -2.9738327436394259e-02 -5.7662088498761754e-01 +5.4710644735039777e-03
1.6000000000000008e+00 +8.5269295018911002e+00 +0.0000000000000000e+00 +1.5999999979291275e+00 -2.9739561016883520e-02 -5.7663323775797870e-01 +5.4703508675524523e-03
1.6500000000000008e+00 +8.5269250266444061e+00 +0.0000000000000000e+00 +1.6499999977288333e+00 -2.9740818752231758e-02 -5.7664598347452078e-01 +5.4696472950360392e-03
1.7000000000000008e+00 +8.5269204136636567e+00 +0.0000000000000000e+00 +1.6999999975160216e+00 -2.9742100631425142e-02 -5.7665912111635309e-01 +5.4689538170800576e-03
1.7500000000000009e+00 +8.5269156629457115e+00 +0.0000000000000000e+00 +1.7499999972903126e+00 -2.9743406643452357e-02 -5.7667264966260057e-01 +5.4682704948106845e-03
1.8000000000000009e+00 +8.5269107744873409e+00 +0.0000000000000000e+00 +1.7999999970513265e+00 -2.9744736777304812e-02 -5.7668656809240604e-01 +5.4675973893549990e-03
1.8500000000000010e+00 +8.5269057482852197e+00 +0.0000000000000000e+00 +1.8499999967986835e+00 -2.9746091021976589e-02 -5.7670087538492765e-01 +5.4669345618409597e-03
1.9000000000000010e+00 +8.5269005843359302e+00 +0.0000000000000000e+00 +1.8999999965320040e+00 -2.9747469366464573e-02 -5.7671557051934152e-01 +5.4662820733974663e-03
1.9500000000000011e+00 +8.5268952826359641e+00 +0.0000000000000000e+00 +1.9499999962509080e+00 -2.9748871799768421e-02 -5.7673065247483801e-01 +5.4656399851543361e-03
2.0000000000000009e+00 +8.5268898431817188e+00 +0.0000000000000000e+00 +1.9999999959550157e+00 -2.9750298310890735e-02 -5.7674612023062566e-01 +5.4650083582423493e-03
2.0500000000000007e+00 +8.5268842659694979e+00 +0.0000000000000000e+00 +2.0499999956439470e+00 -2.9751748849989559e-02 -5.7676197256392425e-01 +5.4643872466331204e-03
2.1000000000000005e+00 +8.5268785509955176e+00 +0.0000000000000000e+00 +2.0999999953173218e+00 -2.9753223211835187e-02 -5.7677820744394981e-01 +5.4637766756585292e-03
2.1500000000000004e+00 +8.5268726982558984e+00 +0.0000000000000000e+00 +2.1499999949747606e+00 -2.9754721152350897e-02 -5.7679482263792925e-01 +5.4631766634908414e-03
2.2000000000000002e+00 +8.5268667077466720e+00 +0.0000000000000000e+00 +2.1999999946158826e+00 -2.9756242427460080e-02 -5.7681181591310093e-01 +5.4625872283027947e-03
2.2500000000000000e+00 +8.5268605794637811e+00 +0.0000000000000000e+00 +2.2499999942403082e+00 -2.9757786793086168e-02 -5.7682918503671665e-01 +5.4620083882675795e-03
2.2999999999999998e+00 +8.5268543134030743e+00 +0.0000000000000000e+00 +2.2999999938476572e+00 -2.9759354005152411e-02 -5.7684692777604119e-01 +5.4614401615588276e-03
2.3499999999999996e+00 +8.5268479095603169e+00 +0.0000000000000000e+00 +2.3499999934375495e+00 -2.9760943819581921e-02 -5.7686504189835108e-01 +5.4608825663506003e-03
2.3999999999999995e+00 +8.5268413679311799e+00 +0.0000000000000000e+00 +2.3999999930096045e+00 -2.9762555992297452e-02 -5.7688352517093522e-01 +5.4603356208173699e-03
2.4499999999999993e+00 +8.5268346885112507e+00 +0.0000000000000000e+00 +2.4499999925634421e+00 -2.9764190279221312e-02 -5.7690237536109390e-01 +5.4597993431340095e-03
2.4999999999999991e+00 +8.5268278712960246e+00 +0.0000000000000000e+00 +2.4999999920986822e+00 -2.9765846436275254e-02 -5.7692159023613954e-01 +5.4592737514757780e-03
2.5499999999999989e+00 +8.5268209162809150e+00 +0.0000000000000000e+00 +2.5499999916149441e+00 -2.9767524219380417e-02 -5.7694116756339608e-01 +5.4587588640183137e-03
2.5999999999999988e+00 +8.5268138234612429e+00 +0.0000000000000000e+00 +2.5999999911118472e+00 -2.9769223384457102e-02 -5.7696110511019782e-01 +5.4582546989376040e-03
2.6499999999999986e+00 +8.5268065928322478e+00 +0.0000000000000000e+00 +2.6499999905890115e+00 -2.9770943687424788e-02 -5.7698140064389059e-01 +5.4577612744099897e-03
2.6999999999999984e+00 +8.5267992243890820e+00 +0.0000000000000000e+00 +2.6999999900460563e+00 -2.9772684884201917e-02 -5.7700205193183096e-01 +5.4572786086121367e-03
2.7499999999999982e+00 +8.5267917181268125e+00 +0.0000000000000000e+00 +2.7499999894826006e+00 -2.9774446730705874e-02 -5.7702305674138510e-01 +5.4568067197210395e-03
2.7999999999999980e+00 +8.5267840740404228e+00 +0.0000000000000000e+00 +2.7999999888982643e+00 -2.9776228982852766e-02 -5.7704441283993013e-01 +5.4563456259139860e-03
2.8499999999999979e+00 +8.5267762921248131e+00 +0.0000000000000000e+00 +2.8499999882926663e+00 -2.9778031396557422e-02 -5.7706611799485241e-01 +5.4558953453685598e-03
2.8999999999999977e+00 +8.5267683723747982e+00 +0.0000000000000000e+00 +2.8999999876654261e+00 -2.9779853727733237e-02 -5.7708816997354895e-01 +5.4554558962626220e-03
2.9499999999999975e+00 +8.5267603147851112e+00 +0.0000000000000000e+00 +2.9499999870161626e+00 -2.9781695732292019e-02 -5.7711056654342519e-01 +5.4550272967742990e-03
2.9999999999999973e+00 +8.5267521193504017e+00 +0.0000000000000000e+00 +2.9999999863444953e+00 -2.9783557166143962e-02 -5.7713330547189634e-01 +5.4546095650819673e-03
3.0499999999999972e+00 +8.5267437860652393e+00 +0.0000000000000000e+00 +3.0499999856500430e+00 -2.9785437785197443e-02 -5.7715638452638618e-01 +5.4542027193642279e-03
3.0999999999999970e+00 +8.5267353149241121e+00 +0.0000000000000000e+00 +3.0999999849324249e+00 -2.9787337345359009e-02 -5.7717980147432757e-01 +5.4538067777999211e-03
3.1499999999999968e+00 +8.5267267059214262e+00 +0.0000000000000000e+00 +3.1499999841912598e+00 -2.9789255602533170e-02 -5.7720355408316193e-01 +5.4534217585680911e-03
3.1999999999999966e+00 +8.5267179590515081e+00 +0.0000000000000000e+00 +3.1999999834261668e+00 -2.9791192312622367e-02 -5.7722764012033811e-01 +5.4530476798479669e-03
3.2499999999999964e+00 +8.5267090743086040e+00 +0.0000000000000000e+00 +3.2499999826367643e+00 -2.9793147231526811e-02 -5.7725205735331375e-01 +5.4526845598189717e-03
3.2999999999999963e+00 +8.5267000516868841e+00 +0.0000000000000000e+00 +3.2999999818226713e+00 -2.9795120115144375e-02 -5.7727680354955391e-01 +5.4523324166606936e-03
3.3499999999999961e+00 +8.5266908911804364e+00 +0.0000000000000000e+00 +3.3499999809835068e+00 -2.9797110719370527e-02 -5.7730187647653131e-01 +5.4519912685528672e-03
3.3999999999999959e+00 +8.5266815927832731e+00 +0.0000000000000000e+00 +3.3999999801188889e+00 -2.9799118800098171e-02 -5.7732727390172567e-01 +5.4516611336753807e-03
3.4499999999999957e+00 +8.5266721564893277e+00 +0.0000000000000000e+00 +3.4499999792284366e+00 -2.9801144113217541e-02 -5.7735299359262382e-01 +5.4513420302082383e-03
3.4999999999999956e+00 +8.5266625822924560e+00 +0.0000000000000000e+00 +3.4999999783117683e+00 -2.9803186414616135e-02 -5.7737903331671980e-01 +5.4510339763315643e-03
3.5499999999999954e+00 +8.5266528701864406e+00 +0.0000000000000000e+00 +3.5499999773685023e+00 -2.9805245460178511e-02 -5.7740539084151332e-01 +5.4507369902255746e-03
3.5999999999999952e+00 +8.5266430201649843e+00 +0.0000000000000000e+00 +3.5999999763982573e+00 -2.9807321005786331e-02 -5.7743206393451085e-01 +5.4504510900705780e-03
3.6499999999999950e+00 +8.5266330322217172e+00 +0.0000000000000000e+00 +3.6499999754006511e+00 -2.9809412807318043e-02 -5.7745905036322509e-01 +5.4501762940469536e-03
3.6999999999999948e+00 +8.5266229063501928e+00 +0.0000000000000000e+00 +3.6999999743753027e+00 -2.9811520620648967e-02 -5.7748634789517450e-01 +5.4499126203351386e-03
3.7499999999999947e+00 +8.5266126425438920e+00 +0.0000000000000000e+00 +3.7499999733218297e+00 -2.9813644201651057e-02 -5.7751395429788255e-01 +5.4496600871156179e-03
3.7999999999999945e+00 +8.5266022407962190e+00 +0.0000000000000000e+00 +3.7999999722398501e+00 -2.9815783306192858e-02 -5.7754186733887902e-01 +5.4494187125688990e-03
3.8499999999999943e+00 +8.5265917011005090e+00 +0.0000000000000000e+00 +3.8499999711289825e+00 -2.9817937690139334e-02 -5.7757008478569805e-01 +5.4491885148755205e-03
3.8999999999999941e+00 +8.5265810234500226e+00 +0.0000000000000000e+00 +3.8999999699888446e+00 -2.9820107109351811e-02 -5.7759860440587807e-01 +5.4489695122160071e-03
3.9499999999999940e+00 +8.5265702078379455e+00 +0.0000000000000000e+00 +3.9499999688190539e+00 -2.9822291319687850e-02 -5.7762742396696354e-01 +5.4487617227708925e-03
3.9999999999999938e+00 +8.5265592542573962e+00 +0.0000000000000000e+00 +3.9999999676192286e+00 -2.9824490077001126e-02 -5.7765654123650256e-01 +5.4485651647206736e-03
4.0499999999999936e+00 +8.5265481627014186e+00 +0.0000000000000000e+00 +4.0499999663889863e+00 -2.9826703158980453e-02 -5.7768595383764010e-01 +5.4483798447353161e-03
4.0999999999999934e+00 +8.5265369331629888e+00 +0.0000000000000000e+00 +4.0999999651279451e+00 -2.9828930430669361e-02 -5.7771565881589770e-01 +5.4482057234427868e-03
4.1499999999999932e+00 +8.5265255656350121e+00 +0.0000000000000000e+00 +4.1499999638357226e+00 -2.9831171778952392e-02 -5.7774565307239412e-01 +5.4480427499608922e-03
4.1999999999999931e+00 +8.5265140601103226e+00 +0.0000000000000000e+00 +4.1999999625119360e+00 -2.9833427090716388e-02 -5.7777593350825374e-01 +5.4478908734078482e-03
4.2499999999999929e+00 +8.5265024165816889e+00 +0.0000000000000000e+00 +4.2499999611562025e+00 -2.9835696252850707e-02 -5.7780649702460563e-01 +5.4477500429022871e-03
4.2999999999999927e+00 +8.5264906350418119e+00 +0.0000000000000000e+00 +4.2999999597681402e+00 -2.9837979152247236e-02 -5.7783734052258373e-01 +5.4476202075632654e-03
4.3499999999999925e+00 +8.5264787154833233e+00 +0.0000000000000000e+00 +4.3499999583473654e+00 -2.9840275675800443e-02 -5.7786846090332633e-01 +5.4475013165102507e-03
4.3999999999999924e+00 +8.5264666578987907e+00 +0.0000000000000000e+00 +4.3999999568934962e+00 -2.9842585710407564e-02 -5.7789985506797592e-01 +5.4473933188631330e-03
4.4499999999999922e+00 +8.5264544622807144e+00 +0.0000000000000000e+00 +4.4499999554061489e+00 -2.9844909142968570e-02 -5.7793151991767966e-01 +5.4472961637422237e-03
4.4999999999999920e+00 +8.5264421286215324e+00 +0.0000000000000000e+00 +4.4999999538849416e+00 -2.9847245860386385e-02 -5.7796345235358826e-01 +5.4472098002682533e-03
4.5499999999999918e+00 +8.5264296569136189e+00 +0.0000000000000000e+00 +4.5499999523294905e+00 -2.9849595749566849e-02 -5.7799564927685654e-01 +5.4471341775623747e-03
4.5999999999999917e+00 +8.5264170471492822e+00 +0.0000000000000000e+00 +4.5999999507394129e+00 -2.9851958697418874e-02 -5.7802810758864265e-01 +5.4470692447461692e-03
4.6499999999999915e+00 +8.5264042993207685e+00 +0.0000000000000000e+00 +4.6499999491143260e+00 -2.9854334590854504e-02 -5.7806082419010829e-01 +5.4470149509416275e-03
4.6999999999999913e+00 +8.5263914134202654e+00 +0.0000000000000000e+00 +4.6999999474538461e+00 -2.9856723316789048e-02 -5.7809379598241817e-01 +5.4469712452711828e-03
4.7499999999999911e+00 +8.5263783894398966e+00 +0.0000000000000000e+00 +4.7499999457575894e+00 -2.9859124762141056e-02 -5.7812701986674020e-01 +5.4469380768576818e-03
4.7999999999999909e+00 +8.5263652273717270e+00 +0.0000000000000000e+00 +4.7999999440251733e+00 -2.9861538813832522e-02 -5.7816049274424453e-01 +5.4469153948243990e-03
4.8499999999999908e+00 +8.5263519272077630e+00 +0.0000000000000000e+00 +4.8499999422562139e+00 -2.9863965358788932e-02 -5.7819421151610539e-01 +5.4469031482950450e-03
4.8999999999999906e+00 +8.5263384889399489e+00 +0.0000000000000000e+00 +4.8999999404503276e+00 -2.9866404283939323e-02 -5.7822817308349761e-01 +5.4469012863937460e-03
4.9499999999999904e+00 +8.5263249125601739e+00 +0.0000000000000000e+00 +4.9499999386071307e+00 -2.9868855476216368e-02 -5.7826237434759986e-01 +5.4469097582450637e-03
4.9999999999999902e+00 +8.5263111980602684e+00 +0.0000000000000000e+00 +4.9999999367262395e+00 -2.9871318822556510e-02 -5.7829681220959162e-01 +5.4469285129739951e-03
5.0499999999999901e+00 +8.5262973454320079e+00 +0.0000000000000000e+00 +5.0499999348072704e+00 -2.9873794209900006e-02 -5.7833148357065489e-01 +5.4469574997059551e-03
5.0999999999999899e+00 +8.5262833546671111e+00 +0.0000000000000000e+00 +5.0999999328498395e+00 -2.9876281525191051e-02 -5.7836638533197304e-01 +5.4469966675668013e-03
5.1499999999999897e+00 +8.5262692257572414e+00 +0.0000000000000000e+00 +5.1499999308535624e+00 -2.9878780655377805e-02 -5.7840151439473142e-01 +5.4470459656828178e-03
5.1999999999999895e+00 +8.5262549586940075e+00 +0.0000000000000000e+00 +5.1999999288180554e+00 -2.9881291487412507e-02 -5.7843686766011571e-01 +5.4471053431807267e-03
5.2499999999999893e+00 +8.5262405534689663e+00 +0.0000000000000000e+00 +5.2499999267429347e+00 -2.9883813908251618e-02 -5.7847244202931369e-01 +5.4471747491876858e-03
5.2999999999999892e+00 +8.5262260100736214e+00 +0.0000000000000000e+00 +5.2999999246278149e+00 -2.9886347804855794e-02 -5.7850823440351362e-01 +5.4472541328312784e-03
5.3499999999999890e+00 +8.5262113284994214e+00 +0.0000000000000000e+00 +5.3499999224723123e+00 -2.9888893064190077e-02 -5.7854424168390384e-01 +5.4473434432395313e-03
5.3999999999999888e+00 +8.5261965087377689e+00 +0.0000000000000000e+00 +5.3999999202760431e+00 -2.9891449573223906e-02 -5.7858046077167413e-01 +5.4474426295409092e-03
5.4499999999999886e+00 +8.5261815507800112e+00 +0.0000000000000000e+00 +5.4499999180386220e+00 -2.9894017218931260e-02 -5.7861688856801441e-01 +5.4475516408643157e-03
5.4999999999999885e+00 +8.5261664546174476e+00 +0.0000000000000000e+00 +5.4999999157596644e+00 -2.9896595888290734e-02 -5.7865352197411413e-01 +5.4476704263390872e-03
5.5499999999999883e+00 +8.5261512202413297e+00 +0.0000000000000000e+00 +5.5499999134387865e+00 -2.9899185468285527e-02 -5.7869035789116330e-01 +5.4477989350950043e-03
5.5999999999999881e+00 +8.5261358476428590e+00 +0.0000000000000000e+00 +5.5999999110756029e+00 -2.9901785845903705e-02 -5.7872739322035160e-01 +5.4479371162622896e-03
5.6499999999999879e+00 +8.5261203368131877e+00 +0.0000000000000000e+00 +5.6499999086697281e+00 -2.9904396908138141e-02 -5.7876462486286762e-01 +5.4480849189716034e-03
5.6999999999999877e+00 +8.5261046877434250e+00 +0.0000000000000000e+00 +5.6999999062207785e+00 -2.9907018541986664e-02 -5.7880204971990035e-01 +5.4482422923540497e-03
5.7499999999999876e+00 +8.5260889004246305e+00 +0.0000000000000000e+00 +5.7499999037283684e+00 -2.9909650634452140e-02 -5.7883966469263659e-01 +5.4484091855411783e-03
5.7999999999999874e+00 +8.5260729748478212e+00 +0.0000000000000000e+00 +5.7999999011921126e+00 -2.9912293072542524e-02 -5.7887746668226325e-01 +5.4485855476649825e-03
5.8499999999999872e+00 +8.5260569110039679e+00 +0.0000000000000000e+00 +5.8499998986116255e+00 -2.9914945743271009e-02 -5.7891545258996557e-01 +5.4487713278578986e-03
5.8999999999999870e+00 +8.5260407088839987e+00 +0.0000000000000000e+00 +5.8999998959865225e+00 -2.9917608533656055e-02 -5.7895361931692768e-01 +5.4489664752528097e-03
