# field on trajectory
# s[mm] rx[mm] ry[mm] rz[mm] bx[T] by[T] bz[T]
0.0000000000000000e+00 +8.5269999999999992e+00 +0.0000000000000000e+00 +0.0000000000000000e+00 -2.9040282952060775e-02 -5.5254853032053985e-01 +5.6643235067740253e-03
5.0000000000000003e-02 +8.5269999307625639e+00 +0.0000000000000000e+00 +4.9999999999936082e-02 -2.9040176518187587e-02 -5.5254927792670960e-01 +5.6642962250879518e-03
1.0000000000000001e-01 +8.5269997230501211e+00 +0.0000000000000000e+00 +9.9999999999488651e-02 -2.9040085952165295e-02 -5.5255035868807867e-01 +5.6642700840855769e-03
1.5000000000000002e-01 +8.5269993768623991e+00 +0.0000000000000000e+00 +1.4999999999827421e-01 -2.9040011246773460e-02 -5.5255177168687497e-01 +5.6642450701249901e-03
2.0000000000000001e-01 +8.5269988921990443e+00 +0.0000000000000000e+00 +1.9999999999590923e-01 -2.9039952394792987e-02 -5.5255351600534042e-01 +5.6642211695643917e-03
2.5000000000000000e-01 +8.5269982690596180e+00 +0.0000000000000000e+00 +2.4999999999201022e-01 -2.9039909389006167e-02 -5.5255559072573379e-01 +5.6641983687621194e-03
2.9999999999999999e-01 +8.5269975074436015e+00 +0.0000000000000000e+00 +2.9999999998619364e-01 -2.9039882222196504e-02 -5.5255799493032787e-01 +5.6641766540766192e-03
3.4999999999999998e-01 +8.5269966073503927e+00 +0.0000000000000000e+00 +3.4999999997807596e-01 -2.9039870887148916e-02 -5.5256072770141151e-01 +5.6641560118664705e-03
3.9999999999999997e-01 +8.5269955687793058e+00 +0.0000000000000000e+00 +3.9999999996727365e-01 -2.9039875376649600e-02 -5.5256378812128770e-01 +5.6641364284903692e-03
4.4999999999999996e-01 +8.5269943917295752e+00 +0.0000000000000000e+00 +4.4999999995340323e-01 -2.9039895683486031e-02 -5.5256717527227550e-01 +5.6641178903071385e-03
4.9999999999999994e-01 +8.5269930762003519e+00 +0.0000000000000000e+00 +4.9999999993608107e-01 -2.9039931800447030e-02 -5.5257088823670752e-01 +5.6641003836757206e-03
5.4999999999999993e-01 +8.5269916221907032e+00 +0.0000000000000000e+00 +5.4999999991492365e-01 -2.9039983720322633e-02 -5.5257492609693215e-01 +5.6640838949551736e-03
5.9999999999999998e-01 +8.5269900296996202e+00 +0.0000000000000000e+00 +5.9999999988954733e-01 -2.9040051435904202e-02 -5.5257928793531108e-01 +5.6640684105046819e-03
6.5000000000000002e-01 +8.5269882987260086e+00 +0.0000000000000000e+00 +6.4999999985956869e-01 -2.9040134939984349e-02 -5.5258397283422178e-01 +5.6640539166835438e-03
7.0000000000000007e-01 +8.5269864292686925e+00 +0.0000000000000000e+00 +6.9999999982460404e-01 -2.9040234225356936e-02 -5.5258897987605426e-01 +5.6640403998511847e-03
7.5000000000000011e-01 +8.5269844213264196e+00 +0.0000000000000000e+00 +7.4999999978426968e-01 -2.9040349284817104e-02 -5.5259430814321420e-01 +5.6640278463671381e-03
8.0000000000000016e-01 +8.5269822748978541e+00 +0.0000000000000000e+00 +7.9999999973818214e-01 -2.9040480111161174e-02 -5.5259995671812057e-01 +5.6640162425910627e-03
8.5000000000000020e-01 +8.5269799899815801e+00 +0.0000000000000000e+00 +8.4999999968595774e-01 -2.9040626697186767e-02 -5.5260592468320635e-01 +5.6640055748827323e-03
9.0000000000000024e-01 +8.5269775665761021e+00 +0.0000000000000000e+00 +8.9999999962721278e-01 -2.9040789035692703e-02 -5.5261221112091785e-01 +5.6639958296020362e-03
9.5000000000000029e-01 +8.5269750046798443e+00 +0.0000000000000000e+00 +9.4999999956156367e-01 -2.9040967119479018e-02 -5.5261881511371613e-01 +5.6639869931089859e-03
1.0000000000000002e+00 +8.5269723042911512e+00 +0.0000000000000000e+00 +9.9999999948862672e-01 -2.9041160941346952e-02 -5.5262573574407425e-01 +5.6639790517636988e-03
1.0500000000000003e+00 +8.5269694654082890e+00 +0.0000000000000000e+00 +1.0499999994080182e+00 -2.9041370494098943e-02 -5.5263297209448003e-01 +5.6639719919264137e-03
1.1000000000000003e+00 +8.5269664880294460e+00 +0.0000000000000000e+00 +1.0999999993193543e+00 -2.9041595770538629e-02 -5.5264052324743340e-01 +5.6639657999574882e-03
1.1500000000000004e+00 +8.5269633721527267e+00 +0.0000000000000000e+00 +1.1499999992222514e+00 -2.9041836763470833e-02 -5.5264838828544771e-01 +5.6639604622173824e-03
1.2000000000000004e+00 +8.5269601177761629e+00 +0.0000000000000000e+00 +1.1999999991163257e+00 -2.9042093465701531e-02 -5.5265656629105009e-01 +5.6639559650666802e-03
1.2500000000000004e+00 +8.5269567248977030e+00 +0.0000000000000000e+00 +1.2499999990011934e+00 -2.9042365870037903e-02 -5.5266505634677943e-01 +5.6639522948660759e-03
1.3000000000000005e+00 +8.5269531935152205e+00 +0.0000000000000000e+00 +1.2999999988764708e+00 -2.9042653969288255e-02 -5.5267385753518805e-01 +5.6639494379763728e-03
1.3500000000000005e+00 +8.5269495236265094e+00 +0.0000000000000000e+00 +1.3499999987417739e+00 -2.9042957756262040e-02 -5.5268296893884039e-01 +5.6639473807584906e-03
1.4000000000000006e+00 +8.5269457152292869e+00 +0.0000000000000000e+00 +1.3999999985967191e+00 -2.9043277223769894e-02 -5.5269238964031353e-01 +5.6639461095734601e-03
1.4500000000000006e+00 +8.5269417683211923e+00 +0.0000000000000000e+00 +1.4499999984409222e+00 -2.9043612364623536e-02 -5.5270211872219754e-01 +5.6639456107824195e-03
1.5000000000000007e+00 +8.5269376828997867e+00 +0.0000000000000000e+00 +1.4999999982739995e+00 -2.9043963171635837e-02 -5.5271215526709327e-01 +5.6639458707466216e-03
1.5500000000000007e+00 +8.5269334589625547e+00 +0.0000000000000000e+00 +1.5499999980955670e+00 -2.9044329637620766e-02 -5.5272249835761522e-01 +5.6639468758274232e-03
1.6000000000000008e+00 +8.5269290965069047e+00 +0.0000000000000000e+00 +1.5999999979052408e+00 -2.9044711755393429e-02 -5.5273314707638899e-01 +5.6639486123862973e-03
1.6500000000000008e+00 +8.5269245955301667e+00 +0.0000000000000000e+00 +1.6499999977026369e+00 -2.9045109517769997e-02 -5.5274410050605172e-01 +5.6639510667848220e-03
1.7000000000000008e+00 +8.5269199560295981e+00 +0.0000000000000000e+00 +1.6999999974873712e+00 -2.9045522917567766e-02 -5.5275535772925333e-01 +5.6639542253846872e-03
1.7500000000000009e+00 +8.5269151780023762e+00 +0.0000000000000000e+00 +1.7499999972590596e+00 -2.9045951947605085e-02 -5.5276691782865439e-01 +5.6639580745476833e-03
1.8000000000000009e+00 +8.5269102614456038e+00 +0.0000000000000000e+00 +1.7999999970173184e+00 -2.9046396600701394e-02 -5.5277877988692747e-01 +5.6639626006357155e-03
1.8500000000000010e+00 +8.5269052063563091e+00 +0.0000000000000000e+00 +1.8499999967617631e+00 -2.9046856869677191e-02 -5.5279094298675580e-01 +5.6639677900107901e-03
1.9000000000000010e+00 +8.5269000127314438e+00 +0.0000000000000000e+00 +1.8999999964920096e+00 -2.9047332747354042e-02 -5.5280340621083468e-01 +5.6639736290350247e-03
1.9500000000000011e+00 +8.5268946805678834e+00 +0.0000000000000000e+00 +1.9499999962076739e+00 -2.9047824226554553e-02 -5.5281616864187022e-01 +5.6639801040706409e-03
2.0000000000000009e+00 +8.5268892098624320e+00 +0.0000000000000000e+00 +1.9999999959083719e+00 -2.9048331300102374e-02 -5.5282922936257894e-01 +5.6639872014799609e-03
2.0500000000000007e+00 +8.5268836006118143e+00 +0.0000000000000000e+00 +2.0499999955937187e+00 -2.9048853952746759e-02 -5.5284258728247848e-01 +5.6639949107827325e-03
2.1000000000000005e+00 +8.5268778528126834e+00 +0.0000000000000000e+00 +2.0999999952633308e+00 -2.9049392136936081e-02 -5.5285624061825855e-01 +5.6640032341280701e-03
2.1500000000000004e+00 +8.5268719664616182e+00 +0.0000000000000000e+00 +2.1499999949168234e+00 -2.9049945797043765e-02 -5.5287018741340865e-01 +5.6640121768224642e-03
2.2000000000000002e+00 +8.5268659415551227e+00 +0.0000000000000000e+00 +2.1999999945538122e+00 -2.9050514877443635e-02 -5.5288442571142860e-01 +5.6640217441724467e-03
2.2500000000000000e+00 +8.5268597780896283e+00 +0.0000000000000000e+00 +2.2499999941739133e+00 -2.9051099322509887e-02 -5.5289895355582896e-01 +5.6640319414845985e-03
2.2999999999999998e+00 +8.5268534760614951e+00 +0.0000000000000000e+00 +2.2999999937767415e+00 -2.9051699076617043e-02 -5.5291376899013034e-01 +5.6640427740655454e-03
2.3499999999999996e+00 +8.5268470354670107e+00 +0.0000000000000000e+00 +2.3499999933619127e+00 -2.9052314084139871e-02 -5.5292887005786262e-01 +5.6640542472219399e-03
2.3999999999999995e+00 +8.5268404563023896e+00 +0.0000000000000000e+00 +2.3999999929290428e+00 -2.9052944289453406e-02 -5.5294425480256693e-01 +5.6640663662604861e-03
2.4499999999999993e+00 +8.5268337385637771e+00 +0.0000000000000000e+00 +2.4499999924777467e+00 -2.9053589636932872e-02 -5.5295992126779292e-01 +5.6640791364878972e-03
2.4999999999999991e+00 +8.5268268822472475e+00 +0.0000000000000000e+00 +2.4999999920076399e+00 -2.9054250070953629e-02 -5.5297586749710026e-01 +5.6640925632109275e-03
2.5499999999999989e+00 +8.5268198873488039e+00 +0.0000000000000000e+00 +2.5499999915183378e+00 -2.9054925535891153e-02 -5.5299209153405815e-01 +5.6641066517363527e-03
2.5999999999999988e+00 +8.5268127538643803e+00 +0.0000000000000000e+00 +2.5999999910094558e+00 -2.9055615976121000e-02 -5.5300859142224523e-01 +5.6641214073709636e-03
2.6499999999999986e+00 +8.5268054817898431e+00 +0.0000000000000000e+00 +2.6499999904806089e+00 -2.9056321336018737e-02 -5.5302536520524903e-01 +5.6641368354215706e-03
2.6999999999999984e+00 +8.5267980711209876e+00 +0.0000000000000000e+00 +2.6999999899314129e+00 -2.9057041559959900e-02 -5.5304241092666651e-01 +5.6641529411949948e-03
2.7499999999999982e+00 +8.5267905218535418e+00 +0.0000000000000000e+00 +2.7499999893614824e+00 -2.9057776592320016e-02 -5.5305972663010328e-01 +5.6641697299980674e-03
2.7999999999999980e+00 +8.5267828339831659e+00 +0.0000000000000000e+00 +2.7999999887704328e+00 -2.9058526377474463e-02 -5.5307731035917385e-01 +5.6641872071376198e-03
2.8499999999999979e+00 +8.5267750075054547e+00 +0.0000000000000000e+00 +2.8499999881578790e+00 -2.9059290859798508e-02 -5.5309516015750160e-01 +5.6642053779204981e-03
2.8999999999999977e+00 +8.5267670424159334e+00 +0.0000000000000000e+00 +2.8999999875234366e+00 -2.9060069983667194e-02 -5.5311327406871835e-01 +5.6642242476535277e-03
2.9499999999999975e+00 +8.5267589387100635e+00 +0.0000000000000000e+00 +2.9499999868667199e+00 -2.9060863693455369e-02 -5.5313165013646404e-01 +5.6642438216435434e-03
2.9999999999999973e+00 +8.5267506963832407e+00 +0.0000000000000000e+00 +2.9999999861873445e+00 -2.9061671933537616e-02 -5.5315028640438757e-01 +5.6642641051973678e-03
3.0499999999999972e+00 +8.5267423154307931e+00 +0.0000000000000000e+00 +3.0499999854849249e+00 -2.9062494648288188e-02 -5.5316918091614542e-01 +5.6642851036218054e-03
3.0999999999999970e+00 +8.5267337958479867e+00 +0.0000000000000000e+00 +3.0999999847590760e+00 -2.9063331782080995e-02 -5.5318833171540216e-01 +5.6643068222236477e-03
3.1499999999999968e+00 +8.5267251376300219e+00 +0.0000000000000000e+00 +3.1499999840094124e+00 -2.9064183279289547e-02 -5.5320773684583058e-01 +5.6643292663096697e-03
3.1999999999999966e+00 +8.5267163407720350e+00 +0.0000000000000000e+00 +3.1999999832355490e+00 -2.9065049084286941e-02 -5.5322739435111112e-01 +5.6643524411866203e-03
3.2499999999999964e+00 +8.5267074052691001e+00 +0.0000000000000000e+00 +3.2499999824371009e+00 -2.9065929141445738e-02 -5.5324730227493168e-01 +5.6643763521612147e-03
3.2999999999999963e+00 +8.5266983311162274e+00 +0.0000000000000000e+00 +3.2999999816136825e+00 -2.9066823395138039e-02 -5.5326745866098759e-01 +5.6644010045401524e-03
3.3499999999999961e+00 +8.5266891183083668e+00 +0.0000000000000000e+00 +3.3499999807649079e+00 -2.9067731789735346e-02 -5.5328786155298215e-01 +5.6644264036300818e-03
3.3999999999999959e+00 +8.5266797668404060e+00 +0.0000000000000000e+00 +3.3999999798903922e+00 -2.9068654269608581e-02 -5.5330850899462514e-01 +5.6644525547376295e-03
3.4499999999999957e+00 +8.5266702767071685e+00 +0.0000000000000000e+00 +3.4499999789897497e+00 -2.9069590779127984e-02 -5.5332939902963407e-01 +5.6644794631693666e-03
3.4999999999999956e+00 +8.5266606479034213e+00 +0.0000000000000000e+00 +3.4999999780625952e+00 -2.9070541262663150e-02 -5.5335052970173293e-01 +5.6645071342318280e-03
3.5499999999999954e+00 +8.5266508804238672e+00 +0.0000000000000000e+00 +3.5499999771085426e+00 -2.9071505664582897e-02 -5.5337189905465278e-01 +5.6645355732314970e-03
3.5999999999999952e+00 +8.5266409742631506e+00 +0.0000000000000000e+00 +3.5999999761272066e+00 -2.9072483929255301e-02 -5.5339350513213192e-01 +5.6645647854748089e-03
3.6499999999999950e+00 +8.5266309294158589e+00 +0.0000000000000000e+00 +3.6499999751182011e+00 -2.9073476001047618e-02 -5.5341534597791397e-01 +5.6645947762681359e-03
3.6999999999999948e+00 +8.5266207458765173e+00 +0.0000000000000000e+00 +3.6999999740811402e+00 -2.9074481824326235e-02 -5.5343741963575033e-01 +5.6646255509177970e-03
3.7499999999999947e+00 +8.5266104236395943e+00 +0.0000000000000000e+00 +3.7499999730156386e+00 -2.9075501343456642e-02 -5.5345972414939792e-01 +5.6646571147300441e-03
3.7999999999999945e+00 +8.5265999626994997e+00 +0.0000000000000000e+00 +3.7999999719213098e+00 -2.9076534502803394e-02 -5.5348225756262026e-01 +5.6646894730110683e-03
3.8499999999999943e+00 +8.5265893630505882e+00 +0.0000000000000000e+00 +3.8499999707977683e+00 -2.9077581246730072e-02 -5.5350501791918649e-01 +5.6647226310669813e-03
3.8999999999999941e+00 +8.5265786246871542e+00 +0.0000000000000000e+00 +3.8999999696446279e+00 -2.9078641519599192e-02 -5.5352800326287210e-01 +5.6647565942038345e-03
3.9499999999999940e+00 +8.5265677476034387e+00 +0.0000000000000000e+00 +3.9499999684615021e+00 -2.9079715265772244e-02 -5.5355121163745846e-01 +5.6647913677275877e-03
3.9999999999999938e+00 +8.5265567317936242e+00 +0.0000000000000000e+00 +3.9999999672480056e+00 -2.9080802429609597e-02 -5.5357464108673193e-01 +5.6648269569441329e-03
4.0499999999999936e+00 +8.5265455772518397e+00 +0.0000000000000000e+00 +4.0499999660037513e+00 -2.9081902942504227e-02 -5.5359828958952451e-01 +5.6648633630492296e-03
4.0999999999999934e+00 +8.5265342839721594e+00 +0.0000000000000000e+00 +4.0999999647283536e+00 -2.9083016683983508e-02 -5.5362215486482802e-01 +5.6649005707984351e-03
4.1499999999999932e+00 +8.5265228519486005e+00 +0.0000000000000000e+00 +4.1499999634214255e+00 -2.9084143520608875e-02 -5.5364623456667550e-01 +5.6649385608372885e-03
4.1999999999999931e+00 +8.5265112811751305e+00 +0.0000000000000000e+00 +4.1999999620825816e+00 -2.9085283318942202e-02 -5.5367052634909952e-01 +5.6649773138113821e-03
4.2499999999999929e+00 +8.5264995716456617e+00 +0.0000000000000000e+00 +4.2499999607114347e+00 -2.9086435945545823e-02 -5.5369502786613456e-01 +5.6650168103663584e-03
4.2999999999999927e+00 +8.5264877233540535e+00 +0.0000000000000000e+00 +4.2999999593075984e+00 -2.9087601266982611e-02 -5.5371973677181485e-01 +5.6650570311479187e-03
4.3499999999999925e+00 +8.5264757362941133e+00 +0.0000000000000000e+00 +4.3499999578706863e+00 -2.9088779149815867e-02 -5.5374465072017476e-01 +5.6650979568018097e-03
4.3999999999999924e+00 +8.5264636104595972e+00 +0.0000000000000000e+00 +4.3999999564003112e+00 -2.9089969460609419e-02 -5.5376976736524797e-01 +5.6651395679738412e-03
4.4499999999999922e+00 +8.5264513458442117e+00 +0.0000000000000000e+00 +4.4499999548960876e+00 -2.9091172065927623e-02 -5.5379508436106883e-01 +5.6651818453098733e-03
4.4999999999999920e+00 +8.5264389424416134e+00 +0.0000000000000000e+00 +4.4999999533576274e+00 -2.9092386832335317e-02 -5.5382059936166994e-01 +5.6652247694558228e-03
4.5499999999999918e+00 +8.5264264002454055e+00 +0.0000000000000000e+00 +4.5499999517845442e+00 -2.9093613626397886e-02 -5.5384631002108398e-01 +5.6652683210576642e-03
4.5999999999999917e+00 +8.5264137192491471e+00 +0.0000000000000000e+00 +4.5999999501764517e+00 -2.9094852314681247e-02 -5.5387221399334130e-01 +5.6653124807614329e-03
4.6499999999999915e+00 +8.5264008994463438e+00 +0.0000000000000000e+00 +4.6499999485329617e+00 -2.9096102763751876e-02 -5.5389830893247105e-01 +5.6653572292132111e-03
4.6999999999999913e+00 +8.5263879408304586e+00 +0.0000000000000000e+00 +4.6999999468536879e+00 -2.9097364840176797e-02 -5.5392459249250103e-01 +5.6654025470591531e-03
4.7499999999999911e+00 +8.5263748433949029e+00 +0.0000000000000000e+00 +4.7499999451382440e+00 -2.9098638410523580e-02 -5.5395106232745728e-01 +5.6654484149454678e-03
4.7999999999999909e+00 +8.5263616071330457e+00 +0.0000000000000000e+00 +4.7999999433862417e+00 -2.9099923341360381e-02 -5.5397771609136282e-01 +5.6654948135184246e-03
4.8499999999999908e+00 +8.5263482320382042e+00 +0.0000000000000000e+00 +4.8499999415972939e+00 -2.9101219499255940e-02 -5.5400455143823835e-01 +5.6655417234243470e-03
4.8999999999999906e+00 +8.5263347181036551e+00 +0.0000000000000000e+00 +4.8999999397710132e+00 -2.9102526750779619e-02 -5.5403156602210224e-01 +5.6655891253096355e-03
4.9499999999999904e+00 +8.5263210653226285e+00 +0.0000000000000000e+00 +4.9499999379070125e+00 -2.9103844962501294e-02 -5.5405875749696920e-01 +5.6656369998207348e-03
4.9999999999999902e+00 +8.5263072736883103e+00 +0.0000000000000000e+00 +4.9999999360049046e+00 -2.9105174000991552e-02 -5.5408612351685138e-01 +5.6656853276041714e-03
5.0499999999999901e+00 +8.5262933431938421e+00 +0.0000000000000000e+00 +5.0499999340643020e+00 -2.9106513732821540e-02 -5.5411366173575693e-01 +5.6657340893065218e-03
5.0999999999999899e+00 +8.5262792738323228e+00 +0.0000000000000000e+00 +5.0999999320848168e+00 -2.9107864024563047e-02 -5.5414136980768991e-01 +5.6657832655744303e-03
5.1499999999999897e+00 +8.5262650655968066e+00 +0.0000000000000000e+00 +5.1499999300660608e+00 -2.9109224742788476e-02 -5.5416924538665069e-01 +5.6658328370546105e-03
5.1999999999999895e+00 +8.5262507184803109e+00 +0.0000000000000000e+00 +5.1999999280076468e+00 -2.9110595754070920e-02 -5.5419728612663577e-01 +5.6658827843938378e-03
5.2499999999999893e+00 +8.5262362324758065e+00 +0.0000000000000000e+00 +5.2499999259091874e+00 -2.9111976924984101e-02 -5.5422548968163599e-01 +5.6659330882389584e-03
5.2999999999999892e+00 +8.5262216075762254e+00 +0.0000000000000000e+00 +5.2999999237702946e+00 -2.9113368122102416e-02 -5.5425385370563818e-01 +5.6659837292368839e-03
5.3499999999999890e+00 +8.5262068437744603e+00 +0.0000000000000000e+00 +5.3499999215905802e+00 -2.9114769212000919e-02 -5.5428237585262374e-01 +5.6660346880345923e-03
5.3999999999999888e+00 +8.5261919410633631e+00 +0.0000000000000000e+00 +5.3999999193696562e+00 -2.9116180061255340e-02 -5.5431105377656875e-01 +5.6660859452791314e-03
5.4499999999999886e+00 +8.5261768994357467e+00 +0.0000000000000000e+00 +5.4499999171071343e+00 -2.9117600536442145e-02 -5.5433988513144361e-01 +5.6661374816176190e-03
5.4999999999999885e+00 +8.5261617188843868e+00 +0.0000000000000000e+00 +5.4999999148026264e+00 -2.9119030504138454e-02 -5.5436886757121295e-01 +5.6661892776972448e-03
5.5499999999999883e+00 +8.5261463994020197e+00 +0.0000000000000000e+00 +5.5499999124557444e+00 -2.9120469830922126e-02 -5.5439799874983542e-01 +5.6662413141652691e-03
5.5999999999999881e+00 +8.5261309409813446e+00 +0.0000000000000000e+00 +5.5999999100661002e+00 -2.9121918383371727e-02 -5.5442727632126265e-01 +5.6662935716690205e-03
5.6499999999999879e+00 +8.5261153436150252e+00 +0.0000000000000000e+00 +5.6499999076333056e+00 -2.9123376028066542e-02 -5.5445669793944030e-01 +5.6663460308559021e-03
5.6999999999999877e+00 +8.5260996072956861e+00 +0.0000000000000000e+00 +5.6999999051569716e+00 -2.9124842631586604e-02 -5.5448626125830669e-01 +5.6663986723733918e-03
5.7499999999999876e+00 +8.5260837320159215e+00 +0.0000000000000000e+00 +5.7499999026367101e+00 -2.9126318060512708e-02 -5.5451596393179348e-01 +5.6664514768690385e-03
5.7999999999999874e+00 +8.5260677177682851e+00 +0.0000000000000000e+00 +5.7999999000721330e+00 -2.9127802181426361e-02 -5.5454580361382388e-01 +5.6665044249904675e-03
5.8499999999999872e+00 +8.5260515645453001e+00 +0.0000000000000000e+00 +5.8499998974628502e+00 -2.9129294860909882e-02 -5.5457577795831436e-01 +5.6665574973853786e-03
5.8999999999999870e+00 +8.5260352723394561e+00 +0.0000000000000000e+00 +5.8999998948084746e+00 -2.9130795965546331e-02 -5.5460588461917282e-01 +5.6666106747015462e-03
