# multipoles
# s[mm] polynom_b[n=0][T/m^n] polynom_b[n=1][T/m^n] polynom_b[n=2][T/m^n] polynom_b[n=3][T/m^n] polynom_b[n=4][T/m^n] polynom_b[n=5][T/m^n] polynom_b[n=6][T/m^n] 
+0.0000000000000000e+00 -5.2388059272907939e-01 +6.9069910693774830e+00 +4.8095989213779999e+00 -4.3158793020272924e+01 +9.2368843470773354e+03 +1.3787327135172414e+05 -5.2607514678799950e+07 
+5.0000000000000003e-02 -5.2388040796967161e-01 +6.9070073212671428e+00 +4.8077830978338945e+00 -4.3660866599438307e+01 +9.2756360126988911e+03 +1.4138725930297031e+05 -5.2844648803643435e+07 
+1.0000000000000001e-01 -5.2388056116600290e-01 +6.9070422650986156e+00 +4.8055181378650929e+00 -4.4174854043037364e+01 +9.3141607092308095e+03 +1.4502394164855580e+05 -5.3078312366280727e+07 
+1.5000000000000002e-01 -5.2388105168337262e-01 +6.9070958338540400e+00 +4.8028024051179159e+00 -4.4699519973222792e+01 +9.3525518307976436e+03 +1.4877324543013467e+05 -5.3309026307348661e+07 
+2.0000000000000001e-01 -5.2388187888708615e-01 +6.9071679605169436e+00 +4.7996342616004686e+00 -4.5233629036442522e+01 +9.3909028179396319e+03 +1.5262509786623978e+05 -5.3537311894887872e+07 
+2.5000000000000000e-01 -5.2388304214245440e-01 +6.9072585780716578e+00 +4.7960120677621463e+00 -4.5775945892226694e+01 +9.4293071477560479e+03 +1.5656942630315013e+05 -5.3763690619802006e+07 
+2.9999999999999999e-01 -5.2388454081482672e-01 +6.9073676195049112e+00 +4.7919341876062456e+00 -4.6325235261802277e+01 +9.4678582082141802e+03 +1.6059615855871548e+05 -5.3988683401158720e+07 
+3.4999999999999998e-01 -5.2388637426953855e-01 +6.9074950177998069e+00 +4.7873989805451913e+00 -4.6880261701709259e+01 +9.5066495033337687e+03 +1.6469522111863020e+05 -5.4212811910556309e+07 
+3.9999999999999997e-01 -5.2388854187196898e-01 +6.9076407059446998e+00 +4.7824048100913688e+00 -4.7439789934340553e+01 +9.5457744367676387e+03 +1.6885654174485814e+05 -5.4436597185568795e+07 
+4.4999999999999996e-01 -5.2389104298750788e-01 +6.9078046169268763e+00 +4.7769500398411120e+00 -4.8002584640437711e+01 +9.5853263989822553e+03 +1.7307004795769148e+05 -5.4660560129568949e+07 
+4.9999999999999994e-01 -5.2389387698153844e-01 +6.9079866837347925e+00 +4.7710330288849878e+00 -4.8567410493970222e+01 +9.6253989098895854e+03 +1.7732566709663279e+05 -5.4885222554185048e+07 
+5.4999999999999993e-01 -5.2389704321948039e-01 +6.9081868393547508e+00 +4.7646521401987139e+00 -4.9133032071783127e+01 +9.6660853803937825e+03 +1.8161332577049456e+05 -5.5111105516793683e+07 
+5.9999999999999998e-01 -5.2390054106676254e-01 +6.9084050167785476e+00 +4.7578057357217363e+00 -4.9698214146743048e+01 +9.7074792496717291e+03 +1.8592295216781722e+05 -5.5338730269673258e+07 
+6.5000000000000002e-01 -5.2390436988883637e-01 +6.9086411489958390e+00 +4.7504921783514078e+00 -5.0261721372598807e+01 +9.7496739341283446e+03 +1.9024447347021854e+05 -5.5568617919794008e+07 
+7.0000000000000007e-01 -5.2390852905114904e-01 +6.9088951689976614e+00 +4.7427098281988567e+00 -5.0822318434442181e+01 +9.7927629189204436e+03 +1.9456781710358115e+05 -5.5801290018623583e+07 
+7.5000000000000011e-01 -5.2391301791918998e-01 +6.9091670097767519e+00 +4.7344570494691736e+00 -5.1378770068831599e+01 +9.8368395839523128e+03 +1.9888291093566641e+05 -5.6037267421676300e+07 
+8.0000000000000016e-01 -5.2391783585842977e-01 +6.9094566043227497e+00 +4.7257322008965215e+00 -5.1929840852839490e+01 +9.8819974524056142e+03 +2.0317968148174943e+05 -5.6277071939131632e+07 
+8.5000000000000020e-01 -5.2392298223438860e-01 +6.9097638856308921e+00 +4.7165336469436543e+00 -5.2474295566591081e+01 +9.9283298962554727e+03 +2.0744805691083890e+05 -5.6521224370232262e+07 
+9.0000000000000024e-01 -5.2392845641257080e-01 +6.9100887866955514e+00 +4.7068597468548763e+00 -5.3010898939669651e+01 +9.9759304234317333e+03 +2.1167796499351159e+05 -5.6770246413730957e+07 
+9.5000000000000029e-01 -5.2393425775852343e-01 +6.9104312405106949e+00 +4.6967088645599917e+00 -5.3538415655255257e+01 +1.0024892419763382e+04 +2.1585933309441633e+05 -5.7024658959641576e+07 
+1.0000000000000002e+00 -5.2394038563777479e-01 +6.9107911800713282e+00 +4.6860793584547578e+00 -5.4055610413763098e+01 +1.0075309412297207e+04 +2.1998208869265864e+05 -5.7284983818227425e+07 
+1.0500000000000003e+00 -5.2394683941590658e-01 +6.9111685383740200e+00 +4.6749695932098110e+00 -5.4561247956017588e+01 +1.0127274768403136e+04 +2.2403615959635825e+05 -5.7551741761098333e+07 
+1.1000000000000003e+00 -5.2395361845848776e-01 +6.9115632484150424e+00 +4.6633779290037012e+00 -5.5054092989535874e+01 +1.0180881967748364e+04 +2.2801147332965632e+05 -5.7825454278168462e+07 
+1.1500000000000004e+00 -5.2396072213110811e-01 +6.9119752431943819e+00 +4.6513027271727108e+00 -5.5532910350141684e+01 +1.0236224459400901e+04 +2.3189795845787111e+05 -5.8106642656734638e+07 
+1.2000000000000004e+00 -5.2396814979936235e-01 +6.9124044557085744e+00 +4.6387423470031344e+00 -5.5996464712067677e+01 +1.0293395750325812e+04 +2.3568554221206511e+05 -5.8395828582952395e+07 
+1.2500000000000004e+00 -5.2397590082887979e-01 +6.9128508189588516e+00 +4.6256951515704303e+00 -5.6443520912247045e+01 +1.0352489241976915e+04 +2.3936415312484672e+05 -5.8693533016550437e+07 
+1.3000000000000005e+00 -5.2398397458528578e-01 +6.9133142659434057e+00 +4.6121595005459586e+00 -5.6872843646194390e+01 +1.0413598426085424e+04 +2.4292371857232053e+05 -5.9000277517884724e+07 
+1.3500000000000005e+00 -5.2399237043423452e-01 +6.9137947296639668e+00 +4.5981337561851943e+00 -5.7283197732684961e+01 +1.0476816725316212e+04 +2.4635416692836280e+05 -5.9316583180319831e+07 
+1.4000000000000006e+00 -5.2400108774136467e-01 +6.9142921431230011e+00 +4.5836162756911776e+00 -5.7673348001597930e+01 +1.0542237694617785e+04 +2.4964542666067689e+05 -5.9642971975840375e+07 
+1.4500000000000006e+00 -5.2401012587237239e-01 +6.9148064393209383e+00 +4.5686054236034837e+00 -5.8042059167818344e+01 +1.0609954693721356e+04 +2.5278742522917793e+05 -5.9979964565238096e+07 
+1.5000000000000007e+00 -5.2401948419292810e-01 +6.9153375512622617e+00 +4.5530995573507447e+00 -5.8388096101680404e+01 +1.0680061272201687e+04 +2.5577009141154171e+05 -6.0328082880108021e+07 
+1.5500000000000007e+00 -5.2402916206873529e-01 +6.9158854119521873e+00 +4.5370970380156086e+00 -5.8710223680675085e+01 +1.0752650876770385e+04 +2.5858335400813405e+05 -6.0687848139412999e+07 
+1.6000000000000008e+00 -5.2403915886550767e-01 +6.9164499543944160e+00 +4.5205962257797152e+00 -5.9007206693468881e+01 +1.0827816981105650e+04 +2.6121714106453513e+05 -6.1059781751718879e+07 
+1.6500000000000008e+00 -5.2404947394896884e-01 +6.9170311115941638e+00 +4.5035954799317244e+00 -5.9277809976202967e+01 +1.0905653079316893e+04 +2.6366138101527316e+05 -6.1444405244425803e+07 
+1.7000000000000008e+00 -5.2406010668485392e-01 +6.9176288165593363e+00 +4.4860931594848061e+00 -5.9520798456942394e+01 +1.0986252674188041e+04 +2.6590600304590061e+05 -6.1842240208162010e+07 
+1.7500000000000009e+00 -5.2407105643891849e-01 +6.9182430022970642e+00 +4.4680876248221937e+00 -5.9734937008279147e+01 +1.1069709225798202e+04 +2.6794093585295160e+05 -6.2253807918950416e+07 
+1.8000000000000009e+00 -5.2408232257692611e-01 +6.9188736018142318e+00 +4.4495772349396523e+00 -5.9918990476531917e+01 +1.1156116233495462e+04 +2.6975610792216455e+05 -6.2679629919614159e+07 
+1.8500000000000010e+00 -5.2409390446464821e-01 +6.9195205481201274e+00 +4.4305603478414470e+00 -6.0071723787856229e+01 +1.1245567222178248e+04 +2.7134144837703218e+05 -6.3120227920322202e+07 
+1.9000000000000010e+00 -5.2410580146787922e-01 +6.9201837742247916e+00 +4.4110353233099300e+00 -6.0191901870556144e+01 +1.1338155664316559e+04 +2.7268688630459982e+05 -6.3576123254501656e+07 
+1.9500000000000011e+00 -5.2411801295242466e-01 +6.9208632131408923e+00 +4.3910005205621516e+00 -6.0278289758854726e+01 +1.1433975048824292e+04 +2.7378235171910044e+05 -6.4047837368111752e+07 
+2.0000000000000009e+00 -5.2413053828408995e-01 +6.9215587978763331e+00 +4.3704542963383259e+00 -6.0329652259896001e+01 +1.1533118928866796e+04 +2.7461777269322972e+05 -6.4535892126401804e+07 
+2.0500000000000007e+00 -5.2414337664053101e-01 +6.9222704499075194e+00 +4.3493990409401073e+00 -6.0345051591864348e+01 +1.1635599381943468e+04 +2.7518559831957752e+05 -6.5040375792730093e+07 
+2.1000000000000005e+00 -5.2415652644706845e-01 +6.9229980385255097e+00 +4.3278536680824562e+00 -6.0324756653540035e+01 +1.1741108706493567e+04 +2.7548858824619674e+05 -6.5559697007366374e+07 
+2.1500000000000004e+00 -5.2416998594107111e-01 +6.9237414184787145e+00 +4.3058413383778245e+00 -6.0269344064822612e+01 +1.1849260577133271e+04 +2.7553214493044786e+05 -6.6091856934305921e+07 
+2.2000000000000002e+00 -5.2418375335989631e-01 +6.9245004445116276e+00 +4.2833852082016630e+00 -6.0179390275911707e+01 +1.1959668785782807e+04 +2.7532166944089258e+05 -6.6634857540946446e+07 
+2.2500000000000000e+00 -5.2419782694091965e-01 +6.9252749713713042e+00 +4.2605084359316709e+00 -6.0055471816859601e+01 +1.2071947063909302e+04 +2.7486256347722298e+05 -6.7186700360787019e+07 
+2.2999999999999998e+00 -5.2421220492153076e-01 +6.9260648538053742e+00 +4.2372341797273272e+00 -5.9898165250810273e+01 +1.2185709155865046e+04 +2.7416022911167773e+05 -6.7745387040599510e+07 
+2.3499999999999996e+00 -5.2422688553912344e-01 +6.9268699465582708e+00 +4.2135855978118499e+00 -5.9708046980426190e+01 +1.2300568795361378e+04 +2.7322006704953098e+05 -6.8308919126445681e+07 
+2.3999999999999995e+00 -5.2424186703110465e-01 +6.9276901043754346e+00 +4.1895858482402257e+00 -5.9485693449615212e+01 +1.2416139725638533e+04 +2.7204747840494011e+05 -6.8875298243159413e+07 
+2.4499999999999993e+00 -5.2425714763488018e-01 +6.9285251820030069e+00 +4.1652580874637852e+00 -5.9231681119399738e+01 +1.2532035730621734e+04 +2.7064786445618578e+05 -6.9442526286196172e+07 
+2.4999999999999991e+00 -5.2427272558787741e-01 +6.9293750341829066e+00 +4.1406254739729045e+00 -5.8946586266928350e+01 +1.2647870539121002e+04 +2.6902662499026128e+05 -7.0008604774704754e+07 
+2.5499999999999989e+00 -5.2428859912753689e-01 +6.9302395156602268e+00 +4.1157111671382740e+00 -5.8630985293474765e+01 +1.2763257855511767e+04 +2.6718916086021240e+05 -7.0571535065987423e+07 
+2.5999999999999988e+00 -5.2430476649128743e-01 +6.9311184811773288e+00 +4.0905383224698166e+00 -5.8285454479033987e+01 +1.2877811488681366e+04 +2.6514087195357395e+05 -7.1129319222839624e+07 
+2.6499999999999986e+00 -5.2432122591658947e-01 +6.9320117854767211e+00 +4.0651300999362245e+00 -5.7910570102509531e+01 +1.2991145122563135e+04 +2.6288715818313928e+05 -7.1679958448038071e+07 
+2.6999999999999984e+00 -5.2433797564088414e-01 +6.9329192832997055e+00 +4.0395096541542195e+00 -5.7506908388148098e+01 +1.3102872590650990e+04 +2.6043341906083145e+05 -7.2221454977933064e+07 
+2.7499999999999982e+00 -5.2435501390165562e-01 +6.9338408293857805e+00 +4.0137001462760242e+00 -5.7075045474298655e+01 +1.3212607545886556e+04 +2.5778505341121787e+05 -7.2751809812511668e+07 
+2.7999999999999980e+00 -5.2437233893636004e-01 +6.9347762784759412e+00 +3.9877247308468178e+00 -5.6615557559778949e+01 +1.3319963819417229e+04 +2.5494746061198472e+05 -7.3269025158657268e+07 
+2.8499999999999979e+00 -5.2438994898249447e-01 +6.9357254853070014e+00 +3.9616065683331980e+00 -5.6129020671521708e+01 +1.3424555084194499e+04 +2.5192603870336447e+05 -7.3771102162336886e+07 
+2.8999999999999977e+00 -5.2440784227754478e-01 +6.9366883046190262e+00 +3.9353688159359170e+00 -5.5616010954662485e+01 +1.3525995097660345e+04 +2.4872618668492304e+05 -7.4256042526982516e+07 
+2.9499999999999975e+00 -5.2442601705899794e-01 +6.9376645911463450e+00 +3.9090346297243825e+00 -5.5077104321818716e+01 +1.3623897650218560e+04 +2.4535330173353569e+05 -7.4721848192881122e+07 
+2.9999999999999973e+00 -5.2444447156435758e-01 +6.9386541996258968e+00 +3.8826271673921497e+00 -5.4512876787530118e+01 +1.3717876486189491e+04 +2.4181278190198311e+05 -7.5166520779067069e+07 
+3.0499999999999972e+00 -5.2446320403114444e-01 +6.9396569847914140e+00 +3.8561695888763623e+00 -5.3923904232872147e+01 +1.3807545286357361e+04 +2.3811002420482537e+05 -7.5588061469930500e+07 
+3.0999999999999970e+00 -5.2448221269686379e-01 +6.9406728013741068e+00 +3.8296850494089885e+00 -5.3310762433759500e+01 +1.3892517865869289e+04 +2.3425042484159168e+05 -7.5984472386615410e+07 
+3.1499999999999968e+00 -5.2450149579904237e-01 +6.9417015041078249e+00 +3.8031967075061246e+00 -5.2674027268015024e+01 +1.3972407943339034e+04 +2.3023938089351068e+05 -7.6353754970914170e+07 
+3.1999999999999966e+00 -5.2452105157521522e-01 +6.9427429477223299e+00 +3.7767277219315654e+00 -5.2014274450652692e+01 +1.4046829232078653e+04 +2.2608228818496663e+05 -7.6693910636497974e+07 
+3.2499999999999964e+00 -5.2454087826290863e-01 +6.9437969869451006e+00 +3.7503012485715428e+00 -5.1332079597614467e+01 +1.4115395525416263e+04 +2.2178454176332266e+05 -7.7002941348626956e+07 
+3.2999999999999963e+00 -5.2456097409967462e-01 +6.9448634765056978e+00 +3.7239404472429687e+00 -5.0628018418542943e+01 +1.4177720506354210e+04 +2.1735153754365887e+05 -7.7278848316602036e+07 
+3.3499999999999961e+00 -5.2458133732305134e-01 +6.9459422711289216e+00 +3.6976684741325654e+00 -4.9902666409995064e+01 +1.4233417957830859e+04 +2.1278866967651140e+05 -7.7519633433920011e+07 
+3.3999999999999959e+00 -5.2460196617059429e-01 +6.9470332255381413e+00 +3.6715084874494157e+00 -4.9156599035795949e+01 +1.4282101608254874e+04 +2.0810133221592268e+05 -7.7723298230285048e+07 
+3.4499999999999957e+00 -5.2462285887986215e-01 +6.9481361944561026e+00 +3.6454836451222628e+00 -4.8390391715401570e+01 +1.4323385192589609e+04 +2.0329491882074394e+05 -7.7887844276821360e+07 
+3.4999999999999956e+00 -5.2464401368841929e-01 +6.9492510326043320e+00 +3.6196171052608124e+00 -4.7604619827594071e+01 +1.4356882438899072e+04 +1.9837482293008477e+05 -7.8011273094536215e+07 
+3.5499999999999954e+00 -5.2466542883382550e-01 +6.9503775947029105e+00 +3.5939320246057802e+00 -4.6799858701451640e+01 +1.4382207112279501e+04 +1.9334643766366280e+05 -7.8091586461413145e+07 
+3.5999999999999952e+00 -5.2468710255366091e-01 +6.9515157354661641e+00 +3.5684515620096988e+00 -4.5976683421559379e+01 +1.4398972924896865e+04 +1.8821515415887479e+05 -7.8126785814143851e+07 
+3.6499999999999950e+00 -5.2470903308551142e-01 +6.9526653096121214e+00 +3.5431988773063181e+00 -4.5135669237878439e+01 +1.4406793556244123e+04 +1.8298636502556584e+05 -7.8114872349826738e+07 
+3.6999999999999948e+00 -5.2473121866693795e-01 +6.9538261718535814e+00 +3.5181971246304311e+00 -4.4277391184106357e+01 +1.4405282844600108e+04 +1.7766546114508004e+05 -7.8053848361621141e+07 
+3.7499999999999947e+00 -5.2475365753554926e-01 +6.9549981769017561e+00 +3.4934694665871913e+00 -4.3402424233142092e+01 +1.4394054392699263e+04 +1.7225783298139690e+05 -7.7941714528137118e+07 
+3.7999999999999945e+00 -5.2477634792891747e-01 +6.9561811794662392e+00 +3.4690390578594084e+00 -4.2511343304120402e+01 +1.4372722024505540e+04 +1.6676887065431787e+05 -7.7776473057024240e+07 
+3.8499999999999943e+00 -5.2479928808463416e-01 +6.9573750342540901e+00 +3.4449290566584794e+00 -4.1604723212987210e+01 +1.4340899462545878e+04 +1.6120396350501265e+05 -7.7556125449159592e+07 
+3.8999999999999941e+00 -5.2482247624031464e-01 +6.9585795959711039e+00 +3.4211626244613789e+00 -4.0683138731047947e+01 +1.4298200343518845e+04 +1.5556850059121009e+05 -7.7278672639486417e+07 
+3.9499999999999940e+00 -5.2484591063353936e-01 +6.9597947193189889e+00 +3.3977629159997953e+00 -3.9747164471822579e+01 +1.4244238488142606e+04 +1.4986786976630235e+05 -7.6942116818833902e+07 
+3.9999999999999938e+00 -5.2486958950192131e-01 +6.9610202589996275e+00 +3.3747530916978201e+00 -3.8797375060671278e+01 +1.4178627557829592e+04 +1.4410745909877244e+05 -7.6544459080694973e+07 
+4.0499999999999936e+00 -5.2489351093214243e-01 +6.9622560726642950e+00 +3.3521493869161452e+00 -3.7834456754805579e+01 +1.4101119413485882e+04 +1.3829315724744796e+05 -7.6084416537814274e+07 
+4.0999999999999934e+00 -5.2491767240697096e-01 +6.9635020252755000e+00 +3.3299401754134061e+00 -3.6859478187067708e+01 +1.4012025204814090e+04 +1.3243190694819886e+05 -7.5563597484219566e+07 
+4.1499999999999932e+00 -5.2494207125811487e-01 +6.9647579825069110e+00 +3.3081068310401438e+00 -3.5873587637228503e+01 +1.3911797583413078e+04 +1.2653066898671832e+05 -7.4984338580499694e+07 
+4.1999999999999931e+00 -5.2496670481726670e-01 +6.9660238100324747e+00 +3.2866307248841866e+00 -3.4877933383446440e+01 +1.3800889276601092e+04 +1.2059640396412558e+05 -7.4348976998036250e+07 
+4.2499999999999929e+00 -5.2499157041613909e-01 +6.9672993735282365e+00 +3.2654932313020866e+00 -3.3873663804835971e+01 +1.3679752922674630e+04 +1.1463607333138675e+05 -7.3659849301252618e+07 
+4.2999999999999927e+00 -5.2501666538642944e-01 +6.9685845386727845e+00 +3.2446757214569928e+00 -3.2861927372643891e+01 +1.3548841252257127e+04 +1.0865663920439866e+05 -7.2919292704535618e+07 
+4.3499999999999925e+00 -5.2504198705984684e-01 +6.9698791711407466e+00 +3.2241595687783526e+00 -3.1843872390608716e+01 +1.3408606931039039e+04 +1.0266506225643652e+05 -7.2129643967964008e+07 
+4.3999999999999924e+00 -5.2506753276810492e-01 +6.9711831366134387e+00 +3.2039261466092270e+00 -3.0820647447316109e+01 +1.3259502636746840e+04 +9.6668305494453874e+04 -7.1293239971978366e+07 
+4.4499999999999922e+00 -5.2509329984292163e-01 +6.9724963007700165e+00 +3.1839568297449286e+00 -2.9793401037594634e+01 +1.3101981001231232e+04 +9.0673331080863427e+04 -7.0412417260698408e+07 
+4.4999999999999920e+00 -5.2511928561599663e-01 +6.9738185292907575e+00 +3.1642329891683088e+00 -2.8763281701860095e+01 +1.2936494766139396e+04 +8.4687101495859955e+04 -6.9489513147359148e+07 
+4.5499999999999918e+00 -5.2514548741905953e-01 +6.9751496878596528e+00 +3.1447360013543482e+00 -2.7731438131193453e+01 +1.2763496524423308e+04 +7.8716580386386951e+04 -6.8526863939767674e+07 
+4.5999999999999917e+00 -5.2517190258382107e-01 +6.9764896421599154e+00 +3.1254472389881749e+00 -2.6699018983467575e+01 +1.2583438977464231e+04 +7.2768731074853480e+04 -6.7526806701027468e+07 
+4.6499999999999915e+00 -5.2519852844200088e-01 +6.9778382578753346e+00 +3.1063480768411953e+00 -2.5667172947986838e+01 +1.2396774768455532e+04 +6.6850517091512098e+04 -6.6491678095646255e+07 
+4.6999999999999913e+00 -5.2522536232532524e-01 +6.9791954006962893e+00 +3.0874198908637185e+00 -2.4637048974877011e+01 +1.2203956510190221e+04 +6.0968904012493673e+04 -6.5423814586355023e+07 
+4.7499999999999911e+00 -5.2525240156549990e-01 +6.9805609363078860e+00 +3.0686440530429282e+00 -2.3609795809295296e+01 +1.2005436929804682e+04 +5.5130855700617831e+04 -6.4325553439610481e+07 
+4.7999999999999909e+00 -5.2527964349426615e-01 +6.9819347303999715e+00 +3.0500019422181937e+00 -2.2586562383492989e+01 +1.1801668567036633e+04 +4.9343337456566500e+04 -6.3199230644346163e+07 
+4.8499999999999908e+00 -5.2530708544331817e-01 +6.9833166486642213e+00 +3.0314749291171599e+00 -2.1568497708675547e+01 +1.1593104183769272e+04 +4.3613315157943587e+04 -6.2047183704524875e+07 
+4.8999999999999906e+00 -5.2533472474440901e-01 +6.9847065567923785e+00 +3.0130443946696062e+00 -2.0556750800235690e+01 +1.1380196272260015e+04 +3.7947754654992117e+04 -6.0871748324411727e+07 
+4.9499999999999904e+00 -5.2536255872924409e-01 +6.9861043204797832e+00 +2.9946917119628642e+00 -1.9552470827262891e+01 +1.1163397534756299e+04 +3.2353622989091989e+04 -5.9675261618352689e+07 
+4.9999999999999902e+00 -5.2539058472954459e-01 +6.9875098054224010e+00 +2.9763982571646461e+00 -1.8556806977276104e+01 +1.0943160593657065e+04 +2.6837887248606909e+04 -5.8460060177247435e+07 
+5.0499999999999901e+00 -5.2541880007703357e-01 +6.9889228773177043e+00 +2.9581454069047792e+00 -1.7570908509640329e+01 +1.0719938066271570e+04 +2.1407515056269123e+04 -5.7228480586419821e+07 
