# multipoles
# s[mm] polynom_b[n=0][T/m^n] polynom_b[n=1][T/m^n] polynom_b[n=2][T/m^n] polynom_b[n=3][T/m^n] polynom_b[n=4][T/m^n] polynom_b[n=5][T/m^n] polynom_b[n=6][T/m^n] 
+0.0000000000000000e+00 -5.2483721592436972e-01 +6.8970211490745044e+00 +5.3357348193074428e+00 -6.9921750428869643e+01 -1.2014306126904823e+04 +1.3759626600863595e+05 +7.0860160529011905e+07 
-5.0000000000000003e-02 -5.2483997732530641e-01 +6.8970592457191584e+00 +5.3288831284323246e+00 -7.0148582856044868e+01 -1.1873871523815016e+04 +1.3874702121249028e+05 +7.0103529144046038e+07 
-1.0000000000000001e-01 -5.2484308031920068e-01 +6.8971160768441662e+00 +5.3216611772615465e+00 -7.0366588983697540e+01 -1.1733478012453263e+04 +1.3984962635337998e+05 +6.9346331144536451e+07 
-1.5000000000000002e-01 -5.2484652408650712e-01 +6.8971915772402008e+00 +5.3140706579029118e+00 -7.0576325740436445e+01 -1.1593173667196157e+04 +1.4091001375386844e+05 +6.8588906165485024e+07 
-2.0000000000000001e-01 -5.2485030780770892e-01 +6.8972856817003674e+00 +5.3061132648539511e+00 -7.0778350145632231e+01 -1.1453006627144980e+04 +1.4193411654177422e+05 +6.7831594275652304e+07 
-2.5000000000000000e-01 -5.2485443066330739e-01 +6.8973983250191200e+00 +5.2977906927439919e+00 -7.0973219239963228e+01 -1.1313025035019755e+04 +1.4292786797919314e+05 +6.7074735571213529e+07 
-2.9999999999999999e-01 -5.2485889183381751e-01 +6.8975294419899944e+00 +5.2891046360854324e+00 -7.1161490008478211e+01 -1.1173277033174603e+04 +1.4389720090377177e+05 +6.6318670155966252e+07 
-3.4999999999999998e-01 -5.2486369049977510e-01 +6.8976789674076819e+00 +5.2800567900507902e+00 -7.1343719462490981e+01 -1.1033810778048084e+04 +1.4484804836726160e+05 +6.5563738210550241e+07 
-3.9999999999999997e-01 -5.2486882584172045e-01 +6.8978468360676946e+00 +5.2706488480225318e+00 -7.1520464616386562e+01 -1.0894674381996771e+04 +1.4578634342924162e+05 +6.4810279636734106e+07 
-4.4999999999999996e-01 -5.2487429704021360e-01 +6.8980329827659288e+00 +5.2608825040284408e+00 -7.1692282475454348e+01 -1.0755915973879721e+04 +1.4671801907696429e+05 +6.4058634441349953e+07 
-4.9999999999999994e-01 -5.2488010327583379e-01 +6.8982373422971284e+00 +5.2507594524954460e+00 -7.1859729982313937e+01 -1.0617583689682760e+04 +1.4764900780253072e+05 +6.3309142665427081e+07 
-5.4999999999999993e-01 -5.2488624372917492e-01 +6.8984598494598419e+00 +5.2402813877092873e+00 -7.2023364210870113e+01 -1.0479725664830170e+04 +1.4858524318512346e+05 +6.2562144357779972e+07 
-5.9999999999999998e-01 -5.2489271758085032e-01 +6.8987004390517210e+00 +5.2294500056398121e+00 -7.2183742166434286e+01 -1.0342390085388253e+04 +1.4953265820288850e+05 +6.1817979925135255e+07 
-6.5000000000000002e-01 -5.2489952401147488e-01 +6.8989590458695025e+00 +5.2182669986507264e+00 -7.2341420799697033e+01 -1.0205625032034319e+04 +1.5049718541819984e+05 +6.1076989032395534e+07 
-7.0000000000000007e-01 -5.2490666220169147e-01 +6.8992356047119694e+00 +5.2067340617973255e+00 -7.2496957118952579e+01 -1.0069478662178068e+04 +1.5148475785345389e+05 +6.0339511876284972e+07 
-7.5000000000000011e-01 -5.2491413133215203e-01 +6.8995300503777504e+00 +5.1948528894338839e+00 -7.2650908107197282e+01 -9.9339991154663603e+03 +1.5250130834300807e+05 +5.9605888535608470e+07 
-8.0000000000000016e-01 -5.2492193058353798e-01 +6.8998423176686137e+00 +5.1826251778183039e+00 -7.2803830839461611e+01 -9.7992345798627066e+03 +1.5355277042671444e+05 +5.8876459402772397e+07 
-8.5000000000000020e-01 -5.2493005913650681e-01 +6.9001723413822651e+00 +5.1700526170576904e+00 -7.2956282218893421e+01 -9.6652330820912466e+03 +1.5464507630614599e+05 +5.8151563796756044e+07 
-9.0000000000000024e-01 -5.2493851617178866e-01 +6.9005200563201656e+00 +5.1571369072082041e+00 -7.3108819258916910e+01 -9.5320429139065891e+03 +1.5578415901233515e+05 +5.7431542809654891e+07 
-9.5000000000000029e-01 -5.2494730087007524e-01 +6.9008853972842950e+00 +5.1438797389803588e+00 -7.3261998983946214e+01 -9.3997121175995890e+03 +1.5697595171732965e+05 +5.6716735858755618e+07 
-1.0000000000000002e+00 -5.2495641241210611e-01 +6.9012682990749150e+00 +5.1302828088789205e+00 -7.3416378317449983e+01 -9.2682888905018863e+03 +1.5822638673919588e+05 +5.6007483401636876e+07 
-1.0500000000000003e+00 -5.2496584997861995e-01 +6.9016686964959524e+00 +5.1163478107970182e+00 -7.3572514312163790e+01 -9.1378213588853760e+03 +1.5954139746571949e+05 +5.5304125408173785e+07 
-1.1000000000000003e+00 -5.2497561275037530e-01 +6.9020865243489675e+00 +5.1020764399057752e+00 -7.3730963897604852e+01 -9.0083576874295723e+03 +1.6092691626953275e+05 +5.4607002121552937e+07 
-1.1500000000000004e+00 -5.2498569990814536e-01 +6.9025217174392486e+00 +5.0874703909201120e+00 -7.3892284126585281e+01 -8.8799460252206882e+03 +1.6238887650696706e+05 +5.3916453665842734e+07 
-1.2000000000000004e+00 -5.2499611063271123e-01 +6.9029742105670691e+00 +5.0725313577551088e+00 -7.4057031842646396e+01 -8.7526344984542320e+03 +1.6393320989558398e+05 +5.3232819998619340e+07 
-1.2500000000000004e+00 -5.2500684410489007e-01 +6.9034439385399757e+00 +5.0572610388907995e+00 -7.4225764134035970e+01 -8.6264713671542322e+03 +1.6556585004752397e+05 +5.2556442022185586e+07 
-1.3000000000000005e+00 -5.2501789950548106e-01 +6.9039308361629903e+00 +5.0416611259257422e+00 -7.4399037981742026e+01 -8.5015046905921881e+03 +1.6729272977564344e+05 +5.1887659219605722e+07 
-1.3500000000000005e+00 -5.2502927601531857e-01 +6.9044348382387541e+00 +5.0257333151701289e+00 -7.4577410231557579e+01 -8.3777826673414474e+03 +1.6911978071884485e+05 +5.1226812060957819e+07 
-1.4000000000000006e+00 -5.2504097281524875e-01 +6.9049558795769412e+00 +5.0094793022943929e+00 -7.4761438007907458e+01 -8.2553534732033077e+03 +1.7105293686384938e+05 +5.0574240834900819e+07 
-1.4500000000000006e+00 -5.2505298908612896e-01 +6.9054938949822828e+00 +4.9929007828798513e+00 -7.4951678196949047e+01 -8.1342652855875276e+03 +1.7309813019678029e+05 +4.9930285852655455e+07 
-1.5000000000000007e+00 -5.2506532400882078e-01 +6.9060488192612839e+00 +4.9759994502540650e+00 -7.5148687732338800e+01 -8.0145662157074976e+03 +1.7526129308277721e+05 +4.9295286956779331e+07 
-1.5500000000000007e+00 -5.2507797676422030e-01 +6.9066205872221627e+00 +4.9587770023178903e+00 -7.5353023599197599e+01 -7.8963045054920576e+03 +1.7754835832968436e+05 +4.8669584893331759e+07 
-1.6000000000000008e+00 -5.2509094653323074e-01 +6.9072091336723354e+00 +4.9412351351788937e+00 -7.5565242717076060e+01 -7.7795283425777443e+03 +1.7996525817200507e+05 +4.8053520016693212e+07 
-1.6500000000000008e+00 -5.2510423249675320e-01 +6.9078143934219689e+00 +4.9233755430275972e+00 -7.5785902109415616e+01 -7.6642858688685665e+03 +1.8251792575820914e+05 +4.7447432390347652e+07 
-1.7000000000000008e+00 -5.2511783383571986e-01 +6.9084363012784342e+00 +4.9051999225173546e+00 -7.6015558637288706e+01 -7.5506252888441304e+03 +1.8521229279863456e+05 +4.6851662482408918e+07 
-1.7500000000000009e+00 -5.2513174973107479e-01 +6.9090747920536311e+00 +4.8867099703830510e+00 -7.6254769344380719e+01 -7.4385948072122346e+03 +1.8805429258969560e+05 +4.6266550748029836e+07 
-1.8000000000000009e+00 -5.2514597936376306e-01 +6.9097298005546870e+00 +4.8679073817015901e+00 -7.6504091039181674e+01 -7.3282425924689187e+03 +1.9104985643504254e+05 +4.5692437428213947e+07 
-1.8500000000000010e+00 -5.2516052191475815e-01 +6.9104012615950312e+00 +4.8487938537729800e+00 -7.6764080768525645e+01 -7.2196168657342250e+03 +1.9420491760747042e+05 +4.5129663084788039e+07 
-1.9000000000000010e+00 -5.2517537656503899e-01 +6.9110891099847782e+00 +4.8293710829221013e+00 -7.7035295423665573e+01 -7.1127658246275614e+03 +1.9752540811580839e+05 +4.4578568127426714e+07 
-1.9500000000000011e+00 -5.2519054249559471e-01 +6.9117932805353615e+00 +4.8096407652532607e+00 -7.7318291910151416e+01 -7.0077376633952936e+03 +2.0101726002088419e+05 +4.4039492946669132e+07 
-2.0000000000000009e+00 -5.2520601888743468e-01 +6.9125137080587837e+00 +4.7896045980979345e+00 -7.7613627145509909e+01 -6.9045806070414583e+03 +2.0468640554232695e+05 +4.3512778128628343e+07 
-2.0500000000000007e+00 -5.2522180473289393e-01 +6.9132503191983332e+00 +4.7692651320806334e+00 -7.7921655362268311e+01 -6.8033438650044955e+03 +2.0853643378952917e+05 +4.2998749471477151e+07 
-2.1000000000000005e+00 -5.2523789826908740e-01 +6.9140030029263473e+00 +4.7486284684843429e+00 -7.8241945116593797e+01 -6.7040831116078953e+03 +2.1256163777973581e+05 +4.2497716173245870e+07 
-2.1500000000000004e+00 -5.2525429754421438e-01 +6.9147716375394292e+00 +4.7277016390599576e+00 -7.8573874403235365e+01 -6.6068562340941999e+03 +2.1675399701389988e+05 +4.2009993850127757e+07 
-2.2000000000000002e+00 -5.2527100060649867e-01 +6.9155561013356293e+00 +4.7064916775821217e+00 -7.8916821274414701e+01 -6.5117211701847327e+03 +2.2110549150679979e+05 +4.1535898445163347e+07 
-2.2500000000000000e+00 -5.2528800550414911e-01 +6.9163562726140375e+00 +4.6850056133449485e+00 -7.9270163791626715e+01 -6.4187357383439939e+03 +2.2560810127270196e+05 +4.1075745105304182e+07 
-2.2999999999999998e+00 -5.2530531028541183e-01 +6.9171720296710406e+00 +4.6632504805709916e+00 -7.9633279903110420e+01 -6.3279578922304263e+03 +2.3025380545050165e+05 +4.0629849899432227e+07 
-2.3499999999999996e+00 -5.2532291299852285e-01 +6.9180032508073133e+00 +4.6412333094959379e+00 -8.0005547708702693e+01 -6.2394454739031889e+03 +2.3503458438597916e+05 +4.0198528127525911e+07 
-2.3999999999999995e+00 -5.2534081169174818e-01 +6.9188498143202057e+00 +4.6189611341175700e+00 -8.0386345159732585e+01 -6.1532564317231336e+03 +2.3994241721841323e+05 +3.9782095829882495e+07 
-2.4499999999999993e+00 -5.2535900441334460e-01 +6.9197115985077708e+00 +4.5964409847702035e+00 -8.0775050224689124e+01 -6.0694486114998945e+03 +2.4496928323216067e+05 +3.9380868340671994e+07 
-2.4999999999999991e+00 -5.2537748921158678e-01 +6.9205884816703449e+00 +4.5736798928551847e+00 -8.1171040948849324e+01 -5.9880798868088286e+03 +2.5010716233240161e+05 +3.8995161181645855e+07 
-2.5499999999999989e+00 -5.2539626413476026e-01 +6.9214803421074009e+00 +4.5506848906585988e+00 -8.1573695322995647e+01 -5.9092081604152090e+03 +2.5534803395639104e+05 +3.8625290092059128e+07 
-2.5999999999999988e+00 -5.2541532723116291e-01 +6.9223870581168736e+00 +4.5274630103033013e+00 -8.1982391273178507e+01 -5.8328913261836706e+03 +2.6068387704708442e+05 +3.8271570739301547e+07 
-2.6499999999999986e+00 -5.2543467654909493e-01 +6.9233085079972074e+00 +4.5040212827420971e+00 -8.2396506720511567e+01 -5.7591872472762980e+03 +2.6610667045933608e+05 +3.7934318588187523e+07 
-2.6999999999999984e+00 -5.2545431013686894e-01 +6.9242445700474651e+00 +4.4803667395788693e+00 -8.2815419612254516e+01 -5.6881538054055482e+03 +2.7160839331094146e+05 +3.7613849235813111e+07 
-2.7499999999999982e+00 -5.2547422604281191e-01 +6.9251951225681561e+00 +4.4565064129628125e+00 -8.3238507931135516e+01 -5.6198488948965105e+03 +2.7718102496226534e+05 +3.7310478361486711e+07 
-2.7999999999999980e+00 -5.2549442231524612e-01 +6.9261600438562114e+00 +4.4324473331635081e+00 -8.3665149509312940e+01 -5.5543303633184278e+03 +2.8281654356718110e+05 +3.7024521345048659e+07 
-2.8499999999999979e+00 -5.2551489700251031e-01 +6.9271392122118929e+00 +4.4081965309950508e+00 -8.4094722301200989e+01 -5.4916560679325294e+03 +2.8850692826699989e+05 +3.6756293619665392e+07 
-2.8999999999999977e+00 -5.2553564815295617e-01 +6.9281325059347250e+00 +4.3837610385894648e+00 -8.4526604218809254e+01 -5.4318839051345922e+03 +2.9424415784755751e+05 +3.6506110898154244e+07 
-2.9499999999999975e+00 -5.2555667381494275e-01 +6.9291398033211733e+00 +4.3591478872670226e+00 -8.4960173042797237e+01 -5.3750717454928599e+03 +3.0002021003409266e+05 +3.6274288709879398e+07 
-2.9999999999999973e+00 -5.2557797203682288e-01 +6.9301609826714738e+00 +4.3343641063960918e+00 -8.5394806698278870e+01 -5.3212774124284251e+03 +3.0582706373108225e+05 +3.6061142291200213e+07 
-3.0499999999999972e+00 -5.2559954086697469e-01 +6.9311959222847754e+00 +4.3094167275814401e+00 -8.5829883048830098e+01 -5.2705587835410415e+03 +3.1165669730603852e+05 +3.5866987225422882e+07 
-3.0999999999999970e+00 -5.2562137835378231e-01 +6.9322445004582747e+00 +4.2843127825168343e+00 -8.6264779877140967e+01 -5.2229737432322318e+03 +3.1750108849659696e+05 +3.5692139165207550e+07 
-3.1499999999999968e+00 -5.2564348254561333e-01 +6.9333065954914543e+00 +4.2590592983920823e+00 -8.6698875049762421e+01 -5.1785800523582284e+03 +3.2335221571783267e+05 +3.5536912924416654e+07 
-3.1999999999999966e+00 -5.2566585149088740e-01 +6.9343820856811496e+00 +4.2336633100415613e+00 -8.7131546315082545e+01 -5.1374356769169017e+03 +3.2920205640893010e+05 +3.5401624704608649e+07 
-3.2499999999999964e+00 -5.2568848323798611e-01 +6.9354708493267321e+00 +4.2081318442681477e+00 -8.7562171515453940e+01 -5.0995983678927960e+03 +3.3504258876835642e+05 +3.5286589268297940e+07 
-3.2999999999999963e+00 -5.2571137583532856e-01 +6.9365727647238336e+00 +4.1824719331290341e+00 -8.7990128337648557e+01 -5.0651260166463690e+03 +3.4086578973061644e+05 +3.5192122326015010e+07 
-3.3499999999999961e+00 -5.2573452733131654e-01 +6.9376877101725958e+00 +4.1566906044418515e+00 -8.8414794647190121e+01 -5.0340764025232975e+03 +3.4666363770955516e+05 +3.5118538847557053e+07 
-3.3999999999999959e+00 -5.2575793577439056e-01 +6.9388155639693325e+00 +4.1307948910889394e+00 -8.8835548140998114e+01 -5.0065074359095861e+03 +3.5242810970330628e+05 +3.5066154672768742e+07 
-3.4499999999999957e+00 -5.2578159921296175e-01 +6.9399562044095982e+00 +4.1047918198642019e+00 -8.9251766477631463e+01 -4.9824768680671577e+03 +3.5815118238593597e+05 +3.5035284594010934e+07 
-3.4999999999999956e+00 -5.2580551569546707e-01 +6.9411095097911915e+00 +4.0786884205482776e+00 -8.9662827413503152e+01 -4.9620425255111140e+03 +3.6382483328594116e+05 +3.5026243897065923e+07 
-3.5499999999999954e+00 -5.2582968327035318e-01 +6.9422753584114325e+00 +4.0524917240035467e+00 -9.0068108670794444e+01 -4.9452622714398703e+03 +3.6944103960439528e+05 +3.5039348153550066e+07 
-3.5999999999999952e+00 -5.2585409998605426e-01 +6.9434536285656900e+00 +4.0262087570037828e+00 -9.0466987887844155e+01 -4.9321938518076195e+03 +3.7499177785748383e+05 +3.5074912122741528e+07 
-3.6499999999999950e+00 -5.2587876389103971e-01 +6.9446441985490655e+00 +3.9998465513900472e+00 -9.0858842687837921e+01 -4.9228951481313798e+03 +3.8046902443780354e+05 +3.5133251483397633e+07 
-3.6999999999999948e+00 -5.2590367303374463e-01 +6.9458469466575492e+00 +3.9734121322369265e+00 -9.1243050735306895e+01 -4.9174238636752107e+03 +3.8586475610544201e+05 +3.5214680734078705e+07 
-3.7499999999999947e+00 -5.2592882546263808e-01 +6.9470617511872668e+00 +3.9469125292380993e+00 -9.1618989682801967e+01 -4.9158378254635518e+03 +3.9117094946334674e+05 +3.5319515215784132e+07 
-3.7999999999999945e+00 -5.2595421922619889e-01 +6.9482884904301958e+00 +3.9203547725938841e+00 -9.1986037022152942e+01 -4.9181948710969609e+03 +3.9637957984600234e+05 +3.5448070337113403e+07 
-3.8499999999999943e+00 -5.2597985237288880e-01 +6.9495270426833207e+00 +3.8937458886609626e+00 -9.2343570445219882e+01 -4.9245527371602739e+03 +4.0148262421393610e+05 +3.5600660842504695e+07 
-3.8999999999999941e+00 -5.2600572295118198e-01 +6.9507772862382717e+00 +3.8670929046798070e+00 -9.2690967417662094e+01 -4.9349691808876823e+03 +4.0647205764862319e+05 +3.5777601613387682e+07 
-3.9499999999999940e+00 -5.2603182900957601e-01 +6.9520390993909800e+00 +3.8404028510113495e+00 -9.3027605583877161e+01 -4.9495020442623209e+03 +4.1133985671667731e+05 +3.5979208115687698e+07 
-3.9999999999999938e+00 -5.2605816859652632e-01 +6.9533123604327747e+00 +3.8136827498486223e+00 -9.3352862400373937e+01 -4.9682089514161607e+03 +4.1607799644959247e+05 +3.6205794362200893e+07 
-4.0499999999999936e+00 -5.2608473969353775e-01 +6.9545969372799838e+00 +3.7869379908596850e+00 -9.3666161759907666e+01 -4.9911080176621135e+03 +4.2067942318873364e+05 +3.6457450750585176e+07 
-4.0999999999999934e+00 -5.2611154001418603e-01 +6.9558926539260808e+00 +3.7601679888050477e+00 -9.3967128216629888e+01 -5.0180565068940014e+03 +4.2514091370732291e+05 +3.6733320646361709e+07 
-4.1499999999999932e+00 -5.2613856720516428e-01 +6.9571993227810234e+00 +3.7333708336272093e+00 -9.4255442948340715e+01 -5.0488712941490603e+03 +4.2946020386934833e+05 +3.7032301585857712e+07 
-4.1999999999999931e+00 -5.2616581891314640e-01 +6.9585167562608969e+00 +3.7065446105314610e+00 -9.4530787407606510e+01 -5.0833691148030193e+03 +4.3363503178153385e+05 +3.7353290124081351e+07 
-4.2499999999999929e+00 -5.2619329278479543e-01 +6.9598447667745269e+00 +3.6796874036519402e+00 -9.4792842752110900e+01 -5.1213666870457891e+03 +4.3766313310693495e+05 +3.7695182748166189e+07 
-4.2999999999999927e+00 -5.2622098646679738e-01 +6.9611831667377562e+00 +3.6527973001299459e+00 -9.5041290437500109e+01 -5.1626808027020352e+03 +4.4154224595679698e+05 +3.8056876417513326e+07 
-4.3499999999999925e+00 -5.2624889760582516e-01 +6.9625317685632719e+00 +3.6258723853871202e+00 -9.5275811802240341e+01 -5.2071282139695550e+03 +4.4527010748591437e+05 +3.8437267848864891e+07 
-4.3999999999999924e+00 -5.2627702384855313e-01 +6.9638903846665405e+00 +3.5989107442065520e+00 -9.5496088304007756e+01 -5.2545256489889143e+03 +4.4884445581792394e+05 +3.8835253575078264e+07 
-4.4499999999999922e+00 -5.2630536284165819e-01 +6.9652588274595155e+00 +3.5719104624323310e+00 -9.5701801276178784e+01 -5.3046898713962737e+03 +4.5226302808242827e+05 +3.9249730395601444e+07 
-4.4999999999999920e+00 -5.2633391223181003e-01 +6.9666369093560014e+00 +3.5448696244882556e+00 -9.5892632135007446e+01 -5.3574376056738274e+03 +4.5552356206702662e+05 +3.9679594844103478e+07 
-4.5499999999999918e+00 -5.2636266966569001e-01 +6.9680244427697922e+00 +3.5177863165258056e+00 -9.6068262303844264e+01 -5.4125856197217754e+03 +4.5862379560684197e+05 +4.0123743738992050e+07 
-4.5999999999999917e+00 -5.2639163278996137e-01 +6.9694212401156852e+00 +3.4906586221134250e+00 -9.6228373282615593e+01 -5.4699506180726867e+03 +4.6156146724472765e+05 +4.0581073495131254e+07 
-4.6499999999999915e+00 -5.2642079925129659e-01 +6.9708271138071982e+00 +3.4634846258679470e+00 -9.6372646502826797e+01 -5.5293493279869253e+03 +4.6433431485130847e+05 +4.1050480664781444e+07 
-4.6999999999999913e+00 -5.2645016669636868e-01 +6.9722418762571996e+00 +3.4362624132083814e+00 -9.6500763406883081e+01 -5.5905985013342479e+03 +4.6694007647547754e+05 +4.1530861975746684e+07 
-4.7499999999999911e+00 -5.2647973277183491e-01 +6.9736653398825128e+00 +3.4089900672113465e+00 -9.6612405610949423e+01 -5.6535148324779075e+03 +4.6937649157970911e+05 +4.2021113793237872e+07 
-4.7999999999999909e+00 -5.2650949512435941e-01 +6.9750973170968686e+00 +3.3816656715820654e+00 -9.6707254611084750e+01 -5.7179150245813225e+03 +4.7164129860260303e+05 +4.2520132514841892e+07 
-4.8499999999999908e+00 -5.2653945140060843e-01 +6.9765376203142786e+00 +3.3542873115053489e+00 -9.6784991936612144e+01 -5.7836158272729608e+03 +4.7373223628411361e+05 +4.3026814874972880e+07 
-4.8999999999999906e+00 -5.2656959924723801e-01 +6.9779860619498448e+00 +3.3268530701560497e+00 -9.6845299183498781e+01 -5.8504339330132507e+03 +4.7564704391973099e+05 +4.3540057215537511e+07 
-4.9499999999999904e+00 -5.2659993631089819e-01 +6.9794424544189519e+00 +3.2993610302156480e+00 -9.6887857979985242e+01 -5.9181860238692316e+03 +4.7738346109017218e+05 +4.4058755822625399e+07 
-4.9999999999999902e+00 -5.2663046023824578e-01 +6.9809066101350137e+00 +3.2718092763480731e+00 -9.6912349880684928e+01 -5.9866888371101168e+03 +4.7893922672674502e+05 +4.4581807359952316e+07 
-5.0499999999999901e+00 -5.2666116867592228e-01 +6.9823783415152123e+00 +3.2441958905410626e+00 -9.6918456620949030e+01 -6.0557590351685722e+03 +4.8031208127070294e+05 +4.5108107980209403e+07 
