# multipoles
# s[mm] polynom_b[n=0][T/m^n] polynom_b[n=1][T/m^n] polynom_b[n=2][T/m^n] polynom_b[n=3][T/m^n] polynom_b[n=4][T/m^n] polynom_b[n=5][T/m^n] polynom_b[n=6][T/m^n] 
+0.0000000000000000e+00 -5.5527249044062532e-01 +7.2708247533849519e+00 +5.5180622002651090e+00 -5.8745956787627037e+01 +3.5021055990013201e+03 -1.0548906570286765e+05 -1.3664106666764859e+07 
-5.0000000000000003e-02 -5.5527408324118244e-01 +7.2709182917349198e+00 +5.5112028710243708e+00 -5.9314423032049014e+01 +3.6713570748970910e+03 -1.0130827722010719e+05 -1.4771713113276191e+07 
-1.0000000000000001e-01 -5.5527605002241653e-01 +7.2710312231003815e+00 +5.5037580037670359e+00 -5.9851683374501384e+01 +3.8417412247418515e+03 -9.7265140811526056e+04 -1.5883038495135456e+07 
-1.5000000000000002e-01 -5.5527838990251410e-01 +7.2711634887885168e+00 +5.4957398969402842e+00 -6.0358086882991330e+01 +4.0130124022825662e+03 -9.3358421117571721e+04 -1.6996549672058739e+07 
-2.0000000000000001e-01 -5.5528110199968805e-01 +7.2713150301022296e+00 +5.4871608513644929e+00 -6.0833982403501231e+01 +4.1849248929808464e+03 -8.9586884680131727e+04 -1.8110713033641025e+07 
-2.5000000000000000e-01 -5.5528418543217894e-01 +7.2714857883487989e+00 +5.4780331690516615e+00 -6.1279718949495688e+01 +4.3572329531551013e+03 -8.5949296587710458e+04 -1.9223994782006666e+07 
-2.9999999999999999e-01 -5.5528763931821667e-01 +7.2716757048377163e+00 +5.4683691477147160e+00 -6.1695645582048911e+01 +4.5296909485698598e+03 -8.2444421595323278e+04 -2.0334861836434182e+07 
-3.4999999999999998e-01 -5.5529146277606500e-01 +7.2718847208740449e+00 +5.4581810878825623e+00 -6.2082111146148037e+01 +4.7020531697843444e+03 -7.9071026259334569e+04 -2.1441780613268539e+07 
-3.9999999999999997e-01 -5.5529565492401467e-01 +7.2721127777689683e+00 +5.4474812918648405e+00 -6.2439464701954584e+01 +4.8740738588446729e+03 -7.5827875383174498e+04 -2.2543217200426023e+07 
-4.4999999999999996e-01 -5.5530021488034853e-01 +7.2723598168322825e+00 +5.4362820575146698e+00 -6.2768055230796726e+01 +5.0455073782639847e+03 -7.2713734396859989e+04 -2.3637638502294056e+07 
-4.9999999999999994e-01 -5.5530514176337975e-01 +7.2726257793721185e+00 +5.4245956853511679e+00 -6.3068231607037795e+01 +5.2161080142096498e+03 -6.9727369651380737e+04 -2.4723510891569231e+07 
-5.4999999999999993e-01 -5.5531043469143748e-01 +7.2729106067012399e+00 +5.4124344756563465e+00 -6.3340342848648376e+01 +5.3856300596488600e+03 -6.6867546393381344e+04 -2.5799300789658740e+07 
-5.9999999999999998e-01 -5.5531609278286120e-01 +7.2732142401318018e+00 +5.3998107278842484e+00 -6.3584737948062148e+01 +5.5538278283067511e+03 -6.4133029959882806e+04 -2.6863474756430969e+07 
-6.5000000000000002e-01 -5.5532211515600949e-01 +7.2735366209760981e+00 +5.3867367416161587e+00 -6.3801765843495012e+01 +5.7204556322770231e+03 -6.1522586269225096e+04 -2.7914499345498115e+07 
-7.0000000000000007e-01 -5.5532850092925501e-01 +7.2738776905458646e+00 +5.3732248162553233e+00 -6.3991775433674228e+01 +5.8852677831488245e+03 -5.9034981523660979e+04 -2.8950841088182569e+07 
-7.5000000000000011e-01 -5.5533524922098387e-01 +7.2742373901561264e+00 +5.3592872509503664e+00 -6.4155115707359656e+01 +6.0480185986752822e+03 -5.6668981243927083e+04 -2.9970966557064809e+07 
-8.0000000000000016e-01 -5.5534235914960917e-01 +7.2746156611225965e+00 +5.3449363463099839e+00 -6.4292135660354560e+01 +6.2084623624026663e+03 -5.4423350881720420e+04 -3.0973342115889091e+07 
-8.5000000000000020e-01 -5.5534982983355530e-01 +7.2750124447574702e+00 +5.3301844025148810e+00 -6.4403184116744100e+01 +6.3663533601465269e+03 -5.2296857294897549e+04 -3.1956434106007218e+07 
-9.0000000000000024e-01 -5.5535766039124335e-01 +7.2754276823760913e+00 +5.3150437162910036e+00 -6.4488609978631118e+01 +6.5214459756725364e+03 -5.0288266802871025e+04 -3.2918709552935578e+07 
-9.5000000000000029e-01 -5.5536584994113736e-01 +7.2758613152957787e+00 +5.2995265891862520e+00 -6.4548762217666692e+01 +6.6734944580217307e+03 -4.8396345092986325e+04 -3.3858634553086802e+07 
-1.0000000000000002e+00 -5.5537439760170082e-01 +7.2763132848326464e+00 +5.2836453196206232e+00 -6.4583989719751116e+01 +6.8222531447054835e+03 -4.6619858600370520e+04 -3.4774675817686088e+07 
-1.0500000000000003e+00 -5.5538330249141232e-01 +7.2767835323031571e+00 +5.2674122064760036e+00 -6.4594641346640415e+01 +6.9674763527241030e+03 -4.4957573999111512e+04 -3.5665299888724454e+07 
-1.1000000000000003e+00 -5.5539256372877555e-01 +7.2772719990239576e+00 +5.2508395498090819e+00 -6.4581065949965961e+01 +7.1089183747956440e+03 -4.3408258036024366e+04 -3.6528973176353939e+07 
-1.1500000000000004e+00 -5.5540218043229939e-01 +7.2777786263150537e+00 +5.2339396479689357e+00 -6.4543612478415795e+01 +7.2463335431425967e+03 -4.1970676699929718e+04 -3.7364162327656686e+07 
-1.2000000000000004e+00 -5.5541215172050928e-01 +7.2783033554907126e+00 +5.2167247999518240e+00 -6.4482629612116000e+01 +7.3794761719071794e+03 -4.0643598231548560e+04 -3.8169333869911090e+07 
-1.2500000000000004e+00 -5.5542247671195666e-01 +7.2788461278730585e+00 +5.1992073062305408e+00 -6.4398466342138107e+01 +7.5081005389449592e+03 -3.9425788255112217e+04 -3.8942954100514524e+07 
-1.3000000000000005e+00 -5.5543315452518716e-01 +7.2794068847781492e+00 +5.1813994636998375e+00 -6.4291471352849157e+01 +7.6319610128075547e+03 -3.8316015061057733e+04 -3.9683489902854279e+07 
-1.3500000000000005e+00 -5.5544418427877607e-01 +7.2799855675266993e+00 +5.1633135717992040e+00 -6.4161993515246223e+01 +7.7508118978339553e+03 -3.7313045310740410e+04 -4.0389407748412408e+07 
-1.4000000000000006e+00 -5.5545556509131355e-01 +7.2805821174366434e+00 +5.1449619304336389e+00 -6.4010381545982440e+01 +7.8644074774165192e+03 -3.6415647014331727e+04 -4.1059173932837136e+07 
-1.4500000000000006e+00 -5.5546729608140510e-01 +7.2811964758278735e+00 +5.1263568383271760e+00 -6.3836984207231161e+01 +7.9725020796150511e+03 -3.5622587836911203e+04 -4.1691255103345722e+07 
-1.5000000000000007e+00 -5.5547937636764833e-01 +7.2818285840216879e+00 +5.1075105920540809e+00 -6.3642150293529724e+01 +8.0748500732536904e+03 -3.4932635195579976e+04 -4.2284118119353920e+07 
-1.5500000000000007e+00 -5.5549180506869500e-01 +7.2824783833357287e+00 +5.0884354936252096e+00 -6.3426228430687196e+01 +8.1712056923475120e+03 -3.4344557871823541e+04 -4.2836228971038163e+07 
-1.6000000000000008e+00 -5.5550458130318059e-01 +7.2831458150908439e+00 +5.0691438403378788e+00 -6.3189567332583884e+01 +8.2613232922755542e+03 -3.3857124006990096e+04 -4.3346054449429788e+07 
-1.6500000000000008e+00 -5.5551770418975421e-01 +7.2838308206088396e+00 +5.0496479291333607e+00 -6.2932515719248286e+01 +8.3449572386912823e+03 -3.3469101728413072e+04 -4.3812061415811613e+07 
-1.7000000000000008e+00 -5.5553117284710241e-01 +7.2845333412087303e+00 +5.0299600612160376e+00 -6.2655422189365353e+01 +8.4218617809147636e+03 -3.3179260102452892e+04 -4.4232715942174830e+07 
-1.7500000000000009e+00 -5.5554498639390260e-01 +7.2852533182123693e+00 +5.0100925332886144e+00 -6.2358635414547933e+01 +8.4917912915940014e+03 -3.2986367682217853e+04 -4.4606484938833542e+07 
-1.8000000000000009e+00 -5.5555914394886008e-01 +7.2859906929389942e+00 +4.9900576449472558e+00 -6.2042503935104705e+01 +8.5545000613236316e+03 -3.2889194100454944e+04 -4.4931834749401420e+07 
-1.8500000000000010e+00 -5.5557364463070236e-01 +7.2867454067103097e+00 +4.9698676968173530e+00 -6.1707376350141566e+01 +8.6097423547909420e+03 -3.2886508596523054e+04 -4.5207231544316031e+07 
-1.9000000000000010e+00 -5.5558848755813317e-01 +7.2875174008460428e+00 +4.9495349828703530e+00 -6.1353601173746824e+01 +8.6572726178248595e+03 -3.2977081035481875e+04 -4.5431142728918061e+07 
-1.9500000000000011e+00 -5.5560367184990644e-01 +7.2883066166675521e+00 +4.9290718039827874e+00 -6.0981526939447370e+01 +8.6968451037376417e+03 -3.3159681226726243e+04 -4.5602034381534413e+07 
-2.0000000000000009e+00 -5.5561919662479020e-01 +7.2891129954970131e+00 +4.9084904605064725e+00 -6.0591502199877027e+01 +8.7282140856835467e+03 -3.3433078787403181e+04 -4.5718372735421441e+07 
-2.0500000000000007e+00 -5.5563506079575065e-01 +7.2899364686611046e+00 +4.8878009281260644e+00 -6.0183891760840879e+01 +8.7512137305116194e+03 -3.3796131898481886e+04 -4.5779148768900096e+07 
-2.1000000000000005e+00 -5.5565126245251284e-01 +7.2907769233404167e+00 +4.8670041582632022e+00 -5.9759176210907007e+01 +8.7659986041058273e+03 -3.4247826475627611e+04 -4.5785452746857241e+07 
-2.1500000000000004e+00 -5.5566779947887157e-01 +7.2916342346320926e+00 +4.8460988988176279e+00 -5.9317877978460395e+01 +8.7728042741659519e+03 -3.4787127427441657e+04 -4.5738904299289539e+07 
-2.2000000000000002e+00 -5.5568466975867770e-01 +7.2925082776369843e+00 +4.8250839056602528e+00 -5.8860519619345553e+01 +8.7718660965750769e+03 -3.5412998697085830e+04 -4.5641121639533065e+07 
-2.2500000000000000e+00 -5.5570187117577519e-01 +7.2933989274538726e+00 +4.8039579314830725e+00 -5.8387623599411690e+01 +8.7634195107863779e+03 -3.6124404924128081e+04 -4.5493723532723151e+07 
-2.2999999999999998e+00 -5.5571940161400757e-01 +7.2943060591818361e+00 +4.7827197267355457e+00 -5.7899712384511119e+01 +8.7477000168617797e+03 -3.6920310749799974e+04 -4.5298329149709016e+07 
-2.3499999999999996e+00 -5.5573725895725934e-01 +7.2952295479208340e+00 +4.7613680470263686e+00 -5.7397308470740427e+01 +8.7249429805747131e+03 -3.7799680542491406e+04 -4.5056556775439940e+07 
-2.3999999999999995e+00 -5.5575544108939423e-01 +7.2961692687707185e+00 +4.7399016425023026e+00 -5.6880934326032325e+01 +8.6953839112474270e+03 -3.8761478951735146e+04 -4.4770025644476049e+07 
-2.4499999999999993e+00 -5.5577394589432416e-01 +7.2971250968325441e+00 +4.7183192697368259e+00 -5.6351112479704021e+01 +8.6592581482760015e+03 -3.9804670026349406e+04 -4.4440353854636893e+07 
-2.4999999999999991e+00 -5.5579277125593607e-01 +7.2980969072052089e+00 +4.6966196791798343e+00 -5.5808365341081171e+01 +8.6168011944277023e+03 -4.0928218887055729e+04 -4.4069160599553585e+07 
-2.5499999999999989e+00 -5.5581191505812089e-01 +7.2990845749907249e+00 +4.6748016203803413e+00 -5.5253215465696869e+01 +8.5682485766888967e+03 -4.2131089348708731e+04 -4.3658065233748853e+07 
-2.5999999999999988e+00 -5.5583137518483383e-01 +7.3000879752895456e+00 +4.6528638517885126e+00 -5.4686185316316816e+01 +8.5138355880626987e+03 -4.3412246053739480e+04 -4.3208685550392389e+07 
-2.6499999999999986e+00 -5.5585114951998871e-01 +7.3011069832022821e+00 +4.6308051230854055e+00 -5.4107797377723713e+01 +8.4537977532552395e+03 -4.4770653378283809e+04 -4.2722640885064624e+07 
-2.6999999999999984e+00 -5.5587123594752974e-01 +7.3021414738289518e+00 +4.6086241879237582e+00 -5.3518574092361035e+01 +8.3883704913784368e+03 -4.6205276081277778e+04 -4.2201549868221752e+07 
-2.7499999999999982e+00 -5.5589163235140415e-01 +7.3031913222719655e+00 +4.5863197980301456e+00 -5.2919038008588302e+01 +8.3177892795861662e+03 -4.7715077992805083e+04 -4.1647031538015231e+07 
-2.7999999999999980e+00 -5.5591233661556383e-01 +7.3042564036340751e+00 +4.5638907050244475e+00 -5.2309711671823052e+01 +8.2422895913914654e+03 -4.9299023004594877e+04 -4.1060704882431477e+07 
-2.8499999999999979e+00 -5.5593334662399929e-01 +7.3053365930146574e+00 +4.5413356652384138e+00 -5.1691117507073528e+01 +8.1621067791437335e+03 -5.0956075907253624e+04 -4.0444188088960476e+07 
-2.8999999999999977e+00 -5.5595466026067220e-01 +7.3064317655161828e+00 +4.5186534282376121e+00 -5.1063778049537717e+01 +8.0774763789521494e+03 -5.2685200626336205e+04 -3.9799100588436253e+07 
-2.9499999999999975e+00 -5.5597627540957262e-01 +7.3075417962409661e+00 +4.4958427473689193e+00 -5.0428215838317300e+01 +7.9886338224303663e+03 -5.4485360998042539e+04 -3.9127061092801087e+07 
-2.9999999999999973e+00 -5.5599818995469596e-01 +7.3086665602905052e+00 +4.4729023752116017e+00 -4.9784953380130361e+01 +7.8958145657129835e+03 -5.6355521098267738e+04 -3.8429688490178153e+07 
-3.0499999999999972e+00 -5.5602040178005874e-01 +7.3098059327669791e+00 +4.4498310663718357e+00 -4.9134513208944917e+01 +7.7992540112891502e+03 -5.8294644770189429e+04 -3.7708601306645148e+07 
-3.0999999999999970e+00 -5.5604290876965479e-01 +7.3109597887736983e+00 +4.4266275702562892e+00 -4.8477417913168303e+01 +7.6991877036868782e+03 -6.0301695366717686e+04 -3.6965419032345168e+07 
-3.1499999999999968e+00 -5.5606570880752293e-01 +7.3121280034120000e+00 +4.4032906424651053e+00 -4.7814189999377739e+01 +7.5958510209406595e+03 -6.2375636905804568e+04 -3.6201760028190419e+07 
-3.1999999999999966e+00 -5.5608879977767856e-01 +7.3133104517846039e+00 +4.3798190332472799e+00 -4.7145352043684952e+01 +7.4894794878523744e+03 -6.4515432767537714e+04 -3.5419243654001705e+07 
-3.2499999999999964e+00 -5.5611217956416781e-01 +7.3145070089947559e+00 +4.3562114970195065e+00 -4.6471426646437919e+01 +7.3803085134194844e+03 -6.6720046131126219e+04 -3.4619488467643201e+07 
-3.2999999999999963e+00 -5.5613584605103106e-01 +7.3157175501441518e+00 +4.3324667853875516e+00 -4.5792936350326933e+01 +7.2685735925260897e+03 -6.8988440613449522e+04 -3.3804113643657483e+07 
-3.3499999999999961e+00 -5.5615979712232055e-01 +7.3169419503364228e+00 +4.3085836513745477e+00 -4.5110403789835026e+01 +7.1545101742508978e+03 -7.1319579026560954e+04 -3.2974738013861958e+07 
-3.3999999999999959e+00 -5.5618403066209765e-01 +7.3181800846744647e+00 +4.2845608473575076e+00 -4.4424351576183696e+01 +7.0383537368541720e+03 -7.3712424360640987e+04 -3.2132980644476674e+07 
-3.4499999999999957e+00 -5.5620854455443569e-01 +7.3194318282624025e+00 +4.2603971276051711e+00 -4.3735302379060514e+01 +6.9203396992134067e+03 -7.6165939076739247e+04 -3.1280460167368390e+07 
-3.4999999999999956e+00 -5.5623333668339636e-01 +7.3206970562004026e+00 +4.2360912425894472e+00 -4.3043778730618058e+01 +6.8007035894460878e+03 -7.8679086694776299e+04 -3.0418795971203223e+07 
-3.5499999999999954e+00 -5.5625840493307832e-01 +7.3219756435959313e+00 +4.2116419479731269e+00 -4.2350303451983159e+01 +6.6796808003103906e+03 -8.1250828403521038e+04 -2.9549606545684338e+07 
-3.5999999999999952e+00 -5.5628374718754514e-01 +7.3232674655491907e+00 +4.1870479924912161e+00 -4.1655399100351609e+01 +6.5575069058685285e+03 -8.3880127429722153e+04 -2.8674511574751880e+07 
-3.6499999999999950e+00 -5.5630936133090791e-01 +7.3245723971626298e+00 +4.1623081319633686e+00 -4.0959588328895407e+01 +6.4344172963875899e+03 -8.6565946221005783e+04 -2.7795129529227495e+07 
-3.6999999999999948e+00 -5.5633524524725986e-01 +7.3258903135431197e+00 +4.1374211178122691e+00 -4.0263393988624514e+01 +6.3106474808727116e+03 -8.9307245545137572e+04 -2.6913079671080496e+07 
-3.7499999999999947e+00 -5.5636139682070573e-01 +7.3272210897915935e+00 +4.1123857025001262e+00 -3.9567338703189144e+01 +6.1864329439277544e+03 -9.2102987995525385e+04 -2.6029981109748453e+07 
-3.7999999999999945e+00 -5.5638781393536973e-01 +7.3285646010122951e+00 +4.0872006411368140e+00 -3.8871945255641776e+01 +6.0620090988138545e+03 -9.4952134778318286e+04 -2.5147452467282843e+07 
-3.8499999999999943e+00 -5.5641449447535996e-01 +7.3299207223095086e+00 +4.0618646846062436e+00 -3.8177736438118224e+01 +5.9376114761565250e+03 -9.7853647022374455e+04 -2.4267113163649704e+07 
-3.8999999999999941e+00 -5.5644143632479104e-01 +7.3312893287866343e+00 +4.0363765842959509e+00 -3.7485235033477579e+01 +5.8134755948979873e+03 -1.0080648585437975e+05 -2.3390582543314509e+07 
-3.9499999999999940e+00 -5.5646863736781482e-01 +7.3326702955459897e+00 +4.0107350971389168e+00 -3.6794963796208833e+01 +5.6898368257720185e+03 -1.0380961259689496e+05 -2.2519478947348401e+07 
-3.9999999999999938e+00 -5.5649609548854173e-01 +7.3340634976923926e+00 +3.9849389718392638e+00 -3.6107445604847797e+01 +5.5669307662732308e+03 -1.0686198747414393e+05 -2.1655422261523023e+07 
-4.0499999999999936e+00 -5.5652380846306437e-01 +7.3354687992743060e+00 +3.9589870730229473e+00 -3.5423184737207755e+01 +5.4449817435302975e+03 -1.0996194735574853e+05 -2.0799956414328054e+07 
-4.0999999999999934e+00 -5.5655177363552943e-01 +7.3368860140335288e+00 +3.9328793900282384e+00 -3.4742591071545284e+01 +5.3241668630760923e+03 -1.1310537108895510e+05 -1.9954346978881501e+07 
-4.1499999999999932e+00 -5.5657998824222732e-01 +7.3383149416238727e+00 +3.9066163963221507e+00 -3.4066048883630806e+01 +5.2046503470193411e+03 -1.1628751011973378e+05 -1.9119792926621225e+07 
-4.1999999999999931e+00 -5.5660844951944222e-01 +7.3397553816924432e+00 +3.8801985632973848e+00 -3.3393942205717963e+01 +5.0865964825780784e+03 -1.1950361785445639e+05 -1.8297493699462432e+07 
-4.2499999999999929e+00 -5.5663715470344599e-01 +7.3412071338937670e+00 +3.8536263608847499e+00 -3.2726655402125751e+01 +4.9701695914355778e+03 -1.2274894487090607e+05 -1.7488648960197654e+07 
-4.2999999999999927e+00 -5.5666610103053460e-01 +7.3426699978779997e+00 +3.8269002621110570e+00 -3.2064572668477666e+01 +4.8555339219109073e+03 -1.2601874312533392e+05 -1.6694457913442684e+07 
-4.3499999999999925e+00 -5.5669528573697225e-01 +7.3441437732962704e+00 +3.8000207358763296e+00 -3.1408078263833612e+01 +4.7428538190483087e+03 -1.2930826396999165e+05 -1.5916120366819629e+07 
-4.3999999999999924e+00 -5.5672470605906277e-01 +7.3456282597993470e+00 +3.7729882572778450e+00 -3.0757556454167549e+01 +4.6322934721691281e+03 -1.3261275863512009e+05 -1.5154835124361720e+07 
-4.4499999999999922e+00 -5.5675435923307592e-01 +7.3471232570379597e+00 +3.7458032952845906e+00 -3.0113391528520605e+01 +4.5240172345854762e+03 -1.3592747809253263e+05 -1.4411802092759553e+07 
-4.4999999999999920e+00 -5.5678424249529490e-01 +7.3486285646620502e+00 +3.7184663224018437e+00 -2.9475967764683251e+01 +4.4181893600863841e+03 -1.3924767334744244e+05 -1.3688220498986240e+07 
-4.5499999999999918e+00 -5.5681435308201199e-01 +7.3501439823227290e+00 +3.6909778119026142e+00 -2.8845669513992245e+01 +4.3149740890667672e+03 -1.4256859472254728e+05 -1.2985289508605499e+07 
-4.5999999999999917e+00 -5.5684468822949784e-01 +7.3516693096708083e+00 +3.6633382343346796e+00 -2.8222881140760247e+01 +4.2145357288035921e+03 -1.4588549236892402e+05 -1.2304208717687087e+07 
-4.6499999999999915e+00 -5.5687524517403875e-01 +7.3532043463560202e+00 +3.6355480628286103e+00 -2.7607986990916455e+01 +4.1170385232395593e+03 -1.4919361650367442e+05 -1.1646177324626928e+07 
-4.6999999999999913e+00 -5.5690602115190790e-01 +7.3547488920292583e+00 +3.6076077686144670e+00 -2.7001371478988016e+01 +4.0226467656111099e+03 -1.5248821674451450e+05 -1.1012394855086884e+07 
-4.7499999999999911e+00 -5.5693701339938062e-01 +7.3563027463388506e+00 +3.5795178242142760e+00 -2.6403418954540786e+01 +3.9315247132146237e+03 -1.5576454310909373e+05 -1.0404060595617812e+07 
-4.7999999999999909e+00 -5.5696821915273631e-01 +7.3578657089361093e+00 +3.5512787027942911e+00 -2.5814513902458369e+01 +3.8438366084006889e+03 -1.5901784449160163e+05 -9.8223737423040643e+06 
-4.8499999999999908e+00 -5.5699963564825439e-01 +7.3594375794703346e+00 +3.5228908784269684e+00 -2.5235040769906956e+01 +3.7597466686904318e+03 -1.6224336995095992e+05 -9.2685333291959036e+06 
-4.8999999999999906e+00 -5.5703126012219484e-01 +7.3610181575909355e+00 +3.4943548221081926e+00 -2.4665384023214209e+01 +3.6794191965543023e+03 -1.6543636837619019e+05 -8.7437389761816040e+06 
-4.9499999999999904e+00 -5.5706308981081643e-01 +7.3626072429449145e+00 +3.4656710054991797e+00 -2.4105928069822948e+01 +3.6030184741019475e+03 -1.6859208901327295e+05 -8.2491901619399926e+06 
-4.9999999999999902e+00 -5.5709512195039490e-01 +7.3642046351840209e+00 +3.4368399037330599e+00 -2.3557057537243569e+01 +3.5307086918342325e+03 -1.7170577924893700e+05 -7.7860857575729862e+06 
-5.0499999999999901e+00 -5.5712735377718914e-01 +7.3658101339576163e+00 +3.4078619898708049e+00 -2.3019156995147117e+01 +3.4626540966330472e+03 -1.7477268683308776e+05 -7.3556250238746144e+06 
