# multipoles
# s[mm] polynom_b[n=0][T/m^n] polynom_b[n=1][T/m^n] polynom_b[n=2][T/m^n] polynom_b[n=3][T/m^n] polynom_b[n=4][T/m^n] polynom_b[n=5][T/m^n] polynom_b[n=6][T/m^n] 
+0.0000000000000000e+00 -5.5100378984149934e-01 +7.2418038455627531e+00 +4.4791823142232809e+00 +6.4094805625302866e+00 +2.0513709113238558e+04 -4.8643356491109246e+05 -1.1516900608464791e+08 
+5.0000000000000003e-02 -5.5100363252202911e-01 +7.2418357355043845e+00 +4.4775061250107111e+00 +6.0033380727498322e+00 +2.0548684430339719e+04 -4.8419118825826980e+05 -1.1542493486377560e+08 
+1.0000000000000001e-01 -5.5100385150836850e-01 +7.2418891411853883e+00 +4.4753569299094726e+00 +5.5410025155729326e+00 +2.0582917683007541e+04 -4.8146513077857031e+05 -1.1567018594260031e+08 
+1.5000000000000002e-01 -5.5100444606043530e-01 +7.2419639188886267e+00 +4.4727398118905279e+00 +5.0258214002160839e+00 +2.0616366183503138e+04 -4.7828024662301742e+05 -1.1590464949737257e+08 
+2.0000000000000001e-01 -5.5100541543818704e-01 +7.2420599249021178e+00 +4.4696598577749738e+00 +4.4611420700328290e+00 +2.0648987142221569e+04 -4.7466138867050427e+05 -1.1612821502712615e+08 
+2.5000000000000000e-01 -5.5100675890156792e-01 +7.2421770155088252e+00 +4.4661221492266128e+00 +3.8503120897005583e+00 +2.0680737906408889e+04 -4.7063341156603873e+05 -1.1634077295089351e+08 
+2.9999999999999999e-01 -5.5100847571058109e-01 +7.2423150469965796e+00 +4.4621317748357781e+00 +3.1966788621691236e+00 +2.0711575642169671e+04 -4.6622116867666325e+05 -1.1654221248792994e+08 
+3.4999999999999998e-01 -5.5101056512520841e-01 +7.2424738756529292e+00 +4.4576938168716254e+00 +2.5035898297455934e+00 +2.0741457680975011e+04 -4.6144951370713202e+05 -1.1673242395854728e+08 
+3.9999999999999997e-01 -5.5101302640548522e-01 +7.2426533577654810e+00 +4.4528133637401366e+00 +1.7743924599691279e+00 +2.0770341192014261e+04 -4.5634330057755939e+05 -1.1691129660141982e+08 
+4.4999999999999996e-01 -5.5101585881143678e-01 +7.2428533496218792e+00 +4.4474954994620601e+00 +1.0124342516049045e+00 +2.0798183461835961e+04 -4.5092738350033248e+05 -1.1707872044965565e+08 
+4.9999999999999994e-01 -5.5101906160312042e-01 +7.2430737075131288e+00 +4.4417453103973896e+00 +2.2106258730590925e-01 +2.0824941712837077e+04 -4.4522661571606621e+05 -1.1723458509686756e+08 
+5.4999999999999993e-01 -5.5102263404061746e-01 +7.2433142877284560e+00 +4.4355678842768871e+00 -5.9637504630806959e-01 +2.0850573132975907e+04 -4.3926585134788253e+05 -1.1737877991964537e+08 
+5.9999999999999998e-01 -5.5102657538398836e-01 +7.2435749465589927e+00 +4.4289683025004027e+00 -1.4365312051449408e+00 +2.0875035076799730e+04 -4.3306994421391882e+05 -1.1751119540357350e+08 
+6.5000000000000002e-01 -5.5103088489335861e-01 +7.2438555402953400e+00 +4.4219516546984234e+00 -2.2960584116567797e+00 +2.0898284680277655e+04 -4.2666374835503416e+05 -1.1763172057526194e+08 
+7.0000000000000007e-01 -5.5103556182883950e-01 +7.2441559252304932e+00 +4.4145230252232306e+00 -3.1716092430292115e+00 +2.0920279219913173e+04 -4.2007211744266987e+05 -1.1774024540327655e+08 
+7.5000000000000011e-01 -5.5104060545056344e-01 +7.2444759576567428e+00 +4.4066874995264280e+00 -4.0598362289250716e+00 +2.0940975937585190e+04 -4.1331990551734704e+05 -1.1783665960377447e+08 
+8.0000000000000016e-01 -5.5104601501868977e-01 +7.2448154938679457e+00 +4.3984501646872705e+00 -4.9573919383888354e+00 +2.0960332037096956e+04 -4.0643196629180614e+05 -1.1792085266284485e+08 
+8.5000000000000020e-01 -5.5105178979338709e-01 +7.2451743901576631e+00 +4.3898161065764834e+00 -5.8609288920994604e+00 +2.0978304750715171e+04 -3.9943315392525727e+05 -1.1799271424065152e+08 
+9.0000000000000024e-01 -5.5105792903483197e-01 +7.2455525028205940e+00 +4.3807904101187418e+00 -6.7670996460071029e+00 +2.0994851332016678e+04 -3.9234832225322101e+05 -1.1805213412846029e+08 
+9.5000000000000029e-01 -5.5106443200322297e-01 +7.2459496881521046e+00 +4.3713781604705524e+00 -7.6725567390375371e+00 +2.1009929034056564e+04 -3.8520232531259360e+05 -1.1809900213320534e+08 
+1.0000000000000002e+00 -5.5107129795877463e-01 +7.2463658024455606e+00 +4.3615844438102078e+00 -8.5739526191173088e+00 +2.1023495073574526e+04 -3.7802001784784917e+05 -1.1813320778703913e+08 
+1.0500000000000003e+00 -5.5107852616171482e-01 +7.2468007019979872e+00 +4.3514143453569796e+00 -9.4679398483856545e+00 +2.1035506695910080e+04 -3.7082625369788846e+05 -1.1815464082510276e+08 
+1.1000000000000003e+00 -5.5108611587228706e-01 +7.2472542431078626e+00 +4.3408729502960854e+00 -1.0351171027388762e+01 +2.1045921144923417e+04 -3.6364588639658206e+05 -1.1816319096158364e+08 
+1.1500000000000004e+00 -5.5109406635075076e-01 +7.2477262820711985e+00 +4.3299653443715105e+00 -1.1220298631387724e+01 +2.1054695646112115e+04 -3.5650377049045125e+05 -1.1815874777669387e+08 
+1.2000000000000004e+00 -5.5110237685736219e-01 +7.2482166751836461e+00 +4.3186966097893489e+00 -1.2071975093315066e+01 +2.1061787519079819e+04 -3.4942476091295091e+05 -1.1814120147911415e+08 
+1.2500000000000004e+00 -5.5111104665242006e-01 +7.2487252787468321e+00 +4.3070718332575257e+00 -1.2902853065249904e+01 +2.1067153962996821e+04 -3.4243371078338998e+05 -1.1811044146791098e+08 
+1.3000000000000005e+00 -5.5112007499622506e-01 +7.2492519490558713e+00 +4.2950960999552290e+00 -1.3709584909450935e+01 +2.1070752208478974e+04 -3.3555547562795895e+05 -1.1806635731506440e+08 
+1.3500000000000005e+00 -5.5112946114907535e-01 +7.2497965424115955e+00 +4.2827744914700219e+00 -1.4488823209240646e+01 +2.1072539586942108e+04 -3.2881490909995692e+05 -1.1800883929088214e+08 
+1.4000000000000006e+00 -5.5113920437130715e-01 +7.2503589151131251e+00 +4.2701120931569045e+00 -1.5237220437029798e+01 +2.1072473326978987e+04 -3.2223686584479036e+05 -1.1793777696141741e+08 
+1.4500000000000006e+00 -5.5114930392324246e-01 +7.2509389234594925e+00 +4.2571139861788989e+00 -1.5951429046976605e+01 +2.1070510759100416e+04 -3.1584620062769379e+05 -1.1785306053933600e+08 
+1.5000000000000007e+00 -5.5115975906525039e-01 +7.2515364237495072e+00 +4.2437852564869027e+00 -1.6628101464905804e+01 +2.1066609091669408e+04 -3.0966776842467289e+05 -1.1775457943660598e+08 
+1.5500000000000007e+00 -5.5117056905768047e-01 +7.2521512722852970e+00 +4.2301309846900272e+00 -1.7263890218797297e+01 +2.1060725667447357e+04 -3.0372642343185242e+05 -1.1764222393561606e+08 
+1.6000000000000008e+00 -5.5118173316090691e-01 +7.2527833253678260e+00 +4.2161562530079362e+00 -1.7855447774921053e+01 +2.1052817784777002e+04 -2.9804702031112480e+05 -1.1751588401208787e+08 
+1.6500000000000008e+00 -5.5119325063532920e-01 +7.2534324392964482e+00 +4.2018661454617270e+00 -1.8399426509674861e+01 +2.1042842690955644e+04 -2.9265441447212454e+05 -1.1737544928555414e+08 
+1.7000000000000008e+00 -5.5120512074133599e-01 +7.2540984703755056e+00 +4.1872657417140458e+00 -1.8892478984269555e+01 +2.1030757747268563e+04 -2.8757345979554148e+05 -1.1722081012924445e+08 
+1.7500000000000009e+00 -5.5121734273932865e-01 +7.2547812749015606e+00 +4.1723601213387651e+00 -1.9331257412535646e+01 +2.1016520311984441e+04 -2.8282901304718462e+05 -1.1705185687359451e+08 
+1.8000000000000009e+00 -5.5122991588974091e-01 +7.2554807091812750e+00 +4.1571543668529429e+00 -1.9712414404185516e+01 +2.1000087663612081e+04 -2.7844592771756847e+05 -1.1686847930531068e+08 
+1.8500000000000010e+00 -5.5124283945300501e-01 +7.2561966295147968e+00 +4.1416535584643857e+00 -2.0032602284100008e+01 +2.0981417135554821e+04 -2.7444905963751214e+05 -1.1667056755178134e+08 
+1.9000000000000010e+00 -5.5125611268955610e-01 +7.2569288922034492e+00 +4.1258627743203018e+00 -2.0288473402380244e+01 +2.0960466113345803e+04 -2.7086326441750576e+05 -1.1645801207559833e+08 
+1.9500000000000011e+00 -5.5126973485985298e-01 +7.2576773535524266e+00 +4.1097870940619989e+00 -2.0476680239524040e+01 +2.0937191941350626e+04 -2.6771339663930540e+05 -1.1623070305370770e+08 
+2.0000000000000009e+00 -5.5128370522435743e-01 +7.2584418698622590e+00 +4.0934315955782798e+00 -2.0593875075896516e+01 +2.0911552006165446e+04 -2.6502431246849190e+05 -1.1598853092756867e+08 
+2.0500000000000007e+00 -5.5129802281592155e-01 +7.2592223120841206e+00 +4.0768005308632258e+00 -2.0637735048179639e+01 +2.0883530270921136e+04 -2.6281376354142319e+05 -1.1573154061759683e+08 
+2.1000000000000005e+00 -5.5131268575777304e-01 +7.2600186041459267e+00 +4.0598946502037636e+00 -2.0610050300201667e+01 +2.0853239323886231e+04 -2.6107109134841821e+05 -1.1546054898391692e+08 
+2.1500000000000004e+00 -5.5132769194598263e-01 +7.2608306818451807e+00 +4.0427137929892414e+00 -2.0513644609771749e+01 +2.0820829379156323e+04 -2.5977852877336001e+05 -1.1517660342813498e+08 
+2.2000000000000002e+00 -5.5134303927662165e-01 +7.2616584809801141e+00 +4.0252577971353221e+00 -2.0351341756920224e+01 +2.0786450686699547e+04 -2.5891830876637695e+05 -1.1488075157528616e+08 
+2.2500000000000000e+00 -5.5135872564577815e-01 +7.2625019373471504e+00 +4.0075265008725216e+00 -2.0125965459779955e+01 +2.0750253494140066e+04 -2.5847266466638673e+05 -1.1457404105854155e+08 
+2.2999999999999998e+00 -5.5137474894953842e-01 +7.2633609867422644e+00 +3.9895197402349574e+00 -1.9840339393164012e+01 +2.0712388106822960e+04 -2.5842383021537284e+05 -1.1425751989475012e+08 
+2.3499999999999996e+00 -5.5139110708401862e-01 +7.2642355649663584e+00 +3.9712373544723949e+00 -1.9497287419731904e+01 +2.0673004744822319e+04 -2.5875403760281598e+05 -1.1393223552898127e+08 
+2.3999999999999995e+00 -5.5140779794534600e-01 +7.2651256078163460e+00 +3.9526791828292649e+00 -1.9099633235385230e+01 +2.0632253628849561e+04 -2.5944552034619427e+05 -1.1359923541327262e+08 
+2.4499999999999993e+00 -5.5142481942964194e-01 +7.2660310510909687e+00 +3.9338450615654774e+00 -1.8650200604637934e+01 +2.0590285061641138e+04 -2.6048051136939222e+05 -1.1325956755855770e+08 
+2.4999999999999991e+00 -5.5144216943305802e-01 +7.2669518305898482e+00 +3.9147348301272547e+00 -1.8151813313233358e+01 +2.0547249261488185e+04 -2.6184124342973187e+05 -1.1291427941074473e+08 
+2.5499999999999989e+00 -5.5145984585175589e-01 +7.2678878821130475e+00 +3.8953483276691285e+00 -1.7607295168958682e+01 +2.0503296460172165e+04 -2.6350994902899547e+05 -1.1256441852864537e+08 
+2.5999999999999988e+00 -5.5147784658189103e-01 +7.2688391414596865e+00 +3.8756853908861140e+00 -1.7019469919098182e+01 +2.0458576951649949e+04 -2.6546886120801215e+05 -1.1221103287498684e+08 
+2.6499999999999986e+00 -5.5149616951964719e-01 +7.2698055444298024e+00 +3.8557458593272003e+00 -1.6391161349178116e+01 +2.0413240955526577e+04 -2.6770021263470355e+05 -1.1185516991798437e+08 
+2.6999999999999984e+00 -5.5151481256122137e-01 +7.2707870268232169e+00 +3.8355295724002003e+00 -1.5725193236551588e+01 +2.0367438706024204e+04 -2.7018623600504507e+05 -1.1149787726742452e+08 
+2.7499999999999982e+00 -5.5153377360281930e-01 +7.2717835244432356e+00 +3.8150363705554229e+00 -1.5024389480830523e+01 +2.0321320398516760e+04 -2.7290916302923841e+05 -1.1114020223054892e+08 
+2.7999999999999980e+00 -5.5155305054063419e-01 +7.2727949730884136e+00 +3.7942660890828637e+00 -1.4291573804630465e+01 +2.0275036379650577e+04 -2.7585122677102091e+05 -1.1078319317879346e+08 
+2.8499999999999979e+00 -5.5157264127091266e-01 +7.2738213085604482e+00 +3.7732185712008679e+00 -1.3529570032714496e+01 +2.0228736783844080e+04 -2.7899465951093432e+05 -1.1042789705951621e+08 
+2.8999999999999977e+00 -5.5159254368988164e-01 +7.2748624666631878e+00 +3.7518936553627635e+00 -1.2741202094642842e+01 +2.0182571873303612e+04 -2.8232169256465923e+05 -1.1007536167867099e+08 
+2.9499999999999975e+00 -5.5161275569378754e-01 +7.2759183831958421e+00 +3.7302911815378814e+00 -1.1929293713969331e+01 +2.0136691871863201e+04 -2.8581455895828427e+05 -1.0972663459173922e+08 
+2.9999999999999973e+00 -5.5163327517889016e-01 +7.2769889939619032e+00 +3.7084109900366071e+00 -1.1096668796920101e+01 +2.0091247003353419e+04 -2.8945549015581905e+05 -1.0938276339078011e+08 
+3.0499999999999972e+00 -5.5165410004145299e-01 +7.2780742347656568e+00 +3.6862529207641228e+00 -1.0246151277945803e+01 +2.0046387499543263e+04 -2.9322671736580558e+05 -1.0904479570919949e+08 
+3.0999999999999970e+00 -5.5167522817776793e-01 +7.2791740414082806e+00 +3.6638168165302951e+00 -9.3805649611527482e+00 +2.0002263519988934e+04 -2.9711047284704173e+05 -1.0871377871446034e+08 
+3.1499999999999968e+00 -5.5169665748411367e-01 +7.2802883496907587e+00 +3.6411025162358324e+00 -8.5027336494934111e+00 +1.9959025336186882e+04 -3.0108898880740558e+05 -1.0839076035675175e+08 
+3.1999999999999966e+00 -5.5171838585679667e-01 +7.2814170954217534e+00 +3.6181098627623669e+00 -7.6154814589486417e+00 +1.9916823110060166e+04 -3.0514449484741030e+05 -1.0807678783878386e+08 
+3.2499999999999964e+00 -5.5174041119212236e-01 +7.2825602144015331e+00 +3.5948386963914363e+00 -6.7216321630497431e+00 +1.9875807083024578e+04 -3.0925922336210392e+05 -1.0777290893149866e+08 
+3.2999999999999963e+00 -5.5176273138642040e-01 +7.2837176424351728e+00 +3.5712888607045086e+00 -5.8240097341856494e+00 +1.9836127409212870e+04 -3.1341540506212838e+05 -1.0748017082623737e+08 
+3.3499999999999961e+00 -5.5178534433602411e-01 +7.2848893153265291e+00 +3.5474601984636198e+00 -4.9254380981995842e+00 +1.9797934268096415e+04 -3.1759527100527938e+05 -1.0719962089673015e+08 
+3.3999999999999959e+00 -5.5180824793726957e-01 +7.2860751688810383e+00 +3.5233525515286606e+00 -4.0287412535286418e+00 +1.9761377869069966e+04 -3.2178105159869208e+05 -1.0693230674108608e+08 
+3.4499999999999957e+00 -5.5183144008650609e-01 +7.2872751389022996e+00 +3.4989657620847514e+00 -3.1367431227774758e+00 +1.9726608420661389e+04 -3.2595497783928848e+05 -1.0667927598035355e+08 
+3.4999999999999956e+00 -5.5185491868011205e-01 +7.2884891611963276e+00 +3.4742996769338879e+00 -2.2522677355189762e+00 +1.9693776005163079e+04 -3.3009927980467875e+05 -1.0644157537656485e+08 
+3.5499999999999954e+00 -5.5187868161444820e-01 +7.2897171715692259e+00 +3.4493541378613375e+00 -1.3781391302953649e+00 +1.9663030849560877e+04 -3.3419618744799367e+05 -1.0622025270576751e+08 
+3.5999999999999952e+00 -5.5190272678589769e-01 +7.2909591058249852e+00 +3.4241289894339570e+00 -5.1718126575598622e-01 +1.9634523109808335e+04 -3.3822793133693835e+05 -1.0601635527761409e+08 
+3.6499999999999950e+00 -5.5192705209086279e-01 +7.2922148997702161e+00 +3.3986240779565695e+00 +3.2778178343010639e-01 +1.9608402904244573e+04 -3.4217674102936807e+05 -1.0583093018656647e+08 
+3.6999999999999948e+00 -5.5195165542573899e-01 +7.2934844892098845e+00 +3.3728392481059863e+00 +1.1539260052829032e+00 +1.9584820389294378e+04 -3.4602484657000430e+05 -1.0566502475722337e+08 
+3.7499999999999947e+00 -5.5197653468695007e-01 +7.2947678099535747e+00 +3.3467743474752973e+00 +1.9584271879966366e+00 +1.9563925661796977e+04 -3.4975447629393300e+05 -1.0551968598925924e+08 
+3.7999999999999945e+00 -5.5200168777089820e-01 +7.2960647978038260e+00 +3.3204292192146965e+00 +2.7384613926275305e+00 +1.9545868934622606e+04 -3.5334786071442597e+05 -1.0539596164971942e+08 
+3.8499999999999943e+00 -5.5202711257403703e-01 +7.2973753885699315e+00 +3.2938037136383560e+00 +3.4912044075321846e+00 +1.9530800241077119e+04 -3.5678722809951531e+05 -1.0529489834320557e+08 
+3.8999999999999941e+00 -5.5205280699278736e-01 +7.2986995180590171e+00 +3.2668976751546581e+00 +4.2138320899346660e+00 +1.9518869770632973e+04 -3.6005480720569752e+05 -1.0521754372018160e+08 
+3.9499999999999940e+00 -5.5207876892362495e-01 +7.3000371220770610e+00 +3.2397109557586572e+00 +4.9035203275830295e+00 +1.9510227523151974e+04 -3.6313282694640744e+05 -1.0516494420608549e+08 
+3.9999999999999938e+00 -5.5210499626298881e-01 +7.3013881364315694e+00 +3.2122434006552671e+00 +5.5574449516692059e+00 +1.9505023682442625e+04 -3.6600351576801215e+05 -1.0513814746947524e+08 
+4.0499999999999936e+00 -5.5213148680187918e-01 +7.3027524722620640e+00 +3.1844967233904220e+00 +6.1734158522217220e+00 +1.9503347409958751e+04 -3.6865304224086128e+05 -1.0513777842977178e+08 
+4.0999999999999934e+00 -5.5215823790906637e-01 +7.3041299342459389e+00 +3.1564813906249212e+00 +6.7518609980782349e+00 +1.9505011827568440e+04 -3.7108388407454791e+05 -1.0516257358604191e+08 
+4.1499999999999932e+00 -5.5218524684774850e-01 +7.3055202984377381e+00 +3.1282104179787606e+00 +7.2938840843695019e+00 +1.9509752398880562e+04 -3.7330273644956684e+05 -1.0521074359274411e+08 
+4.1999999999999931e+00 -5.5221251088110268e-01 +7.3069233408889742e+00 +3.0996968184150386e+00 +7.8005889432785525e+00 +1.9517304651487360e+04 -3.7531629580394883e+05 -1.0528049950758313e+08 
+4.2499999999999929e+00 -5.5224002727233423e-01 +7.3083388376539942e+00 +3.0709536089048122e+00 +8.2730792798080781e+00 +1.9527404008597070e+04 -3.7713125749522127e+05 -1.0537005169197965e+08 
+4.2999999999999927e+00 -5.5226779328462450e-01 +7.3097665647842138e+00 +3.0419938020452366e+00 +8.7124589351123856e+00 +1.9539786012073855e+04 -3.7875431808506604e+05 -1.0547761131637007e+08 
+4.3499999999999925e+00 -5.5229580618116569e-01 +7.3112062983296218e+00 +3.0128304128483721e+00 +9.1198318008940156e+00 +1.9554186130396567e+04 -3.8019217453111534e+05 -1.0560138901966633e+08 
+4.3999999999999924e+00 -5.5232406322515337e-01 +7.3126578143440781e+00 +2.9834764563457647e+00 +9.4963016272505616e+00 +1.9570339835214807e+04 -3.8145152271148568e+05 -1.0573959547650047e+08 
+4.4499999999999922e+00 -5.5235256167977365e-01 +7.3141208888749603e+00 +2.9539449459230580e+00 +9.8429724118331006e+00 +1.9587982641307924e+04 -3.8253906049857475e+05 -1.0589044164751028e+08 
+4.4999999999999920e+00 -5.5238129880823139e-01 +7.3155952979745020e+00 +2.9242488987443989e+00 +1.0160947980301822e+01 +1.9606849956474045e+04 -3.8346148447120422e+05 -1.0605213775214960e+08 
+4.5499999999999918e+00 -5.5241027187368652e-01 +7.3170808176891660e+00 +2.8944013237162101e+00 +1.0451332381567852e+01 +1.9626677413186771e+04 -3.8422549302891566e+05 -1.0622289553250897e+08 
+4.5999999999999917e+00 -5.5243947813935379e-01 +7.3185772240681652e+00 +2.8644152397312888e+00 +1.0715229560400735e+01 +1.9647200371529019e+04 -3.8483778376076103e+05 -1.0640092488004276e+08 
+4.6499999999999915e+00 -5.5246891486840211e-01 +7.3200842931589749e+00 +2.8343036577544289e+00 +1.0953743536186289e+01 +1.9668154403647550e+04 -3.8530505492215988e+05 -1.0658443711017175e+08 
+4.6999999999999913e+00 -5.5249857932402846e-01 +7.3216018010089972e+00 +2.8040795942234453e+00 +1.1167978334274075e+01 +1.9689274931185093e+04 -3.8563400485786097e+05 -1.0677164251144463e+08 
+4.7499999999999911e+00 -5.5252846876940087e-01 +7.3231295236643650e+00 +2.7737560605334353e+00 +1.1359038024439354e+01 +1.9710297509718090e+04 -3.8583133228462870e+05 -1.0696075226600730e+08 
+4.7999999999999909e+00 -5.5255858046771200e-01 +7.3246672371714281e+00 +2.7433460727483072e+00 +1.1528026682306320e+01 +1.9730957570537521e+04 -3.8590373605573812e+05 -1.0714997672527428e+08 
+4.8499999999999908e+00 -5.5258891168212732e-01 +7.3262147175698882e+00 +2.7128626423974631e+00 +1.1676048664108006e+01 +1.9750990663850811e+04 -3.8585791740703594e+05 -1.0733752702906553e+08 
+4.8999999999999906e+00 -5.5261945967582304e-01 +7.3277717409093812e+00 +2.6823187840529656e+00 +1.1804207893948854e+01 +1.9770132250715600e+04 -3.8570057395262696e+05 -1.0752161368752010e+08 
+4.9499999999999904e+00 -5.5265022171196176e-01 +7.3293380832275394e+00 +2.6517275096262276e+00 +1.1913608816708637e+01 +1.9788117867897381e+04 -3.8543840775598097e+05 -1.0770044773549432e+08 
+4.9999999999999902e+00 -5.5268119505371438e-01 +7.3309135205716860e+00 +2.6211018334625042e+00 +1.2005355469241454e+01 +1.9804682981988881e+04 -3.8507811751517665e+05 -1.0787223971796769e+08 
+5.0499999999999901e+00 -5.5271237696424669e-01 +7.3324978289777301e+00 +2.5904547694442415e+00 +1.2080552357926516e+01 +1.9819563068962234e+04 -3.8462640584637341e+05 -1.0803520022870611e+08 
