# multipoles
# s[mm] polynom_b[n=0][T/m^n] polynom_b[n=1][T/m^n] polynom_b[n=2][T/m^n] polynom_b[n=3][T/m^n] polynom_b[n=4][T/m^n] polynom_b[n=5][T/m^n] polynom_b[n=6][T/m^n] 
+0.0000000000000000e+00 -5.2317864329631203e-01 +6.8814734711585865e+00 +5.0618398358018304e+00 -2.5527194390627425e+01 +5.0861507862683129e+03 -2.8239529888499383e+05 -3.1996445127766006e+07 
-5.0000000000000003e-02 -5.2317727296381522e-01 +6.8814753642387254e+00 +5.0581926950549310e+00 -2.5689629446096841e+01 +5.1257261049430626e+03 -2.8120758998508845e+05 -3.2164665012391437e+07 
-1.0000000000000001e-01 -5.2317626435206821e-01 +6.8814968425411518e+00 +5.0542853169317716e+00 -2.5854884162669315e+01 +5.1629075287542255e+03 -2.7993736906390759e+05 -3.2323734594072741e+07 
-1.5000000000000002e-01 -5.2317561678114055e-01 +6.8815378301892114e+00 +5.0501145987859601e+00 -2.6022170068842229e+01 +5.1978040335515334e+03 -2.7859125465567922e+05 -3.2474245123791408e+07 
-2.0000000000000001e-01 -5.2317532957114077e-01 +6.8815982513132123e+00 +5.0456774420650685e+00 -2.6190698964699447e+01 +5.2305244829445155e+03 -2.7717586301502329e+05 -3.2616787090634819e+07 
-2.5000000000000000e-01 -5.2317540204217439e-01 +6.8816780300354017e+00 +5.0409707446824550e+00 -2.6359682302757076e+01 +5.2611778356103296e+03 -2.7569781320469972e+05 -3.2751951625717517e+07 
-2.9999999999999999e-01 -5.2317583351438668e-01 +6.8817770904890461e+00 +5.0359914085340378e+00 -2.6528331951736618e+01 +5.2898729433516837e+03 -2.7416372089650272e+05 -3.2880329141056042e+07 
-3.4999999999999998e-01 -5.2317662330791626e-01 +6.8818953567999408e+00 +5.0307363313309432e+00 -2.6695859462072399e+01 +5.3167187729476809e+03 -2.7258020432525122e+05 -3.3002510837227613e+07 
-3.9999999999999997e-01 -5.2317777074293204e-01 +6.8820327530959320e+00 +5.0252024138875981e+00 -2.6861476444759923e+01 +5.3418241987955516e+03 -2.7095388121072319e+05 -3.3119087256859306e+07 
-4.4999999999999996e-01 -5.2317927513961449e-01 +6.8821892035082124e+00 +5.0193865553207822e+00 -2.7024394623905803e+01 +5.3652981517668159e+03 -2.6929136833772593e+05 -3.3230649369741920e+07 
-4.9999999999999994e-01 -5.2318113581816506e-01 +6.8823646321646121e+00 +5.0132856562267625e+00 -2.7183825558960145e+01 +5.3872495134998762e+03 -2.6759928383563604e+05 -3.3337787774344064e+07 
-5.4999999999999993e-01 -5.2318335209880173e-01 +6.8825589631957333e+00 +5.0068966169154354e+00 -2.7338980917291757e+01 +5.4077871785135876e+03 -2.6588424488183507e+05 -3.3441093180900123e+07 
-5.9999999999999998e-01 -5.2318592330174307e-01 +6.8827721207317296e+00 +5.0002163351451827e+00 -2.7489072308806893e+01 +5.4270201063978402e+03 -2.6415286917166796e+05 -3.3541156724662725e+07 
-6.5000000000000002e-01 -5.2318884874723826e-01 +6.8830040289046863e+00 +4.9932417112563678e+00 -2.7633311415958680e+01 +5.4450571879160761e+03 -2.6241177373078692e+05 -3.3638569080164492e+07 
-7.0000000000000007e-01 -5.2319212775555790e-01 +6.8832546118431956e+00 +4.9859696463974759e+00 -2.7770909747518644e+01 +5.4620072926839666e+03 -2.6066757703071044e+05 -3.3733920782340430e+07 
-7.5000000000000011e-01 -5.2319575964696841e-01 +6.8835237936825102e+00 +4.9783970386981844e+00 -2.7901079068758023e+01 +5.4779793667805834e+03 -2.5892689541425422e+05 -3.3827802866910771e+07 
-8.0000000000000016e-01 -5.2319974374176659e-01 +6.8838114985532401e+00 +4.9705207880369242e+00 -2.8023030936790807e+01 +5.4930823158389403e+03 -2.5719634689736916e+05 -3.3920806120225504e+07 
-8.5000000000000020e-01 -5.2320407936027058e-01 +6.8841176505865889e+00 +4.9623377960353130e+00 -2.8135976904745046e+01 +5.5074249918159649e+03 -2.5548254955142073e+05 -3.4013520942798793e+07 
-9.0000000000000024e-01 -5.2320876582277487e-01 +6.8844421739186252e+00 +4.9538449572456669e+00 -2.8239128709496640e+01 +5.5211164369824919e+03 -2.5379211990433070e+05 -3.4106539019411013e+07 
-9.5000000000000029e-01 -5.2321380244963756e-01 +6.8847849926815217e+00 +4.9450391745342746e+00 -2.8331697910104857e+01 +5.5342654718014810e+03 -2.5213167592489385e+05 -3.4200450548107274e+07 
-1.0000000000000002e+00 -5.2321918856121719e-01 +6.8851460310099712e+00 +4.9359173482038985e+00 -2.8412896151441458e+01 +5.5469809846455610e+03 -2.5050783485894441e+05 -3.4295846180535249e+07 
-1.0500000000000003e+00 -5.2322492347786820e-01 +6.8855252130382611e+00 +4.9264763747542428e+00 -2.8481935028952396e+01 +5.5593719683278186e+03 -2.4892721438678043e+05 -3.4393317280724950e+07 
-1.1000000000000003e+00 -5.2323100651997101e-01 +6.8859224629007434e+00 +4.9167131537285416e+00 -2.8538026137928227e+01 +5.5715473222172068e+03 -2.4739643212412146e+05 -3.4493454539784528e+07 
-1.1500000000000004e+00 -5.2323743700794312e-01 +6.8863377047354106e+00 +4.9066245873956511e+00 -2.8580381191904831e+01 +5.5836158843045487e+03 -2.4592210474557898e+05 -3.4596848281442732e+07 
-1.2000000000000004e+00 -5.2324421426218015e-01 +6.8867708626765065e+00 +4.8962075717664684e+00 -2.8608211735668760e+01 +5.5956866558348529e+03 -2.4451085028103378e+05 -3.4704089910203457e+07 
-1.2500000000000004e+00 -5.2325133760310194e-01 +6.8872218608621081e+00 +4.8854590050636766e+00 -2.8620729453375652e+01 +5.6078685727939883e+03 -2.4316928560881678e+05 -3.4815770368673839e+07 
-1.3000000000000005e+00 -5.2325880635116240e-01 +6.8876906234265993e+00 +4.8743757881367369e+00 -2.8617145859455892e+01 +5.6202705080318447e+03 -2.4190402898528919e+05 -3.4932480203117646e+07 
-1.3500000000000005e+00 -5.2326661982680800e-01 +6.8881770745126127e+00 +4.8629548180844875e+00 -2.8596672783486152e+01 +5.6330014309896660e+03 -2.4072169608348189e+05 -3.5054810594091564e+07 
-1.4000000000000006e+00 -5.2327477735051064e-01 +6.8886811382542463e+00 +4.8511929944944621e+00 -2.8558521689382538e+01 +5.6461702397257186e+03 -2.3962890556978062e+05 -3.5183352225404307e+07 
-1.4500000000000006e+00 -5.2328327824275422e-01 +6.8892027387915977e+00 +4.8390872157083562e+00 -2.8501904268288548e+01 +5.6598858723922576e+03 -2.3863227423029282e+05 -3.5318696075536244e+07 
-1.5000000000000007e+00 -5.2329212182403095e-01 +6.8897418002643809e+00 +4.8266343793962534e+00 -2.8426032179994600e+01 +5.6742572770351044e+03 -2.3773841909125246e+05 -3.5461433156523794e+07 
-1.5500000000000007e+00 -5.2330130741485681e-01 +6.8902982468133223e+00 +4.8138313848592666e+00 -2.8330117103520980e+01 +5.6893933618237179e+03 -2.3695395703713744e+05 -3.5612154229439728e+07 
-1.6000000000000008e+00 -5.2331083433574466e-01 +6.8908720025770780e+00 +4.8006751281361115e+00 -2.8213370614839370e+01 +5.7054031203590521e+03 -2.3628550578900578e+05 -3.5771450620597005e+07 
-1.6500000000000008e+00 -5.2332070190724389e-01 +6.8914629916962502e+00 +4.7871625092453405e+00 -2.8075004361536489e+01 +5.7223954382256179e+03 -2.3573968243835133e+05 -3.5939912923430033e+07 
-1.7000000000000008e+00 -5.2333090944988958e-01 +6.8920711383142725e+00 +4.7732904234376035e+00 -2.7914230078161584e+01 +5.7404793276843757e+03 -2.3532310340381434e+05 -3.6118132582036287e+07 
-1.7500000000000009e+00 -5.2334145628425977e-01 +6.8926963665730234e+00 +4.7590557702339140e+00 -2.7730259423452331e+01 +5.7597636894342631e+03 -2.3504238570209302e+05 -3.6306700295447268e+07 
-1.8000000000000009e+00 -5.2335234173092404e-01 +6.8933386006158015e+00 +4.7444554465928581e+00 -2.7522304095537205e+01 +5.7803574821401508e+03 -2.3490414602625143e+05 -3.6506207115584694e+07 
-1.8500000000000010e+00 -5.2336356511047610e-01 +6.8939977645831174e+00 +4.7294863497738806e+00 -2.7289575663231922e+01 +5.8023696680694993e+03 -2.3491500212003122e+05 -3.6717244160247616e+07 
-1.9000000000000010e+00 -5.2337512574351142e-01 +6.8946737826213278e+00 +4.7141453757361216e+00 -2.7031285920585383e+01 +5.8259092352004582e+03 -2.3508156987419122e+05 -3.6940402684950590e+07 
-1.9500000000000011e+00 -5.2338702295064043e-01 +6.8953665788738396e+00 +4.6984294205067823e+00 -2.6746646520244006e+01 +5.8510851715456920e+03 -2.3541046634261654e+05 -3.7176273952562675e+07 
-2.0000000000000009e+00 -5.2339925605250881e-01 +6.8960760774863177e+00 +4.6823353839128758e+00 -2.6434869187596796e+01 +5.8780063597038716e+03 -2.3590830798978737e+05 -3.7425448499930322e+07 
-2.0500000000000007e+00 -5.2341182413457299e-01 +6.8968021969752700e+00 +4.6658615985114640e+00 -2.6095415881893935e+01 +5.9067444290249477e+03 -2.3657999350096579e+05 -3.7688285384363011e+07 
-2.1000000000000005e+00 -5.2342472534205498e-01 +6.8975448265469925e+00 +4.6490124107786235e+00 -2.5728740022123084e+01 +5.9372254439054050e+03 -2.3742359542022803e+05 -3.7964241124539979e+07 
-2.1500000000000004e+00 -5.2343795758525302e-01 +6.8983038463937358e+00 +4.6317937504644506e+00 -2.5335541635725654e+01 +5.9693399836438539e+03 -2.3843548753901475e+05 -3.8252552774341501e+07 
-2.2000000000000002e+00 -5.2345151877445040e-01 +6.8990791367046915e+00 +4.6142115423567205e+00 -2.4916520596819989e+01 +6.0029787600049312e+03 -2.3961204499387179e+05 -3.8552458268473849e+07 
-2.2500000000000000e+00 -5.2346540681996412e-01 +6.8998705776684552e+00 +4.5962717150987880e+00 -2.4472376753110506e+01 +6.0380323836185953e+03 -2.4094964307419551e+05 -3.8863194871778704e+07 
-2.2999999999999998e+00 -5.2347961963210299e-01 +6.9006780494766362e+00 +4.5779801942879095e+00 -2.4003810048366248e+01 +6.0743915449098504e+03 -2.4244465632668172e+05 -3.9184000379064076e+07 
-2.3499999999999996e+00 -5.2349415512120268e-01 +6.9015014323190931e+00 +4.5593429080194010e+00 -2.3511520339503068e+01 +6.1119468688510697e+03 -2.4409346001557310e+05 -3.9514112146512233e+07 
-2.3999999999999995e+00 -5.2350901119760407e-01 +6.9023406063871775e+00 +4.5403657830011337e+00 -2.2996207529886952e+01 +6.1505890210810348e+03 -2.4589242901906231e+05 -3.9852767817263477e+07 
-2.4499999999999993e+00 -5.2352418577165649e-01 +6.9031954518719711e+00 +4.5210547466345288e+00 -2.2458571492625243e+01 +6.1902086391962530e+03 -2.4783793848154703e+05 -4.0199204809161089e+07 
-2.4999999999999991e+00 -5.2353967675372226e-01 +6.9040658489656481e+00 +4.5014157257301584e+00 -2.1899312129122627e+01 +6.2306963874076237e+03 -2.4992636332175319e+05 -4.0552660758981168e+07 
-2.5499999999999989e+00 -5.2355548205417013e-01 +6.9049516778581630e+00 +4.4814546471177916e+00 -2.1319129238742722e+01 +6.2719429219474987e+03 -2.5215407928547551e+05 -4.0912373218650356e+07 
-2.5999999999999988e+00 -5.2357159958338095e-01 +6.9058528187436306e+00 +4.4611774375813233e+00 -2.0718722765393412e+01 +6.3138389060713935e+03 -2.5451746097652527e+05 -4.1277579810936399e+07 
-2.6499999999999986e+00 -5.2358802725174436e-01 +6.9067691518123633e+00 +4.4405900238630709e+00 -2.0098792490314299e+01 +6.3562750011905409e+03 -2.5701288431350386e+05 -4.1647518130786404e+07 
-2.6999999999999984e+00 -5.2360476296967151e-01 +6.9077005572578321e+00 +4.4196983348030532e+00 -1.9460038300871133e+01 +6.3991418133487632e+03 -2.5963672437308557e+05 -4.2021425403504148e+07 
-2.7499999999999982e+00 -5.2362180464756169e-01 +6.9086469152726808e+00 +4.3985082955584707e+00 -1.8803160041984228e+01 +6.4423300479668296e+03 -2.6238535657086951e+05 -4.2398539524776667e+07 
-2.7999999999999980e+00 -5.2363915019584462e-01 +6.9096081060487542e+00 +4.3770258348503361e+00 -1.8128857502107753e+01 +6.4857303159367830e+03 -2.6525515682677645e+05 -4.2778097755802631e+07 
-2.8499999999999979e+00 -5.2365679752493755e-01 +6.9105840097802593e+00 +4.3552568775099347e+00 -1.7437830549526510e+01 +6.5292333348502016e+03 -2.6824250042049109e+05 -4.3159338084304050e+07 
-2.8999999999999977e+00 -5.2367474454528506e-01 +6.9115745066595400e+00 +4.3332073519775696e+00 -1.6730778966654238e+01 +6.5727297207649526e+03 -2.7134376332981052e+05 -4.3541497792796329e+07 
-2.9499999999999975e+00 -5.2369298916733364e-01 +6.9125794768785882e+00 +4.3108831849835729e+00 -1.6008402508630404e+01 +6.6161101421736948e+03 -2.7455532175531826e+05 -4.3923814542056963e+07 
-2.9999999999999973e+00 -5.2371152930154885e-01 +6.9135988006343387e+00 +4.2882903055587303e+00 -1.5271401107496924e+01 +6.6592652011872160e+03 -2.7787355050515209e+05 -4.4305525524929106e+07 
-3.0499999999999972e+00 -5.2373036285837404e-01 +6.9146323581187081e+00 +4.2654346373668481e+00 -1.4520474481126488e+01 +6.7020856472190917e+03 -2.8129482613004738e+05 -4.4685868939694032e+07 
-3.0999999999999970e+00 -5.2374948774829988e-01 +6.9156800295236458e+00 +4.2423221105111031e+00 -1.3756322329301755e+01 +6.7444620580918445e+03 -2.8481552536762017e+05 -4.5064081827667132e+07 
-3.1499999999999968e+00 -5.2376890188181036e-01 +6.9167416950449869e+00 +4.2189586529145107e+00 -1.2979644496267813e+01 +6.7862850702011110e+03 -2.8843202377955971e+05 -4.5439401627404206e+07 
-3.1999999999999966e+00 -5.2378860316938058e-01 +6.9178172348768827e+00 +4.1953501893561125e+00 -1.2191140747486807e+01 +6.8274454047858308e+03 -2.9214069757483539e+05 -4.5811066344171852e+07 
-3.2499999999999964e+00 -5.2380858952151277e-01 +6.9189065292123821e+00 +4.1715026482487794e+00 -1.1391510781858917e+01 +6.8678336854837644e+03 -2.9593792355189391e+05 -4.6178313326953337e+07 
-3.2999999999999963e+00 -5.2382885884870778e-01 +6.9200094582459206e+00 +4.1474219562359380e+00 -1.0581454342743962e+01 +6.9073405872697958e+03 -2.9982007815124071e+05 -4.6540380282136984e+07 
-3.3499999999999961e+00 -5.2384940906148891e-01 +6.9211259021723501e+00 +4.1231140426127038e+00 -9.7616711745894182e+00 +6.9458567133564011e+03 -3.0378353783698269e+05 -4.6896504427878425e+07 
-3.3999999999999959e+00 -5.2387023807037070e-01 +6.9222557411861798e+00 +4.0985848341332760e+00 -8.9328609945922768e+00 +6.9832727348698563e+03 -3.0782467930594931e+05 -4.7245923436454020e+07 
-3.4499999999999957e+00 -5.2389134378587932e-01 +6.9233988554809835e+00 +4.0738402583811775e+00 -8.0957234614595794e+00 +7.0194793006153059e+03 -3.1193987977416575e+05 -4.7587874827041194e+07 
-3.4999999999999956e+00 -5.2391272411854606e-01 +6.9245551252520938e+00 +4.0488862426051853e+00 -7.2509583015548795e+00 +7.0543670726377777e+03 -3.1612551589510241e+05 -4.7921596224392414e+07 
-3.5499999999999954e+00 -5.2393437697892509e-01 +6.9257244306913774e+00 +4.0237287162785673e+00 -6.3992650737290404e+00 +7.0878266559699305e+03 -3.2037796576319903e+05 -4.8246324871629030e+07 
-3.5999999999999952e+00 -5.2395630027754514e-01 +6.9269066519962799e+00 +3.9983736045489517e+00 -5.5413435610048500e+00 +7.1197487670564951e+03 -3.2469360560706985e+05 -4.8561298749547482e+07 
-3.6499999999999950e+00 -5.2397849192497703e-01 +6.9281016693604451e+00 +3.9728268380455716e+00 -4.6778933658001263e+00 +7.1500239777632260e+03 -3.2906881321990624e+05 -4.8865754864515394e+07 
-3.6999999999999948e+00 -5.2400094983177581e-01 +6.9293093629784339e+00 +3.9470943437883244e+00 -3.8096141207975664e+00 +7.1785429614978157e+03 -3.3349996613117616e+05 -4.9158930928161539e+07 
-3.7499999999999947e+00 -5.2402367190850718e-01 +6.9305296130444436e+00 +3.9211820493294671e+00 -2.9372054294843553e+00 +7.2051963779581893e+03 -3.3798344215022417e+05 -4.9440064555676863e+07 
-3.7999999999999945e+00 -5.2404665606574852e-01 +6.9317622997526511e+00 +3.8950958838886676e+00 -2.0613668822389970e+00 +7.2298748410035923e+03 -3.4251561920338316e+05 -4.9708393048289992e+07 
-3.8499999999999943e+00 -5.2406990021407751e-01 +6.9330073032974280e+00 +3.8688417756131042e+00 -1.1827980564545451e+00 +7.2524689930278410e+03 -3.4709287538446329e+05 -4.9963153896027274e+07 
-3.8999999999999941e+00 -5.2409340226407919e-01 +6.9342645038735897e+00 +3.8424256527086587e+00 -3.0219853964718968e-01 +7.2728694817871537e+03 -3.5171158871371526e+05 -5.0203584647168241e+07 
-3.9499999999999940e+00 -5.2411716012635112e-01 +6.9355337816758968e+00 +3.8158534450420056e+00 +5.7973210076914861e-01 +7.2909669072821771e+03 -3.5636813741811516e+05 -5.0428922514597349e+07 
-3.9999999999999938e+00 -5.2414117171147789e-01 +6.9368150168971052e+00 +3.7891310791030857e+00 +1.4622943893620746e+00 +7.3066519648174008e+03 -3.6105890045165276e+05 -5.0638405362919889e+07 
-4.0499999999999936e+00 -5.2416543485994938e-01 +6.9381080812677851e+00 +3.7622638757973061e+00 +2.3448377157720071e+00 +7.3198478549888559e+03 -3.6578007656544604e+05 -5.0831470327221185e+07 
-4.0999999999999934e+00 -5.2418994713179368e-01 +6.9394128099133248e+00 +3.7352551879877720e+00 +3.2268519176150292e+00 +7.3306059275794987e+03 -3.7052706729630003e+05 -5.1008363987219743e+07 
-4.1499999999999932e+00 -5.2421470601691733e-01 +6.9407290281284766e+00 +3.7081080011057863e+00 +4.1078460623042599e+00 +7.3390092424701515e+03 -3.7529504165667092e+05 -5.1169538408583812e+07 
-4.1999999999999931e+00 -5.2423970900522632e-01 +6.9420565612079317e+00 +3.6808253004821645e+00 +4.9873292129578912e+00 +7.3451408593284614e+03 -3.8007916873108339e+05 -5.1315445636889562e+07 
-4.2499999999999929e+00 -5.2426495358663638e-01 +6.9433952344469736e+00 +3.6534100726922216e+00 +5.8648103843320456e+00 +7.3490838077052367e+03 -3.8487461715593177e+05 -5.1446537529623941e+07 
-4.2999999999999927e+00 -5.2429043725107394e-01 +6.9447448731413308e+00 +3.6258653057327588e+00 +6.7397985788892596e+00 +7.3509210807080099e+03 -3.8967655553960544e+05 -5.1563265706954338e+07 
-4.3499999999999925e+00 -5.2431615748843541e-01 +6.9461053025861794e+00 +3.5981939829991814e+00 +7.6118028021692297e+00 +7.3507357901663836e+03 -3.9448015249583736e+05 -5.1666082575658754e+07 
-4.3999999999999924e+00 -5.2434211178865187e-01 +6.9474763480761279e+00 +3.5703990929880933e+00 +8.4803320778235793e+00 +7.3486109166004780e+03 -3.9928057681613375e+05 -5.1755439678522468e+07 
-4.4499999999999922e+00 -5.2436829764163440e-01 +6.9488578349049348e+00 +3.5424836209595427e+00 +9.3448954386844889e+00 +7.3446295255954801e+03 -4.0407299732956488e+05 -5.1831789129221395e+07 
-4.4999999999999920e+00 -5.2439471253730696e-01 +6.9502495883700366e+00 +3.5144505545905651e+00 +1.0205001770957024e+01 +7.3388746173982163e+03 -4.0885258173234330e+05 -5.1895582601359136e+07 
-4.5499999999999918e+00 -5.2442135396558698e-01 +6.9516514337641420e+00 +3.4863028803816678e+00 +1.1060160129587514e+01 +7.3314292238080516e+03 -4.1361449908010656e+05 -5.1947271984168082e+07 
-4.5999999999999917e+00 -5.2444821941639586e-01 +6.9530631963832139e+00 +3.4580435857431460e+00 +1.1909879425033839e+01 +7.3223763527321453e+03 -4.1835391726332734e+05 -5.1987309012596585e+07 
-4.6499999999999915e+00 -5.2447530637965989e-01 +6.9544847015221372e+00 +3.4296756585067545e+00 +1.2753668598027492e+01 +7.3117990035918829e+03 -4.2306600443289656e+05 -5.2016145373633176e+07 
-4.6999999999999913e+00 -5.2450261234528917e-01 +6.9559157744756286e+00 +3.4012020845540665e+00 +1.3591036575174448e+01 +7.2997802241794916e+03 -4.2774592861735000e+05 -5.2034233072895974e+07 
-4.7499999999999911e+00 -5.2453013480321375e-01 +6.9573562405372913e+00 +3.3726258528982620e+00 +1.4421492316345040e+01 +7.2864029817918290e+03 -4.3238885814657999e+05 -5.2042023586506374e+07 
-4.7999999999999909e+00 -5.2455787124334818e-01 +6.9588059250026699e+00 +3.3439499507310972e+00 +1.5244544686424257e+01 +7.2717502902692086e+03 -4.3698996058748511e+05 -5.2039968702631474e+07 
-4.8499999999999908e+00 -5.2458581915561864e-01 +6.9602646531670134e+00 +3.3151773668665845e+00 +1.6059702538201869e+01 +7.2559051246167892e+03 -4.4154440339700331e+05 -5.2028519966184050e+07 
-4.8999999999999906e+00 -5.2461397602993187e-01 +6.9617322503233883e+00 +3.2863110877914727e+00 +1.6866474796136902e+01 +7.2389505155113247e+03 -4.4604735463928676e+05 -5.2008129275573917e+07 
-4.9499999999999904e+00 -5.2464233935622340e-01 +6.9632085417658507e+00 +3.2573541050066543e+00 +1.7664370327090513e+01 +7.2209693646166306e+03 -4.5049398191597970e+05 -5.1979247685258120e+07 
-4.9999999999999902e+00 -5.2467090662439220e-01 +6.9646933527891131e+00 +3.2283094039924536e+00 +1.8452897949400022e+01 +7.2020447355574834e+03 -4.5487945244765509e+05 -5.1942327344902106e+07 
-5.0499999999999901e+00 -5.2469967532435835e-01 +6.9661865086882404e+00 +3.1991799749230529e+00 +1.9231566447022018e+01 +7.1822595618136229e+03 -4.5919893318871508e+05 -5.1897819516036622e+07 
