# field on trajectory
# s[mm] rx[mm] ry[mm] rz[mm] bx[T] by[T] bz[T]
0.0000000000000000e+00 +8.5389999999999997e+00 +0.0000000000000000e+00 +0.0000000000000000e+00 -2.8408355531642702e-02 -5.5180166171262646e-01 +5.2591564002031363e-03
5.0000000000000003e-02 +8.5389999311488172e+00 +0.0000000000000000e+00 +4.9999999999936789e-02 -2.8408769742313253e-02 -5.5180133872341586e-01 +5.2582086528650211e-03
1.0000000000000001e-01 +8.5389997245953051e+00 +0.0000000000000000e+00 +9.9999999999494341e-02 -2.8409205641319737e-02 -5.5180141743379152e-01 +5.2572680968936024e-03
1.5000000000000002e-01 +8.5389993803394439e+00 +0.0000000000000000e+00 +1.4999999999829342e-01 -2.8409663269695736e-02 -5.5180189701651061e-01 +5.2563348089350219e-03
2.0000000000000001e-01 +8.5389988983811129e+00 +0.0000000000000000e+00 +1.9999999999595477e-01 -2.8410142668476124e-02 -5.5180277664434985e-01 +5.2554088656357502e-03
2.5000000000000000e-01 +8.5389982787200935e+00 +0.0000000000000000e+00 +2.4999999999209918e-01 -2.8410643878697017e-02 -5.5180405549010492e-01 +5.2544903436426045e-03
2.9999999999999999e-01 +8.5389975213560678e+00 +0.0000000000000000e+00 +2.9999999998634735e-01 -2.8411166941395786e-02 -5.5180573272659061e-01 +5.2535793196027440e-03
3.4999999999999998e-01 +8.5389966262886148e+00 +0.0000000000000000e+00 +3.4999999997832010e-01 -2.8411711897611002e-02 -5.5180780752663927e-01 +5.2526758701636842e-03
3.9999999999999997e-01 +8.5389955935172193e+00 +0.0000000000000000e+00 +3.9999999996763813e-01 -2.8412278788382480e-02 -5.5181027906310265e-01 +5.2517800719733129e-03
4.4999999999999996e-01 +8.5389944230412631e+00 +0.0000000000000000e+00 +4.4999999995392220e-01 -2.8412867654751171e-02 -5.5181314650885160e-01 +5.2508920016798950e-03
4.9999999999999994e-01 +8.5389931148600304e+00 +0.0000000000000000e+00 +4.9999999993679300e-01 -2.8413478537759163e-02 -5.5181640903677343e-01 +5.2500117359320815e-03
5.4999999999999993e-01 +8.5389916689727077e+00 +0.0000000000000000e+00 +5.4999999991587134e-01 -2.8414111478449720e-02 -5.5182006581977616e-01 +5.2491393513789276e-03
5.9999999999999998e-01 +8.5389900853783818e+00 +0.0000000000000000e+00 +5.9999999989077779e-01 -2.8414766517867149e-02 -5.5182411603078418e-01 +5.2482749246698891e-03
6.5000000000000002e-01 +8.5389883640760438e+00 +0.0000000000000000e+00 +6.4999999986113322e-01 -2.8415443697056841e-02 -5.5182855884274074e-01 +5.2474185324548443e-03
7.0000000000000007e-01 +8.5389865050645835e+00 +0.0000000000000000e+00 +6.9999999982655814e-01 -2.8416143057065274e-02 -5.5183339342860671e-01 +5.2465702513840992e-03
7.5000000000000011e-01 +8.5389845083427947e+00 +0.0000000000000000e+00 +7.4999999978667331e-01 -2.8416864638939908e-02 -5.5183861896136044e-01 +5.2457301581083950e-03
8.0000000000000016e-01 +8.5389823739093735e+00 +0.0000000000000000e+00 +7.9999999974109948e-01 -2.8417608483729238e-02 -5.5184423461399945e-01 +5.2448983292789266e-03
8.5000000000000020e-01 +8.5389801017629186e+00 +0.0000000000000000e+00 +8.4999999968945716e-01 -2.8418374632482708e-02 -5.5185023955953738e-01 +5.2440748415473366e-03
9.0000000000000024e-01 +8.5389776919019305e+00 +0.0000000000000000e+00 +8.9999999963136701e-01 -2.8419163126250736e-02 -5.5185663297100607e-01 +5.2432597715657446e-03
9.5000000000000029e-01 +8.5389751443248159e+00 +0.0000000000000000e+00 +9.4999999956644965e-01 -2.8419974006084672e-02 -5.5186341402145489e-01 +5.2424531959867461e-03
1.0000000000000002e+00 +8.5389724590298801e+00 +0.0000000000000000e+00 +9.9999999949432572e-01 -2.8420807313036745e-02 -5.5187058188395044e-01 +5.2416551914634237e-03
1.0500000000000003e+00 +8.5389696360153362e+00 +0.0000000000000000e+00 +1.0499999994146159e+00 -2.8421663088160087e-02 -5.5187813573157596e-01 +5.2408658346493530e-03
1.1000000000000003e+00 +8.5389666752792976e+00 +0.0000000000000000e+00 +1.0999999993269405e+00 -2.8422541372508669e-02 -5.5188607473743279e-01 +5.2400852021986235e-03
1.1500000000000004e+00 +8.5389635768197856e+00 +0.0000000000000000e+00 +1.1499999992309202e+00 -2.8423442207137314e-02 -5.5189439807463869e-01 +5.2393133707658423e-03
1.2000000000000004e+00 +8.5389603406347216e+00 +0.0000000000000000e+00 +1.1999999991261754e+00 -2.8424365633101644e-02 -5.5190310491632866e-01 +5.2385504170061334e-03
1.2500000000000004e+00 +8.5389569667219334e+00 +0.0000000000000000e+00 +1.2499999990123267e+00 -2.8425311691458045e-02 -5.5191219443565387e-01 +5.2377964175751735e-03
1.3000000000000005e+00 +8.5389534550791524e+00 +0.0000000000000000e+00 +1.2999999988889945e+00 -2.8426280423263697e-02 -5.5192166580578261e-01 +5.2370514491291787e-03
1.3500000000000005e+00 +8.5389498057040143e+00 +0.0000000000000000e+00 +1.3499999987557993e+00 -2.8427271869576495e-02 -5.5193151819990038e-01 +5.2363155883249227e-03
1.4000000000000006e+00 +8.5389460185940607e+00 +0.0000000000000000e+00 +1.3999999986123615e+00 -2.8428286071455033e-02 -5.5194175079120766e-01 +5.2355889118197432e-03
1.4500000000000006e+00 +8.5389420937467388e+00 +0.0000000000000000e+00 +1.4499999984583014e+00 -2.8429323069958597e-02 -5.5195236275292281e-01 +5.2348714962715615e-03
1.5000000000000007e+00 +8.5389380311594003e+00 +0.0000000000000000e+00 +1.4999999982932395e+00 -2.8430382906147186e-02 -5.5196335325827950e-01 +5.2341634183388861e-03
1.5500000000000007e+00 +8.5389338308293024e+00 +0.0000000000000000e+00 +1.5499999981167960e+00 -2.8431465621081339e-02 -5.5197472148052795e-01 +5.2334647546808171e-03
1.6000000000000008e+00 +8.5389294927536081e+00 +0.0000000000000000e+00 +1.5999999979285913e+00 -2.8432571255822270e-02 -5.5198646659293449e-01 +5.2327755819570661e-03
1.6500000000000008e+00 +8.5389250169293867e+00 +0.0000000000000000e+00 +1.6499999977282453e+00 -2.8433699851431803e-02 -5.5199858776878130e-01 +5.2320959768279596e-03
1.7000000000000008e+00 +8.5389204033536128e+00 +0.0000000000000000e+00 +1.6999999975153788e+00 -2.8434851448972277e-02 -5.5201108418136657e-01 +5.2314260159544513e-03
1.7500000000000009e+00 +8.5389156520231690e+00 +0.0000000000000000e+00 +1.7499999972896116e+00 -2.8436026089506579e-02 -5.5202395500400370e-01 +5.2307657759981330e-03
1.8000000000000009e+00 +8.5389107629348420e+00 +0.0000000000000000e+00 +1.7999999970505640e+00 -2.8437223814098148e-02 -5.5203719941002261e-01 +5.2301153336212465e-03
1.8500000000000010e+00 +8.5389057360853275e+00 +0.0000000000000000e+00 +1.8499999967978560e+00 -2.8438444663810878e-02 -5.5205081657276789e-01 +5.2294747654866840e-03
1.9000000000000010e+00 +8.5389005714712276e+00 +0.0000000000000000e+00 +1.8999999965311078e+00 -2.8439688679709148e-02 -5.5206480566560034e-01 +5.2288441482580099e-03
1.9500000000000011e+00 +8.5388952690890516e+00 +0.0000000000000000e+00 +1.9499999962499395e+00 -2.8440955902857765e-02 -5.5207916586189543e-01 +5.2282235585994607e-03
2.0000000000000009e+00 +8.5388898289352166e+00 +0.0000000000000000e+00 +1.9999999959539709e+00 -2.8442246374321981e-02 -5.5209389633504402e-01 +5.2276130731759652e-03
2.0500000000000007e+00 +8.5388842510060456e+00 +0.0000000000000000e+00 +2.0499999956428221e+00 -2.8443560102780156e-02 -5.5210899602342867e-01 +5.2270127573134139e-03
2.1000000000000005e+00 +8.5388785352977710e+00 +0.0000000000000000e+00 +2.0999999953161130e+00 -2.8444896967362191e-02 -5.5212446292535089e-01 +5.2264226309794029e-03
2.1500000000000004e+00 +8.5388726818065326e+00 +0.0000000000000000e+00 +2.1499999949734634e+00 -2.8446256814811447e-02 -5.5214029480410065e-01 +5.2258427028022735e-03
2.2000000000000002e+00 +8.5388666905283799e+00 +0.0000000000000000e+00 +2.1999999946144935e+00 -2.8447639491872075e-02 -5.5215648942298046e-01 +5.2252729814108410e-03
2.2500000000000000e+00 +8.5388605614592699e+00 +0.0000000000000000e+00 +2.2499999942388227e+00 -2.8449044845288970e-02 -5.5217304454530403e-01 +5.2247134754343713e-03
2.2999999999999998e+00 +8.5388542945950743e+00 +0.0000000000000000e+00 +2.2999999938460709e+00 -2.8450472721807871e-02 -5.5218995793439662e-01 +5.2241641935025932e-03
2.3499999999999996e+00 +8.5388478899315707e+00 +0.0000000000000000e+00 +2.3499999934358580e+00 -2.8451922968175249e-02 -5.5220722735359540e-01 +5.2236251442456848e-03
2.3999999999999995e+00 +8.5388413474644498e+00 +0.0000000000000000e+00 +2.3999999930078033e+00 -2.8453395431138399e-02 -5.5222485056624770e-01 +5.2230963362942667e-03
2.4499999999999993e+00 +8.5388346671893149e+00 +0.0000000000000000e+00 +2.4499999925615268e+00 -2.8454889957445360e-02 -5.5224282533571267e-01 +5.2225777782794105e-03
2.4999999999999991e+00 +8.5388278491016791e+00 +0.0000000000000000e+00 +2.4999999920966478e+00 -2.8456406393844988e-02 -5.5226114942535842e-01 +5.2220694788326126e-03
2.5499999999999989e+00 +8.5388208931969700e+00 +0.0000000000000000e+00 +2.5499999916127858e+00 -2.8457944587086937e-02 -5.5227982059856506e-01 +5.2215714465858164e-03
2.5999999999999988e+00 +8.5388137994705282e+00 +0.0000000000000000e+00 +2.5999999911095606e+00 -2.8459504383921610e-02 -5.5229883661872103e-01 +5.2210836901713806e-03
2.6499999999999986e+00 +8.5388065679176091e+00 +0.0000000000000000e+00 +2.6499999905865912e+00 -2.8461085631100228e-02 -5.5231819524922576e-01 +5.2206062182220941e-03
2.6999999999999984e+00 +8.5387991985333809e+00 +0.0000000000000000e+00 +2.6999999900434970e+00 -2.8462688175374791e-02 -5.5233789425348723e-01 +5.2201390393711612e-03
2.7499999999999982e+00 +8.5387916913129285e+00 +0.0000000000000000e+00 +2.7499999894798974e+00 -2.8464311863498109e-02 -5.5235793139492317e-01 +5.2196821622522080e-03
2.7999999999999980e+00 +8.5387840462512514e+00 +0.0000000000000000e+00 +2.7999999888954119e+00 -2.8465956542223766e-02 -5.5237830443695957e-01 +5.2192355954992619e-03
2.8499999999999979e+00 +8.5387762633432658e+00 +0.0000000000000000e+00 +2.8499999882896594e+00 -2.8467622058306146e-02 -5.5239901114303191e-01 +5.2187993477467555e-03
2.8999999999999977e+00 +8.5387683425838041e+00 +0.0000000000000000e+00 +2.8999999876622593e+00 -2.8469308258500439e-02 -5.5242004927658361e-01 +5.2183734276295326e-03
2.9499999999999975e+00 +8.5387602839676173e+00 +0.0000000000000000e+00 +2.9499999870128306e+00 -2.8471014989562612e-02 -5.5244141660106627e-01 +5.2179578437828202e-03
2.9999999999999973e+00 +8.5387520874893728e+00 +0.0000000000000000e+00 +2.9999999863409923e+00 -2.8472742098249439e-02 -5.5246311087993927e-01 +5.2175526048422417e-03
3.0499999999999972e+00 +8.5387437531436561e+00 +0.0000000000000000e+00 +3.0499999856463633e+00 -2.8474489431318504e-02 -5.5248512987666976e-01 +5.2171577194438101e-03
3.0999999999999970e+00 +8.5387352809249730e+00 +0.0000000000000000e+00 +3.0999999849285627e+00 -2.8476256835528183e-02 -5.5250747135473266e-01 +5.2167731962239174e-03
3.1499999999999968e+00 +8.5387266708277476e+00 +0.0000000000000000e+00 +3.1499999841872093e+00 -2.8478044157637637e-02 -5.5253013307760879e-01 +5.2163990438193327e-03
3.1999999999999966e+00 +8.5387179228463257e+00 +0.0000000000000000e+00 +3.1999999834219217e+00 -2.8479851244406842e-02 -5.5255311280878694e-01 +5.2160352708672001e-03
3.2499999999999964e+00 +8.5387090369749732e+00 +0.0000000000000000e+00 +3.2499999826323189e+00 -2.8481677942596598e-02 -5.5257640831176236e-01 +5.2156818860050330e-03
3.2999999999999963e+00 +8.5387000132078761e+00 +0.0000000000000000e+00 +3.2999999818180195e+00 -2.8483524098968482e-02 -5.5260001735003594e-01 +5.2153388978707048e-03
3.3499999999999961e+00 +8.5386908515391422e+00 +0.0000000000000000e+00 +3.3499999809786418e+00 -2.8485389560284877e-02 -5.5262393768711537e-01 +5.2150063151024531e-03
3.3999999999999959e+00 +8.5386815519628030e+00 +0.0000000000000000e+00 +3.3999999801138046e+00 -2.8487274173308975e-02 -5.5264816708651376e-01 +5.2146841463388679e-03
3.4499999999999957e+00 +8.5386721144728135e+00 +0.0000000000000000e+00 +3.4499999792231266e+00 -2.8489177784804798e-02 -5.5267270331174978e-01 +5.2143724002188859e-03
3.4999999999999956e+00 +8.5386625390630488e+00 +0.0000000000000000e+00 +3.4999999783062261e+00 -2.8491100241537150e-02 -5.5269754412634731e-01 +5.2140710853817952e-03
3.5499999999999954e+00 +8.5386528257273113e+00 +0.0000000000000000e+00 +3.5499999773627211e+00 -2.8493041390271649e-02 -5.5272268729383556e-01 +5.2137802104672221e-03
3.5999999999999952e+00 +8.5386429744593251e+00 +0.0000000000000000e+00 +3.5999999763922306e+00 -2.8495001077774747e-02 -5.5274813057774796e-01 +5.2134997841151295e-03
3.6499999999999950e+00 +8.5386329852527432e+00 +0.0000000000000000e+00 +3.6499999753943722e+00 -2.8496979150813676e-02 -5.5277387174162318e-01 +5.2132298149658125e-03
3.6999999999999948e+00 +8.5386228581011405e+00 +0.0000000000000000e+00 +3.6999999743687644e+00 -2.8498975456156483e-02 -5.5279990854900329e-01 +5.2129703116598905e-03
3.7499999999999947e+00 +8.5386125929980192e+00 +0.0000000000000000e+00 +3.7499999733150249e+00 -2.8500989840572089e-02 -5.5282623876343517e-01 +5.2127212828383127e-03
3.7999999999999945e+00 +8.5386021899368085e+00 +0.0000000000000000e+00 +3.7999999722327722e+00 -2.8503022150830136e-02 -5.5285286014846868e-01 +5.2124827371423394e-03
3.8499999999999943e+00 +8.5385916489108666e+00 +0.0000000000000000e+00 +3.8499999711216240e+00 -2.8505072233701145e-02 -5.5287977046765768e-01 +5.2122546832135469e-03
3.8999999999999941e+00 +8.5385809699134771e+00 +0.0000000000000000e+00 +3.8999999699811982e+00 -2.8507139935956455e-02 -5.5290696748455870e-01 +5.2120371296938191e-03
3.9499999999999940e+00 +8.5385701529378544e+00 +0.0000000000000000e+00 +3.9499999688111127e+00 -2.8509225104368197e-02 -5.5293444896273169e-01 +5.2118300852253500e-03
3.9999999999999938e+00 +8.5385591979771398e+00 +0.0000000000000000e+00 +3.9999999676109850e+00 -2.8511327585709349e-02 -5.5296221266573875e-01 +5.2116335584506228e-03
4.0499999999999936e+00 +8.5385481050244039e+00 +0.0000000000000000e+00 +4.0499999663804331e+00 -2.8513447215661410e-02 -5.5299025625154363e-01 +5.2114475514534681e-03
4.0999999999999934e+00 +8.5385368740726495e+00 +0.0000000000000000e+00 +4.0999999651190748e+00 -2.8515583785537341e-02 -5.5301857695570400e-01 +5.2112720400822373e-03
4.1499999999999932e+00 +8.5385255051148103e+00 +0.0000000000000000e+00 +4.1499999638265272e+00 -2.8517737075557961e-02 -5.5304717190817942e-01 +5.2111069936269343e-03
4.1999999999999931e+00 +8.5385139981437490e+00 +0.0000000000000000e+00 +4.1999999625024076e+00 -2.8519906865944224e-02 -5.5307603823893348e-01 +5.2109523813782376e-03
4.2499999999999929e+00 +8.5385023531522624e+00 +0.0000000000000000e+00 +4.2499999611463330e+00 -2.8522092936917189e-02 -5.5310517307793283e-01 +5.2108081726275025e-03
4.2999999999999927e+00 +8.5384905701330798e+00 +0.0000000000000000e+00 +4.2999999597579217e+00 -2.8524295068697983e-02 -5.5313457355514795e-01 +5.2106743366667832e-03
4.3499999999999925e+00 +8.5384786490788649e+00 +0.0000000000000000e+00 +4.3499999583367908e+00 -2.8526513041507804e-02 -5.5316423680055182e-01 +5.2105508427888166e-03
4.3999999999999924e+00 +8.5384665899822156e+00 +0.0000000000000000e+00 +4.3999999568825565e+00 -2.8528746635567891e-02 -5.5319415994412069e-01 +5.2104376602870508e-03
4.4499999999999922e+00 +8.5384543928356660e+00 +0.0000000000000000e+00 +4.4499999553948371e+00 -2.8530995631099496e-02 -5.5322434011583377e-01 +5.2103347584556347e-03
4.4999999999999920e+00 +8.5384420576316824e+00 +0.0000000000000000e+00 +4.4999999538732487e+00 -2.8533259808323889e-02 -5.5325477444567217e-01 +5.2102421065894407e-03
4.5499999999999918e+00 +8.5384295843626710e+00 +0.0000000000000000e+00 +4.5499999523174086e+00 -2.8535538947462333e-02 -5.5328546006361956e-01 +5.2101596739840567e-03
4.5999999999999917e+00 +8.5384169730209738e+00 +0.0000000000000000e+00 +4.5999999507269331e+00 -2.8537832828736016e-02 -5.5331639409966182e-01 +5.2100874299358061e-03
4.6499999999999915e+00 +8.5384042235988726e+00 +0.0000000000000000e+00 +4.6499999491014394e+00 -2.8540141232366100e-02 -5.5334757368378640e-01 +5.2100253437417469e-03
4.6999999999999913e+00 +8.5383913360885852e+00 +0.0000000000000000e+00 +4.6999999474405438e+00 -2.8542463938573667e-02 -5.5337899594598294e-01 +5.2099733846996815e-03
4.7499999999999911e+00 +8.5383783104822726e+00 +0.0000000000000000e+00 +4.7499999457438635e+00 -2.8544800727579703e-02 -5.5341065801624245e-01 +5.2099315221081641e-03
4.7999999999999909e+00 +8.5383651467720316e+00 +0.0000000000000000e+00 +4.7999999440110148e+00 -2.8547151379605066e-02 -5.5344255702455680e-01 +5.2098997252664984e-03
4.8499999999999908e+00 +8.5383518449499025e+00 +0.0000000000000000e+00 +4.8499999422416140e+00 -2.8549515674870501e-02 -5.5347469010091943e-01 +5.2098779634747669e-03
4.8999999999999906e+00 +8.5383384050078668e+00 +0.0000000000000000e+00 +4.8999999404352774e+00 -2.8551893393596584e-02 -5.5350705437532421e-01 +5.2098662060338112e-03
4.9499999999999904e+00 +8.5383248269378473e+00 +0.0000000000000000e+00 +4.9499999385916214e+00 -2.8554284316003719e-02 -5.5353964697776648e-01 +5.2098644222452620e-03
4.9999999999999902e+00 +8.5383111107317120e+00 +0.0000000000000000e+00 +4.9999999367102621e+00 -2.8556688222312117e-02 -5.5357246503824142e-01 +5.2098725814115222e-03
5.0499999999999901e+00 +8.5382972563812700e+00 +0.0000000000000000e+00 +5.0499999347908160e+00 -2.8559104892741775e-02 -5.5360550568674483e-01 +5.2098906528358063e-03
5.0999999999999899e+00 +8.5382832638782773e+00 +0.0000000000000000e+00 +5.0999999328328984e+00 -2.8561534107512457e-02 -5.5363876605327189e-01 +5.2099186058221069e-03
5.1499999999999897e+00 +8.5382691332144329e+00 +0.0000000000000000e+00 +5.1499999308361257e+00 -2.8563975646843688e-02 -5.5367224326781861e-01 +5.2099564096752390e-03
5.1999999999999895e+00 +8.5382548643813827e+00 +0.0000000000000000e+00 +5.1999999288001142e+00 -2.8566429290954692e-02 -5.5370593446038052e-01 +5.2100040337008267e-03
5.2499999999999893e+00 +8.5382404573707209e+00 +0.0000000000000000e+00 +5.2499999267244783e+00 -2.8568894820064410e-02 -5.5373983676095195e-01 +5.2100614472053103e-03
5.2999999999999892e+00 +8.5382259121739850e+00 +0.0000000000000000e+00 +5.2999999246088345e+00 -2.8571372014391500e-02 -5.5377394729952711e-01 +5.2101286194959646e-03
5.3499999999999890e+00 +8.5382112287826644e+00 +0.0000000000000000e+00 +5.3499999224527990e+00 -2.8573860654154237e-02 -5.5380826320609944e-01 +5.2102055198808951e-03
5.3999999999999888e+00 +8.5381964071881953e+00 +0.0000000000000000e+00 +5.3999999202559863e+00 -2.8576360519570597e-02 -5.5384278161066081e-01 +5.2102921176690464e-03
5.4499999999999886e+00 +8.5381814473819642e+00 +0.0000000000000000e+00 +5.4499999180180119e+00 -2.8578871390858143e-02 -5.5387749964320176e-01 +5.2103883821702172e-03
5.4999999999999885e+00 +8.5381663493553077e+00 +0.0000000000000000e+00 +5.4999999157384920e+00 -2.8581393048234083e-02 -5.5391241443371186e-01 +5.2104942826950613e-03
5.5499999999999883e+00 +8.5381511130995111e+00 +0.0000000000000000e+00 +5.5499999134170412e+00 -2.8583925271915181e-02 -5.5394752311217843e-01 +5.2106097885550890e-03
5.5999999999999881e+00 +8.5381357386058152e+00 +0.0000000000000000e+00 +5.5999999110532750e+00 -2.8586467842117776e-02 -5.5398282280858691e-01 +5.2107348690626828e-03
5.6499999999999879e+00 +8.5381202258654092e+00 +0.0000000000000000e+00 +5.6499999086468078e+00 -2.8589020539057784e-02 -5.5401831065292084e-01 +5.2108694935311074e-03
5.6999999999999877e+00 +8.5381045748694397e+00 +0.0000000000000000e+00 +5.6999999061972551e+00 -2.8591583142950634e-02 -5.5405398377516157e-01 +5.2110136312745062e-03
5.7499999999999876e+00 +8.5380887856090020e+00 +0.0000000000000000e+00 +5.7499999037042313e+00 -2.8594155434011254e-02 -5.5408983930528732e-01 +5.2111672516079090e-03
5.7999999999999874e+00 +8.5380728580751502e+00 +0.0000000000000000e+00 +5.7999999011673520e+00 -2.8596737192454081e-02 -5.5412587437327432e-01 +5.2113303238472504e-03
5.8499999999999872e+00 +8.5380567922588924e+00 +0.0000000000000000e+00 +5.8499998985862316e+00 -2.8599328198493000e-02 -5.5416208610909523e-01 +5.2115028173093641e-03
5.8999999999999870e+00 +8.5380405881511905e+00 +0.0000000000000000e+00 +5.8999998959604847e+00 -2.8601928232341388e-02 -5.5419847164272007e-01 +5.2116847013120027e-03
