# field on trajectory
# s[mm] rx[mm] ry[mm] rz[mm] bx[T] by[T] bz[T]
0.0000000000000000e+00 +8.5269999999999992e+00 +0.0000000000000000e+00 +0.0000000000000000e+00 -2.9326197404701000e-02 -5.4996429341946218e-01 +5.5671236632410821e-03
5.0000000000000003e-02 +8.5269999310864311e+00 +0.0000000000000000e+00 +4.9999999999936671e-02 -2.9325934717523726e-02 -5.4996390897384950e-01 +5.5675251856655275e-03
1.0000000000000001e-01 +8.5269997243457762e+00 +0.0000000000000000e+00 +9.9999999999493425e-02 -2.9325685850921910e-02 -5.4996391863549809e-01 +5.5679282991364341e-03
1.5000000000000002e-01 +8.5269993797780312e+00 +0.0000000000000000e+00 +1.4999999999829033e-01 -2.9325451077363097e-02 -5.4996432165177112e-01 +5.5683329871317674e-03
2.0000000000000001e-01 +8.5269988973830966e+00 +0.0000000000000000e+00 +1.9999999999594745e-01 -2.9325230669315663e-02 -5.4996511727004993e-01 +5.5687392331296177e-03
2.5000000000000000e-01 +8.5269982771607715e+00 +0.0000000000000000e+00 +2.4999999999208486e-01 -2.9325024899248670e-02 -5.4996630473773578e-01 +5.5691470206081835e-03
2.9999999999999999e-01 +8.5269975191107594e+00 +0.0000000000000000e+00 +2.9999999998632265e-01 -2.9324834039631938e-02 -5.4996788330224600e-01 +5.5695563330457835e-03
3.4999999999999998e-01 +8.5269966232326642e+00 +0.0000000000000000e+00 +3.4999999997828085e-01 -2.9324658362936080e-02 -5.4996985221101935e-01 +5.5699671539208451e-03
3.9999999999999997e-01 +8.5269955895259919e+00 +0.0000000000000000e+00 +3.9999999996757951e-01 -2.9324498141632311e-02 -5.4997221071150926e-01 +5.5703794667119029e-03
4.4999999999999996e-01 +8.5269944179901511e+00 +0.0000000000000000e+00 +4.4999999995383871e-01 -2.9324353648192601e-02 -5.4997495805119023e-01 +5.5707932548976040e-03
4.9999999999999994e-01 +8.5269931086244544e+00 +0.0000000000000000e+00 +4.9999999993667849e-01 -2.9324225155089586e-02 -5.4997809347755344e-01 +5.5712085019566961e-03
5.4999999999999993e-01 +8.5269916614281165e+00 +0.0000000000000000e+00 +5.4999999991571891e-01 -2.9324112934796556e-02 -5.4998161623810826e-01 +5.5716251913680293e-03
5.9999999999999998e-01 +8.5269900764002529e+00 +0.0000000000000000e+00 +5.9999999989057995e-01 -2.9324017259787425e-02 -5.4998552558038183e-01 +5.5720433066105551e-03
6.5000000000000002e-01 +8.5269883535398847e+00 +0.0000000000000000e+00 +6.4999999986088164e-01 -2.9323938402536772e-02 -5.4998982075192027e-01 +5.5724628311633320e-03
7.0000000000000007e-01 +8.5269864928459356e+00 +0.0000000000000000e+00 +6.9999999982624395e-01 -2.9323876635519778e-02 -5.4999450100028591e-01 +5.5728837485055031e-03
7.5000000000000011e-01 +8.5269844943172330e+00 +0.0000000000000000e+00 +7.4999999978628695e-01 -2.9323832231212172e-02 -5.4999956557305962e-01 +5.5733060421163079e-03
8.0000000000000016e-01 +8.5269823579525088e+00 +0.0000000000000000e+00 +7.9999999974063063e-01 -2.9323805462090319e-02 -5.5000501371784005e-01 +5.5737296954750850e-03
8.5000000000000020e-01 +8.5269800837503951e+00 +0.0000000000000000e+00 +8.4999999968889484e-01 -2.9323796600631124e-02 -5.5001084468224304e-01 +5.5741546920612594e-03
9.0000000000000024e-01 +8.5269776717094317e+00 +0.0000000000000000e+00 +8.9999999963069954e-01 -2.9323805919311996e-02 -5.5001705771390197e-01 +5.5745810153543371e-03
9.5000000000000029e-01 +8.5269751218280625e+00 +0.0000000000000000e+00 +9.4999999956566472e-01 -2.9323833690610941e-02 -5.5002365206046788e-01 +5.5750086488339234e-03
1.0000000000000002e+00 +8.5269724341046338e+00 +0.0000000000000000e+00 +9.9999999949341034e-01 -2.9323880187006438e-02 -5.5003062696960858e-01 +5.5754375759796953e-03
1.0500000000000003e+00 +8.5269696085373976e+00 +0.0000000000000000e+00 +1.0499999994135563e+00 -2.9323945680977459e-02 -5.5003798168901041e-01 +5.5758677802714178e-03
1.1000000000000003e+00 +8.5269666451245119e+00 +0.0000000000000000e+00 +1.0999999993257223e+00 -2.9324030445003486e-02 -5.5004571546637515e-01 +5.5762992451889341e-03
1.1500000000000004e+00 +8.5269635438640385e+00 +0.0000000000000000e+00 +1.1499999992295284e+00 -2.9324134751564410e-02 -5.5005382754942300e-01 +5.5767319542121586e-03
1.2000000000000004e+00 +8.5269603047539437e+00 +0.0000000000000000e+00 +1.1999999991245942e+00 -2.9324258873140628e-02 -5.5006231718589071e-01 +5.5771658908210934e-03
1.2500000000000004e+00 +8.5269569277920993e+00 +0.0000000000000000e+00 +1.2499999990105397e+00 -2.9324403082212944e-02 -5.5007118362353213e-01 +5.5776010384958026e-03
1.3000000000000005e+00 +8.5269534129762850e+00 +0.0000000000000000e+00 +1.2999999988869846e+00 -2.9324567651262543e-02 -5.5008042611011809e-01 +5.5780373807164246e-03
1.3500000000000005e+00 +8.5269497603041824e+00 +0.0000000000000000e+00 +1.3499999987535487e+00 -2.9324752852771072e-02 -5.5009004389343585e-01 +5.5784749009631677e-03
1.4000000000000006e+00 +8.5269459697733829e+00 +0.0000000000000000e+00 +1.3999999986098517e+00 -2.9324958959220510e-02 -5.5010003622129000e-01 +5.5789135827163036e-03
1.4500000000000006e+00 +8.5269420413813819e+00 +0.0000000000000000e+00 +1.4499999984555132e+00 -2.9325186243093215e-02 -5.5011040234150121e-01 +5.5793534094561734e-03
1.5000000000000007e+00 +8.5269379751255823e+00 +0.0000000000000000e+00 +1.4999999982901531e+00 -2.9325434976871900e-02 -5.5012114150190716e-01 +5.5797943646631737e-03
1.5500000000000007e+00 +8.5269337710032911e+00 +0.0000000000000000e+00 +1.5499999981133907e+00 -2.9325705433039612e-02 -5.5013225295036217e-01 +5.5802364318177661e-03
1.6000000000000008e+00 +8.5269294290117248e+00 +0.0000000000000000e+00 +1.5999999979248460e+00 -2.9325997884079691e-02 -5.5014373593473587e-01 +5.5806795944004697e-03
1.6500000000000008e+00 +8.5269249491480057e+00 +0.0000000000000000e+00 +1.6499999977241384e+00 -2.9326312602475819e-02 -5.5015558970291611e-01 +5.5811238358918587e-03
1.7000000000000008e+00 +8.5269203314091637e+00 +0.0000000000000000e+00 +1.6999999975108875e+00 -2.9326649860711908e-02 -5.5016781350280564e-01 +5.5815691397725579e-03
1.7500000000000009e+00 +8.5269155757921347e+00 +0.0000000000000000e+00 +1.7499999972847127e+00 -2.9327009931272196e-02 -5.5018040658232448e-01 +5.5820154895232510e-03
1.8000000000000009e+00 +8.5269106822937619e+00 +0.0000000000000000e+00 +1.7999999970452336e+00 -2.9327393086641142e-02 -5.5019336818940745e-01 +5.5824628686246625e-03
1.8500000000000010e+00 +8.5269056509107983e+00 +0.0000000000000000e+00 +1.8499999967920697e+00 -2.9327799599303404e-02 -5.5020669757200613e-01 +5.5829112605575697e-03
1.9000000000000010e+00 +8.5269004816399043e+00 +0.0000000000000000e+00 +1.8999999965248402e+00 -2.9328229741743941e-02 -5.5022039397808931e-01 +5.5833606488027944e-03
1.9500000000000011e+00 +8.5268951744776462e+00 +0.0000000000000000e+00 +1.9499999962431647e+00 -2.9328683786447849e-02 -5.5023445665563964e-01 +5.5838110168412022e-03
2.0000000000000009e+00 +8.5268897294204997e+00 +0.0000000000000000e+00 +1.9999999959466623e+00 -2.9329162005900401e-02 -5.5024888485265655e-01 +5.5842623481536912e-03
2.0500000000000007e+00 +8.5268841464648482e+00 +0.0000000000000000e+00 +2.0499999956349524e+00 -2.9329664581006557e-02 -5.5026367756123151e-01 +5.5847146314145007e-03
2.1000000000000005e+00 +8.5268784256069861e+00 +0.0000000000000000e+00 +2.0999999953076545e+00 -2.9330191326348995e-02 -5.5027883274977163e-01 +5.5851678760710640e-03
2.1500000000000004e+00 +8.5268725668431156e+00 +0.0000000000000000e+00 +2.1499999949643875e+00 -2.9330741964929893e-02 -5.5029434813077283e-01 +5.5856220967642244e-03
2.2000000000000002e+00 +8.5268665701693465e+00 +0.0000000000000000e+00 +2.1999999946047706e+00 -2.9331316219751491e-02 -5.5031022141674402e-01 +5.5860773081349326e-03
2.2500000000000000e+00 +8.5268604355817033e+00 +0.0000000000000000e+00 +2.2499999942284230e+00 -2.9331913813816057e-02 -5.5032645032020622e-01 +5.5865335248242651e-03
2.2999999999999998e+00 +8.5268541630761181e+00 +0.0000000000000000e+00 +2.2999999938349638e+00 -2.9332534470125866e-02 -5.5034303255369221e-01 +5.5869907614734086e-03
2.3499999999999996e+00 +8.5268477526484343e+00 +0.0000000000000000e+00 +2.3499999934240119e+00 -2.9333177911683189e-02 -5.5035996582974833e-01 +5.5874490327236809e-03
2.3999999999999995e+00 +8.5268412042944099e+00 +0.0000000000000000e+00 +2.3999999929951867e+00 -2.9333843861490291e-02 -5.5037724786093112e-01 +5.5879083532165254e-03
2.4499999999999993e+00 +8.5268345180097125e+00 +0.0000000000000000e+00 +2.4499999925481069e+00 -2.9334532042549374e-02 -5.5039487635980977e-01 +5.5883687375935086e-03
2.4999999999999991e+00 +8.5268276937899241e+00 +0.0000000000000000e+00 +2.4999999920823912e+00 -2.9335242177862552e-02 -5.5041284903896326e-01 +5.5888302004963300e-03
2.5499999999999989e+00 +8.5268207316305418e+00 +0.0000000000000000e+00 +2.5499999915976588e+00 -2.9335973990431891e-02 -5.5043116361098354e-01 +5.5892927565668240e-03
2.5999999999999988e+00 +8.5268136315269754e+00 +0.0000000000000000e+00 +2.5999999910935281e+00 -2.9336727203259326e-02 -5.5044981778847180e-01 +5.5897564204469528e-03
2.6499999999999986e+00 +8.5268063934745513e+00 +0.0000000000000000e+00 +2.6499999905696181e+00 -2.9337501539346670e-02 -5.5046880928404007e-01 +5.5902212067788270e-03
2.6999999999999984e+00 +8.5267990174685089e+00 +0.0000000000000000e+00 +2.6999999900255478e+00 -2.9338296721695592e-02 -5.5048813581031164e-01 +5.5906871302046938e-03
2.7499999999999982e+00 +8.5267915035040041e+00 +0.0000000000000000e+00 +2.7499999894609353e+00 -2.9339112473307598e-02 -5.5050779507991909e-01 +5.5911542053669397e-03
2.7999999999999980e+00 +8.5267838515761110e+00 +0.0000000000000000e+00 +2.7999999888753995e+00 -2.9339948517183981e-02 -5.5052778480550502e-01 +5.5916224469080966e-03
2.8499999999999979e+00 +8.5267760616798203e+00 +0.0000000000000000e+00 +2.8499999882685589e+00 -2.9340804576325867e-02 -5.5054810269972143e-01 +5.5920918694708499e-03
2.8999999999999977e+00 +8.5267681338100392e+00 +0.0000000000000000e+00 +2.8999999876400318e+00 -2.9341680373734105e-02 -5.5056874647523013e-01 +5.5925624876980275e-03
2.9499999999999975e+00 +8.5267600679615949e+00 +0.0000000000000000e+00 +2.9499999869894369e+00 -2.9342575632409371e-02 -5.5058971384470246e-01 +5.5930343162326193e-03
2.9999999999999973e+00 +8.5267518641292330e+00 +0.0000000000000000e+00 +2.9999999863163924e+00 -2.9343490075351971e-02 -5.5061100252081718e-01 +5.5935073697177635e-03
3.0499999999999972e+00 +8.5267435223076191e+00 +0.0000000000000000e+00 +3.0499999856205164e+00 -2.9344423425562011e-02 -5.5063261021626331e-01 +5.5939816627967529e-03
3.0999999999999970e+00 +8.5267350424913371e+00 +0.0000000000000000e+00 +3.0999999849014279e+00 -2.9345375406039244e-02 -5.5065453464373770e-01 +5.5944572101130473e-03
3.1499999999999968e+00 +8.5267264246748926e+00 +0.0000000000000000e+00 +3.1499999841587445e+00 -2.9346345739783106e-02 -5.5067677351594535e-01 +5.5949340263102684e-03
3.1999999999999966e+00 +8.5267176688527133e+00 +0.0000000000000000e+00 +3.1999999833920842e+00 -2.9347334149792684e-02 -5.5069932454559933e-01 +5.5954121260322022e-03
3.2499999999999964e+00 +8.5267087750191468e+00 +0.0000000000000000e+00 +3.2499999826010657e+00 -2.9348340359066707e-02 -5.5072218544542018e-01 +5.5958915239227936e-03
3.2999999999999963e+00 +8.5266997431684661e+00 +0.0000000000000000e+00 +3.2999999817853065e+00 -2.9349364090603486e-02 -5.5074535392813684e-01 +5.5963722346261758e-03
3.3499999999999961e+00 +8.5266905732948626e+00 +0.0000000000000000e+00 +3.3499999809444247e+00 -2.9350405067400949e-02 -5.5076882770648417e-01 +5.5968542727866336e-03
3.3999999999999959e+00 +8.5266812653924546e+00 +0.0000000000000000e+00 +3.3999999800780385e+00 -2.9351463012456575e-02 -5.5079260449320511e-01 +5.5973376530486412e-03
3.4499999999999957e+00 +8.5266718194552826e+00 +0.0000000000000000e+00 +3.4499999791857654e+00 -2.9352537648767441e-02 -5.5081668200104905e-01 +5.5978223900568442e-03
3.4999999999999956e+00 +8.5266622354773141e+00 +0.0000000000000000e+00 +3.4999999782672231e+00 -2.9353628699330093e-02 -5.5084105794277205e-01 +5.5983084984560722e-03
3.5499999999999954e+00 +8.5266525134524400e+00 +0.0000000000000000e+00 +3.5499999773220297e+00 -2.9354735887140607e-02 -5.5086573003113648e-01 +5.5987959928913292e-03
3.5999999999999952e+00 +8.5266426533744770e+00 +0.0000000000000000e+00 +3.5999999763498023e+00 -2.9355858935194577e-02 -5.5089069597891016e-01 +5.5992848880078100e-03
3.6499999999999950e+00 +8.5266326552371687e+00 +0.0000000000000000e+00 +3.6499999753501591e+00 -2.9356997566487051e-02 -5.5091595349886835e-01 +5.5997751984508994e-03
3.6999999999999948e+00 +8.5266225190341842e+00 +0.0000000000000000e+00 +3.6999999743227172e+00 -2.9358151504012504e-02 -5.5094150030379008e-01 +5.6002669388661615e-03
3.7499999999999947e+00 +8.5266122447591233e+00 +0.0000000000000000e+00 +3.7499999732670939e+00 -2.9359320470764852e-02 -5.5096733410646104e-01 +5.6007601238993619e-03
3.7999999999999945e+00 +8.5266018324055093e+00 +0.0000000000000000e+00 +3.7999999721829067e+00 -2.9360504189737464e-02 -5.5099345261967125e-01 +5.6012547681964587e-03
3.8499999999999943e+00 +8.5265912819667982e+00 +0.0000000000000000e+00 +3.8499999710697734e+00 -2.9361702383923032e-02 -5.5101985355621674e-01 +5.6017508864036024e-03
3.8999999999999941e+00 +8.5265805934363748e+00 +0.0000000000000000e+00 +3.8999999699273107e+00 -2.9362914776313691e-02 -5.5104653462889708e-01 +5.6022484931671536e-03
3.9499999999999940e+00 +8.5265697668075511e+00 +0.0000000000000000e+00 +3.9499999687551357e+00 -2.9364141089900844e-02 -5.5107349355051616e-01 +5.6027476031336575e-03
3.9999999999999938e+00 +8.5265588020735716e+00 +0.0000000000000000e+00 +3.9999999675528657e+00 -2.9365381047675276e-02 -5.5110072803388388e-01 +5.6032482309498824e-03
4.0499999999999936e+00 +8.5265476992276117e+00 +0.0000000000000000e+00 +4.0499999663201178e+00 -2.9366634405185981e-02 -5.5112823569857294e-01 +5.6037503851287633e-03
4.0999999999999934e+00 +8.5265364582627772e+00 +0.0000000000000000e+00 +4.0999999650565089e+00 -2.9367901048218494e-02 -5.5115601379120394e-01 +5.6042540496471739e-03
4.1499999999999932e+00 +8.5265250791721066e+00 +0.0000000000000000e+00 +4.1499999637616556e+00 -2.9369180895120466e-02 -5.5118405946515869e-01 +5.6047592023477800e-03
4.1999999999999931e+00 +8.5265135619485726e+00 +0.0000000000000000e+00 +4.1999999624351751e+00 -2.9370473864243123e-02 -5.5121236987381728e-01 +5.6052658210730497e-03
4.2499999999999929e+00 +8.5265019065850787e+00 +0.0000000000000000e+00 +4.2499999610766839e+00 -2.9371779873941347e-02 -5.5124094217056030e-01 +5.6057738836652422e-03
4.2999999999999927e+00 +8.5264901130744661e+00 +0.0000000000000000e+00 +4.2999999596857990e+00 -2.9373098842573778e-02 -5.5126977350876627e-01 +5.6062833679664040e-03
4.3499999999999925e+00 +8.5264781814095087e+00 +0.0000000000000000e+00 +4.3499999582621367e+00 -2.9374430688502921e-02 -5.5129886104181247e-01 +5.6067942518183474e-03
4.3999999999999924e+00 +8.5264661115829163e+00 +0.0000000000000000e+00 +4.3999999568053134e+00 -2.9375775330095288e-02 -5.5132820192307486e-01 +5.6073065130626586e-03
4.4499999999999922e+00 +8.5264539035873366e+00 +0.0000000000000000e+00 +4.4499999553149463e+00 -2.9377132685721452e-02 -5.5135779330592671e-01 +5.6078201295406711e-03
4.4999999999999920e+00 +8.5264415574153549e+00 +0.0000000000000000e+00 +4.4999999537906508e+00 -2.9378502673756159e-02 -5.5138763234373889e-01 +5.6083350790934678e-03
4.5499999999999918e+00 +8.5264290730594912e+00 +0.0000000000000000e+00 +4.5499999522320431e+00 -2.9379885212578512e-02 -5.5141771618987989e-01 +5.6088513395618584e-03
4.5999999999999917e+00 +8.5264164505122082e+00 +0.0000000000000000e+00 +4.5999999506387406e+00 -2.9381280220571980e-02 -5.5144804199771380e-01 +5.6093688887863848e-03
4.6499999999999915e+00 +8.5264036897659050e+00 +0.0000000000000000e+00 +4.6499999490103585e+00 -2.9382687616124521e-02 -5.5147860692060191e-01 +5.6098877046073048e-03
4.6999999999999913e+00 +8.5263907908129219e+00 +0.0000000000000000e+00 +4.6999999473465124e+00 -2.9384107317628767e-02 -5.5150940811190230e-01 +5.6104077648645809e-03
4.7499999999999911e+00 +8.5263777536455407e+00 +0.0000000000000000e+00 +4.7499999456468194e+00 -2.9385539243482011e-02 -5.5154044272496727e-01 +5.6109290473978649e-03
4.7999999999999909e+00 +8.5263645782559827e+00 +0.0000000000000000e+00 +4.7999999439108949e+00 -2.9386983312086452e-02 -5.5157170791314569e-01 +5.6114515300465084e-03
4.8499999999999908e+00 +8.5263512646364141e+00 +0.0000000000000000e+00 +4.8499999421383544e+00 -2.9388439441849150e-02 -5.5160320082978109e-01 +5.6119751906495282e-03
4.8999999999999906e+00 +8.5263378127789426e+00 +0.0000000000000000e+00 +4.8999999403288141e+00 -2.9389907551182259e-02 -5.5163491862821168e-01 +5.6125000070456118e-03
4.9499999999999904e+00 +8.5263242226756173e+00 +0.0000000000000000e+00 +4.9499999384818887e+00 -2.9391387558503068e-02 -5.5166685846176999e-01 +5.6130259570731107e-03
4.9999999999999902e+00 +8.5263104943184356e+00 +0.0000000000000000e+00 +4.9999999365971952e+00 -2.9392879382234123e-02 -5.5169901748378258e-01 +5.6135530185700113e-03
5.0499999999999901e+00 +8.5262966276993382e+00 +0.0000000000000000e+00 +5.0499999346743483e+00 -2.9394382940803345e-02 -5.5173139284757000e-01 +5.6140811693739506e-03
5.0999999999999899e+00 +8.5262826228102124e+00 +0.0000000000000000e+00 +5.0999999327129633e+00 -2.9395898152644099e-02 -5.5176398170644569e-01 +5.6146103873221873e-03
5.1499999999999897e+00 +8.5262684796428907e+00 +0.0000000000000000e+00 +5.1499999307126556e+00 -2.9397424936195373e-02 -5.5179678121371645e-01 +5.6151406502516028e-03
5.1999999999999895e+00 +8.5262541981891520e+00 +0.0000000000000000e+00 +5.1999999286730407e+00 -2.9398963209901770e-02 -5.5182978852268105e-01 +5.6156719359986822e-03
5.2499999999999893e+00 +8.5262397784407256e+00 +0.0000000000000000e+00 +5.2499999265937332e+00 -2.9400512892213779e-02 -5.5186300078663175e-01 +5.6162042223995168e-03
5.2999999999999892e+00 +8.5262252203892874e+00 +0.0000000000000000e+00 +5.2999999244743483e+00 -2.9402073901587687e-02 -5.5189641515885124e-01 +5.6167374872897833e-03
5.3499999999999890e+00 +8.5262105240264656e+00 +0.0000000000000000e+00 +5.3499999223145016e+00 -2.9403646156485861e-02 -5.5193002879261466e-01 +5.6172717085047402e-03
5.3999999999999888e+00 +8.5261956893438349e+00 +0.0000000000000000e+00 +5.3999999201138076e+00 -2.9405229575376727e-02 -5.5196383884118816e-01 +5.6178068638792168e-03
5.4499999999999886e+00 +8.5261807163329220e+00 +0.0000000000000000e+00 +5.4499999178718808e+00 -2.9406824076734971e-02 -5.5199784245782968e-01 +5.6183429312476026e-03
5.4999999999999885e+00 +8.5261656049852057e+00 +0.0000000000000000e+00 +5.4999999155883366e+00 -2.9408429579041568e-02 -5.5203203679578616e-01 +5.6188798884438352e-03
5.5499999999999883e+00 +8.5261503552921170e+00 +0.0000000000000000e+00 +5.5499999132627895e+00 -2.9410046000783951e-02 -5.5206641900829556e-01 +5.6194177133014021e-03
5.5999999999999881e+00 +8.5261349672450404e+00 +0.0000000000000000e+00 +5.5999999108948533e+00 -2.9411673260456066e-02 -5.5210098624858583e-01 +5.6199563836533155e-03
5.6499999999999879e+00 +8.5261194408353109e+00 +0.0000000000000000e+00 +5.6499999084841432e+00 -2.9413311276558548e-02 -5.5213573566987417e-01 +5.6204958773321111e-03
5.6999999999999877e+00 +8.5261037760542226e+00 +0.0000000000000000e+00 +5.6999999060302740e+00 -2.9414959967598731e-02 -5.5217066442536722e-01 +5.6210361721698385e-03
5.7499999999999876e+00 +8.5260879728930199e+00 +0.0000000000000000e+00 +5.7499999035328591e+00 -2.9416619252090822e-02 -5.5220576966825974e-01 +5.6215772459980466e-03
5.7999999999999874e+00 +8.5260720313429061e+00 +0.0000000000000000e+00 +5.7999999009915131e+00 -2.9418289048556007e-02 -5.5224104855173550e-01 +5.6221190766477854e-03
5.8499999999999872e+00 +8.5260559513950405e+00 +0.0000000000000000e+00 +5.8499998984058497e+00 -2.9419969275522560e-02 -5.5227649822896674e-01 +5.6226616419495805e-03
5.8999999999999870e+00 +8.5260397330405393e+00 +0.0000000000000000e+00 +5.8999998957754833e+00 -2.9421659851525877e-02 -5.5231211585311279e-01 +5.6232049197334367e-03
