# multipoles
# s[mm] polynom_b[n=0][T/m^n] polynom_b[n=1][T/m^n] polynom_b[n=2][T/m^n] polynom_b[n=3][T/m^n] polynom_b[n=4][T/m^n] polynom_b[n=5][T/m^n] polynom_b[n=6][T/m^n] 
+0.0000000000000000e+00 -5.5533984293691330e-01 +7.2730197588972052e+00 +4.8707043553920037e+00 +1.7651746284852027e+01 -3.5617557887292564e+03 -5.5969708743332571e+05 +4.2865835694747038e+07 
-5.0000000000000003e-02 -5.5533850132920759e-01 +7.2728727196978085e+00 +4.8752724286938474e+00 +1.8011079061986035e+01 -3.5406313575359950e+03 -5.6292826664187782e+05 +4.2586643936173737e+07 
-1.0000000000000001e-01 -5.5533752734115438e-01 +7.2727472116319758e+00 +4.8790954367283002e+00 +1.8341696198861214e+01 -3.5129717566263384e+03 -5.6596787742364977e+05 +4.2270525554011948e+07 
-1.5000000000000002e-01 -5.5533692056768713e-01 +7.2726431357973018e+00 +4.8821841992605624e+00 +1.8645070806380641e+01 -3.4790192408298603e+03 -5.6882438421490497e+05 +4.1918971943938270e+07 
-2.0000000000000001e-01 -5.5533668060376606e-01 +7.2725603932945608e+00 +4.8845495377277102e+00 +1.8922675886437215e+01 -3.4390161085027657e+03 -5.7150625052517082e+05 +4.1533474787835903e+07 
-2.5000000000000000e-01 -5.5533680704437216e-01 +7.2724988852179839e+00 +4.8862022735709392e+00 +1.9175984743834469e+01 -3.3932046557068111e+03 -5.7402194239529152e+05 +4.1115525745594949e+07 
-2.9999999999999999e-01 -5.5533729948451316e-01 +7.2724585126668195e+00 +4.8871532304525198e+00 +1.9406470504592104e+01 -3.3418272420740832e+03 -5.7637992440001678e+05 +4.0666616918118909e+07 
-3.4999999999999998e-01 -5.5533815751919935e-01 +7.2724391767423766e+00 +4.8874132286619894e+00 +1.9615606231137718e+01 -3.2851261282099267e+03 -5.7858866057467298e+05 +4.0188239706584997e+07 
-3.9999999999999997e-01 -5.5533938074346012e-01 +7.2724407785453398e+00 +4.8869930894648608e+00 +1.9804865048437762e+01 -3.2233436081565219e+03 -5.8065661550354131e+05 +3.9681885764980413e+07 
-4.4999999999999996e-01 -5.5534096875235694e-01 +7.2724632191792091e+00 +4.8859036361962254e+00 +1.9975719988537495e+01 -3.1567220264152306e+03 -5.8259225300622848e+05 +3.9149047067378238e+07 
-4.9999999999999994e-01 -5.5534292114095585e-01 +7.2725063997458452e+00 +4.8841556903675221e+00 +2.0129644188440512e+01 -3.0855036821266681e+03 -5.8440403780098341e+05 +3.8591215295507751e+07 
-5.4999999999999993e-01 -5.5534523750434672e-01 +7.2725702213478778e+00 +4.8817600742219387e+00 +2.0268110766045375e+01 -3.0099308889154245e+03 -5.8610043441297824e+05 +3.8009882207174771e+07 
-5.9999999999999998e-01 -5.5534791743763368e-01 +7.2726545850942728e+00 +4.8787276097852308e+00 +2.0392592621975467e+01 -2.9302459588542406e+03 -5.8768990563102730e+05 +3.7406539567728229e+07 
-6.5000000000000002e-01 -5.5535096053593125e-01 +7.2727593920847964e+00 +4.8750691177357783e+00 +2.0504563052812891e+01 -2.8466911640529920e+03 -5.8918091748778801e+05 +3.6782678856095135e+07 
-7.0000000000000007e-01 -5.5535436639438962e-01 +7.2728845434301910e+00 +4.8707954222850427e+00 +2.0605494943949953e+01 -2.7595088757737572e+03 -5.9058193268077297e+05 +3.6139792236046478e+07 
-7.5000000000000011e-01 -5.5535813460815675e-01 +7.2730299402372980e+00 +4.8659173438223187e+00 +2.0696861358596156e+01 -2.6689413585314060e+03 -5.9190141534752771e+05 +3.5479371137386955e+07 
-8.0000000000000016e-01 -5.5536226477241024e-01 +7.2731954836133701e+00 +4.8604457056729800e+00 +2.0780135373081372e+01 -2.5752309584504587e+03 -5.9314782973761612e+05 +3.4802907543339446e+07 
-8.5000000000000020e-01 -5.5536675648233125e-01 +7.2733810746671992e+00 +4.8543913283276492e+00 +2.0856790033321371e+01 -2.4786199469237181e+03 -5.9432963989813009e+05 +3.4111892947189674e+07 
-9.0000000000000024e-01 -5.5537160933313023e-01 +7.2735866145072103e+00 +4.8477650347761436e+00 +2.0928298425648766e+01 -2.3793506595570452e+03 -5.9545531020186178e+05 +3.3407819255116388e+07 
-9.5000000000000029e-01 -5.5537682292003843e-01 +7.2738120042475813e+00 +4.8405776485599707e+00 +2.0996133432299850e+01 -2.2776654495058888e+03 -5.9653330337325984e+05 +3.2692178505757466e+07 
-1.0000000000000002e+00 -5.5538239683827650e-01 +7.2740571449961910e+00 +4.8328399888503872e+00 +2.1061768212327777e+01 -2.1738065544503474e+03 -5.9757208438362705e+05 +3.1966461964029837e+07 
-1.0500000000000003e+00 -5.5538833068310756e-01 +7.2743219378655350e+00 +4.8245628790400605e+00 +2.1126675774152186e+01 -2.0680163232034274e+03 -5.9858011702426849e+05 +3.1232161634346820e+07 
-1.1000000000000003e+00 -5.5539462404980255e-01 +7.2746062839661274e+00 +4.8157571411330782e+00 +2.1192329228244166e+01 -1.9605370679963173e+03 -5.9956586590942205e+05 +3.0490769276980609e+07 
-1.1500000000000004e+00 -5.5540127653364946e-01 +7.2749100844144730e+00 +4.8064335974758334e+00 +2.1260201474879310e+01 -1.8516111151537889e+03 -6.0053779397110746e+05 +2.9743776765217692e+07 
-1.2000000000000004e+00 -5.5540828772993245e-01 +7.2752332403228408e+00 +4.7966030670242041e+00 +2.1331765614316755e+01 -1.7414806982443190e+03 -6.0150436578642169e+05 +2.8992675337436780e+07 
-1.2500000000000004e+00 -5.5541565723399733e-01 +7.2755756528044753e+00 +4.7862763763108562e+00 +2.1408494721650253e+01 -1.6303882532496882e+03 -6.0247404568978841e+05 +2.8238957592609614e+07 
-1.3000000000000005e+00 -5.5542338464114849e-01 +7.2759372229756929e+00 +4.7754643423699283e+00 +2.1491861789961582e+01 -1.5185759674127276e+03 -6.0345529742508114e+05 +2.7484114477193460e+07 
-1.3500000000000005e+00 -5.5543146954675038e-01 +7.2763178519499769e+00 +4.7641777897840631e+00 +2.1583339957757957e+01 -1.4062862297473596e+03 -6.0445658593982132e+05 +2.6729638291727733e+07 
-1.4000000000000006e+00 -5.5543991154615702e-01 +7.2767174408451352e+00 +4.7524275384000170e+00 +2.1684402197995308e+01 -1.2937612995288891e+03 -6.0548637478109496e+05 +2.5977020450360104e+07 
-1.4500000000000006e+00 -5.5544871023474329e-01 +7.2771358907767638e+00 +4.7402244093694872e+00 +2.1796521622796813e+01 -1.1812434791613807e+03 -6.0655312873115414e+05 +2.5227752689837709e+07 
-1.5000000000000007e+00 -5.5545786520790918e-01 +7.2775731028606536e+00 +4.7275792254256919e+00 +2.1921171344432629e+01 -1.0689751118796535e+03 -6.0766531251182489e+05 +2.4483327012366645e+07 
-1.5500000000000007e+00 -5.5546737606105767e-01 +7.2780289782174794e+00 +4.7145028068762738e+00 +2.2059824319431257e+01 -9.5719847451704550e+02 -6.0883138964719209e+05 +2.3745234966578487e+07 
-1.6000000000000008e+00 -5.5547724238960894e-01 +7.2785034179606161e+00 +4.7010059749422020e+00 +2.2213953819537075e+01 -8.4615587801787967e+02 -6.1005982621653692e+05 +2.3014968368254464e+07 
-1.6500000000000008e+00 -5.5548746378899871e-01 +7.2789963232128203e+00 +4.6870995503729231e+00 +2.2385032765903254e+01 -7.3608961446725164e+02 -6.1135908546330233e+05 +2.2294018878928665e+07 
-1.7000000000000008e+00 -5.5549803985467483e-01 +7.2795075950889947e+00 +4.6727943538802155e+00 +2.2574534430131468e+01 -6.2724198248244420e+02 -6.1273763352554175e+05 +2.1583878231869299e+07 
-1.7500000000000009e+00 -5.5550897018210099e-01 +7.2800371347105672e+00 +4.6581012058281273e+00 +2.2783931846397962e+01 -5.1985526869067360e+02 -6.1420393461809470e+05 +2.0886038069026086e+07 
-1.8000000000000009e+00 -5.5552025436676089e-01 +7.2805848431960740e+00 +4.6430309282338644e+00 +2.3014698181293788e+01 -4.1417181208065415e+02 -6.1576645400189469e+05 +2.0201990411846384e+07 
-1.8500000000000010e+00 -5.5553189200413133e-01 +7.2811506216660185e+00 +4.6275943385652782e+00 +2.3268306567842199e+01 -3.1043382535612665e+02 -6.1743365676151449e+05 +1.9533226415304016e+07 
-1.9000000000000010e+00 -5.5554388268973298e-01 +7.2817343712380369e+00 +4.6118022599891324e+00 +2.3546230275485470e+01 -2.0888368272292820e+02 -6.1921400907558715e+05 +1.8881238353291303e+07 
-1.9500000000000011e+00 -5.5555622601907129e-01 +7.2823359930339899e+00 +4.5956655101223323e+00 +2.3849942423155490e+01 -1.0976360684892531e+02 -6.2111597589225823e+05 +1.8247517466644537e+07 
-2.0000000000000009e+00 -5.5556892158768723e-01 +7.2829553881760640e+00 +4.5791949104043796e+00 +2.4180916161932778e+01 -1.3315927161454582e+01 -6.2314802249622054e+05 +1.7633555730251607e+07 
-2.0500000000000007e+00 -5.5558196876068744e-01 +7.2835924616040320e+00 +4.5624008260392213e+00 +2.4540166092549125e+01 +8.0251322398364110e+01 -6.2531596939918853e+05 +1.7040589561350301e+07 
-2.1000000000000005e+00 -5.5559536598160475e-01 +7.2842471280652354e+00 +4.5452917510971558e+00 +2.4926828757547973e+01 +1.7087861729318476e+02 -6.2761482570892444e+05 +1.6468768928484077e+07 
-2.1500000000000004e+00 -5.5560911146360858e-01 +7.2849193034018302e+00 +4.5278757061269852e+00 +2.5339559455508702e+01 +2.5854653105193762e+02 -6.3003684057532786e+05 +1.5917955384735938e+07 
-2.2000000000000002e+00 -5.5562320341988425e-01 +7.2856089034555627e+00 +4.5101607113756232e+00 +2.5777013535301482e+01 +3.4323564915846913e+02 -6.3257426365020324e+05 +1.5388010396770775e+07 
-2.2500000000000000e+00 -5.5563764006363714e-01 +7.2863158440698657e+00 +4.4921547885477739e+00 +2.6237846273313423e+01 +4.2492652038970931e+02 -6.3521934388916881e+05 +1.4878795662479172e+07 
-2.2999999999999998e+00 -5.5565241960806055e-01 +7.2870400410859197e+00 +4.4738659550628022e+00 +2.6720713057002246e+01 +5.0359980691539818e+02 -6.3796433117455640e+05 +1.4390172125616977e+07 
-2.3499999999999996e+00 -5.5566754026640264e-01 +7.2877814103446843e+00 +4.4553022356256733e+00 +2.7224269308101622e+01 +5.7923597632626434e+02 -6.4080147569791111e+05 +1.3922002035142818e+07 
-2.3999999999999995e+00 -5.5568300025189843e-01 +7.2885398676891766e+00 +4.4364716508278308e+00 +2.7747170351709151e+01 +6.5181560531144476e+02 -6.4372302671893651e+05 +1.3474146908000503e+07 
-2.4499999999999993e+00 -5.5569879777777942e-01 +7.2893153289630428e+00 +4.4173822177973650e+00 +2.8288071527804213e+01 +7.2131936951979174e+02 -6.4672123373267544e+05 +1.3046467575117800e+07 
-2.4999999999999991e+00 -5.5571493105732217e-01 +7.2901077100063816e+00 +4.3980419599813168e+00 +2.8845628307988914e+01 +7.8772777108965533e+02 -6.4978834718218399e+05 +1.2638826048299290e+07 
-2.5499999999999989e+00 -5.5573139830379914e-01 +7.2909169266615557e+00 +4.3784588980218482e+00 +2.9418496096134440e+01 +8.5102138884820829e+02 -6.5291661697859061e+05 +1.2251083815929180e+07 
-2.5999999999999988e+00 -5.5574819773050077e-01 +7.2917428947731207e+00 +4.3586410534872098e+00 +3.0005330215338457e+01 +9.1118077715547361e+02 -6.5609829235678969e+05 +1.1883102533117983e+07 
-2.6499999999999986e+00 -5.5576532755072605e-01 +7.2925855301814240e+00 +4.3385964472542202e+00 +3.0604786156609340e+01 +9.6818651392996890e+02 -6.5932562382874475e+05 +1.1534743673206713e+07 
-2.6999999999999984e+00 -5.5578278597778152e-01 +7.2934447487278478e+00 +4.3183330997993803e+00 +3.1215519398671653e+01 +1.0220191844040635e+03 -6.6259086187427293e+05 +1.1205868675069710e+07 
-2.7499999999999982e+00 -5.5580057122499926e-01 +7.2943204662538861e+00 +4.2978590340102185e+00 +3.1836185401356140e+01 +1.0726593120248458e+03 -6.6588625669319963e+05 +1.0896339381832855e+07 
-2.7999999999999980e+00 -5.5581868150571645e-01 +7.2952125986045697e+00 +4.2771822716670265e+00 +3.2465439497218142e+01 +1.1200874502389981e+03 -6.6920405744374730e+05 +1.0606017434088737e+07 
-2.8499999999999979e+00 -5.5583711503327715e-01 +7.2961210616177636e+00 +4.2563108336597519e+00 +3.3101937323873429e+01 +1.1642841809561603e+03 -6.7253651577901805e+05 +1.0334764262247493e+07 
-2.8999999999999977e+00 -5.5585587002103809e-01 +7.2970457711375083e+00 +4.2352527413348087e+00 +3.3744334256549713e+01 +1.2052300718569834e+03 -6.7587588110261853e+05 +1.0082441401548017e+07 
-2.9499999999999975e+00 -5.5587494468237797e-01 +7.2979866430015123e+00 +4.2140160181640187e+00 +3.4391285946224393e+01 +1.2429056360273291e+03 -6.7921440508033626e+05 +9.8489107431032825e+06 
-2.9999999999999973e+00 -5.5589433723067994e-01 +7.2989435930546653e+00 +4.1926086866087777e+00 +3.5041447752053777e+01 +1.2772914130338465e+03 -6.8254433694626146e+05 +9.6340340034677461e+06 
-3.0499999999999972e+00 -5.5591404587933191e-01 +7.2999165371338988e+00 +4.1710387675724307e+00 +3.5693475356599464e+01 +1.3083679915131936e+03 -6.8585792851111316e+05 +9.4376725414906964e+06 
-3.0999999999999970e+00 -5.5593406884173358e-01 +7.3009053910839894e+00 +4.1493142828940366e+00 +3.6346024129338304e+01 +1.3361159316715537e+03 -6.8914742900142237e+05 +9.2596879193535913e+06 
-3.1499999999999968e+00 -5.5595440433132548e-01 +7.3019100707405409e+00 +4.1274432589689880e+00 +3.6997749812616377e+01 +1.3605156777232992e+03 -6.9240509063823975e+05 +9.0999424582380690e+06 
-3.1999999999999966e+00 -5.5597505056151675e-01 +7.3029304919469045e+00 +4.1054337161807029e+00 +3.7647307834756731e+01 +1.3815478291384384e+03 -6.9562316302077880e+05 +8.9582974550386835e+06 
-3.2499999999999964e+00 -5.5599600574574759e-01 +7.3039665705390178e+00 +4.0832936776564015e+00 +3.8293353933213005e+01 +1.3991929218818757e+03 -6.9879389826377935e+05 +8.8346145953952167e+06 
-3.2999999999999963e+00 -5.5601726809746999e-01 +7.3050182223570221e+00 +4.0610311669592338e+00 +3.8934543660849286e+01 +1.4134314801910721e+03 -7.0190954686115624e+05 +8.7287556478670724e+06 
-3.3499999999999961e+00 -5.5603883583014913e-01 +7.3060853632411566e+00 +4.0386542088495192e+00 +3.9569532575607361e+01 +1.4242439956455746e+03 -7.0496235933698236e+05 +8.6405825983989369e+06 
-3.3999999999999959e+00 -5.5606070715724798e-01 +7.3071679090276138e+00 +4.0161708254072144e+00 +4.0196976401183356e+01 +1.4316110380109676e+03 -7.0794458753215987e+05 +8.5699568864710890e+06 
-3.4499999999999957e+00 -5.5608288029226050e-01 +7.3082657755549398e+00 +3.9935890428650116e+00 +4.0815530746433112e+01 +1.4355130659023889e+03 -7.1084848221605620e+05 +8.5167406982987057e+06 
-3.4999999999999956e+00 -5.5610535344866063e-01 +7.3093788786597811e+00 +3.9709168827346484e+00 +4.1423851316074192e+01 +1.4359306630470801e+03 -7.1366629498434556e+05 +8.4807953830966484e+06 
-3.5499999999999954e+00 -5.5612812483995344e-01 +7.3105071341785024e+00 +3.9481623696123758e+00 +4.2020593806058059e+01 +1.4328443412602214e+03 -7.1639027722461859e+05 +8.4619827341150399e+06 
-3.5999999999999952e+00 -5.5615119267966739e-01 +7.3116504579475183e+00 +3.9253335314431412e+00 +4.2604413912408276e+01 +1.4262345162632628e+03 -7.1901268029466411e+05 +8.4601652158527952e+06 
-3.6499999999999950e+00 -5.5617455518131309e-01 +7.3128087658041778e+00 +3.9024383907581908e+00 +4.3173967289865146e+01 +1.4160817610259510e+03 -7.2152575515911763e+05 +8.4752041876298506e+06 
-3.6999999999999948e+00 -5.5619821055842256e-01 +7.3139819735797191e+00 +3.8794849734303183e+00 +4.3727909827740092e+01 +1.4023665505222630e+03 -7.2392175460859970e+05 +8.5069617013457995e+06 
-3.7499999999999947e+00 -5.5622215702453448e-01 +7.3151699971122692e+00 +3.8564813037673353e+00 +4.4264897133638875e+01 +1.3850694152748642e+03 -7.2619292907890724e+05 +8.5552993864541147e+06 
-3.7999999999999945e+00 -5.5624639279320620e-01 +7.3163727522332902e+00 +3.8334354087467570e+00 +4.4783585084970198e+01 +1.3641708117937378e+03 -7.2833153117122967e+05 +8.6200793761983886e+06 
-3.8499999999999943e+00 -5.5627091607800172e-01 +7.3175901547753339e+00 +3.8103553150990495e+00 +4.5282629500783273e+01 +1.3396512046165249e+03 -7.3032981291375333e+05 +8.7011637471372746e+06 
-3.8999999999999941e+00 -5.5629572509248293e-01 +7.3188221205733166e+00 +3.7872490478249272e+00 +4.5760686087223085e+01 +1.3114911089251768e+03 -7.3218002531443152e+05 +8.7984142188859526e+06 
-3.9499999999999940e+00 -5.5632081805023814e-01 +7.3200685654567357e+00 +3.7641246345192658e+00 +4.6216410774741249e+01 +1.2796709779906046e+03 -7.3387442119158176e+05 +8.9116928999397252e+06 
-3.9999999999999938e+00 -5.5634619316484524e-01 +7.3213294052573996e+00 +3.7409901007498396e+00 +4.6648459384986523e+01 +1.2441713159634839e+03 -7.3540525235152675e+05 +9.0408615712277833e+06 
-4.0499999999999936e+00 -5.5637184846815435e-01 +7.3226045346432747e+00 +3.7178497693663148e+00 +4.7055836179489688e+01 +1.2050330895079292e+03 -7.3676687117970048e+05 +9.1855140860095285e+06 
-4.0999999999999934e+00 -5.5639778126437467e-01 +7.3238937552277177e+00 +3.6946941979896808e+00 +4.7439020211358105e+01 +1.1625238899649917e+03 -7.3796284725433495e+05 +9.3442629795839582e+06 
-4.1499999999999932e+00 -5.5642398867564602e-01 +7.3251968432245222e+00 +3.6715107939746359e+00 +4.7798878572752727e+01 +1.1169638532030242e+03 -7.3899926070714463e+05 +9.5155009996119998e+06 
-4.1999999999999931e+00 -5.5645046782411967e-01 +7.3265135748560262e+00 +3.6482869658702937e+00 +4.8136277997003809e+01 +1.0686730884065742e+03 -7.3988218883326836e+05 +9.6976210647547822e+06 
-4.2499999999999929e+00 -5.5647721583193666e-01 +7.3278437263378713e+00 +3.6250101201713076e+00 +4.8452085502078091e+01 +1.0179717590011006e+03 -7.4061771134844399e+05 +9.8890157310784440e+06 
-4.2999999999999927e+00 -5.5650422982123626e-01 +7.3291870738902469e+00 +3.6016676628197626e+00 +4.8747167924065089e+01 +9.6518004047081740e+02 -7.4121190650359227e+05 +1.0088077485228660e+07 
-4.3499999999999925e+00 -5.5653150691418352e-01 +7.3305433937370914e+00 +3.5782470040078658e+00 +4.9022391948410117e+01 +9.1061799361465637e+02 -7.4167085137376981e+05 +1.0293199588671351e+07 
-4.3999999999999924e+00 -5.5655904423290981e-01 +7.3319124620982841e+00 +3.5547355475462346e+00 +4.9278624433143804e+01 +8.5460585483858711e+02 -7.4200062450765236e+05 +1.0502774101821544e+07 
-4.4499999999999922e+00 -5.5658683889956673e-01 +7.3332940551969266e+00 +3.5311207011656291e+00 +4.9516732102885975e+01 +7.9746374732437584e+02 -7.4220730339333788e+05 +1.0715193881823016e+07 
-4.4999999999999920e+00 -5.5661488803631498e-01 +7.3346879492585337e+00 +3.5073898737012335e+00 +4.9737581599174391e+01 +7.3951176741153529e+02 -7.4229696494536672e+05 +1.0928851953217300e+07 
-4.5499999999999918e+00 -5.5664318876528074e-01 +7.3360939205090467e+00 +3.4835304679074026e+00 +4.9942039527266147e+01 +6.8107017522346291e+02 -7.4227568574590585e+05 +1.1142140237308688e+07 
-4.5999999999999917e+00 -5.5667173820862714e-01 +7.3375117451764913e+00 +3.4595298931792144e+00 +5.0130972435469936e+01 +6.2245904852445062e+02 -7.4214954207146878e+05 +1.1353451898700964e+07 
-4.6499999999999915e+00 -5.5670053348849047e-01 +7.3389411994862117e+00 +3.4353755540375244e+00 +5.0305246975042195e+01 +5.6399859786281183e+02 -7.4192461107653566e+05 +1.1561179201113656e+07 
-4.6999999999999913e+00 -5.5672957172701032e-01 +7.3403820596706524e+00 +3.4110548558453191e+00 +5.0465729502230509e+01 +5.0600900845049279e+02 -7.4160696752407274e+05 +1.1763714590147737e+07 
-4.7499999999999911e+00 -5.5675885004634273e-01 +7.3418341019586570e+00 +3.3865552069695162e+00 +5.0613286536640160e+01 +4.4881038390288319e+02 -7.4120268763213337e+05 +1.1959451063258084e+07 
-4.7999999999999909e+00 -5.5678836556861877e-01 +7.3432971025840041e+00 +3.3618640115253879e+00 +5.0748784386684164e+01 +3.9272294271747711e+02 -7.4071784592290793e+05 +1.2146780842742674e+07 
-4.8499999999999908e+00 -5.5681811541597970e-01 +7.3447708377788832e+00 +3.3369686756071792e+00 +5.0873089437303314e+01 +3.3806684722227419e+02 -7.4015851764618652e+05 +1.2324096542124687e+07 
-4.8999999999999906e+00 -5.5684809671055024e-01 +7.3462550837802452e+00 +3.3118566031821040e+00 +5.0987067875336592e+01 +2.8516231456639332e+02 -7.3953077648033330e+05 +1.2489790412872689e+07 
-4.9499999999999904e+00 -5.5687830657447179e-01 +7.3477496168238758e+00 +3.2865152006997289e+00 +5.1091585944951341e+01 +2.3432949972202883e+02 -7.3884069667714147e+05 +1.2642255109888548e+07 
-4.9999999999999902e+00 -5.5690874212986852e-01 +7.3492542131478213e+00 +3.2609318726559628e+00 +5.1187509785190485e+01 +1.8588860229469540e+02 -7.3809435165847419e+05 +1.2779883017550703e+07 
-5.0499999999999901e+00 -5.5693940049887092e-01 +7.3507686489912478e+00 +3.2350940249178377e+00 +5.1275705513509337e+01 +1.4015978741483579e+02 -7.3729781482697395e+05 +1.2901066743151423e+07 
