# multipoles
# s[mm] polynom_b[n=0][T/m^n] polynom_b[n=1][T/m^n] polynom_b[n=2][T/m^n] polynom_b[n=3][T/m^n] polynom_b[n=4][T/m^n] polynom_b[n=5][T/m^n] polynom_b[n=6][T/m^n] 
+0.0000000000000000e+00 -5.5192222886914233e-01 +7.2267164850987200e+00 +6.5574250640893563e+00 -1.0688554813000414e+02 -1.3733881152348982e+04 +2.5627052800982707e+05 +9.5378666475768059e+07 
-5.0000000000000003e-02 -5.5192413266028773e-01 +7.2267579622618241e+00 +6.5504082021046166e+00 -1.0726302241034800e+02 -1.3592122433542596e+04 +2.5805831944700776e+05 +9.4599946132962063e+07 
-1.0000000000000001e-01 -5.5192643932683694e-01 +7.2268210271475599e+00 +6.5426199796657194e+00 -1.0762621413148671e+02 -1.3442893627457133e+04 +2.5978239306364409e+05 +9.3773314103637457e+07 
-1.5000000000000002e-01 -5.5192914809866556e-01 +7.2269056057269374e+00 +6.5340775868319616e+00 -1.0797484160029778e+02 -1.3286570092713318e+04 +2.6144093104828082e+05 +9.2901013360366225e+07 
-2.0000000000000001e-01 -5.5193225820566305e-01 +7.2270116239745548e+00 +6.5247982121270836e+00 -1.0830862324083239e+02 -1.3123527138827292e+04 +2.6303211654839379e+05 +9.1985286511645749e+07 
-2.5000000000000000e-01 -5.5193576887774820e-01 +7.2271390078636930e+00 +6.5147990469817065e+00 -1.0862727739428054e+02 -1.2954140164542878e+04 +2.6455413204684394e+05 +9.1028376810421750e+07 
-2.9999999999999999e-01 -5.5193967934486310e-01 +7.2272876833674928e+00 +6.5040972829398163e+00 -1.0893052237749966e+02 -1.2778784565791953e+04 +2.6600515986450342e+05 +9.0032527466744035e+07 
-3.4999999999999998e-01 -5.5194398883694118e-01 +7.2274575764623368e+00 +6.4927101070772686e+00 -1.0921807659935689e+02 -1.2597835619327776e+04 +2.6738338303851441e+05 +8.8999980888714001e+07 
-3.9999999999999997e-01 -5.5194869658395795e-01 +7.2276486131267266e+00 +6.4806547108365820e+00 -1.0948965854828120e+02 -1.2411668722586726e+04 +2.6868698535633751e+05 +8.7932980308981895e+07 
-4.4999999999999996e-01 -5.5195380181590037e-01 +7.2278607193357498e+00 +6.4679482840018103e+00 -1.0974498651802210e+02 -1.2220659225495581e+04 +2.6991414889781357e+05 +8.6833768631118566e+07 
-4.9999999999999994e-01 -5.5195930376276592e-01 +7.2280938210680779e+00 +6.4546080153228882e+00 -1.0998377894648897e+02 -1.2025182451448207e+04 +2.7106305704286869e+05 +8.5704588578629121e+07 
-5.4999999999999993e-01 -5.5196520165457730e-01 +7.2283478443042020e+00 +6.4406510947992359e+00 -1.1020575430601191e+02 -1.1825613760098287e+04 +2.7213189342104172e+05 +8.4547683133216396e+07 
-5.9999999999999998e-01 -5.5197149472138152e-01 +7.2286227150222357e+00 +6.4260947135531534e+00 -1.1041063094669121e+02 -1.1622328540230719e+04 +2.7311884066367190e+05 +8.3365295465444297e+07 
-6.5000000000000002e-01 -5.5197818219322659e-01 +7.2289183592017601e+00 +6.4109560597839987e+00 -1.1059812725490983e+02 -1.1415702103389971e+04 +2.7402208173364436e+05 +8.2159668229819000e+07 
-7.0000000000000007e-01 -5.5198526330018838e-01 +7.2292347028262141e+00 +6.3952523233173748e+00 -1.1076796174031251e+02 -1.1206109804672049e+04 +2.7483980059078016e+05 +8.0933044373848751e+07 
-7.5000000000000011e-01 -5.5199273727235743e-01 +7.2295716718739511e+00 +6.3790006934447732e+00 -1.1091985268920061e+02 -1.0993926983733645e+04 +2.7557017941225827e+05 +7.9687666733835936e+07 
-8.0000000000000016e-01 -5.5200060333983503e-01 +7.2299291923297684e+00 +6.3622183586775680e+00 -1.1105351861519340e+02 -1.0779528965360849e+04 +2.7621140221828653e+05 +7.8425778070366323e+07 
-8.5000000000000020e-01 -5.5200886073275346e-01 +7.2303071901761236e+00 +6.3449225094674944e+00 -1.1116867790765424e+02 -1.0563291122958954e+04 +2.7676165201682464e+05 +7.7149621457442418e+07 
-9.0000000000000024e-01 -5.5201750868125254e-01 +7.2307055913946190e+00 +6.3271303347346670e+00 -1.1126504890231126e+02 -1.0345588789659232e+04 +2.7721911141867848e+05 +7.5861439697758168e+07 
-9.5000000000000029e-01 -5.5202654641548787e-01 +7.2311243219694683e+00 +6.3088590228768027e+00 -1.1134235000867638e+02 -1.0126797284638593e+04 +2.7758196361949487e+05 +7.4563475502807900e+07 
-1.0000000000000002e+00 -5.5203597316563646e-01 +7.2315633078863835e+00 +6.2901257635948138e+00 -1.1140029967554520e+02 -9.9072919672292865e+03 +2.7784839218242210e+05 +7.3257971871797428e+07 
-1.0500000000000003e+00 -5.5204578816188965e-01 +7.2320224751256887e+00 +6.2709477456459215e+00 -1.1143861609324568e+02 -9.6874481672870934e+03 +2.7801657850469538e+05 +7.1947171587216869e+07 
-1.1000000000000003e+00 -5.5205599063446309e-01 +7.2325017496759587e+00 +6.2513421592246363e+00 -1.1145701777917760e+02 -9.4676412573144808e+03 +2.7808470674636704e+05 +7.0633317738643602e+07 
-1.1500000000000004e+00 -5.5206657981357166e-01 +7.2330010575208279e+00 +6.2313261915900053e+00 -1.1145522301540714e+02 -9.2482465310663047e+03 +2.7805095913184615e+05 +6.9318652879437402e+07 
-1.2000000000000004e+00 -5.5207755492945754e-01 +7.2335203246455695e+00 +6.2109170315640094e+00 -1.1143295011041192e+02 -9.0296393236062304e+03 +2.7791351803921681e+05 +6.8005419841440752e+07 
-1.2500000000000004e+00 -5.5208891521238057e-01 +7.2340594770376159e+00 +6.1901318682262536e+00 -1.1138991745924194e+02 -8.8121949792981086e+03 +2.7767056668000354e+05 +6.6695861527105168e+07 
-1.3000000000000005e+00 -5.5210065989261103e-01 +7.2346184406797764e+00 +6.1689878896314507e+00 -1.1132584321876298e+02 -8.5962888143095606e+03 +2.7732028623120039e+05 +6.5392220643750370e+07 
-1.3500000000000005e+00 -5.5211278820044940e-01 +7.2351971415596497e+00 +6.1475022866369695e+00 -1.1124044573051020e+02 -8.3822962267692728e+03 +2.7686085945751041e+05 +6.4096740479028180e+07 
-1.4000000000000006e+00 -5.5212529936619115e-01 +7.2357955056641128e+00 +6.1256922456345233e+00 -1.1113344327742966e+02 -8.1705924876183308e+03 +2.7629046864499687e+05 +6.2811663433093660e+07 
-1.4500000000000006e+00 -5.5213819262015418e-01 +7.2364134589782578e+00 +6.1035749545361213e+00 -1.1100455402845415e+02 -7.9615529150109023e+03 +2.7560729509220243e+05 +6.1539232249411941e+07 
-1.5000000000000007e+00 -5.5215146719268360e-01 +7.2370509274883634e+00 +6.0811676031020481e+00 -1.1085349619569853e+02 -7.7555528755656760e+03 +2.7480952055701625e+05 +6.0281689992426686e+07 
-1.5500000000000007e+00 -5.5216512231412074e-01 +7.2377078371823247e+00 +6.0584873777273902e+00 -1.1067998801567032e+02 -7.5529676490390411e+03 +2.7389532693448046e+05 +5.9041279154956661e+07 
-1.6000000000000008e+00 -5.5217915721486011e-01 +7.2383841140452612e+00 +6.0355514709428473e+00 -1.1048374759242672e+02 -7.3541726772810944e+03 +2.7286289508760383e+05 +5.7820243311181344e+07 
-1.6500000000000008e+00 -5.5219357112525203e-01 +7.2390796840629541e+00 +6.0123770653342481e+00 -1.1026449302702873e+02 -7.1595431404345172e+03 +2.7171040584094502e+05 +5.6620824291781187e+07 
-1.7000000000000008e+00 -5.5220836327571565e-01 +7.2397944732211323e+00 +5.9889813523013942e+00 -1.1002194239221517e+02 -6.9694544530692519e+03 +2.7043603980331862e+05 +5.5445265497413903e+07 
-1.7500000000000009e+00 -5.5222353289665838e-01 +7.2405284075094727e+00 +5.9653815187266908e+00 -1.0975581390004925e+02 -6.7842819129363543e+03 +2.6903797875414125e+05 +5.4295809561496884e+07 
-1.8000000000000009e+00 -5.5223907921852089e-01 +7.2412814129110803e+00 +5.9415947544638543e+00 -1.0946582546262800e+02 -6.6044008953872772e+03 +2.6751440200148913e+05 +5.3174699627321437e+07 
-1.8500000000000010e+00 -5.5225500147172879e-01 +7.2420534154120357e+00 +5.9176382439155804e+00 -1.0915169509397487e+02 -6.4301866307358678e+03 +2.6586348972768983e+05 +5.2084177868043505e+07 
-1.9000000000000010e+00 -5.5227129888675341e-01 +7.2428443409985839e+00 +5.8935291772232983e+00 -1.0881314077388978e+02 -6.2620145101493254e+03 +2.6408342178433697e+05 +5.1026487567705318e+07 
-1.9500000000000011e+00 -5.5228797069406987e-01 +7.2436541156545839e+00 +5.8692847420007128e+00 -1.0844988037591847e+02 -6.1002598514928832e+03 +2.6217237723408011e+05 +5.0003871493139930e+07 
-2.0000000000000009e+00 -5.5230501612416072e-01 +7.2444826653671131e+00 +5.8449221246483845e+00 -1.0806163187361966e+02 -5.9452979435505831e+03 +2.6012853595341643e+05 +4.9018572230270311e+07 
-2.0500000000000007e+00 -5.5232243416684423e-01 +7.2453299100160713e+00 +5.8204562304474008e+00 -1.0764835611185762e+02 -5.7974439412904358e+03 +2.5795167120791427e+05 +4.8072514255248308e+07 
-2.1000000000000005e+00 -5.5234022284928896e-01 +7.2461957394863203e+00 +5.7958930295354669e+00 -1.0721099439981809e+02 -5.6567662564841057e+03 +2.5564776230124879e+05 +4.7166309714159429e+07 
-2.1500000000000004e+00 -5.5235837995800940e-01 +7.2470800347743811e+00 +5.7712363134243692e+00 -1.0675073604547541e+02 -5.5232700255972231e+03 +2.5322429700650973e+05 +4.6300232883883752e+07 
-2.2000000000000002e+00 -5.5237690327954403e-01 +7.2479826768777027e+00 +5.7464898750607265e+00 -1.0626877036213727e+02 -5.3969604161818061e+03 +2.5068876302181979e+05 +4.5474558221390419e+07 
-2.2500000000000000e+00 -5.5239579060044597e-01 +7.2489035467948630e+00 +5.7216575079437417e+00 -1.0576628671538003e+02 -5.2778426135183872e+03 +2.4804864858112173e+05 +4.4689560316319063e+07 
-2.2999999999999998e+00 -5.5241503970726269e-01 +7.2498425255223475e+00 +5.6967430026184944e+00 -1.0524447434579230e+02 -5.1659217273601171e+03 +2.4531144078319491e+05 +4.3945513263792716e+07 
-2.3499999999999996e+00 -5.5243464838658218e-01 +7.2507994940581986e+00 +5.6717501539940187e+00 -1.0470452255647960e+02 -5.0612029766020969e+03 +2.4248462728488047e+05 +4.3242691862254433e+07 
-2.3999999999999995e+00 -5.5245461442499133e-01 +7.2517743334003990e+00 +5.6466827550935124e+00 -1.0414762061136766e+02 -4.9636915354654566e+03 +2.3957569533246767e+05 +4.2581370632228605e+07 
-2.4499999999999993e+00 -5.5247493560908001e-01 +7.2527669245476245e+00 +5.6215445973401037e+00 -1.0357495780056000e+02 -4.8733925322784753e+03 +2.3659213242193853e+05 +4.1961823772789523e+07 
-2.4999999999999991e+00 -5.5249560972547340e-01 +7.2537771484960851e+00 +5.5963394761491516e+00 -1.0298772329103234e+02 -4.7903112034910355e+03 +2.3354142499687112e+05 +4.1384326215858161e+07 
-2.5499999999999989e+00 -5.5251663456078370e-01 +7.2548048862453109e+00 +5.5710711824595931e+00 -1.0238710637001850e+02 -4.7144526626028510e+03 +2.3043106046264642e+05 +4.0849152055105306e+07 
-2.5999999999999988e+00 -5.5253800790165286e-01 +7.2558500187939039e+00 +5.5457435109062043e+00 -1.0177429627026906e+02 -4.6458221255111548e+03 +2.2726852575174629e+05 +4.0356576083401777e+07 
-2.6499999999999986e+00 -5.5255972753473259e-01 +7.2569124271387846e+00 +5.5203602552541611e+00 -1.0115048214074348e+02 -4.5844247794399398e+03 +2.2406130709108067e+05 +3.9906872882518373e+07 
-2.6999999999999984e+00 -5.5258179124668050e-01 +7.2579919922795133e+00 +5.4949252090912690e+00 -1.0051685322442593e+02 -4.5302658121364539e+03 +2.2081689144116311e+05 +3.9500317056645527e+07 
-2.7499999999999982e+00 -5.5260419682416717e-01 +7.2590885952135560e+00 +5.4694421657745735e+00 -9.9874598661338140e+01 -4.4833503997257585e+03 +2.1754276489117395e+05 +3.9137183111049868e+07 
-2.7999999999999980e+00 -5.5262694205387575e-01 +7.2602021169405395e+00 +5.4439149193509309e+00 -9.9224907668330701e+01 -4.4436837389215389e+03 +2.1424641413372298e+05 +3.8817745697903730e+07 
-2.8499999999999979e+00 -5.5265002472250113e-01 +7.2613324384579707e+00 +5.4183472639496344e+00 -9.8568969357328896e+01 -4.4112710253456362e+03 +2.1093532494954084e+05 +3.8542279448072582e+07 
-2.8999999999999977e+00 -5.5267344261675555e-01 +7.2624794407665263e+00 +5.3927429949432373e+00 -9.7907972966493134e+01 -4.3861174902172170e+03 +2.0761698416468804e+05 +3.8311059243477128e+07 
-2.9499999999999975e+00 -5.5269719352334890e-01 +7.2636430048627663e+00 +5.3671059058258042e+00 -9.7243107540256460e+01 -4.3682283125156355e+03 +2.0429887692945779e+05 +3.8124359603578344e+07 
-2.9999999999999973e+00 -5.5272127522900905e-01 +7.2648230117469614e+00 +5.3414397912024780e+00 -9.6575562269530096e+01 -4.3576086989180130e+03 +2.0098848958825468e+05 +3.7982455228329591e+07 
-3.0499999999999972e+00 -5.5274568552047998e-01 +7.2660193424160884e+00 +5.3157484468087741e+00 -9.5906526194853200e+01 -4.3542638861107907e+03 +1.9769330719787595e+05 +3.7885621019791901e+07 
-3.0999999999999970e+00 -5.5277042218450467e-01 +7.2672318778708203e+00 +5.2900356667691337e+00 -9.5237188506248657e+01 -4.3581990663475926e+03 +1.9442081604438054e+05 +3.7834131573263034e+07 
-3.1499999999999968e+00 -5.5279548300784398e-01 +7.2684604991109953e+00 +5.2643052466618689e+00 -9.4568738327371264e+01 -4.3694194709426074e+03 +1.9117850174489102e+05 +3.7828261748948604e+07 
-3.1999999999999966e+00 -5.5282086577727896e-01 +7.2697050871324693e+00 +5.2385609842227883e+00 -9.3902364630262923e+01 -4.3879303897860736e+03 +1.8797384871543164e+05 +3.7868286804805957e+07 
-3.2499999999999964e+00 -5.5284656827956180e-01 +7.2709655229362449e+00 +5.2128066699147988e+00 -9.3239256576053648e+01 -4.4137369085177434e+03 +1.8481434283718240e+05 +3.7954480587338805e+07 
-3.2999999999999963e+00 -5.5287258830151598e-01 +7.2722416875217721e+00 +5.1870461058716231e+00 -9.2580603255248434e+01 -4.4468444331015198e+03 +1.8170746937872597e+05 +3.8087119128792986e+07 
-3.3499999999999961e+00 -5.5289892362992477e-01 +7.2735334618858687e+00 +5.1612830855508216e+00 -9.1927593639292141e+01 -4.4872581324622133e+03 +1.7866071257771153e+05 +3.8266476848405674e+07 
-3.3999999999999959e+00 -5.5292557205158810e-01 +7.2748407270297752e+00 +5.1355214039816310e+00 -9.1281416868453988e+01 -4.5349832178737925e+03 +1.7568155799727957e+05 +3.8492828451599300e+07 
-3.4499999999999957e+00 -5.5295253135334621e-01 +7.2761633639517651e+00 +5.1097648612699995e+00 -9.0643261964829207e+01 -4.5900250303460170e+03 +1.7277749022880939e+05 +3.8766449493568666e+07 
-3.4999999999999956e+00 -5.5297979932201191e-01 +7.2775012536514527e+00 +5.0840172522322646e+00 -9.0014317980087782e+01 -4.6523887745469528e+03 +1.6995599398794599e+05 +3.9087614630849123e+07 
-3.5499999999999954e+00 -5.5300737374442599e-01 +7.2788542771275155e+00 +5.0582823745712329e+00 -8.9395773935574212e+01 -4.7220797250754740e+03 +1.6722455375144139e+05 +3.9456598964504920e+07 
-3.5999999999999952e+00 -5.5303525240743101e-01 +7.2802223153780163e+00 +5.0325640253108883e+00 -8.8788818812424566e+01 -4.7991031401236978e+03 +1.6459065358425354e+05 +3.9873677491425112e+07 
-3.6499999999999950e+00 -5.5306343309789119e-01 +7.2816052494024541e+00 +5.0068660040556541e+00 -8.8194641640437681e+01 -4.8834643465130703e+03 +1.6206177787529677e+05 +4.0339125668880366e+07 
-3.6999999999999948e+00 -5.5309191360265864e-01 +7.2830029602012187e+00 +4.9811921067113145e+00 -8.7614431484810339e+01 -4.9751685655104948e+03 +1.5964541128502614e+05 +4.0853218219807617e+07 
-3.7499999999999947e+00 -5.5312069170861100e-01 +7.2844153287721989e+00 +4.9555461330973190e+00 -8.7049377301840622e+01 -5.0742211280124939e+03 +1.5734903750079570e+05 +4.1416230622124054e+07 
-3.7999999999999945e+00 -5.5314976520263703e-01 +7.2858422361138464e+00 +4.9299318830177388e+00 -8.6500668062097233e+01 -5.1806273546343427e+03 +1.5518014027271775e+05 +4.2028438246849544e+07 
-3.8499999999999943e+00 -5.5317913187161338e-01 +7.2872835632253130e+00 +4.9043531538509253e+00 -8.5969492762543283e+01 -5.2943925079988785e+03 +1.5314620351203729e+05 +4.2690116103334427e+07 
-3.8999999999999941e+00 -5.5320878950243857e-01 +7.2887391911077017e+00 +4.8788137449393014e+00 -8.5457040474047702e+01 -5.4155218938861153e+03 +1.5125471166434014e+05 +4.3401539456656441e+07 
-3.9499999999999940e+00 -5.5323873588201822e-01 +7.2902090007562910e+00 +4.8533174565698181e+00 -8.4964500030193307e+01 -5.5440208475492209e+03 +1.4951314719488632e+05 +4.4162983782945171e+07 
-3.9999999999999938e+00 -5.5326896879726939e-01 +7.2916928731712929e+00 +4.8278680896308810e+00 -8.4493060437593456e+01 -5.6798947139837710e+03 +1.4792899385877908e+05 +4.4974724604624189e+07 
-4.0499999999999936e+00 -5.5329948590225375e-01 +7.2931906722137514e+00 +4.8024676077621731e+00 -8.4043589589861924e+01 -5.8230871609104215e+03 +1.4650769213042417e+05 +4.5836585034548506e+07 
-4.0999999999999934e+00 -5.5333028431834097e-01 +7.2947021883111125e+00 +4.7771113131326794e+00 -8.3615765585461219e+01 -5.9733042408021229e+03 +1.4524727229360462e+05 +4.6746630514649227e+07 
-4.1499999999999932e+00 -5.5336136103342526e-01 +7.2962271923020356e+00 +4.7517930320361197e+00 -8.3208994224229471e+01 -6.1301946022748189e+03 +1.4414410795156105e+05 +4.7702497814742111e+07 
-4.1999999999999931e+00 -5.5339271303537219e-01 +7.2977654550227600e+00 +4.7265065851087007e+00 -8.2822681204309447e+01 -6.2934067375064069e+03 +1.4319457173808687e+05 +4.8701822641237698e+07 
-4.2499999999999929e+00 -5.5342433731206286e-01 +7.2993167473098852e+00 +4.7012457956133824e+00 -8.2456232287077967e+01 -6.4625892101972422e+03 +1.4239503697374117e+05 +4.9742241183002189e+07 
-4.2999999999999927e+00 -5.5345623085137496e-01 +7.3008808400021907e+00 +4.6760044860789645e+00 -8.2109053321874015e+01 -6.6373905664169497e+03 +1.4174187766476141e+05 +5.0821389517759651e+07 
-4.3499999999999925e+00 -5.5348839064119326e-01 +7.3024575039359529e+00 +4.6507764802814489e+00 -8.1780550066092502e+01 -6.8174593854800023e+03 +1.4123146707463675e+05 +5.1936903940617844e+07 
-4.3999999999999924e+00 -5.5352081366939565e-01 +7.3040465099514424e+00 +4.6255556004240539e+00 -8.1470128484847123e+01 -7.0024442041666080e+03 +1.4086018032044536e+05 +5.3086420460242949e+07 
-4.4499999999999922e+00 -5.5355349692385336e-01 +7.3056476288854419e+00 +4.6003356676436917e+00 -8.1177194394931718e+01 -7.1919935315108796e+03 +1.4062439123494519e+05 +5.4267574897852756e+07 
-4.4999999999999920e+00 -5.5358643739244795e-01 +7.3072606315755468e+00 +4.5751105052256404e+00 -8.0901153677542126e+01 -7.3857559367894710e+03 +1.4052047428094587e+05 +5.5478003487506837e+07 
-4.5499999999999918e+00 -5.5361963206306197e-01 +7.3088852888651630e+00 +4.5498739361275486e+00 -8.0641412469375794e+01 -7.5833799768794725e+03 +1.4054480603714855e+05 +5.6715342365033388e+07 
-4.5999999999999917e+00 -5.5365307792356011e-01 +7.3105213715869626e+00 +4.5246197809497026e+00 -8.0397376497851482e+01 -7.7845141507677881e+03 +1.4069375980833857e+05 +5.7977227291522384e+07 
-4.6499999999999915e+00 -5.5368677196183624e-01 +7.3121686505859627e+00 +4.4993418651426174e+00 -8.0168452011521126e+01 -7.9888070843948199e+03 +1.4096371320132152e+05 +5.9261294871743195e+07 
-4.6999999999999913e+00 -5.5372071116573918e-01 +7.3138268966983864e+00 +4.4740340065227269e+00 -7.9954044928499670e+01 -8.1959071998290292e+03 +1.4135104117226545e+05 +6.0565180336671390e+07 
-4.7499999999999911e+00 -5.5375489252314525e-01 +7.3154958807665489e+00 +4.4486900285090520e+00 -7.9753561440481093e+01 -8.4054630743909765e+03 +1.4185212098507318e+05 +6.1886519979622990e+07 
-4.7999999999999909e+00 -5.5378931302192891e-01 +7.3171753736276157e+00 +4.4233037539756932e+00 -7.9566407550217249e+01 -8.6171232659394664e+03 +1.4246332837805629e+05 +6.3222949940056868e+07 
-4.8499999999999908e+00 -5.5382396964995106e-01 +7.3188651461259795e+00 +4.3978690043410182e+00 -7.9391989587515781e+01 -8.8305362985546471e+03 +1.4318104185981167e+05 +6.4572106149500489e+07 
-4.8999999999999906e+00 -5.5385885939506607e-01 +7.3205649691008352e+00 +4.3723795997566413e+00 -7.9229713695222600e+01 -9.0453506579556579e+03 +1.4400163844643752e+05 +6.5931624260095708e+07 
-4.9499999999999904e+00 -5.5389397924514161e-01 +7.3222746133913770e+00 +4.3468293636075854e+00 -7.9078986050344682e+01 -9.2612149228902745e+03 +1.4492149551042609e+05 +6.7299140574471444e+07 
-4.9999999999999902e+00 -5.5392932618801782e-01 +7.3239938498429771e+00 +4.3212121150980485e+00 -7.8939213105520537e+01 -9.4777775575487085e+03 +1.4593699273529340e+05 +6.8672290607539684e+07 
-5.0499999999999901e+00 -5.5396489721154751e-01 +7.3257224492937034e+00 +4.2955216761292281e+00 -7.8809801056610041e+01 -9.6946871007488753e+03 +1.4704450779007329e+05 +7.0048710384327635e+07 
