# multipoles
# s[mm] polynom_b[n=0][T/m^n] polynom_b[n=1][T/m^n] polynom_b[n=2][T/m^n] polynom_b[n=3][T/m^n] polynom_b[n=4][T/m^n] polynom_b[n=5][T/m^n] polynom_b[n=6][T/m^n] 
+0.0000000000000000e+00 -5.7643708786351666e-01 +7.5457328885849577e+00 +6.6912627466833943e+00 -6.5274526720067598e+01 -1.4746926173531412e+04 +4.7693868509699867e+04 +1.0504017572682902e+08 
-5.0000000000000003e-02 -5.7643799953259511e-01 +7.5457256147521932e+00 +6.6897121323630397e+00 -6.4942079970369477e+01 -1.4691693663266646e+04 +4.4837206567164016e+04 +1.0473874055540027e+08 
-1.0000000000000001e-01 -5.7643932443997670e-01 +7.5457408849919316e+00 +6.6875635363172359e+00 -6.4599077356275899e+01 -1.4635117701607545e+04 +4.1914429281837118e+04 +1.0443551195621145e+08 
-1.5000000000000002e-01 -5.7644106177070820e-01 +7.5457786458931890e+00 +6.6848251667232441e+00 -6.4246275213072792e+01 -1.4577329311054547e+04 +3.8932185853559713e+04 +1.0413103494125576e+08 
-2.0000000000000001e-01 -5.7644321070981852e-01 +7.5458388440423718e+00 +6.6815052256546474e+00 -6.3884429770691924e+01 -1.4518459358735303e+04 +3.5897124746604102e+04 +1.0382585351170060e+08 
-2.5000000000000000e-01 -5.7644577044239564e-01 +7.5459214260326499e+00 +6.6776119216474665e+00 -6.3514297484564260e+01 -1.4458638874909906e+04 +3.2815896168964297e+04 +1.0352051272165886e+08 
-2.9999999999999999e-01 -5.7644874015351000e-01 +7.5460263384498329e+00 +6.6731534571199385e+00 -6.3136634472809178e+01 -1.4397998732786857e+04 +2.9695147539423877e+04 +1.0321555659973665e+08 
-3.4999999999999998e-01 -5.7645211902826810e-01 +7.5461535278886629e+00 +6.6681380374158303e+00 -6.2752197202964346e+01 -1.4336669883041406e+04 +2.6541529170965678e+04 +1.0291152969113731e+08 
-3.9999999999999997e-01 -5.7645590625182008e-01 +7.5463029409383955e+00 +6.6625738721478402e+00 -6.2361741872009041e+01 -1.4274783390588684e+04 +2.3361689098202525e+04 +1.0260897730872461e+08 
-4.4999999999999996e-01 -5.7646010100928635e-01 +7.5464745241948163e+00 +6.6564691625385990e+00 -6.1966024919320702e+01 -1.4212470096150340e+04 +2.0162277352160563e+04 +1.0230844325823729e+08 
-4.9999999999999994e-01 -5.7646470248583648e-01 +7.5466682242504906e+00 +6.6498321149285875e+00 -6.1565802620685346e+01 -1.4149860977958473e+04 +1.6949942604796706e+04 +1.0201047227351949e+08 
-5.4999999999999993e-01 -5.7646970986666191e-01 +7.5468839876988802e+00 +6.6426709361703162e+00 -6.1161831254969208e+01 -1.4087087024188761e+04 +1.3731333532592545e+04 +1.0171560913704161e+08 
-5.9999999999999998e-01 -5.7647512233695908e-01 +7.5471217611378654e+00 +6.6349938309454810e+00 -6.0754867256534297e+01 -1.4024279171196844e+04 +1.0513100110754658e+04 +1.0142439831092425e+08 
-6.5000000000000002e-01 -5.7648093908194209e-01 +7.5473814911608086e+00 +6.6268090036923857e+00 -6.0345666839666904e+01 -1.3961568344949535e+04 +7.3018904585481478e+03 +1.0113738416686846e+08 
-7.0000000000000007e-01 -5.7648715928686212e-01 +7.5476631243651244e+00 +6.6181246619179230e+00 -5.9934986349939273e+01 -1.3899085552573491e+04 +4.1043537823260704e+03 +1.0085511162034695e+08 
-7.5000000000000011e-01 -5.7649378213696867e-01 +7.5479666073476270e+00 +6.6089490099484429e+00 -5.9523582091465293e+01 -1.3836961720296767e+04 +9.2713896730365559e+02 +1.0057812505757974e+08 
-8.0000000000000016e-01 -5.7650080681753779e-01 +7.5482918867076920e+00 +6.5992902534215405e+00 -5.9112210427048460e+01 -1.3775327806984174e+04 -2.2231046640531395e+03 +1.0030696907392755e+08 
-8.5000000000000020e-01 -5.7650823251386318e-01 +7.5486389090440511e+00 +6.5891565978236732e+00 -5.8701627675977115e+01 -1.3714314766939666e+04 -5.3397281120522639e+03 +1.0004218823004176e+08 
-9.0000000000000024e-01 -5.7651605841126363e-01 +7.5490076209548143e+00 +6.5785562497231931e+00 -5.8292590091966453e+01 -1.3654053584087464e+04 -8.4160829486779403e+03 +9.9784327289027557e+07 
-9.5000000000000029e-01 -5.7652428369506559e-01 +7.5493979690407409e+00 +6.5674974142518696e+00 -5.7885854016533095e+01 -1.3594675202622604e+04 -1.1445519994858530e+04 +9.9533930735765353e+07 
-1.0000000000000002e+00 -5.7653290755061615e-01 +7.5498098999009517e+00 +6.5559882968106367e+00 -5.7482175694215719e+01 -1.3536310577520559e+04 -1.4421390861797548e+04 +9.9291543145720109e+07 
-1.0500000000000003e+00 -5.7654192916329183e-01 +7.5502433601392953e+00 +6.5440371049799708e+00 -5.7082311526165761e+01 -1.3479090719360895e+04 -1.7337045897999029e+04 +9.9057709451097116e+07 
-1.1000000000000003e+00 -5.7655134771846539e-01 +7.5506982963549891e+00 +6.5316520423408342e+00 -5.6687017703389813e+01 -1.3423146529755501e+04 -2.0185837154875717e+04 +9.8832973843866915e+07 
-1.1500000000000004e+00 -5.7656116240154853e-01 +7.5511746551512209e+00 +6.5188413163038650e+00 -5.6297050546153841e+01 -1.3368609015171722e+04 -2.2961115610805322e+04 +9.8617881228707671e+07 
-1.2000000000000004e+00 -5.7657137239796352e-01 +7.5516723831299268e+00 +6.5056131331971843e+00 -5.5913166293940186e+01 -1.3315609155183969e+04 -2.5656232916261491e+04 +9.8412976336419255e+07 
-1.2500000000000004e+00 -5.7658197689314516e-01 +7.5521914268953125e+00 +6.4919756984520554e+00 -5.5536121260840957e+01 -1.3264277900052530e+04 -2.8264540052870780e+04 +9.8218803674557015e+07 
-1.3000000000000005e+00 -5.7659297507255369e-01 +7.5527317330489918e+00 +6.4779372188068551e+00 -5.5166671605590075e+01 -1.3214746237892970e+04 -3.0779389357266304e+04 +9.8035908016356900e+07 
-1.3500000000000005e+00 -5.7660436612165666e-01 +7.5532932481988526e+00 +6.4635058993288510e+00 -5.4805573739140215e+01 -1.3167145110544840e+04 -3.3194130971950188e+04 +9.7864833814482987e+07 
-1.4000000000000006e+00 -5.7661614922596494e-01 +7.5538759189449882e+00 +6.4486899495979184e+00 -5.4453583717992657e+01 -1.3121605581713056e+04 -3.5502117981989883e+04 +9.7706126345215127e+07 
-1.4500000000000006e+00 -5.7662832357096949e-01 +7.5544796918944659e+00 +6.4334975731713300e+00 -5.4111457847147726e+01 -1.3078258555648355e+04 -3.7696701442995785e+04 +9.7560329812060222e+07 
-1.5000000000000007e+00 -5.7664088834220284e-01 +7.5551045136530863e+00 +6.4179369771463941e+00 -5.3779952362785394e+01 -1.3037235025460202e+04 -3.9771232918074485e+04 +9.7427988995896012e+07 
-1.5500000000000007e+00 -5.7665384272522091e-01 +7.5557503308248188e+00 +6.4020163704519000e+00 -5.3459823403025993e+01 -1.2998666036249790e+04 -4.1719064740334754e+04 +9.7309649029072717e+07 
-1.6000000000000008e+00 -5.7666718590557609e-01 +7.5564170900166721e+00 +6.3857439580127444e+00 -5.3151827183897367e+01 -1.2962682526310635e+04 -4.3533548658910913e+04 +9.7205854331434086e+07 
-1.6500000000000008e+00 -5.7668091706885205e-01 +7.5571047378349396e+00 +6.3691279476740235e+00 -5.2856719888801280e+01 -1.2929415510892853e+04 -4.5208036563309550e+04 +9.7117149826666653e+07 
-1.7000000000000008e+00 -5.7669503540063827e-01 +7.5578132208858424e+00 +6.3521765452566363e+00 -5.2575257654839689e+01 -1.2898995951857612e+04 -4.6735880791174677e+04 +9.7044080082798615e+07 
-1.7500000000000009e+00 -5.7670954008656750e-01 +7.5585424857750203e+00 +6.3348979612050691e+00 -5.2308196574495625e+01 -1.2871554932616626e+04 -4.8110433972701234e+04 +9.6987190470946863e+07 
-1.8000000000000009e+00 -5.7672443031225484e-01 +7.5592924791129832e+00 +6.3173003999420745e+00 -5.2056292922936379e+01 -1.2847223374433775e+04 -4.9325047180973037e+04 +9.6947025266751543e+07 
-1.8500000000000010e+00 -5.7673970526334806e-01 +7.5600631475024871e+00 +6.2993920692464842e+00 -5.1820302618840941e+01 -1.2826132292744505e+04 -5.0373074441555305e+04 +9.6924129389991939e+07 
-1.9000000000000010e+00 -5.7675536412553086e-01 +7.5608544375534139e+00 +6.2811811796719201e+00 -5.1600981847458556e+01 -1.2808412770413192e+04 -5.1247867556231504e+04 +9.6919048185034215e+07 
-1.9500000000000011e+00 -5.7677140608446598e-01 +7.5616662958749679e+00 +6.2626759355748156e+00 -5.1399086749426537e+01 -1.2794195726143529e+04 -5.1942778621811332e+04 +9.6932325894912988e+07 
-2.0000000000000009e+00 -5.7678783032586967e-01 +7.5624986690732729e+00 +6.2438845482969469e+00 -5.1215373305775820e+01 -1.2783612269822072e+04 -5.2451161037921862e+04 +9.6964508062080666e+07 
-2.0500000000000007e+00 -5.7680463580249841e-01 +7.5633514849960175e+00 +6.2248141359979288e+00 -5.1050367987157607e+01 -1.2776748319113072e+04 -5.2768416454347578e+04 +9.7015882909129441e+07 
-2.1000000000000005e+00 -5.7682182053489439e-01 +7.5642245909117909e+00 +6.2054678923855100e+00 -5.0903705315202785e+01 -1.2773513052221917e+04 -5.2898195817498789e+04 +9.7085749919370115e+07 
-2.1500000000000004e+00 -5.7683938231040832e-01 +7.5651178125422520e+00 +6.1858481384372777e+00 -5.0774803178823532e+01 -1.2773772071235206e+04 -5.2846234469767587e+04 +9.7173169188131660e+07 
-2.2000000000000002e+00 -5.7685731891640402e-01 +7.5660309756115698e+00 +6.1659571953253645e+00 -5.0663079555837179e+01 -1.2777390985457332e+04 -5.2618267031869669e+04 +9.7277200866915137e+07 
-2.2500000000000000e+00 -5.7687562814025806e-01 +7.5669639058406091e+00 +6.1457973838975271e+00 -5.0567952283532165e+01 -1.2784235392218960e+04 -5.2220029223511614e+04 +9.7396905015524641e+07 
-2.2999999999999998e+00 -5.7689430776936035e-01 +7.5679164289559564e+00 +6.1253710254388833e+00 -5.0488839416311770e+01 -1.2794170903490080e+04 -5.1657254961816536e+04 +9.7531341799869597e+07 
-2.3499999999999996e+00 -5.7691335559112444e-01 +7.5688883706819512e+00 +6.1046804430459520e+00 -5.0425158909522715e+01 -1.2807063180797648e+04 -5.0935678947555709e+04 +9.7679571727166623e+07 
-2.3999999999999995e+00 -5.7693276939295390e-01 +7.5698795567421167e+00 +6.0837279556219110e+00 -5.0376328669004025e+01 -1.2822777766732042e+04 -5.0061036281176435e+04 +9.7840654473846480e+07 
-2.4499999999999993e+00 -5.7695254696228293e-01 +7.5708898128608846e+00 +6.0625158858231059e+00 -5.0341766640774495e+01 -1.2841180313410126e+04 -4.9039061640591513e+04 +9.8013650491995946e+07 
-2.4999999999999991e+00 -5.7697268608655738e-01 +7.5719189647636558e+00 +6.0410465554379105e+00 -5.0320890786127869e+01 -1.2862136438805772e+04 -4.7875489629781805e+04 +9.8197619959708393e+07 
-2.5499999999999989e+00 -5.7699318455321169e-01 +7.5729668381749500e+00 +6.0193222831031230e+00 -5.0313119041816790e+01 -1.2885511686298849e+04 -4.6576054928622580e+04 +9.8391622589896664e+07 
-2.5999999999999988e+00 -5.7701404014972402e-01 +7.5740332588191750e+00 +5.9973453926147329e+00 -5.0317869315418292e+01 -1.2911171733582925e+04 -4.5146492505145681e+04 +9.8594718987187102e+07 
-2.6499999999999986e+00 -5.7703525066356554e-01 +7.5751180524231767e+00 +5.9751182044886004e+00 -5.0334559620373838e+01 -1.2938982167880329e+04 -4.3592536377847588e+04 +9.8805969135125369e+07 
-2.6999999999999984e+00 -5.7705681388222529e-01 +7.5762210447121179e+00 +5.9526430405656567e+00 -5.0362607895281421e+01 -1.2968808613645126e+04 -4.1919921138053927e+04 +9.9024433275570899e+07 
-2.7499999999999982e+00 -5.7707872759318124e-01 +7.5773420614096567e+00 +5.9299222189604244e+00 -5.0401432015028398e+01 -1.3000516597562309e+04 -4.0134381867673626e+04 +9.9249171001572862e+07 
-2.7999999999999980e+00 -5.7710098958394862e-01 +7.5784809282441881e+00 +5.9069580622548701e+00 -5.0450450037286373e+01 -1.3033971762550855e+04 -3.8241652132898154e+04 +9.9479242673435792e+07 
-2.8499999999999979e+00 -5.7712359764204468e-01 +7.5796374709400780e+00 +5.8837528919330859e+00 -5.0509079855000103e+01 -1.3069039725512786e+04 -3.6247466815515545e+04 +9.9713708491309106e+07 
-2.8999999999999977e+00 -5.7714654955498434e-01 +7.5808115152221971e+00 +5.8603090267505689e+00 -5.0576739385204249e+01 -1.3105586027680029e+04 -3.4157560536004137e+04 +9.9951628138001770e+07 
-2.9499999999999975e+00 -5.7716984311032360e-01 +7.5820028868176630e+00 +5.8366287910689056e+00 -5.0652846635736040e+01 -1.3143476357555750e+04 -3.1977667126139648e+04 +1.0019206227330592e+08 
-2.9999999999999973e+00 -5.7719347609558080e-01 +7.5832114114521323e+00 +5.8127145010836481e+00 -5.0736819546765616e+01 -1.3182576190268705e+04 -2.9713520976118001e+04 +1.0043407014736429e+08 
-3.0499999999999972e+00 -5.7721744629832061e-01 +7.5844369148513930e+00 +5.7885684795376005e+00 -5.0828076082414078e+01 -1.3222751174546471e+04 -2.7370856157711019e+04 +1.0067671216894269e+08 
-3.0999999999999970e+00 -5.7724175150610313e-01 +7.5856792227422023e+00 +5.7641930467628644e+00 -5.0926034230131009e+01 -1.3263866894596316e+04 -2.4955406591874525e+04 +1.0091904831392838e+08 
-3.1499999999999968e+00 -5.7726638950649689e-01 +7.5869381608501696e+00 +5.7395905226056865e+00 -5.1030111941810304e+01 -1.3305788919596331e+04 -2.2472906405701873e+04 +1.0116013845244297e+08 
-3.1999999999999966e+00 -5.7729135808707577e-01 +7.5882135549014968e+00 +5.7147632265196773e+00 -5.1139727200535006e+01 -1.3348382809523888e+04 -1.9929089419118842e+04 +1.0139904239891632e+08 
-3.2499999999999964e+00 -5.7731665503543039e-01 +7.5895052306222928e+00 +5.6897134794340083e+00 -5.1254297981271648e+01 -1.3391514163360147e+04 -1.7329689503279376e+04 +1.0163482022616315e+08 
-3.2999999999999963e+00 -5.7734227813915051e-01 +7.5908130137379617e+00 +5.6644436007192809e+00 -5.1373242240671793e+01 -1.3435048539260362e+04 -1.4680440623505232e+04 +1.0186653174108171e+08 
-3.3499999999999961e+00 -5.7736822518584552e-01 +7.5921367299762395e+00 +5.6389559113436176e+00 -5.1495978036270131e+01 -1.3478851535378593e+04 -1.1987075865475344e+04 +1.0209323700824638e+08 
-3.3999999999999959e+00 -5.7739449396311648e-01 +7.5934762050608482e+00 +5.6132527300263382e+00 -5.1621923275922981e+01 -1.3522788694084913e+04 -9.2553294638330481e+03 +1.0231399573674841e+08 
-3.4499999999999957e+00 -5.7742108225857136e-01 +7.5948312647204235e+00 +5.5873363750172107e+00 -5.1750496061465320e+01 -1.3566725541870226e+04 -6.4909340809259456e+03 +1.0252786751636739e+08 
-3.4999999999999956e+00 -5.7744798785984508e-01 +7.5962017346793873e+00 +5.5612091677120263e+00 -5.1881114348991787e+01 -1.3610527687589161e+04 -3.6996234527820043e+03 +1.0273391248698707e+08 
-3.5499999999999954e+00 -5.7747520855455459e-01 +7.5975874406636104e+00 +5.5348734257006331e+00 -5.2013196143147375e+01 -1.3654060643653775e+04 -8.8713094511572911e+02 +1.0293119016158244e+08 
-3.5999999999999952e+00 -5.7750274213033714e-01 +7.5989882083997840e+00 +5.5083314687360900e+00 -5.2146159509905296e+01 -1.3697189978956209e+04 +1.9408106994058528e+03 +1.0311876042923522e+08 
-3.6499999999999950e+00 -5.7753058637483490e-01 +7.6004038636126454e+00 +5.4815856151825244e+00 -5.2279422441445291e+01 -1.3739781214512261e+04 +4.7784681574176875e+03 +1.0329568281997669e+08 
-3.6999999999999948e+00 -5.7755873907569710e-01 +7.6018342320284633e+00 +5.4546381855390003e+00 -5.2412402997549059e+01 -1.3781699949463295e+04 +7.6201086904573858e+03 +1.0346101746885429e+08 
-3.7499999999999947e+00 -5.7758719802056324e-01 +7.6032791393721979e+00 +5.4274914955548397e+00 -5.2544519209484370e+01 -1.3822811634767615e+04 +1.0459999423795369e+04 +1.0361382343767360e+08 
-3.7999999999999945e+00 -5.7761596099710177e-01 +7.6047384113690626e+00 +5.4001478657263702e+00 -5.2675189124632261e+01 -1.3862981858051771e+04 +1.3292407634832007e+04 +1.0375316074607730e+08 
-3.8499999999999943e+00 -5.7764502579295474e-01 +7.6062118737454076e+00 +5.3726096113958119e+00 -5.2803830851847557e+01 -1.3902076073285571e+04 +1.6111601164422234e+04 +1.0387808853473885e+08 
-3.8999999999999941e+00 -5.7767439019580880e-01 +7.6076993522277583e+00 +5.3448790539068414e+00 -5.2929862544092224e+01 -1.3939959885679818e+04 +1.8911848356217688e+04 +1.0398766692602141e+08 
-3.9499999999999940e+00 -5.7770405199332142e-01 +7.6092006725365717e+00 +5.3169585087204805e+00 -5.3052702072868342e+01 -1.3976498747059302e+04 +2.1687415098061643e+04 +1.0408095503051506e+08 
-3.9999999999999938e+00 -5.7773400897317029e-01 +7.6107156603999506e+00 +5.2888502942607492e+00 -5.3171767689803914e+01 -1.4011558188591294e+04 +2.4432570677838728e+04 +1.0415701249557163e+08 
-4.0499999999999936e+00 -5.7776425878036131e-01 +7.6122441373363063e+00 +5.2605561557331377e+00 -5.3286565062138337e+01 -1.4045026637892041e+04 +2.7142557710181249e+04 +1.0421514145987992e+08 
-4.0999999999999934e+00 -5.7779479849027771e-01 +7.6137858993118757e+00 +5.2320760442072274e+00 -5.3396821002188844e+01 -1.4076886562126052e+04 +2.9815588016595419e+04 +1.0425561226269935e+08 
-4.1499999999999932e+00 -5.7782562503615487e-01 +7.6153407337274013e+00 +5.2034096131633447e+00 -5.3502287128131080e+01 -1.4107144911404932e+04 +3.2450392711882523e+04 +1.0427893950383855e+08 
-4.1999999999999931e+00 -5.7785673535120763e-01 +7.6169084279848311e+00 +5.1745565123221748e+00 -5.3602715090877233e+01 -1.4135808533930380e+04 +3.5045703005687712e+04 +1.0428563709797947e+08 
-4.2499999999999929e+00 -5.7788812636868103e-01 +7.6184887694820640e+00 +5.1455163960970038e+00 -5.3697856372779128e+01 -1.4162884405142537e+04 +3.7600248673730996e+04 +1.0427621982479092e+08 
-4.2999999999999927e+00 -5.7791979502179691e-01 +7.6200815456221456e+00 +5.1162889150069253e+00 -5.3787462663378818e+01 -1.4188379398811432e+04 +4.0112761138802438e+04 +1.0425120178803824e+08 
-4.3499999999999925e+00 -5.7795173824380541e-01 +7.6216865438067138e+00 +5.0868737236664323e+00 -5.3871285566732702e+01 -1.4212300495525393e+04 +4.2581970966641828e+04 +1.0421109780209835e+08 
-4.3999999999999924e+00 -5.7798395296793581e-01 +7.6233035514374370e+00 +5.0572704735181695e+00 -5.3949076702022069e+01 -1.4234654596014643e+04 +4.5006608858165753e+04 +1.0415642215980464e+08 
-4.4499999999999922e+00 -5.7801643612742359e-01 +7.6249323559186637e+00 +5.0274788169065889e+00 -5.4020587777630332e+01 -1.4255448625280633e+04 +4.7385406113451987e+04 +1.0408768932088009e+08 
-4.4999999999999920e+00 -5.7804918465551192e-01 +7.6265727446531724e+00 +4.9974984073351596e+00 -5.4085570420413688e+01 -1.4274689541885038e+04 +4.9717093242536248e+04 +1.0400541398247075e+08 
-4.5499999999999918e+00 -5.7808219548543338e-01 +7.6282245050438391e+00 +4.9673288961676203e+00 -5.4143776267408278e+01 -1.4292384242414006e+04 +5.2000400805841055e+04 +1.0391011040205470e+08 
-4.5999999999999917e+00 -5.7811546555042126e-01 +7.6298874244969896e+00 +4.9369699354011303e+00 -5.4194957077175232e+01 -1.4308539648304893e+04 +5.4234060227474663e+04 +1.0380229304006109e+08 
-4.6499999999999915e+00 -5.7814899178370893e-01 +7.6315612904164416e+00 +4.9064211772388013e+00 -5.4238864494399557e+01 -1.4323162686737556e+04 +5.6416801887740381e+04 +1.0368247639265884e+08 
-4.6999999999999913e+00 -5.7818277111854366e-01 +7.6332458902084568e+00 +4.8756822759899947e+00 -5.4275250270904920e+01 -1.4336260339949356e+04 +5.8547357015888767e+04 +1.0355117532481189e+08 
-4.7499999999999911e+00 -5.7821680048814772e-01 +7.6349410112780456e+00 +4.8447528820632453e+00 -5.4303866075172486e+01 -1.4347839487679325e+04 +6.0624455950160838e+04 +1.0340890401831540e+08 
-4.7999999999999909e+00 -5.7825107682575372e-01 +7.6366464410338679e+00 +4.8136326481830674e+00 -5.4324463735310282e+01 -1.4357907076549136e+04 +6.2646830323340218e+04 +1.0325617712355341e+08 
-4.8499999999999908e+00 -5.7828559706458627e-01 +7.6383619668834282e+00 +4.7823212253671210e+00 -5.4336795006133173e+01 -1.4366470002539321e+04 +6.4613210981394048e+04 +1.0309350893349554e+08 
-4.8999999999999906e+00 -5.7832035813788230e-01 +7.6400873762328043e+00 +4.7508182678917050e+00 -5.4340611585055221e+01 -1.4373535257780091e+04 +6.6522328226659665e+04 +1.0292141442035283e+08 
-4.9499999999999904e+00 -5.7835535697885843e-01 +7.6418224564944923e+00 +4.7191234267362532e+00 -5.4335665417286187e+01 -1.4379109744768373e+04 +6.8372914256430682e+04 +1.0274040794871980e+08 
-4.9999999999999902e+00 -5.7839059052073816e-01 +7.6435669950737211e+00 +4.6872363537660195e+00 -5.4321708150254622e+01 -1.4383200385462227e+04 +7.0163698745315443e+04 +1.0255100400044324e+08 
-5.0499999999999901e+00 -5.7842605569674110e-01 +7.6453207793816507e+00 +4.6551567016761437e+00 -5.4298491660025803e+01 -1.4385814134069677e+04 +7.1893413092154107e+04 +1.0235371731107907e+08 
