# field on trajectory
# s[mm] rx[mm] ry[mm] rz[mm] bx[T] by[T] bz[T]
0.0000000000000000e+00 +8.5269999999999904e+00 +0.0000000000000000e+00 +0.0000000000000000e+00 -2.6558567422292970e-02 -5.2327669263506782e-01 +5.2149335623559627e-03
5.0000000000000003e-02 +8.5269999309457507e+00 +0.0000000000000000e+00 +4.9999999999936401e-02 -2.6558642590940599e-02 -5.2327646315540766e-01 +5.2151424351446060e-03
1.0000000000000001e-01 +8.5269997237883199e+00 +0.0000000000000000e+00 +9.9999999999491399e-02 -2.6558735883380244e-02 -5.2327660329917058e-01 +5.2153538121025795e-03
1.4999999999999999e-01 +8.5269993785295792e+00 +0.0000000000000000e+00 +1.4999999999828301e-01 -2.6558847286498700e-02 -5.2327711232565455e-01 +5.2155676946598470e-03
2.0000000000000001e-01 +8.5269988951622508e+00 +0.0000000000000000e+00 +1.9999999999593099e-01 -2.6558976787187369e-02 -5.2327798949423587e-01 +5.2157840842470245e-03
2.5000000000000000e-01 +8.5269982736936107e+00 +0.0000000000000000e+00 +2.4999999999205300e-01 -2.6559124372333057e-02 -5.2327923406420740e-01 +5.2160029822937862e-03
2.9999999999999999e-01 +8.5269975141200103e+00 +0.0000000000000000e+00 +2.9999999998626797e-01 -2.6559290028827842e-02 -5.2328084529495367e-01 +5.2162243902305911e-03
3.4999999999999998e-01 +8.5269966164378292e+00 +0.0000000000000000e+00 +3.4999999997819298e-01 -2.6559473743564842e-02 -5.2328282244587554e-01 +5.2164483094879329e-03
4.0000000000000002e-01 +8.5269955806543294e+00 +0.0000000000000000e+00 +3.9999999996744900e-01 -2.6559675503433969e-02 -5.2328516477631470e-01 +5.2166747414956315e-03
4.5000000000000001e-01 +8.5269944067658798e+00 +0.0000000000000000e+00 +4.4999999995365297e-01 -2.6559895295330371e-02 -5.2328787154570433e-01 +5.2169036876842682e-03
5.0000000000000000e-01 +8.5269930947724806e+00 +0.0000000000000000e+00 +4.9999999993642402e-01 -2.6560133106148808e-02 -5.2329094201346849e-01 +5.2171351494842318e-03
5.5000000000000004e-01 +8.5269916446777607e+00 +0.0000000000000000e+00 +5.4999999991537996e-01 -2.6560388922783607e-02 -5.2329437543902169e-01 +5.2173691283257150e-03
5.9999999999999998e-01 +8.5269900564744603e+00 +0.0000000000000000e+00 +5.9999999989013997e-01 -2.6560662732134321e-02 -5.2329817108187027e-01 +5.2176056256396808e-03
6.5000000000000002e-01 +8.5269883301661995e+00 +0.0000000000000000e+00 +6.4999999986032297e-01 -2.6560954521097295e-02 -5.2330232820146050e-01 +5.2178446428564097e-03
6.9999999999999996e-01 +8.5269864657566394e+00 +0.0000000000000000e+00 +6.9999999982554695e-01 -2.6561264276569786e-02 -5.2330684605725408e-01 +5.2180861814062358e-03
7.5000000000000000e-01 +8.5269844632421208e+00 +0.0000000000000000e+00 +7.4999999978543097e-01 -2.6561591985452864e-02 -5.2331172390877911e-01 +5.2183302427200196e-03
8.0000000000000004e-01 +8.5269823226226400e+00 +0.0000000000000000e+00 +7.9999999973959202e-01 -2.6561937634647176e-02 -5.2331696101555381e-01 +5.2185768282284233e-03
8.4999999999999998e-01 +8.5269800438982202e+00 +0.0000000000000000e+00 +8.4999999968765005e-01 -2.6562301211054250e-02 -5.2332255663711091e-01 +5.2188259393621626e-03
9.0000000000000002e-01 +8.5269776270688507e+00 +0.0000000000000000e+00 +8.9999999962922395e-01 -2.6562682701576589e-02 -5.2332851003299918e-01 +5.2190775775519992e-03
9.4999999999999996e-01 +8.5269750721381605e+00 +0.0000000000000000e+00 +9.4999999956393100e-01 -2.6563082093116249e-02 -5.2333482046275792e-01 +5.2193317442285059e-03
1.0000000000000000e+00 +8.5269723790988792e+00 +0.0000000000000000e+00 +9.9999999949139096e-01 -2.6563499372580384e-02 -5.2334148718601547e-01 +5.2195884408230229e-03
1.0500000000000000e+00 +8.5269695479546499e+00 +0.0000000000000000e+00 +1.0499999994112199e+00 -2.6563934526872852e-02 -5.2334850946234079e-01 +5.2198476687662140e-03
1.1000000000000001e+00 +8.5269665787091107e+00 +0.0000000000000000e+00 +1.0999999993230400e+00 -2.6564387542898429e-02 -5.2335588655131771e-01 +5.2201094294888018e-03
1.1499999999999999e+00 +8.5269634713586093e+00 +0.0000000000000000e+00 +1.1499999992264700e+00 -2.6564858407565586e-02 -5.2336361771259421e-01 +5.2203737244220358e-03
1.2000000000000000e+00 +8.5269602259031707e+00 +0.0000000000000000e+00 +1.1999999991211201e+00 -2.6565347107782286e-02 -5.2337170220580864e-01 +5.2206405549969749e-03
1.2500000000000000e+00 +8.5269568423427700e+00 +0.0000000000000000e+00 +1.2499999990066200e+00 -2.6565853630457360e-02 -5.2338013929061367e-01 +5.2209099226447316e-03
1.3000000000000000e+00 +8.5269533206774195e+00 +0.0000000000000000e+00 +1.2999999988825901e+00 -2.6566377962500540e-02 -5.2338892822667615e-01 +5.2211818287964664e-03
1.3500000000000001e+00 +8.5269496609071194e+00 +0.0000000000000000e+00 +1.3499999987486300e+00 -2.6566920090822382e-02 -5.2339806827367830e-01 +5.2214562748834018e-03
1.3999999999999999e+00 +8.5269458630355093e+00 +0.0000000000000000e+00 +1.3999999986043801e+00 -2.6567480002332899e-02 -5.2340755869129019e-01 +5.2217332623365519e-03
1.4500000000000000e+00 +8.5269419270553009e+00 +0.0000000000000000e+00 +1.4499999984494401e+00 -2.6568057683947200e-02 -5.2341739873927240e-01 +5.2220127925877323e-03
1.5000000000000000e+00 +8.5269378529737896e+00 +0.0000000000000000e+00 +1.4999999982834400e+00 -2.6568653122575558e-02 -5.2342758767729847e-01 +5.2222948670678183e-03
1.5500000000000000e+00 +8.5269336407873197e+00 +0.0000000000000000e+00 +1.5499999981060000e+00 -2.6569266305133326e-02 -5.2343812476513163e-01 +5.2225794872084895e-03
1.6000000000000001e+00 +8.5269292904959002e+00 +0.0000000000000000e+00 +1.5999999979167401e+00 -2.6569897218535275e-02 -5.2344900926252436e-01 +5.2228666544412283e-03
1.6499999999999999e+00 +8.5269248020995292e+00 +0.0000000000000000e+00 +1.6499999977152600e+00 -2.6570545849696956e-02 -5.2346024042924211e-01 +5.2231563701975615e-03
1.7000000000000000e+00 +8.5269201755982102e+00 +0.0000000000000000e+00 +1.6999999975011999e+00 -2.6571212185534751e-02 -5.2347181752506433e-01 +5.2234486359090870e-03
1.7500000000000000e+00 +8.5269154109919292e+00 +0.0000000000000000e+00 +1.7499999972741700e+00 -2.6571896212965837e-02 -5.2348373980978435e-01 +5.2237434530074504e-03
1.8000000000000000e+00 +8.5269105082843506e+00 +0.0000000000000000e+00 +1.7999999970337901e+00 -2.6572597918906728e-02 -5.2349600654318373e-01 +5.2240408229241022e-03
1.8500000000000001e+00 +8.5269054674718099e+00 +0.0000000000000000e+00 +1.8499999967796801e+00 -2.6573317290277603e-02 -5.2350861698510776e-01 +5.2243407470910557e-03
1.8999999999999999e+00 +8.5269002885506797e+00 +0.0000000000000000e+00 +1.8999999965114500e+00 -2.6574054313999333e-02 -5.2352157039541503e-01 +5.2246432269403590e-03
1.9500000000000000e+00 +8.5268949715282396e+00 +0.0000000000000000e+00 +1.9499999962287300e+00 -2.6574808976989397e-02 -5.2353486603390187e-01 +5.2249482639034027e-03
2.0000000000000000e+00 +8.5268895164008391e+00 +0.0000000000000000e+00 +1.9999999959311201e+00 -2.6575581266170187e-02 -5.2354850316045309e-01 +5.2252558594123579e-03
2.0499999999999998e+00 +8.5268839230666291e+00 +0.0000000000000000e+00 +2.0499999956182600e+00 -2.6576371165786084e-02 -5.2356248083805323e-01 +5.2255660140329415e-03
2.1000000000000001e+00 +8.5268781914164702e+00 +0.0000000000000000e+00 +2.0999999952897199e+00 -2.6577178649217360e-02 -5.2357679733939289e-01 +5.2258787248390453e-03
2.1499999999999999e+00 +8.5268723214576294e+00 +0.0000000000000000e+00 +2.1499999949451398e+00 -2.6578003687082685e-02 -5.2359145073878499e-01 +5.2261939880238230e-03
2.2000000000000002e+00 +8.5268663131864706e+00 +0.0000000000000000e+00 +2.1999999945841302e+00 -2.6578846250005329e-02 -5.2360643911062899e-01 +5.2265117997813632e-03
2.2500000000000000e+00 +8.5268601666030008e+00 +0.0000000000000000e+00 +2.2499999942063100e+00 -2.6579706308607471e-02 -5.2362176052930920e-01 +5.2268321563057355e-03
2.2999999999999998e+00 +8.5268538817035697e+00 +0.0000000000000000e+00 +2.2999999938113000e+00 -2.6580583833513090e-02 -5.2363741306924660e-01 +5.2271550537914737e-03
2.3500000000000001e+00 +8.5268474584954692e+00 +0.0000000000000000e+00 +2.3499999933987001e+00 -2.6581478795342155e-02 -5.2365339480479689e-01 +5.2274804884326186e-03
2.3999999999999999e+00 +8.5268408969750507e+00 +0.0000000000000000e+00 +2.3999999929681501e+00 -2.6582391164719166e-02 -5.2366970381040145e-01 +5.2278084564241802e-03
2.4500000000000002e+00 +8.5268341971459396e+00 +0.0000000000000000e+00 +2.4499999925192602e+00 -2.6583320912266034e-02 -5.2368633816046239e-01 +5.2281389539609383e-03
2.5000000000000000e+00 +8.5268273590008903e+00 +0.0000000000000000e+00 +2.4999999920516398e+00 -2.6584268008609156e-02 -5.2370329592946563e-01 +5.2284719772386625e-03
2.5499999999999998e+00 +8.5268203825435194e+00 +0.0000000000000000e+00 +2.5499999915649201e+00 -2.6585232424370792e-02 -5.2372057519183224e-01 +5.2288075224526604e-03
2.6000000000000001e+00 +8.5268132677774702e+00 +0.0000000000000000e+00 +2.5999999910586999e+00 -2.6586214130173438e-02 -5.2373817402199385e-01 +5.2291455857985123e-03
2.6499999999999999e+00 +8.5268060146954703e+00 +0.0000000000000000e+00 +2.6499999905326099e+00 -2.6587213096643920e-02 -5.2375609049446503e-01 +5.2294861634728275e-03
2.7000000000000002e+00 +8.5267986233047797e+00 +0.0000000000000000e+00 +2.6999999899862699e+00 -2.6588229294403486e-02 -5.2377432268366964e-01 +5.2298292516715231e-03
2.7500000000000000e+00 +8.5267910936017905e+00 +0.0000000000000000e+00 +2.7499999894192899e+00 -2.6589262694077759e-02 -5.2379286866411690e-01 +5.2301748465915640e-03
2.7999999999999998e+00 +8.5267834255828294e+00 +0.0000000000000000e+00 +2.7999999888312899e+00 -2.6590313266292385e-02 -5.2381172651032382e-01 +5.2305229444302203e-03
2.8500000000000001e+00 +8.5267756192552007e+00 +0.0000000000000000e+00 +2.8499999882218900e+00 -2.6591380981668748e-02 -5.2383089429674035e-01 +5.2308735413843519e-03
2.8999999999999999e+00 +8.5267676746152592e+00 +0.0000000000000000e+00 +2.8999999875907001e+00 -2.6592465810832504e-02 -5.2385037009790136e-01 +5.2312266336518812e-03
2.9500000000000002e+00 +8.5267595916629908e+00 +0.0000000000000000e+00 +2.9499999869373399e+00 -2.6593567724407872e-02 -5.2387015198832398e-01 +5.2315822174308271e-03
3.0000000000000000e+00 +8.5267513703984203e+00 +0.0000000000000000e+00 +2.9999999862614302e+00 -2.6594686693018944e-02 -5.2389023804253354e-01 +5.2319402889195593e-03
3.0499999999999998e+00 +8.5267430108251592e+00 +0.0000000000000000e+00 +3.0499999855625899e+00 -2.6595822687288363e-02 -5.2391062633503804e-01 +5.2323008443165503e-03
3.1000000000000001e+00 +8.5267345129359509e+00 +0.0000000000000000e+00 +3.0999999848404300e+00 -2.6596975677842871e-02 -5.2393131494042899e-01 +5.2326638798213792e-03
3.1499999999999999e+00 +8.5267258767344192e+00 +0.0000000000000000e+00 +3.1499999840945798e+00 -2.6598145635304823e-02 -5.2395230193322906e-01 +5.2330293916332624e-03
3.2000000000000002e+00 +8.5267171022205694e+00 +0.0000000000000000e+00 +3.1999999833246400e+00 -2.6599332530297823e-02 -5.2397358538799443e-01 +5.2333973759520445e-03
3.2500000000000000e+00 +8.5267081893980503e+00 +0.0000000000000000e+00 +3.2499999825302401e+00 -2.6600536333443843e-02 -5.2399516337926266e-01 +5.2337678289777097e-03
3.2999999999999998e+00 +8.5266991382632096e+00 +0.0000000000000000e+00 +3.2999999817109900e+00 -2.6601757015367451e-02 -5.2401703398162836e-01 +5.2341407469111466e-03
3.3500000000000001e+00 +8.5266899488124199e+00 +0.0000000000000000e+00 +3.3499999808665200e+00 -2.6602994546692987e-02 -5.2403919526969267e-01 +5.2345161259536354e-03
3.3999999999999999e+00 +8.5266806210529502e+00 +0.0000000000000000e+00 +3.3999999799964300e+00 -2.6604248898040223e-02 -5.2406164531798871e-01 +5.2348939623061480e-03
3.4500000000000002e+00 +8.5266711549811607e+00 +0.0000000000000000e+00 +3.4499999791003502e+00 -2.6605520040032877e-02 -5.2408438220113029e-01 +5.2352742521708196e-03
3.5000000000000000e+00 +8.5266615505970496e+00 +0.0000000000000000e+00 +3.4999999781778901e+00 -2.6606807943292936e-02 -5.2410740399371292e-01 +5.2356569917499669e-03
3.5499999999999998e+00 +8.5266518079006293e+00 +0.0000000000000000e+00 +3.5499999772286701e+00 -2.6608112578441957e-02 -5.2413070877033774e-01 +5.2360421772463519e-03
3.6000000000000001e+00 +8.5266419268882601e+00 +0.0000000000000000e+00 +3.5999999762523198e+00 -2.6609433916102616e-02 -5.2415429460563701e-01 +5.2364298048634423e-03
3.6499999999999999e+00 +8.5266319075708505e+00 +0.0000000000000000e+00 +3.6499999752484298e+00 -2.6610771926891392e-02 -5.2417815957414748e-01 +5.2368198708041746e-03
3.6999999999999900e+00 +8.5266217499374797e+00 +0.0000000000000000e+00 +3.6999999742166398e+00 -2.6612126581432884e-02 -5.2420230175056326e-01 +5.2372123712734345e-03
3.7499999999999898e+00 +8.5266114539917908e+00 +0.0000000000000000e+00 +3.7499999731565601e+00 -2.6613497850345530e-02 -5.2422671920948116e-01 +5.2376073024756010e-03
3.7999999999999901e+00 +8.5266010197374307e+00 +0.0000000000000000e+00 +3.7999999720678099e+00 -2.6614885704247245e-02 -5.2425141002550535e-01 +5.2380046606155363e-03
3.8499999999999899e+00 +8.5265904471671092e+00 +0.0000000000000000e+00 +3.8499999709499999e+00 -2.6616290113759673e-02 -5.2427637227331791e-01 +5.2384044418993430e-03
3.8999999999999901e+00 +8.5265797362881095e+00 +0.0000000000000000e+00 +3.8999999698027499e+00 -2.6617711049498241e-02 -5.2430160402750692e-01 +5.2388066425326368e-03
3.9499999999999900e+00 +8.5265688870931609e+00 +0.0000000000000000e+00 +3.9499999686256899e+00 -2.6619148482083424e-02 -5.2432710336276367e-01 +5.2392112587225387e-03
3.9999999999999898e+00 +8.5265578995895304e+00 +0.0000000000000000e+00 +3.9999999674184199e+00 -2.6620602382129450e-02 -5.2435286835368489e-01 +5.2396182866756985e-03
4.0499999999999901e+00 +8.5265467737735907e+00 +0.0000000000000000e+00 +4.0499999661805601e+00 -2.6622072694685965e-02 -5.2437889694381457e-01 +5.2400277227550333e-03
4.0999999999999899e+00 +8.5265355096416897e+00 +0.0000000000000000e+00 +4.0999999649117402e+00 -2.6623559262529729e-02 -5.2440518655217705e-01 +5.2404395639438191e-03
4.1499999999999897e+00 +8.5265241072047502e+00 +0.0000000000000000e+00 +4.1499999636115703e+00 -2.6625061902864438e-02 -5.2443173446656699e-01 +5.2408538073794491e-03
4.1999999999999904e+00 +8.5265125664518600e+00 +0.0000000000000000e+00 +4.1999999622796604e+00 -2.6626580432903488e-02 -5.2445853797493303e-01 +5.2412704502008620e-03
4.2499999999999902e+00 +8.5265008873866499e+00 +0.0000000000000000e+00 +4.2499999609156403e+00 -2.6628114669855707e-02 -5.2448559436512432e-01 +5.2416894895460754e-03
4.2999999999999901e+00 +8.5264890700091200e+00 +0.0000000000000000e+00 +4.2999999595191198e+00 -2.6629664430932499e-02 -5.2451290092501801e-01 +5.2421109225534003e-03
4.3499999999999899e+00 +8.5264771143192792e+00 +0.0000000000000000e+00 +4.3499999580897200e+00 -2.6631229533346477e-02 -5.2454045494249268e-01 +5.2425347463612038e-03
4.3999999999999897e+00 +8.5264650203207601e+00 +0.0000000000000000e+00 +4.3999999566270596e+00 -2.6632809794310059e-02 -5.2456825370540305e-01 +5.2429609581076493e-03
4.4499999999999904e+00 +8.5264527880062797e+00 +0.0000000000000000e+00 +4.4499999551307496e+00 -2.6634405031041152e-02 -5.2459629450168110e-01 +5.2433895549316789e-03
4.4999999999999902e+00 +8.5264404173794901e+00 +0.0000000000000000e+00 +4.4999999536004101e+00 -2.6636015060754671e-02 -5.2462457461918366e-01 +5.2438205339715230e-03
4.5499999999999901e+00 +8.5264279084440204e+00 +0.0000000000000000e+00 +4.5499999520356598e+00 -2.6637639700666845e-02 -5.2465309134576898e-01 +5.2442538923654410e-03
4.5999999999999899e+00 +8.5264152611962292e+00 +0.0000000000000000e+00 +4.5999999504361098e+00 -2.6639278767998077e-02 -5.2468184196934609e-01 +5.2446896272522088e-03
4.6499999999999897e+00 +8.5264024756361305e+00 +0.0000000000000000e+00 +4.6499999488013897e+00 -2.6640932079968677e-02 -5.2471082377779921e-01 +5.2451277357703661e-03
4.6999999999999904e+00 +8.5263895517600794e+00 +0.0000000000000000e+00 +4.6999999471311096e+00 -2.6642599453801763e-02 -5.2474003405903802e-01 +5.2455682150587138e-03
4.7499999999999902e+00 +8.5263764895753393e+00 +0.0000000000000000e+00 +4.7499999454248902e+00 -2.6644280706717604e-02 -5.2476947010089592e-01 +5.2460110622553121e-03
4.7999999999999901e+00 +8.5263632890782901e+00 +0.0000000000000000e+00 +4.7999999436823400e+00 -2.6645975655942154e-02 -5.2479912919128269e-01 +5.2464562744989644e-03
4.8499999999999899e+00 +8.5263499502725608e+00 +0.0000000000000000e+00 +4.8499999419030901e+00 -2.6647684118699992e-02 -5.2482900861805615e-01 +5.2469038489279659e-03
4.8999999999999897e+00 +8.5263364731472393e+00 +0.0000000000000000e+00 +4.8999999400867402e+00 -2.6649405912222847e-02 -5.2485910566917526e-01 +5.2473537826815938e-03
4.9499999999999904e+00 +8.5263228577168793e+00 +0.0000000000000000e+00 +4.9499999382329296e+00 -2.6651140853734035e-02 -5.2488941763242103e-01 +5.2478060728973694e-03
4.9999999999999902e+00 +8.5263091039705596e+00 +0.0000000000000000e+00 +4.9999999363412497e+00 -2.6652888760468355e-02 -5.2491994179574930e-01 +5.2482607167145239e-03
5.0499999999999901e+00 +8.5262952115954196e+00 +0.0000000000000000e+00 +5.0499999344112600e+00 -2.6654649449780556e-02 -5.2495067544921337e-01 +5.2487177112928284e-03
5.0999999999999899e+00 +8.5262811802713294e+00 +0.0000000000000000e+00 +5.0999999324424596e+00 -2.6656422739030006e-02 -5.2498161588291647e-01 +5.2491770537925380e-03
5.1499999999999897e+00 +8.5262670100019005e+00 +0.0000000000000000e+00 +5.1499999304344799e+00 -2.6658208445450724e-02 -5.2501276038471245e-01 +5.2496387413518324e-03
5.1999999999999904e+00 +8.5262527007798798e+00 +0.0000000000000000e+00 +5.1999999283869203e+00 -2.6660006386282666e-02 -5.2504410624252862e-01 +5.2501027711095846e-03
5.2499999999999902e+00 +8.5262382526088896e+00 +0.0000000000000000e+00 +5.2499999262994104e+00 -2.6661816378763192e-02 -5.2507565074421414e-01 +5.2505691402038729e-03
5.2999999999999901e+00 +8.5262236654925800e+00 +0.0000000000000000e+00 +5.2999999241715603e+00 -2.6663638240131370e-02 -5.2510739117761607e-01 +5.2510378457727228e-03
5.3499999999999899e+00 +8.5262089394273097e+00 +0.0000000000000000e+00 +5.3499999220029704e+00 -2.6665471787630807e-02 -5.2513932483062864e-01 +5.2515088849545760e-03
5.3999999999999897e+00 +8.5261940744130698e+00 +0.0000000000000000e+00 +5.3999999197932702e+00 -2.6667316838505480e-02 -5.2517144899111856e-01 +5.2519822548875734e-03
5.4499999999999904e+00 +8.5261790704498708e+00 +0.0000000000000000e+00 +5.4499999175420601e+00 -2.6669173210001135e-02 -5.2520376094694954e-01 +5.2524579527097699e-03
5.4999999999999902e+00 +8.5261639275377092e+00 +0.0000000000000000e+00 +5.4999999152489698e+00 -2.6671040719365290e-02 -5.2523625798598084e-01 +5.2529359755591485e-03
5.5499999999999901e+00 +8.5261486456802196e+00 +0.0000000000000000e+00 +5.5499999129136004e+00 -2.6672919183845911e-02 -5.2526893739604397e-01 +5.2534163205733425e-03
5.5999999999999899e+00 +8.5261332248737691e+00 +0.0000000000000000e+00 +5.5999999105355700e+00 -2.6674808420695639e-02 -5.2530179646501662e-01 +5.2538989848904000e-03
5.6499999999999897e+00 +8.5261176651147306e+00 +0.0000000000000000e+00 +5.6499999081144896e+00 -2.6676708247169056e-02 -5.2533483248077284e-01 +5.2543839656482728e-03
5.6999999999999904e+00 +8.5261019664103497e+00 +0.0000000000000000e+00 +5.6999999056499897e+00 -2.6678618480518317e-02 -5.2536804273110604e-01 +5.2548712599840564e-03
5.7499999999999902e+00 +8.5260861287570204e+00 +0.0000000000000000e+00 +5.7499999031416600e+00 -2.6680538938001822e-02 -5.2540142450388150e-01 +5.2553608650354813e-03
5.7999999999999901e+00 +8.5260701521547198e+00 +0.0000000000000000e+00 +5.7999999005891203e+00 -2.6682469436878499e-02 -5.2543497508693449e-01 +5.2558527779399174e-03
5.8499999999999899e+00 +8.5260540366070892e+00 +0.0000000000000000e+00 +5.8499998979920003e+00 -2.6684409794407858e-02 -5.2546869176806943e-01 +5.2563469958343623e-03
5.8999999999999897e+00 +8.5260377821068705e+00 +0.0000000000000000e+00 +5.8999998953498896e+00 -2.6686359827855687e-02 -5.2550257183516214e-01 +5.2568435158564346e-03
