# multipoles
# s[mm] polynom_b[n=0][T/m^n] polynom_b[n=1][T/m^n] polynom_b[n=2][T/m^n] polynom_b[n=3][T/m^n] polynom_b[n=4][T/m^n] polynom_b[n=5][T/m^n] polynom_b[n=6][T/m^n] 
+0.0000000000000000e+00 -5.2365098758296991e-01 +6.8623760457736411e+00 +5.1804079763107218e+00 -7.6227417363939395e+01 +1.5391881351279692e+03 +2.0828559201462881e+05 -1.2846344823111296e+06 
-5.0000000000000003e-02 -5.2365114167389570e-01 +6.8623896800563715e+00 +5.1776476958711237e+00 -7.6189378368108336e+01 +1.5865687553347070e+03 +2.0694038879018757e+05 -1.5177224873209132e+06 
-1.0000000000000001e-01 -5.2365167027125781e-01 +6.8624226810447064e+00 +5.1748404592963455e+00 -7.6146016371841625e+01 +1.6249596724511894e+03 +2.0566187338813071e+05 -1.6975257274520856e+06 
-1.5000000000000002e-01 -5.2365257249735242e-01 +6.8624749962624634e+00 +5.1719738822586123e+00 -7.6096715651295654e+01 +1.6546821797322939e+03 +2.0444313655228159e+05 -1.8260082319349905e+06 
-2.0000000000000001e-01 -5.2365384747448895e-01 +6.8625465732325130e+00 +5.1690355794772991e+00 -7.6040860412933867e+01 +1.6760576009880356e+03 +2.0327726845399590e+05 -1.9051342603239238e+06 
-2.5000000000000000e-01 -5.2365549432499892e-01 +6.8626373594813455e+00 +5.1660131668719194e+00 -7.5977834991461464e+01 +1.6894072214387047e+03 +2.0215736033229186e+05 -1.9368677851152315e+06 
-2.9999999999999999e-01 -5.2365751217121570e-01 +6.8627473025326662e+00 +5.1628942579265535e+00 -7.5907023568118206e+01 +1.6950523938304880e+03 +2.0107650213985739e+05 -1.9231732519419740e+06 
-3.4999999999999998e-01 -5.2365990013551089e-01 +6.8628763499108931e+00 +5.1596664698266625e+00 -7.5827810340194901e+01 +1.6933143678419924e+03 +2.0002778400717251e+05 -1.8660143944009149e+06 
-3.9999999999999997e-01 -5.2366265734025597e-01 +6.8630244491430892e+00 +5.1563174168518771e+00 -7.5739579572779903e+01 +1.6845144724377024e+03 +1.9900429656933033e+05 -1.7673554898416102e+06 
-4.4999999999999996e-01 -5.2366578290786014e-01 +6.8631915477534298e+00 +5.1528347167553665e+00 -7.5641715399495695e+01 +1.6689739433755312e+03 +1.9799912944884424e+05 -1.6291601875181501e+06 
-4.9999999999999994e-01 -5.2366927596071322e-01 +6.8633775932692389e+00 +5.1492059815956637e+00 -7.5533602045998776e+01 +1.6470141662032559e+03 +1.9700537297372124e+05 -1.4533931398564118e+06 
-5.4999999999999993e-01 -5.2367313562125373e-01 +6.8635825332168707e+00 +5.1454188286573084e+00 -7.5414623677260494e+01 +1.6189563853634490e+03 +1.9601611700825542e+05 -1.2420180434351487e+06 
-5.9999999999999998e-01 -5.2367736101191664e-01 +6.8638063151221003e+00 +5.1414608718040888e+00 -7.5284164414763296e+01 +1.5851219390599877e+03 +1.9502445108320619e+05 -9.9699923671078612e+05 
-6.5000000000000002e-01 -5.2368195125517658e-01 +6.8640488865133502e+00 +5.1373197294032851e+00 -7.5141608445797715e+01 +1.5458320405924367e+03 +1.9402346520500092e+05 -7.2030020508655312e+05 
-7.0000000000000007e-01 -5.2368690547348307e-01 +6.8643101949172793e+00 +5.1329830118139519e+00 -7.4986339877656491e+01 +1.5014081210306472e+03 +1.9300624880853473e+05 -4.1388590792058606e+05 
-7.5000000000000011e-01 -5.2369222278934324e-01 +6.8645901878639997e+00 +5.1284383374911631e+00 -7.4817742921786220e+01 +1.4521713898578316e+03 +1.9196589213422619e+05 -7.9719801874960001e+04 
-8.0000000000000016e-01 -5.2369790232525393e-01 +6.8648888128814676e+00 +5.1236733199596847e+00 -7.4635201678492436e+01 +1.3984431892132850e+03 +1.9089548452475233e+05 +2.8023376274625165e+05 
-8.5000000000000020e-01 -5.2370394320374758e-01 +6.8652060174975231e+00 +5.1186755758512898e+00 -7.4438100220762053e+01 +1.3405447795737914e+03 +1.8978811511821358e+05 +6.6401097958119353e+05 
-9.0000000000000024e-01 -5.2371034454735499e-01 +6.8655417492442616e+00 +5.1134327194320734e+00 -7.4225822763057096e+01 +1.2787974789633606e+03 +1.8863687418603871e+05 +1.0696476742461519e+06 
-9.5000000000000029e-01 -5.2371710547862826e-01 +6.8658959556505907e+00 +5.1079323652273585e+00 -7.3997753381291233e+01 +1.2135226042934792e+03 +1.8743485093375813e+05 +1.4951796572060033e+06 
-1.0000000000000002e+00 -5.2372422512013361e-01 +6.8662685842484921e+00 +5.1021621279479596e+00 -7.3753276235372340e+01 +1.1450414608183337e+03 +1.8617513518971443e+05 +1.9386428447165852e+06 
-1.0500000000000003e+00 -5.2373170259445956e-01 +6.8666595825683041e+00 +5.0961096230308183e+00 -7.3491775399261840e+01 +1.0736753385817506e+03 +1.8485081611475738e+05 +2.3980732364281989e+06 
-1.1000000000000003e+00 -5.2373953702419584e-01 +6.8670688981437031e+00 +5.0897624639402537e+00 -7.3212635059040068e+01 +9.9974557456329717e+02 +1.8345498378941155e+05 +2.8715065399142019e+06 
-1.1500000000000004e+00 -5.2374772753196397e-01 +6.8674964785071015e+00 +5.0831082663929603e+00 -7.2915239323023087e+01 +9.2357344952445305e+02 +1.8198072765145855e+05 +3.3569788248202405e+06 
-1.2000000000000004e+00 -5.2375627324038532e-01 +6.8679422711906399e+00 +5.0761346434007484e+00 -7.2598972271155134e+01 +8.4548031560048776e+02 +1.8042113694363576e+05 +3.8525256862145173e+06 
-1.2500000000000004e+00 -5.2376517327211158e-01 +6.8684062237317276e+00 +5.0688292110409421e+00 -7.2263218166277241e+01 +7.6578743854603101e+02 +1.7876930237804225e+05 +4.3561833138505844e+06 
-1.3000000000000005e+00 -5.2377442674979413e-01 +6.8688882836622147e+00 +5.0611795821777870e+00 -7.1907361025708241e+01 +6.8481617325045124e+02 +1.7701831268405411e+05 +4.8659872890271116e+06 
-1.3500000000000005e+00 -5.2378403279610286e-01 +6.8693883985196367e+00 +5.0531733702568182e+00 -7.1530785071854396e+01 +6.0288785761940858e+02 +1.7516125825552203e+05 +5.3799733121353760e+06 
-1.4000000000000006e+00 -5.2379399053373044e-01 +6.8699065158404933e+00 +5.0447981903653440e+00 -7.1132874460428027e+01 +5.2032378136394448e+02 +1.7319122895145891e+05 +5.8961774260757193e+06 
-1.4500000000000006e+00 -5.2380429908537396e-01 +6.8704425831606359e+00 +5.0360416552516467e+00 -7.0713013306651973e+01 +4.3744530245671456e+02 +1.7110131433497483e+05 +6.4126351912620468e+06 
-1.5000000000000007e+00 -5.2381495757376062e-01 +6.8709965480206483e+00 +5.0268913804095998e+00 -7.0270585882419240e+01 +3.5457369970753564e+02 +1.6888460520871161e+05 +6.9273827267572246e+06 
-1.5500000000000007e+00 -5.2382596512161239e-01 +6.8715683579578775e+00 +5.0173349775943512e+00 -6.9804976314063182e+01 +2.7203035683938111e+02 +1.6653419122712864e+05 +7.4384554252708871e+06 
-1.6000000000000008e+00 -5.2383732085167756e-01 +6.8721579605133947e+00 +5.0073600607988622e+00 -6.9315568851193774e+01 +1.9013659051919038e+02 +1.6404316303583363e+05 +7.9438891617867248e+06 
-1.6500000000000008e+00 -5.2384902388670829e-01 +6.8727653032259228e+00 +4.9969542420976989e+00 -6.8801747633222675e+01 +1.0921377172449695e+02 +1.6140461041868891e+05 +8.4417194339825828e+06 
-1.7000000000000008e+00 -5.2386107334948384e-01 +6.8733903336391888e+00 +4.9861051350300691e+00 -6.8262896971365933e+01 +2.9583233839017467e+01 +1.5861162453011979e+05 +8.9299819897093289e+06 
-1.7500000000000009e+00 -5.2387346836279336e-01 +6.8740329992945775e+00 +4.9748003529748841e+00 -6.7698401060630871e+01 -4.8433689629523393e+01 +1.5565729559251294e+05 +9.4067125917103775e+06 
-1.8000000000000009e+00 -5.2388620804943353e-01 +6.8746932477367428e+00 +4.9630275077366033e+00 -6.7107644215142628e+01 -1.2451562243852686e+02 +1.5253471483517726e+05 +9.8699467159255017e+06 
-1.8500000000000010e+00 -5.2389929153222148e-01 +6.8753710265089394e+00 +4.9507742117413507e+00 -6.6490010666208278e+01 -1.9834120332397708e+02 +1.4923697280458605e+05 +1.0317719935120320e+07 
-1.9000000000000010e+00 -5.2391271793398986e-01 +6.8760662831577664e+00 +4.9380280783227573e+00 -6.5844884752257869e+01 -2.6958910158311960e+02 +1.4575716090278499e+05 +1.0748068053410539e+07 
-1.9500000000000011e+00 -5.2392648637757300e-01 +6.8767789652303879e+00 +4.9247767175800323e+00 -6.5171650820725276e+01 -3.3793789192987964e+02 +1.4208837064222957e+05 +1.1159026209841246e+07 
-2.0000000000000009e+00 -5.2394059598582843e-01 +6.8775090202722389e+00 +4.9110077415634290e+00 -6.4469693127108314e+01 -4.0306620738582632e+02 +1.3822369278931661e+05 +1.1548629962750366e+07 
-2.0500000000000007e+00 -5.2395504570702089e-01 +6.8782563866151794e+00 +4.8967118811634114e+00 -6.3738755521071397e+01 -4.6471423959236819e+02 +1.3415930647275111e+05 +1.1915300943672474e+07 
-2.1000000000000005e+00 -5.2396983379176321e-01 +6.8790209601760797e+00 +4.8818927603305688e+00 -6.2980023896936778e+01 -5.2286333668467489e+02 +1.2990366304675343e+05 +1.2258954927551247e+07 
-2.1500000000000004e+00 -5.2398495831649283e-01 +6.8798026248815747e+00 +4.8665573470704828e+00 -6.2195046718541640e+01 -5.7755405270906829e+02 +1.2546826526422112e+05 +1.2579870129468709e+07 
-2.2000000000000002e+00 -5.2400041735764735e-01 +6.8806012646645884e+00 +4.8507126069535973e+00 -6.1385372688195822e+01 -6.2882687272116596e+02 +1.2086461779421763e+05 +1.2878324288687101e+07 
-2.2500000000000000e+00 -5.2401620899168033e-01 +6.8814167634552152e+00 +4.8343655066466464e+00 -6.0552550380926036e+01 -6.7672231323770711e+02 +1.1610422426751794e+05 +1.3154595361699302e+07 
-2.2999999999999998e+00 -5.2403233129506732e-01 +6.8822490051848311e+00 +4.8175230146092130e+00 -5.9698128407124379e+01 -7.2128093938604377e+02 +1.1119858859967874e+05 +1.3408961633343644e+07 
-2.3499999999999996e+00 -5.2404878234427177e-01 +6.8830978737848216e+00 +4.8001920949565857e+00 -5.8823655373071887e+01 -7.6254319420045442e+02 +1.0615921470216007e+05 +1.3641700543172250e+07 
-2.3999999999999995e+00 -5.2406556021580608e-01 +6.8839632531874528e+00 +4.7823797186645729e+00 -5.7930679907276392e+01 -8.0054970914340720e+02 +1.0099760666663456e+05 +1.3853090815891564e+07 
-2.4499999999999993e+00 -5.2408266298615080e-01 +6.8848450273263682e+00 +4.7640928495341210e+00 -5.7020750682687030e+01 -8.3534092214866530e+02 +9.5725268950164042e+04 +1.4043409864774104e+07 
-2.4999999999999991e+00 -5.2410008873182834e-01 +6.8857430801348283e+00 +4.7453384562473699e+00 -5.6095416348982660e+01 -8.6695739775647564e+02 +9.0353705834988359e+04 +1.4212935939533759e+07 
-2.5499999999999989e+00 -5.2411783552936320e-01 +6.8866572955447722e+00 +4.7261235062954263e+00 -5.5156225482189214e+01 -8.9543967000893167e+02 +8.4894420964703007e+04 +1.4361947088189291e+07 
-2.5999999999999988e+00 -5.2413590145528710e-01 +6.8875875574908898e+00 +4.7064549670318394e+00 -5.4204726779355681e+01 -9.2082827142389044e+02 +7.9358919053539590e+04 +1.4490721352979716e+07 
-2.6499999999999986e+00 -5.2415428458614555e-01 +6.8885337499064354e+00 +4.6863398058308618e+00 -5.3242468852852198e+01 -9.4316372863831350e+02 +7.3758704050971559e+04 +1.4599536711967666e+07 
-2.6999999999999984e+00 -5.2417298299849835e-01 +6.8894957567267507e+00 +4.6657849912754630e+00 -5.2271000403792421e+01 -9.6248660240038009e+02 +6.8105280694364497e+04 +1.4688671374749085e+07 
-2.7499999999999982e+00 -5.2419199476891776e-01 +6.8904734618864554e+00 +4.6447974923418380e+00 -5.1291870089926363e+01 -9.7883746267536867e+02 +6.2410153336232266e+04 +1.4758403606724335e+07 
-2.7999999999999980e+00 -5.2421131797396270e-01 +6.8914667493195063e+00 +4.6233842739638451e+00 -5.0306626541643276e+01 -9.9225677071765153e+02 +5.6684826141896454e+04 +1.4809010940431248e+07 
-2.8499999999999979e+00 -5.2423095069024006e-01 +6.8924755029619380e+00 +4.6015523081939458e+00 -4.9316818463110323e+01 -1.0027851786362147e+03 +5.0940803864003610e+04 +1.4840772186715696e+07 
-2.8999999999999977e+00 -5.2425089099434241e-01 +6.8934996067485708e+00 +4.5793085626351004e+00 -4.8323994500930873e+01 -1.0104632146403846e+03 +4.5189590778619044e+04 +1.4853965304202391e+07 
-2.9499999999999975e+00 -5.2427113696287064e-01 +6.8945389446164871e+00 +4.5566600050696326e+00 -4.7329703395554041e+01 -1.0153314136405490e+03 +3.9442691969928550e+04 +1.4848868301288122e+07 
-2.9999999999999973e+00 -5.2429168667245818e-01 +6.8955934004995152e+00 +4.5336136071137885e+00 -4.6335493745069549e+01 -1.0174304075965621e+03 +3.3711611328788647e+04 +1.4825759813904546e+07 
-3.0499999999999972e+00 -5.2431253819970902e-01 +6.8966628583362573e+00 +4.5101763344016863e+00 -4.5342914344442427e+01 -1.0168006740524200e+03 +2.8007854398198404e+04 +1.4784917460546171e+07 
-3.0999999999999970e+00 -5.2433368962127958e-01 +6.8977472020622974e+00 +4.4863551596407989e+00 -4.4353513854357963e+01 -1.0134828701302480e+03 +2.2342925594794579e+04 +1.4726620024213791e+07 
-3.1499999999999968e+00 -5.2435513901381525e-01 +6.8988463156123290e+00 +4.4621570530044350e+00 -4.3368840903116237e+01 -1.0075175928830977e+03 +1.6728329095504934e+04 +1.4651145912827684e+07 
-3.1999999999999966e+00 -5.2437688445396091e-01 +6.8999600829261860e+00 +4.4375889822007100e+00 -4.2390444321066198e+01 -9.9894536248672659e+02 +1.1175570720664169e+04 +1.4558772974009059e+07 
-3.2499999999999964e+00 -5.2439892401838561e-01 +6.9010883879375475e+00 +4.4126579191564348e+00 -4.1419872688020895e+01 -9.8780681975193988e+02 +5.6961542512338483e+03 +1.4449779888944345e+07 
-3.2999999999999963e+00 -5.2442125578376475e-01 +6.9022311145851454e+00 +4.3873708344094142e+00 -4.0458674793831506e+01 -9.7414255758412025e+02 +3.0158521495533313e+02 +1.4324444973927952e+07 
-3.3499999999999961e+00 -5.2444387782678481e-01 +6.9033881468065328e+00 +4.3617346998253739e+00 -3.9508399372850370e+01 -9.5799320788058139e+02 -4.9966313386844531e+03 +1.4183046818547355e+07 
-3.3999999999999959e+00 -5.2446678822413029e-01 +6.9045593685379476e+00 +4.3357564857263640e+00 -3.8570595106883225e+01 -9.3939936079697065e+02 -1.0186990781789998e+04 +1.4025863726834361e+07 
-3.4499999999999957e+00 -5.2448998505250222e-01 +6.9057446637166722e+00 +4.3094431641537057e+00 -3.7646810727158183e+01 -9.1840164882204817e+02 -1.5257988051185996e+04 +1.3853174268266816e+07 
-3.4999999999999956e+00 -5.2451346638861041e-01 +6.9069439162802126e+00 +4.2828017070991233e+00 -3.6738594967989322e+01 -8.9504069698324236e+02 -2.0198118081658384e+04 +1.3665256934865184e+07 
-3.5499999999999954e+00 -5.2453723030916599e-01 +6.9081570101664758e+00 +4.2558390866098756e+00 -3.5847496581864668e+01 -8.6935713992324384e+02 -2.4995875655883283e+04 +1.3462390311756510e+07 
-3.5999999999999952e+00 -5.2456127489089943e-01 +6.9093838293119356e+00 +4.2285622759886605e+00 -3.4975064274696166e+01 -8.4139163252712774e+02 -2.9639755891276131e+04 +1.3244853065528613e+07 
-3.6499999999999950e+00 -5.2458559821054351e-01 +6.9106242576561634e+00 +4.2009782486941791e+00 -3.4122846871682434e+01 -8.1118484048031564e+02 -3.4118252967862514e+04 +1.3012923955948289e+07 
-3.6999999999999948e+00 -5.2461019834483757e-01 +6.9118781791345416e+00 +4.1730939781790974e+00 -3.3292393037333369e+01 -7.7877742314243051e+02 -3.8419862347373150e+04 +1.2766881672436364e+07 
-3.7499999999999947e+00 -5.2463507337051896e-01 +6.9131454776857577e+00 +4.1449164364250910e+00 -3.2485251569531236e+01 -7.4421000008704516e+02 -4.2533078415235759e+04 +1.2507004632685788e+07 
-3.7999999999999945e+00 -5.2466022136435753e-01 +6.9144260372472797e+00 +4.1164526004722228e+00 -3.1702971223702665e+01 -7.0752332395339658e+02 -4.6446395891665117e+04 +1.2233572134314438e+07 
-3.8499999999999943e+00 -5.2468564040311128e-01 +6.9157197417559821e+00 +4.0877094439839388e+00 -3.0947100738079925e+01 -6.6875805202755782e+02 -5.0148309627883122e+04 +1.1946862811602065e+07 
-3.8999999999999941e+00 -5.2471132856354064e-01 +6.9170264751491803e+00 +4.0586939407435887e+00 -3.0219188874096016e+01 -6.2795484662285753e+02 -5.3627314272155185e+04 +1.1647155334935451e+07 
-3.9499999999999940e+00 -5.2473728392243746e-01 +6.9183461213661106e+00 +4.0294130687183838e+00 -2.9520784477047165e+01 -5.8515447656337699e+02 -5.6871903796131381e+04 +1.1334729065327723e+07 
-3.9999999999999938e+00 -5.2476350455657061e-01 +6.9196785643401908e+00 +3.9998738016134858e+00 -2.8853436156782660e+01 -5.4039759589590551e+02 -5.9870574060755374e+04 +1.1009862589093972e+07 
-4.0499999999999936e+00 -5.2478998841965663e-01 +6.9210236767187574e+00 +3.9700835363234641e+00 -2.8218325103174017e+01 -4.9373308844968045e+02 -6.2614683437955071e+04 +1.0672870145347100e+07 
-4.0999999999999934e+00 -5.2481673297224596e-01 +6.9223812791826989e+00 +3.9400518209272324e+00 -2.7615165265162290e+01 -4.4525690339803941e+02 -6.5106970986216322e+04 +1.0324322713875737e+07 
-4.1499999999999932e+00 -5.2484373555136388e-01 +6.9237511776979312e+00 +3.9097888787857062e+00 -2.7043303860569573e+01 -3.9508030782117464e+02 -6.7353013531314471e+04 +9.9648839610365797e+06 
-4.1999999999999931e+00 -5.2487099349405186e-01 +6.9251331782234917e+00 +3.8793049354072831e+00 -2.6502087855684849e+01 -3.4331462050300604e+02 -6.9358389952046127e+04 +9.5952178855278343e+06 
-4.2499999999999929e+00 -5.2489850413734951e-01 +6.9265270867230893e+00 +3.8486102154404631e+00 -2.5990864404784407e+01 -2.9007113691814413e+02 -7.1128677632648207e+04 +9.2159883317333516e+06 
-4.2999999999999927e+00 -5.2492626481830806e-01 +6.9279327091571643e+00 +3.8177149459866513e+00 -2.5508980548882121e+01 -2.3546122227579079e+02 -7.2669454830249466e+04 +8.8278596268048473e+06 
-4.3499999999999925e+00 -5.2495427287395502e-01 +6.9293498514881078e+00 +3.7866293491348566e+00 -2.5055783405875712e+01 -1.7959610458808478e+02 -7.3986299220893910e+04 +8.4314951682029031e+06 
-4.3999999999999924e+00 -5.2498252564134140e-01 +6.9307783196745891e+00 +3.7553636514934903e+00 -2.4630619960226479e+01 -1.2258713593733962e+02 -7.5084789530437556e+04 +8.0275591986458478e+06 
-4.4499999999999922e+00 -5.2501102045752213e-01 +6.9322179196754981e+00 +3.7239280792399891e+00 -2.4232837216592223e+01 -6.4545650317204675e+01 -7.5970504316918508e+04 +7.6167158188841790e+06 
-4.4999999999999920e+00 -5.2503975465952057e-01 +6.9336684574529528e+00 +3.6923328542388076e+00 -2.3861782314048060e+01 -5.5828760905787291e+00 -7.6649021068294169e+04 +7.1996284552556472e+06 
-4.5499999999999918e+00 -5.2506872558440021e-01 +6.9351297389625515e+00 +3.6605882044442830e+00 -2.3516802147105356e+01 +5.4189801906205197e+01 -7.7125919225873629e+04 +6.7769615648162533e+06 
-4.5999999999999917e+00 -5.2509793056919374e-01 +6.9366015701645383e+00 +3.6287043526821727e+00 -2.3197243802299070e+01 +1.1466113348078967e+02 -7.7406776701685245e+04 +6.3493787114262246e+06 
-4.6499999999999915e+00 -5.2512736695095219e-01 +6.9380837570135157e+00 +3.5966915251655820e+00 -2.2902454156965405e+01 +1.7571977747960858e+02 -7.7497173076330626e+04 +5.9175440729958098e+06 
-4.6999999999999913e+00 -5.2515703206670905e-01 +6.9395761054677658e+00 +3.5645599449349117e+00 -2.2631780247073038e+01 +2.3725447687508674e+02 -7.7402686650338102e+04 +5.4821212684718072e+06 
-4.7499999999999911e+00 -5.2518692325351057e-01 +6.9410784214835104e+00 +3.5323198375890486e+00 -2.2384569039884337e+01 +2.9915390735912314e+02 -7.7128896278919914e+04 +5.0437743634917187e+06 
-4.7999999999999909e+00 -5.2521703784840534e-01 +6.9425905110138002e+00 +3.4999814290744404e+00 -2.2160167389493857e+01 +3.6130673398425000e+02 -7.6681381729084809e+04 +4.6031675064523444e+06 
-4.8499999999999908e+00 -5.2524737318842141e-01 +6.9441121800143257e+00 +3.4675549421084746e+00 -2.1957922269210759e+01 +4.2360170873375426e+02 -7.6065721800649306e+04 +4.1609642594197565e+06 
-4.8999999999999906e+00 -5.2527792661059858e-01 +6.9456432344392915e+00 +3.4350506020453002e+00 -2.1777180609906768e+01 +4.8592750804126661e+02 -7.5287495635666273e+04 +3.7178287152410108e+06 
-4.9499999999999904e+00 -5.2530869545196679e-01 +6.9471834802397687e+00 +3.4024786321188487e+00 -2.1617289226286818e+01 +5.4817287345918260e+02 -7.4352283325613724e+04 +3.2744244972057124e+06 
-4.9999999999999902e+00 -5.2533967704956963e-01 +6.9487327233688232e+00 +3.3698492589363842e+00 -2.1477595034064546e+01 +6.1022644746978847e+02 -7.3265664133640865e+04 +2.8314159342682017e+06 
-5.0499999999999901e+00 -5.2537086874042593e-01 +6.9502907697773706e+00 +3.3371727051131450e+00 -2.1357444879223326e+01 +6.7197698204355231e+02 -7.2033217880473632e+04 +2.3894666082279710e+06 
