# multipoles
# s[mm] polynom_b[n=0][T/m^n] polynom_b[n=1][T/m^n] polynom_b[n=2][T/m^n] polynom_b[n=3][T/m^n] polynom_b[n=4][T/m^n] polynom_b[n=5][T/m^n] polynom_b[n=6][T/m^n] 
+0.0000000000000000e+00 -5.5762562535186089e-01 +7.3223037262468527e+00 +4.3390642228697542e+00 -2.7559822390834224e+01 +1.4160268883508759e+04 -1.3328273175172578e+05 -6.8833400957849309e+07 
+5.0000000000000003e-02 -5.5762551754332468e-01 +7.3222621742319678e+00 +4.3421712131121515e+00 -2.6792444315956757e+01 +1.4121415099426265e+04 -1.3818115452746447e+05 -6.8683504213207603e+07 
+1.0000000000000001e-01 -5.5762574581303781e-01 +7.3222385454574965e+00 +4.3451019939710953e+00 -2.6016326034950151e+01 +1.4076617538945406e+04 -1.4307394641804375e+05 -6.8495148801386431e+07 
+1.5000000000000002e-01 -5.5762630946076075e-01 +7.3222328094833387e+00 +4.3478538618471170e+00 -2.5232039999373427e+01 +1.4025976875990022e+04 -1.4795862372466468e+05 -6.8268920002379939e+07 
+2.0000000000000001e-01 -5.5762720778629626e-01 +7.3222449358702928e+00 +4.3504241180321923e+00 -2.4440158658855658e+01 +1.3969593649599654e+04 -1.5283270280231335e+05 -6.8005402174115300e+07 
+2.5000000000000000e-01 -5.5762844008943635e-01 +7.3222748941809677e+00 +4.3528100592894878e+00 -2.3641254519562448e+01 +1.3907568519853214e+04 -1.5769369953062583e+05 -6.7705180490396053e+07 
+2.9999999999999999e-01 -5.5763000567000498e-01 +7.3223226539750002e+00 +4.3550089845667381e+00 -2.2835899937190757e+01 +1.3840002093314017e+04 -1.6253913103711346e+05 -6.7368839784239024e+07 
+3.4999999999999998e-01 -5.5763190382784011e-01 +7.3223881848166235e+00 +4.3570181937909931e+00 -2.2024667428071957e+01 +1.3766994939963595e+04 -1.6736651314523237e+05 -6.6996964606442802e+07 
+3.9999999999999997e-01 -5.5763413386277760e-01 +7.3224714562652462e+00 +4.3588349826666679e+00 -2.1208129287334060e+01 +1.3688647752261579e+04 -1.7217336349422132e+05 -6.6590140368199222e+07 
+4.4999999999999996e-01 -5.5763669507468694e-01 +7.3225724378862429e+00 +4.3604566507076834e+00 -2.0386858024304800e+01 +1.3605061114660650e+04 -1.7695719799313505e+05 -6.6148951732405230e+07 
+4.9999999999999994e-01 -5.5763958676345127e-01 +7.3226910992417364e+00 +4.3618804972942460e+00 -1.9561425988741146e+01 +1.3516335614067706e+04 -1.8171553386875050e+05 -6.5673983375438496e+07 
+5.4999999999999993e-01 -5.5764280822896550e-01 +7.3228274098941926e+00 +4.3631038205929729e+00 -1.8732405520315130e+01 +1.3422571874896270e+04 -1.8644588843713191e+05 -6.5165820246604413e+07 
+5.9999999999999998e-01 -5.5764635877113244e-01 +7.3229813394097993e+00 +4.3641239181596250e+00 -1.7900369091004968e+01 +1.3323870532361263e+04 -1.9114577792354982e+05 -6.4625047349334344e+07 
+6.5000000000000002e-01 -5.5765023768988597e-01 +7.3231528573515332e+00 +4.3649380900203809e+00 -1.7065889008217148e+01 +1.3220332158221143e+04 -1.9581271993260749e+05 -6.4052249269163765e+07 
+7.0000000000000007e-01 -5.5765444428516053e-01 +7.3233419332864207e+00 +4.3655436338176763e+00 -1.6229537716810690e+01 +1.3112057385431737e+04 -2.0044423097609830e+05 -6.3448010995382890e+07 
+7.5000000000000011e-01 -5.5765897785691976e-01 +7.3235485367781878e+00 +4.3659378493251744e+00 -1.5391887516062841e+01 +1.2999146794447410e+04 -2.0503782870489242e+05 -6.2812917183036119e+07 
+8.0000000000000016e-01 -5.5766383770511929e-01 +7.3237726373930538e+00 +4.3661180330183740e+00 -1.4553510764050662e+01 +1.2881701047159317e+04 -2.0959103037813981e+05 -6.2147553008961968e+07 
+8.5000000000000020e-01 -5.5766902312975730e-01 +7.3240142046978978e+00 +4.3660814854858296e+00 -1.3714979834916903e+01 +1.2759820702042538e+04 -2.1410135308298809e+05 -6.1452502981321320e+07 
+9.0000000000000024e-01 -5.5767453343082851e-01 +7.3242732082591928e+00 +4.3658255048017782e+00 -1.2876867059398208e+01 +1.2633606378057650e+04 -2.1856631427405518e+05 -6.0728351990315415e+07 
+9.5000000000000029e-01 -5.5768036790835940e-01 +7.3245496176433091e+00 +4.3653473912389620e+00 -1.2039744728984251e+01 +1.2503158644617768e+04 -2.2298343178920128e+05 -5.9975684628129877e+07 
+1.0000000000000002e+00 -5.5768652586235978e-01 +7.3248434024191615e+00 +4.3646444405725440e+00 -1.1204185235989954e+01 +1.2368578179831624e+04 -2.2735022256263442e+05 -5.9195086175004318e+07 
+1.0500000000000003e+00 -5.5769300659288901e-01 +7.3251545321559446e+00 +4.3637139536774168e+00 -1.0370760937635984e+01 +1.2229965537734810e+04 -2.3166420392509681e+05 -5.8387141125100464e+07 
+1.1000000000000003e+00 -5.5769980940000230e-01 +7.3254829764210623e+00 +4.3625532288546385e+00 -9.5400441031936865e+00 +1.2087421331752226e+04 -2.3592289389796817e+05 -5.7552434333773792e+07 
+1.1500000000000004e+00 -5.5770693358377466e-01 +7.3258287047833539e+00 +4.3611595655233213e+00 -8.7126070473403665e+00 +1.1941046146800851e+04 -2.4012381011034950e+05 -5.6691550474391438e+07 
+1.2000000000000004e+00 -5.5771437844429728e-01 +7.3261916868142292e+00 +4.3595302623035144e+00 -7.8890221525648041e+00 +1.1790940599026386e+04 -2.4426446969252412e+05 -5.5805074466947906e+07 
+1.2500000000000004e+00 -5.5772214328167447e-01 +7.3265718920827263e+00 +4.3576626188993961e+00 -7.0698616842023645e+00 +1.1637205263426680e+04 -2.4834239074198328e+05 -5.4893590907849923e+07 
+1.3000000000000005e+00 -5.5773022739602007e-01 +7.3269692901590568e+00 +4.3555539334090669e+00 -6.2556979388748779e+00 +1.1479940764446945e+04 -2.5235509108877761e+05 -5.3957684750785016e+07 
+1.3500000000000005e+00 -5.5773863008747482e-01 +7.3273838506168643e+00 +4.3532015061215041e+00 -5.4471033223894612e+00 +1.1319247669453878e+04 -2.5630008770823648e+05 -5.2997940572765864e+07 
+1.4000000000000006e+00 -5.5774735065617853e-01 +7.3278155430266478e+00 +4.3506026354247451e+00 -4.6446500930858292e+00 +1.1155226592375808e+04 -2.6017489878676110e+05 -5.2014943249464437e+07 
+1.4500000000000006e+00 -5.5775638840229669e-01 +7.3282643369591707e+00 +4.3477546206582387e+00 -3.8489105012150482e+00 +1.0987978127936833e+04 -2.6397704257357219e+05 -5.1009277547164209e+07 
+1.5000000000000007e+00 -5.5776574262600465e-01 +7.3287302019901714e+00 +4.3446547614095241e+00 -3.0604569758678322e+00 +1.0817602859905966e+04 -2.6770403587497753e+05 -4.9981528146531120e+07 
+1.5500000000000007e+00 -5.5777541262749353e-01 +7.3292131076909603e+00 +4.3413003568744726e+00 -2.2798617351303725e+00 +1.0644201386714416e+04 -2.7135339727012429e+05 -4.8932279841118313e+07 
+1.6000000000000008e+00 -5.5778539770697222e-01 +7.3297130236366712e+00 +4.3376887073280832e+00 -1.5076971424730508e+00 +1.0467874274659904e+04 -2.7492264411796536e+05 -4.7862117193904303e+07 
+1.6500000000000008e+00 -5.5779569716464705e-01 +7.3302299194015896e+00 +4.3338171098707656e+00 -7.4453550483004960e-01 +1.0288722181440768e+04 -2.7840929425280058e+05 -4.6771625410649344e+07 
+1.7000000000000008e+00 -5.5780631030078165e-01 +7.3307637645609161e+00 +4.3296828695176641e+00 +9.0508626690470051e-03 +1.0106845545933787e+04 -2.8181086548998114e+05 -4.5661388195733868e+07 
+1.7500000000000009e+00 -5.5781723641558534e-01 +7.3313145286898127e+00 +4.3252832792401668e+00 +7.5248965910658672e-01 +9.9223451368070491e+03 -2.8512487573161832e+05 -4.4531991501918435e+07 
+1.8000000000000009e+00 -5.5782847480934972e-01 +7.3318821813637367e+00 +4.3206156437865308e+00 +1.4852086046015267e+00 +9.7353214062175284e+03 -2.8834884312585404e+05 -4.3384019146553680e+07 
+1.8500000000000010e+00 -5.5784002478234174e-01 +7.3324666921620443e+00 +4.3156772616168970e+00 +2.2066352668928864e+00 +9.5458749731686403e+03 -2.9148028451172507e+05 -4.2218056063361064e+07 
+1.9000000000000010e+00 -5.5785188563484511e-01 +7.3330680306597484e+00 +4.3104654313781605e+00 +2.9161974206177126e+00 +9.3541064561289186e+03 -2.9451671849536011e+05 -4.1034687200656541e+07 
+1.9500000000000011e+00 -5.5786405666717220e-01 +7.3336861664335533e+00 +4.3049774546427004e+00 +3.6133227889325945e+00 +9.1601163931762221e+03 -2.9745566324680595e+05 -3.9834496955609061e+07 
+2.0000000000000009e+00 -5.5787653717964414e-01 +7.3343210690654894e+00 +4.2992106317989096e+00 +4.2974388989963943e+00 +8.9640053590625212e+03 -3.0029463534644520e+05 -3.8618069991516486e+07 
+2.0500000000000007e+00 -5.5788932626161480e-01 +7.3349726920505329e+00 +4.2931620139542055e+00 +4.9680788035410153e+00 +8.7658889621397084e+03 -3.0303182516125217e+05 -3.7386104143014587e+07 
+2.1000000000000005e+00 -5.5790242215847774e-01 +7.3356409192188989e+00 +4.2868280879365361e+00 +5.6251779730994667e+00 +8.5659406396491340e+03 -3.0566800135363819e+05 -3.6139735641225390e+07 
+2.1500000000000004e+00 -5.5791582290457820e-01 +7.3363256156389189e+00 +4.2802053075050948e+00 +6.2687676043396028e+00 +8.3643479768034085e+03 -3.0820455301523581e+05 -3.4880208470368430e+07 
+2.2000000000000002e+00 -5.5792952653428629e-01 +7.3370266463861737e+00 +4.2732901288851624e+00 +6.8988786270849278e+00 +8.1612984958137349e+03 -3.1064286712646770e+05 -3.3608766203499146e+07 
+2.2500000000000000e+00 -5.5794353108197492e-01 +7.3377438765295935e+00 +4.2660790066797940e+00 +7.5155422370005631e+00 +7.9569797647404966e+03 -3.1298433276780549e+05 -3.2326652728692155e+07 
+2.2999999999999998e+00 -5.5795783458204329e-01 +7.3384771711469963e+00 +4.2585683985744822e+00 +8.1187892932739647e+00 +7.7515792631440863e+03 -3.1523033631120482e+05 -3.1035111312379044e+07 
+2.3499999999999996e+00 -5.5797243506887517e-01 +7.3392263953086818e+00 +4.2507547572921744e+00 +8.7086509712892752e+00 +7.5452846142676553e+03 -3.1738226670408563e+05 -2.9735386234130625e+07 
+2.3999999999999995e+00 -5.5798733057689642e-01 +7.3399914140891234e+00 +4.2426345417765656e+00 +9.2851582998818536e+00 +7.3382832631163765e+03 -3.1944151172872639e+05 -2.8428720523173489e+07 
+2.4499999999999993e+00 -5.5800251914050725e-01 +7.3407720925662741e+00 +4.2342042042639045e+00 +9.8483421585825432e+00 +7.1307628452416820e+03 -3.2140945786447392e+05 -2.7116358536313046e+07 
+2.4999999999999991e+00 -5.5801799879415048e-01 +7.3415682958136754e+00 +4.2254602025320160e+00 +1.0398233632849799e+01 +6.9229108456852900e+03 -3.2328749333336297e+05 -2.5799543604922611e+07 
+2.5499999999999989e+00 -5.5803376757226297e-01 +7.3423798889077148e+00 +4.2163989923393297e+00 +1.0934863702124701e+01 +6.7149147993567703e+03 -3.2507700547080307e+05 -2.4479519380432103e+07 
+2.5999999999999988e+00 -5.5804982350928589e-01 +7.3432067369254401e+00 +4.2070170279062555e+00 +1.1458263319683780e+01 +6.5069622906475342e+03 -3.2677938135670969e+05 -2.3157529878906574e+07 
+2.6499999999999986e+00 -5.5806616463968572e-01 +7.3440487049433987e+00 +4.1973107663962086e+00 +1.1968463488131452e+01 +6.2992408214500392e+03 -3.2839600854518346e+05 -2.1834818544027962e+07 
+2.6999999999999984e+00 -5.5808278899793040e-01 +7.3449056580408199e+00 +4.1872766638238446e+00 +1.2465495097109892e+01 +6.0919379259532006e+03 -3.2992827359409980e+05 -2.0512629043036774e+07 
+2.7499999999999982e+00 -5.5809969461849573e-01 +7.3457774612939515e+00 +4.1769111759390212e+00 +1.2949389172571715e+01 +5.8852411457450035e+03 -3.3137756420009414e+05 -1.9192205092458997e+07 
+2.7999999999999980e+00 -5.5811687953585487e-01 +7.3466639797833828e+00 +4.1662107564465218e+00 +1.3420176567811060e+01 +5.6793380783129887e+03 -3.3274526661682123e+05 -1.7874790786449276e+07 
+2.8499999999999979e+00 -5.5813434178451449e-01 +7.3475650785896605e+00 +4.1551718635010007e+00 +1.3877888157274848e+01 +5.4744162042763719e+03 -3.3403276729595155e+05 -1.6561629444464900e+07 
+2.8999999999999977e+00 -5.5815207939896894e-01 +7.3484806227915893e+00 +4.1437909513910292e+00 +1.4322554881185541e+01 +5.2706631080048146e+03 -3.3524145317806548e+05 -1.5253965078257041e+07 
+2.9499999999999975e+00 -5.5817009041373822e-01 +7.3494104774678881e+00 +4.1320644779422251e+00 +1.4754207699925578e+01 +5.0682662770409988e+03 -3.3637271138645808e+05 -1.3953041042577175e+07 
+2.9999999999999973e+00 -5.5818837286332734e-01 +7.3503545077047709e+00 +4.1199888964575981e+00 +1.5172877278927011e+01 +4.8674133247670688e+03 -3.3742792662890704e+05 -1.2660101552473221e+07 
+3.0499999999999972e+00 -5.5820692478227285e-01 +7.3513125785805986e+00 +4.1075606649069849e+00 +1.5578594594901070e+01 +4.6682917377450176e+03 -3.3840848609226878e+05 -1.1376389963995207e+07 
+3.0999999999999970e+00 -5.5822574420510895e-01 +7.3522845551789073e+00 +4.0947762390251778e+00 +1.5971390439541439e+01 +4.4710890650382025e+03 -3.3931577551889344e+05 -1.0103150060172483e+07 
+3.1499999999999968e+00 -5.5824482916635920e-01 +7.3532703025830193e+00 +4.0816320717572960e+00 +1.6351295610741477e+01 +4.2759929305084579e+03 -3.4015118064361619e+05 -8.8416261266968325e+06 
+3.1999999999999966e+00 -5.5826417770059755e-01 +7.3542696858763144e+00 +4.0681246233552670e+00 +1.6718340904434278e+01 +4.0831907636365950e+03 -3.4091608715990296e+05 -7.5930611448932253e+06 
+3.2499999999999964e+00 -5.5828378784236476e-01 +7.3552825701429745e+00 +4.0542503470904752e+00 +1.7072557092322249e+01 +3.8928701817198112e+03 -3.4161188055785419e+05 -6.3586993599506468e+06 
+3.2999999999999963e+00 -5.5830365762622491e-01 +7.3563088204679410e+00 +4.0400056992487539e+00 +1.7413974927865453e+01 +3.7052187219325201e+03 -3.4223994620360434e+05 -5.1397844799866937e+06 
+3.3499999999999961e+00 -5.5832378508674518e-01 +7.3573483019380941e+00 +4.0253871352220987e+00 +1.7742625078835680e+01 +3.5204239475728514e+03 -3.4280166868984670e+05 -3.9375603953579082e+06 
+3.3999999999999959e+00 -5.5834416825850386e-01 +7.3584008796382641e+00 +4.0103911117068005e+00 +1.8058538305889396e+01 +3.3386733844706173e+03 -3.4329843338884570e+05 -2.7532707313657398e+06 
+3.4499999999999957e+00 -5.5836480517608533e-01 +7.3594664186551606e+00 +3.9950140850401250e+00 +1.8361745295991653e+01 +3.1601545718917005e+03 -3.4373162504994735e+05 -1.5881592187269037e+06 
+3.4999999999999956e+00 -5.5838569387407511e-01 +7.3605447840756630e+00 +3.9792525103366443e+00 +1.8652276733118445e+01 +2.9850550848882694e+03 -3.4410262838072848e+05 -4.4346983434528386e+05 
+3.5499999999999954e+00 -5.5840683238706090e-01 +7.3616358409894112e+00 +3.9631028427068618e+00 +1.8930163179191240e+01 +2.8135624962167658e+03 -3.4441282701855339e+05 +6.7955346687568945e+05 
+3.5999999999999952e+00 -5.5842821874965043e-01 +7.3627394544840090e+00 +3.9465615395306282e+00 +1.9195435300001527e+01 +2.6458643175508146e+03 -3.4466360552302405e+05 +1.7796671477599267e+06 
+3.6499999999999950e+00 -5.5844985099644462e-01 +7.3638554896483761e+00 +3.9296250557918038e+00 +1.9448123699875936e+01 +2.4821481316209174e+03 -3.4485634788698429e+05 +2.8556271669825953e+06 
+3.6999999999999948e+00 -5.5847172716205562e-01 +7.3649838115722552e+00 +3.9122898478947383e+00 +1.9688258946864799e+01 +2.3226014778555000e+03 -3.4499243776925199e+05 +3.9061897978910459e+06 
+3.7499999999999947e+00 -5.5849384528109747e-01 +7.3661242853470252e+00 +3.8945523713238628e+00 +1.9915871544393067e+01 +2.1674119249508190e+03 -3.4507325829047413e+05 +4.9301111026828121e+06 
+3.7999999999999945e+00 -5.5851620338818742e-01 +7.3672767760638864e+00 +3.8764090814307508e+00 +2.0130992012019746e+01 +2.0167670467782216e+03 -3.4510019271515589e+05 +5.9261471015439294e+06 
+3.8499999999999943e+00 -5.5853879951795493e-01 +7.3684411488133525e+00 +3.8578564350222782e+00 +2.0333650885626085e+01 +1.8708543751833452e+03 -3.4507462437384250e+05 +6.8930541144012231e+06 
+3.8999999999999941e+00 -5.5856163170502893e-01 +7.3696172686871506e+00 +3.8388908875480729e+00 +2.0523878654640360e+01 +1.7298614859453221e+03 -3.4499793621184997e+05 +7.8295881381024579e+06 
+3.9499999999999940e+00 -5.5858469798404009e-01 +7.3708050007819148e+00 +3.8195088943965945e+00 +2.0701705606539218e+01 +1.5939759512030855e+03 -3.4487150949136046e+05 +8.7345052186731827e+06 
+3.9999999999999938e+00 -5.5860799638962766e-01 +7.3720042101855494e+00 +3.7997069115616999e+00 +2.0867162391461211e+01 +1.4633853329352091e+03 -3.4469672843028483e+05 +9.6065614492698256e+06 
+4.0499999999999936e+00 -5.5863152487637913e-01 +7.3732147577673004e+00 +3.7794822370108831e+00 +2.1020249203952449e+01 +1.3382536536224654e+03 -3.4447431590887287e+05 +1.0444693259090222e+07 
+4.0999999999999934e+00 -5.5865528107911877e-01 +7.3744364823397506e+00 +3.7588358886099975e+00 +2.1160874778255387e+01 +1.2186495495527467e+03 -3.4420270232001500e+05 +1.1248544154172780e+07 
+4.1499999999999932e+00 -5.5867926255287004e-01 +7.3756692159224855e+00 +3.7377699237597164e+00 +2.1288930541778328e+01 +1.1046172847410801e+03 -3.4387981817977672e+05 +1.2017932806841142e+07 
+4.1999999999999931e+00 -5.5870346685264394e-01 +7.3769127905350835e+00 +3.7162863969011073e+00 +2.1404307888709692e+01 +9.9620121050207888e+02 -3.4350359368465812e+05 +1.2752677273103409e+07 
+4.2499999999999929e+00 -5.5872789153345115e-01 +7.3781670382022693e+00 +3.6943873630343358e+00 +2.1506898015083458e+01 +8.9344565410931489e+02 -3.4307195748125279e+05 +1.3452595806253895e+07 
+4.2999999999999927e+00 -5.5875253415032333e-01 +7.3794317909438707e+00 +3.6720748800953631e+00 +2.1596592312856394e+01 +7.9639486962076262e+02 -3.4258283983644150e+05 +1.4117507126844017e+07 
+4.3499999999999925e+00 -5.5877739225826561e-01 +7.3807068807797895e+00 +3.6493510011384283e+00 +2.1673282150880464e+01 +7.0509324198615343e+02 -3.4203417077441001e+05 +1.4747229075804327e+07 
+4.3999999999999924e+00 -5.5880246341230544e-01 +7.3819921397366031e+00 +3.6262177831993463e+00 +2.1736858647192445e+01 +6.1958504933460961e+02 -3.4142387839503371e+05 +1.5341580207153833e+07 
+4.4499999999999922e+00 -5.5882774516746958e-01 +7.3832873998347379e+00 +3.6026772831646334e+00 +2.1787213143261344e+01 +5.3991457137960640e+02 -3.4074989254441101e+05 +1.5900379075113440e+07 
+4.4999999999999920e+00 -5.5885323507878015e-01 +7.3845924930981202e+00 +3.5787315569749421e+00 +2.1824236845051598e+01 +4.6612611755264112e+02 -3.4001014202216442e+05 +1.6423444010903712e+07 
+4.5499999999999918e+00 -5.5887893070125394e-01 +7.3859072515490851e+00 +3.5543826596148369e+00 +2.1847821006044345e+01 +3.9826401982576743e+02 -3.3920255599947943e+05 +1.6910593206650402e+07 
+4.5999999999999917e+00 -5.5890482958991428e-01 +7.3872315072135120e+00 +3.5296326474602981e+00 +2.1857856747211223e+01 +3.3637257320204856e+02 -3.3832506264035054e+05 +1.7361645099247057e+07 
+4.6499999999999915e+00 -5.5893092929979238e-01 +7.3885650921147601e+00 +3.5044835779726613e+00 +2.1854235261406270e+01 +2.8049604540381739e+02 -3.3737559062824253e+05 +1.7776418300097749e+07 
+4.6999999999999913e+00 -5.5895722738590714e-01 +7.3899078382787042e+00 +3.4789375069668491e+00 +2.1836847657379014e+01 +2.3067874732415720e+02 -3.3635206806933763e+05 +1.8154731128677834e+07 
+4.7499999999999911e+00 -5.5898372140328079e-01 +7.3912595777283192e+00 +3.4529964909413682e+00 +2.1805585129891224e+01 +1.8696497008354351e+02 -3.3525242370999005e+05 +1.8496402044190191e+07 
+4.7999999999999909e+00 -5.5901040890694187e-01 +7.3926201424911602e+00 +3.4266625876751586e+00 +2.1760338703777425e+01 +1.4939897305978124e+02 -3.3407458500129293e+05 +1.8801249702110339e+07 
+4.8499999999999908e+00 -5.5903728745190318e-01 +7.3939893645900998e+00 +3.3999378524015187e+00 +2.1700999565589441e+01 +1.1802508279348730e+02 -3.3281648067644215e+05 +1.9069092311278224e+07 
+4.8999999999999906e+00 -5.5906435459319148e-01 +7.3953670760547423e+00 +3.3728243432552723e+00 +2.1627458624031419e+01 +9.2887545648705100e+01 -3.3147603722220781e+05 +1.9299748626076177e+07 
+4.9499999999999904e+00 -5.5909160788582035e-01 +7.3967531089087384e+00 +3.3453241160981588e+00 +2.1539607026082663e+01 +7.4030675153324779e+01 -3.3005118312264455e+05 +1.9493036919118054e+07 
+4.9999999999999902e+00 -5.5911904488481412e-01 +7.3981472951801797e+00 +3.3174392291931047e+00 +2.1437335724755847e+01 +6.1498715888787416e+01 -3.2853984528454434e+05 +1.9648775945421707e+07 
+5.0499999999999901e+00 -5.5914666314517902e-01 +7.3995494668965236e+00 +3.2891717386559951e+00 +2.1320535691185203e+01 +5.5335966872047685e+01 -3.2693995078833017e+05 +1.9766784099058785e+07 
