# field on trajectory
# s[mm] rx[mm] ry[mm] rz[mm] bx[T] by[T] bz[T]
0.0000000000000000e+00 +8.5269999999999904e+00 +0.0000000000000000e+00 +0.0000000000000000e+00 -2.8914848632864042e-02 -5.5543718569576495e-01 +5.0547964685182748e-03
5.0000000000000003e-02 +8.5269999309457507e+00 +0.0000000000000000e+00 +4.9999999999936401e-02 -2.8915539428596392e-02 -5.5543390124642400e-01 +5.0539609452314622e-03
1.0000000000000001e-01 +8.5269997237883199e+00 +0.0000000000000000e+00 +9.9999999999491399e-02 -2.8916247925379321e-02 -5.5543094863936715e-01 +5.0531336810797347e-03
1.4999999999999999e-01 +8.5269993785295792e+00 +0.0000000000000000e+00 +1.4999999999828301e-01 -2.8916974205735090e-02 -5.5542832749777837e-01 +5.0523147374601039e-03
2.0000000000000001e-01 +8.5269988951622508e+00 +0.0000000000000000e+00 +1.9999999999593099e-01 -2.8917718352190345e-02 -5.5542603744492236e-01 +5.0515041757703948e-03
2.5000000000000000e-01 +8.5269982736936107e+00 +0.0000000000000000e+00 +2.4999999999205300e-01 -2.8918480447267060e-02 -5.5542407810397154e-01 +5.0507020574079584e-03
2.9999999999999999e-01 +8.5269975141200103e+00 +0.0000000000000000e+00 +2.9999999998626797e-01 -2.8919260573492461e-02 -5.5542244909819360e-01 +5.0499084437710794e-03
3.4999999999999998e-01 +8.5269966164378292e+00 +0.0000000000000000e+00 +3.4999999997819298e-01 -2.8920058813394715e-02 -5.5542115005086901e-01 +5.0491233962583889e-03
4.0000000000000002e-01 +8.5269955806543294e+00 +0.0000000000000000e+00 +3.9999999996744900e-01 -2.8920875249498934e-02 -5.5542018058521381e-01 +5.0483469762682706e-03
4.5000000000000001e-01 +8.5269944067658798e+00 +0.0000000000000000e+00 +4.4999999995365297e-01 -2.8921709964335483e-02 -5.5541954032453744e-01 +5.0475792452000798e-03
5.0000000000000000e-01 +8.5269930947724806e+00 +0.0000000000000000e+00 +4.9999999993642402e-01 -2.8922563040434546e-02 -5.5541922889213713e-01 +5.0468202644533451e-03
5.5000000000000004e-01 +8.5269916446777607e+00 +0.0000000000000000e+00 +5.4999999991537996e-01 -2.8923434560326068e-02 -5.5541924591129754e-01 +5.0460700954277774e-03
5.9999999999999998e-01 +8.5269900564744603e+00 +0.0000000000000000e+00 +5.9999999989013997e-01 -2.8924324606545444e-02 -5.5541959100539751e-01 +5.0453287995240893e-03
6.5000000000000002e-01 +8.5269883301661995e+00 +0.0000000000000000e+00 +6.4999999986032297e-01 -2.8925233261625185e-02 -5.5542026379775045e-01 +5.0445964381427982e-03
6.9999999999999996e-01 +8.5269864657566394e+00 +0.0000000000000000e+00 +6.9999999982554695e-01 -2.8926160608099088e-02 -5.5542126391168278e-01 +5.0438730726848381e-03
7.5000000000000000e-01 +8.5269844632421208e+00 +0.0000000000000000e+00 +7.4999999978543097e-01 -2.8927106728505174e-02 -5.5542259097058932e-01 +5.0431587645519702e-03
8.0000000000000004e-01 +8.5269823226226400e+00 +0.0000000000000000e+00 +7.9999999973959202e-01 -2.8928071705381479e-02 -5.5542424459785245e-01 +5.0424535751461977e-03
8.4999999999999998e-01 +8.5269800438982202e+00 +0.0000000000000000e+00 +8.4999999968765005e-01 -2.8929055621267449e-02 -5.5542622441686706e-01 +5.0417575658699551e-03
9.0000000000000002e-01 +8.5269776270688507e+00 +0.0000000000000000e+00 +8.9999999962922395e-01 -2.8930058558704081e-02 -5.5542853005104331e-01 +5.0410707981261545e-03
9.4999999999999996e-01 +8.5269750721381605e+00 +0.0000000000000000e+00 +9.4999999956393100e-01 -2.8931080600232542e-02 -5.5543116112377888e-01 +5.0403933333179676e-03
1.0000000000000000e+00 +8.5269723790988792e+00 +0.0000000000000000e+00 +9.9999999949139096e-01 -2.8932121828399757e-02 -5.5543411725856473e-01 +5.0397252328496416e-03
1.0500000000000000e+00 +8.5269695479546499e+00 +0.0000000000000000e+00 +1.0499999994112199e+00 -2.8933182325750068e-02 -5.5543739807882553e-01 +5.0390665581253134e-03
1.1000000000000001e+00 +8.5269665787091107e+00 +0.0000000000000000e+00 +1.0999999993230400e+00 -2.8934262174829566e-02 -5.5544100320800049e-01 +5.0384173705496204e-03
1.1499999999999999e+00 +8.5269634713586093e+00 +0.0000000000000000e+00 +1.1499999992264700e+00 -2.8935361458188799e-02 -5.5544493226959601e-01 +5.0377777315281074e-03
1.2000000000000000e+00 +8.5269602259031707e+00 +0.0000000000000000e+00 +1.1999999991211201e+00 -2.8936480258378725e-02 -5.5544918488710493e-01 +5.0371477024666348e-03
1.2500000000000000e+00 +8.5269568423427700e+00 +0.0000000000000000e+00 +1.2499999990066200e+00 -2.8937618657952090e-02 -5.5545376068403485e-01 +5.0365273447716000e-03
1.3000000000000000e+00 +8.5269533206774195e+00 +0.0000000000000000e+00 +1.2999999988825901e+00 -2.8938776739463521e-02 -5.5545865928390681e-01 +5.0359167198499311e-03
1.3500000000000001e+00 +8.5269496609071194e+00 +0.0000000000000000e+00 +1.3499999987486300e+00 -2.8939954585469520e-02 -5.5546388031025562e-01 +5.0353158891091121e-03
1.3999999999999999e+00 +8.5269458630355093e+00 +0.0000000000000000e+00 +1.3999999986043801e+00 -2.8941152278527112e-02 -5.5546942338660299e-01 +5.0347249139569838e-03
1.4500000000000000e+00 +8.5269419270553009e+00 +0.0000000000000000e+00 +1.4499999984494401e+00 -2.8942369901199579e-02 -5.5547528813656444e-01 +5.0341438558025560e-03
1.5000000000000000e+00 +8.5269378529737896e+00 +0.0000000000000000e+00 +1.4999999982834400e+00 -2.8943607536046544e-02 -5.5548147418366289e-01 +5.0335727760546182e-03
1.5500000000000000e+00 +8.5269336407873197e+00 +0.0000000000000000e+00 +1.5499999981060000e+00 -2.8944865265633949e-02 -5.5548798115151421e-01 +5.0330117361231533e-03
1.6000000000000001e+00 +8.5269292904959002e+00 +0.0000000000000000e+00 +1.5999999979167401e+00 -2.8946143172528471e-02 -5.5549480866372225e-01 +5.0324607974185443e-03
1.6499999999999999e+00 +8.5269248020995292e+00 +0.0000000000000000e+00 +1.6499999977152600e+00 -2.8947441339298909e-02 -5.5550195634390387e-01 +5.0319200213517802e-03
1.7000000000000000e+00 +8.5269201755982102e+00 +0.0000000000000000e+00 +1.6999999975011999e+00 -2.8948759848516272e-02 -5.5550942381568946e-01 +5.0313894693344756e-03
1.7500000000000000e+00 +8.5269154109919292e+00 +0.0000000000000000e+00 +1.7499999972741700e+00 -2.8950098782753841e-02 -5.5551721070272353e-01 +5.0308692027788782e-03
1.8000000000000000e+00 +8.5269105082843506e+00 +0.0000000000000000e+00 +1.7999999970337901e+00 -2.8951458224585717e-02 -5.5552531662863658e-01 +5.0303592830976658e-03
1.8500000000000001e+00 +8.5269054674718099e+00 +0.0000000000000000e+00 +1.8499999967796801e+00 -2.8952838256591250e-02 -5.5553374121712740e-01 +5.0298597717045868e-03
1.8999999999999999e+00 +8.5269002885506797e+00 +0.0000000000000000e+00 +1.8999999965114500e+00 -2.8954238961352057e-02 -5.5554248409190643e-01 +5.0293707300140258e-03
1.9500000000000000e+00 +8.5268949715282396e+00 +0.0000000000000000e+00 +1.9499999962287300e+00 -2.8955660421448044e-02 -5.5555154487661962e-01 +5.0288922194404668e-03
2.0000000000000000e+00 +8.5268895164008391e+00 +0.0000000000000000e+00 +1.9999999959311201e+00 -2.8957102719465735e-02 -5.5556092319500450e-01 +5.0284243013996553e-03
2.0499999999999998e+00 +8.5268839230666291e+00 +0.0000000000000000e+00 +2.0499999956182600e+00 -2.8958565887137654e-02 -5.5557061842635935e-01 +5.0279670331873369e-03
2.1000000000000001e+00 +8.5268781914164702e+00 +0.0000000000000000e+00 +2.0999999952897199e+00 -2.8960049752623184e-02 -5.5558062896935090e-01 +5.0275204555961187e-03
2.1499999999999999e+00 +8.5268723214576294e+00 +0.0000000000000000e+00 +2.1499999949451398e+00 -2.8961554093142893e-02 -5.5559095297663241e-01 +5.0270846052868660e-03
2.2000000000000002e+00 +8.5268663131864706e+00 +0.0000000000000000e+00 +2.1999999945841302e+00 -2.8963078685921850e-02 -5.5560158860094533e-01 +5.0266595189216896e-03
2.2500000000000000e+00 +8.5268601666030008e+00 +0.0000000000000000e+00 +2.2499999942063100e+00 -2.8964623308183956e-02 -5.5561253399501798e-01 +5.0262452331631636e-03
2.2999999999999998e+00 +8.5268538817035697e+00 +0.0000000000000000e+00 +2.2999999938113000e+00 -2.8966187737154633e-02 -5.5562378731161521e-01 +5.0258417846747302e-03
2.3500000000000001e+00 +8.5268474584954692e+00 +0.0000000000000000e+00 +2.3499999933987001e+00 -2.8967771750055125e-02 -5.5563534670343273e-01 +5.0254492101199097e-03
2.3999999999999999e+00 +8.5268408969750507e+00 +0.0000000000000000e+00 +2.3999999929681501e+00 -2.8969375124110845e-02 -5.5564721032325681e-01 +5.0250675461635018e-03
2.4500000000000002e+00 +8.5268341971459396e+00 +0.0000000000000000e+00 +2.4499999925192602e+00 -2.8970997636544319e-02 -5.5565937632383100e-01 +5.0246968294705950e-03
2.5000000000000000e+00 +8.5268273590008903e+00 +0.0000000000000000e+00 +2.4999999920516398e+00 -2.8972639064581994e-02 -5.5567184285798898e-01 +5.0243370967075658e-03
2.5499999999999998e+00 +8.5268203825435194e+00 +0.0000000000000000e+00 +2.5499999915649201e+00 -2.8974299185445838e-02 -5.5568460807849507e-01 +5.0239883845408957e-03
2.6000000000000001e+00 +8.5268132677774702e+00 +0.0000000000000000e+00 +2.5999999910586999e+00 -2.8975977776357430e-02 -5.5569767013812266e-01 +5.0236507296377748e-03
2.6499999999999999e+00 +8.5268060146954703e+00 +0.0000000000000000e+00 +2.6499999905326099e+00 -2.8977674614542096e-02 -5.5571102718973608e-01 +5.0233241686667030e-03
2.7000000000000002e+00 +8.5267986233047797e+00 +0.0000000000000000e+00 +2.6999999899862699e+00 -2.8979389477218950e-02 -5.5572467738610209e-01 +5.0230087382960977e-03
2.7500000000000000e+00 +8.5267910936017905e+00 +0.0000000000000000e+00 +2.7499999894192899e+00 -2.8981122141610690e-02 -5.5573861888007681e-01 +5.0227044751957103e-03
2.7999999999999998e+00 +8.5267834255828294e+00 +0.0000000000000000e+00 +2.7999999888312899e+00 -2.8982872384939299e-02 -5.5575284982452700e-01 +5.0224114160360147e-03
2.8500000000000001e+00 +8.5267756192552007e+00 +0.0000000000000000e+00 +2.8499999882218900e+00 -2.8984639984421669e-02 -5.5576736837224661e-01 +5.0221295974876325e-03
2.8999999999999999e+00 +8.5267676746152592e+00 +0.0000000000000000e+00 +2.8999999875907001e+00 -2.8986424717278032e-02 -5.5578217267612073e-01 +5.0218590562225241e-03
2.9500000000000002e+00 +8.5267595916629908e+00 +0.0000000000000000e+00 +2.9499999869373399e+00 -2.8988226360726264e-02 -5.5579726088901626e-01 +5.0215998289132062e-03
3.0000000000000000e+00 +8.5267513703984203e+00 +0.0000000000000000e+00 +2.9999999862614302e+00 -2.8990044691983054e-02 -5.5581263116380786e-01 +5.0213519522329473e-03
3.0499999999999998e+00 +8.5267430108251592e+00 +0.0000000000000000e+00 +3.0499999855625899e+00 -2.8991879488262606e-02 -5.5582828165335352e-01 +5.0211154628555885e-03
3.1000000000000001e+00 +8.5267345129359509e+00 +0.0000000000000000e+00 +3.0999999848404300e+00 -2.8993730526782047e-02 -5.5584421051059918e-01 +5.0208903974563327e-03
3.1499999999999999e+00 +8.5267258767344192e+00 +0.0000000000000000e+00 +3.1499999840945798e+00 -2.8995597584752973e-02 -5.5586041588841961e-01 +5.0206767927105673e-03
3.2000000000000002e+00 +8.5267171022205694e+00 +0.0000000000000000e+00 +3.1999999833246400e+00 -2.8997480439386922e-02 -5.5587689593972389e-01 +5.0204746852946609e-03
3.2500000000000000e+00 +8.5267081893980503e+00 +0.0000000000000000e+00 +3.2499999825302401e+00 -2.8999378867892535e-02 -5.5589364881740289e-01 +5.0202841118855779e-03
3.2999999999999998e+00 +8.5266991382632096e+00 +0.0000000000000000e+00 +3.2999999817109900e+00 -2.9001292647479648e-02 -5.5591067267440863e-01 +5.0201051091614659e-03
3.3500000000000001e+00 +8.5266899488124199e+00 +0.0000000000000000e+00 +3.3499999808665200e+00 -2.9003221555356451e-02 -5.5592796566370140e-01 +5.0199377138012841e-03
3.3999999999999999e+00 +8.5266806210529502e+00 +0.0000000000000000e+00 +3.3999999799964300e+00 -2.9005165368725085e-02 -5.5594552593816826e-01 +5.0197819624842070e-03
3.4500000000000002e+00 +8.5266711549811607e+00 +0.0000000000000000e+00 +3.4499999791003502e+00 -2.9007123864790079e-02 -5.5596335165078503e-01 +5.0196378918908090e-03
3.5000000000000000e+00 +8.5266615505970496e+00 +0.0000000000000000e+00 +3.4999999781778901e+00 -2.9009096820752617e-02 -5.5598144095450697e-01 +5.0195055387023029e-03
3.5499999999999998e+00 +8.5266518079006293e+00 +0.0000000000000000e+00 +3.5499999772286701e+00 -2.9011084013811816e-02 -5.5599979200229721e-01 +5.0193849396007201e-03
3.6000000000000001e+00 +8.5266419268882601e+00 +0.0000000000000000e+00 +3.5999999762523198e+00 -2.9013085221166145e-02 -5.5601840294715310e-01 +5.0192761312691288e-03
3.6499999999999999e+00 +8.5266319075708505e+00 +0.0000000000000000e+00 +3.6499999752484298e+00 -2.9015100220006140e-02 -5.5603727194197106e-01 +5.0191791503906447e-03
3.6999999999999900e+00 +8.5266217499374797e+00 +0.0000000000000000e+00 +3.6999999742166398e+00 -2.9017128787528584e-02 -5.5605639713981547e-01 +5.0190940336504227e-03
3.7499999999999898e+00 +8.5266114539917908e+00 +0.0000000000000000e+00 +3.7499999731565601e+00 -2.9019170700922203e-02 -5.5607577669364994e-01 +5.0190208177336758e-03
3.7999999999999901e+00 +8.5266010197374307e+00 +0.0000000000000000e+00 +3.7999999720678099e+00 -2.9021225737373244e-02 -5.5609540875644470e-01 +5.0189595393264818e-03
3.8499999999999899e+00 +8.5265904471671092e+00 +0.0000000000000000e+00 +3.8499999709499999e+00 -2.9023293674069677e-02 -5.5611529148125671e-01 +5.0189102351163722e-03
3.8999999999999901e+00 +8.5265797362881095e+00 +0.0000000000000000e+00 +3.8999999698027499e+00 -2.9025374288191137e-02 -5.5613542302104213e-01 +5.0188729417909739e-03
3.9499999999999900e+00 +8.5265688870931609e+00 +0.0000000000000000e+00 +3.9499999686256899e+00 -2.9027467356920238e-02 -5.5615580152887001e-01 +5.0188476960395705e-03
3.9999999999999898e+00 +8.5265578995895304e+00 +0.0000000000000000e+00 +3.9999999674184199e+00 -2.9029572657431071e-02 -5.5617642515770827e-01 +5.0188345345515495e-03
4.0499999999999901e+00 +8.5265467737735907e+00 +0.0000000000000000e+00 +4.0499999661805601e+00 -2.9031689986779661e-02 -5.5619729201284018e-01 +5.0188334879427412e-03
4.0999999999999899e+00 +8.5265355096416897e+00 +0.0000000000000000e+00 +4.0999999649117402e+00 -2.9033819221542412e-02 -5.5621840000846945e-01 +5.0188445625294655e-03
4.1499999999999897e+00 +8.5265241072047502e+00 +0.0000000000000000e+00 +4.1499999636115703e+00 -2.9035960258170651e-02 -5.5623974701092216e-01 +5.0188677585525322e-03
4.1999999999999904e+00 +8.5265125664518600e+00 +0.0000000000000000e+00 +4.1999999622796604e+00 -2.9038112993124397e-02 -5.5626133088668561e-01 +5.0189030762542233e-03
4.2499999999999902e+00 +8.5265008873866499e+00 +0.0000000000000000e+00 +4.2499999609156403e+00 -2.9040277322858184e-02 -5.5628314950213975e-01 +5.0189505158762986e-03
4.2999999999999901e+00 +8.5264890700091200e+00 +0.0000000000000000e+00 +4.2999999595191198e+00 -2.9042453143828244e-02 -5.5630520072369138e-01 +5.0190100776609800e-03
4.3499999999999899e+00 +8.5264771143192792e+00 +0.0000000000000000e+00 +4.3499999580897200e+00 -2.9044640352491005e-02 -5.5632748241774621e-01 +5.0190817618507343e-03
4.3999999999999897e+00 +8.5264650203207601e+00 +0.0000000000000000e+00 +4.3999999566270596e+00 -2.9046838845301758e-02 -5.5634999245068251e-01 +5.0191655686880705e-03
4.4499999999999904e+00 +8.5264527880062797e+00 +0.0000000000000000e+00 +4.4499999551307496e+00 -2.9049048518720328e-02 -5.5637272868895771e-01 +5.0192614984163140e-03
4.4999999999999902e+00 +8.5264404173794901e+00 +0.0000000000000000e+00 +4.4999999536004101e+00 -2.9051269269202516e-02 -5.5639568899894720e-01 +5.0193695512784084e-03
4.5499999999999901e+00 +8.5264279084440204e+00 +0.0000000000000000e+00 +4.5499999520356598e+00 -2.9053500993204459e-02 -5.5641887124702472e-01 +5.0194897275174953e-03
4.5999999999999899e+00 +8.5264152611962292e+00 +0.0000000000000000e+00 +4.5999999504361098e+00 -2.9055743587185417e-02 -5.5644227329961593e-01 +5.0196220273773040e-03
4.6499999999999897e+00 +8.5264024756361305e+00 +0.0000000000000000e+00 +4.6499999488013897e+00 -2.9057996947603540e-02 -5.5646589302311589e-01 +5.0197664511015382e-03
4.6999999999999904e+00 +8.5263895517600794e+00 +0.0000000000000000e+00 +4.6999999471311096e+00 -2.9060260970918739e-02 -5.5648972828394527e-01 +5.0199229989342665e-03
4.7499999999999902e+00 +8.5263764895753393e+00 +0.0000000000000000e+00 +4.7499999454248902e+00 -2.9062535553587003e-02 -5.5651377694844062e-01 +5.0200916711191142e-03
4.7999999999999901e+00 +8.5263632890782901e+00 +0.0000000000000000e+00 +4.7999999436823400e+00 -2.9064820592068937e-02 -5.5653803688301595e-01 +5.0202724679004390e-03
4.8499999999999899e+00 +8.5263499502725608e+00 +0.0000000000000000e+00 +4.8499999419030901e+00 -2.9067115982822661e-02 -5.5656250595402756e-01 +5.0204653895223302e-03
4.8999999999999897e+00 +8.5263364731472393e+00 +0.0000000000000000e+00 +4.8999999400867402e+00 -2.9069421622312370e-02 -5.5658718202793578e-01 +5.0206704362297924e-03
4.9499999999999904e+00 +8.5263228577168793e+00 +0.0000000000000000e+00 +4.9499999382329296e+00 -2.9071737406992697e-02 -5.5661206297100896e-01 +5.0208876082665343e-03
4.9999999999999902e+00 +8.5263091039705596e+00 +0.0000000000000000e+00 +4.9999999363412497e+00 -2.9074063233328614e-02 -5.5663714664969810e-01 +5.0211169058777582e-03
5.0499999999999901e+00 +8.5262952115954196e+00 +0.0000000000000000e+00 +5.0499999344112600e+00 -2.9076398997903808e-02 -5.5666243093268097e-01 +5.0213583293253266e-03
5.0999999999999899e+00 +8.5262811802713294e+00 +0.0000000000000000e+00 +5.0999999324424596e+00 -2.9078744597305365e-02 -5.5668791368868586e-01 +5.0216118788716201e-03
5.1499999999999897e+00 +8.5262670100019005e+00 +0.0000000000000000e+00 +5.1499999304344799e+00 -2.9081099927994059e-02 -5.5671359278404431e-01 +5.0218775547613030e-03
5.1999999999999904e+00 +8.5262527007798798e+00 +0.0000000000000000e+00 +5.1999999283869203e+00 -2.9083464886435373e-02 -5.5673946608516256e-01 +5.0221553572396792e-03
5.2499999999999902e+00 +8.5262382526088896e+00 +0.0000000000000000e+00 +5.2499999262994104e+00 -2.9085839369091007e-02 -5.5676553145836061e-01 +5.0224452865514913e-03
5.2999999999999901e+00 +8.5262236654925800e+00 +0.0000000000000000e+00 +5.2999999241715603e+00 -2.9088223272423129e-02 -5.5679178676995300e-01 +5.0227473429415026e-03
5.3499999999999899e+00 +8.5262089394273097e+00 +0.0000000000000000e+00 +5.3499999220029704e+00 -2.9090616492897244e-02 -5.5681822988629959e-01 +5.0230615266548834e-03
5.3999999999999897e+00 +8.5261940744130698e+00 +0.0000000000000000e+00 +5.3999999197932702e+00 -2.9093018926977934e-02 -5.5684485867372868e-01 +5.0233878379366036e-03
5.4499999999999904e+00 +8.5261790704498708e+00 +0.0000000000000000e+00 +5.4499999175420601e+00 -2.9095430471130303e-02 -5.5687167099856016e-01 +5.0237262770316199e-03
5.4999999999999902e+00 +8.5261639275377092e+00 +0.0000000000000000e+00 +5.4999999152489698e+00 -2.9097851021819991e-02 -5.5689866472710670e-01 +5.0240768441848589e-03
5.5499999999999901e+00 +8.5261486456802196e+00 +0.0000000000000000e+00 +5.5499999129136004e+00 -2.9100280475511733e-02 -5.5692583772564708e-01 +5.0244395396410067e-03
5.5999999999999899e+00 +8.5261332248737691e+00 +0.0000000000000000e+00 +5.5999999105355700e+00 -2.9102718728673663e-02 -5.5695318786050474e-01 +5.0248143636451026e-03
5.6499999999999897e+00 +8.5261176651147306e+00 +0.0000000000000000e+00 +5.6499999081144896e+00 -2.9105165677774505e-02 -5.5698071299799534e-01 +5.0252013164421199e-03
5.6999999999999904e+00 +8.5261019664103497e+00 +0.0000000000000000e+00 +5.6999999056499897e+00 -2.9107621219279296e-02 -5.5700841100434639e-01 +5.0256003982763597e-03
5.7499999999999902e+00 +8.5260861287570204e+00 +0.0000000000000000e+00 +5.7499999031416600e+00 -2.9110085249657875e-02 -5.5703627974585534e-01 +5.0260116093926305e-03
5.7999999999999901e+00 +8.5260701521547198e+00 +0.0000000000000000e+00 +5.7999999005891203e+00 -2.9112557665379339e-02 -5.5706431708878446e-01 +5.0264349500354433e-03
5.8499999999999899e+00 +8.5260540366070892e+00 +0.0000000000000000e+00 +5.8499998979920003e+00 -2.9115038362911926e-02 -5.5709252089935979e-01 +5.0268704204489952e-03
5.8999999999999897e+00 +8.5260377821068705e+00 +0.0000000000000000e+00 +5.8999998953498896e+00 -2.9117527238728770e-02 -5.5712088904387802e-01 +5.0273180208779680e-03
