# trajectory
# s[mm] rx[mm] ry[mm] rz[mm] px[rad] py[rad] pz[rad]
0.0000000000000000e+00 +8.2850000000000001e+00 +0.0000000000000000e+00 +0.0000000000000000e+00 +0.0000000000000000e+00 +0.0000000000000000e+00 +1.0000000000000000e+00
5.0000000000000003e-02 +8.2849999307392146e+00 +0.0000000000000000e+00 +4.9999999999936033e-02 -2.7704316006568411e-06 +0.0000000000000000e+00 +9.9999999999616240e-01
1.0000000000000001e-01 +8.2849997229568029e+00 +0.0000000000000000e+00 +9.9999999999488304e-02 -5.5408653791844936e-06 +0.0000000000000000e+00 +9.9999999998464950e-01
1.5000000000000002e-01 +8.2849993766526087e+00 +0.0000000000000000e+00 +1.4999999999827307e-01 -8.3113032679526364e-06 +0.0000000000000000e+00 +9.9999999996546118e-01
2.0000000000000001e-01 +8.2849988918263762e+00 +0.0000000000000000e+00 +1.9999999999590651e-01 -1.1081747194550684e-05 +0.0000000000000000e+00 +9.9999999993859745e-01
2.5000000000000000e-01 +8.2849982684777572e+00 +0.0000000000000000e+00 +2.4999999999200490e-01 -1.3852199081787866e-05 +0.0000000000000000e+00 +9.9999999990405830e-01
2.9999999999999999e-01 +8.2849975066063042e+00 +0.0000000000000000e+00 +2.9999999998618443e-01 -1.6622660847693314e-05 +0.0000000000000000e+00 +9.9999999986184362e-01
3.4999999999999998e-01 +8.2849966062114753e+00 +0.0000000000000000e+00 +3.4999999997806130e-01 -1.9393134405516135e-05 +0.0000000000000000e+00 +9.9999999981195320e-01
3.9999999999999997e-01 +8.2849955672926345e+00 +0.0000000000000000e+00 +3.9999999996725177e-01 -2.2163621663725497e-05 +0.0000000000000000e+00 +9.9999999975438691e-01
4.4999999999999996e-01 +8.2849943898490483e+00 +0.0000000000000000e+00 +4.4999999995337203e-01 -2.4934124526010714e-05 +0.0000000000000000e+00 +9.9999999968914466e-01
4.9999999999999994e-01 +8.2849930738798889e+00 +0.0000000000000000e+00 +4.9999999993603828e-01 -2.7704644891281324e-05 +0.0000000000000000e+00 +9.9999999961622632e-01
5.4999999999999993e-01 +8.2849916193842343e+00 +0.0000000000000000e+00 +5.4999999991486670e-01 -3.0475184653667172e-05 +0.0000000000000000e+00 +9.9999999953563157e-01
5.9999999999999998e-01 +8.2849900263610685e+00 +0.0000000000000000e+00 +5.9999999988947350e-01 -3.3245745702518483e-05 +0.0000000000000000e+00 +9.9999999944736018e-01
6.5000000000000002e-01 +8.2849882948092777e+00 +0.0000000000000000e+00 +6.4999999985947476e-01 -3.6016329922405959e-05 +0.0000000000000000e+00 +9.9999999935141193e-01
7.0000000000000007e-01 +8.2849864247276575e+00 +0.0000000000000000e+00 +6.9999999982448669e-01 -3.8786939193120842e-05 +0.0000000000000000e+00 +9.9999999924778660e-01
7.5000000000000011e-01 +8.2849844161149093e+00 +0.0000000000000000e+00 +7.4999999978412546e-01 -4.1557575389675002e-05 +0.0000000000000000e+00 +9.9999999913648385e-01
8.0000000000000016e-01 +8.2849822689696389e+00 +0.0000000000000000e+00 +7.9999999973800717e-01 -4.4328240382301026e-05 +0.0000000000000000e+00 +9.9999999901750347e-01
8.5000000000000020e-01 +8.2849799832903592e+00 +0.0000000000000000e+00 +8.4999999968574791e-01 -4.7098936036452282e-05 +0.0000000000000000e+00 +9.9999999889084501e-01
9.0000000000000024e-01 +8.2849775590754930e+00 +0.0000000000000000e+00 +8.9999999962696375e-01 -4.9869664212803011e-05 +0.0000000000000000e+00 +9.9999999875650825e-01
9.5000000000000029e-01 +8.2849749963233652e+00 +0.0000000000000000e+00 +9.4999999956127079e-01 -5.2640426767248403e-05 +0.0000000000000000e+00 +9.9999999861449274e-01
1.0000000000000002e+00 +8.2849722950322118e+00 +0.0000000000000000e+00 +9.9999999948828511e-01 -5.5411225550904676e-05 +0.0000000000000000e+00 +9.9999999846479803e-01
1.0500000000000003e+00 +8.2849694552001747e+00 +0.0000000000000000e+00 +1.0499999994076226e+00 -5.8182062410109158e-05 +0.0000000000000000e+00 +9.9999999830742381e-01
1.1000000000000003e+00 +8.2849664768253053e+00 +0.0000000000000000e+00 +1.0999999993188994e+00 -6.0952939186420368e-05 +0.0000000000000000e+00 +9.9999999814236962e-01
1.1500000000000004e+00 +8.2849633599055608e+00 +0.0000000000000000e+00 +1.1499999992217316e+00 -6.3723857716618080e-05 +0.0000000000000000e+00 +9.9999999796963501e-01
1.2000000000000004e+00 +8.2849601044388077e+00 +0.0000000000000000e+00 +1.1999999991157349e+00 -6.6494819832703438e-05 +0.0000000000000000e+00 +9.9999999778921955e-01
1.2500000000000004e+00 +8.2849567104228203e+00 +0.0000000000000000e+00 +1.2499999990005255e+00 -6.9265827361898998e-05 +0.0000000000000000e+00 +9.9999999760112268e-01
1.3000000000000005e+00 +8.2849531778552841e+00 +0.0000000000000000e+00 +1.2999999988757192e+00 -7.2036882126648812e-05 +0.0000000000000000e+00 +9.9999999740534395e-01
1.3500000000000005e+00 +8.2849495067337902e+00 +0.0000000000000000e+00 +1.3499999987409319e+00 -7.4807985944618541e-05 +0.0000000000000000e+00 +9.9999999720188282e-01
1.4000000000000006e+00 +8.2849456970558411e+00 +0.0000000000000000e+00 +1.3999999985957794e+00 -7.7579140628695480e-05 +0.0000000000000000e+00 +9.9999999699073872e-01
1.4500000000000006e+00 +8.2849417488188486e+00 +0.0000000000000000e+00 +1.4499999984398777e+00 -8.0350347986988686e-05 +0.0000000000000000e+00 +9.9999999677191098e-01
1.5000000000000007e+00 +8.2849376620201340e+00 +0.0000000000000000e+00 +1.4999999982728425e+00 -8.3121609822829027e-05 +0.0000000000000000e+00 +9.9999999654539917e-01
1.5500000000000007e+00 +8.2849334366569281e+00 +0.0000000000000000e+00 +1.5499999980942896e+00 -8.5892927934769263e-05 +0.0000000000000000e+00 +9.9999999631120262e-01
1.6000000000000008e+00 +8.2849290727263725e+00 +0.0000000000000000e+00 +1.5999999979038346e+00 -8.8664304116584146e-05 +0.0000000000000000e+00 +9.9999999606932077e-01
1.6500000000000008e+00 +8.2849245702255185e+00 +0.0000000000000000e+00 +1.6499999977010935e+00 -9.1435740157270470e-05 +0.0000000000000000e+00 +9.9999999581975285e-01
1.7000000000000008e+00 +8.2849199291513287e+00 +0.0000000000000000e+00 +1.6999999974856819e+00 -9.4207237841047165e-05 +0.0000000000000000e+00 +9.9999999556249830e-01
1.7500000000000009e+00 +8.2849151495006765e+00 +0.0000000000000000e+00 +1.7499999972572153e+00 -9.6978798947355369e-05 +0.0000000000000000e+00 +9.9999999529755645e-01
1.8000000000000009e+00 +8.2849102312703469e+00 +0.0000000000000000e+00 +1.7999999970153095e+00 -9.9750425250858506e-05 +0.0000000000000000e+00 +9.9999999502492654e-01
1.8500000000000010e+00 +8.2849051744570357e+00 +0.0000000000000000e+00 +1.8499999967595799e+00 -1.0252211852144237e-04 +0.0000000000000000e+00 +9.9999999474460777e-01
1.9000000000000010e+00 +8.2848999790573501e+00 +0.0000000000000000e+00 +1.8999999964896421e+00 -1.0529388052421518e-04 +0.0000000000000000e+00 +9.9999999445659948e-01
1.9500000000000011e+00 +8.2848946450678085e+00 +0.0000000000000000e+00 +1.9499999962051118e+00 -1.0806571301950770e-04 +0.0000000000000000e+00 +9.9999999416090091e-01
2.0000000000000009e+00 +8.2848891724848439e+00 +0.0000000000000000e+00 +1.9999999959056041e+00 -1.1083761776287327e-04 +0.0000000000000000e+00 +9.9999999385751126e-01
2.0500000000000007e+00 +8.2848835613047989e+00 +0.0000000000000000e+00 +2.0499999955907349e+00 -1.1360959650486245e-04 +0.0000000000000000e+00 +9.9999999354642977e-01
2.1000000000000005e+00 +8.2848778115239305e+00 +0.0000000000000000e+00 +2.0999999952601192e+00 -1.1638165098854310e-04 +0.0000000000000000e+00 +9.9999999322765565e-01
2.1500000000000004e+00 +8.2848719231384091e+00 +0.0000000000000000e+00 +2.1499999949133723e+00 -1.1915378294702044e-04 +0.0000000000000000e+00 +9.9999999290118802e-01
2.2000000000000002e+00 +8.2848658961443160e+00 +0.0000000000000000e+00 +2.1999999945501099e+00 -1.2192599410321168e-04 +0.0000000000000000e+00 +9.9999999256702599e-01
2.2500000000000000e+00 +8.2848597305376490e+00 +0.0000000000000000e+00 +2.2499999941699467e+00 -1.2469828616984603e-04 +0.0000000000000000e+00 +9.9999999222516867e-01
2.2999999999999998e+00 +8.2848534263143208e+00 +0.0000000000000000e+00 +2.2999999937724982e+00 -1.2747066084946483e-04 +0.0000000000000000e+00 +9.9999999187561528e-01
2.3499999999999996e+00 +8.2848469834701586e+00 +0.0000000000000000e+00 +2.3499999933573799e+00 -1.3024311983442159e-04 +0.0000000000000000e+00 +9.9999999151836483e-01
2.3999999999999995e+00 +8.2848404020009045e+00 +0.0000000000000000e+00 +2.3999999929242066e+00 -1.3301566480688202e-04 +0.0000000000000000e+00 +9.9999999115341642e-01
2.4499999999999993e+00 +8.2848336819022173e+00 +0.0000000000000000e+00 +2.4499999924725935e+00 -1.3578829743882408e-04 +0.0000000000000000e+00 +9.9999999078076907e-01
2.4999999999999991e+00 +8.2848268231696718e+00 +0.0000000000000000e+00 +2.4999999920021554e+00 -1.3856101939203810e-04 +0.0000000000000000e+00 +9.9999999040042187e-01
2.5499999999999989e+00 +8.2848198257987615e+00 +0.0000000000000000e+00 +2.5499999915125073e+00 -1.4133383231812680e-04 +0.0000000000000000e+00 +9.9999999001237383e-01
2.5999999999999988e+00 +8.2848126897848964e+00 +0.0000000000000000e+00 +2.5999999910032643e+00 -1.4410673785850538e-04 +0.0000000000000000e+00 +9.9999998961662395e-01
2.6499999999999986e+00 +8.2848054151234045e+00 +0.0000000000000000e+00 +2.6499999904740412e+00 -1.4687973764440149e-04 +0.0000000000000000e+00 +9.9999998921317124e-01
2.6999999999999984e+00 +8.2847980018095342e+00 +0.0000000000000000e+00 +2.6999999899244531e+00 -1.4965283329685538e-04 +0.0000000000000000e+00 +9.9999998880201468e-01
2.7499999999999982e+00 +8.2847904498384501e+00 +0.0000000000000000e+00 +2.7499999893541145e+00 -1.5242602642671994e-04 +0.0000000000000000e+00 +9.9999998838315318e-01
2.7999999999999980e+00 +8.2847827592052390e+00 +0.0000000000000000e+00 +2.7999999887626399e+00 -1.5519931863466064e-04 +0.0000000000000000e+00 +9.9999998795658573e-01
2.8499999999999979e+00 +8.2847749299049074e+00 +0.0000000000000000e+00 +2.8499999881496443e+00 -1.5797271151115578e-04 +0.0000000000000000e+00 +9.9999998752231123e-01
2.8999999999999977e+00 +8.2847669619323838e+00 +0.0000000000000000e+00 +2.8999999875147422e+00 -1.6074620663649635e-04 +0.0000000000000000e+00 +9.9999998708032856e-01
2.9499999999999975e+00 +8.2847588552825151e+00 +0.0000000000000000e+00 +2.9499999868575486e+00 -1.6351980558078621e-04 +0.0000000000000000e+00 +9.9999998663063661e-01
2.9999999999999973e+00 +8.2847506099500698e+00 +0.0000000000000000e+00 +2.9999999861776776e+00 -1.6629350990394207e-04 +0.0000000000000000e+00 +9.9999998617323427e-01
3.0499999999999972e+00 +8.2847422259297421e+00 +0.0000000000000000e+00 +3.0499999854747437e+00 -1.6906732115569358e-04 +0.0000000000000000e+00 +9.9999998570812043e-01
3.0999999999999970e+00 +8.2847337032161459e+00 +0.0000000000000000e+00 +3.0999999847483610e+00 -1.7184124087558334e-04 +0.0000000000000000e+00 +9.9999998523529399e-01
3.1499999999999968e+00 +8.2847250418038207e+00 +0.0000000000000000e+00 +3.1499999839981445e+00 -1.7461527059296696e-04 +0.0000000000000000e+00 +9.9999998475475360e-01
3.1999999999999966e+00 +8.2847162416872280e+00 +0.0000000000000000e+00 +3.1999999832237078e+00 -1.7738941182701316e-04 +0.0000000000000000e+00 +9.9999998426649828e-01
3.2499999999999964e+00 +8.2847073028607543e+00 +0.0000000000000000e+00 +3.2499999824246655e+00 -1.8016366608670370e-04 +0.0000000000000000e+00 +9.9999998377052668e-01
3.2999999999999963e+00 +8.2846982253187100e+00 +0.0000000000000000e+00 +3.2999999816006316e+00 -1.8293803487083357e-04 +0.0000000000000000e+00 +9.9999998326683770e-01
3.3499999999999961e+00 +8.2846890090553327e+00 +0.0000000000000000e+00 +3.3499999807512206e+00 -1.8571251966801089e-04 +0.0000000000000000e+00 +9.9999998275543001e-01
3.3999999999999959e+00 +8.2846796540647851e+00 +0.0000000000000000e+00 +3.3999999798760463e+00 -1.8848712195665705e-04 +0.0000000000000000e+00 +9.9999998223630238e-01
3.4499999999999957e+00 +8.2846701603411557e+00 +0.0000000000000000e+00 +3.4499999789747222e+00 -1.9126184320500671e-04 +0.0000000000000000e+00 +9.9999998170945359e-01
3.4999999999999956e+00 +8.2846605278784580e+00 +0.0000000000000000e+00 +3.4999999780468629e+00 -1.9403668487110787e-04 +0.0000000000000000e+00 +9.9999998117488242e-01
3.5499999999999954e+00 +8.2846507566706364e+00 +0.0000000000000000e+00 +3.5499999770920820e+00 -1.9681164840282186e-04 +0.0000000000000000e+00 +9.9999998063258744e-01
3.5999999999999952e+00 +8.2846408467115626e+00 +0.0000000000000000e+00 +3.5999999761099932e+00 -1.9958673523782342e-04 +0.0000000000000000e+00 +9.9999998008256741e-01
3.6499999999999950e+00 +8.2846307979950335e+00 +0.0000000000000000e+00 +3.6499999751002101e+00 -2.0236194680360074e-04 +0.0000000000000000e+00 +9.9999997952482111e-01
3.6999999999999948e+00 +8.2846206105147786e+00 +0.0000000000000000e+00 +3.6999999740623464e+00 -2.0513728451745548e-04 +0.0000000000000000e+00 +9.9999997895934711e-01
3.7499999999999947e+00 +8.2846102842644562e+00 +0.0000000000000000e+00 +3.7499999729960161e+00 -2.0791274978650281e-04 +0.0000000000000000e+00 +9.9999997838614407e-01
3.7999999999999945e+00 +8.2845998192376520e+00 +0.0000000000000000e+00 +3.7999999719008319e+00 -2.1068834400767147e-04 +0.0000000000000000e+00 +9.9999997780521066e-01
3.8499999999999943e+00 +8.2845892154278840e+00 +0.0000000000000000e+00 +3.8499999707764081e+00 -2.1346406856770372e-04 +0.0000000000000000e+00 +9.9999997721654554e-01
3.8999999999999941e+00 +8.2845784728286009e+00 +0.0000000000000000e+00 +3.8999999696223577e+00 -2.1623992484315552e-04 +0.0000000000000000e+00 +9.9999997662014728e-01
3.9499999999999940e+00 +8.2845675914331824e+00 +0.0000000000000000e+00 +3.9499999684382940e+00 -2.1901591420039640e-04 +0.0000000000000000e+00 +9.9999997601601442e-01
3.9999999999999938e+00 +8.2845565712349405e+00 +0.0000000000000000e+00 +3.9999999672238302e+00 -2.2179203799560965e-04 +0.0000000000000000e+00 +9.9999997540414565e-01
4.0499999999999936e+00 +8.2845454122271196e+00 +0.0000000000000000e+00 +4.0499999659785795e+00 -2.2456829757464710e-04 +0.0000000000000000e+00 +9.9999997478453950e-01
4.0999999999999934e+00 +8.2845341144028968e+00 +0.0000000000000000e+00 +4.0999999647021550e+00 -2.2734469427143324e-04 +0.0000000000000000e+00 +9.9999997415719466e-01
4.1499999999999932e+00 +8.2845226777553851e+00 +0.0000000000000000e+00 +4.1499999633941700e+00 -2.3012122940636911e-04 +0.0000000000000000e+00 +9.9999997352210956e-01
4.1999999999999931e+00 +8.2845111022776283e+00 +0.0000000000000000e+00 +4.1999999620542372e+00 -2.3289790428618728e-04 +0.0000000000000000e+00 +9.9999997287928277e-01
4.2499999999999929e+00 +8.2844993879626063e+00 +0.0000000000000000e+00 +4.2499999606819694e+00 -2.3567472020395179e-04 +0.0000000000000000e+00 +9.9999997222871284e-01
4.2999999999999927e+00 +8.2844875348032367e+00 +0.0000000000000000e+00 +4.2999999592769793e+00 -2.3845167843905823e-04 +0.0000000000000000e+00 +9.9999997157039822e-01
4.3499999999999925e+00 +8.2844755427923698e+00 +0.0000000000000000e+00 +4.3499999578388797e+00 -2.4122878025723368e-04 +0.0000000000000000e+00 +9.9999997090433745e-01
4.3999999999999924e+00 +8.2844634119227969e+00 +0.0000000000000000e+00 +4.3999999563672834e+00 -2.4400602691053674e-04 +0.0000000000000000e+00 +9.9999997023052911e-01
4.4499999999999922e+00 +8.2844511421872440e+00 +0.0000000000000000e+00 +4.4499999548618030e+00 -2.4678341963735756e-04 +0.0000000000000000e+00 +9.9999996954897152e-01
4.4999999999999920e+00 +8.2844387335783782e+00 +0.0000000000000000e+00 +4.4999999533220514e+00 -2.4956095966241774e-04 +0.0000000000000000e+00 +9.9999996885966336e-01
4.5499999999999918e+00 +8.2844261860888029e+00 +0.0000000000000000e+00 +4.5499999517476404e+00 -2.5233864819677052e-04 +0.0000000000000000e+00 +9.9999996816260295e-01
4.5999999999999917e+00 +8.2844134997110626e+00 +0.0000000000000000e+00 +4.5999999501381827e+00 -2.5511648643780052e-04 +0.0000000000000000e+00 +9.9999996745778874e-01
4.6499999999999915e+00 +8.2844006744376433e+00 +0.0000000000000000e+00 +4.6499999484932903e+00 -2.5789447556922402e-04 +0.0000000000000000e+00 +9.9999996674521929e-01
4.6999999999999913e+00 +8.2843877102609706e+00 +0.0000000000000000e+00 +4.6999999468125750e+00 -2.6067261676108869e-04 +0.0000000000000000e+00 +9.9999996602489294e-01
4.7499999999999911e+00 +8.2843746071734135e+00 +0.0000000000000000e+00 +4.7499999450956496e+00 -2.6345091116977378e-04 +0.0000000000000000e+00 +9.9999996529680824e-01
4.7999999999999909e+00 +8.2843613651672818e+00 +0.0000000000000000e+00 +4.7999999433421259e+00 -2.6622935993798994e-04 +0.0000000000000000e+00 +9.9999996456096341e-01
4.8499999999999908e+00 +8.2843479842348291e+00 +0.0000000000000000e+00 +4.8499999415516166e+00 -2.6900796419477939e-04 +0.0000000000000000e+00 +9.9999996381735701e-01
4.8999999999999906e+00 +8.2843344643682535e+00 +0.0000000000000000e+00 +4.8999999397237328e+00 -2.7178672505551583e-04 +0.0000000000000000e+00 +9.9999996306598737e-01
4.9499999999999904e+00 +8.2843208055596964e+00 +0.0000000000000000e+00 +4.9499999378580863e+00 -2.7456564362190441e-04 +0.0000000000000000e+00 +9.9999996230685295e-01
4.9999999999999902e+00 +8.2843070078012460e+00 +0.0000000000000000e+00 +4.9999999359542890e+00 -2.7734472098198170e-04 +0.0000000000000000e+00 +9.9999996153995208e-01
5.0499999999999901e+00 +8.2842930710849352e+00 +0.0000000000000000e+00 +5.0499999340119519e+00 -2.8012395821011565e-04 +0.0000000000000000e+00 +9.9999996076528319e-01
5.0999999999999899e+00 +8.2842789954027438e+00 +0.0000000000000000e+00 +5.0999999320306877e+00 -2.8290335636700577e-04 +0.0000000000000000e+00 +9.9999995998284463e-01
5.1499999999999897e+00 +8.2842647807465983e+00 +0.0000000000000000e+00 +5.1499999300101074e+00 -2.8568291649968283e-04 +0.0000000000000000e+00 +9.9999995919263474e-01
5.1999999999999895e+00 +8.2842504271083754e+00 +0.0000000000000000e+00 +5.1999999279498219e+00 -2.8846263964150905e-04 +0.0000000000000000e+00 +9.9999995839465183e-01
5.2499999999999893e+00 +8.2842359344799004e+00 +0.0000000000000000e+00 +5.2499999258494432e+00 -2.9124252681217796e-04 +0.0000000000000000e+00 +9.9999995758889437e-01
5.2999999999999892e+00 +8.2842213028529450e+00 +0.0000000000000000e+00 +5.2999999237085822e+00 -2.9402257901771448e-04 +0.0000000000000000e+00 +9.9999995677536058e-01
5.3499999999999890e+00 +8.2842065322192315e+00 +0.0000000000000000e+00 +5.3499999215268499e+00 -2.9680279725047477e-04 +0.0000000000000000e+00 +9.9999995595404878e-01
5.3999999999999888e+00 +8.2841916225704360e+00 +0.0000000000000000e+00 +5.3999999193038573e+00 -2.9958318248914627e-04 +0.0000000000000000e+00 +9.9999995512495732e-01
5.4499999999999886e+00 +8.2841765738981827e+00 +0.0000000000000000e+00 +5.4499999170392162e+00 -3.0236373569874779e-04 +0.0000000000000000e+00 +9.9999995428808452e-01
5.4999999999999885e+00 +8.2841613861940502e+00 +0.0000000000000000e+00 +5.4999999147325367e+00 -3.0514445783062923e-04 +0.0000000000000000e+00 +9.9999995344342874e-01
5.5499999999999883e+00 +8.2841460594495686e+00 +0.0000000000000000e+00 +5.5499999123834298e+00 -3.0792534982247173e-04 +0.0000000000000000e+00 +9.9999995259098828e-01
5.5999999999999881e+00 +8.2841305936562222e+00 +0.0000000000000000e+00 +5.5999999099915057e+00 -3.1070641259828762e-04 +0.0000000000000000e+00 +9.9999995173076139e-01
5.6499999999999879e+00 +8.2841149888054471e+00 +0.0000000000000000e+00 +5.6499999075563760e+00 -3.1348764706842032e-04 +0.0000000000000000e+00 +9.9999995086274629e-01
5.6999999999999877e+00 +8.2840992448886386e+00 +0.0000000000000000e+00 +5.6999999050776511e+00 -3.1626905412954437e-04 +0.0000000000000000e+00 +9.9999994998694142e-01
5.7499999999999876e+00 +8.2840833618971441e+00 +0.0000000000000000e+00 +5.7499999025549409e+00 -3.1905063466466536e-04 +0.0000000000000000e+00 +9.9999994910334489e-01
5.7999999999999874e+00 +8.2840673398222666e+00 +0.0000000000000000e+00 +5.7999998999878555e+00 -3.2183238954311996e-04 +0.0000000000000000e+00 +9.9999994821195515e-01
5.8499999999999872e+00 +8.2840511786552700e+00 +0.0000000000000000e+00 +5.8499998973760059e+00 -3.2461431962057570e-04 +0.0000000000000000e+00 +9.9999994731277031e-01
5.8999999999999870e+00 +8.2840348783873718e+00 +0.0000000000000000e+00 +5.8999998947190022e+00 -3.2739642573903114e-04 +0.0000000000000000e+00 +9.9999994640578871e-01
