# field on trajectory
# s[mm] rx[mm] ry[mm] rz[mm] bx[T] by[T] bz[T]
0.0000000000000000e+00 +8.5980000000000008e+00 +0.0000000000000000e+00 +0.0000000000000000e+00 -3.1722782672004117e-02 -5.7674804667854040e-01 +5.8738685346249224e-03
-5.0000000000000003e-02 +8.5979999310484576e+00 +0.0000000000000000e+00 -4.9999999999936616e-02 -3.1723168206023715e-02 -5.7675021455516917e-01 +5.8774453947608761e-03
-1.0000000000000001e-01 +8.5979997241934658e+00 +0.0000000000000000e+00 -9.9999999999492883e-02 -3.1723584993527669e-02 -5.7675279175894312e-01 +5.8810172429629142e-03
-1.5000000000000002e-01 +8.5979993794344090e+00 +0.0000000000000000e+00 -1.4999999999828845e-01 -3.1724032966559991e-02 -5.7675577720886273e-01 +5.8845837928809845e-03
-2.0000000000000001e-01 +8.5979988967705747e+00 +0.0000000000000000e+00 -1.9999999999594295e-01 -3.1724512057166185e-02 -5.7675916982394815e-01 +5.8881447581645291e-03
-2.5000000000000000e-01 +8.5979982762011495e+00 +0.0000000000000000e+00 -2.4999999999207603e-01 -3.1725022197393302e-02 -5.7676296852323827e-01 +5.8916998524624576e-03
-2.9999999999999999e-01 +8.5979975177252275e+00 +0.0000000000000000e+00 -2.9999999998630733e-01 -3.1725563319289815e-02 -5.7676717222579210e-01 +5.8952487894231428e-03
-3.4999999999999998e-01 +8.5979966213418013e+00 +0.0000000000000000e+00 -3.4999999997825648e-01 -3.1726135354905732e-02 -5.7677177985068695e-01 +5.8987912826943961e-03
-3.9999999999999997e-01 +8.5979955870497715e+00 +0.0000000000000000e+00 -3.9999999996754304e-01 -3.1726738236292511e-02 -5.7677679031702034e-01 +5.9023270459234436e-03
-4.4999999999999996e-01 +8.5979944148479390e+00 +0.0000000000000000e+00 -4.4999999995378664e-01 -3.1727371895503099e-02 -5.7678220254390755e-01 +5.9058557927569259e-03
-4.9999999999999994e-01 +8.5979931047350089e+00 +0.0000000000000000e+00 -4.9999999993660682e-01 -3.1728036264591905e-02 -5.7678801545048364e-01 +5.9093772368408728e-03
-5.4999999999999993e-01 +8.5979916567095920e+00 +0.0000000000000000e+00 -5.4999999991562321e-01 -3.1728731275614735e-02 -5.7679422795590096e-01 +5.9128910918206778e-03
-5.9999999999999998e-01 +8.5979900707702033e+00 +0.0000000000000000e+00 -5.9999999989045527e-01 -3.1729456860628918e-02 -5.7680083897933210e-01 +5.9163970713411018e-03
-6.5000000000000002e-01 +8.5979883469152618e+00 +0.0000000000000000e+00 -6.4999999986072265e-01 -3.1730212951693169e-02 -5.7680784743996749e-01 +5.9198948890462327e-03
-7.0000000000000007e-01 +8.5979864851430925e+00 +0.0000000000000000e+00 -6.9999999982604488e-01 -3.1730999480867647e-02 -5.7681525225701513e-01 +5.9233842585794888e-03
-7.5000000000000011e-01 +8.5979844854519243e+00 +0.0000000000000000e+00 -7.4999999978604137e-01 -3.1731816380213981e-02 -5.7682305234970299e-01 +5.9268648935835869e-03
-8.0000000000000016e-01 +8.5979823478398920e+00 +0.0000000000000000e+00 -7.9999999974033165e-01 -3.1732663581795113e-02 -5.7683124663727470e-01 +5.9303365077005296e-03
-8.5000000000000020e-01 +8.5979800723050364e+00 +0.0000000000000000e+00 -8.4999999968853523e-01 -3.1733541017675490e-02 -5.7683983403899397e-01 +5.9337988145715965e-03
-9.0000000000000024e-01 +8.5979776588453056e+00 +0.0000000000000000e+00 -8.9999999963027155e-01 -3.1734448619920905e-02 -5.7684881347414185e-01 +5.9372515278373192e-03
-9.5000000000000029e-01 +8.5979751074585504e+00 +0.0000000000000000e+00 -9.4999999956516001e-01 -3.1735386320598580e-02 -5.7685818386201715e-01 +5.9406943611374644e-03
-1.0000000000000002e+00 +8.5979724181425325e+00 +0.0000000000000000e+00 -9.9999999949281992e-01 -3.1736354051777105e-02 -5.7686794412193543e-01 +5.9441270281110200e-03
-1.0500000000000003e+00 +8.5979695908949161e+00 +0.0000000000000000e+00 -1.0499999994128708e+00 -3.1737351745526429e-02 -5.7687809317323135e-01 +5.9475492423961733e-03
-1.1000000000000003e+00 +8.5979666257132763e+00 +0.0000000000000000e+00 -1.0999999993249319e+00 -3.1738379333917918e-02 -5.7688862993525591e-01 +5.9509607176303041e-03
-1.1500000000000004e+00 +8.5979635225950926e+00 +0.0000000000000000e+00 -1.1499999992286225e+00 -3.1739436749024262e-02 -5.7689955332737752e-01 +5.9543611674499550e-03
-1.2000000000000004e+00 +8.5979602815377536e+00 +0.0000000000000000e+00 -1.1999999991235621e+00 -3.1740523922919525e-02 -5.7691086226898225e-01 +5.9577503054908248e-03
-1.2500000000000004e+00 +8.5979569025385558e+00 +0.0000000000000000e+00 -1.2499999990093700e+00 -3.1741640787679118e-02 -5.7692255567947315e-01 +5.9611278453877512e-03
-1.3000000000000005e+00 +8.5979533855947015e+00 +0.0000000000000000e+00 -1.2999999988856652e+00 -3.1742787275379776e-02 -5.7693463247826948e-01 +5.9644935007746773e-03
-1.3500000000000005e+00 +8.5979497307033057e+00 +0.0000000000000000e+00 -1.3499999987520670e+00 -3.1743963318099609e-02 -5.7694709158480839e-01 +5.9678469852846609e-03
-1.4000000000000006e+00 +8.5979459378613878e+00 +0.0000000000000000e+00 -1.3999999986081946e+00 -3.1745168847918011e-02 -5.7695993191854344e-01 +5.9711880125498384e-03
-1.4500000000000006e+00 +8.5979420070658783e+00 +0.0000000000000000e+00 -1.4499999984536671e+00 -3.1746403796915713e-02 -5.7697315239894420e-01 +5.9745162962014141e-03
-1.5000000000000007e+00 +8.5979379383136152e+00 +0.0000000000000000e+00 -1.4999999982881038e+00 -3.1747668097174768e-02 -5.7698675194549753e-01 +5.9778315498696440e-03
-1.5500000000000007e+00 +8.5979337316013478e+00 +0.0000000000000000e+00 -1.5499999981111237e+00 -3.1748961680778516e-02 -5.7700072947770653e-01 +5.9811334871838146e-03
-1.6000000000000008e+00 +8.5979293869257347e+00 +0.0000000000000000e+00 -1.5999999979223458e+00 -3.1750284479811597e-02 -5.7701508391508982e-01 +5.9844218217722346e-03
-1.6500000000000008e+00 +8.5979249042833423e+00 +0.0000000000000000e+00 -1.6499999977213891e+00 -3.1751636426359933e-02 -5.7702981417718324e-01 +5.9876962672622104e-03
-1.7000000000000008e+00 +8.5979202836706499e+00 +0.0000000000000000e+00 -1.6999999975078726e+00 -3.1753017452510766e-02 -5.7704491918353829e-01 +5.9909565372800299e-03
-1.7500000000000009e+00 +8.5979155250840442e+00 +0.0000000000000000e+00 -1.7499999972814153e+00 -3.1754427490352566e-02 -5.7706039785372176e-01 +5.9942023454509410e-03
-1.8000000000000009e+00 +8.5979106285198252e+00 +0.0000000000000000e+00 -1.7999999970416360e+00 -3.1755866471975092e-02 -5.7707624910731736e-01 +5.9974334053991551e-03
-1.8500000000000010e+00 +8.5979055939742040e+00 +0.0000000000000000e+00 -1.8499999967881537e+00 -3.1757334329469346e-02 -5.7709247186392365e-01 +6.0006494307478049e-03
-1.9000000000000010e+00 +8.5979004214433008e+00 +0.0000000000000000e+00 -1.8999999965205872e+00 -3.1758830994927614e-02 -5.7710906504315529e-01 +6.0038501351189410e-03
-1.9500000000000011e+00 +8.5978951109231474e+00 +0.0000000000000000e+00 -1.9499999962385550e+00 -3.1760356400443418e-02 -5.7712602756464226e-01 +6.0070352321335086e-03
-2.0000000000000009e+00 +8.5978896624096883e+00 +0.0000000000000000e+00 -1.9999999959416761e+00 -3.1761910478111471e-02 -5.7714335834802921e-01 +6.0102044354113414e-03
-2.0500000000000007e+00 +8.5978840758987811e+00 +0.0000000000000000e+00 -2.0499999956295691e+00 -3.1763493121643359e-02 -5.7716105610233515e-01 +6.0133574850266408e-03
-2.1000000000000005e+00 +8.5978783513861927e+00 +0.0000000000000000e+00 -2.0999999953018529e+00 -3.1765104071213857e-02 -5.7717911869402339e-01 +6.0164942268745615e-03
-2.1500000000000004e+00 +8.5978724888676048e+00 +0.0000000000000000e+00 -2.1499999949581459e+00 -3.1766743028613403e-02 -5.7719754377892829e-01 +6.0196145333046127e-03
-2.2000000000000002e+00 +8.5978664883386120e+00 +0.0000000000000000e+00 -2.1999999945980666e+00 -3.1768409695632473e-02 -5.7721632901289666e-01 +6.0227182766651550e-03
-2.2500000000000000e+00 +8.5978603497947219e+00 +0.0000000000000000e+00 -2.2499999942212336e+00 -3.1770103774061406e-02 -5.7723547205178660e-01 +6.0258053293033567e-03
-2.2999999999999998e+00 +8.5978540732313586e+00 +0.0000000000000000e+00 -2.2999999938272655e+00 -3.1771824965690414e-02 -5.7725497055146835e-01 +6.0288755635651932e-03
-2.3499999999999996e+00 +8.5978476586438610e+00 +0.0000000000000000e+00 -2.3499999934157803e+00 -3.1773572972309413e-02 -5.7727482216782311e-01 +6.0319288517954152e-03
-2.3999999999999995e+00 +8.5978411060274809e+00 +0.0000000000000000e+00 -2.3999999929863964e+00 -3.1775347495708046e-02 -5.7729502455674431e-01 +6.0349650663375602e-03
-2.4499999999999993e+00 +8.5978344153773882e+00 +0.0000000000000000e+00 -2.4499999925387326e+00 -3.1777148237675544e-02 -5.7731557537413536e-01 +6.0379840795339026e-03
-2.4999999999999991e+00 +8.5978275866886698e+00 +0.0000000000000000e+00 -2.4999999920724068e+00 -3.1778974900000638e-02 -5.7733647227591012e-01 +6.0409857637254679e-03
-2.5499999999999989e+00 +8.5978206199563285e+00 +0.0000000000000000e+00 -2.5499999915870371e+00 -3.1780827184471547e-02 -5.7735771291799420e-01 +6.0439699912519925e-03
-2.5999999999999988e+00 +8.5978135151752859e+00 +0.0000000000000000e+00 -2.5999999910822420e+00 -3.1782704792875836e-02 -5.7737929495632156e-01 +6.0469366344519269e-03
-2.6499999999999986e+00 +8.5978062723403816e+00 +0.0000000000000000e+00 -2.6499999905576397e+00 -3.1784607427000400e-02 -5.7740121604683714e-01 +6.0498855656624063e-03
-2.6999999999999984e+00 +8.5977988914463737e+00 +0.0000000000000000e+00 -2.6999999900128477e+00 -3.1786534788631353e-02 -5.7742347384549531e-01 +6.0528166572192486e-03
-2.7499999999999982e+00 +8.5977913724879418e+00 +0.0000000000000000e+00 -2.7499999894474847e+00 -3.1788486579553937e-02 -5.7744606600825976e-01 +6.0557297814569193e-03
-2.7999999999999980e+00 +8.5977837154596841e+00 +0.0000000000000000e+00 -2.7999999888611682e+00 -3.1790462501552472e-02 -5.7746899019110276e-01 +6.0586248107085327e-03
-2.8499999999999979e+00 +8.5977759203561188e+00 +0.0000000000000000e+00 -2.8499999882535159e+00 -3.1792462256410275e-02 -5.7749224405000588e-01 +6.0615016173058353e-03
-2.8999999999999977e+00 +8.5977679871716859e+00 +0.0000000000000000e+00 -2.8999999876241458e+00 -3.1794485545909627e-02 -5.7751582524095901e-01 +6.0643600735791692e-03
-2.9499999999999975e+00 +8.5977599159007472e+00 +0.0000000000000000e+00 -2.9499999869726756e+00 -3.1796532071831592e-02 -5.7753973141996073e-01 +6.0672000518574862e-03
-2.9999999999999973e+00 +8.5977517065375864e+00 +0.0000000000000000e+00 -2.9999999862987234e+00 -3.1798601535956039e-02 -5.7756396024301682e-01 +6.0700214244683070e-03
-3.0499999999999972e+00 +8.5977433590764107e+00 +0.0000000000000000e+00 -3.0499999856019064e+00 -3.1800693640061529e-02 -5.7758850936614126e-01 +6.0728240637377201e-03
-3.0999999999999970e+00 +8.5977348735113495e+00 +0.0000000000000000e+00 -3.0999999848818423e+00 -3.1802808085925234e-02 -5.7761337644535582e-01 +6.0756078419903587e-03
-3.1499999999999968e+00 +8.5977262498364588e+00 +0.0000000000000000e+00 -3.1499999841381485e+00 -3.1804944575322854e-02 -5.7763855913668860e-01 +6.0783726315493886e-03
-3.1999999999999966e+00 +8.5977174880457170e+00 +0.0000000000000000e+00 -3.1999999833704429e+00 -3.1807102810028610e-02 -5.7766405509617547e-01 +6.0811183047364921e-03
-3.2499999999999964e+00 +8.5977085881330275e+00 +0.0000000000000000e+00 -3.2499999825783425e+00 -3.1809282491815055e-02 -5.7768986197985883e-01 +6.0838447338718467e-03
-3.2999999999999963e+00 +8.5976995500922193e+00 +0.0000000000000000e+00 -3.2999999817614647e+00 -3.1811483322453073e-02 -5.7771597744378700e-01 +6.0865517912741139e-03
-3.3499999999999961e+00 +8.5976903739170503e+00 +0.0000000000000000e+00 -3.3499999809194270e+00 -3.1813705003711813e-02 -5.7774239914401504e-01 +6.0892393492604294e-03
-3.3999999999999959e+00 +8.5976810596012001e+00 +0.0000000000000000e+00 -3.3999999800518461e+00 -3.1815947237358574e-02 -5.7776912473660336e-01 +6.0919072801463633e-03
-3.4499999999999957e+00 +8.5976716071382810e+00 +0.0000000000000000e+00 -3.4499999791583398e+00 -3.1818209725158718e-02 -5.7779615187761835e-01 +6.0945554562459436e-03
-3.4999999999999956e+00 +8.5976620165218307e+00 +0.0000000000000000e+00 -3.4999999782385247e+00 -3.1820492168875676e-02 -5.7782347822313174e-01 +6.0971837498715997e-03
-3.5499999999999954e+00 +8.5976522877453139e+00 +0.0000000000000000e+00 -3.5499999772920177e+00 -3.1822794270270759e-02 -5.7785110142922003e-01 +6.0997920333341754e-03
-3.5999999999999952e+00 +8.5976424208021278e+00 +0.0000000000000000e+00 -3.5999999763184363e+00 -3.1825115731103151e-02 -5.7787901915196471e-01 +6.1023801789428919e-03
-3.6499999999999950e+00 +8.5976324156855952e+00 +0.0000000000000000e+00 -3.6499999753173968e+00 -3.1827456253129854e-02 -5.7790722904745251e-01 +6.1049480590053516e-03
-3.6999999999999948e+00 +8.5976222723889730e+00 +0.0000000000000000e+00 -3.6999999742885161e+00 -3.1829815538105558e-02 -5.7793572877177279e-01 +6.1074955458275057e-03
-3.7499999999999947e+00 +8.5976119909054454e+00 +0.0000000000000000e+00 -3.7499999732314113e+00 -3.1832193287782570e-02 -5.7796451598102083e-01 +6.1100225117136494e-03
-3.7999999999999945e+00 +8.5976015712281306e+00 +0.0000000000000000e+00 -3.7999999721456987e+00 -3.1834589203910767e-02 -5.7799358833129444e-01 +6.1125288289663997e-03
-3.8499999999999943e+00 +8.5975910133500761e+00 +0.0000000000000000e+00 -3.8499999710309951e+00 -3.1837002988237544e-02 -5.7802294347869554e-01 +6.1150143698866788e-03
-3.8999999999999941e+00 +8.5975803172642653e+00 +0.0000000000000000e+00 -3.8999999698869168e+00 -3.1839434342507598e-02 -5.7805257907932839e-01 +6.1174790067737026e-03
-3.9499999999999940e+00 +8.5975694829636105e+00 +0.0000000000000000e+00 -3.9499999687130800e+00 -3.1841882968463124e-02 -5.7808249278930157e-01 +6.1199226119249663e-03
-3.9999999999999938e+00 +8.5975585104409600e+00 +0.0000000000000000e+00 -3.9999999675091016e+00 -3.1844348567843413e-02 -5.7811268226472545e-01 +6.1223450576362165e-03
-4.0499999999999936e+00 +8.5975473996890948e+00 +0.0000000000000000e+00 -4.0499999662745978e+00 -3.1846830850152663e-02 -5.7814314506168418e-01 +6.1247462306327719e-03
-4.0999999999999934e+00 +8.5975361507007317e+00 +0.0000000000000000e+00 -4.0999999650091841e+00 -3.1849329555964381e-02 -5.7817387833614953e-01 +6.1271260753638099e-03
-4.1499999999999932e+00 +8.5975247634685221e+00 +0.0000000000000000e+00 -4.1499999637124771e+00 -3.1851844433620914e-02 -5.7820487914406693e-01 +6.1294845507086759e-03
-4.1999999999999931e+00 +8.5975132379850532e+00 +0.0000000000000000e+00 -4.1999999623840933e+00 -3.1854375231466114e-02 -5.7823614454138184e-01 +6.1318216155455876e-03
-4.2499999999999929e+00 +8.5975015742428518e+00 +0.0000000000000000e+00 -4.2499999610236490e+00 -3.1856921697845479e-02 -5.7826767158404302e-01 +6.1341372287516214e-03
-4.2999999999999927e+00 +8.5974897722343773e+00 +0.0000000000000000e+00 -4.2999999596307585e+00 -3.1859483581106192e-02 -5.7829945732799914e-01 +6.1364313492027131e-03
-4.3499999999999925e+00 +8.5974778319520304e+00 +0.0000000000000000e+00 -4.3499999582050393e+00 -3.1862060629597115e-02 -5.7833149882920021e-01 +6.1387039357736805e-03
-4.3999999999999924e+00 +8.5974657533881516e+00 +0.0000000000000000e+00 -4.3999999567461066e+00 -3.1864652591668922e-02 -5.7836379314359676e-01 +6.1409549473382015e-03
-4.4499999999999922e+00 +8.5974535365350171e+00 +0.0000000000000000e+00 -4.4499999552535758e+00 -3.1867259215674189e-02 -5.7839633732713969e-01 +6.1431843427688414e-03
-4.4999999999999920e+00 +8.5974411813848466e+00 +0.0000000000000000e+00 -4.4999999537270625e+00 -3.1869880249967300e-02 -5.7842912843578043e-01 +6.1453920809370335e-03
-4.5499999999999918e+00 +8.5974286879297992e+00 +0.0000000000000000e+00 -4.5499999521661820e+00 -3.1872515442904682e-02 -5.7846216352546931e-01 +6.1475781207131078e-03
-4.5999999999999917e+00 +8.5974160561619772e+00 +0.0000000000000000e+00 -4.5999999505705507e+00 -3.1875164542844787e-02 -5.7849543965215733e-01 +6.1497424209662711e-03
-4.6499999999999915e+00 +8.5974032860734244e+00 +0.0000000000000000e+00 -4.6499999489397830e+00 -3.1877827298148101e-02 -5.7852895387179359e-01 +6.1518849405646208e-03
-4.6999999999999913e+00 +8.5973903776561258e+00 +0.0000000000000000e+00 -4.6999999472734943e+00 -3.1880503457177342e-02 -5.7856270324032766e-01 +6.1540056383751563e-03
-4.7499999999999911e+00 +8.5973773309020132e+00 +0.0000000000000000e+00 -4.7499999455713002e+00 -3.1883192768297354e-02 -5.7859668481370685e-01 +6.1561044732637675e-03
-4.7999999999999909e+00 +8.5973641458029615e+00 +0.0000000000000000e+00 -4.7999999438328160e+00 -3.1885894979875276e-02 -5.7863089564787717e-01 +6.1581814040952473e-03
-4.8499999999999908e+00 +8.5973508223507924e+00 +0.0000000000000000e+00 -4.8499999420576563e+00 -3.1888609840280607e-02 -5.7866533279878307e-01 +6.1602363897332946e-03
-4.8999999999999906e+00 +8.5973373605372689e+00 +0.0000000000000000e+00 -4.8999999402454364e+00 -3.1891337097885185e-02 -5.7869999332236710e-01 +6.1622693890405139e-03
-4.9499999999999904e+00 +8.5973237603541062e+00 +0.0000000000000000e+00 -4.9499999383957709e+00 -3.1894076501063309e-02 -5.7873487427456893e-01 +6.1642803608784212e-03
-4.9999999999999902e+00 +8.5973100217929641e+00 +0.0000000000000000e+00 -4.9999999365082743e+00 -3.1896827798191793e-02 -5.7876997271132657e-01 +6.1662692641074523e-03
-5.0499999999999901e+00 +8.5972961448454495e+00 +0.0000000000000000e+00 -5.0499999345825612e+00 -3.1899590737650023e-02 -5.7880528568857437e-01 +6.1682360575869514e-03
-5.0999999999999899e+00 +8.5972821295031192e+00 +0.0000000000000000e+00 -5.0999999326182470e+00 -3.1902365067819960e-02 -5.7884081026224410e-01 +6.1701807001751973e-03
-5.1499999999999897e+00 +8.5972679757574788e+00 +0.0000000000000000e+00 -5.1499999306149462e+00 -3.1905150537086334e-02 -5.7887654348826423e-01 +6.1721031507293838e-03
-5.1999999999999895e+00 +8.5972536835999858e+00 +0.0000000000000000e+00 -5.1999999285722724e+00 -3.1907946893836525e-02 -5.7891248242255933e-01 +6.1740033681056414e-03
-5.2499999999999893e+00 +8.5972392530220461e+00 +0.0000000000000000e+00 -5.2499999264898403e+00 -3.1910753886460801e-02 -5.7894862412104997e-01 +6.1758813111590250e-03
-5.2999999999999892e+00 +8.5972246840150195e+00 +0.0000000000000000e+00 -5.2999999243672642e+00 -3.1913571263352217e-02 -5.7898496563965329e-01 +6.1777369387435357e-03
-5.3499999999999890e+00 +8.5972099765702161e+00 +0.0000000000000000e+00 -5.3499999222041588e+00 -3.1916398772906827e-02 -5.7902150403428132e-01 +6.1795702097121059e-03
-5.3999999999999888e+00 +8.5971951306788998e+00 +0.0000000000000000e+00 -5.3999999200001376e+00 -3.1919236163523594e-02 -5.7905823636084164e-01 +6.1813810829166160e-03
-5.4499999999999886e+00 +8.5971801463322866e+00 +0.0000000000000000e+00 -5.4499999177548153e+00 -3.1922083183604601e-02 -5.7909515967523717e-01 +6.1831695172078899e-03
-5.4999999999999885e+00 +8.5971650235215495e+00 +0.0000000000000000e+00 -5.4999999154678054e+00 -3.1924939581554977e-02 -5.7913227103336518e-01 +6.1849354714356994e-03
-5.5499999999999883e+00 +8.5971497622378159e+00 +0.0000000000000000e+00 -5.5499999131387217e+00 -3.1927805105783018e-02 -5.7916956749111781e-01 +6.1866789044487799e-03
-5.5999999999999881e+00 +8.5971343624721666e+00 +0.0000000000000000e+00 -5.5999999107671776e+00 -3.1930679504700243e-02 -5.7920704610438123e-01 +6.1883997750948102e-03
-5.6499999999999879e+00 +8.5971188242156416e+00 +0.0000000000000000e+00 -5.6499999083527870e+00 -3.1933562526721512e-02 -5.7924470392903615e-01 +6.1900980422204439e-03
-5.6999999999999877e+00 +8.5971031474592365e+00 +0.0000000000000000e+00 -5.6999999058951643e+00 -3.1936453920264944e-02 -5.7928253802095608e-01 +6.1917736646712844e-03
-5.7499999999999876e+00 +8.5970873321939045e+00 +0.0000000000000000e+00 -5.7499999033939222e+00 -3.1939353433752100e-02 -5.7932054543600886e-01 +6.1934266012919131e-03
-5.7999999999999874e+00 +8.5970713784105595e+00 +0.0000000000000000e+00 -5.7999999008486745e+00 -3.1942260815608005e-02 -5.7935872323005499e-01 +6.1950568109258811e-03
-5.8499999999999872e+00 +8.5970552861000709e+00 +0.0000000000000000e+00 -5.8499998982590338e+00 -3.1945175814261199e-02 -5.7939706845894867e-01 +6.1966642524157100e-03
