# field on trajectory
# s[mm] rx[mm] ry[mm] rz[mm] bx[T] by[T] bz[T]
0.0000000000000000e+00 +8.2850000000000001e+00 +0.0000000000000000e+00 +0.0000000000000000e+00 -3.1577638861451339e-02 -5.7984671342997385e-01 +5.8994523621075370e-03
-5.0000000000000003e-02 +8.2849999307392199e+00 +0.0000000000000000e+00 -4.9999999999936033e-02 -3.1577627511455542e-02 -5.7984686579184197e-01 +5.8972677727987515e-03
-1.0000000000000001e-01 +8.2849997229568366e+00 +0.0000000000000000e+00 -9.9999999999488304e-02 -3.1577636192179286e-02 -5.7984742322589489e-01 +5.8950883223525940e-03
-1.5000000000000002e-01 +8.2849993766527170e+00 +0.0000000000000000e+00 -1.4999999999827307e-01 -3.1577664870005739e-02 -5.7984838485728307e-01 +5.8929141080203504e-03
-2.0000000000000001e-01 +8.2849988918266337e+00 +0.0000000000000000e+00 -1.9999999999590651e-01 -3.1577713511318634e-02 -5.7984974981117565e-01 +5.8907452270535541e-03
-2.5000000000000000e-01 +8.2849982684782582e+00 +0.0000000000000000e+00 -2.4999999999200490e-01 -3.1577782082502427e-02 -5.7985151721275818e-01 +5.8885817767040001e-03
-2.9999999999999999e-01 +8.2849975066071693e+00 +0.0000000000000000e+00 -2.9999999998618443e-01 -3.1577870549942183e-02 -5.7985368618723299e-01 +5.8864238542237508e-03
-3.4999999999999998e-01 +8.2849966062128484e+00 +0.0000000000000000e+00 -3.4999999997806130e-01 -3.1577978880023720e-02 -5.7985625585982126e-01 +5.8842715568651642e-03
-3.9999999999999997e-01 +8.2849955672946827e+00 +0.0000000000000000e+00 -3.9999999996725183e-01 -3.1578107039133614e-02 -5.7985922535575918e-01 +5.8821249818808759e-03
-4.4999999999999996e-01 +8.2849943898519616e+00 +0.0000000000000000e+00 -4.4999999995337214e-01 -3.1578254993659238e-02 -5.7986259380030236e-01 +5.8799842265238452e-03
-4.9999999999999994e-01 +8.2849930738838822e+00 +0.0000000000000000e+00 -4.9999999993603844e-01 -3.1578422709988757e-02 -5.7986636031872185e-01 +5.8778493880473331e-03
-5.4999999999999993e-01 +8.2849916193895439e+00 +0.0000000000000000e+00 -5.4999999991486692e-01 -3.1578610154511251e-02 -5.7987052403630679e-01 +5.8757205637049387e-03
-5.9999999999999998e-01 +8.2849900263679519e+00 +0.0000000000000000e+00 -5.9999999988947372e-01 -3.1578817293616723e-02 -5.7987508407836352e-01 +5.8735978507505953e-03
-6.5000000000000002e-01 +8.2849882948180156e+00 +0.0000000000000000e+00 -6.4999999985947510e-01 -3.1579044093696072e-02 -5.7988003957021506e-01 +5.8714813464385944e-03
-7.0000000000000007e-01 +8.2849864247385518e+00 +0.0000000000000000e+00 -6.9999999982448713e-01 -3.1579290521141182e-02 -5.7988538963720149e-01 +5.8693711480235803e-03
-7.5000000000000011e-01 +8.2849844161282835e+00 +0.0000000000000000e+00 -7.4999999978412601e-01 -3.1579556542344990e-02 -5.7989113340468135e-01 +5.8672673527605853e-03
-8.0000000000000016e-01 +8.2849822689858375e+00 +0.0000000000000000e+00 -7.9999999973800784e-01 -3.1579842123701456e-02 -5.7989726999802871e-01 +5.8651700579050092e-03
-8.5000000000000020e-01 +8.2849799833097482e+00 +0.0000000000000000e+00 -8.4999999968574869e-01 -3.1580147231605661e-02 -5.7990379854263530e-01 +5.8630793607126665e-03
-9.0000000000000024e-01 +8.2849775590984578e+00 +0.0000000000000000e+00 -8.9999999962696464e-01 -3.1580471832453827e-02 -5.7991071816391049e-01 +5.8609953584397682e-03
-9.5000000000000029e-01 +8.2849749963503108e+00 +0.0000000000000000e+00 -9.4999999956127190e-01 -3.1580815892643298e-02 -5.7991802798727976e-01 +5.8589181483429476e-03
-1.0000000000000002e+00 +8.2849722950635609e+00 +0.0000000000000000e+00 -9.9999999948828644e-01 -3.1581179378572674e-02 -5.7992572713818691e-01 +5.8568478276792698e-03
-1.0500000000000003e+00 +8.2849694552363715e+00 +0.0000000000000000e+00 -1.0499999994076243e+00 -3.1581562256641771e-02 -5.7993381474209182e-01 +5.8547844937062408e-03
-1.1000000000000003e+00 +8.2849664768668081e+00 +0.0000000000000000e+00 -1.0999999993189016e+00 -3.1581964493251700e-02 -5.7994228992447172e-01 +5.8527282436818236e-03
-1.1500000000000004e+00 +8.2849633599528474e+00 +0.0000000000000000e+00 -1.1499999992217340e+00 -3.1582386054804880e-02 -5.7995115181082102e-01 +5.8506791748644416e-03
-1.2000000000000004e+00 +8.2849601044923720e+00 +0.0000000000000000e+00 -1.1999999991157377e+00 -3.1582826907705079e-02 -5.7996039952665157e-01 +5.8486373845129990e-03
-1.2500000000000004e+00 +8.2849567104831721e+00 +0.0000000000000000e+00 -1.2499999990005288e+00 -3.1583287018357505e-02 -5.7997003219749121e-01 +5.8466029698868802e-03
-1.3000000000000005e+00 +8.2849531779229473e+00 +0.0000000000000000e+00 -1.2999999988757229e+00 -3.1583766353168737e-02 -5.7998004894888588e-01 +5.8445760282459808e-03
-1.3500000000000005e+00 +8.2849495068093031e+00 +0.0000000000000000e+00 -1.3499999987409361e+00 -3.1584264878546875e-02 -5.7999044890639806e-01 +5.8425566568506941e-03
-1.4000000000000006e+00 +8.2849456971397561e+00 +0.0000000000000000e+00 -1.3999999985957843e+00 -3.1584782560901477e-02 -5.8000123119560720e-01 +5.8405449529619416e-03
-1.4500000000000006e+00 +8.2849417489117325e+00 +0.0000000000000000e+00 -1.4499999984398833e+00 -3.1585319366643688e-02 -5.8001239494211010e-01 +5.8385410138411808e-03
-1.5000000000000007e+00 +8.2849376621225623e+00 +0.0000000000000000e+00 -1.4999999982728489e+00 -3.1585875262186230e-02 -5.8002393927151996e-01 +5.8365449367504063e-03
-1.5500000000000007e+00 +8.2849334367694905e+00 +0.0000000000000000e+00 -1.5499999980942969e+00 -3.1586450213943407e-02 -5.8003586330946777e-01 +5.8345568189521737e-03
-1.6000000000000008e+00 +8.2849290728496658e+00 +0.0000000000000000e+00 -1.5999999979038428e+00 -3.1587044188331227e-02 -5.8004816618160082e-01 +5.8325767577096085e-03
-1.6500000000000008e+00 +8.2849245703601504e+00 +0.0000000000000000e+00 -1.6499999977011026e+00 -3.1587657151767361e-02 -5.8006084701358340e-01 +5.8306048502864060e-03
-1.7000000000000008e+00 +8.2849199292979154e+00 +0.0000000000000000e+00 -1.6999999974856921e+00 -3.1588289070671224e-02 -5.8007390493109767e-01 +5.8286411939468610e-03
-1.7500000000000009e+00 +8.2849151496598417e+00 +0.0000000000000000e+00 -1.7499999972572267e+00 -3.1588939911463991e-02 -5.8008733905984144e-01 +5.8266858859558615e-03
-1.8000000000000009e+00 +8.2849102314427192e+00 +0.0000000000000000e+00 -1.7999999970153220e+00 -3.1589609640568665e-02 -5.8010114852553041e-01 +5.8247390235789146e-03
-1.8500000000000010e+00 +8.2849051746432494e+00 +0.0000000000000000e+00 -1.8499999967595937e+00 -3.1590298224410056e-02 -5.8011533245389690e-01 +5.8228007040821523e-03
-1.9000000000000010e+00 +8.2848999792580429e+00 +0.0000000000000000e+00 -1.8999999964896575e+00 -3.1591005629414894e-02 -5.8012988997068982e-01 +5.8208710247323343e-03
-1.9500000000000011e+00 +8.2848946452836234e+00 +0.0000000000000000e+00 -1.9499999962051286e+00 -3.1591731822011818e-02 -5.8014482020167546e-01 +5.8189500827968751e-03
-2.0000000000000009e+00 +8.2848891727164240e+00 +0.0000000000000000e+00 -1.9999999959056227e+00 -3.1592476768631410e-02 -5.8016012227263736e-01 +5.8170379755438468e-03
-2.0500000000000007e+00 +8.2848835615527889e+00 +0.0000000000000000e+00 -2.0499999955907553e+00 -3.1593240389450758e-02 -5.8017579508179029e-01 +5.8151347955330418e-03
-2.1000000000000005e+00 +8.2848778117889736e+00 +0.0000000000000000e+00 -2.0999999952601414e+00 -3.1594022419626375e-02 -5.8019183661702711e-01 +5.8132406164890854e-03
-2.1500000000000004e+00 +8.2848719234211465e+00 +0.0000000000000000e+00 -2.1499999949133968e+00 -3.1594822548060009e-02 -5.8020824463867049e-01 +5.8113555074281436e-03
-2.2000000000000002e+00 +8.2848658964453890e+00 +0.0000000000000000e+00 -2.1999999945501365e+00 -3.1595640463653991e-02 -5.8022501690705630e-01 +5.8094795373668422e-03
-2.2500000000000000e+00 +8.2848597308576917e+00 +0.0000000000000000e+00 -2.2499999941699760e+00 -3.1596475855311106e-02 -5.8024215118253453e-01 +5.8076127753222684e-03
-2.2999999999999998e+00 +8.2848534266539637e+00 +0.0000000000000000e+00 -2.2999999937725302e+00 -3.1597328411934730e-02 -5.8025964522546902e-01 +5.8057552903119803e-03
-2.3499999999999996e+00 +8.2848469838300254e+00 +0.0000000000000000e+00 -2.3499999933574145e+00 -3.1598197822428557e-02 -5.8027749679623564e-01 +5.8039071513539871e-03
-2.3999999999999995e+00 +8.2848404023816116e+00 +0.0000000000000000e+00 -2.3999999929242439e+00 -3.1599083775696701e-02 -5.8029570365522443e-01 +5.8020684274667578e-03
-2.4499999999999993e+00 +8.2848336823043738e+00 +0.0000000000000000e+00 -2.4499999924726334e+00 -3.1599985960643659e-02 -5.8031426356283822e-01 +5.8002391876692174e-03
-2.4999999999999991e+00 +8.2848268235938782e+00 +0.0000000000000000e+00 -2.4999999920021985e+00 -3.1600904066174135e-02 -5.8033317427949216e-01 +5.7984195009807430e-03
-2.5499999999999989e+00 +8.2848198262456059e+00 +0.0000000000000000e+00 -2.5499999915125535e+00 -3.1601837781193125e-02 -5.8035243356561494e-01 +5.7966094364211634e-03
-2.5999999999999988e+00 +8.2848126902549577e+00 +0.0000000000000000e+00 -2.5999999910033140e+00 -3.1602786794605785e-02 -5.8037203918164626e-01 +5.7948090630107604e-03
-2.6499999999999986e+00 +8.2848054156172495e+00 +0.0000000000000000e+00 -2.6499999904740945e+00 -3.1603750795317430e-02 -5.8039198888803978e-01 +5.7930184497702614e-03
-2.6999999999999984e+00 +8.2847980023277152e+00 +0.0000000000000000e+00 -2.6999999899245100e+00 -3.1604729472233445e-02 -5.8041228044525883e-01 +5.7912376657208355e-03
-2.7499999999999982e+00 +8.2847904503815073e+00 +0.0000000000000000e+00 -2.7499999893541749e+00 -3.1605722514259318e-02 -5.8043291161378119e-01 +5.7894667798841053e-03
-2.7999999999999980e+00 +8.2847827597736980e+00 +0.0000000000000000e+00 -2.7999999887627043e+00 -3.1606729610300477e-02 -5.8045388015409527e-01 +5.7877058612821304e-03
-2.8499999999999979e+00 +8.2847749304992782e+00 +0.0000000000000000e+00 -2.8499999881497127e+00 -3.1607750449262298e-02 -5.8047518382669971e-01 +5.7859549789374097e-03
-2.8999999999999977e+00 +8.2847669625531566e+00 +0.0000000000000000e+00 -2.8999999875148150e+00 -3.1608784720050125e-02 -5.8049682039210682e-01 +5.7842142018728780e-03
-2.9499999999999975e+00 +8.2847588559301659e+00 +0.0000000000000000e+00 -2.9499999868576254e+00 -3.1609832111569078e-02 -5.8051878761083808e-01 +5.7824835991119143e-03
-2.9999999999999973e+00 +8.2847506106250588e+00 +0.0000000000000000e+00 -2.9999999861777589e+00 -3.1610892312724147e-02 -5.8054108324342690e-01 +5.7807632396783279e-03
-3.0499999999999972e+00 +8.2847422266325097e+00 +0.0000000000000000e+00 -3.0499999854748294e+00 -3.1611965012420022e-02 -5.8056370505041743e-01 +5.7790531925963565e-03
-3.0999999999999970e+00 +8.2847337039471132e+00 +0.0000000000000000e+00 -3.0999999847484516e+00 -3.1613049899561187e-02 -5.8058665079236460e-01 +5.7773535268906776e-03
-3.1499999999999968e+00 +8.2847250425633892e+00 +0.0000000000000000e+00 -3.1499999839982400e+00 -3.1614146663051686e-02 -5.8060991822983277e-01 +5.7756643115863928e-03
-3.1999999999999966e+00 +8.2847162424757776e+00 +0.0000000000000000e+00 -3.1999999832238086e+00 -3.1615254991795280e-02 -5.8063350512339762e-01 +5.7739856157090286e-03
-3.2499999999999964e+00 +8.2847073036786458e+00 +0.0000000000000000e+00 -3.2499999824247716e+00 -3.1616374574695232e-02 -5.8065740923364484e-01 +5.7723175082845428e-03
-3.2999999999999963e+00 +8.2846982261662809e+00 +0.0000000000000000e+00 -3.2999999816007435e+00 -3.1617505100654350e-02 -5.8068162832116921e-01 +5.7706600583393068e-03
-3.3499999999999961e+00 +8.2846890099328991e+00 +0.0000000000000000e+00 -3.3499999807513379e+00 -3.1618646258574891e-02 -5.8070616014657594e-01 +5.7690133349001249e-03
-3.3999999999999959e+00 +8.2846796549726403e+00 +0.0000000000000000e+00 -3.3999999798761689e+00 -3.1619797737358575e-02 -5.8073100247047948e-01 +5.7673774069942089e-03
-3.4499999999999957e+00 +8.2846701612795677e+00 +0.0000000000000000e+00 -3.4499999789748506e+00 -3.1620959225906485e-02 -5.8075615305350403e-01 +5.7657523436491984e-03
-3.4999999999999956e+00 +8.2846605288476756e+00 +0.0000000000000000e+00 -3.4999999780469970e+00 -3.1622130413119016e-02 -5.8078160965628212e-01 +5.7641382138931413e-03
-3.5499999999999954e+00 +8.2846507576708817e+00 +0.0000000000000000e+00 -3.5499999770922219e+00 -3.1623310987895871e-02 -5.8080737003945626e-01 +5.7625350867545047e-03
-3.5999999999999952e+00 +8.2846408477430309e+00 +0.0000000000000000e+00 -3.5999999761101393e+00 -3.1624500639135952e-02 -5.8083343196367687e-01 +5.7609430312621640e-03
-3.6499999999999950e+00 +8.2846307990578989e+00 +0.0000000000000000e+00 -3.6499999751003624e+00 -3.1625699055737387e-02 -5.8085979318960368e-01 +5.7593621164454050e-03
-3.6999999999999948e+00 +8.2846206116091885e+00 +0.0000000000000000e+00 -3.6999999740625054e+00 -3.1626905926597414e-02 -5.8088645147790496e-01 +5.7577924113339221e-03
-3.7499999999999947e+00 +8.2846102853905315e+00 +0.0000000000000000e+00 -3.7499999729961813e+00 -3.1628120940612375e-02 -5.8091340458925633e-01 +5.7562339849578153e-03
-3.7999999999999945e+00 +8.2845998203954867e+00 +0.0000000000000000e+00 -3.7999999719010038e+00 -3.1629343786677644e-02 -5.8094065028434227e-01 +5.7546869063475918e-03
-3.8499999999999943e+00 +8.2845892166175474e+00 +0.0000000000000000e+00 -3.8499999707765866e+00 -3.1630574153687606e-02 -5.8096818632385538e-01 +5.7531512445341514e-03
-3.8999999999999941e+00 +8.2845784740501358e+00 +0.0000000000000000e+00 -3.8999999696225429e+00 -3.1631811730535579e-02 -5.8099601046849514e-01 +5.7516270685488112e-03
-3.9499999999999940e+00 +8.2845675926866047e+00 +0.0000000000000000e+00 -3.9499999684384863e+00 -3.1633056206113778e-02 -5.8102412047896956e-01 +5.7501144474232701e-03
-3.9999999999999938e+00 +8.2845565725202377e+00 +0.0000000000000000e+00 -3.9999999672240296e+00 -3.1634307269313287e-02 -5.8105251411599301e-01 +5.7486134501896352e-03
-4.0499999999999936e+00 +8.2845454135442527e+00 +0.0000000000000000e+00 -4.0499999659787864e+00 -3.1635564661653230e-02 -5.8108118903478334e-01 +5.7471241330458887e-03
-4.0999999999999934e+00 +8.2845341157518000e+00 +0.0000000000000000e+00 -4.0999999647023690e+00 -3.1636828335169509e-02 -5.8111014246854287e-01 +5.7456465008523675e-03
-4.1499999999999932e+00 +8.2845226791359625e+00 +0.0000000000000000e+00 -4.1499999633943911e+00 -3.1638098294527704e-02 -5.8113937154497186e-01 +5.7441805456354862e-03
-4.1999999999999931e+00 +8.2845111036897592e+00 +0.0000000000000000e+00 -4.1999999620544655e+00 -3.1639374544393771e-02 -5.8116887339177148e-01 +5.7427262594223205e-03
-4.2499999999999929e+00 +8.2844993894061396e+00 +0.0000000000000000e+00 -4.2499999606822048e+00 -3.1640657089434074e-02 -5.8119864513664543e-01 +5.7412836342406346e-03
-4.2999999999999927e+00 +8.2844875362779931e+00 +0.0000000000000000e+00 -4.2999999592772218e+00 -3.1641945934315352e-02 -5.8122868390729809e-01 +5.7398526621188668e-03
-4.3499999999999925e+00 +8.2844755442981448e+00 +0.0000000000000000e+00 -4.3499999578391302e+00 -3.1643241083704719e-02 -5.8125898683143395e-01 +5.7384333350861422e-03
-4.3999999999999924e+00 +8.2844634134593544e+00 +0.0000000000000000e+00 -4.3999999563675418e+00 -3.1644542542269671e-02 -5.8128955103675906e-01 +5.7370256451722860e-03
-4.4499999999999922e+00 +8.2844511437543211e+00 +0.0000000000000000e+00 -4.4499999548620695e+00 -3.1645850314678134e-02 -5.8132037365097933e-01 +5.7356295844078180e-03
-4.4999999999999920e+00 +8.2844387351756819e+00 +0.0000000000000000e+00 -4.4999999533223249e+00 -3.1647164405598401e-02 -5.8135145180180003e-01 +5.7342451448239755e-03
-4.5499999999999918e+00 +8.2844261877160115e+00 +0.0000000000000000e+00 -4.5499999517479210e+00 -3.1648484819699146e-02 -5.8138278261692655e-01 +5.7328723184526939e-03
-4.5999999999999917e+00 +8.2844135013678262e+00 +0.0000000000000000e+00 -4.5999999501384705e+00 -3.1649811561649484e-02 -5.8141436322406292e-01 +5.7315110973266423e-03
-4.6499999999999915e+00 +8.2844006761235800e+00 +0.0000000000000000e+00 -4.6499999484935852e+00 -3.1651144636118900e-02 -5.8144619075091286e-01 +5.7301614734792108e-03
-4.6999999999999913e+00 +8.2843877119756719e+00 +0.0000000000000000e+00 -4.6999999468128779e+00 -3.1652484047777311e-02 -5.8147826232517719e-01 +5.7288234389445232e-03
-4.7499999999999911e+00 +8.2843746089164405e+00 +0.0000000000000000e+00 -4.7499999450959605e+00 -3.1653829801295018e-02 -5.8151057507455650e-01 +5.7274969857574413e-03
-4.7999999999999909e+00 +8.2843613669381657e+00 +0.0000000000000000e+00 -4.7999999433424447e+00 -3.1655181901342734e-02 -5.8154312612674830e-01 +5.7261821059535678e-03
-4.8499999999999908e+00 +8.2843479860330707e+00 +0.0000000000000000e+00 -4.8499999415519426e+00 -3.1656540352591606e-02 -5.8157591260944841e-01 +5.7248787915692703e-03
-4.8999999999999906e+00 +8.2843344661933234e+00 +0.0000000000000000e+00 -4.8999999397240659e+00 -3.1657905159713166e-02 -5.8160893165034888e-01 +5.7235870346416607e-03
-4.9499999999999904e+00 +8.2843208074110368e+00 +0.0000000000000000e+00 -4.9499999378584265e+00 -3.1659276327379395e-02 -5.8164218037713966e-01 +5.7223068272086288e-03
-4.9999999999999902e+00 +8.2843070096782689e+00 +0.0000000000000000e+00 -4.9999999359546363e+00 -3.1660653860262677e-02 -5.8167565591750670e-01 +5.7210381613088251e-03
-5.0499999999999901e+00 +8.2842930729870208e+00 +0.0000000000000000e+00 -5.0499999340123063e+00 -3.1662037763035826e-02 -5.8170935539913216e-01 +5.7197810289816775e-03
-5.0999999999999899e+00 +8.2842789973292437e+00 +0.0000000000000000e+00 -5.0999999320310483e+00 -3.1663428040372074e-02 -5.8174327594969499e-01 +5.7185354222674062e-03
-5.1499999999999897e+00 +8.2842647826968339e+00 +0.0000000000000000e+00 -5.1499999300104742e+00 -3.1664824696945079e-02 -5.8177741469686828e-01 +5.7173013332070194e-03
-5.1999999999999895e+00 +8.2842504290816343e+00 +0.0000000000000000e+00 -5.1999999279501949e+00 -3.1666227737428949e-02 -5.8181176876832208e-01 +5.7160787538423127e-03
-5.2499999999999893e+00 +8.2842359364754401e+00 +0.0000000000000000e+00 -5.2499999258498224e+00 -3.1667637166498216e-02 -5.8184633529171981e-01 +5.7148676762158986e-03
-5.2999999999999892e+00 +8.2842213048699929e+00 +0.0000000000000000e+00 -5.2999999237089677e+00 -3.1669052988827856e-02 -5.8188111139472110e-01 +5.7136680923711878e-03
-5.3499999999999890e+00 +8.2842065342569864e+00 +0.0000000000000000e+00 -5.3499999215272416e+00 -3.1670475209093239e-02 -5.8191609420497836e-01 +5.7124799943524132e-03
-5.3999999999999888e+00 +8.2841916246280629e+00 +0.0000000000000000e+00 -5.3999999193042552e+00 -3.1671903831970230e-02 -5.8195128085013903e-01 +5.7113033742046291e-03
-5.4499999999999886e+00 +8.2841765759748167e+00 +0.0000000000000000e+00 -5.4499999170396194e+00 -3.1673338862135136e-02 -5.8198666845784408e-01 +5.7101382239737207e-03
-5.4999999999999885e+00 +8.2841613882887941e+00 +0.0000000000000000e+00 -5.4999999147329452e+00 -3.1674780304264669e-02 -5.8202225415572761e-01 +5.7089845357063997e-03
-5.5499999999999883e+00 +8.2841460615614935e+00 +0.0000000000000000e+00 -5.5499999123838437e+00 -3.1676228163036023e-02 -5.8205803507141640e-01 +5.7078423014502349e-03
-5.5999999999999881e+00 +8.2841305957843669e+00 +0.0000000000000000e+00 -5.5999999099919249e+00 -3.1677682443126839e-02 -5.8209400833253100e-01 +5.7067115132536260e-03
-5.6499999999999879e+00 +8.2841149909488223e+00 +0.0000000000000000e+00 -5.6499999075567997e+00 -3.1679143149215210e-02 -5.8213017106668308e-01 +5.7055921631658409e-03
-5.6999999999999877e+00 +8.2840992470462194e+00 +0.0000000000000000e+00 -5.6999999050780792e+00 -3.1680610285979662e-02 -5.8216652040147676e-01 +5.7044842432370001e-03
-5.7499999999999876e+00 +8.2840833640678753e+00 +0.0000000000000000e+00 -5.7499999025553734e+00 -3.1682083858099210e-02 -5.8220305346450840e-01 +5.7033877455180942e-03
-5.7999999999999874e+00 +8.2840673420050628e+00 +0.0000000000000000e+00 -5.7999998999882925e+00 -3.1683563870253333e-02 -5.8223976738336525e-01 +5.7023026620609939e-03
-5.8499999999999872e+00 +8.2840511808490120e+00 +0.0000000000000000e+00 -5.8499998973764464e+00 -3.1685050327121947e-02 -5.8227665928562578e-01 +5.7012289849184402e-03
