# multipoles
# s[mm] polynom_b[n=0][T/m^n] polynom_b[n=1][T/m^n] polynom_b[n=2][T/m^n] polynom_b[n=3][T/m^n] polynom_b[n=4][T/m^n] polynom_b[n=5][T/m^n] polynom_b[n=6][T/m^n] 
+0.0000000000000000e+00 -5.4996346184296518e-01 +7.2001131234368421e+00 +5.5642142153100345e+00 -5.8147898611148648e+01 -2.6797746355219583e+03 +2.4591884413596804e+02 +3.5680345420398921e+07 
+5.0000000000000003e-02 -5.4996308000524297e-01 +7.2001253123493401e+00 +5.5665407550928263e+00 -5.7592094483180361e+01 -2.7156043397426652e+03 -4.1832917159618437e+03 +3.5797587527387410e+07 
+1.0000000000000001e-01 -5.4996309218758899e-01 +7.2001590777211808e+00 +5.5684031318498768e+00 -5.7041516108079634e+01 -2.7515813289001467e+03 -8.5371621274053414e+03 +3.5915805231037609e+07 
+1.4999999999999999e-01 -5.4996349762598151e-01 +7.2002143578937163e+00 +5.5698059272635705e+00 -5.6496475070303397e+01 -2.7877985433715162e+03 -1.2812520239160533e+04 +3.6035605163443647e+07 
+2.0000000000000001e-01 -5.4996429555646820e-01 +7.2002910912142646e+00 +5.5707537209878097e+00 -5.5957283183447416e+01 -2.8243488724349663e+03 -1.7006191958684147e+04 +3.6157593623003371e+07 
+2.5000000000000000e-01 -5.4996548521502719e-01 +7.2003892160263128e+00 +5.5712510950998944e+00 -5.5424252043185348e+01 -2.8613252658858905e+03 -2.1115005087468333e+04 +3.6282377297980584e+07 
+2.9999999999999999e-01 -5.4996706583770860e-01 +7.2005086706747994e+00 +5.5713026276484552e+00 -5.4897693303490520e+01 -2.8988205664756083e+03 -2.5135786829164415e+04 +3.6410562158375762e+07 
+3.4999999999999998e-01 -5.4996903666059915e-01 +7.2006493935091562e+00 +5.5709129003671327e+00 -5.4377918758880035e+01 -2.9369277180741733e+03 -2.9065363295065134e+04 +3.6542754859425791e+07 
+4.0000000000000002e-01 -5.4997139691971542e-01 +7.2008113228727817e+00 +5.5700864931367580e+00 -5.3865239923042289e+01 -2.9757396127271522e+03 -3.2900562887968488e+04 +3.6679561699876115e+07 
+4.5000000000000001e-01 -5.4997414585119153e-01 +7.2009943971163954e+00 +5.5688279901026556e+00 -5.3359968571377394e+01 -3.0153492617502752e+03 -3.6638211907276076e+04 +3.6821589796759203e+07 
+5.0000000000000000e-01 -5.4997728269111001e-01 +7.2011985545892951e+00 +5.5671419668100643e+00 -5.2862416407403828e+01 -3.0558494347636019e+03 -4.0275137171853268e+04 +3.6969444596889414e+07 
+5.5000000000000004e-01 -5.4998080667558735e-01 +7.2014237336389391e+00 +5.5650330079277914e+00 -5.2372895018545073e+01 -3.0973331599654857e+03 -4.3808166479795000e+04 +3.7123733337436229e+07 
+5.9999999999999998e-01 -5.4998471704080965e-01 +7.2016698726163257e+00 +5.5625056925196139e+00 -5.1891716103424706e+01 -3.1398933071550391e+03 -4.7234126755453472e+04 +3.7285062158162780e+07 
+6.5000000000000002e-01 -5.4998901302291359e-01 +7.2019369098719030e+00 +5.5595646022166223e+00 -5.1419191318096495e+01 -3.1836228159809107e+03 -5.0549845210781212e+04 +3.7454037667629808e+07 
+6.9999999999999996e-01 -5.4999369385804464e-01 +7.2022247837582460e+00 +5.5562143170699505e+00 -5.0955632353140729e+01 -3.2286145854588558e+03 -5.3752148851995851e+04 +3.7631266209283397e+07 
+7.5000000000000000e-01 -5.4999875878242532e-01 +7.2025334326279609e+00 +5.5524594185619023e+00 -5.0501350893915642e+01 -3.2749615508965385e+03 -5.6837864655869838e+04 +3.7817354357469968e+07 
+8.0000000000000004e-01 -5.5000420703227049e-01 +7.2028627948315940e+00 +5.5483044886900776e+00 -5.0056658496617011e+01 -3.3227566634593827e+03 -5.9803820711940672e+04 +3.8012908799076021e+07 
+8.4999999999999998e-01 -5.5001003784379920e-01 +7.2032128087240297e+00 +5.5437541073780832e+00 -4.9621866865910377e+01 -3.3720928204974671e+03 -6.2646843887516094e+04 +3.8218535865416765e+07 
+9.0000000000000002e-01 -5.5001625045325353e-01 +7.2035834126596772e+00 +5.5388128556317326e+00 -4.9197287663958740e+01 -3.4230629462188963e+03 -6.5363761364813050e+04 +3.8434842055807091e+07 
+9.4999999999999996e-01 -5.5002284409688351e-01 +7.2039745449929624e+00 +5.5334853172501992e+00 -4.8783232508632295e+01 -3.4757600372968809e+03 -6.7951400752695481e+04 +3.8662434344322018e+07 
+1.0000000000000000e+00 -5.5002981801099682e-01 +7.2043861440808641e+00 +5.5277760697914662e+00 -4.8380013107583750e+01 -3.5302769264947210e+03 -7.0406588875873684e+04 +3.8901918616676517e+07 
+1.0500000000000000e+00 -5.5003717143187902e-01 +7.2048181482769227e+00 +5.5216896980798902e+00 -4.7987940985744657e+01 -3.5867066415615354e+03 -7.2726154100430300e+04 +3.9153902065040842e+07 
+1.1000000000000001e+00 -5.5004490359580549e-01 +7.2052704959384615e+00 +5.5152307823603461e+00 -4.7607327797268702e+01 -3.6451420886022265e+03 -7.4906923704521847e+04 +3.9418991065587111e+07 
+1.1499999999999999e+00 -5.5005301373912963e-01 +7.2057431254243038e+00 +5.5084039043975368e+00 -4.7238485228674278e+01 -3.7056762125084779e+03 -7.6945724718321158e+04 +3.9697792245772935e+07 
+1.2000000000000000e+00 -5.5006150109819330e-01 +7.2062359750908334e+00 +5.5012136456845599e+00 -4.6881724829199413e+01 -3.7684019499141064e+03 -7.8839385336005987e+04 +3.9990912170657180e+07 
+1.2500000000000000e+00 -5.5007036490936001e-01 +7.2067489832975076e+00 +5.4936645887744717e+00 -4.6537358254011338e+01 -3.8334122672504454e+03 -8.0584732828704276e+04 +4.0298957608445160e+07 
+1.3000000000000000e+00 -5.5007960440899639e-01 +7.2072820884021329e+00 +5.4857613144444937e+00 -4.6205697047341147e+01 -3.9008000857784368e+03 -8.2178595449720422e+04 +4.0622535028663889e+07 
+1.3500000000000001e+00 -5.5008921883350259e-01 +7.2078352287650684e+00 +5.4775084064379573e+00 -4.5887052850182094e+01 -3.9706584064960384e+03 -8.3617800572672597e+04 +4.0962251438278474e+07 
+1.3999999999999999e+00 -5.5009920741925289e-01 +7.2084083427457033e+00 +5.4689104454013151e+00 -4.5581737201812146e+01 -4.0430801401869562e+03 -8.4899176532346028e+04 +4.1318713202048428e+07 
+1.4500000000000000e+00 -5.5010956940272726e-01 +7.2090013687066934e+00 +5.4599720146564641e+00 -4.5290061775620941e+01 -4.1181582779654145e+03 -8.6019550467623776e+04 +4.1692527258816242e+07 
+1.5000000000000000e+00 -5.5012030402030343e-01 +7.2096142450072733e+00 +5.4506976949977073e+00 -4.5012338053239723e+01 -4.1959857403912274e+03 -8.6975751155937498e+04 +4.2084300058927074e+07 
+1.5500000000000000e+00 -5.5013141050847703e-01 +7.2102469100099400e+00 +5.4410920718131583e+00 -4.4748877632435239e+01 -4.2766555714813285e+03 -8.7764606412041758e+04 +4.2494638877669834e+07 
+1.6000000000000001e+00 -5.5014288810370826e-01 +7.2108993020774550e+00 +5.4311597256823010e+00 -4.4499992087761868e+01 -4.3602606849553204e+03 -8.8382944249522436e+04 +4.2924150110268854e+07 
+1.6499999999999999e+00 -5.5015473604248166e-01 +7.2115713595732212e+00 +5.4209052393741386e+00 -4.4265992992751379e+01 -4.4468940570355335e+03 -8.8827592684846662e+04 +4.3373440579922900e+07 
+1.7000000000000000e+00 -5.5016695356130507e-01 +7.2122630208572502e+00 +5.4103331968304067e+00 -4.4047191749295202e+01 -4.5366486907588187e+03 -8.9095381172929148e+04 +4.3843117269920409e+07 
+1.7500000000000000e+00 -5.5017953989669011e-01 +7.2129742242967563e+00 +5.3994481802019578e+00 -4.3843900022945284e+01 -4.6296175450308101e+03 -8.9183137018947193e+04 +4.4333786878701098e+07 
+1.8000000000000000e+00 -5.5019249428513628e-01 +7.2137049082538329e+00 +5.3882547715348617e+00 -4.3656429248882120e+01 -4.7258935741921241e+03 -8.9087689386387792e+04 +4.4846056063343272e+07 
+1.8500000000000001e+00 -5.5020581596323426e-01 +7.2144550110952572e+00 +5.3767575570413122e+00 -4.3485091007935992e+01 -4.8255698453924397e+03 -8.8805866327808195e+04 +4.5380532242200837e+07 
+1.8999999999999999e+00 -5.5021950416755316e-01 +7.2152244711847731e+00 +5.3649611168059881e+00 -4.3330196751451247e+01 -4.9287392617851128e+03 -8.8334496875257013e+04 +4.5937821725289844e+07 
+1.9500000000000000e+00 -5.5023355813463282e-01 +7.2160132268881636e+00 +5.3528700369214768e+00 -4.3192057960279783e+01 -5.0354948869737518e+03 -8.7670409909208131e+04 +4.6518531897652872e+07 
+2.0000000000000000e+00 -5.5024797710109496e-01 +7.2168212165722911e+00 +5.3404889017891142e+00 -4.3070986151484959e+01 -5.1459297414377634e+03 -8.6810433949624668e+04 +4.7123269859347694e+07 
+2.0499999999999998e+00 -5.5026276005410957e-01 +7.2176483638482347e+00 +5.3278207744183188e+00 -4.2967160004186276e+01 -5.2600866822248317e+03 -8.5753035973231075e+04 +4.7752339280644909e+07 
+2.1000000000000001e+00 -5.5027790497978168e-01 +7.2184945347829421e+00 +5.3148625098840681e+00 -4.2880240866185495e+01 -5.3778089354803233e+03 -8.4503213246719548e+04 +4.8404855203208528e+07 
+2.1499999999999999e+00 -5.5029340961294393e-01 +7.2193595777898363e+00 +5.3016095829995136e+00 -4.2809768285126616e+01 -5.4988896952840259e+03 -8.3067601605968972e+04 +4.9079639838543937e+07 
+2.2000000000000002e+00 -5.5030927168853028e-01 +7.2202433412895024e+00 +5.2880574707811823e+00 -4.2755282085519127e+01 -5.6231222170448891e+03 -8.1452834659867876e+04 +4.9775515823676050e+07 
+2.2500000000000000e+00 -5.5032548894144773e-01 +7.2211456736996320e+00 +5.2742016479905045e+00 -4.2716321941502116e+01 -5.7502996940544808e+03 -7.9665547305742861e+04 +5.0491305369745836e+07 
+2.2999999999999998e+00 -5.5034205910665057e-01 +7.2220664234385072e+00 +5.2600375914290325e+00 -4.2692427542341953e+01 -5.8802153776481418e+03 -7.7712374306568105e+04 +5.1225831093142018e+07 
+2.3500000000000001e+00 -5.5035897991902138e-01 +7.2230054389271032e+00 +5.2455607758840657e+00 -4.2683138658178301e+01 -6.0126624558959002e+03 -7.5599949790478669e+04 +5.1977915153591029e+07 
+2.3999999999999999e+00 -5.5037624911353555e-01 +7.2239625685847892e+00 +5.2307666777646178e+00 -4.2687994987409418e+01 -6.1474341681909782e+03 -7.3334908463021682e+04 +5.2746380083118819e+07 
+2.4500000000000002e+00 -5.5039386442511884e-01 +7.2249376608333629e+00 +5.2156507717946790e+00 -4.2706536295256299e+01 -6.2843237060031943e+03 -7.0923884547882830e+04 +5.3530048084353395e+07 
+2.5000000000000000e+00 -5.5041182358879681e-01 +7.2259305640950950e+00 +5.2002085343167153e+00 -4.2738302357048731e+01 -6.4231243033404198e+03 -6.8373512189395857e+04 +5.4327741645406254e+07 
+2.5499999999999998e+00 -5.5043012433952854e-01 +7.2269411267920267e+00 +5.1844354416116376e+00 -4.2782832921832004e+01 -6.5636291894268234e+03 -6.5690425737716228e+04 +5.5138283211557724e+07 
+2.6000000000000001e+00 -5.5044876441227064e-01 +7.2279691973483828e+00 +5.1683269683848234e+00 -4.2839667808456589e+01 -6.7056315562095815e+03 -6.2881259016890741e+04 +5.5960494998455495e+07 
+2.6499999999999999e+00 -5.5046774154207900e-01 +7.2290146241879816e+00 +5.1518785904711031e+00 -4.2908346801515627e+01 -6.8489246199778099e+03 -5.9952646167624902e+04 +5.6793199366263434e+07 
+2.7000000000000002e+00 -5.5048705346390736e-01 +7.2300772557352149e+00 +5.1350857830967840e+00 -4.2988409697681362e+01 -6.9933015864649169e+03 -5.6911221214041914e+04 +5.7635218627331614e+07 
+2.7500000000000000e+00 -5.5050669791280948e-01 +7.2311569404167555e+00 +5.1179440225566744e+00 -4.3079396366493519e+01 -7.1385556809788604e+03 -5.3763617642180281e+04 +5.8485375195807301e+07 
+2.7999999999999998e+00 -5.5052667262383315e-01 +7.2322535266561863e+00 +5.1004487830672618e+00 -4.3180846536147151e+01 -7.2844800800718258e+03 -5.0516470125214131e+04 +5.9342491186733812e+07 
+2.8500000000000001e+00 -5.5054697533196828e-01 +7.2333668628850543e+00 +5.0825955407462864e+00 -4.3292300252959677e+01 -7.4308680068661652e+03 -4.7176410705414921e+04 +6.0205389013872139e+07 
+2.8999999999999999e+00 -5.5056760377228098e-01 +7.2344967975261891e+00 +5.0643797694137183e+00 -4.3413297186634210e+01 -7.5775126226546990e+03 -4.3750074574324841e+04 +6.1072890678326540e+07 
+2.9500000000000002e+00 -5.5058855567984732e-01 +7.2356431790124409e+00 +5.0457969476293929e+00 -4.3543377409893601e+01 -7.7242072161702636e+03 -4.0244093618057690e+04 +6.1943819045572340e+07 
+3.0000000000000000e+00 -5.5060982878971287e-01 +7.2368058557699193e+00 +5.0268425472257769e+00 -4.3682080697650058e+01 -7.8707448942726414e+03 -3.6665102232990313e+04 +6.2816995752340458e+07 
+3.0499999999999998e+00 -5.5063142083692274e-01 +7.2379846762296989e+00 +5.0075120427365976e+00 -4.3828947018740621e+01 -8.0169188361850684e+03 -3.3019733220849725e+04 +6.3691242929331787e+07 
+3.1000000000000001e+00 -5.5065332955662738e-01 +7.2391794888237522e+00 +4.9878009121884093e+00 -4.3983516375384745e+01 -8.1625223125337625e+03 -2.9314619130850395e+04 +6.4565383313936129e+07 
+3.1499999999999999e+00 -5.5067555268386814e-01 +7.2403901419826084e+00 +4.9677046263866611e+00 -4.4145328687101497e+01 -8.3073484016946786e+03 -2.5556393243044793e+04 +6.5438238364732400e+07 
+3.2000000000000002e+00 -5.5069808795376518e-01 +7.2416164841380173e+00 +4.9472186639906726e+00 -4.4313923922892585e+01 -8.4511903878419125e+03 -2.1751688427039218e+04 +6.6308630907090329e+07 
+3.2500000000000000e+00 -5.5072093310137238e-01 +7.2428583637255715e+00 +4.9263384955710432e+00 -4.4488842195280711e+01 -8.5938413428219428e+03 -1.7907136413343989e+04 +6.7175382363001034e+07 
+3.2999999999999998e+00 -5.5074408586184498e-01 +7.2441156291772071e+00 +4.9050595984677265e+00 -4.4669623450285336e+01 -8.7350945142777873e+03 -1.4029370364755312e+04 +6.8037315318204999e+07 
+3.3500000000000001e+00 -5.5076754397032834e-01 +7.2453881289283464e+00 +4.8833774471789235e+00 -4.4855807785346599e+01 -8.8747430770267438e+03 -1.0125022164342616e+04 +6.8893251889862731e+07 
+3.3999999999999999e+00 -5.5079130516187558e-01 +7.2466757114147535e+00 +4.8612875124296515e+00 -4.5046935275971933e+01 -9.0125800995422233e+03 -6.2007239962383401e+03 +6.9742013460920990e+07 
+3.4500000000000002e+00 -5.5081536717165924e-01 +7.2479782250719191e+00 +4.8387852709753343e+00 -4.5242546010580234e+01 -9.1483988162811256e+03 -2.2631078464662428e+03 +7.0582422557827801e+07 
+3.5000000000000000e+00 -5.5083972773481549e-01 +7.2492955183377523e+00 +4.8158661962145413e+00 -4.5442180140579374e+01 -9.2819923645826111e+03 +1.6811946624806378e+03 +7.1413301028192356e+07 
+3.5499999999999998e+00 -5.5086438458649034e-01 +7.2506274396509340e+00 +4.7925257624082880e+00 -4.5645377860698922e+01 -9.4131539096703527e+03 +5.6255523103464084e+03 +7.2233470935014129e+07 
+3.6000000000000001e+00 -5.5088933546185614e-01 +7.2519738374494294e+00 +4.7687594420427706e+00 -4.5851679324395079e+01 -9.5416765605215824e+03 +9.5633334795822957e+03 +7.3041753933829263e+07 
+3.6499999999999999e+00 -5.5091457809599087e-01 +7.2533345601726484e+00 +4.7445627090791698e+00 -4.6060624725649845e+01 -9.6673534733869128e+03 +1.3487906833642546e+04 +7.3836972036164686e+07 
+3.6999999999999900e+00 -5.5094011022412481e-01 +7.2547094562625816e+00 +4.7199310351884600e+00 -4.6271754380662138e+01 -9.7899777380528467e+03 +1.7392642039140806e+04 +7.4617946790950894e+07 
+3.7499999999999898e+00 -5.5096592958141388e-01 +7.2560983741601826e+00 +4.6948598962821038e+00 -4.6484608541132260e+01 -9.9093425577982798e+03 +2.1270908172371193e+04 +7.5383500519843236e+07 
+3.7999999999999901e+00 -5.5099203390298346e-01 +7.2575011623069861e+00 +4.6693447616868085e+00 -4.6698727490053002e+01 -1.0025240954810602e+04 +2.5116074574584749e+04 +7.6132454314102247e+07 
+3.8499999999999899e+00 -5.5101842092407249e-01 +7.2589176691457515e+00 +4.6433811059739698e+00 -4.6913651545995457e+01 -1.0137466093332538e+04 +2.8921510784068851e+04 +7.6863630233824730e+07 
+3.8999999999999901e+00 -5.5104508837981137e-01 +7.2603477431210584e+00 +4.6169644022861256e+00 -4.7128921103282444e+01 -1.0245811101559479e+04 +3.2680586962005753e+04 +7.7575850114509106e+07 
+3.9499999999999900e+00 -5.5107203400544036e-01 +7.2617912326774157e+00 +4.5900901233490288e+00 -4.7344076552301352e+01 -1.0350069087163429e+04 +3.6386673193471412e+04 +7.8267935621352255e+07 
+3.9999999999999898e+00 -5.5109925553607919e-01 +7.2632479862613630e+00 +4.5627537386827184e+00 -4.7558658355200734e+01 -1.0450033079367933e+04 +4.0033140132672808e+04 +7.8938707936419174e+07 
+4.0499999999999901e+00 -5.5112675061243788e-01 +7.2647178392463401e+00 +4.5349516770503424e+00 -4.7772152023567756e+01 -1.0545506523947548e+04 +4.3613846223316810e+04 +7.9587024919859499e+07 
+4.0999999999999899e+00 -5.5115451649755853e-01 +7.2662005695353065e+00 +4.5066849991094466e+00 -4.7983864862308963e+01 -1.0636339151143669e+04 +4.7124874504902116e+04 +8.0211877644782186e+07 
+4.1499999999999897e+00 -5.5118255036008079e-01 +7.2676959393728042e+00 +4.4779561471335967e+00 -4.8193073083966489e+01 -1.0722393478504975e+04 +5.0562954916822222e+04 +8.0812287526027873e+07 
+4.1999999999999904e+00 -5.5121084936881015e-01 +7.2692037110037333e+00 +4.4487675644806846e+00 -4.8399052936659039e+01 -1.0803532047960709e+04 +5.3924817596336652e+04 +8.1387276129844382e+07 
+4.2499999999999902e+00 -5.5123941069245197e-01 +7.2707236466732770e+00 +4.4191216950593395e+00 -4.8601080703691174e+01 -1.0879617416037911e+04 +5.7207193039153615e+04 +8.1935865120197043e+07 
+4.2999999999999901e+00 -5.5126823149971038e-01 +7.2722555086258396e+00 +4.3890209785140870e+00 -4.8798432641123675e+01 -1.0950512031289791e+04 +6.0406811505781123e+04 +8.2457075457687721e+07 
+4.3499999999999899e+00 -5.5129730895930584e-01 +7.2737990591083639e+00 +4.3584678571553397e+00 -4.8990385129236685e+01 -1.1016078410198661e+04 +6.3520404283872544e+04 +8.2949928542648822e+07 
+4.3999999999999897e+00 -5.5132664023992684e-01 +7.2753540603634228e+00 +4.3274647724533741e+00 -4.9176214385597703e+01 -1.1076179049789258e+04 +6.6544701364500914e+04 +8.3413445657201096e+07 
+4.4499999999999904e+00 -5.5135622251035410e-01 +7.2769202746409452e+00 +4.2960141685702595e+00 -4.9355196961962285e+01 -1.1130676523824281e+04 +6.9476435541644445e+04 +8.3846648615324348e+07 
+4.4999999999999902e+00 -5.5138605293924847e-01 +7.2784974641839240e+00 +4.2641184822849052e+00 -4.9526609126353229e+01 -1.1179433202278376e+04 +7.2312337240400346e+04 +8.4248557834429041e+07 
+4.5499999999999901e+00 -5.5141612869531942e-01 +7.2800853912401546e+00 +4.2317801600492704e+00 -4.9689727372912017e+01 -1.1222311725369593e+04 +7.5049138798860266e+04 +8.4618195591031879e+07 
+4.5999999999999899e+00 -5.5144644694727263e-01 +7.2816838180571555e+00 +4.1990016379763961e+00 -4.9843828210831816e+01 -1.1259174451056779e+04 +7.7683572720085373e+04 +8.4954582241518602e+07 
+4.6499999999999897e+00 -5.5147700486383222e-01 +7.2832925068782357e+00 +4.1657853610275009e+00 -4.9988187987735451e+01 -1.1289883981562938e+04 +8.0212370164608685e+04 +8.5256739811999485e+07 
+4.6999999999999904e+00 -5.5150779961370400e-01 +7.2849112199525701e+00 +4.1321337661304796e+00 -5.0122083327839107e+01 -1.1314302696798391e+04 +8.2632264631697442e+04 +8.5523688799911425e+07 
+4.7499999999999902e+00 -5.5153882836553747e-01 +7.2865397195277675e+00 +4.0980492954420988e+00 -5.0244790801835926e+01 -1.1332293127951767e+04 +8.4939989177106880e+04 +8.5754450765448585e+07 
+4.7999999999999901e+00 -5.5157008828805276e-01 +7.2881777678496489e+00 +4.0635343896869740e+00 -5.0355586946902989e+01 -1.1343717764196537e+04 +8.7132276658704883e+04 +8.5948046968645275e+07 
+4.8499999999999899e+00 -5.5160157654989750e-01 +7.2898251271651278e+00 +4.0285914873902025e+00 -5.0453748363858203e+01 -1.1348439042206006e+04 +8.9205860453919639e+04 +8.6103498336775392e+07 
+4.8999999999999897e+00 -5.5163329031984376e-01 +7.2914815597233806e+00 +3.9932230302223104e+00 -5.0538551773655591e+01 -1.1346319478075506e+04 +9.1157474951636628e+04 +8.6219826312544703e+07 
+4.9499999999999904e+00 -5.5166522676644658e-01 +7.2931468277693288e+00 +3.9574314554257062e+00 -5.0609273752643169e+01 -1.1337221476465347e+04 +9.2983853424424437e+04 +8.6296051614831880e+07 
+4.9999999999999902e+00 -5.5169738305845462e-01 +7.2948206935525395e+00 +3.9212192029567228e+00 -5.0665191095354061e+01 -1.1321007518729011e+04 +9.4681730930444843e+04 +8.6331195487933517e+07 
+5.0499999999999901e+00 -5.5172975636681887e-01 +7.2965029110483099e+00 +3.8845891422229415e+00 -5.0705589844774686e+01 -1.1297540079742144e+04 +9.6247847457971249e+04 +8.6324279441180125e+07 
