# multipoles
# s[mm] polynom_b[n=0][T/m^n] polynom_b[n=1][T/m^n] polynom_b[n=2][T/m^n] polynom_b[n=3][T/m^n] polynom_b[n=4][T/m^n] polynom_b[n=5][T/m^n] polynom_b[n=6][T/m^n] 
+0.0000000000000000e+00 -5.7990494890725863e-01 +7.5843332536025745e+00 +4.9632809573492889e+00 -1.9829786236593073e+01 +2.6465800306790461e+04 -2.2852706651958323e+05 -1.6321924400598279e+08 
+5.0000000000000003e-02 -5.7990486182041323e-01 +7.5843381614896153e+00 +4.9687971237899173e+00 -1.9397651970815847e+01 +2.6358508196700172e+04 -2.3189193544393810e+05 -1.6269861839186418e+08 
+1.0000000000000001e-01 -5.7990517850567991e-01 +7.5843656424612220e+00 +4.9740480225128563e+00 -1.8982088525407296e+01 +2.6248105605190922e+04 -2.3512506499121111e+05 -1.6216609542013273e+08 
+1.5000000000000002e-01 -5.7990589791471037e-01 +7.5844156168472106e+00 +4.9790172439864842e+00 -1.8583111356167386e+01 +2.6134892433900743e+04 -2.3822605548632203e+05 -1.6162301123261747e+08 
+2.0000000000000001e-01 -5.7990701899919705e-01 +7.5844880049841477e+00 +4.9836883828284853e+00 -1.8200736144306422e+01 +2.6019168471003733e+04 -2.4119450547405009e+05 -1.6107070120228973e+08 
+2.5000000000000000e-01 -5.7990854071080633e-01 +7.5845827271998960e+00 +4.9880450253214450e+00 -1.7834978198189280e+01 +2.5901233733296489e+04 -2.4403001650363018e+05 -1.6051050225977498e+08 
+2.9999999999999999e-01 -5.7991046200128149e-01 +7.5846997038294752e+00 +4.9920707686470740e+00 -1.7485853096808420e+01 +2.5781387939503100e+04 -2.4673218787406461e+05 -1.5994374930995759e+08 
+3.4999999999999998e-01 -5.7991278182234118e-01 +7.5848388552070132e+00 +4.9957492019017131e+00 -1.7153376343482279e+01 +2.5659931028686929e+04 -2.4930061953953997e+05 -1.5937177875230926e+08 
+3.9999999999999997e-01 -5.7991549912573603e-01 +7.5850001016648365e+00 +4.9990639164486410e+00 -1.6837563357490112e+01 +2.5537162881847482e+04 -2.5173491205800607e+05 -1.5879592660941869e+08 
+4.4999999999999996e-01 -5.7991861286323521e-01 +7.5851833635395041e+00 +5.0019985038152077e+00 -1.6538429689576809e+01 +2.5413383373777298e+04 -2.5403466497483503e+05 -1.5821752885470936e+08 
+4.9999999999999994e-01 -5.7992212198663917e-01 +7.5853885611643310e+00 +5.0045365576696943e+00 -1.6255990738859200e+01 +2.5288892322775308e+04 -2.5619947902986757e+05 -1.5763792108491471e+08 
+5.4999999999999993e-01 -5.7992602544773808e-01 +7.5856156148803588e+00 +5.0066616672063002e+00 -1.5990262193323877e+01 +2.5163989664229088e+04 -2.5822895258874714e+05 -1.5705843967710948e+08 
+5.9999999999999998e-01 -5.7993032219838381e-01 +7.5858644450190065e+00 +5.0083574283160521e+00 -1.5741259306767317e+01 +2.5038975161052826e+04 -2.6012268763800157e+05 -1.5648041987276039e+08 
+6.5000000000000002e-01 -5.7993501119039947e-01 +7.5861349719236770e+00 +5.0096074294735216e+00 -1.5508997810599931e+01 +2.4914148770062089e+04 -2.6188028218325737e+05 -1.5590519820269731e+08 
+7.0000000000000007e-01 -5.7994009137565228e-01 +7.5864271159275631e+00 +5.0103952633315219e+00 -1.5293492977773390e+01 +2.4789810339436204e+04 -2.6350133803866076e+05 -1.5533411047963467e+08 
+7.5000000000000011e-01 -5.7994556170603373e-01 +7.5867407973740884e+00 +5.0107045238593964e+00 -1.5094760479197472e+01 +2.4666259681184463e+04 -2.6498545374971046e+05 -1.5476849227146533e+08 
+8.0000000000000016e-01 -5.7995142113343945e-01 +7.5870759366034433e+00 +5.0105188025797451e+00 -1.4912815818169131e+01 +2.4543796673491361e+04 -2.6633222926148231e+05 -1.5420967959298378e+08 
+8.5000000000000020e-01 -5.7995766860977493e-01 +7.5874324539569207e+00 +5.0098216897549159e+00 -1.4747674516179133e+01 +2.4422721226564030e+04 -2.6754126437522238e+05 -1.5365900866793901e+08 
+9.0000000000000024e-01 -5.7996430308699720e-01 +7.5878102697778083e+00 +5.0085967813779773e+00 -1.4599352154294349e+01 +2.4303333101960518e+04 -2.6861215839575027e+05 -1.5311781474320745e+08 
+9.5000000000000029e-01 -5.7997132351704572e-01 +7.5882093044084922e+00 +5.0068276674661387e+00 -1.4467864222960172e+01 +2.4185932220479215e+04 -2.6954451149108744e+05 -1.5258743413333002e+08 
+1.0000000000000002e+00 -5.7997872885188995e-01 +7.5886294781950454e+00 +5.0044979402981431e+00 -1.4353226364887986e+01 +2.4070818439978961e+04 -2.7033792247296125e+05 -1.5206920271974266e+08 
+1.0500000000000003e+00 -5.7998651804352663e-01 +7.5890707114837017e+00 +5.0015911938988484e+00 -1.4255454168616371e+01 +2.3958291574011379e+04 -2.7099199075346789e+05 -1.5156445609785628e+08 
+1.1000000000000003e+00 -5.7999469004396065e-01 +7.5895329246209293e+00 +4.9980910206205369e+00 -1.4174563227544695e+01 +2.3848651482598852e+04 -2.7150631562514405e+05 -1.5107453018397465e+08 
+1.1500000000000004e+00 -5.8000324380521062e-01 +7.5900160379553610e+00 +4.9939810124699235e+00 -1.4110569165721467e+01 +2.3742198031870324e+04 -2.7188049627490580e+05 -1.5060076092201754e+08 
+1.2000000000000004e+00 -5.8001217827933382e-01 +7.5905199718384209e+00 +4.9892447653253633e+00 -1.4063487717116484e+01 +2.3639230986304628e+04 -2.7211413091368740e+05 -1.5014448358528686e+08 
+1.2500000000000004e+00 -5.8002149241835377e-01 +7.5910446466202757e+00 +4.9838658658697383e+00 -1.4033334513959613e+01 +2.3540050358209617e+04 -2.7220681870366150e+05 -1.4970703511611095e+08 
+1.3000000000000005e+00 -5.8003118517437913e-01 +7.5915899826536481e+00 +4.9778279129444032e+00 -1.4020125266303781e+01 +2.3444955835492321e+04 -2.7215815818825946e+05 -1.4928975028554162e+08 
+1.3500000000000005e+00 -5.8004125549947372e-01 +7.5921559002919361e+00 +4.9711144949171384e+00 -1.4023875683274303e+01 +2.3354247382540718e+04 -2.7196774795353977e+05 -1.4889396570653340e+08 
+1.4000000000000006e+00 -5.8005170234576897e-01 +7.5927423198909336e+00 +4.9637092088257733e+00 -1.4044601530766860e+01 +2.3268224735775773e+04 -2.7163518620622793e+05 -1.4852101647808257e+08 
+1.4500000000000006e+00 -5.8006252466537933e-01 +7.5933491618086126e+00 +4.9555956457406625e+00 -1.4082318636343325e+01 +2.3187187792726592e+04 -2.7116007066906639e+05 -1.4817223878794503e+08 
+1.5000000000000007e+00 -5.8007372141044955e-01 +7.5939763464027248e+00 +4.9467573996638574e+00 -1.4137042792301109e+01 +2.3111436369742754e+04 -2.7054199939096475e+05 -1.4784896827138007e+08 
+1.5500000000000007e+00 -5.8008529153313337e-01 +7.5946237940327199e+00 +4.9371780631200783e+00 -1.4208789809419057e+01 +2.3041270322380878e+04 -2.6978057039537351e+05 -1.4755254082241079e+08 
+1.6000000000000008e+00 -5.8009723398561031e-01 +7.5952914250636505e+00 +4.9268412305257803e+00 -1.4297575711574183e+01 +2.2976989457998694e+04 -2.6887537994616205e+05 -1.4728429202715543e+08 
+1.6500000000000008e+00 -5.8010954772006740e-01 +7.5959791598543598e+00 +4.9157304944061071e+00 -1.4403416223925159e+01 +2.2918893637655863e+04 -2.6782602686836885e+05 -1.4704555784275872e+08 
+1.7000000000000008e+00 -5.8012223168871302e-01 +7.5966869187730159e+00 +4.9038294488445366e+00 -1.4526327419253095e+01 +2.2867282673333848e+04 -2.6663210720123915e+05 -1.4683767386860198e+08 
+1.7500000000000009e+00 -5.8013528484377153e-01 +7.5974146221857408e+00 +4.8911216876279777e+00 -1.4666325261320113e+01 +2.2822456393900346e+04 -2.6529321790744964e+05 -1.4666197585837138e+08 
+1.8000000000000009e+00 -5.8014870613747727e-01 +7.5981621904602621e+00 +4.8775908036736570e+00 -1.4823425736388522e+01 +2.2784714645741467e+04 -2.6380895588204247e+05 -1.4651979965624633e+08 
+1.8500000000000010e+00 -5.8016249452208890e-01 +7.5989295439700202e+00 +4.8632203915521259e+00 -1.4997645024844150e+01 +2.2754357234034873e+04 -2.6217891650736320e+05 -1.4641248084750527e+08 
+1.9000000000000010e+00 -5.8017664894986454e-01 +7.5997166030865593e+00 +4.8479940427381401e+00 -1.5188999211177126e+01 +2.2731684048446568e+04 -2.6040269597799054e+05 -1.4634135559035560e+08 
+1.9500000000000011e+00 -5.8019116837310625e-01 +7.6005232881815195e+00 +4.8318953543900296e+00 -1.5397504328728401e+01 +2.2716994821778884e+04 -2.5847989106117224e+05 -1.4630775897356293e+08 
+2.0000000000000009e+00 -5.8020605174411044e-01 +7.6013495196348213e+00 +4.8149079192999240e+00 -1.5623176724043910e+01 +2.2710589410248715e+04 -2.5641009598963783e+05 -1.4631302693904433e+08 
+2.0500000000000007e+00 -5.8022129784952037e-01 +7.6021952015059950e+00 +4.7970210498974222e+00 -1.5865856517609110e+01 +2.2712681103345625e+04 -2.5419422429668967e+05 -1.4635811039770615e+08 
+2.1000000000000005e+00 -5.8023690481322010e-01 +7.6030601672299678e+00 +4.7782473652900963e+00 -1.6124750965035485e+01 +2.2723133201566663e+04 -2.5183788425400929e+05 -1.4644239215786034e+08 
+2.1500000000000004e+00 -5.8025287059336950e-01 +7.6039442312378567e+00 +4.7586054255293764e+00 -1.6398927148629795e+01 +2.2741720726264266e+04 -2.4934771669923762e+05 -1.4656485711213937e+08 
+2.2000000000000002e+00 -5.8026919314814307e-01 +7.6048472079668583e+00 +4.7381137901966826e+00 -1.6687452391069069e+01 +2.2768218720325927e+04 -2.4673036048682136e+05 -1.4672449033000386e+08 
+2.2500000000000000e+00 -5.8028587043572888e-01 +7.6057689118475604e+00 +4.7167910198006577e+00 -1.6989393714193476e+01 +2.2802402193598911e+04 -2.4399245700834689e+05 -1.4692027662780908e+08 
+2.2999999999999998e+00 -5.8030290041431321e-01 +7.6067091573178782e+00 +4.6946556726193647e+00 -1.7303818445685316e+01 +2.2844046215101436e+04 -2.4114064505830340e+05 -1.4715120121922478e+08 
+2.3499999999999996e+00 -5.8032028104212352e-01 +7.6076677588126564e+00 +4.6717263113533205e+00 -1.7629793744817462e+01 +2.2892925740318769e+04 -2.3818156492718731e+05 -1.4741624857243150e+08 
+2.3999999999999995e+00 -5.8033801027737097e-01 +7.6086445307663375e+00 +4.6480214942735127e+00 -1.7966386768571184e+01 +2.2948815839109102e+04 -2.3512185681027811e+05 -1.4771440390844274e+08 
+2.4499999999999993e+00 -5.8035608607829758e-01 +7.6096392876160754e+00 +4.6235597832886022e+00 -1.8312664760870074e+01 +2.3011491483314192e+04 -2.3196816022172489e+05 -1.4804465179116911e+08 
+2.4999999999999991e+00 -5.8037450640313304e-01 +7.6106518437974238e+00 +4.5983597358058548e+00 -1.8667694880876635e+01 +2.3080727765170443e+04 -2.2872711540649459e+05 -1.4840597758822933e+08 
+2.5499999999999989e+00 -5.8039326921014112e-01 +7.6116820137472212e+00 +4.5724399135417304e+00 -1.9030544341123484e+01 +2.3156299660593475e+04 -2.2540536210313250e+05 -1.4879736588466436e+08 
+2.5999999999999988e+00 -5.8041237245757138e-01 +7.6127296119012691e+00 +4.5458188735713740e+00 -1.9400280290603405e+01 +2.3237982271934503e+04 -2.2200954061112920e+05 -1.4921780212439597e+08 
+2.6499999999999986e+00 -5.8043181410371325e-01 +7.6137944526966779e+00 +4.5185151789249813e+00 -1.9775969932716762e+01 +2.3325550533682414e+04 -2.1854629072646014e+05 -1.4966627059083799e+08 
+2.6999999999999984e+00 -5.8045159210683905e-01 +7.6148763505702064e+00 +4.4905473868734118e+00 -2.0156680440588495e+01 +2.3418779543681929e+04 -2.1502225250468953e+05 -1.5014175670020285e+08 
+2.7499999999999982e+00 -5.8047170442524054e-01 +7.6159751199561772e+00 +4.4619340572709394e+00 -2.0541478888251657e+01 +2.3517444319600214e+04 -2.1144406677012288e+05 -1.5064324528704473e+08 
+2.7999999999999980e+00 -5.8049214901722379e-01 +7.6170905752953164e+00 +4.4326937499647663e+00 -2.0929432596211971e+01 +2.3621319888357306e+04 -2.0781837233165940e+05 -1.5116972128519419e+08 
+2.8499999999999979e+00 -5.8051292384108910e-01 +7.6182225310207672e+00 +4.4028450228036355e+00 -2.1319608573778485e+01 +2.3730181321458858e+04 -2.0415181051121539e+05 -1.5172016989205289e+08 
+2.8999999999999977e+00 -5.8053402685516298e-01 +7.6193708015701640e+00 +4.3724064362736614e+00 -2.1711074004995183e+01 +2.3843803623102940e+04 -2.0045102119437134e+05 -1.5229357586601675e+08 
+2.9499999999999975e+00 -5.8055545601777192e-01 +7.6205352013791678e+00 +4.3413965495748812e+00 -2.2102895991981448e+01 +2.3961961827159052e+04 -1.9672264489284402e+05 -1.5288892414592013e+08 
+2.9999999999999973e+00 -5.8057720928724188e-01 +7.6217155448834539e+00 +4.3098339200386677e+00 -2.2494141638774188e+01 +2.4084431021229015e+04 -1.9297332205960189e+05 -1.5350520004796582e+08 
+3.0499999999999972e+00 -5.8059928462191646e-01 +7.6229116465197677e+00 +4.2777371067552226e+00 -2.2883878077733783e+01 +2.4210986241451636e+04 -1.8920969293270298e+05 -1.5414138852470630e+08 
+3.0999999999999970e+00 -5.8062167998014935e-01 +7.6241233207222159e+00 +4.2451246689298463e+00 -2.3271172344068383e+01 +2.4341402521061140e+04 -1.8543839846930376e+05 -1.5479647450802153e+08 
+3.1499999999999968e+00 -5.8064439332030027e-01 +7.6253503819262489e+00 +4.2120151658714962e+00 -2.3655091519425202e+01 +2.4475454886040330e+04 -1.8166607923553546e+05 -1.5546944286577711e+08 
+3.1999999999999966e+00 -5.8066742260072179e-01 +7.6265926445656023e+00 +4.1784271538932476e+00 -2.4034702617682278e+01 +2.4612918445845447e+04 -1.7789937631372950e+05 -1.5615927903884909e+08 
+3.2499999999999964e+00 -5.8069076577979317e-01 +7.6278499230745744e+00 +4.1443791924866389e+00 -2.4409072677834896e+01 +2.4753568223604729e+04 -1.7414493052367610e+05 -1.5686496788189071e+08 
+3.2999999999999963e+00 -5.8071442081587732e-01 +7.6291220318865909e+00 +4.1098898377602469e+00 -2.4777268712492596e+01 +2.4897179325936140e+04 -1.7040938284960436e+05 -1.5758549478509107e+08 
+3.3499999999999961e+00 -5.8073838566736757e-01 +7.6304087854344367e+00 +4.0749776495226859e+00 -2.5138357682862566e+01 +2.5043526762096324e+04 -1.6669937474411147e+05 -1.5831984449010339e+08 
+3.3999999999999959e+00 -5.8076265829265206e-01 +7.6317099981508427e+00 +4.0396611849639630e+00 -2.5491406597109755e+01 +2.5192385614738614e+04 -1.6302154705811027e+05 -1.5906700224217606e+08 
+3.4499999999999957e+00 -5.8078723665011578e-01 +7.6330254844665459e+00 +4.0039590002573853e+00 -2.5835482334493868e+01 +2.5343530985273690e+04 -1.5938254186123508e+05 -1.5982595338214919e+08 
+3.4999999999999956e+00 -5.8081211869816718e-01 +7.6343550588126261e+00 +3.9678896545915738e+00 -2.6169651833333830e+01 +2.5496737894965478e+04 -1.5578900051395720e+05 -1.6059568271362799e+08 
+3.5499999999999954e+00 -5.8083730239520726e-01 +7.6356985356188538e+00 +3.9314717042839313e+00 -2.6492981968388676e+01 +2.5651781441503448e+04 -1.5224756492941518e+05 -1.6137517555008715e+08 
+3.5999999999999952e+00 -5.8086278569964001e-01 +7.6370557293148496e+00 +3.8947237055803399e+00 -2.6804539610268449e+01 +2.5808436722973987e+04 -1.4876487700911393e+05 -1.6216341720421886e+08 
+3.6499999999999950e+00 -5.8088856656987309e-01 +7.6384264543297693e+00 +3.8576642139949278e+00 -2.7103391629335491e+01 +2.5966478854846173e+04 -1.4534757855274525e+05 -1.6295939309352812e+08 
+3.6999999999999948e+00 -5.8091464296434026e-01 +7.6398105250883948e+00 +3.8203117892989145e+00 -2.7388604717128509e+01 +2.6125682834168274e+04 -1.4200231280953664e+05 -1.6376208782464159e+08 
+3.7499999999999947e+00 -5.8094101284145638e-01 +7.6412077560188116e+00 +3.7826849862896017e+00 -2.7659245723508054e+01 +2.6285823794680357e+04 -1.3873572162117332e+05 -1.6457048693368581e+08 
+3.7999999999999945e+00 -5.8096767415963468e-01 +7.6426179615474528e+00 +3.7448023591521458e+00 -2.7914381421551777e+01 +2.6446676881113734e+04 -1.3555444745181044e+05 -1.6538357601120046e+08 
+3.8499999999999943e+00 -5.8099462487730913e-01 +7.6440409560954858e+00 +3.7066824648278631e+00 -2.8153078388213778e+01 +2.6608017161907210e+04 -1.3246513430311004e+05 -1.6620034012400970e+08 
+3.8999999999999941e+00 -5.8102186295292135e-01 +7.6454765540916139e+00 +3.6683438605992431e+00 -2.8374403528429273e+01 +2.6769619697079739e+04 -1.2947442336384176e+05 -1.6701976428355885e+08 
+3.9499999999999940e+00 -5.8104938634489345e-01 +7.6469245699514135e+00 +3.6298050994309352e+00 -2.8577423211789601e+01 +2.6931259661291711e+04 -1.2658896021154600e+05 -1.6784083426869610e+08 
+3.9999999999999938e+00 -5.8107719301166938e-01 +7.6483848180996059e+00 +3.5910847382731235e+00 -2.8761204205482329e+01 +2.7092712113498223e+04 -1.2381538700611585e+05 -1.6866253504075891e+08 
+4.0499999999999936e+00 -5.8110528078487944e-01 +7.6498571155893726e+00 +3.5522010221965488e+00 -2.8925044645295060e+01 +2.7253750725816859e+04 -1.2115885026891345e+05 -1.6948379612385464e+08 
+4.0999999999999934e+00 -5.8113364698947467e-01 +7.6513412830216430e+00 +3.5131709754887246e+00 -2.9069131834773742e+01 +2.7414152272692649e+04 -1.1861892776941466e+05 -1.7030337815142941e+08 
+4.1499999999999932e+00 -5.8116228882379817e-01 +7.6528371401544417e+00 +3.4740113301072952e+00 -2.9193867587433623e+01 +2.7573696813434224e+04 -1.1619391055143614e+05 -1.7112001453716671e+08 
+4.1999999999999931e+00 -5.8119120348622166e-01 +7.6543445067462450e+00 +3.4347388230241513e+00 -2.9299653772307714e+01 +2.7732164274164832e+04 -1.1388208918798293e+05 -1.7193243779609519e+08 
+4.2499999999999929e+00 -5.8122038817510746e-01 +7.6558632025525428e+00 +3.3953701887230880e+00 -2.9386892139300905e+01 +2.7889334649448949e+04 -1.1168175525484644e+05 -1.7273938090531880e+08 
+4.2999999999999927e+00 -5.8124984008883684e-01 +7.6573930473282434e+00 +3.3559221652904148e+00 -2.9455984436163750e+01 +2.8044987834540352e+04 -1.0959120028888500e+05 -1.7353957616414097e+08 
+4.3499999999999925e+00 -5.8127955642576723e-01 +7.6589338608308459e+00 +3.3164114860458587e+00 -2.9507332523803221e+01 +2.8198903855422494e+04 -1.0760871491103311e+05 -1.7433175675949061e+08 
+4.3999999999999924e+00 -5.8130953438427369e-01 +7.6604854628112076e+00 +3.2768548874025782e+00 -2.9541338017516782e+01 +2.8350862653809872e+04 -1.0573259168851672e+05 -1.7511465530585599e+08 
+4.4499999999999922e+00 -5.8133977116272362e-01 +7.6620476730204237e+00 +3.2372691043567627e+00 -2.9558402543818083e+01 +2.8500644208771519e+04 -1.0396112314109222e+05 -1.7588700466261601e+08 
+4.4999999999999920e+00 -5.8137026395949631e-01 +7.6636203112115409e+00 +3.1976708735704666e+00 -2.9558927846109242e+01 +2.8648028459404250e+04 -1.0229260071203813e+05 -1.7664753743877313e+08 
+4.5499999999999918e+00 -5.8140100997296418e-01 +7.6652031971331178e+00 +3.1580769311070651e+00 -2.9543315495105386e+01 +2.8792795354108519e+04 -1.0072531727602778e+05 -1.7739498627736112e+08 
+4.5999999999999917e+00 -5.8143200640149473e-01 +7.6667961505327789e+00 +3.1185040111585103e+00 -2.9511967033256298e+01 +2.8934724901044534e+04 -9.9257565946651826e+04 -1.7812808425681499e+08 
+4.6499999999999915e+00 -5.8146325044345726e-01 +7.6683989911590453e+00 +3.0789688495841263e+00 -2.9465284070517743e+01 +2.9073597054148424e+04 -9.7887639212860871e+04 -1.7884556405550495e+08 
+4.6999999999999913e+00 -5.8149473929723405e-01 +7.6700115387521803e+00 +3.0394881836331953e+00 -2.9403667900631202e+01 +2.9209191736197878e+04 -9.6613832131615607e+04 -1.7954615815895313e+08 
+4.7499999999999911e+00 -5.8152647016119441e-01 +7.6716336130599023e+00 +3.0000787485770046e+00 -2.9327520133496595e+01 +2.9341288925958022e+04 -9.5434437168684963e+04 -1.8022859944366977e+08 
+4.7999999999999909e+00 -5.8155844023370051e-01 +7.6732650338226973e+00 +2.9607572791823862e+00 -2.9237242111232074e+01 +2.9469668608359239e+04 -9.4347748939534038e+04 -1.8089162079280216e+08 
+4.8499999999999908e+00 -5.8159064671313188e-01 +7.6749056207825568e+00 +2.9215405131557253e+00 -2.9133235269741682e+01 +2.9594110694676696e+04 -9.3352061226670528e+04 -1.8153395461561215e+08 
+4.8999999999999906e+00 -5.8162308679785368e-01 +7.6765551936780678e+00 +2.8824451855234856e+00 -2.9015900910687098e+01 +2.9714395171434204e+04 -9.2445668954699082e+04 -1.8215433383318385e+08 
+4.9499999999999904e+00 -5.8165575768623057e-01 +7.6782135722466922e+00 +2.8434880323339828e+00 -2.8885640331466316e+01 +2.9830301991736902e+04 -9.1626866989408139e+04 -1.8275149112054276e+08 
+4.9999999999999902e+00 -5.8168865657662572e-01 +7.6798805762227156e+00 +2.8046857893355130e+00 -2.8742854712333596e+01 +2.9941611123209317e+04 -9.0893951167936262e+04 -1.8332415927324432e+08 
+5.0499999999999901e+00 -5.8172178066739810e-01 +7.6815560253428581e+00 +2.7660551921773640e+00 -2.8587945368754475e+01 +3.0048102531695637e+04 -9.0245216160088850e+04 -1.8387107105208388e+08 
