# trajectory
# s[mm] rx[mm] ry[mm] rz[mm] px[rad] py[rad] pz[rad]
0.0000000000000000e+00 +8.5389999999999997e+00 +0.0000000000000000e+00 +0.0000000000000000e+00 +0.0000000000000000e+00 +0.0000000000000000e+00 +1.0000000000000000e+00
5.0000000000000003e-02 +8.5389999309238593e+00 +0.0000000000000000e+00 +4.9999999999936373e-02 -2.7630472933318417e-06 +0.0000000000000000e+00 +9.9999999999618283e-01
1.0000000000000001e-01 +8.5389997236950883e+00 +0.0000000000000000e+00 +9.9999999999491024e-02 -5.5261055606915280e-06 +0.0000000000000000e+00 +9.9999999998473110e-01
1.5000000000000002e-01 +8.5389993783130915e+00 +0.0000000000000000e+00 +1.4999999999828223e-01 -8.2891766203048951e-06 +0.0000000000000000e+00 +9.9999999996564481e-01
2.0000000000000001e-01 +8.5389988947771833e+00 +0.0000000000000000e+00 +1.9999999999592827e-01 -1.1052262285936055e-05 +0.0000000000000000e+00 +9.9999999993892374e-01
2.5000000000000000e-01 +8.5389982730865892e+00 +0.0000000000000000e+00 +2.4999999999204736e-01 -1.3815364366887478e-05 +0.0000000000000000e+00 +9.9999999990456789e-01
2.9999999999999999e-01 +8.5389975132404423e+00 +0.0000000000000000e+00 +2.9999999998625781e-01 -1.6578484668000072e-05 +0.0000000000000000e+00 +9.9999999986257693e-01
3.4999999999999998e-01 +8.5389966152377887e+00 +0.0000000000000000e+00 +3.4999999997817782e-01 -1.9341624989653275e-05 +0.0000000000000000e+00 +9.9999999981295074e-01
3.9999999999999997e-01 +8.5389955790775804e+00 +0.0000000000000000e+00 +3.9999999996742563e-01 -2.2104787127765128e-05 +0.0000000000000000e+00 +9.9999999975568921e-01
4.4999999999999996e-01 +8.5389944047586823e+00 +0.0000000000000000e+00 +4.4999999995361950e-01 -2.4867972873792358e-05 +0.0000000000000000e+00 +9.9999999969079201e-01
4.9999999999999994e-01 +8.5389930922798705e+00 +0.0000000000000000e+00 +4.9999999993637756e-01 -2.7631184014730459e-05 +0.0000000000000000e+00 +9.9999999961825892e-01
5.4999999999999993e-01 +8.5389916416398286e+00 +0.0000000000000000e+00 +5.4999999991531812e-01 -3.0394422333113777e-05 +0.0000000000000000e+00 +9.9999999953808960e-01
5.9999999999999998e-01 +8.5389900528371552e+00 +0.0000000000000000e+00 +5.9999999989005925e-01 -3.3157689607015583e-05 +0.0000000000000000e+00 +9.9999999945028384e-01
6.5000000000000002e-01 +8.5389883258703563e+00 +0.0000000000000000e+00 +6.4999999986021917e-01 -3.5920987610048146e-05 +0.0000000000000000e+00 +9.9999999935484141e-01
7.0000000000000007e-01 +8.5389864607378527e+00 +0.0000000000000000e+00 +6.9999999982541605e-01 -3.8684318111362831e-05 +0.0000000000000000e+00 +9.9999999925176186e-01
7.5000000000000011e-01 +8.5389844574379747e+00 +0.0000000000000000e+00 +7.4999999978526799e-01 -4.1447682875650149e-05 +0.0000000000000000e+00 +9.9999999914104487e-01
8.0000000000000016e-01 +8.5389823159689655e+00 +0.0000000000000000e+00 +7.9999999973939317e-01 -4.4211083663139853e-05 +0.0000000000000000e+00 +9.9999999902269010e-01
8.5000000000000020e-01 +8.5389800363289794e+00 +0.0000000000000000e+00 +8.4999999968740969e-01 -4.6974522229600995e-05 +0.0000000000000000e+00 +9.9999999889669722e-01
9.0000000000000024e-01 +8.5389776185160837e+00 +0.0000000000000000e+00 +8.9999999962893562e-01 -4.9738000326342025e-05 +0.0000000000000000e+00 +9.9999999876306578e-01
9.5000000000000029e-01 +8.5389750625282588e+00 +0.0000000000000000e+00 +9.4999999956358894e-01 -5.2501519700210842e-05 +0.0000000000000000e+00 +9.9999999862179534e-01
1.0000000000000002e+00 +8.5389723683633960e+00 +0.0000000000000000e+00 +9.9999999949098783e-01 -5.5265082093594868e-05 +0.0000000000000000e+00 +9.9999999847288545e-01
1.0500000000000003e+00 +8.5389695360193034e+00 +0.0000000000000000e+00 +1.0499999994107503e+00 -5.8028689244421141e-05 +0.0000000000000000e+00 +9.9999999831633568e-01
1.1000000000000003e+00 +8.5389665654936966e+00 +0.0000000000000000e+00 +1.0999999993224940e+00 -6.0792342886156361e-05 +0.0000000000000000e+00 +9.9999999815214557e-01
1.1500000000000004e+00 +8.5389634567842094e+00 +0.0000000000000000e+00 +1.1499999992258374e+00 -6.3556044747806981e-05 +0.0000000000000000e+00 +9.9999999798031469e-01
1.2000000000000004e+00 +8.5389602098883888e+00 +0.0000000000000000e+00 +1.1999999991203982e+00 -6.6319796553919246e-05 +0.0000000000000000e+00 +9.9999999780084237e-01
1.2500000000000004e+00 +8.5389568248036927e+00 +0.0000000000000000e+00 +1.2499999990057944e+00 -6.9083600024579301e-05 +0.0000000000000000e+00 +9.9999999761372815e-01
1.3000000000000005e+00 +8.5389533015274957e+00 +0.0000000000000000e+00 +1.2999999988816437e+00 -7.1847456875413239e-05 +0.0000000000000000e+00 +9.9999999741897150e-01
1.3500000000000005e+00 +8.5389496400570870e+00 +0.0000000000000000e+00 +1.3499999987475642e+00 -7.4611368817587156e-05 +0.0000000000000000e+00 +9.9999999721657185e-01
1.4000000000000006e+00 +8.5389458403896672e+00 +0.0000000000000000e+00 +1.3999999986031735e+00 -7.7375337557807238e-05 +0.0000000000000000e+00 +9.9999999700652864e-01
1.4500000000000006e+00 +8.5389419025223550e+00 +0.0000000000000000e+00 +1.4499999984480896e+00 -8.0139364798319820e-05 +0.0000000000000000e+00 +9.9999999678884122e-01
1.5000000000000007e+00 +8.5389378264521838e+00 +0.0000000000000000e+00 +1.4999999982819301e+00 -8.2903452236911455e-05 +0.0000000000000000e+00 +9.9999999656350891e-01
1.5500000000000007e+00 +8.5389336121761001e+00 +0.0000000000000000e+00 +1.5499999981043129e+00 -8.5667601566908949e-05 +0.0000000000000000e+00 +9.9999999633053116e-01
1.6000000000000008e+00 +8.5389292596909669e+00 +0.0000000000000000e+00 +1.5999999979148556e+00 -8.8431814477179488e-05 +0.0000000000000000e+00 +9.9999999608990719e-01
1.6500000000000008e+00 +8.5389247689935637e+00 +0.0000000000000000e+00 +1.6499999977131761e+00 -9.1196092652130623e-05 +0.0000000000000000e+00 +9.9999999584163646e-01
1.7000000000000008e+00 +8.5389201400805863e+00 +0.0000000000000000e+00 +1.6999999974988917e+00 -9.3960437771710377e-05 +0.0000000000000000e+00 +9.9999999558571817e-01
1.7500000000000009e+00 +8.5389153729486438e+00 +0.0000000000000000e+00 +1.7499999972716203e+00 -9.6724851511407315e-05 +0.0000000000000000e+00 +9.9999999532215167e-01
1.8000000000000009e+00 +8.5389104675942633e+00 +0.0000000000000000e+00 +1.7999999970309792e+00 -9.9489335542250583e-05 +0.0000000000000000e+00 +9.9999999505093617e-01
1.8500000000000010e+00 +8.5389054240138904e+00 +0.0000000000000000e+00 +1.8499999967765863e+00 -1.0225389153080995e-04 +0.0000000000000000e+00 +9.9999999477207091e-01
1.9000000000000010e+00 +8.5389002422038836e+00 +0.0000000000000000e+00 +1.8999999965080590e+00 -1.0501852113919591e-04 +0.0000000000000000e+00 +9.9999999448555521e-01
1.9500000000000011e+00 +8.5388949221605213e+00 +0.0000000000000000e+00 +1.9499999962250145e+00 -1.0778322602505971e-04 +0.0000000000000000e+00 +9.9999999419138819e-01
2.0000000000000009e+00 +8.5388894638799986e+00 +0.0000000000000000e+00 +1.9999999959270702e+00 -1.1054800784159341e-04 +0.0000000000000000e+00 +9.9999999388956906e-01
2.0500000000000007e+00 +8.5388838673584271e+00 +0.0000000000000000e+00 +2.0499999956138439e+00 -1.1331286823725400e-04 +0.0000000000000000e+00 +9.9999999358009706e-01
2.1000000000000005e+00 +8.5388781325918384e+00 +0.0000000000000000e+00 +2.0999999952849526e+00 -1.1607780885272799e-04 +0.0000000000000000e+00 +9.9999999326297129e-01
2.1500000000000004e+00 +8.5388722595761788e+00 +0.0000000000000000e+00 +2.1499999949400137e+00 -1.1884283131789608e-04 +0.0000000000000000e+00 +9.9999999293819086e-01
2.2000000000000002e+00 +8.5388662483073166e+00 +0.0000000000000000e+00 +2.1999999945786444e+00 -1.2160793725155721e-04 +0.0000000000000000e+00 +9.9999999260575489e-01
2.2500000000000000e+00 +8.5388600987810364e+00 +0.0000000000000000e+00 +2.2499999942004618e+00 -1.2437312826142860e-04 +0.0000000000000000e+00 +9.9999999226566261e-01
2.2999999999999998e+00 +8.5388538109930465e+00 +0.0000000000000000e+00 +2.2999999938050832e+00 -1.2713840594414587e-04 +0.0000000000000000e+00 +9.9999999191791300e-01
2.3499999999999996e+00 +8.5388473849389719e+00 +0.0000000000000000e+00 +2.3499999933921254e+00 -1.2990377188526304e-04 +0.0000000000000000e+00 +9.9999999156250519e-01
2.3999999999999995e+00 +8.5388408206143609e+00 +0.0000000000000000e+00 +2.3999999929612059e+00 -1.3266922765925259e-04 +0.0000000000000000e+00 +9.9999999119943817e-01
2.4499999999999993e+00 +8.5388341180146821e+00 +0.0000000000000000e+00 +2.4499999925119416e+00 -1.3543477482950552e-04 +0.0000000000000000e+00 +9.9999999082871105e-01
2.4999999999999991e+00 +8.5388272771353275e+00 +0.0000000000000000e+00 +2.4999999920439495e+00 -1.3820041494833142e-04 +0.0000000000000000e+00 +9.9999999045032284e-01
2.5499999999999989e+00 +8.5388202979716112e+00 +0.0000000000000000e+00 +2.5499999915568465e+00 -1.4096614955695847e-04 +0.0000000000000000e+00 +9.9999999006427254e-01
2.5999999999999988e+00 +8.5388131805187708e+00 +0.0000000000000000e+00 +2.5999999910502494e+00 -1.4373198018553351e-04 +0.0000000000000000e+00 +9.9999998967055914e-01
2.6499999999999986e+00 +8.5388059247719674e+00 +0.0000000000000000e+00 +2.6499999905237748e+00 -1.4649790835312212e-04 +0.0000000000000000e+00 +9.9999998926918165e-01
2.6999999999999984e+00 +8.5387985307262859e+00 +0.0000000000000000e+00 +2.6999999899770399e+00 -1.4926393556770860e-04 +0.0000000000000000e+00 +9.9999998886013897e-01
2.7499999999999982e+00 +8.5387909983767347e+00 +0.0000000000000000e+00 +2.7499999894096612e+00 -1.5203006332619609e-04 +0.0000000000000000e+00 +9.9999998844343008e-01
2.7999999999999980e+00 +8.5387833277182512e+00 +0.0000000000000000e+00 +2.7999999888212552e+00 -1.5479629311440654e-04 +0.0000000000000000e+00 +9.9999998801905399e-01
2.8499999999999979e+00 +8.5387755187456982e+00 +0.0000000000000000e+00 +2.8499999882114389e+00 -1.5756262640708086e-04 +0.0000000000000000e+00 +9.9999998758700959e-01
2.8999999999999977e+00 +8.5387675714538620e+00 +0.0000000000000000e+00 +2.8999999875798284e+00 -1.6032906466787882e-04 +0.0000000000000000e+00 +9.9999998714729577e-01
2.9499999999999975e+00 +8.5387594858374580e+00 +0.0000000000000000e+00 +2.9499999869260405e+00 -1.6309560934937921e-04 +0.0000000000000000e+00 +9.9999998669991130e-01
2.9999999999999973e+00 +8.5387512618911288e+00 +0.0000000000000000e+00 +2.9999999862496916e+00 -1.6586226189307986e-04 +0.0000000000000000e+00 +9.9999998624485520e-01
3.0499999999999972e+00 +8.5387428996094474e+00 +0.0000000000000000e+00 +3.0499999855503979e+00 -1.6862902372939763e-04 +0.0000000000000000e+00 +9.9999998578212634e-01
3.0999999999999970e+00 +8.5387343989869109e+00 +0.0000000000000000e+00 +3.0999999848277762e+00 -1.7139589627766848e-04 +0.0000000000000000e+00 +9.9999998531172352e-01
3.1499999999999968e+00 +8.5387257600179503e+00 +0.0000000000000000e+00 +3.1499999840814423e+00 -1.7416288094614755e-04 +0.0000000000000000e+00 +9.9999998483364561e-01
3.1999999999999966e+00 +8.5387169826969238e+00 +0.0000000000000000e+00 +3.1999999833110127e+00 -1.7692997913200915e-04 +0.0000000000000000e+00 +9.9999998434789139e-01
3.2499999999999964e+00 +8.5387080670181223e+00 +0.0000000000000000e+00 +3.2499999825161034e+00 -1.7969719222134682e-04 +0.0000000000000000e+00 +9.9999998385445965e-01
3.2999999999999963e+00 +8.5386990129757638e+00 +0.0000000000000000e+00 +3.2999999816963306e+00 -1.8246452158917332e-04 +0.0000000000000000e+00 +9.9999998335334928e-01
3.3499999999999961e+00 +8.5386898205640023e+00 +0.0000000000000000e+00 +3.3499999808513103e+00 -1.8523196859942075e-04 +0.0000000000000000e+00 +9.9999998284455904e-01
3.3999999999999959e+00 +8.5386804897769206e+00 +0.0000000000000000e+00 +3.3999999799806586e+00 -1.8799953460494053e-04 +0.0000000000000000e+00 +9.9999998232808762e-01
3.4499999999999957e+00 +8.5386710206085361e+00 +0.0000000000000000e+00 +3.4499999790839913e+00 -1.9076722094750346e-04 +0.0000000000000000e+00 +9.9999998180393379e-01
3.4999999999999956e+00 +8.5386614130527985e+00 +0.0000000000000000e+00 +3.4999999781609241e+00 -1.9353502895779970e-04 +0.0000000000000000e+00 +9.9999998127209633e-01
3.5499999999999954e+00 +8.5386516671035917e+00 +0.0000000000000000e+00 +3.5499999772110731e+00 -1.9630295995543890e-04 +0.0000000000000000e+00 +9.9999998073257401e-01
3.5999999999999952e+00 +8.5386417827547323e+00 +0.0000000000000000e+00 +3.5999999762340535e+00 -1.9907101524895015e-04 +0.0000000000000000e+00 +9.9999998018536551e-01
3.6499999999999950e+00 +8.5386317599999728e+00 +0.0000000000000000e+00 +3.6499999752294814e+00 -2.0183919613578206e-04 +0.0000000000000000e+00 +9.9999997963046949e-01
3.6999999999999948e+00 +8.5386215988330036e+00 +0.0000000000000000e+00 +3.6999999741969725e+00 -2.0460750390230274e-04 +0.0000000000000000e+00 +9.9999997906788474e-01
3.7499999999999947e+00 +8.5386112992474477e+00 +0.0000000000000000e+00 +3.7499999731361418e+00 -2.0737593982379991e-04 +0.0000000000000000e+00 +9.9999997849760980e-01
3.7999999999999945e+00 +8.5386008612368656e+00 +0.0000000000000000e+00 +3.7999999720466051e+00 -2.1014450516448083e-04 +0.0000000000000000e+00 +9.9999997791964346e-01
3.8499999999999943e+00 +8.5385902847947541e+00 +0.0000000000000000e+00 +3.8499999709279780e+00 -2.1291320117747245e-04 +0.0000000000000000e+00 +9.9999997733398438e-01
3.8999999999999941e+00 +8.5385795699145497e+00 +0.0000000000000000e+00 +3.8999999697798753e+00 -2.1568202910482134e-04 +0.0000000000000000e+00 +9.9999997674063112e-01
3.9499999999999940e+00 +8.5385687165896247e+00 +0.0000000000000000e+00 +3.9499999686019125e+00 -2.1845099017749373e-04 +0.0000000000000000e+00 +9.9999997613958236e-01
3.9999999999999938e+00 +8.5385577248132929e+00 +0.0000000000000000e+00 +3.9999999673937050e+00 -2.2122008561537557e-04 +0.0000000000000000e+00 +9.9999997553083675e-01
4.0499999999999936e+00 +8.5385465945788042e+00 +0.0000000000000000e+00 +4.0499999661548678e+00 -2.2398931662714924e-04 +0.0000000000000000e+00 +9.9999997491439285e-01
4.0999999999999934e+00 +8.5385353258793515e+00 +0.0000000000000000e+00 +4.0999999648850158e+00 -2.2675868440893694e-04 +0.0000000000000000e+00 +9.9999997429024934e-01
4.1499999999999932e+00 +8.5385239187080657e+00 +0.0000000000000000e+00 +4.1499999635837641e+00 -2.2952819014294414e-04 +0.0000000000000000e+00 +9.9999997365840476e-01
4.1999999999999931e+00 +8.5385123730580190e+00 +0.0000000000000000e+00 +4.1999999622507280e+00 -2.3229783499733626e-04 +0.0000000000000000e+00 +9.9999997301885768e-01
4.2499999999999929e+00 +8.5385006889222286e+00 +0.0000000000000000e+00 +4.2499999608855221e+00 -2.3506762012623868e-04 +0.0000000000000000e+00 +9.9999997237160676e-01
4.2999999999999927e+00 +8.5384888662936511e+00 +0.0000000000000000e+00 +4.2999999594877609e+00 -2.3783754666973673e-04 +0.0000000000000000e+00 +9.9999997171665045e-01
4.3499999999999925e+00 +8.5384769051651865e+00 +0.0000000000000000e+00 +4.3499999580570590e+00 -2.4060761575387573e-04 +0.0000000000000000e+00 +9.9999997105398730e-01
4.3999999999999924e+00 +8.5384648055296815e+00 +0.0000000000000000e+00 +4.3999999565930308e+00 -2.4337782849066087e-04 +0.0000000000000000e+00 +9.9999997038361599e-01
4.4499999999999922e+00 +8.5384525673799256e+00 +0.0000000000000000e+00 +4.4499999550952918e+00 -2.4614818597805741e-04 +0.0000000000000000e+00 +9.9999996970553495e-01
4.4999999999999920e+00 +8.5384401907086538e+00 +0.0000000000000000e+00 +4.4999999535634556e+00 -2.4891868929999045e-04 +0.0000000000000000e+00 +9.9999996901974275e-01
4.5499999999999918e+00 +8.5384276755085473e+00 +0.0000000000000000e+00 +4.5499999519971377e+00 -2.5168933952634512e-04 +0.0000000000000000e+00 +9.9999996832623783e-01
4.5999999999999917e+00 +8.5384150217722343e+00 +0.0000000000000000e+00 +4.5999999503959517e+00 -2.5446013771296649e-04 +0.0000000000000000e+00 +9.9999996762501875e-01
4.6499999999999915e+00 +8.5384022294922914e+00 +0.0000000000000000e+00 +4.6499999487595112e+00 -2.5723108490165951e-04 +0.0000000000000000e+00 +9.9999996691608406e-01
4.6999999999999913e+00 +8.5383892986612437e+00 +0.0000000000000000e+00 +4.6999999470874316e+00 -2.6000218212018911e-04 +0.0000000000000000e+00 +9.9999996619943221e-01
4.7499999999999911e+00 +8.5383762292715630e+00 +0.0000000000000000e+00 +4.7499999453793258e+00 -2.6277343038228016e-04 +0.0000000000000000e+00 +9.9999996547506165e-01
4.7999999999999909e+00 +8.5383630213156714e+00 +0.0000000000000000e+00 +4.7999999436348091e+00 -2.6554483068761742e-04 +0.0000000000000000e+00 +9.9999996474297093e-01
4.8499999999999908e+00 +8.5383496747859429e+00 +0.0000000000000000e+00 +4.8499999418534943e+00 -2.6831638402184552e-04 +0.0000000000000000e+00 +9.9999996400315849e-01
4.8999999999999906e+00 +8.5383361896747019e+00 +0.0000000000000000e+00 +4.8999999400349958e+00 -2.7108809135656901e-04 +0.0000000000000000e+00 +9.9999996325562279e-01
4.9499999999999904e+00 +8.5383225659742248e+00 +0.0000000000000000e+00 +4.9499999381789275e+00 -2.7385995364935235e-04 +0.0000000000000000e+00 +9.9999996250036227e-01
4.9999999999999902e+00 +8.5383088036767383e+00 +0.0000000000000000e+00 +4.9999999362849028e+00 -2.7663197184371981e-04 +0.0000000000000000e+00 +9.9999996173737538e-01
5.0499999999999901e+00 +8.5382949027744264e+00 +0.0000000000000000e+00 +5.0499999343525355e+00 -2.7940414686915548e-04 +0.0000000000000000e+00 +9.9999996096666066e-01
5.0999999999999899e+00 +8.5382808632594234e+00 +0.0000000000000000e+00 +5.0999999323814400e+00 -2.8217647964110329e-04 +0.0000000000000000e+00 +9.9999996018821646e-01
5.1499999999999897e+00 +8.5382666851238191e+00 +0.0000000000000000e+00 +5.1499999303712283e+00 -2.8494897106096703e-04 +0.0000000000000000e+00 +9.9999995940204123e-01
5.1999999999999895e+00 +8.5382523683596592e+00 +0.0000000000000000e+00 +5.1999999283215148e+00 -2.8772162201611023e-04 +0.0000000000000000e+00 +9.9999995860813340e-01
5.2499999999999893e+00 +8.5382379129589445e+00 +0.0000000000000000e+00 +5.2499999262319124e+00 -2.9049443337985617e-04 +0.0000000000000000e+00 +9.9999995780649131e-01
5.2999999999999892e+00 +8.5382233189136336e+00 +0.0000000000000000e+00 +5.2999999241020346e+00 -2.9326740601148788e-04 +0.0000000000000000e+00 +9.9999995699711353e-01
5.3499999999999890e+00 +8.5382085862156423e+00 +0.0000000000000000e+00 +5.3499999219314942e+00 -2.9604054075624812e-04 +0.0000000000000000e+00 +9.9999995617999837e-01
5.3999999999999888e+00 +8.5381937148568436e+00 +0.0000000000000000e+00 +5.3999999197199049e+00 -2.9881383844533929e-04 +0.0000000000000000e+00 +9.9999995535514419e-01
5.4499999999999886e+00 +8.5381787048290683e+00 +0.0000000000000000e+00 +5.4499999174668794e+00 -3.0158729989592349e-04 +0.0000000000000000e+00 +9.9999995452254942e-01
5.4999999999999885e+00 +8.5381635561241112e+00 +0.0000000000000000e+00 +5.4999999151720305e+00 -3.0436092591112245e-04 +0.0000000000000000e+00 +9.9999995368221251e-01
5.5499999999999883e+00 +8.5381482687337211e+00 +0.0000000000000000e+00 +5.5499999128349717e+00 -3.0713471728001748e-04 +0.0000000000000000e+00 +9.9999995283413179e-01
5.5999999999999881e+00 +8.5381328426496133e+00 +0.0000000000000000e+00 +5.5999999104553151e+00 -3.0990867477764946e-04 +0.0000000000000000e+00 +9.9999995197830571e-01
5.6499999999999879e+00 +8.5381172778634618e+00 +0.0000000000000000e+00 +5.6499999080326733e+00 -3.1268279916501883e-04 +0.0000000000000000e+00 +9.9999995111473261e-01
5.6999999999999877e+00 +8.5381015743669035e+00 +0.0000000000000000e+00 +5.6999999055666590e+00 -3.1545709118908552e-04 +0.0000000000000000e+00 +9.9999995024341082e-01
5.7499999999999876e+00 +8.5380857321515364e+00 +0.0000000000000000e+00 +5.7499999030568851e+00 -3.1823155158276897e-04 +0.0000000000000000e+00 +9.9999994936433878e-01
5.7999999999999874e+00 +8.5380697512089263e+00 +0.0000000000000000e+00 +5.7999999005029634e+00 -3.2100618106494801e-04 +0.0000000000000000e+00 +9.9999994847751483e-01
5.8499999999999872e+00 +8.5380536315305999e+00 +0.0000000000000000e+00 +5.8499998979045067e+00 -3.2378098034046079e-04 +0.0000000000000000e+00 +9.9999994758293731e-01
5.8999999999999870e+00 +8.5380373731080503e+00 +0.0000000000000000e+00 +5.8999998952611277e+00 -3.2655595010010495e-04 +0.0000000000000000e+00 +9.9999994668060466e-01
