# multipoles
# s[mm] polynom_b[n=0][T/m^n] polynom_b[n=1][T/m^n] polynom_b[n=2][T/m^n] polynom_b[n=3][T/m^n] polynom_b[n=4][T/m^n] polynom_b[n=5][T/m^n] polynom_b[n=6][T/m^n] 
+0.0000000000000000e+00 -5.5312307720449971e-01 +7.2560443562032049e+00 +5.0243199528360813e+00 +9.2142575561393613e+01 +2.2885319161345724e+04 -9.4906607619542198e+05 -1.5419467679504615e+08 
+5.0000000000000003e-02 -5.5312482165030441e-01 +7.2560657361519274e+00 +5.0203279737954718e+00 +9.2192198801195161e+01 +2.2962895392001821e+04 -9.4946890813662764e+05 -1.5465054529171640e+08 
+1.0000000000000001e-01 -5.5312694823427822e-01 +7.2561099143239716e+00 +5.0159300147674468e+00 +9.2177448443421383e+01 +2.3037697049027411e+04 -9.4939319186660368e+05 -1.5508564368386239e+08 
+1.5000000000000002e-01 -5.5312945622372156e-01 +7.2561767814242941e+00 +5.0111324631010099e+00 +9.2100029258250032e+01 +2.3109693251090324e+04 -9.4885103335486073e+05 -1.5549998450906754e+08 
+2.0000000000000001e-01 -5.5313234488594354e-01 +7.2562662281580632e+00 +5.0059417043034724e+00 +9.1961646033064170e+01 +2.3178853170165796e+04 -9.4785453869778535e+05 -1.5589358068189016e+08 
+2.5000000000000000e-01 -5.5313561348828222e-01 +7.2563781452300615e+00 +5.0003641261967848e+00 +9.1764003606683303e+01 +2.3245145914308632e+04 -9.4641581444605999e+05 -1.5626644468311223e+08 
+2.9999999999999999e-01 -5.5313926129808288e-01 +7.2565124233470373e+00 +4.9944061138927660e+00 +9.1508806760399708e+01 +2.3308540670597326e+04 -9.4454696665888827e+05 -1.5661858954681587e+08 
+3.4999999999999998e-01 -5.5314328758272302e-01 +7.2566689532170932e+00 +4.9880740560748347e+00 +9.1197760259263163e+01 +2.3369006524952078e+04 -9.4226010129631753e+05 -1.5695002761347613e+08 
+3.9999999999999997e-01 -5.5314769160958976e-01 +7.2568476255474534e+00 +4.9813743391873775e+00 +9.0832568926936446e+01 +2.3426512629138131e+04 -9.3956732478709996e+05 -1.5726077168594432e+08 
+4.4999999999999996e-01 -5.5315247264609291e-01 +7.2570483310470832e+00 +4.9743133503790515e+00 +9.0414937548671787e+01 +2.3481028118131930e+04 -9.3648074325661652e+05 -1.5755083446279952e+08 
+4.9999999999999994e-01 -5.5315762995966378e-01 +7.2572709604252204e+00 +4.9668974782596615e+00 +8.9946570928858421e+01 +2.3532522084131528e+04 -9.3301246301007865e+05 -1.5782022834741628e+08 
+5.4999999999999993e-01 -5.5316316281775046e-01 +7.2575154043887453e+00 +4.9591331105080014e+00 +8.9429173994150915e+01 +2.3580963650044410e+04 -9.2917459133599210e+05 -1.5806896596838877e+08 
+5.9999999999999998e-01 -5.5316907048780561e-01 +7.2577815536497843e+00 +4.9510266333803914e+00 +8.8864451482308908e+01 +2.3626321971159283e+04 -9.2497923397824203e+05 -1.5829706015461031e+08 
+6.5000000000000002e-01 -5.5317535223733350e-01 +7.2580692989196853e+00 +4.9425844382420880e+00 +8.8254108196702347e+01 +2.3668566074712890e+04 -9.2043849723749701e+05 -1.5850452290654188e+08 
+7.0000000000000007e-01 -5.5318200733382139e-01 +7.2583785309078133e+00 +4.9338129107602802e+00 +8.7599849038754115e+01 +2.3707665138135948e+04 -9.1556448818690644e+05 -1.5869136722856057e+08 
+7.5000000000000011e-01 -5.5318903504479455e-01 +7.2587091403266601e+00 +4.9247184407154272e+00 +8.6903378818903988e+01 +2.3743588224279432e+04 -9.1036931318541965e+05 -1.5885760533569691e+08 
+8.0000000000000016e-01 -5.5319643463778745e-01 +7.2590610178874888e+00 +4.9153074158108785e+00 +8.6166402418324367e+01 +2.3776304461388947e+04 -9.0486507916072034e+05 -1.5900324992568427e+08 
+8.5000000000000020e-01 -5.5320420538034920e-01 +7.2594340543037967e+00 +4.9055862237215777e+00 +8.5390624653573951e+01 +2.3805782972840589e+04 -8.9906389249735186e+05 -1.5912831363958442e+08 
+9.0000000000000024e-01 -5.5321234654006368e-01 +7.2598281402881923e+00 +4.8955612549314713e+00 +8.4577750395798205e+01 +2.3831992810386837e+04 -8.9297786000970250e+05 -1.5923280865154386e+08 
+9.5000000000000029e-01 -5.5322085738451643e-01 +7.2602431665524856e+00 +4.8852388980304875e+00 +8.3729484587745489e+01 +2.3854903071506185e+04 -8.8661908914669079e+05 -1.5931674742705554e+08 
+1.0000000000000002e+00 -5.5322973718131330e-01 +7.2606790238115364e+00 +4.8746255414211612e+00 +8.2847532053170980e+01 +2.3874482865540922e+04 -8.7999968629899085e+05 -1.5938014253780273e+08 
+1.0500000000000003e+00 -5.5323898519807402e-01 +7.2611356027799605e+00 +4.8637275733374761e+00 +8.1933597666175160e+01 +2.3890701302985068e+04 -8.7313175833683286e+05 -1.5942300654819706e+08 
+1.1000000000000003e+00 -5.5324860070244186e-01 +7.2616127941709525e+00 +4.8525513833821199e+00 +8.0989386372710555e+01 +2.3903527457361299e+04 -8.6602741266233230e+05 -1.5944535177737248e+08 
+1.1500000000000004e+00 -5.5325858296206931e-01 +7.2621104886997605e+00 +4.8411033596186099e+00 +8.0016603056106419e+01 +2.3912930448961983e+04 -8.5869875616341620e+05 -1.5944719088062832e+08 
+1.2000000000000004e+00 -5.5326893124463994e-01 +7.2626285770824186e+00 +4.8293898930508625e+00 +7.9016952594648302e+01 +2.3918879310318862e+04 -8.5115789568378089e+05 -1.5942853588404104e+08 
+1.2500000000000004e+00 -5.5327964481784231e-01 +7.2631669500311054e+00 +4.8174173725274914e+00 +7.7992140041421692e+01 +2.3921343137839496e+04 -8.4341693947697454e+05 -1.5938939927418125e+08 
+1.3000000000000005e+00 -5.5329072294936721e-01 +7.2637254982647574e+00 +4.8051921844343823e+00 +7.6943870195006284e+01 +2.3920291093248132e+04 -8.3548799369513558e+05 -1.5932979397091681e+08 
+1.3500000000000005e+00 -5.5330216490694872e-01 +7.2643041124965126e+00 +4.7927207199284361e+00 +7.5873848114576347e+01 +2.3915692209825629e+04 -8.2738316662982292e+05 -1.5924973202842891e+08 
+1.4000000000000006e+00 -5.5331396995831517e-01 +7.2649026834443022e+00 +4.7800093668396402e+00 +7.4783778679609654e+01 +2.3907515605843004e+04 -8.1911456505808653e+05 -1.5914922605802268e+08 
+1.4500000000000006e+00 -5.5332613737122727e-01 +7.2655211018237313e+00 +4.7670645151085145e+00 +7.3675366888743582e+01 +2.3895730349575340e+04 -8.1069429674651241e+05 -1.5902828835869288e+08 
+1.5000000000000007e+00 -5.5333866641345497e-01 +7.2661592583505357e+00 +4.7538925543288482e+00 +7.2550317745808186e+01 +2.3880305512872677e+04 -8.0213446944466454e+05 -1.5888693123444259e+08 
+1.5500000000000007e+00 -5.5335155635276834e-01 +7.2668170437424902e+00 +4.7404998708910977e+00 +7.1410336196042280e+01 +2.3861210254099253e+04 -7.9344719042429351e+05 -1.5872516756963032e+08 
+1.6000000000000008e+00 -5.5336480645698338e-01 +7.2674943487145010e+00 +4.7268928565661064e+00 +7.0257127320066857e+01 +2.3838413589697528e+04 -7.8464456805412192e+05 -1.5854300930621064e+08 
+1.6500000000000008e+00 -5.5337841599389559e-01 +7.2681910639834948e+00 +4.7130778971901366e+00 +6.9092396130906366e+01 +2.3811884690316620e+04 -7.7573871011548152e+05 -1.5834046940414003e+08 
+1.7000000000000008e+00 -5.5339238423134773e-01 +7.2689070802697984e+00 +4.6990613843474618e+00 +6.7917847520451346e+01 +2.3781592570185137e+04 -7.6674172336459334e+05 -1.5811755976205993e+08 
+1.7500000000000009e+00 -5.5340671043716805e-01 +7.2696422882871303e+00 +4.6848497031459582e+00 +6.6735186675480904e+01 +2.3747506428063356e+04 -7.5766571699886105e+05 -1.5787429355880904e+08 
+1.8000000000000009e+00 -5.5342139387921974e-01 +7.2703965787526412e+00 +4.6704492440696423e+00 +6.5546118637606440e+01 +2.3709595301699657e+04 -7.4852279890608881e+05 -1.5761068283081469e+08 
+1.8500000000000010e+00 -5.5343643382538987e-01 +7.2711698423852411e+00 +4.6558663976727352e+00 +6.4352348415946338e+01 +2.3667828237022983e+04 -7.3932507677907834e+05 -1.5732673970169267e+08 
+1.9000000000000010e+00 -5.5345182954353711e-01 +7.2719619699023221e+00 +4.6411075477655102e+00 +6.3155581080445614e+01 +2.3622174455377124e+04 -7.3008465871640621e+05 -1.5702247745871136e+08 
+1.9500000000000011e+00 -5.5346758030157728e-01 +7.2727728520175017e+00 +4.6261790850866982e+00 +6.1957521875806883e+01 +2.3572602993986056e+04 -7.2081365424388344e+05 -1.5669790815444008e+08 
+2.0000000000000009e+00 -5.5348368536741654e-01 +7.2736023794525835e+00 +4.6110873966476147e+00 +6.0759875728624550e+01 +2.3519082985127094e+04 -7.1152417025062547e+05 -1.5635304446176469e+08 
+2.0500000000000007e+00 -5.5350014377086021e-01 +7.2744504308953148e+00 +4.5958369200833875e+00 +5.9564254447848917e+01 +2.3461626880038511e+04 -7.0222766645797458e+05 -1.5598813042325580e+08 
+2.1000000000000005e+00 -5.5351695358921482e-01 +7.2753168311949015e+00 +4.5804246244440101e+00 +5.8371897009337275e+01 +2.3400423145897668e+04 -6.9293311567437754e+05 -1.5560435428806180e+08 
+2.1500000000000004e+00 -5.5353411266162444e-01 +7.2762013903067899e+00 +4.5648456979520544e+00 +5.7183948748503127e+01 +2.3335705069925236e+04 -6.8364889761429024e+05 -1.5520314568223095e+08 
+2.2000000000000002e+00 -5.5355161882728732e-01 +7.2771039181829433e+00 +4.5490953358505779e+00 +5.6001555166284398e+01 +2.3267705757839823e+04 -6.7438339340335899e+05 -1.5478593303920010e+08 
+2.2500000000000000e+00 -5.5356946992537792e-01 +7.2780242247802835e+00 +4.5331687272403567e+00 +5.4825861549725460e+01 +2.3196658475511882e+04 -6.6514498231122911e+05 -1.5435414584652358e+08 
+2.2999999999999998e+00 -5.5358766379509938e-01 +7.2789621200526957e+00 +4.5170610641329079e+00 +5.3658013343247767e+01 +2.3122796413069871e+04 -6.5594204497991875e+05 -1.5390921309579641e+08 
+2.3499999999999996e+00 -5.5360619827565805e-01 +7.2799174139592067e+00 +4.5007675374694660e+00 +5.2499155765332318e+01 +2.3046352783291855e+04 -6.4678296006561886e+05 -1.5345256390369871e+08 
+2.3999999999999995e+00 -5.5362507120627291e-01 +7.2808899164516676e+00 +4.4842833380346319e+00 +5.1350434363489093e+01 +2.2967560807056921e+04 -6.3767610903037013e+05 -1.5298562745735160e+08 
+2.4499999999999993e+00 -5.5364428042615843e-01 +7.2818794374896720e+00 +4.4676036542343605e+00 +5.0212994353221873e+01 +2.2886653765810508e+04 -6.2862987048362615e+05 -1.5250983334070459e+08 
+2.4999999999999991e+00 -5.5366382377457724e-01 +7.2828857870300387e+00 +4.4507236808791282e+00 +4.9087981093260005e+01 +2.2803864768130912e+04 -6.1965262429562083e+05 -1.5202660996580955e+08 
+2.5499999999999989e+00 -5.5368369909075976e-01 +7.2839087750303211e+00 +4.4336386056576300e+00 +4.7976539893153920e+01 +2.2719427111002522e+04 -6.1075274980114936e+05 -1.5153738700663155e+08 
+2.5999999999999988e+00 -5.5370390421396365e-01 +7.2849482114458128e+00 +4.4163436189379404e+00 +4.6879816190496754e+01 +2.2633574019021122e+04 -6.0193862748461834e+05 -1.5104359364250067e+08 
+2.6499999999999986e+00 -5.5372443698345009e-01 +7.2860039062382791e+00 +4.3988339099561902e+00 +4.5798955143328790e+01 +2.2546538749760497e+04 -5.9321863543750998e+05 -1.5054665928971151e+08 
+2.6999999999999984e+00 -5.5374529523849225e-01 +7.2870756693651675e+00 +4.3811046685101074e+00 +4.4735102106560497e+01 +2.2458554539247256e+04 -5.8460115340593981e+05 -1.5004801318961897e+08 
+2.7499999999999982e+00 -5.5376647681837232e-01 +7.2881633107847348e+00 +4.3631510845164598e+00 +4.3689402394863919e+01 +2.2369854620030808e+04 -5.7609456073664722e+05 -1.4954908456202027e+08 
+2.7999999999999980e+00 -5.5378797956238301e-01 +7.2892666404572575e+00 +4.3449683479420749e+00 +4.2663001244152163e+01 +2.2280672221302011e+04 -5.6770723611915717e+05 -1.4905130259219518e+08 
+2.8499999999999979e+00 -5.5380980130980517e-01 +7.2903854683427198e+00 +4.3265516451059973e+00 +4.1657043919578669e+01 +2.2191240671554224e+04 -5.5944755850466480e+05 -1.4855609714218414e+08 
+2.8999999999999977e+00 -5.5383193989995627e-01 +7.2915196044022830e+00 +4.3078961670581899e+00 +4.0672675631870966e+01 +2.2101793170169680e+04 -5.5132390634829842e+05 -1.4806489719453636e+08 
+2.9499999999999975e+00 -5.5385439317213314e-01 +7.2926688585949941e+00 +4.2889970999453553e+00 +3.9711041682685234e+01 +2.2012563044462691e+04 -5.4334465884173429e+05 -1.4757913257613504e+08 
+2.9999999999999973e+00 -5.5387715896565781e-01 +7.2938330408843024e+00 +4.2698496330668121e+00 +3.8773287195955334e+01 +2.1923783535839935e+04 -5.3551819369771378e+05 -1.4710023253364336e+08 
+3.0499999999999972e+00 -5.5390023511986086e-01 +7.2950119612326150e+00 +4.2504489555281406e+00 +3.7860557338110311e+01 +2.1835687889978777e+04 -5.2785288894720410e+05 -1.4662962633518952e+08 
+3.0999999999999970e+00 -5.5392361947405344e-01 +7.2962054295981007e+00 +4.2307902516706957e+00 +3.6973997455354045e+01 +2.1748509480167897e+04 -5.2035712410339765e+05 -1.4616874410729930e+08 
+3.1499999999999968e+00 -5.5394730986757601e-01 +7.2974132559489604e+00 +4.2108687100483593e+00 +3.6114752479854694e+01 +2.1662481561221317e+04 -5.1303927524380444e+05 -1.4571901515862688e+08 
+3.1999999999999966e+00 -5.5397130413978091e-01 +7.2986352502469920e+00 +4.1906795193697191e+00 +3.5283967606429115e+01 +2.1577837385702405e+04 -5.0590772058781330e+05 -1.4528186878521943e+08 
+3.2499999999999964e+00 -5.5399560012999116e-01 +7.2998712224537847e+00 +4.1702178625972826e+00 +3.4482788036013240e+01 +2.1494810356744954e+04 -4.9897083838040824e+05 -1.4485873528660884e+08 
+3.2999999999999963e+00 -5.5402019567757343e-01 +7.3011209825353056e+00 +4.1494789286584677e+00 +3.3712358795818702e+01 +2.1413633716754030e+04 -4.9223700543808599e+05 -1.4445104387413841e+08 
+3.3499999999999961e+00 -5.5404508862187862e-01 +7.3023843404570092e+00 +4.1284579030515616e+00 +3.2973824924271952e+01 +2.1334540794513152e+04 -4.8571459862564597e+05 -1.4406022431673038e+08 
+3.3999999999999959e+00 -5.5407027680226451e-01 +7.3036611061825694e+00 +4.1071499708517960e+00 +3.2268331533549166e+01 +2.1257764934531522e+04 -4.7941199540680076e+05 -1.4368770650920573e+08 
+3.4499999999999957e+00 -5.5409575805809519e-01 +7.3049510896794612e+00 +4.0855503175047438e+00 +3.1597023585319750e+01 +2.1183539463664314e+04 -4.7333757201311638e+05 -1.4333492019235054e+08 
+3.4999999999999956e+00 -5.5412153022872790e-01 +7.3062541009139341e+00 +4.0636541262135442e+00 +3.0961046075728067e+01 +2.1112097769399170e+04 -4.6749970490342163e+05 -1.4300329551846793e+08 
+3.5499999999999954e+00 -5.5414759115354517e-01 +7.3075699498529216e+00 +4.0414565834569460e+00 +3.0361543973682050e+01 +2.1043673149367311e+04 -4.6190677029802848e+05 -1.4269426202559513e+08 
+3.5999999999999952e+00 -5.5417393867192022e-01 +7.3088984464614564e+00 +4.0189528731484954e+00 +2.9799662322850985e+01 +2.0978498967938380e+04 -4.5656714502401865e+05 -1.4240924969138992e+08 
+3.6499999999999950e+00 -5.5420057062321948e-01 +7.3102394007112981e+00 +3.9961381773839548e+00 +2.9276545885162008e+01 +2.0916808634190536e+04 -4.5148920356854826e+05 -1.4214968877878350e+08 
+3.6999999999999948e+00 -5.5422748484683360e-01 +7.3115926225679928e+00 +3.9730076812942032e+00 +2.8793339680065603e+01 +2.0858835474547741e+04 -4.4668132255036535e+05 -1.4191700898588258e+08 
+3.7499999999999947e+00 -5.5425467918214699e-01 +7.3129579220031236e+00 +3.9495565680913209e+00 +2.8351188453540217e+01 +2.0804812867011908e+04 -4.4215187623661576e+05 -1.4171264035949013e+08 
+3.7999999999999945e+00 -5.5428215146852100e-01 +7.3143351089857829e+00 +3.9257800161844743e+00 +2.7951237066561021e+01 +2.0754974316335461e+04 -4.3790923990141094e+05 -1.4153801379069456e+08 
+3.8499999999999943e+00 -5.5430989954536647e-01 +7.3157239934844140e+00 +3.9016732124637001e+00 +2.7594630390343365e+01 +2.0709553089057383e+04 -4.3396178884441452e+05 -1.4139455852195823e+08 
+3.8999999999999941e+00 -5.5433792125206016e-01 +7.3171243854700991e+00 +3.8772313363194910e+00 +2.7282513179995863e+01 +2.0668782661497837e+04 -4.3031789739102963e+05 -1.4128370524200872e+08 
+3.9499999999999940e+00 -5.5436621442799627e-01 +7.3185360949174338e+00 +3.8524495698694312e+00 +2.7016030042161155e+01 +2.0632896428833665e+04 -4.2698593864277238e+05 -1.4120688405931625e+08 
+3.9999999999999938e+00 -5.5439477691255101e-01 +7.3199589317936518e+00 +3.8273230917124459e+00 +2.6796325877479482e+01 +2.0602127878037492e+04 -4.2397428808481793e+05 -1.4116552568921155e+08 
+4.0499999999999936e+00 -5.5442360643282762e-01 +7.3213927133509493e+00 +3.8018492875173662e+00 +2.6624115370942718e+01 +2.0576639436681260e+04 -4.2128826445916772e+05 -1.4116058237131795e+08 
+4.0999999999999934e+00 -5.5445270026819260e-01 +7.3228372777220878e+00 +3.7760343228537270e+00 +2.6498474033315862e+01 +2.0556323381003749e+04 -4.1892145581216854e+05 -1.4119119354169625e+08 
+4.1499999999999932e+00 -5.5448205558654307e-01 +7.3242924662415607e+00 +3.7498865942483897e+00 +2.6418084941306315e+01 +2.0541007140415171e+04 -4.1686462793781498e+05 -1.4125606522789422e+08 
+4.1999999999999931e+00 -5.5451166955575293e-01 +7.3257581202451316e+00 +3.7234144942034679e+00 +2.6381631120842428e+01 +2.0530518253643157e+04 -4.1510854632934887e+05 -1.4135390419192967e+08 
+4.2499999999999929e+00 -5.5454153934370343e-01 +7.3272340810665035e+00 +3.6966264160076494e+00 +2.6387795674639488e+01 +2.0524684240977676e+04 -4.1364397710082651e+05 -1.4148341708418798e+08 
+4.2999999999999927e+00 -5.5457166211827547e-01 +7.3287201900421213e+00 +3.6695307526497727e+00 +2.6435261618261134e+01 +2.0523332628810564e+04 -4.1246168577126053e+05 -1.4164331058362165e+08 
+4.3499999999999925e+00 -5.5460203504736261e-01 +7.3302162885067661e+00 +3.6421358993237072e+00 +2.6522712016866436e+01 +2.0526290887545867e+04 -4.1155243822375569e+05 -1.4183229101233253e+08 
+4.3999999999999924e+00 -5.5463265529885286e-01 +7.3317222177933772e+00 +3.6144502499995870e+00 +2.6648830032328391e+01 +2.0533386517914711e+04 -4.1090700124097022e+05 -1.4204906488143101e+08 
+4.4499999999999922e+00 -5.5466352004063124e-01 +7.3332378192395602e+00 +3.5864821983966682e+00 +2.6812298626538688e+01 +2.0544447029144176e+04 -4.1051613995965908e+05 -1.4229233877117804e+08 
+4.4999999999999920e+00 -5.5469462644059386e-01 +7.3347629341770544e+00 +3.5582401395296896e+00 +2.7011801015707828e+01 +2.0559299899704496e+04 -4.1037062169497029e+05 -1.4256081906774351e+08 
+4.5499999999999918e+00 -5.5472597166662851e-01 +7.3362974039433757e+00 +3.5297324675834534e+00 +2.7246020176618778e+01 +2.0577772626288373e+04 -4.1046121181485453e+05 -1.4285321226748377e+08 
+4.5999999999999917e+00 -5.5475755288662643e-01 +7.3378410698695671e+00 +3.5009675773056159e+00 +2.7513639360616168e+01 +2.0599692692265027e+04 -4.1077867801443511e+05 -1.4316822478346458e+08 
+4.6499999999999915e+00 -5.5478936726848671e-01 +7.3393937732916914e+00 +3.4719538647643553e+00 +2.7813341614901741e+01 +2.0624887547131428e+04 -4.1131378635952855e+05 -1.4350456280594420e+08 
+4.6999999999999913e+00 -5.5482141198009438e-01 +7.3409553555444669e+00 +3.4426997236974843e+00 +2.8143810044142629e+01 +2.0653184706236236e+04 -4.1205730343309371e+05 -1.4386093298563781e+08 
+4.7499999999999911e+00 -5.5485368418935854e-01 +7.3425256579614357e+00 +3.4132135526478899e+00 +2.8503727803387353e+01 +2.0684411552294110e+04 -4.1299999628274556e+05 -1.4423604106527284e+08 
+4.7999999999999909e+00 -5.5488618106414800e-01 +7.3441045218754892e+00 +3.3835037426801580e+00 +2.8891778081839369e+01 +2.0718395675099538e+04 -4.1413263231497537e+05 -1.4462859420593822e+08 
+4.8499999999999908e+00 -5.5491889977237041e-01 +7.3456917886204529e+00 +3.3535786928285432e+00 +2.9306644032231336e+01 +2.0754964444439731e+04 -4.1544597868254723e+05 -1.4503729806628147e+08 
+4.8999999999999906e+00 -5.5495183748191823e-01 +7.3472872995317289e+00 +3.3234467991088974e+00 +2.9747008742533641e+01 +2.0793945319056347e+04 -4.1693080205634137e+05 -1.4546085893479764e+08 
+4.9499999999999904e+00 -5.5498499136068302e-01 +7.3488908959393449e+00 +3.2931164582410606e+00 +3.0211555528796634e+01 +2.0835165735421560e+04 -4.1857787106076581e+05 -1.4589798293838161e+08 
+4.9999999999999902e+00 -5.5501835857654924e-01 +7.3505024191795760e+00 +3.2625960658634510e+00 +3.0698967449386608e+01 +2.0878453162358139e+04 -4.2037795225485897e+05 -1.4634737643497434e+08 
+5.0499999999999901e+00 -5.5505193629740601e-01 +7.3521217105844707e+00 +3.2318940187487777e+00 +3.1207927742296278e+01 +2.0923635041006557e+04 -4.2232181374114275e+05 -1.4680774560826764e+08 
