# multipoles
# s[mm] polynom_b[n=0][T/m^n] polynom_b[n=1][T/m^n] polynom_b[n=2][T/m^n] polynom_b[n=3][T/m^n] polynom_b[n=4][T/m^n] polynom_b[n=5][T/m^n] polynom_b[n=6][T/m^n] 
+0.0000000000000000e+00 -5.2258943329858698e-01 +6.8495549985758952e+00 +6.0501698857250004e+00 -1.9981835021836255e+02 -3.6167159916043947e+03 +1.0863470913227510e+06 +5.1474488060757127e+06 
+5.0000000000000003e-02 -5.2258796392245410e-01 +6.8495444517867172e+00 +6.0504048066931908e+00 -1.9970756500639220e+02 -3.6267568738998375e+03 +1.0863385259641912e+06 +5.1612077657334413e+06 
+1.0000000000000001e-01 -5.2258687629609335e-01 +6.8495552457626712e+00 +6.0501612888984893e+00 -1.9961116251168281e+02 -3.6374341241773618e+03 +1.0864555543738795e+06 +5.1804683537119087e+06 
+1.4999999999999999e-01 -5.2258616961424753e-01 +6.8495872884478475e+00 +6.0494361640622571e+00 -1.9952799455936179e+02 -3.6486348238633832e+03 +1.0866898520809158e+06 +5.2045948284029150e+06 
+2.0000000000000001e-01 -5.2258584307175004e-01 +6.8496404877913788e+00 +6.0482262653469530e+00 -1.9945691314831862e+02 -3.6602460876606374e+03 +1.0870330960271566e+06 +5.2329516498252014e+06 
+2.5000000000000000e-01 -5.2258589586335158e-01 +6.8497147517394703e+00 +6.0465284260542580e+00 -1.9939677012187258e+02 -3.6721550376383775e+03 +1.0874769618863610e+06 +5.2649033415534422e+06 
+2.9999999999999999e-01 -5.2258632718388653e-01 +6.8498099882389143e+00 +6.0443394782898441e+00 -1.9934641731830141e+02 -3.6842487647405610e+03 +1.0880131252872285e+06 +5.2998142185705900e+06 
+3.4999999999999998e-01 -5.2258713622821595e-01 +6.8499261052410878e+00 +6.0416562554752211e+00 -1.9930470672845365e+02 -3.6964143917915762e+03 +1.0886332630889255e+06 +5.3370487974712588e+06 
+4.0000000000000002e-01 -5.2258832219113194e-01 +6.8500630106954929e+00 +6.0384755893751834e+00 -1.9927049022704813e+02 -3.7085389999516060e+03 +1.0893290511863001e+06 +5.3759713235702934e+06 
+4.5000000000000001e-01 -5.2258988426751707e-01 +6.8502206125504701e+00 +6.0347943114516722e+00 -1.9924261962007660e+02 -3.7205096610894452e+03 +1.0900921649277885e+06 +5.4159459726168606e+06 
+5.0000000000000000e-01 -5.2259182165226425e-01 +6.8503988187604961e+00 +6.0306092562576579e+00 -1.9921994691971204e+02 -3.7322135295957087e+03 +1.0909142813002181e+06 +5.4563374779131981e+06 
+5.5000000000000004e-01 -5.2259413354024720e-01 +6.8505975372776806e+00 +6.0259172566080652e+00 -1.9920132401985200e+02 -3.7435377151765592e+03 +1.0917870763608795e+06 +5.4965102741411636e+06 
+5.9999999999999998e-01 -5.2259681912643186e-01 +6.8508166760550058e+00 +6.0207151453375092e+00 -1.9918560280948122e+02 -3.7543693243732655e+03 +1.0927022260690294e+06 +5.5358287603036612e+06 
+6.5000000000000002e-01 -5.2259987760571724e-01 +6.8510561430448860e+00 +6.0149997543773415e+00 -1.9917163513002532e+02 -3.7645954490461313e+03 +1.0936514060297422e+06 +5.5736572744694790e+06 
+6.9999999999999996e-01 -5.2260330817303091e-01 +6.8513158462056127e+00 +6.0087679164971268e+00 -1.9915827302702237e+02 -3.7741031891481998e+03 +1.0946262934898140e+06 +5.6093601518871207e+06 
+7.5000000000000000e-01 -5.2260711002335336e-01 +6.8515956934907418e+00 +6.0020164635570934e+00 -1.9914436831579965e+02 -3.7827796347818339e+03 +1.0956185637715079e+06 +5.6423017171390215e+06 
+8.0000000000000004e-01 -5.2261128235167498e-01 +6.8518955928592575e+00 +5.9947422296239150e+00 -1.9912877301260266e+02 -3.7905119252431678e+03 +1.0966198938814728e+06 +5.6718465860322965e+06 
+8.4999999999999998e-01 -5.2261582435297893e-01 +6.8522154522666208e+00 +5.9869420454331461e+00 -1.9911033895396261e+02 -3.7971871185282357e+03 +1.0976219593192998e+06 +5.6973588593868557e+06 
+9.0000000000000002e-01 -5.2262073522229380e-01 +6.8525551796722945e+00 +5.9786127461999508e+00 -1.9908791810876838e+02 -3.8026923875944385e+03 +1.0986164366538464e+06 +5.7182033908645567e+06 
+9.4999999999999996e-01 -5.2262601415460130e-01 +6.8529146830378922e+00 +5.9697511612219847e+00 -1.9906036249446416e+02 -3.8069147505179626e+03 +1.0995950028226355e+06 +5.7337440027668020e+06 
+1.0000000000000000e+00 -5.2263166034500697e-01 +6.8532938703213651e+00 +5.9603541251493004e+00 -1.9902652397081056e+02 -3.8097413694600323e+03 +1.1005493335166306e+06 +5.7433454936815482e+06 
+1.0500000000000000e+00 -5.2263767298853081e-01 +6.8536926494852768e+00 +5.9504184680600840e+00 -1.9898525453310253e+02 -3.8110592830483042e+03 +1.1014711054608526e+06 +5.7463718249536790e+06 
+1.1000000000000001e+00 -5.2264405128023550e-01 +6.8541109284918047e+00 +5.9399410247018061e+00 -1.9893540613720828e+02 -3.8107556542090701e+03 +1.1023519950715883e+06 +5.7421877887500143e+06 
+1.1499999999999999e+00 -5.2265079441521700e-01 +6.8545486153044530e+00 +5.9289186244352665e+00 -1.9887583077132098e+02 -3.8087175060275272e+03 +1.1031836790288242e+06 +5.7301572563760681e+06 
+1.2000000000000000e+00 -5.2265790158858838e-01 +6.8550056178865146e+00 +5.9173481010915721e+00 -1.9880538038025426e+02 -3.8048319809821342e+03 +1.1039578336343179e+06 +5.7096449015431330e+06 
+1.2500000000000000e+00 -5.2266537199546426e-01 +6.8554818442035579e+00 +5.9052262861414802e+00 -1.9872290696648170e+02 -3.7989861562279907e+03 +1.1046661356266721e+06 +5.6800149449727274e+06 
+1.3000000000000000e+00 -5.2267320483097279e-01 +6.8559772022224745e+00 +5.8925500111083009e+00 -1.9862726256577588e+02 -3.7910671181713160e+03 +1.1053002620317771e+06 +5.6406317056674883e+06 
+1.3500000000000001e+00 -5.2268139929026225e-01 +6.8564915999088543e+00 +5.8793161076116309e+00 -1.9851729912611657e+02 -3.7809619483096626e+03 +1.1058518891203173e+06 +5.5908594385735653e+06 
+1.3999999999999999e+00 -5.2268995456846923e-01 +6.8570249452317489e+00 +5.8655214076297062e+00 -1.9839186871462130e+02 -3.7685577443101483e+03 +1.1063126941616195e+06 +5.5300625326686716e+06 
+1.4500000000000000e+00 -5.2269886986081515e-01 +6.8575771461597865e+00 +5.8511627420042780e+00 -1.9824982334604164e+02 -3.7537415716448158e+03 +1.1066743539289180e+06 +5.4576051533127232e+06 
+1.5000000000000000e+00 -5.2270814436244251e-01 +6.8581481106623770e+00 +5.8362369424994816e+00 -1.9809001503712216e+02 -3.7364005211871959e+03 +1.1069285452235765e+06 +5.3728516403234806e+06 
+1.5500000000000000e+00 -5.2271777726856550e-01 +6.8587377467107666e+00 +5.8207408381558281e+00 -1.9791129585718531e+02 -3.7164216157826281e+03 +1.1070669452552977e+06 +5.2751658948456682e+06 
+1.6000000000000001e+00 -5.2272776777441488e-01 +6.8593459622764952e+00 +5.8046712623639749e+00 -1.9771251786039264e+02 -3.6936919912356479e+03 +1.1070812311135095e+06 +5.1639125640941942e+06 
+1.6499999999999999e+00 -5.2273811507521672e-01 +6.8599726653325996e+00 +5.7880250453166182e+00 -1.9749253312929392e+02 -3.6680987044904709e+03 +1.1069630800760644e+06 +5.0384557936816430e+06 
+1.7000000000000000e+00 -5.2274881836620402e-01 +6.8606177638533801e+00 +5.7707990156658342e+00 -1.9725019377270365e+02 -3.6395287641283780e+03 +1.1067041696349171e+06 +4.8981593725663461e+06 
+1.7500000000000000e+00 -5.2275987684264802e-01 +6.8612811658122910e+00 +5.7529900064407480e+00 -1.9698435183587674e+02 -3.6078693048233954e+03 +1.1062961767293573e+06 +4.7423879769966630e+06 
+1.8000000000000000e+00 -5.2277128969978348e-01 +6.8619627791864044e+00 +5.7345948461654563e+00 -1.9669385948828491e+02 -3.5730073390201837e+03 +1.1057307793266440e+06 +4.5705054527418045e+06 
+1.8500000000000001e+00 -5.2278305613291720e-01 +6.8626625119511706e+00 +5.7156103646829788e+00 -1.9637756879855144e+02 -3.5348299169530478e+03 +1.1049996545003250e+06 +4.3818759110623421e+06 
+1.8999999999999999e+00 -5.2279517533737652e-01 +6.8633802720858466e+00 +5.6960333929435052e+00 -1.9603433197561051e+02 -3.4932241174822352e+03 +1.1040944805123315e+06 +4.1758636513978923e+06 
+1.9500000000000000e+00 -5.2280764650841827e-01 +6.8641159675676491e+00 +5.6758607602184377e+00 -1.9566300111032348e+02 -3.4480769778495323e+03 +1.1030069346114504e+06 +3.9518327083530240e+06 
+2.0000000000000000e+00 -5.2282046884138056e-01 +6.8648695063773939e+00 +5.6550892945983575e+00 -1.9526242841381386e+02 -3.3992755060609538e+03 +1.1017286950066159e+06 +3.7091469286919753e+06 
+2.0499999999999998e+00 -5.2283364134628885e-01 +6.8656407914350934e+00 +5.6337185435365562e+00 -1.9483182480505113e+02 -3.3467513262041257e+03 +1.1002539578828546e+06 +3.4474137132052910e+06 
+2.1000000000000001e+00 -5.2284716228962358e-01 +6.8664297065299200e+00 +5.6117587509388498e+00 -1.9437184806157205e+02 -3.2906075771106530e+03 +1.0985870941275202e+06 +3.1671650884554335e+06 
+2.1499999999999999e+00 -5.2286102975131366e-01 +6.8672361277026752e+00 +5.5892229965011389e+00 -1.9388352601534430e+02 -3.2309886226536473e+03 +1.0967350443496546e+06 +2.8691528969407440e+06 
+2.2000000000000002e+00 -5.2287524181138179e-01 +6.8680599309948134e+00 +5.5661243606166932e+00 -1.9336788653356439e+02 -3.1680388383899076e+03 +1.0947047494993743e+06 +2.5541290350485304e+06 
+2.2500000000000000e+00 -5.2288979654981438e-01 +6.8689009924483200e+00 +5.5424759194984601e+00 -1.9282595747947241e+02 -3.1019024839871749e+03 +1.0925031504589575e+06 +2.2228446030244939e+06 
+2.2999999999999998e+00 -5.2290469204666468e-01 +6.8697591881078601e+00 +5.5182907554522727e+00 -1.9225876681526199e+02 -3.0327239927779365e+03 +1.0901371889365443e+06 +1.8760519105334096e+06 
+2.3500000000000001e+00 -5.2291992638188478e-01 +6.8706343940145578e+00 +5.4935819434121527e+00 -1.9166734233950635e+02 -2.9606475901125177e+03 +1.0876138052936310e+06 +1.5145018273642519e+06 
+2.3999999999999999e+00 -5.2293549763555391e-01 +6.8715264862147629e+00 +5.4683625661208408e+00 -1.9105271205779263e+02 -2.8858177169355135e+03 +1.0849399416107910e+06 +1.1389466974335371e+06 
+2.4500000000000002e+00 -5.2295140388768169e-01 +6.8724353407493775e+00 +5.4426457009325455e+00 -1.9041590373934656e+02 -2.8083786684756146e+03 +1.0821225380317180e+06 +7.5013788015522214e+05 
+2.5000000000000000e+00 -5.2296764321837452e-01 +6.8733608336628951e+00 +5.4164444270444401e+00 -1.8975794528676852e+02 -2.7284747877896016e+03 +1.0791685357755830e+06 +3.4882704896073008e+05 
+2.5499999999999998e+00 -5.2298421370766601e-01 +6.8743028409994800e+00 +5.3897718222835600e+00 -1.8907986458035248e+02 -2.6462503807420430e+03 +1.0760848759136188e+06 -6.4234374138130857e+04 
+2.6000000000000001e+00 -5.2300111343563038e-01 +6.8752612388027012e+00 +5.3626409697307551e+00 -1.8838268946003350e+02 -2.5618498935332977e+03 +1.0728784991681937e+06 -4.8829402502757544e+05 
+2.6499999999999999e+00 -5.2301834048238260e-01 +6.8762359031170455e+00 +5.3350649450978169e+00 -1.8766744780405892e+02 -2.4754175772955191e+03 +1.0695563466047654e+06 -9.2260084389346140e+05 
+2.7000000000000002e+00 -5.2303589292797881e-01 +6.8772267099864601e+00 +5.3070568291418132e+00 -1.8693516745528427e+02 -2.3870978146023976e+03 +1.0661253590156140e+06 -1.3664028996593545e+06 
+2.7500000000000000e+00 -5.2305376885254773e-01 +6.8782335354551138e+00 +5.2786297011360146e+00 -1.8618687625560997e+02 -2.2970349508693494e+03 +1.0625924771619861e+06 -1.8189485043316896e+06 
+2.7999999999999998e+00 -5.2307196633623176e-01 +6.8792562555674968e+00 +5.2497966405465757e+00 -1.8542360205795759e+02 -2.2053733342589048e+03 +1.0589646419328914e+06 -2.2794859571803338e+06 
+2.8500000000000001e+00 -5.2309048345910381e-01 +6.8802947463655828e+00 +5.2205707264609336e+00 -1.8464637260110061e+02 -2.1122572998916935e+03 +1.0552487932852807e+06 -2.7472636617234820e+06 
+2.8999999999999999e+00 -5.2310931830133367e-01 +6.8813488838971635e+00 +5.1909650401911600e+00 -1.8385621586114360e+02 -2.0178312469194525e+03 +1.0514518731382249e+06 -3.2215295680526416e+06 
+2.9500000000000002e+00 -5.2312846894305287e-01 +6.8824185442027783e+00 +5.1609926594369053e+00 -1.8305415950913897e+02 -1.9222394739029421e+03 +1.0475808209126069e+06 -3.7015323236769857e+06 
+3.0000000000000000e+00 -5.2314793346442889e-01 +6.8835036033267016e+00 +5.1306666664625089e+00 -1.8224123136457084e+02 -1.8256264020933436e+03 +1.0436425772672670e+06 -4.1865197462301604e+06 
+3.0499999999999998e+00 -5.2316770994559181e-01 +6.8846039373140044e+00 +5.1000001397850507e+00 -1.8141845928421318e+02 -1.7281363495377368e+03 +1.0396440832021013e+06 -4.6757403586790692e+06 
+3.1000000000000001e+00 -5.2318779646675928e-01 +6.8857194222054368e+00 +5.0690061591649727e+00 -1.8058687093299289e+02 -1.6299136698567345e+03 +1.0355922781148767e+06 -5.1684424387391461e+06 
+3.1499999999999999e+00 -5.2320819110809669e-01 +6.8868499340449532e+00 +5.0376978070277465e+00 -1.7974749411411256e+02 -1.5311027887195221e+03 +1.0314941025818421e+06 -5.6638737756958473e+06 
+3.2000000000000002e+00 -5.2322889194978017e-01 +6.8879953488767285e+00 +5.0060881609948344e+00 -1.7890135663376864e+02 -1.4318479937027321e+03 +1.0273564972185228e+06 -6.1612831239971789e+06 
+3.2500000000000000e+00 -5.2324989707198910e-01 +6.8891555427415154e+00 +4.9741903034816541e+00 -1.7804948616874304e+02 -1.3322937092175737e+03 +1.0231864016319884e+06 -6.6599182867524642e+06 
+3.2999999999999998e+00 -5.2327120455495491e-01 +6.8903303916819345e+00 +4.9420173154074964e+00 -1.7719291045354154e+02 -1.2325843140270783e+03 +1.0189907558396603e+06 -7.1590273962205146e+06 
+3.3500000000000001e+00 -5.2329281247891013e-01 +6.8915197717399455e+00 +4.9095822765517454e+00 -1.7633265721538308e+02 -1.1328641556677856e+03 +1.0147764998900810e+06 -7.6578587946716454e+06 
+3.3999999999999999e+00 -5.2331471892402603e-01 +6.8927235589550921e+00 +4.8768982685169915e+00 -1.7546975407341921e+02 -1.0332776312686233e+03 +1.0105505729410539e+06 -8.1556604948614230e+06 
+3.4500000000000002e+00 -5.2333692197055826e-01 +6.8939416293709384e+00 +4.8439783727527157e+00 -1.7460522882146208e+02 -9.3396913168945696e+02 +1.0063199156173466e+06 -8.6516805532329604e+06 
+3.5000000000000000e+00 -5.2335941969874389e-01 +6.8951738590253049e+00 +4.8108356710010352e+00 -1.7374010901393532e+02 -8.3508305442011431e+02 +1.0020914665808084e+06 -9.1451669906893075e+06 
+3.5499999999999998e+00 -5.2338221018882103e-01 +6.8964201239606711e+00 +4.7774832437952979e+00 -1.7287542240718307e+02 -7.3676376006707983e+02 +9.9787216618883004e+05 -9.6353680941886716e+06 
+3.6000000000000001e+00 -5.2340529152106952e-01 +6.8976803002137643e+00 +4.7439341742282375e+00 -1.7201219652418158e+02 -6.3915568510949288e+02 +9.9366895290204254e+05 -1.0121531611852597e+07 
+3.6499999999999999e+00 -5.2342866177567027e-01 +6.8989542638239785e+00 +4.7102015437146756e+00 -1.7115145900193681e+02 -5.4240321053137382e+02 +9.8948876616197580e+05 -1.0602905705778865e+07 
+3.6999999999999900e+00 -5.2345231903295752e-01 +6.9002418908297214e+00 +4.6762984338588751e+00 -1.7029423744715055e+02 -4.4665072664763676e+02 +9.8533854516215599e+05 -1.1078738460129248e+07 
+3.7499999999999898e+00 -5.2347626137318215e-01 +6.9015430572682046e+00 +4.6422379278321113e+00 -1.6944155942099036e+02 -3.5204266138781776e+02 +9.8122522875681065e+05 -1.1548277722750736e+07 
+3.7999999999999901e+00 -5.2350048687658768e-01 +6.9028576391768164e+00 +4.6080331071005531e+00 -1.6859445249869717e+02 -2.5872339925733900e+02 +9.7715575594404549e+05 -1.2010771626764191e+07 
+3.8499999999999899e+00 -5.2352499362352078e-01 +6.9041855125915905e+00 +4.5736970565442006e+00 -1.6775394421402976e+02 -1.6683740927437944e+02 +9.7313706541076500e+05 -1.2465467762658974e+07 
+3.8999999999999901e+00 -5.2354977969420757e-01 +6.9055265535470562e+00 +4.5392428574044636e+00 -1.6692106204710652e+02 -7.6529069248279725e+01 +9.6917609544836590e+05 -1.2911614312308341e+07 
+3.9499999999999900e+00 -5.2357484316900593e-01 +6.9068806380772729e+00 +4.5046835945988803e+00 -1.6609683346292786e+02 +1.2057155594174633e+01 +9.6527978421059193e+05 -1.3348458909268226e+07 
+3.9999999999999898e+00 -5.2360018212815396e-01 +6.9082476422181607e+00 +4.4700323497732048e+00 -1.6528228602014840e+02 +9.8776882427167678e+01 +9.6145507073794177e+05 -1.3775249722958855e+07 
+4.0499999999999901e+00 -5.2362579452191638e-01 +6.9096274324334175e+00 +4.4353019664548672e+00 -1.6447822423401405e+02 +1.8348677162981687e+02 +9.5770717820440710e+05 -1.4191230777304029e+07 
+4.0999999999999899e+00 -5.2365167777970334e-01 +6.9110198299473513e+00 +4.4005047639616635e+00 -1.6368454595061147e+02 +2.6603931514786689e+02 +9.5403436012555182e+05 -1.4595562759296037e+07 
+4.1499999999999897e+00 -5.2367782920051054e-01 +6.9124246429127405e+00 +4.3656530723226386e+00 -1.6290091845997685e+02 +3.4628349951967323e+02 +9.5043309113457147e+05 -1.4987366185546799e+07 
+4.1999999999999904e+00 -5.2370424608348476e-01 +6.9138416794728341e+00 +4.3307592213376775e+00 -1.6212700868761928e+02 +4.2406831991006106e+02 +9.4689984282866388e+05 -1.5365761630910886e+07 
+4.2499999999999902e+00 -5.2373092572767477e-01 +6.9152707477790862e+00 +4.2958355402042097e+00 -1.6136248389743514e+02 +4.9924279388425509e+02 +9.4343108957560209e+05 -1.5729869840089796e+07 
+4.2999999999999901e+00 -5.2375786543215441e-01 +6.9167116559777222e+00 +4.2608943587326342e+00 -1.6060701114727996e+02 +5.7165591530964514e+02 +9.4002330404682236e+05 -1.6078811368202049e+07 
+4.3499999999999899e+00 -5.2378506249599177e-01 +6.9181642122136751e+00 +4.2259480053857876e+00 -1.5986025745858086e+02 +6.4115671662317891e+02 +9.3667295864265133e+05 -1.6411707036657559e+07 
+4.3999999999999897e+00 -5.2381251421824937e-01 +6.9196282246329650e+00 +4.1910088114273814e+00 -1.5912188991731250e+02 +7.0759415689084358e+02 +9.3337652633387467e+05 -1.6727677173025675e+07 
+4.4499999999999904e+00 -5.2384021789804114e-01 +6.9211035013770346e+00 +4.1560891041412678e+00 -1.5839157542168579e+02 +7.7081730319620078e+02 +9.3013047850483807e+05 -1.7025842837764621e+07 
+4.4999999999999902e+00 -5.2386817083441861e-01 +6.9225898505910113e+00 +4.1212012135423004e+00 -1.5766898104452224e+02 +8.3067514240763933e+02 +9.2693128802754811e+05 -1.7305324518761635e+07 
+4.5499999999999901e+00 -5.2389637032642966e-01 +6.9240870804165064e+00 +4.0863574683598021e+00 -1.5695377372132157e+02 +8.8701670218032746e+02 +9.2377542662739649e+05 -1.7565242999037027e+07 
+4.5999999999999899e+00 -5.2392481367317645e-01 +6.9255949989931445e+00 +4.0515701981377781e+00 -1.5624562032690233e+02 +9.3969098816957148e+02 +9.2065936556440557e+05 -1.7804718908946056e+07 
+4.6499999999999897e+00 -5.2395349817373138e-01 +6.9271134144595106e+00 +4.0168517319806414e+00 -1.5554418770580338e+02 +9.8854701402562728e+02 +9.1757957584066316e+05 -1.8022872913691949e+07 
+4.6999999999999904e+00 -5.2398242112719040e-01 +6.9286421349561795e+00 +3.9822143989670744e+00 -1.5484914280850418e+02 +1.0334337951613477e+03 +9.1453252937633428e+05 -1.8218825692980107e+07 
+4.7499999999999902e+00 -5.2401157983257307e-01 +6.9301809686186093e+00 +3.9476705276816775e+00 -1.5416015238050994e+02 +1.0742003644168942e+03 +9.1151469638075901e+05 -1.8391698054232378e+07 
+4.7999999999999901e+00 -5.2404097158897456e-01 +6.9317297235828965e+00 +3.9132324474716293e+00 -1.5347688322077059e+02 +1.1106957279430051e+03 +9.0852254753907316e+05 -1.8540610595262393e+07 
+4.8499999999999899e+00 -5.2407059369543463e-01 +6.9332882079856528e+00 +3.8789124866692455e+00 -1.5279900215957068e+02 +1.1427689244717283e+03 +9.0555255378398602e+05 -1.8664684152617566e+07 
+4.8999999999999897e+00 -5.2410044345109064e-01 +6.9348562299579966e+00 +3.8447229739661761e+00 -1.5212617583216863e+02 +1.1702689778916840e+03 +9.0260118448295712e+05 -1.8763039437202036e+07 
+4.9499999999999904e+00 -5.2413051815491729e-01 +6.9364335976323872e+00 +3.8106762401472549e+00 -1.5145807093444392e+02 +1.1930448600562675e+03 +8.9966490949364973e+05 -1.8834796819955412e+07 
+4.9999999999999902e+00 -5.2416081510603418e-01 +6.9380201191408517e+00 +3.7767846112608940e+00 -1.5079435417635946e+02 +1.2109456684294430e+03 +8.9674019881346647e+05 -1.8879077509453095e+07 
+5.0499999999999901e+00 -5.2419133160568698e-01 +6.9396155948130218e+00 +3.7430608270469525e+00 -1.5013470070789580e+02 +1.2238205084683971e+03 +8.9382352386605856e+05 -1.8895002373798538e+07 
