# field on trajectory
# s[mm] rx[mm] ry[mm] rz[mm] bx[T] by[T] bz[T]
-0.0000000000000000e+00 +8.5269999999999904e+00 +0.0000000000000000e+00 -0.0000000000000000e+00 -3.0787050966593399e-02 -5.7697466529628227e-01 +5.8488482093608180e-03
-5.0000000000000003e-02 +8.5269999309457507e+00 +0.0000000000000000e+00 -4.9999999999936401e-02 -3.0787343748695448e-02 -5.7697557059101401e-01 +5.8484299135409014e-03
-1.0000000000000001e-01 +8.5269997237883199e+00 +0.0000000000000000e+00 -9.9999999999491399e-02 -3.0787659902295109e-02 -5.7697689078435288e-01 +5.8480135058265291e-03
-1.4999999999999999e-01 +8.5269993785295792e+00 +0.0000000000000000e+00 -1.4999999999828301e-01 -3.0787999316551930e-02 -5.7697862506560460e-01 +5.8475989546517811e-03
-2.0000000000000001e-01 +8.5269988951622508e+00 +0.0000000000000000e+00 -1.9999999999593099e-01 -3.0788361880630003e-02 -5.7698077262416247e-01 +5.8471862284515137e-03
-2.5000000000000000e-01 +8.5269982736936107e+00 +0.0000000000000000e+00 -2.4999999999205300e-01 -3.0788747483688862e-02 -5.7698333264932811e-01 +5.8467752956594269e-03
-2.9999999999999999e-01 +8.5269975141200103e+00 +0.0000000000000000e+00 -2.9999999998626797e-01 -3.0789156014893206e-02 -5.7698630433050546e-01 +5.8463661247101515e-03
-3.4999999999999998e-01 +8.5269966164378292e+00 +0.0000000000000000e+00 -3.4999999997819298e-01 -3.0789587363408723e-02 -5.7698968685711483e-01 +5.8459586840383399e-03
-4.0000000000000002e-01 +8.5269955806543294e+00 +0.0000000000000000e+00 -3.9999999996744900e-01 -3.0790041418397952e-02 -5.7699347941851487e-01 +5.8455529420778016e-03
-4.5000000000000001e-01 +8.5269944067658798e+00 +0.0000000000000000e+00 -4.4999999995365297e-01 -3.0790518069028557e-02 -5.7699768120416317e-01 +5.8451488672632548e-03
-5.0000000000000000e-01 +8.5269930947724806e+00 +0.0000000000000000e+00 -4.9999999993642402e-01 -3.0791017204467808e-02 -5.7700229140350934e-01 +5.8447464280291638e-03
-5.5000000000000004e-01 +8.5269916446777607e+00 +0.0000000000000000e+00 -5.4999999991537996e-01 -3.0791538713882530e-02 -5.7700730920599275e-01 +5.8443455928097214e-03
-5.9999999999999998e-01 +8.5269900564744603e+00 +0.0000000000000000e+00 -5.9999999989013997e-01 -3.0792082486444706e-02 -5.7701273380115436e-01 +5.8439463300400422e-03
-6.5000000000000002e-01 +8.5269883301661995e+00 +0.0000000000000000e+00 -6.4999999986032297e-01 -3.0792648411323110e-02 -5.7701856437847043e-01 +5.8435486081543911e-03
-6.9999999999999996e-01 +8.5269864657566394e+00 +0.0000000000000000e+00 -6.9999999982554695e-01 -3.0793236377687414e-02 -5.7702480012743473e-01 +5.8431523955870517e-03
-7.5000000000000000e-01 +8.5269844632421208e+00 +0.0000000000000000e+00 -7.4999999978543097e-01 -3.0793846274711083e-02 -5.7703144023761421e-01 +5.8427576607729438e-03
-8.0000000000000004e-01 +8.5269823226226400e+00 +0.0000000000000000e+00 -7.9999999973959202e-01 -3.0794477991567093e-02 -5.7703848389856738e-01 +5.8423643721467119e-03
-8.4999999999999998e-01 +8.5269800438982202e+00 +0.0000000000000000e+00 -8.4999999968765005e-01 -3.0795131417429344e-02 -5.7704593029986873e-01 +5.8419724981430363e-03
-9.0000000000000002e-01 +8.5269776270688507e+00 +0.0000000000000000e+00 -8.9999999962922395e-01 -3.0795806441472628e-02 -5.7705377863111118e-01 +5.8415820071966197e-03
-9.4999999999999996e-01 +8.5269750721381605e+00 +0.0000000000000000e+00 -9.4999999956393100e-01 -3.0796502952871351e-02 -5.7706202808187912e-01 +5.8411928677419159e-03
-1.0000000000000000e+00 +8.5269723790988792e+00 +0.0000000000000000e+00 -9.9999999949139096e-01 -3.0797220840804919e-02 -5.7707067784185517e-01 +5.8408050482142799e-03
-1.0500000000000000e+00 +8.5269695479546499e+00 +0.0000000000000000e+00 -1.0499999994112199e+00 -3.0797959994449488e-02 -5.7707972710065869e-01 +5.8404185170482133e-03
-1.1000000000000001e+00 +8.5269665787091107e+00 +0.0000000000000000e+00 -1.0999999993230400e+00 -3.0798720302982113e-02 -5.7708917504792479e-01 +5.8400332426782478e-03
-1.1499999999999999e+00 +8.5269634713586093e+00 +0.0000000000000000e+00 -1.1499999992264700e+00 -3.0799501655583525e-02 -5.7709902087336251e-01 +5.8396491935395331e-03
-1.2000000000000000e+00 +8.5269602259031707e+00 +0.0000000000000000e+00 -1.1999999991211201e+00 -3.0800303941433946e-02 -5.7710926376667027e-01 +5.8392663380669599e-03
-1.2500000000000000e+00 +8.5269568423427700e+00 +0.0000000000000000e+00 -1.2499999990066200e+00 -3.0801127049714449e-02 -5.7711990291756377e-01 +5.8388846446954376e-03
-1.3000000000000000e+00 +8.5269533206774195e+00 +0.0000000000000000e+00 -1.2999999988825901e+00 -3.0801970869606995e-02 -5.7713093751577571e-01 +5.8385040818599090e-03
-1.3500000000000001e+00 +8.5269496609071194e+00 +0.0000000000000000e+00 -1.3499999987486300e+00 -3.0802835290294393e-02 -5.7714236675105646e-01 +5.8381246179953460e-03
-1.3999999999999999e+00 +8.5269458630355093e+00 +0.0000000000000000e+00 -1.3999999986043801e+00 -3.0803720200958930e-02 -5.7715418981314570e-01 +5.8377462215364485e-03
-1.4500000000000000e+00 +8.5269419270553009e+00 +0.0000000000000000e+00 -1.4499999984494401e+00 -3.0804625490787902e-02 -5.7716640589188273e-01 +5.8373688609188326e-03
-1.5000000000000000e+00 +8.5269378529737896e+00 +0.0000000000000000e+00 -1.4999999982834400e+00 -3.0805551048963865e-02 -5.7717901417701389e-01 +5.8369925045769584e-03
-1.5500000000000000e+00 +8.5269336407873197e+00 +0.0000000000000000e+00 -1.5499999981060000e+00 -3.0806496764674392e-02 -5.7719201385838470e-01 +5.8366171209462024e-03
-1.6000000000000001e+00 +8.5269292904959002e+00 +0.0000000000000000e+00 -1.5999999979167401e+00 -3.0807462527106529e-02 -5.7720540412583032e-01 +5.8362426784616716e-03
-1.6499999999999999e+00 +8.5269248020995292e+00 +0.0000000000000000e+00 -1.6499999977152600e+00 -3.0808448225448083e-02 -5.7721918416920248e-01 +5.8358691455584954e-03
-1.7000000000000000e+00 +8.5269201755982102e+00 +0.0000000000000000e+00 -1.6999999975011999e+00 -3.0809453748887695e-02 -5.7723335317836988e-01 +5.8354964906718329e-03
-1.7500000000000000e+00 +8.5269154109919292e+00 +0.0000000000000000e+00 -1.7499999972741700e+00 -3.0810478986614830e-02 -5.7724791034321765e-01 +5.8351246822368717e-03
-1.8000000000000000e+00 +8.5269105082843506e+00 +0.0000000000000000e+00 -1.7999999970337901e+00 -3.0811523827818311e-02 -5.7726285485361972e-01 +5.8347536886885201e-03
-1.8500000000000001e+00 +8.5269054674718099e+00 +0.0000000000000000e+00 -1.8499999967796801e+00 -3.0812588161690614e-02 -5.7727818589952273e-01 +5.8343834784623169e-03
-1.8999999999999999e+00 +8.5269002885506797e+00 +0.0000000000000000e+00 -1.8999999965114500e+00 -3.0813671877424915e-02 -5.7729390267088843e-01 +5.8340140199938141e-03
-1.9500000000000000e+00 +8.5268949715282396e+00 +0.0000000000000000e+00 -1.9499999962287300e+00 -3.0814774864211050e-02 -5.7731000435761304e-01 +5.8336452817177101e-03
-2.0000000000000000e+00 +8.5268895164008391e+00 +0.0000000000000000e+00 -1.9999999959311201e+00 -3.0815897011243779e-02 -5.7732649014969151e-01 +5.8332772320696053e-03
-2.0499999999999998e+00 +8.5268839230666291e+00 +0.0000000000000000e+00 -2.0499999956182600e+00 -3.0817038202358867e-02 -5.7734335899865097e-01 +5.8329098501788551e-03
-2.1000000000000001e+00 +8.5268781914164702e+00 +0.0000000000000000e+00 -2.0999999952897199e+00 -3.0818198299805415e-02 -5.7736060889918173e-01 +5.8325431579184456e-03
-2.1499999999999999e+00 +8.5268723214576294e+00 +0.0000000000000000e+00 -2.1499999949451398e+00 -3.0819377160390540e-02 -5.7737823760587947e-01 +5.8321771878376899e-03
-2.2000000000000002e+00 +8.5268663131864706e+00 +0.0000000000000000e+00 -2.1999999945841302e+00 -3.0820574640925791e-02 -5.7739624287343461e-01 +5.8318119724867865e-03
-2.2500000000000000e+00 +8.5268601666030008e+00 +0.0000000000000000e+00 -2.2499999942063100e+00 -3.0821790598221526e-02 -5.7741462245652309e-01 +5.8314475444156471e-03
-2.2999999999999998e+00 +8.5268538817035697e+00 +0.0000000000000000e+00 -2.2999999938113000e+00 -3.0823024889089699e-02 -5.7743337410986018e-01 +5.8310839361744825e-03
-2.3500000000000001e+00 +8.5268474584954692e+00 +0.0000000000000000e+00 -2.3499999933987001e+00 -3.0824277370338184e-02 -5.7745249558809009e-01 +5.8307211803126204e-03
-2.3999999999999999e+00 +8.5268408969750507e+00 +0.0000000000000000e+00 -2.3999999929681501e+00 -3.0825547898779154e-02 -5.7747198464595084e-01 +5.8303593093802630e-03
-2.4500000000000002e+00 +8.5268341971459396e+00 +0.0000000000000000e+00 -2.4499999925192602e+00 -3.0826836331222109e-02 -5.7749183903813817e-01 +5.8299983559270381e-03
-2.5000000000000000e+00 +8.5268273590008903e+00 +0.0000000000000000e+00 -2.4999999920516398e+00 -3.0828142524480708e-02 -5.7751205651943960e-01 +5.8296383525034447e-03
-2.5499999999999998e+00 +8.5268203825435194e+00 +0.0000000000000000e+00 -2.5499999915649201e+00 -3.0829466335364458e-02 -5.7753263484457151e-01 +5.8292793316590914e-03
-2.6000000000000001e+00 +8.5268132677774702e+00 +0.0000000000000000e+00 -2.5999999910586999e+00 -3.0830807620682844e-02 -5.7755357176826094e-01 +5.8289213259435941e-03
-2.6499999999999999e+00 +8.5268060146954703e+00 +0.0000000000000000e+00 -2.6499999905326099e+00 -3.0832166237249461e-02 -5.7757486504532796e-01 +5.8285643679074359e-03
-2.7000000000000002e+00 +8.5267986233047797e+00 +0.0000000000000000e+00 -2.6999999899862699e+00 -3.0833542041872188e-02 -5.7759651243049148e-01 +5.8282084900999178e-03
-2.7500000000000000e+00 +8.5267910936017905e+00 +0.0000000000000000e+00 -2.7499999894192899e+00 -3.0834934891363006e-02 -5.7761851167856371e-01 +5.8278537250712184e-03
-2.7999999999999998e+00 +8.5267834255828294e+00 +0.0000000000000000e+00 -2.7999999888312899e+00 -3.0836344642533726e-02 -5.7764086054436581e-01 +5.8275001053715025e-03
-2.8500000000000001e+00 +8.5267756192552007e+00 +0.0000000000000000e+00 -2.8499999882218900e+00 -3.0837771152191693e-02 -5.7766355678264558e-01 +5.8271476635500382e-03
-2.8999999999999999e+00 +8.5267676746152592e+00 +0.0000000000000000e+00 -2.8999999875907001e+00 -3.0839214277148291e-02 -5.7768659814824197e-01 +5.8267964321569686e-03
-2.9500000000000002e+00 +8.5267595916629908e+00 +0.0000000000000000e+00 -2.9499999869373399e+00 -3.0840673874213177e-02 -5.7770998239597615e-01 +5.8264464437421323e-03
-3.0000000000000000e+00 +8.5267513703984203e+00 +0.0000000000000000e+00 -2.9999999862614302e+00 -3.0842149800195711e-02 -5.7773370728067641e-01 +5.8260977308553421e-03
-3.0499999999999998e+00 +8.5267430108251592e+00 +0.0000000000000000e+00 -3.0499999855625899e+00 -3.0843641911903513e-02 -5.7775777055715249e-01 +5.8257503260461104e-03
-3.1000000000000001e+00 +8.5267345129359509e+00 +0.0000000000000000e+00 -3.0999999848404300e+00 -3.0845150066148037e-02 -5.7778216998030374e-01 +5.8254042618648069e-03
-3.1499999999999999e+00 +8.5267258767344192e+00 +0.0000000000000000e+00 -3.1499999840945798e+00 -3.0846674119736097e-02 -5.7780690330495543e-01 +5.8250595708609059e-03
-3.2000000000000002e+00 +8.5267171022205694e+00 +0.0000000000000000e+00 -3.1999999833246400e+00 -3.0848213929475468e-02 -5.7783196828596739e-01 +5.8247162855841524e-03
-3.2500000000000000e+00 +8.5267081893980503e+00 +0.0000000000000000e+00 -3.2499999825302401e+00 -3.0849769352172068e-02 -5.7785736267817833e-01 +5.8243744385839749e-03
-3.2999999999999998e+00 +8.5266991382632096e+00 +0.0000000000000000e+00 -3.2999999817109900e+00 -3.0851340244634061e-02 -5.7788308423648971e-01 +5.8240340624103734e-03
-3.3500000000000001e+00 +8.5266899488124199e+00 +0.0000000000000000e+00 -3.3499999808665200e+00 -3.0852926463669075e-02 -5.7790913071580940e-01 +5.8236951896133166e-03
-3.3999999999999999e+00 +8.5266806210529502e+00 +0.0000000000000000e+00 -3.3999999799964300e+00 -3.0854527866079954e-02 -5.7793549987096871e-01 +5.8233578527418679e-03
-3.4500000000000002e+00 +8.5266711549811607e+00 +0.0000000000000000e+00 -3.4499999791003502e+00 -3.0856144308673120e-02 -5.7796218945688793e-01 +5.8230220843459501e-03
-3.5000000000000000e+00 +8.5266615505970496e+00 +0.0000000000000000e+00 -3.4999999781778901e+00 -3.0857775648252938e-02 -5.7798919722846442e-01 +5.8226879169751616e-03
-3.5499999999999998e+00 +8.5266518079006293e+00 +0.0000000000000000e+00 -3.5499999772286701e+00 -3.0859421741623073e-02 -5.7801652094060263e-01 +5.8223553831790653e-03
-3.6000000000000001e+00 +8.5266419268882601e+00 +0.0000000000000000e+00 -3.5999999762523198e+00 -3.0861082445587894e-02 -5.7804415834823930e-01 +5.8220245155075007e-03
-3.6499999999999999e+00 +8.5266319075708505e+00 +0.0000000000000000e+00 -3.6499999752484298e+00 -3.0862757616945357e-02 -5.7807210720620494e-01 +5.8216953465090888e-03
-3.6999999999999900e+00 +8.5266217499374797e+00 +0.0000000000000000e+00 -3.6999999742166398e+00 -3.0864447112501091e-02 -5.7810036526950159e-01 +5.8213679087341860e-03
-3.7499999999999898e+00 +8.5266114539917908e+00 +0.0000000000000000e+00 -3.7499999731565601e+00 -3.0866150789054258e-02 -5.7812893029302470e-01 +5.8210422347319424e-03
-3.7999999999999901e+00 +8.5266010197374307e+00 +0.0000000000000000e+00 -3.7999999720678099e+00 -3.0867868503403131e-02 -5.7815780003167427e-01 +5.8207183570514638e-03
-3.8499999999999899e+00 +8.5265904471671092e+00 +0.0000000000000000e+00 -3.8499999709499999e+00 -3.0869600112349342e-02 -5.7818697224043603e-01 +5.8203963082427059e-03
-3.8999999999999901e+00 +8.5265797362881095e+00 +0.0000000000000000e+00 -3.8999999698027499e+00 -3.0871345472687949e-02 -5.7821644467419053e-01 +5.8200761208544146e-03
-3.9499999999999900e+00 +8.5265688870931609e+00 +0.0000000000000000e+00 -3.9499999686256899e+00 -3.0873104441218678e-02 -5.7824621508793084e-01 +5.8197578274364632e-03
-3.9999999999999898e+00 +8.5265578995895304e+00 +0.0000000000000000e+00 -3.9999999674184199e+00 -3.0874876874734600e-02 -5.7827628123654373e-01 +5.8194414605375177e-03
-4.0499999999999901e+00 +8.5265467737735907e+00 +0.0000000000000000e+00 -4.0499999661805601e+00 -3.0876662625436344e-02 -5.7830664073802451e-01 +5.8191270449299776e-03
-4.0999999999999899e+00 +8.5265355096416897e+00 +0.0000000000000000e+00 -4.0999999649117402e+00 -3.0878461527141382e-02 -5.7833729066246498e-01 +5.8188145742777315e-03
-4.1499999999999897e+00 +8.5265241072047502e+00 +0.0000000000000000e+00 -4.1499999636115703e+00 -3.0880273409066537e-02 -5.7836822794287157e-01 +5.8185040344662323e-03
-4.1999999999999904e+00 +8.5265125664518600e+00 +0.0000000000000000e+00 -4.1999999622796604e+00 -3.0882098100437870e-02 -5.7839944951241784e-01 +5.8181954113825929e-03
-4.2499999999999902e+00 +8.5265008873866499e+00 +0.0000000000000000e+00 -4.2499999609156403e+00 -3.0883935430476666e-02 -5.7843095230416730e-01 +5.8178886909126043e-03
-4.2999999999999901e+00 +8.5264890700091200e+00 +0.0000000000000000e+00 -4.2999999595191198e+00 -3.0885785228406439e-02 -5.7846273325121234e-01 +5.8175838589422353e-03
-4.3499999999999899e+00 +8.5264771143192792e+00 +0.0000000000000000e+00 -4.3499999580897200e+00 -3.0887647323451603e-02 -5.7849478928664666e-01 +5.8172809013573128e-03
-4.3999999999999897e+00 +8.5264650203207601e+00 +0.0000000000000000e+00 -4.3999999566270596e+00 -3.0889521544836086e-02 -5.7852711734353568e-01 +5.8169798040432338e-03
-4.4499999999999904e+00 +8.5264527880062797e+00 +0.0000000000000000e+00 -4.4499999551307496e+00 -3.0891407721788947e-02 -5.7855971435502840e-01 +5.8166805528861399e-03
-4.4999999999999902e+00 +8.5264404173794901e+00 +0.0000000000000000e+00 -4.4999999536004101e+00 -3.0893305683535956e-02 -5.7859257725418967e-01 +5.8163831337711362e-03
-4.5499999999999901e+00 +8.5264279084440204e+00 +0.0000000000000000e+00 -4.5499999520356598e+00 -3.0895215259303856e-02 -5.7862570297408489e-01 +5.8160875325831904e-03
-4.5999999999999899e+00 +8.5264152611962292e+00 +0.0000000000000000e+00 -4.5999999504361098e+00 -3.0897136278323224e-02 -5.7865908844783376e-01 +5.8157937352076982e-03
-4.6499999999999897e+00 +8.5264024756361305e+00 +0.0000000000000000e+00 -4.6499999488013897e+00 -3.0899068569824224e-02 -5.7869273060852644e-01 +5.8155017275296058e-03
-4.6999999999999904e+00 +8.5263895517600794e+00 +0.0000000000000000e+00 -4.6999999471311096e+00 -3.0901011963039470e-02 -5.7872662638928019e-01 +5.8152114954340035e-03
-4.7499999999999902e+00 +8.5263764895753393e+00 +0.0000000000000000e+00 -4.7499999454248902e+00 -3.0902966287198415e-02 -5.7876077272312709e-01 +5.8149230248049225e-03
-4.7999999999999901e+00 +8.5263632890782901e+00 +0.0000000000000000e+00 -4.7999999436823400e+00 -3.0904931371535809e-02 -5.7879516654318064e-01 +5.8146363015271216e-03
-4.8499999999999899e+00 +8.5263499502725608e+00 +0.0000000000000000e+00 -4.8499999419030901e+00 -3.0906907045284735e-02 -5.7882980478249679e-01 +5.8143513114845974e-03
-4.8999999999999897e+00 +8.5263364731472393e+00 +0.0000000000000000e+00 -4.8999999400867402e+00 -3.0908893137684999e-02 -5.7886468437423932e-01 +5.8140680405623446e-03
-4.9499999999999904e+00 +8.5263228577168793e+00 +0.0000000000000000e+00 -4.9499999382329296e+00 -3.0910889477967690e-02 -5.7889980225137516e-01 +5.8137864746431326e-03
-4.9999999999999902e+00 +8.5263091039705596e+00 +0.0000000000000000e+00 -4.9999999363412497e+00 -3.0912895895374999e-02 -5.7893515534706341e-01 +5.8135065996115995e-03
-5.0499999999999901e+00 +8.5262952115954196e+00 +0.0000000000000000e+00 -5.0499999344112600e+00 -3.0914912219267929e-02 -5.7897074059676756e-01 +5.8132284013765892e-03
-5.0999999999999899e+00 +8.5262811802713294e+00 +0.0000000000000000e+00 -5.0999999324424596e+00 -3.0916938279011718e-02 -5.7900655493600550e-01 +5.8129518658473385e-03
-5.1499999999999897e+00 +8.5262670100019005e+00 +0.0000000000000000e+00 -5.1499999304344799e+00 -3.0918973903846722e-02 -5.7904259529781732e-01 +5.8126769789067370e-03
-5.1999999999999904e+00 +8.5262527007798798e+00 +0.0000000000000000e+00 -5.1999999283869203e+00 -3.0921018923018784e-02 -5.7907885861532160e-01 +5.8124037264383659e-03
-5.2499999999999902e+00 +8.5262382526088896e+00 +0.0000000000000000e+00 -5.2499999262994104e+00 -3.0923073165770844e-02 -5.7911534182155000e-01 +5.8121320943247123e-03
-5.2999999999999901e+00 +8.5262236654925800e+00 +0.0000000000000000e+00 -5.2999999241715603e+00 -3.0925136461347109e-02 -5.7915204184952851e-01 +5.8118620684480798e-03
-5.3499999999999899e+00 +8.5262089394273097e+00 +0.0000000000000000e+00 -5.3499999220029704e+00 -3.0927208638995965e-02 -5.7918895563233419e-01 +5.8115936346911420e-03
-5.3999999999999897e+00 +8.5261940744130698e+00 +0.0000000000000000e+00 -5.3999999197932702e+00 -3.0929289527965774e-02 -5.7922608010301091e-01 +5.8113267789360662e-03
-5.4499999999999904e+00 +8.5261790704498708e+00 +0.0000000000000000e+00 -5.4499999175420601e+00 -3.0931378957506264e-02 -5.7926341219459698e-01 +5.8110614870648175e-03
-5.4999999999999902e+00 +8.5261639275377092e+00 +0.0000000000000000e+00 -5.4999999152489698e+00 -3.0933476756868541e-02 -5.7930094884012462e-01 +5.8107977449591355e-03
-5.5499999999999901e+00 +8.5261486456802196e+00 +0.0000000000000000e+00 -5.5499999129136004e+00 -3.0935582755303771e-02 -5.7933868697259272e-01 +5.8105355385002500e-03
-5.5999999999999899e+00 +8.5261332248737691e+00 +0.0000000000000000e+00 -5.5999999105355700e+00 -3.0937696782067366e-02 -5.7937662352504848e-01 +5.8102748535697529e-03
-5.6499999999999897e+00 +8.5261176651147306e+00 +0.0000000000000000e+00 -5.6499999081144896e+00 -3.0939818666416243e-02 -5.7941475543053311e-01 +5.8100156760490110e-03
-5.6999999999999904e+00 +8.5261019664103497e+00 +0.0000000000000000e+00 -5.6999999056499897e+00 -3.0941948237604568e-02 -5.7945307962199710e-01 +5.8097579918182729e-03
-5.7499999999999902e+00 +8.5260861287570204e+00 +0.0000000000000000e+00 -5.7499999031416600e+00 -3.0944085324892245e-02 -5.7949159303246678e-01 +5.8095017867584422e-03
-5.7999999999999901e+00 +8.5260701521547198e+00 +0.0000000000000000e+00 -5.7999999005891203e+00 -3.0946229757539336e-02 -5.7953029259493372e-01 +5.8092470467498861e-03
-5.8499999999999899e+00 +8.5260540366070892e+00 +0.0000000000000000e+00 -5.8499998979920003e+00 -3.0948381364806047e-02 -5.7956917524235352e-01 +5.8089937576724371e-03
