# trajectory
# s[mm] rx[mm] ry[mm] rz[mm] px[rad] py[rad] pz[rad]
0.0000000000000000e+00 +8.5389999999999997e+00 +0.0000000000000000e+00 +0.0000000000000000e+00 +0.0000000000000000e+00 +0.0000000000000000e+00 +1.0000000000000000e+00
-5.0000000000000003e-02 +8.5389999310357112e+00 +0.0000000000000000e+00 -4.9999999999936581e-02 +2.7585784750555028e-06 +0.0000000000000000e+00 +9.9999999999619515e-01
-1.0000000000000001e-01 +8.5389997241414406e+00 +0.0000000000000000e+00 -9.9999999999492675e-02 +5.5171996282017270e-06 +0.0000000000000000e+00 +9.9999999998478029e-01
-1.5000000000000002e-01 +8.5389993793150047e+00 +0.0000000000000000e+00 -1.4999999999828778e-01 +8.2758653710004486e-06 +0.0000000000000000e+00 +9.9999999996575506e-01
-2.0000000000000001e-01 +8.5389988965541281e+00 +0.0000000000000000e+00 -1.9999999999594134e-01 +1.1034577607336255e-05 +0.0000000000000000e+00 +9.9999999993911903e-01
-2.5000000000000000e-01 +8.5389982758564376e+00 +0.0000000000000000e+00 -2.4999999999207284e-01 +1.3793338233416633e-05 +0.0000000000000000e+00 +9.9999999990487187e-01
-2.9999999999999999e-01 +8.5389975172194674e+00 +0.0000000000000000e+00 -2.9999999998630167e-01 +1.6552149137772051e-05 +0.0000000000000000e+00 +9.9999999986301313e-01
-3.4999999999999998e-01 +8.5389966206406545e+00 +0.0000000000000000e+00 -3.4999999997824727e-01 +1.9311012201256039e-05 +0.0000000000000000e+00 +9.9999999981354237e-01
-3.9999999999999997e-01 +8.5389955861173465e+00 +0.0000000000000000e+00 -3.9999999996752900e-01 +2.2069929297045276e-05 +0.0000000000000000e+00 +9.9999999975645903e-01
-4.4999999999999996e-01 +8.5389944136467939e+00 +0.0000000000000000e+00 -4.4999999995376627e-01 +2.4828902290639662e-05 +0.0000000000000000e+00 +9.9999999969176268e-01
-4.9999999999999994e-01 +8.5389931032261543e+00 +0.0000000000000000e+00 -4.9999999993657840e-01 +2.7587933039862408e-05 +0.0000000000000000e+00 +9.9999999961945285e-01
-5.4999999999999993e-01 +8.5389916548524951e+00 +0.0000000000000000e+00 -5.4999999991558468e-01 +3.0347023394860111e-05 +0.0000000000000000e+00 +9.9999999953952901e-01
-5.9999999999999998e-01 +8.5389900685227893e+00 +0.0000000000000000e+00 -5.9999999989040442e-01 +3.3106175198102836e-05 +0.0000000000000000e+00 +9.9999999945199047e-01
-6.5000000000000002e-01 +8.5389883442339194e+00 +0.0000000000000000e+00 -6.4999999986065682e-01 +3.5865390284384180e-05 +0.0000000000000000e+00 +9.9999999935683681e-01
-7.0000000000000007e-01 +8.5389864819826755e+00 +0.0000000000000000e+00 -6.9999999982596117e-01 +3.8624670480821371e-05 +0.0000000000000000e+00 +9.9999999925406735e-01
-7.5000000000000011e-01 +8.5389844817657554e+00 +0.0000000000000000e+00 -7.4999999978593668e-01 +4.1384017606855327e-05 +0.0000000000000000e+00 +9.9999999914368143e-01
-8.0000000000000016e-01 +8.5389823435797680e+00 +0.0000000000000000e+00 -7.9999999974020242e-01 +4.4143433474250744e-05 +0.0000000000000000e+00 +9.9999999902567849e-01
-8.5000000000000020e-01 +8.5389800674212317e+00 +0.0000000000000000e+00 -8.4999999968837758e-01 +4.6902919887096162e-05 +0.0000000000000000e+00 +9.9999999890005786e-01
-9.0000000000000024e-01 +8.5389776532865742e+00 +0.0000000000000000e+00 -8.9999999963008126e-01 +4.9662478641804048e-05 +0.0000000000000000e+00 +9.9999999876681889e-01
-9.5000000000000029e-01 +8.5389751011721327e+00 +0.0000000000000000e+00 -9.4999999956493253e-01 +5.2422111527110864e-05 +0.0000000000000000e+00 +9.9999999862596090e-01
-1.0000000000000002e+00 +8.5389724110741572e+00 +0.0000000000000000e+00 -9.9999999949255036e-01 +5.5181820324077139e-05 +0.0000000000000000e+00 +9.9999999847748311e-01
-1.0500000000000003e+00 +8.5389695829888055e+00 +0.0000000000000000e+00 -1.0499999994125537e+00 +5.7941606806087548e-05 +0.0000000000000000e+00 +9.9999999832138486e-01
-1.1000000000000003e+00 +8.5389666169121519e+00 +0.0000000000000000e+00 -1.0999999993245617e+00 +6.0701472738850982e-05 +0.0000000000000000e+00 +9.9999999815766538e-01
-1.1500000000000004e+00 +8.5389635128401782e+00 +0.0000000000000000e+00 -1.1499999992281933e+00 +6.3461419880400611e-05 +0.0000000000000000e+00 +9.9999999798632389e-01
-1.2000000000000004e+00 +8.5389602707687811e+00 +0.0000000000000000e+00 -1.1999999991230672e+00 +6.6221449981093960e-05 +0.0000000000000000e+00 +9.9999999780735960e-01
-1.2500000000000004e+00 +8.5389568906937683e+00 +0.0000000000000000e+00 -1.2499999990088022e+00 +6.8981564783612994e-05 +0.0000000000000000e+00 +9.9999999762077163e-01
-1.3000000000000005e+00 +8.5389533726108624e+00 +0.0000000000000000e+00 -1.2999999988850173e+00 +7.1741766022964139e-05 +0.0000000000000000e+00 +9.9999999742655932e-01
-1.3500000000000005e+00 +8.5389497165156971e+00 +0.0000000000000000e+00 -1.3499999987513311e+00 +7.4502055426478415e-05 +0.0000000000000000e+00 +9.9999999722472166e-01
-1.4000000000000006e+00 +8.5389459224038209e+00 +0.0000000000000000e+00 -1.3999999986073624e+00 +7.7262434713811463e-05 +0.0000000000000000e+00 +9.9999999701525788e-01
-1.4500000000000006e+00 +8.5389419902706987e+00 +0.0000000000000000e+00 -1.4499999984527299e+00 +8.0022905596943613e-05 +0.0000000000000000e+00 +9.9999999679816709e-01
-1.5000000000000007e+00 +8.5389379201117066e+00 +0.0000000000000000e+00 -1.4999999982870520e+00 +8.2783469780179950e-05 +0.0000000000000000e+00 +9.9999999657344840e-01
-1.5500000000000007e+00 +8.5389337119221373e+00 +0.0000000000000000e+00 -1.5499999981099475e+00 +8.5544128960150399e-05 +0.0000000000000000e+00 +9.9999999634110082e-01
-1.6000000000000008e+00 +8.5389293656971983e+00 +0.0000000000000000e+00 -1.5999999979210349e+00 +8.8304884825809776e-05 +0.0000000000000000e+00 +9.9999999610112345e-01
-1.6500000000000008e+00 +8.5389248814320151e+00 +0.0000000000000000e+00 -1.6499999977199327e+00 +9.1065739058437858e-05 +0.0000000000000000e+00 +9.9999999585351540e-01
-1.7000000000000008e+00 +8.5389202591216264e+00 +0.0000000000000000e+00 -1.6999999975062592e+00 +9.3826693331639421e-05 +0.0000000000000000e+00 +9.9999999559827557e-01
-1.7500000000000009e+00 +8.5389154987609874e+00 +0.0000000000000000e+00 -1.7499999972796330e+00 +9.6587749311344338e-05 +0.0000000000000000e+00 +9.9999999533540307e-01
-1.8000000000000009e+00 +8.5389106003449715e+00 +0.0000000000000000e+00 -1.7999999970396723e+00 +9.9348908655807631e-05 +0.0000000000000000e+00 +9.9999999506489690e-01
-1.8500000000000010e+00 +8.5389055638683704e+00 +0.0000000000000000e+00 -1.8499999967859955e+00 +1.0211017301560951e-04 +0.0000000000000000e+00 +9.9999999478675605e-01
-1.9000000000000010e+00 +8.5389003893258923e+00 +0.0000000000000000e+00 -1.8999999965182206e+00 +1.0487154403365545e-04 +0.0000000000000000e+00 +9.9999999450097943e-01
-1.9500000000000011e+00 +8.5388950767121621e+00 +0.0000000000000000e+00 -1.9499999962359660e+00 +1.0763302334517626e-04 +0.0000000000000000e+00 +9.9999999420756591e-01
-2.0000000000000009e+00 +8.5388896260217262e+00 +0.0000000000000000e+00 -1.9999999959388499e+00 +1.1039461257772814e-04 +0.0000000000000000e+00 +9.9999999390651451e-01
-2.0500000000000007e+00 +8.5388840372490460e+00 +0.0000000000000000e+00 -2.0499999956264903e+00 +1.1315631335093305e-04 +0.0000000000000000e+00 +9.9999999359782410e-01
-2.1000000000000005e+00 +8.5388783103885046e+00 +0.0000000000000000e+00 -2.0999999952985049e+00 +1.1591812727362257e-04 +0.0000000000000000e+00 +9.9999999328149358e-01
-2.1500000000000004e+00 +8.5388724454344054e+00 +0.0000000000000000e+00 -2.1499999949545123e+00 +1.1868005594098177e-04 +0.0000000000000000e+00 +9.9999999295752184e-01
-2.2000000000000002e+00 +8.5388664423809715e+00 +0.0000000000000000e+00 -2.1999999945941298e+00 +1.2144210093428950e-04 +0.0000000000000000e+00 +9.9999999262590777e-01
-2.2500000000000000e+00 +8.5388603012223463e+00 +0.0000000000000000e+00 -2.2499999942169757e+00 +1.2420426382091853e-04 +0.0000000000000000e+00 +9.9999999228665015e-01
-2.2999999999999998e+00 +8.5388540219525986e+00 +0.0000000000000000e+00 -2.2999999938226674e+00 +1.2696654615433557e-04 +0.0000000000000000e+00 +9.9999999193974776e-01
-2.3499999999999996e+00 +8.5388476045657153e+00 +0.0000000000000000e+00 -2.3499999934108229e+00 +1.2972894947410130e-04 +0.0000000000000000e+00 +9.9999999158519948e-01
-2.3999999999999995e+00 +8.5388410490556090e+00 +0.0000000000000000e+00 -2.3999999929810598e+00 +1.3249147530587039e-04 +0.0000000000000000e+00 +9.9999999122300409e-01
-2.4499999999999993e+00 +8.5388343554161175e+00 +0.0000000000000000e+00 -2.4499999925329958e+00 +1.3525412516139160e-04 +0.0000000000000000e+00 +9.9999999085316038e-01
-2.4999999999999991e+00 +8.5388275236410003e+00 +0.0000000000000000e+00 -2.4999999920662486e+00 +1.3801690053850783e-04 +0.0000000000000000e+00 +9.9999999047566712e-01
-2.5499999999999989e+00 +8.5388205537239461e+00 +0.0000000000000000e+00 -2.5499999915804352e+00 +1.4077980292115608e-04 +0.0000000000000000e+00 +9.9999999009052309e-01
-2.5999999999999988e+00 +8.5388134456585671e+00 +0.0000000000000000e+00 -2.5999999910751734e+00 +1.4354283377936757e-04 +0.0000000000000000e+00 +9.9999998969772697e-01
-2.6499999999999986e+00 +8.5388061994384028e+00 +0.0000000000000000e+00 -2.6499999905500804e+00 +1.4630599456926771e-04 +0.0000000000000000e+00 +9.9999998929727751e-01
-2.6999999999999984e+00 +8.5387988150569214e+00 +0.0000000000000000e+00 -2.6999999900047738e+00 +1.4906928673307618e-04 +0.0000000000000000e+00 +9.9999998888917341e-01
-2.7499999999999982e+00 +8.5387912925075167e+00 +0.0000000000000000e+00 -2.7499999894388703e+00 +1.5183271169910700e-04 +0.0000000000000000e+00 +9.9999998847341331e-01
-2.7999999999999980e+00 +8.5387836317835148e+00 +0.0000000000000000e+00 -2.7999999888519875e+00 +1.5459627088176849e-04 +0.0000000000000000e+00 +9.9999998804999601e-01
-2.8499999999999979e+00 +8.5387758328781693e+00 +0.0000000000000000e+00 -2.8499999882437423e+00 +1.5735996568156331e-04 +0.0000000000000000e+00 +9.9999998761892006e-01
-2.8999999999999977e+00 +8.5387678957846642e+00 +0.0000000000000000e+00 -2.8999999876137519e+00 +1.6012379748508857e-04 +0.0000000000000000e+00 +9.9999998718018424e-01
-2.9499999999999975e+00 +8.5387598204961144e+00 +0.0000000000000000e+00 -2.9499999869616329e+00 +1.6288776766503577e-04 +0.0000000000000000e+00 +9.9999998673378709e-01
-2.9999999999999973e+00 +8.5387516070055689e+00 +0.0000000000000000e+00 -2.9999999862870026e+00 +1.6565187758019092e-04 +0.0000000000000000e+00 +9.9999998627972719e-01
-3.0499999999999972e+00 +8.5387432553060059e+00 +0.0000000000000000e+00 -3.0499999855894777e+00 +1.6841612857543446e-04 +0.0000000000000000e+00 +9.9999998581800331e-01
-3.0999999999999970e+00 +8.5387347653903376e+00 +0.0000000000000000e+00 -3.0999999848686750e+00 +1.7118052198174138e-04 +0.0000000000000000e+00 +9.9999998534861390e-01
-3.1499999999999968e+00 +8.5387261372514125e+00 +0.0000000000000000e+00 -3.1499999841242112e+00 +1.7394505911618125e-04 +0.0000000000000000e+00 +9.9999998487155761e-01
-3.1999999999999966e+00 +8.5387173708820097e+00 +0.0000000000000000e+00 -3.1999999833557031e+00 +1.7670974128191811e-04 +0.0000000000000000e+00 +9.9999998438683302e-01
-3.2499999999999964e+00 +8.5387084662748460e+00 +0.0000000000000000e+00 -3.2499999825627670e+00 +1.7947456976821072e-04 +0.0000000000000000e+00 +9.9999998389443878e-01
-3.2999999999999963e+00 +8.5386994234225728e+00 +0.0000000000000000e+00 -3.2999999817450192e+00 +1.8223954585041234e-04 +0.0000000000000000e+00 +9.9999998339437335e-01
-3.3499999999999961e+00 +8.5386902423177791e+00 +0.0000000000000000e+00 -3.3499999809020764e+00 +1.8500467078997097e-04 +0.0000000000000000e+00 +9.9999998288663527e-01
-3.3999999999999959e+00 +8.5386809229529916e+00 +0.0000000000000000e+00 -3.3999999800335550e+00 +1.8776994583442918e-04 +0.0000000000000000e+00 +9.9999998237122312e-01
-3.4499999999999957e+00 +8.5386714653206734e+00 +0.0000000000000000e+00 -3.4499999791390707e+00 +1.9053537221742431e-04 +0.0000000000000000e+00 +9.9999998184813532e-01
-3.4999999999999956e+00 +8.5386618694132270e+00 +0.0000000000000000e+00 -3.4999999782182405e+00 +1.9330095115868833e-04 +0.0000000000000000e+00 +9.9999998131737045e-01
-3.5499999999999954e+00 +8.5386521352229945e+00 +0.0000000000000000e+00 -3.5499999772706801e+00 +1.9606668386404799e-04 +0.0000000000000000e+00 +9.9999998077892704e-01
-3.5999999999999952e+00 +8.5386422627422576e+00 +0.0000000000000000e+00 -3.5999999762960053e+00 +1.9883257152542472e-04 +0.0000000000000000e+00 +9.9999998023280356e-01
-3.6499999999999950e+00 +8.5386322519632394e+00 +0.0000000000000000e+00 -3.6499999752938326e+00 +2.0159861532083472e-04 +0.0000000000000000e+00 +9.9999997967899845e-01
-3.6999999999999948e+00 +8.5386221028781044e+00 +0.0000000000000000e+00 -3.6999999742637772e+00 +2.0436481641438896e-04 +0.0000000000000000e+00 +9.9999997911751015e-01
-3.7499999999999947e+00 +8.5386118154789585e+00 +0.0000000000000000e+00 -3.7499999732054556e+00 +2.0713117595629315e-04 +0.0000000000000000e+00 +9.9999997854833722e-01
-3.7999999999999945e+00 +8.5386013897578490e+00 +0.0000000000000000e+00 -3.7999999721184832e+00 +2.0989769508284785e-04 +0.0000000000000000e+00 +9.9999997797147799e-01
-3.8499999999999943e+00 +8.5385908257067715e+00 +0.0000000000000000e+00 -3.8499999710024753e+00 +2.1266437491644839e-04 +0.0000000000000000e+00 +9.9999997738693103e-01
-3.8999999999999941e+00 +8.5385801233176615e+00 +0.0000000000000000e+00 -3.8999999698570478e+00 +2.1543121656558489e-04 +0.0000000000000000e+00 +9.9999997679469466e-01
-3.9499999999999940e+00 +8.5385692825824009e+00 +0.0000000000000000e+00 -3.9499999686818166e+00 +2.1819822112484230e-04 +0.0000000000000000e+00 +9.9999997619476733e-01
-3.9999999999999938e+00 +8.5385583034928167e+00 +0.0000000000000000e+00 -3.9999999674763966e+00 +2.2096538967490042e-04 +0.0000000000000000e+00 +9.9999997558714748e-01
-4.0499999999999936e+00 +8.5385471860406827e+00 +0.0000000000000000e+00 -4.0499999662404029e+00 +2.2373272328254421e-04 +0.0000000000000000e+00 +9.9999997497183346e-01
-4.0999999999999934e+00 +8.5385359302177193e+00 +0.0000000000000000e+00 -4.0999999649734518e+00 +2.2650022300077806e-04 +0.0000000000000000e+00 +9.9999997434882371e-01
-4.1499999999999932e+00 +8.5385245360155970e+00 +0.0000000000000000e+00 -4.1499999636751577e+00 +2.2926788986893978e-04 +0.0000000000000000e+00 +9.9999997371811655e-01
-4.1999999999999931e+00 +8.5385130034259298e+00 +0.0000000000000000e+00 -4.1999999623451352e+00 +2.3203572491271109e-04 +0.0000000000000000e+00 +9.9999997307971034e-01
-4.2499999999999929e+00 +8.5385013324402852e+00 +0.0000000000000000e+00 -4.2499999609829997e+00 +2.3480372914411752e-04 +0.0000000000000000e+00 +9.9999997243360350e-01
-4.2999999999999927e+00 +8.5384895230501794e+00 +0.0000000000000000e+00 -4.2999999595883667e+00 +2.3757190356152850e-04 +0.0000000000000000e+00 +9.9999997177979438e-01
-4.3499999999999925e+00 +8.5384775752470770e+00 +0.0000000000000000e+00 -4.3499999581608506e+00 +2.4034024914965722e-04 +0.0000000000000000e+00 +9.9999997111828132e-01
-4.3999999999999924e+00 +8.5384654890223963e+00 +0.0000000000000000e+00 -4.3999999567000661e+00 +2.4310876687956069e-04 +0.0000000000000000e+00 +9.9999997044906275e-01
-4.4499999999999922e+00 +8.5384532643675044e+00 +0.0000000000000000e+00 -4.4499999552056284e+00 +2.4587745770863968e-04 +0.0000000000000000e+00 +9.9999996977213690e-01
-4.4999999999999920e+00 +8.5384409012737237e+00 +0.0000000000000000e+00 -4.4999999536771513e+00 +2.4864632258063879e-04 +0.0000000000000000e+00 +9.9999996908750211e-01
-4.5499999999999918e+00 +8.5384283997323287e+00 +0.0000000000000000e+00 -4.5499999521142502e+00 +2.5141536242564625e-04 +0.0000000000000000e+00 +9.9999996839515670e-01
-4.5999999999999917e+00 +8.5384157597345496e+00 +0.0000000000000000e+00 -4.5999999505165388e+00 +2.5418457816009404e-04 +0.0000000000000000e+00 +9.9999996769509902e-01
-4.6499999999999915e+00 +8.5384029812715667e+00 +0.0000000000000000e+00 -4.6499999488836314e+00 +2.5695397068675778e-04 +0.0000000000000000e+00 +9.9999996698732740e-01
-4.6999999999999913e+00 +8.5383900643345196e+00 +0.0000000000000000e+00 -4.6999999472151428e+00 +2.5972354089475683e-04 +0.0000000000000000e+00 +9.9999996627184007e-01
-4.7499999999999911e+00 +8.5383770089145017e+00 +0.0000000000000000e+00 -4.7499999455106865e+00 +2.6249328965955414e-04 +0.0000000000000000e+00 +9.9999996554863535e-01
-4.7999999999999909e+00 +8.5383638150025636e+00 +0.0000000000000000e+00 -4.7999999437698770e+00 +2.6526321784295620e-04 +0.0000000000000000e+00 +9.9999996481771147e-01
-4.8499999999999908e+00 +8.5383504825897134e+00 +0.0000000000000000e+00 -4.8499999419923290e+00 +2.6803332629311307e-04 +0.0000000000000000e+00 +9.9999996407906677e-01
-4.8999999999999906e+00 +8.5383370116669166e+00 +0.0000000000000000e+00 -4.8999999401776551e+00 +2.7080361584451836e-04 +0.0000000000000000e+00 +9.9999996333269958e-01
-4.9499999999999904e+00 +8.5383234022250978e+00 +0.0000000000000000e+00 -4.9499999383254698e+00 +2.7357408731800911e-04 +0.0000000000000000e+00 +9.9999996257860813e-01
-4.9999999999999902e+00 +8.5383096542551407e+00 +0.0000000000000000e+00 -4.9999999364353869e+00 +2.7634474152076594e-04 +0.0000000000000000e+00 +9.9999996181679063e-01
-5.0499999999999901e+00 +8.5382957677478881e+00 +0.0000000000000000e+00 -5.0499999345070199e+00 +2.7911557924631267e-04 +0.0000000000000000e+00 +9.9999996104724542e-01
-5.0999999999999899e+00 +8.5382817426941440e+00 +0.0000000000000000e+00 -5.0999999325399825e+00 +2.8188660127451669e-04 +0.0000000000000000e+00 +9.9999996026997073e-01
-5.1499999999999897e+00 +8.5382675790846747e+00 +0.0000000000000000e+00 -5.1499999305338884e+00 +2.8465780837158854e-04 +0.0000000000000000e+00 +9.9999995948496478e-01
-5.1999999999999895e+00 +8.5382532769102095e+00 +0.0000000000000000e+00 -5.1999999284883502e+00 +2.8742920129008217e-04 +0.0000000000000000e+00 +9.9999995869222580e-01
-5.2499999999999893e+00 +8.5382388361614368e+00 +0.0000000000000000e+00 -5.2499999264029817e+00 +2.9020078076889464e-04 +0.0000000000000000e+00 +9.9999995789175211e-01
-5.2999999999999892e+00 +8.5382242568290110e+00 +0.0000000000000000e+00 -5.2999999242773965e+00 +2.9297254753326630e-04 +0.0000000000000000e+00 +9.9999995708354183e-01
-5.3499999999999890e+00 +8.5382095389035495e+00 +0.0000000000000000e+00 -5.3499999221112073e+00 +2.9574450229478060e-04 +0.0000000000000000e+00 +9.9999995626759330e-01
-5.3999999999999888e+00 +8.5381946823756358e+00 +0.0000000000000000e+00 -5.3999999199040269e+00 +2.9851664575136403e-04 +0.0000000000000000e+00 +9.9999995544390474e-01
-5.4499999999999886e+00 +8.5381796872358180e+00 +0.0000000000000000e+00 -5.4499999176554690e+00 +3.0128897858728616e-04 +0.0000000000000000e+00 +9.9999995461247426e-01
-5.4999999999999885e+00 +8.5381645534746102e+00 +0.0000000000000000e+00 -5.4999999153651453e+00 +3.0406150147315949e-04 +0.0000000000000000e+00 +9.9999995377330020e-01
-5.5499999999999883e+00 +8.5381492810824930e+00 +0.0000000000000000e+00 -5.5499999130326696e+00 +3.0683421506593947e-04 +0.0000000000000000e+00 +9.9999995292638078e-01
-5.5999999999999881e+00 +8.5381338700499150e+00 +0.0000000000000000e+00 -5.5999999106576546e+00 +3.0960712000892445e-04 +0.0000000000000000e+00 +9.9999995207171410e-01
-5.6499999999999879e+00 +8.5381183203672926e+00 +0.0000000000000000e+00 -5.6499999082397121e+00 +3.1238021693175545e-04 +0.0000000000000000e+00 +9.9999995120929852e-01
-5.6999999999999877e+00 +8.5381026320250122e+00 +0.0000000000000000e+00 -5.6999999057784549e+00 +3.1515350645041642e-04 +0.0000000000000000e+00 +9.9999995033913214e-01
-5.7499999999999876e+00 +8.5380868050134282e+00 +0.0000000000000000e+00 -5.7499999032734959e+00 +3.1792698916723380e-04 +0.0000000000000000e+00 +9.9999994946121318e-01
-5.7999999999999874e+00 +8.5380708393228666e+00 +0.0000000000000000e+00 -5.7999999007244467e+00 +3.2070066567087681e-04 +0.0000000000000000e+00 +9.9999994857553987e-01
-5.8499999999999872e+00 +8.5380547349436231e+00 +0.0000000000000000e+00 -5.8499998981309203e+00 +3.2347453653635709e-04 +0.0000000000000000e+00 +9.9999994768211042e-01
