# trajectory
# s[mm] rx[mm] ry[mm] rz[mm] px[rad] py[rad] pz[rad]
0.0000000000000000e+00 +8.2850000000000001e+00 +0.0000000000000000e+00 +0.0000000000000000e+00 +0.0000000000000000e+00 +0.0000000000000000e+00 +1.0000000000000000e+00
5.0000000000000003e-02 +8.2849999311475546e+00 +0.0000000000000000e+00 +4.9999999999936789e-02 -2.7540965536373047e-06 +0.0000000000000000e+00 +9.9999999999620748e-01
1.0000000000000001e-01 +8.2849997245904508e+00 +0.0000000000000000e+00 +9.9999999999494327e-02 -5.5081866831234044e-06 +0.0000000000000000e+00 +9.9999999998482991e-01
1.5000000000000002e-01 +8.2849993803289586e+00 +0.0000000000000000e+00 +1.4999999999829336e-01 -8.2622724128991415e-06 +0.0000000000000000e+00 +9.9999999996586741e-01
2.0000000000000001e-01 +8.2849988983632485e+00 +0.0000000000000000e+00 +1.9999999999595464e-01 -1.1016355763889179e-05 +0.0000000000000000e+00 +9.9999999993931998e-01
2.5000000000000000e-01 +8.2849982786933882e+00 +0.0000000000000000e+00 +2.4999999999209893e-01 -1.3770438753502099e-05 +0.0000000000000000e+00 +9.9999999990518751e-01
2.9999999999999999e-01 +8.2849975213193456e+00 +0.0000000000000000e+00 +2.9999999998634697e-01 -1.6524523395630482e-05 +0.0000000000000000e+00 +9.9999999986347010e-01
3.4999999999999998e-01 +8.2849966262409875e+00 +0.0000000000000000e+00 +3.4999999997831949e-01 -1.9278611700651016e-05 +0.0000000000000000e+00 +9.9999999981416765e-01
3.9999999999999997e-01 +8.2849955934580812e+00 +0.0000000000000000e+00 +3.9999999996763730e-01 -2.2032705675424574e-05 +0.0000000000000000e+00 +9.9999999975728004e-01
4.4999999999999996e-01 +8.2849944229702928e+00 +0.0000000000000000e+00 +4.4999999995392109e-01 -2.4786807323296312e-05 +0.0000000000000000e+00 +9.9999999969280717e-01
4.9999999999999994e-01 +8.2849931147771887e+00 +0.0000000000000000e+00 +4.9999999993679162e-01 -2.7540918644095761e-05 +0.0000000000000000e+00 +9.9999999962074904e-01
5.4999999999999993e-01 +8.2849916688782343e+00 +0.0000000000000000e+00 +5.4999999991586956e-01 -3.0295041634136914e-05 +0.0000000000000000e+00 +9.9999999954110541e-01
5.9999999999999998e-01 +8.2849900852727973e+00 +0.0000000000000000e+00 +5.9999999989077568e-01 -3.3049178286218323e-05 +0.0000000000000000e+00 +9.9999999945387608e-01
6.5000000000000002e-01 +8.2849883639601440e+00 +0.0000000000000000e+00 +6.4999999986113077e-01 -3.5803330589623191e-05 +0.0000000000000000e+00 +9.9999999935906092e-01
7.0000000000000007e-01 +8.2849865049394431e+00 +0.0000000000000000e+00 +6.9999999982655536e-01 -3.8557500530119451e-05 +0.0000000000000000e+00 +9.9999999925665972e-01
7.5000000000000011e-01 +8.2849845082097637e+00 +0.0000000000000000e+00 +7.4999999978667031e-01 -4.1311690089959872e-05 +0.0000000000000000e+00 +9.9999999914667226e-01
8.0000000000000016e-01 +8.2849823737700738e+00 +0.0000000000000000e+00 +7.9999999974109615e-01 -4.4065901247882136e-05 +0.0000000000000000e+00 +9.9999999902909831e-01
8.5000000000000020e-01 +8.2849801016192455e+00 +0.0000000000000000e+00 +8.4999999968945361e-01 -4.6820135979108936e-05 +0.0000000000000000e+00 +9.9999999890393754e-01
9.0000000000000024e-01 +8.2849776917560494e+00 +0.0000000000000000e+00 +8.9999999963136346e-01 -4.9574396255348063e-05 +0.0000000000000000e+00 +9.9999999877118972e-01
9.5000000000000029e-01 +8.2849751441791604e+00 +0.0000000000000000e+00 +9.4999999956644621e-01 -5.2328684044792507e-05 +0.0000000000000000e+00 +9.9999999863085454e-01
1.0000000000000002e+00 +8.2849724588871538e+00 +0.0000000000000000e+00 +9.9999999949432250e-01 -5.5083001312120525e-05 +0.0000000000000000e+00 +9.9999999848293164e-01
1.0500000000000003e+00 +8.2849696358785057e+00 +0.0000000000000000e+00 +1.0499999994146130e+00 -5.7837350018495750e-05 +0.0000000000000000e+00 +9.9999999832742059e-01
1.1000000000000003e+00 +8.2849666751515958e+00 +0.0000000000000000e+00 +1.0999999993269380e+00 -6.0591732121567279e-05 +0.0000000000000000e+00 +9.9999999816432117e-01
1.1500000000000004e+00 +8.2849635767047047e+00 +0.0000000000000000e+00 +1.1499999992309184e+00 -6.3346149575469740e-05 +0.0000000000000000e+00 +9.9999999799363282e-01
1.2000000000000004e+00 +8.2849603405360170e+00 +0.0000000000000000e+00 +1.1999999991261747e+00 -6.6100604330823415e-05 +0.0000000000000000e+00 +9.9999999781535520e-01
1.2500000000000004e+00 +8.2849569666436178e+00 +0.0000000000000000e+00 +1.2499999990123274e+00 -6.8855098334734307e-05 +0.0000000000000000e+00 +9.9999999762948788e-01
1.3000000000000005e+00 +8.2849534550254962e+00 +0.0000000000000000e+00 +1.2999999988889970e+00 -7.1609633530794243e-05 +0.0000000000000000e+00 +9.9999999743603041e-01
1.3500000000000005e+00 +8.2849498056795454e+00 +0.0000000000000000e+00 +1.3499999987558040e+00 -7.4364211859080933e-05 +0.0000000000000000e+00 +9.9999999723498223e-01
1.4000000000000006e+00 +8.2849460186035593e+00 +0.0000000000000000e+00 +1.3999999986123688e+00 -7.7118835256158091e-05 +0.0000000000000000e+00 +9.9999999702634290e-01
1.4500000000000006e+00 +8.2849420937952356e+00 +0.0000000000000000e+00 +1.4499999984583118e+00 -7.9873505655075509e-05 +0.0000000000000000e+00 +9.9999999681011187e-01
1.5000000000000007e+00 +8.2849380312521781e+00 +0.0000000000000000e+00 +1.4999999982932535e+00 -8.2628224985369157e-05 +0.0000000000000000e+00 +9.9999999658628858e-01
1.5500000000000007e+00 +8.2849338309718892e+00 +0.0000000000000000e+00 +1.5499999981168142e+00 -8.5382995173061257e-05 +0.0000000000000000e+00 +9.9999999635487247e-01
1.6000000000000008e+00 +8.2849294929517807e+00 +0.0000000000000000e+00 +1.5999999979286141e+00 -8.8137818140660362e-05 +0.0000000000000000e+00 +9.9999999611586288e-01
1.6500000000000008e+00 +8.2849250171891633e+00 +0.0000000000000000e+00 +1.6499999977282738e+00 -9.0892695807161478e-05 +0.0000000000000000e+00 +9.9999999586925925e-01
1.7000000000000008e+00 +8.2849204036812552e+00 +0.0000000000000000e+00 +1.6999999975154134e+00 -9.3647630088046117e-05 +0.0000000000000000e+00 +9.9999999561506103e-01
1.7500000000000009e+00 +8.2849156524251786e+00 +0.0000000000000000e+00 +1.7499999972896534e+00 -9.6402622895282408e-05 +0.0000000000000000e+00 +9.9999999535326745e-01
1.8000000000000009e+00 +8.2849107634179582e+00 +0.0000000000000000e+00 +1.7999999970506138e+00 -9.9157676137325164e-05 +0.0000000000000000e+00 +9.9999999508387794e-01
1.8500000000000010e+00 +8.2849057366565262e+00 +0.0000000000000000e+00 +1.8499999967979146e+00 -1.0191279171911598e-04 +0.0000000000000000e+00 +9.9999999480689172e-01
1.9000000000000010e+00 +8.2849005721377171e+00 +0.0000000000000000e+00 +1.8999999965311762e+00 -1.0466797154208332e-04 +0.0000000000000000e+00 +9.9999999452230814e-01
1.9500000000000011e+00 +8.2848952698582696e+00 +0.0000000000000000e+00 +1.9499999962500187e+00 -1.0742321750414263e-04 +0.0000000000000000e+00 +9.9999999423012642e-01
2.0000000000000009e+00 +8.2848898298148317e+00 +0.0000000000000000e+00 +1.9999999959540622e+00 -1.1017853149969636e-04 +0.0000000000000000e+00 +9.9999999393034589e-01
2.0500000000000007e+00 +8.2848842520039536e+00 +0.0000000000000000e+00 +2.0499999956429265e+00 -1.1293391541930255e-04 +0.0000000000000000e+00 +9.9999999362296565e-01
2.1000000000000005e+00 +8.2848785364220934e+00 +0.0000000000000000e+00 +2.0999999953162320e+00 -1.1568937114602769e-04 +0.0000000000000000e+00 +9.9999999330798495e-01
2.1500000000000004e+00 +8.2848726830656112e+00 +0.0000000000000000e+00 +2.1499999949735984e+00 -1.1844490055179966e-04 +0.0000000000000000e+00 +9.9999999298540299e-01
2.2000000000000002e+00 +8.2848666919307785e+00 +0.0000000000000000e+00 +2.1999999946146458e+00 -1.2120050549707620e-04 +0.0000000000000000e+00 +9.9999999265521899e-01
2.2500000000000000e+00 +8.2848605630137708e+00 +0.0000000000000000e+00 +2.2499999942389937e+00 -1.2395618783084500e-04 +0.0000000000000000e+00 +9.9999999231743197e-01
2.2999999999999998e+00 +8.2848542963106748e+00 +0.0000000000000000e+00 +2.2999999938462623e+00 -1.2671194939062373e-04 +0.0000000000000000e+00 +9.9999999197204115e-01
2.3499999999999996e+00 +8.2848478918174813e+00 +0.0000000000000000e+00 +2.3499999934360711e+00 -1.2946779200246017e-04 +0.0000000000000000e+00 +9.9999999161904563e-01
2.3999999999999995e+00 +8.2848413495300939e+00 +0.0000000000000000e+00 +2.3999999930080400e+00 -1.3222371748093214e-04 +0.0000000000000000e+00 +9.9999999125844452e-01
2.4499999999999993e+00 +8.2848346694443222e+00 +0.0000000000000000e+00 +2.4499999925617888e+00 -1.3497972762914771e-04 +0.0000000000000000e+00 +9.9999999089023683e-01
2.4999999999999991e+00 +8.2848278515558889e+00 +0.0000000000000000e+00 +2.4999999920969369e+00 -1.3773582423874520e-04 +0.0000000000000000e+00 +9.9999999051442168e-01
2.5499999999999989e+00 +8.2848208958604275e+00 +0.0000000000000000e+00 +2.5499999916131042e+00 -1.4049200908989315e-04 +0.0000000000000000e+00 +9.9999999013099805e-01
2.5999999999999988e+00 +8.2848138023534794e+00 +0.0000000000000000e+00 +2.5999999911099101e+00 -1.4324828395129052e-04 +0.0000000000000000e+00 +9.9999998973996496e-01
2.6499999999999986e+00 +8.2848065710305026e+00 +0.0000000000000000e+00 +2.6499999905869740e+00 -1.4600465058016665e-04 +0.0000000000000000e+00 +9.9999998934132139e-01
2.6999999999999984e+00 +8.2847992018868641e+00 +0.0000000000000000e+00 +2.6999999900439153e+00 -1.4876111072228135e-04 +0.0000000000000000e+00 +9.9999998893506636e-01
2.7499999999999982e+00 +8.2847916949178444e+00 +0.0000000000000000e+00 +2.7499999894803535e+00 -1.5151766611192492e-04 +0.0000000000000000e+00 +9.9999998852119887e-01
2.7999999999999980e+00 +8.2847840501186383e+00 +0.0000000000000000e+00 +2.7999999888959080e+00 -1.5427431847191822e-04 +0.0000000000000000e+00 +9.9999998809971780e-01
2.8499999999999979e+00 +8.2847762674843537e+00 +0.0000000000000000e+00 +2.8499999882901981e+00 -1.5703106951361274e-04 +0.0000000000000000e+00 +9.9999998767062204e-01
2.8999999999999977e+00 +8.2847683470100151e+00 +0.0000000000000000e+00 +2.8999999876628433e+00 -1.5978792093689060e-04 +0.0000000000000000e+00 +9.9999998723391059e-01
2.9499999999999975e+00 +8.2847602886905598e+00 +0.0000000000000000e+00 +2.9499999870134626e+00 -1.6254487443016462e-04 +0.0000000000000000e+00 +9.9999998678958235e-01
2.9999999999999973e+00 +8.2847520925208435e+00 +0.0000000000000000e+00 +2.9999999863416749e+00 -1.6530193167037840e-04 +0.0000000000000000e+00 +9.9999998633763609e-01
3.0499999999999972e+00 +8.2847437584956367e+00 +0.0000000000000000e+00 +3.0499999856470992e+00 -1.6805909432300630e-04 +0.0000000000000000e+00 +9.9999998587807082e-01
3.0999999999999970e+00 +8.2847352866096280e+00 +0.0000000000000000e+00 +3.0999999849293549e+00 -1.7081636404205349e-04 +0.0000000000000000e+00 +9.9999998541088531e-01
3.1499999999999968e+00 +8.2847266768574208e+00 +0.0000000000000000e+00 +3.1499999841880606e+00 -1.7357374247005603e-04 +0.0000000000000000e+00 +9.9999998493607833e-01
3.1999999999999966e+00 +8.2847179292335404e+00 +0.0000000000000000e+00 +3.1999999834228356e+00 -1.7633123123808093e-04 +0.0000000000000000e+00 +9.9999998445364879e-01
3.2499999999999964e+00 +8.2847090437324304e+00 +0.0000000000000000e+00 +3.2499999826332986e+00 -1.7908883196572609e-04 +0.0000000000000000e+00 +9.9999998396359546e-01
3.2999999999999963e+00 +8.2847000203484509e+00 +0.0000000000000000e+00 +3.2999999818190684e+00 -1.8184654626112040e-04 +0.0000000000000000e+00 +9.9999998346591712e-01
3.3499999999999961e+00 +8.2846908590758837e+00 +0.0000000000000000e+00 +3.3499999809797636e+00 -1.8460437572092380e-04 +0.0000000000000000e+00 +9.9999998296061254e-01
3.3999999999999959e+00 +8.2846815599089325e+00 +0.0000000000000000e+00 +3.3999999801150027e+00 -1.8736232193032726e-04 +0.0000000000000000e+00 +9.9999998244768051e-01
3.4499999999999957e+00 +8.2846721228417195e+00 +0.0000000000000000e+00 +3.4499999792244047e+00 -1.9012038646305283e-04 +0.0000000000000000e+00 +9.9999998192711970e-01
3.4999999999999956e+00 +8.2846625478682885e+00 +0.0000000000000000e+00 +3.4999999783075877e+00 -1.9287857088135372e-04 +0.0000000000000000e+00 +9.9999998139892876e-01
3.5499999999999954e+00 +8.2846528349826070e+00 +0.0000000000000000e+00 +3.5499999773641702e+00 -1.9563687673601425e-04 +0.0000000000000000e+00 +9.9999998086310649e-01
3.5999999999999952e+00 +8.2846429841785643e+00 +0.0000000000000000e+00 +3.5999999763937711e+00 -1.9839530556634992e-04 +0.0000000000000000e+00 +9.9999998031965165e-01
3.6499999999999950e+00 +8.2846329954499751e+00 +0.0000000000000000e+00 +3.6499999753960082e+00 -2.0115385890020742e-04 +0.0000000000000000e+00 +9.9999997976856281e-01
3.6999999999999948e+00 +8.2846228687905743e+00 +0.0000000000000000e+00 +3.6999999743704999e+00 -2.0391253825396470e-04 +0.0000000000000000e+00 +9.9999997920983863e-01
3.7499999999999947e+00 +8.2846126041940238e+00 +0.0000000000000000e+00 +3.7499999733168647e+00 -2.0667134513253097e-04 +0.0000000000000000e+00 +9.9999997864347778e-01
3.7999999999999945e+00 +8.2846022016539109e+00 +0.0000000000000000e+00 +3.7999999722347204e+00 -2.0943028102934666e-04 +0.0000000000000000e+00 +9.9999997806947893e-01
3.8499999999999943e+00 +8.2845916611637467e+00 +0.0000000000000000e+00 +3.8499999711236854e+00 -2.1218934742638359e-04 +0.0000000000000000e+00 +9.9999997748784064e-01
3.8999999999999941e+00 +8.2845809827169692e+00 +0.0000000000000000e+00 +3.8999999699833774e+00 -2.1494854579414479e-04 +0.0000000000000000e+00 +9.9999997689856157e-01
3.9499999999999940e+00 +8.2845701663069438e+00 +0.0000000000000000e+00 +3.9499999688134144e+00 -2.1770787759166471e-04 +0.0000000000000000e+00 +9.9999997630164028e-01
3.9999999999999938e+00 +8.2845592119269629e+00 +0.0000000000000000e+00 +3.9999999676134141e+00 -2.2046734426650914e-04 +0.0000000000000000e+00 +9.9999997569707533e-01
4.0499999999999936e+00 +8.2845481195702462e+00 +0.0000000000000000e+00 +4.0499999663829946e+00 -2.2322694725465477e-04 +0.0000000000000000e+00 +9.9999997508486527e-01
4.0999999999999934e+00 +8.2845368892299422e+00 +0.0000000000000000e+00 +4.0999999651217731e+00 -2.2598668797916383e-04 +0.0000000000000000e+00 +9.9999997446500866e-01
4.1499999999999932e+00 +8.2845255208991286e+00 +0.0000000000000000e+00 +4.1499999638293676e+00 -2.2874656784885891e-04 +0.0000000000000000e+00 +9.9999997383750405e-01
4.1999999999999931e+00 +8.2845140145708136e+00 +0.0000000000000000e+00 +4.1999999625053963e+00 -2.3150658825820235e-04 +0.0000000000000000e+00 +9.9999997320235001e-01
4.2499999999999929e+00 +8.2845023702379361e+00 +0.0000000000000000e+00 +4.2499999611494754e+00 -2.3426675058729637e-04 +0.0000000000000000e+00 +9.9999997255954498e-01
4.2999999999999927e+00 +8.2844905878933659e+00 +0.0000000000000000e+00 +4.2999999597612231e+00 -2.3702705620188302e-04 +0.0000000000000000e+00 +9.9999997190908751e-01
4.3499999999999925e+00 +8.2844786675299051e+00 +0.0000000000000000e+00 +4.3499999583402564e+00 -2.3978750645334423e-04 +0.0000000000000000e+00 +9.9999997125097606e-01
4.3999999999999924e+00 +8.2844666091402885e+00 +0.0000000000000000e+00 +4.3999999568861927e+00 -2.4254810267870173e-04 +0.0000000000000000e+00 +9.9999997058520906e-01
4.4499999999999922e+00 +8.2844544127171833e+00 +0.0000000000000000e+00 +4.4499999553986491e+00 -2.4530884620061719e-04 +0.0000000000000000e+00 +9.9999996991178508e-01
4.4999999999999920e+00 +8.2844420782531927e+00 +0.0000000000000000e+00 +4.4999999538772428e+00 -2.4806973832739218e-04 +0.0000000000000000e+00 +9.9999996923070256e-01
4.5499999999999918e+00 +8.2844296057408524e+00 +0.0000000000000000e+00 +4.5499999523215910e+00 -2.5083078035296807e-04 +0.0000000000000000e+00 +9.9999996854195994e-01
4.5999999999999917e+00 +8.2844169951726379e+00 +0.0000000000000000e+00 +4.5999999507313110e+00 -2.5359197355692622e-04 +0.0000000000000000e+00 +9.9999996784555556e-01
4.6499999999999915e+00 +8.2844042465409569e+00 +0.0000000000000000e+00 +4.6499999491060189e+00 -2.5635331920448778e-04 +0.0000000000000000e+00 +9.9999996714148798e-01
4.6999999999999913e+00 +8.2843913598381569e+00 +0.0000000000000000e+00 +4.6999999474453320e+00 -2.5911481854651389e-04 +0.0000000000000000e+00 +9.9999996642975553e-01
4.7499999999999911e+00 +8.2843783350565214e+00 +0.0000000000000000e+00 +4.7499999457488666e+00 -2.6187647281950558e-04 +0.0000000000000000e+00 +9.9999996571035654e-01
4.7999999999999909e+00 +8.2843651721882736e+00 +0.0000000000000000e+00 +4.7999999440162400e+00 -2.6463828324560371e-04 +0.0000000000000000e+00 +9.9999996498328958e-01
4.8499999999999908e+00 +8.2843518712255744e+00 +0.0000000000000000e+00 +4.8499999422470683e+00 -2.6740025103258913e-04 +0.0000000000000000e+00 +9.9999996424855286e-01
4.8999999999999906e+00 +8.2843384321605278e+00 +0.0000000000000000e+00 +4.8999999404409680e+00 -2.7016237737388253e-04 +0.0000000000000000e+00 +9.9999996350614484e-01
4.9499999999999904e+00 +8.2843248549851758e+00 +0.0000000000000000e+00 +4.9499999385975553e+00 -2.7292466344854449e-04 +0.0000000000000000e+00 +9.9999996275606395e-01
4.9999999999999902e+00 +8.2843111396915017e+00 +0.0000000000000000e+00 +4.9999999367164465e+00 -2.7568711042127547e-04 +0.0000000000000000e+00 +9.9999996199830843e-01
5.0499999999999901e+00 +8.2842972862714319e+00 +0.0000000000000000e+00 +5.0499999347972579e+00 -2.7844971944241580e-04 +0.0000000000000000e+00 +9.9999996123287671e-01
5.0999999999999899e+00 +8.2842832947168361e+00 +0.0000000000000000e+00 +5.0999999328396060e+00 -2.8121249164794575e-04 +0.0000000000000000e+00 +9.9999996045976713e-01
5.1499999999999897e+00 +8.2842691650195270e+00 +0.0000000000000000e+00 +5.1499999308431068e+00 -2.8397542815948536e-04 +0.0000000000000000e+00 +9.9999995967897792e-01
5.1999999999999895e+00 +8.2842548971712624e+00 +0.0000000000000000e+00 +5.1999999288073759e+00 -2.8673853008429458e-04 +0.0000000000000000e+00 +9.9999995889050752e-01
5.2499999999999893e+00 +8.2842404911637431e+00 +0.0000000000000000e+00 +5.2499999267320296e+00 -2.8950179851527322e-04 +0.0000000000000000e+00 +9.9999995809435416e-01
5.2999999999999892e+00 +8.2842259469886166e+00 +0.0000000000000000e+00 +5.2999999246166833e+00 -2.9226523453096084e-04 +0.0000000000000000e+00 +9.9999995729051616e-01
5.3499999999999890e+00 +8.2842112646374790e+00 +0.0000000000000000e+00 +5.3499999224609533e+00 -2.9502883919553681e-04 +0.0000000000000000e+00 +9.9999995647899176e-01
5.3999999999999888e+00 +8.2841964441018696e+00 +0.0000000000000000e+00 +5.3999999202644551e+00 -2.9779261355882035e-04 +0.0000000000000000e+00 +9.9999995565977939e-01
5.4499999999999886e+00 +8.2841814853732778e+00 +0.0000000000000000e+00 +5.4499999180268039e+00 -3.0055655865627050e-04 +0.0000000000000000e+00 +9.9999995483287718e-01
5.4999999999999885e+00 +8.2841663884431416e+00 +0.0000000000000000e+00 +5.4999999157476154e+00 -3.0332067550898592e-04 +0.0000000000000000e+00 +9.9999995399828356e-01
5.5499999999999883e+00 +8.2841511533028473e+00 +0.0000000000000000e+00 +5.5499999134265048e+00 -3.0608496512370516e-04 +0.0000000000000000e+00 +9.9999995315599666e-01
5.5999999999999881e+00 +8.2841357799437336e+00 +0.0000000000000000e+00 +5.5999999110630867e+00 -3.0884942849280638e-04 +0.0000000000000000e+00 +9.9999995230601479e-01
5.6499999999999879e+00 +8.2841202683570874e+00 +0.0000000000000000e+00 +5.6499999086569774e+00 -3.1161406659430748e-04 +0.0000000000000000e+00 +9.9999995144833620e-01
5.6999999999999877e+00 +8.2841046185341476e+00 +0.0000000000000000e+00 +5.6999999062077915e+00 -3.1437888039186605e-04 +0.0000000000000000e+00 +9.9999995058295921e-01
5.7499999999999876e+00 +8.2840888304661053e+00 +0.0000000000000000e+00 +5.7499999037151444e+00 -3.1714387083477927e-04 +0.0000000000000000e+00 +9.9999994970988193e-01
5.7999999999999874e+00 +8.2840729041441055e+00 +0.0000000000000000e+00 +5.7999999011786514e+00 -3.1990903885798405e-04 +0.0000000000000000e+00 +9.9999994882910270e-01
5.8499999999999872e+00 +8.2840568395592449e+00 +0.0000000000000000e+00 +5.8499998985979262e+00 -3.2267438538205679e-04 +0.0000000000000000e+00 +9.9999994794061975e-01
5.8999999999999870e+00 +8.2840406367025761e+00 +0.0000000000000000e+00 +5.8999998959725843e+00 -3.2543991131321354e-04 +0.0000000000000000e+00 +9.9999994704443129e-01
