# trajectory
# s[mm] rx[mm] ry[mm] rz[mm] px[rad] py[rad] pz[rad]
0.0000000000000000e+00 +8.2850000000000001e+00 +0.0000000000000000e+00 +0.0000000000000000e+00 +0.0000000000000000e+00 +0.0000000000000000e+00 +1.0000000000000000e+00
5.0000000000000003e-02 +8.2849999311458742e+00 +0.0000000000000000e+00 +4.9999999999936789e-02 -2.7541647212884440e-06 +0.0000000000000000e+00 +9.9999999999620726e-01
1.0000000000000001e-01 +8.2849997245835425e+00 +0.0000000000000000e+00 +9.9999999999494299e-02 -5.5083285891591445e-06 +0.0000000000000000e+00 +9.9999999998482914e-01
1.5000000000000002e-01 +8.2849993803129962e+00 +0.0000000000000000e+00 +1.4999999999829328e-01 -8.2624936096745966e-06 +0.0000000000000000e+00 +9.9999999996586553e-01
2.0000000000000001e-01 +8.2849988983341287e+00 +0.0000000000000000e+00 +1.9999999999595444e-01 -1.1016661785026245e-05 +0.0000000000000000e+00 +9.9999999993931654e-01
2.5000000000000000e-01 +8.2849982786467322e+00 +0.0000000000000000e+00 +2.4999999999209851e-01 -1.3770835113534580e-05 +0.0000000000000000e+00 +9.9999999990518196e-01
2.9999999999999999e-01 +8.2849975212504994e+00 +0.0000000000000000e+00 +2.9999999998634619e-01 -1.6525015589649226e-05 +0.0000000000000000e+00 +9.9999999986346189e-01
3.4999999999999998e-01 +8.2849966261450216e+00 +0.0000000000000000e+00 +3.4999999997831821e-01 -1.9279205203949041e-05 +0.0000000000000000e+00 +9.9999999981415610e-01
3.9999999999999997e-01 +8.2849955933297927e+00 +0.0000000000000000e+00 +3.9999999996763536e-01 -2.2033405943142193e-05 +0.0000000000000000e+00 +9.9999999975726450e-01
4.4999999999999996e-01 +8.2849944228042087e+00 +0.0000000000000000e+00 +4.4999999995391826e-01 -2.4787619790066260e-05 +0.0000000000000000e+00 +9.9999999969278697e-01
4.9999999999999994e-01 +8.2849931145675626e+00 +0.0000000000000000e+00 +4.9999999993678762e-01 -2.7541848723688317e-05 +0.0000000000000000e+00 +9.9999999962072328e-01
5.4999999999999993e-01 +8.2849916686190515e+00 +0.0000000000000000e+00 +5.4999999991586412e-01 -3.0296094719105029e-05 +0.0000000000000000e+00 +9.9999999954107333e-01
5.9999999999999998e-01 +8.2849900849577729e+00 +0.0000000000000000e+00 +5.9999999989076847e-01 -3.3050359747542733e-05 +0.0000000000000000e+00 +9.9999999945383689e-01
6.5000000000000002e-01 +8.2849883635827268e+00 +0.0000000000000000e+00 +6.4999999986112134e-01 -3.5804645776357537e-05 +0.0000000000000000e+00 +9.9999999935901374e-01
7.0000000000000007e-01 +8.2849865044928137e+00 +0.0000000000000000e+00 +6.9999999982654337e-01 -3.8558954769035398e-05 +0.0000000000000000e+00 +9.9999999925660354e-01
7.5000000000000011e-01 +8.2849845076868345e+00 +0.0000000000000000e+00 +7.4999999978665521e-01 -4.1313288685192216e-05 +0.0000000000000000e+00 +9.9999999914660609e-01
8.0000000000000016e-01 +8.2849823731634960e+00 +0.0000000000000000e+00 +7.9999999974107749e-01 -4.4067649480573919e-05 +0.0000000000000000e+00 +9.9999999902902115e-01
8.5000000000000020e-01 +8.2849801009214055e+00 +0.0000000000000000e+00 +8.4999999968943085e-01 -4.6822039107056555e-05 +0.0000000000000000e+00 +9.9999999890384839e-01
9.0000000000000024e-01 +8.2849776909590727e+00 +0.0000000000000000e+00 +8.9999999963133581e-01 -4.9576459512646373e-05 +0.0000000000000000e+00 +9.9999999877108736e-01
9.5000000000000029e-01 +8.2849751432749095e+00 +0.0000000000000000e+00 +9.4999999956641301e-01 -5.2330912641479915e-05 +0.0000000000000000e+00 +9.9999999863073785e-01
1.0000000000000002e+00 +8.2849724578672319e+00 +0.0000000000000000e+00 +9.9999999949428309e-01 -5.5085400433824092e-05 +0.0000000000000000e+00 +9.9999999848279941e-01
1.0500000000000003e+00 +8.2849696347342565e+00 +0.0000000000000000e+00 +1.0499999994145666e+00 -5.7839924826076282e-05 +0.0000000000000000e+00 +9.9999999832727160e-01
1.1000000000000003e+00 +8.2849666738741075e+00 +0.0000000000000000e+00 +1.0999999993268839e+00 -6.0594487750764416e-05 +0.0000000000000000e+00 +9.9999999816415408e-01
1.1500000000000004e+00 +8.2849635752848076e+00 +0.0000000000000000e+00 +1.1499999992308556e+00 -6.3349091136547046e-05 +0.0000000000000000e+00 +9.9999999799344641e-01
1.2000000000000004e+00 +8.2849603389642876e+00 +0.0000000000000000e+00 +1.1999999991261021e+00 -6.6103736908213446e-05 +0.0000000000000000e+00 +9.9999999781514803e-01
1.2500000000000004e+00 +8.2849569649103785e+00 +0.0000000000000000e+00 +1.2499999990122439e+00 -6.8858426986683705e-05 +0.0000000000000000e+00 +9.9999999762925862e-01
1.3000000000000005e+00 +8.2849534531208189e+00 +0.0000000000000000e+00 +1.2999999988889015e+00 -7.1613163289008773e-05 +0.0000000000000000e+00 +9.9999999743577750e-01
1.3500000000000005e+00 +8.2849498035932481e+00 +0.0000000000000000e+00 +1.3499999987556952e+00 -7.4367947728370596e-05 +0.0000000000000000e+00 +9.9999999723470423e-01
1.4000000000000006e+00 +8.2849460163252129e+00 +0.0000000000000000e+00 +1.3999999986122453e+00 -7.7122782214082147e-05 +0.0000000000000000e+00 +9.9999999702603826e-01
1.4500000000000006e+00 +8.2849420913141625e+00 +0.0000000000000000e+00 +1.4499999984581724e+00 -7.9877668651587557e-05 +0.0000000000000000e+00 +9.9999999680977902e-01
1.5000000000000007e+00 +8.2849380285574501e+00 +0.0000000000000000e+00 +1.4999999982930967e+00 -8.2632608942462160e-05 +0.0000000000000000e+00 +9.9999999658592598e-01
1.5500000000000007e+00 +8.2849338280523384e+00 +0.0000000000000000e+00 +1.5499999981166386e+00 -8.5387604984412597e-05 +0.0000000000000000e+00 +9.9999999635447845e-01
1.6000000000000008e+00 +8.2849294897959904e+00 +0.0000000000000000e+00 +1.5999999979284181e+00 -8.8142658671276888e-05 +0.0000000000000000e+00 +9.9999999611543589e-01
1.6500000000000008e+00 +8.2849250137854789e+00 +0.0000000000000000e+00 +1.6499999977280555e+00 -9.0897771893024522e-05 +0.0000000000000000e+00 +9.9999999586879751e-01
1.7000000000000008e+00 +8.2849204000177785e+00 +0.0000000000000000e+00 +1.6999999975151712e+00 -9.3652946535756530e-05 +0.0000000000000000e+00 +9.9999999561456276e-01
1.7500000000000009e+00 +8.2849156484897701e+00 +0.0000000000000000e+00 +1.7499999972893852e+00 -9.6408184481705563e-05 +0.0000000000000000e+00 +9.9999999535273099e-01
1.8000000000000009e+00 +8.2849107591982438e+00 +0.0000000000000000e+00 +1.7999999970503175e+00 -9.9163487609235974e-05 +0.0000000000000000e+00 +9.9999999508330140e-01
1.8500000000000010e+00 +8.2849057321398920e+00 +0.0000000000000000e+00 +1.8499999967975886e+00 -1.0191885779284393e-04 +0.0000000000000000e+00 +9.9999999480627322e-01
1.9000000000000010e+00 +8.2849005673113165e+00 +0.0000000000000000e+00 +1.8999999965308183e+00 -1.0467429690315742e-04 +0.0000000000000000e+00 +9.9999999452164579e-01
1.9500000000000011e+00 +8.2848952647090233e+00 +0.0000000000000000e+00 +1.9499999962496266e+00 -1.0742980680693641e-04 +0.0000000000000000e+00 +9.9999999422941832e-01
2.0000000000000009e+00 +8.2848898243294258e+00 +0.0000000000000000e+00 +1.9999999959536334e+00 -1.1018538936707288e-04 +0.0000000000000000e+00 +9.9999999392959005e-01
2.0500000000000007e+00 +8.2848842461688452e+00 +0.0000000000000000e+00 +2.0499999956424588e+00 -1.1294104644231160e-04 +0.0000000000000000e+00 +9.9999999362216008e-01
2.1000000000000005e+00 +8.2848785302235086e+00 +0.0000000000000000e+00 +2.0999999953157227e+00 -1.1569677988417788e-04 +0.0000000000000000e+00 +9.9999999330712763e-01
2.1500000000000004e+00 +8.2848726764895524e+00 +0.0000000000000000e+00 +2.1499999949730451e+00 -1.1845259153390526e-04 +0.0000000000000000e+00 +9.9999999298449183e-01
2.2000000000000002e+00 +8.2848666849630206e+00 +0.0000000000000000e+00 +2.1999999946140454e+00 -1.2120848322215629e-04 +0.0000000000000000e+00 +9.9999999265425188e-01
2.2500000000000000e+00 +8.2848605556398649e+00 +0.0000000000000000e+00 +2.2499999942383435e+00 -1.2396445676902260e-04 +0.0000000000000000e+00 +9.9999999231640679e-01
2.2999999999999998e+00 +8.2848542885159482e+00 +0.0000000000000000e+00 +2.2999999938455593e+00 -1.2672051398402489e-04 +0.0000000000000000e+00 +9.9999999197095568e-01
2.3499999999999996e+00 +8.2848478835870409e+00 +0.0000000000000000e+00 +2.3499999934353122e+00 -1.2947665666611312e-04 +0.0000000000000000e+00 +9.9999999161789765e-01
2.3999999999999995e+00 +8.2848413408488266e+00 +0.0000000000000000e+00 +2.3999999930072220e+00 -1.3223288660366644e-04 +0.0000000000000000e+00 +9.9999999125723182e-01
2.4499999999999993e+00 +8.2848346602968963e+00 +0.0000000000000000e+00 +2.4499999925609086e+00 -1.3498920557449332e-04 +0.0000000000000000e+00 +9.9999999088895719e-01
2.4999999999999991e+00 +8.2848278419267558e+00 +0.0000000000000000e+00 +2.4999999920959910e+00 -1.3774561534583160e-04 +0.0000000000000000e+00 +9.9999999051307276e-01
2.5499999999999989e+00 +8.2848208857338204e+00 +0.0000000000000000e+00 +2.5499999916120890e+00 -1.4050211767434851e-04 +0.0000000000000000e+00 +9.9999999012957752e-01
2.5999999999999988e+00 +8.2848137917134181e+00 +0.0000000000000000e+00 +2.5999999911088221e+00 -1.4325871430614080e-04 +0.0000000000000000e+00 +9.9999998973847049e-01
2.6499999999999986e+00 +8.2848065598607903e+00 +0.0000000000000000e+00 +2.6499999905858092e+00 -1.4601540697673469e-04 +0.0000000000000000e+00 +9.9999998933975054e-01
2.6999999999999984e+00 +8.2847991901710909e+00 +0.0000000000000000e+00 +2.6999999900426701e+00 -1.4877219741108599e-04 +0.0000000000000000e+00 +9.9999998893341668e-01
2.7499999999999982e+00 +8.2847916826393906e+00 +0.0000000000000000e+00 +2.7499999894790239e+00 -1.5152908732358011e-04 +0.0000000000000000e+00 +9.9999998851946792e-01
2.7999999999999980e+00 +8.2847840372606729e+00 +0.0000000000000000e+00 +2.7999999888944900e+00 -1.5428607841803219e-04 +0.0000000000000000e+00 +9.9999998809790303e-01
2.8499999999999979e+00 +8.2847762540298344e+00 +0.0000000000000000e+00 +2.8499999882886873e+00 -1.5704317238768705e-04 +0.0000000000000000e+00 +9.9999998766872100e-01
2.8999999999999977e+00 +8.2847683329416917e+00 +0.0000000000000000e+00 +2.8999999876612352e+00 -1.5980037091521926e-04 +0.0000000000000000e+00 +9.9999998723192074e-01
2.9499999999999975e+00 +8.2847602739909725e+00 +0.0000000000000000e+00 +2.9499999870117524e+00 -1.6255767567273325e-04 +0.0000000000000000e+00 +9.9999998678750102e-01
2.9999999999999973e+00 +8.2847520771723264e+00 +0.0000000000000000e+00 +2.9999999863398581e+00 -1.6531508832176331e-04 +0.0000000000000000e+00 +9.9999998633546072e-01
3.0499999999999972e+00 +8.2847437424803161e+00 +0.0000000000000000e+00 +3.0499999856451714e+00 -1.6807261051327360e-04 +0.0000000000000000e+00 +9.9999998587579875e-01
3.0999999999999970e+00 +8.2847352699094223e+00 +0.0000000000000000e+00 +3.0999999849273108e+00 -1.7083024388765824e-04 +0.0000000000000000e+00 +9.9999998540851387e-01
3.1499999999999968e+00 +8.2847266594540461e+00 +0.0000000000000000e+00 +3.1499999841858957e+00 -1.7358799007474132e-04 +0.0000000000000000e+00 +9.9999998493360487e-01
3.1999999999999966e+00 +8.2847179111085065e+00 +0.0000000000000000e+00 +3.1999999834205441e+00 -1.7634585069377701e-04 +0.0000000000000000e+00 +9.9999998445107052e-01
3.2499999999999964e+00 +8.2847090248670430e+00 +0.0000000000000000e+00 +3.2499999826308756e+00 -1.7910382735344949e-04 +0.0000000000000000e+00 +9.9999998396090961e-01
3.2999999999999963e+00 +8.2847000007238112e+00 +0.0000000000000000e+00 +3.2999999818165082e+00 -1.8186192165187305e-04 +0.0000000000000000e+00 +9.9999998346312080e-01
3.3499999999999961e+00 +8.2846908386728906e+00 +0.0000000000000000e+00 +3.3499999809770604e+00 -1.8462013517659215e-04 +0.0000000000000000e+00 +9.9999998295770287e-01
3.3999999999999959e+00 +8.2846815387082806e+00 +0.0000000000000000e+00 +3.3999999801121512e+00 -1.8737846950458138e-04 +0.0000000000000000e+00 +9.9999998244465460e-01
3.4499999999999957e+00 +8.2846721008239008e+00 +0.0000000000000000e+00 +3.4499999792213987e+00 -1.9013692620224561e-04 +0.0000000000000000e+00 +9.9999998192397466e-01
3.4999999999999956e+00 +8.2846625250135943e+00 +0.0000000000000000e+00 +3.4999999783044213e+00 -1.9289550682541988e-04 +0.0000000000000000e+00 +9.9999998139566171e-01
3.5499999999999954e+00 +8.2846528112711262e+00 +0.0000000000000000e+00 +3.5499999773608377e+00 -1.9565421291936955e-04 +0.0000000000000000e+00 +9.9999998085971442e-01
3.5999999999999952e+00 +8.2846429595901849e+00 +0.0000000000000000e+00 +3.5999999763902655e+00 -1.9841304601879025e-04 +0.0000000000000000e+00 +9.9999998031613146e-01
3.6499999999999950e+00 +8.2846329699643828e+00 +0.0000000000000000e+00 +3.6499999753923236e+00 -2.0117200764780796e-04 +0.0000000000000000e+00 +9.9999997976491151e-01
3.6999999999999948e+00 +8.2846228423872539e+00 +0.0000000000000000e+00 +3.6999999743666296e+00 -2.0393109931997905e-04 +0.0000000000000000e+00 +9.9999997920605321e-01
3.7499999999999947e+00 +8.2846125768522594e+00 +0.0000000000000000e+00 +3.7499999733128018e+00 -2.0669032253829025e-04 +0.0000000000000000e+00 +9.9999997863955514e-01
3.7999999999999945e+00 +8.2846021733527841e+00 +0.0000000000000000e+00 +3.7999999722304580e+00 -2.0944967879515871e-04 +0.0000000000000000e+00 +9.9999997806541585e-01
3.8499999999999943e+00 +8.2845916318821384e+00 +0.0000000000000000e+00 +3.8499999711192161e+00 -2.1220916957243201e-04 +0.0000000000000000e+00 +9.9999997748363401e-01
3.8999999999999941e+00 +8.2845809524335596e+00 +0.0000000000000000e+00 +3.8999999699786940e+00 -2.1496879634138824e-04 +0.0000000000000000e+00 +9.9999997689420816e-01
3.9499999999999940e+00 +8.2845701350002123e+00 +0.0000000000000000e+00 +3.9499999688085095e+00 -2.1772856056273592e-04 +0.0000000000000000e+00 +9.9999997629713677e-01
3.9999999999999938e+00 +8.2845591795751883e+00 +0.0000000000000000e+00 +3.9999999676082800e+00 -2.2048846368661414e-04 +0.0000000000000000e+00 +9.9999997569241850e-01
4.0499999999999936e+00 +8.2845480861515046e+00 +0.0000000000000000e+00 +4.0499999663776238e+00 -2.2324850715240379e-04 +0.0000000000000000e+00 +9.9999997508005178e-01
4.0999999999999934e+00 +8.2845368547221092e+00 +0.0000000000000000e+00 +4.0999999651161581e+00 -2.2600869238665220e-04 +0.0000000000000000e+00 +9.9999997446003519e-01
4.1499999999999932e+00 +8.2845254852798789e+00 +0.0000000000000000e+00 +4.1499999638235003e+00 -2.2876902080099767e-04 +0.0000000000000000e+00 +9.9999997383236727e-01
4.1999999999999931e+00 +8.2845139778176193e+00 +0.0000000000000000e+00 +4.1999999624992679e+00 -2.3152949379198090e-04 +0.0000000000000000e+00 +9.9999997319704648e-01
4.2499999999999929e+00 +8.2845023323280671e+00 +0.0000000000000000e+00 +4.2499999611430779e+00 -2.3429011274104483e-04 +0.0000000000000000e+00 +9.9999997255407125e-01
4.2999999999999927e+00 +8.2844905488038894e+00 +0.0000000000000000e+00 +4.2999999597545475e+00 -2.3705087901453479e-04 +0.0000000000000000e+00 +9.9999997190344003e-01
4.3499999999999925e+00 +8.2844786272376876e+00 +0.0000000000000000e+00 +4.3499999583332940e+00 -2.3981179396369840e-04 +0.0000000000000000e+00 +9.9999997124515139e-01
4.3999999999999924e+00 +8.2844665676219940e+00 +0.0000000000000000e+00 +4.3999999568789345e+00 -2.4257285892468564e-04 +0.0000000000000000e+00 +9.9999997057920365e-01
4.4499999999999922e+00 +8.2844543699492732e+00 +0.0000000000000000e+00 +4.4499999553910863e+00 -2.4533407521854883e-04 +0.0000000000000000e+00 +9.9999996990559537e-01
4.4999999999999920e+00 +8.2844420342119278e+00 +0.0000000000000000e+00 +4.4999999538693665e+00 -2.4809544415124263e-04 +0.0000000000000000e+00 +9.9999996922432488e-01
4.5499999999999918e+00 +8.2844295604022928e+00 +0.0000000000000000e+00 +4.5499999523133914e+00 -2.5085696701362400e-04 +0.0000000000000000e+00 +9.9999996853539064e-01
4.5999999999999917e+00 +8.2844169485126393e+00 +0.0000000000000000e+00 +4.5999999507227782e+00 -2.5361864508145223e-04 +0.0000000000000000e+00 +9.9999996783879097e-01
4.6499999999999915e+00 +8.2844041985351762e+00 +0.0000000000000000e+00 +4.6499999490971433e+00 -2.5638047961538897e-04 +0.0000000000000000e+00 +9.9999996713452433e-01
4.6999999999999913e+00 +8.2843913104620484e+00 +0.0000000000000000e+00 +4.6999999474361029e+00 -2.5914247186099816e-04 +0.0000000000000000e+00 +9.9999996642258915e-01
4.7499999999999911e+00 +8.2843782842853404e+00 +0.0000000000000000e+00 +4.7499999457392743e+00 -2.6190462304874604e-04 +0.0000000000000000e+00 +9.9999996570298366e-01
4.7999999999999909e+00 +8.2843651199970747e+00 +0.0000000000000000e+00 +4.7999999440062737e+00 -2.6466693439400113e-04 +0.0000000000000000e+00 +9.9999996497570631e-01
4.8499999999999908e+00 +8.2843518175892115e+00 +0.0000000000000000e+00 +4.8499999422367175e+00 -2.6742940709703427e-04 +0.0000000000000000e+00 +9.9999996424075543e-01
4.8999999999999906e+00 +8.2843383770536558e+00 +0.0000000000000000e+00 +4.8999999404302219e+00 -2.7019204234301851e-04 +0.0000000000000000e+00 +9.9999996349812947e-01
4.9499999999999904e+00 +8.2843247983822490e+00 +0.0000000000000000e+00 +4.9499999385864024e+00 -2.7295484130202918e-04 +0.0000000000000000e+00 +9.9999996274782665e-01
4.9999999999999902e+00 +8.2843110815667771e+00 +0.0000000000000000e+00 +4.9999999367048762e+00 -2.7571780512904387e-04 +0.0000000000000000e+00 +9.9999996198984531e-01
5.0499999999999901e+00 +8.2842972265989694e+00 +0.0000000000000000e+00 +5.0499999347852587e+00 -2.7848093496394237e-04 +0.0000000000000000e+00 +9.9999996122418378e-01
5.0999999999999899e+00 +8.2842832334704966e+00 +0.0000000000000000e+00 +5.0999999328271661e+00 -2.8124423193150671e-04 +0.0000000000000000e+00 +9.9999996045084028e-01
5.1499999999999897e+00 +8.2842691021729724e+00 +0.0000000000000000e+00 +5.1499999308302149e+00 -2.8400769714142100e-04 +0.0000000000000000e+00 +9.9999995966981325e-01
5.1999999999999895e+00 +8.2842548326979593e+00 +0.0000000000000000e+00 +5.1999999287940195e+00 -2.8677133168827164e-04 +0.0000000000000000e+00 +9.9999995888110094e-01
5.2499999999999893e+00 +8.2842404250369626e+00 +0.0000000000000000e+00 +5.2499999267181963e+00 -2.8953513665154701e-04 +0.0000000000000000e+00 +9.9999995808470155e-01
5.2999999999999892e+00 +8.2842258791814363e+00 +0.0000000000000000e+00 +5.2999999246023615e+00 -2.9229911309563771e-04 +0.0000000000000000e+00 +9.9999995728061342e-01
5.3499999999999890e+00 +8.2842111951227775e+00 +0.0000000000000000e+00 +5.3499999224461297e+00 -2.9506326206983646e-04 +0.0000000000000000e+00 +9.9999995646883488e-01
5.3999999999999888e+00 +8.2841963728523353e+00 +0.0000000000000000e+00 +5.3999999202491162e+00 -2.9782758460833789e-04 +0.0000000000000000e+00 +9.9999995564936406e-01
5.4499999999999886e+00 +8.2841814123614057e+00 +0.0000000000000000e+00 +5.4499999180109375e+00 -3.0059208173023876e-04 +0.0000000000000000e+00 +9.9999995482219928e-01
5.4999999999999885e+00 +8.2841663136412347e+00 +0.0000000000000000e+00 +5.4999999157312081e+00 -3.0335675443953777e-04 +0.0000000000000000e+00 +9.9999995398733876e-01
5.5499999999999883e+00 +8.2841510766830186e+00 +0.0000000000000000e+00 +5.5499999134095432e+00 -3.0612160372513566e-04 +0.0000000000000000e+00 +9.9999995314478085e-01
5.5999999999999881e+00 +8.2841357014779025e+00 +0.0000000000000000e+00 +5.5999999110455576e+00 -3.0888663056083502e-04 +0.0000000000000000e+00 +9.9999995229452365e-01
5.6499999999999879e+00 +8.2841201880169866e+00 +0.0000000000000000e+00 +5.6499999086388666e+00 -3.1165183590534031e-04 +0.0000000000000000e+00 +9.9999995143656550e-01
5.6999999999999877e+00 +8.2841045362913217e+00 +0.0000000000000000e+00 +5.6999999061890856e+00 -3.1441722070225795e-04 +0.0000000000000000e+00 +9.9999995057090452e-01
5.7499999999999876e+00 +8.2840887462919106e+00 +0.0000000000000000e+00 +5.7499999036958291e+00 -3.1718278588009608e-04 +0.0000000000000000e+00 +9.9999994969753903e-01
5.7999999999999874e+00 +8.2840728180097116e+00 +0.0000000000000000e+00 +5.7999999011587118e+00 -3.1994853235226467e-04 +0.0000000000000000e+00 +9.9999994881646714e-01
5.8499999999999872e+00 +8.2840567514356387e+00 +0.0000000000000000e+00 +5.8499998985773480e+00 -3.2271446101707541e-04 +0.0000000000000000e+00 +9.9999994792768709e-01
5.8999999999999870e+00 +8.2840405465605595e+00 +0.0000000000000000e+00 +5.8999998959513524e+00 -3.2548057275774169e-04 +0.0000000000000000e+00 +9.9999994703119710e-01
