# multipoles
# s[mm] polynom_b[n=0][T/m^n] polynom_b[n=1][T/m^n] polynom_b[n=2][T/m^n] polynom_b[n=3][T/m^n] polynom_b[n=4][T/m^n] polynom_b[n=5][T/m^n] polynom_b[n=6][T/m^n] 
+0.0000000000000000e+00 -5.5007300982069396e-01 +7.2074840377853722e+00 +5.1929257272266591e+00 -1.0166179253863227e+02 +3.3129452216963891e+03 +1.6889188001807081e+05 -1.7986331681871641e+07 
-5.0000000000000003e-02 -5.5008066062567429e-01 +7.2079488151563815e+00 +5.1798364453130539e+00 -1.0155105306287946e+02 +3.3326051510297862e+03 +1.6848879403162628e+05 -1.8037074859231241e+07 
-1.0000000000000001e-01 -5.5008868730757710e-01 +7.2084344064278429e+00 +5.1662176432717191e+00 -1.0145045638462453e+02 +3.3520144936935640e+03 +1.6817946286575779e+05 -1.8080155948602803e+07 
-1.5000000000000002e-01 -5.5009708841078264e-01 +7.2089406620732328e+00 +5.1520789568083254e+00 -1.0135919300558170e+02 +3.3711723464981451e+03 +1.6795851317795625e+05 -1.8115957849475712e+07 
-2.0000000000000001e-01 -5.5010586247972282e-01 +7.2094674325654404e+00 +5.1374300281650127e+00 -1.0127645338291566e+02 +3.3900776255200963e+03 +1.6782057130502621e+05 -1.8144862224743772e+07 
-2.5000000000000000e-01 -5.5011500805882041e-01 +7.2100145683823831e+00 +5.1222804945611271e+00 -1.0120142813762510e+02 +3.4087293866991754e+03 +1.6776026484267393e+05 -1.8167251701048177e+07 
-2.9999999999999999e-01 -5.5012452369254716e-01 +7.2105819199979706e+00 +5.1066399987797384e+00 -1.0113330770176552e+02 +3.4271265355088531e+03 +1.6777221986185154e+05 -1.8183507886025637e+07 
-3.4999999999999998e-01 -5.5013440792535717e-01 +7.2111693378854396e+00 +5.0905181777766737e+00 -1.0107128243986836e+02 +3.4452681323538195e+03 +1.6785106181632145e+05 -1.8194013426624205e+07 
-3.9999999999999997e-01 -5.5014465930175205e-01 +7.2117766725266703e+00 +5.0739246738120976e+00 -1.0101454306473914e+02 +3.4631530967028530e+03 +1.6799141910082192e+05 -1.8199150027602904e+07 
-4.4999999999999996e-01 -5.5015527636623107e-01 +7.2124037743957565e+00 +5.0568691258543650e+00 -1.0096227992173432e+02 +3.4807804342842178e+03 +1.6818791700501359e+05 -1.8199299965732072e+07 
-4.9999999999999994e-01 -5.5016625766331040e-01 +7.2130504939727880e+00 +5.0393611729618630e+00 -1.0091368358241981e+02 +3.4981491509095908e+03 +1.6843518269345968e+05 -1.8194845531604998e+07 
-5.4999999999999993e-01 -5.5017760173753927e-01 +7.2137166817349376e+00 +5.0214104570328688e+00 -1.0086794447392036e+02 +3.5152581742294592e+03 +1.6872784214652827e+05 -1.8186168478607450e+07 
-5.9999999999999998e-01 -5.5018930713345482e-01 +7.2144021881644784e+00 +5.0030266150909304e+00 -1.0082425320518362e+02 +3.5321065647187966e+03 +1.6906052283175406e+05 -1.8173651466927461e+07 
-6.5000000000000002e-01 -5.5020137239563494e-01 +7.2151068637384563e+00 +4.9842192888846171e+00 -1.0078180014579242e+02 +3.5486932516504689e+03 +1.6942785024381624e+05 -1.8157676255650986e+07 
-7.0000000000000007e-01 -5.5021379606866982e-01 +7.2158305589394800e+00 +4.9649981189832184e+00 -1.0073977588335472e+02 +3.5650172003506841e+03 +1.6982445172921772e+05 -1.8138624863134690e+07 
-7.5000000000000011e-01 -5.5022657669714725e-01 +7.2165731242471542e+00 +4.9453727431934613e+00 -1.0069737083803692e+02 +3.5810774476172573e+03 +1.7024495316368109e+05 -1.8116879781247724e+07 
-8.0000000000000016e-01 -5.5023971282569073e-01 +7.2173344101442973e+00 +4.9253528029008162e+00 -1.0065377556105051e+02 +3.5968729338632397e+03 +1.7068398160935359e+05 -1.8092822852488130e+07 
-8.5000000000000020e-01 -5.5025320299892855e-01 +7.2181142671122283e+00 +4.9049479377026932e+00 -1.0060818051181141e+02 +3.6124026461180356e+03 +1.7113616332437642e+05 -1.8066836226489700e+07 
-9.0000000000000024e-01 -5.5026704576149976e-01 +7.2189125456343426e+00 +4.8841677861624939e+00 -1.0055977621831552e+02 +3.6276656035829451e+03 +1.7159612517372819e+05 -1.8039302290348765e+07 
-9.5000000000000029e-01 -5.5028123965807274e-01 +7.2197290961924043e+00 +4.8630219899465530e+00 -1.0050775312869524e+02 +3.6426607344598206e+03 +1.7205849339538944e+05 -1.8010602787627358e+07 
-1.0000000000000002e+00 -5.5029578323330619e-01 +7.2205637692693632e+00 +4.8415201859479708e+00 -1.0045130171535273e+02 +3.6573871012788841e+03 +1.7251789441498561e+05 -1.7981120391286720e+07 
-1.0500000000000003e+00 -5.5031067503190301e-01 +7.2214164153493865e+00 +4.8196720166621771e+00 -1.0038961248395205e+02 +3.6718436113252792e+03 +1.7296895496032306e+05 -1.7951236711995356e+07 
-1.1000000000000003e+00 -5.5032591359856076e-01 +7.2222868849164170e+00 +4.7974871210976167e+00 -1.0032187592387299e+02 +3.6860292653794968e+03 +1.7340630167743796e+05 -1.7921333988731295e+07 
-1.1500000000000004e+00 -5.5034149747798744e-01 +7.2231750284532845e+00 +4.7749751376223211e+00 -1.0024728245583600e+02 +3.6999430814974767e+03 +1.7382456063864951e+05 -1.7891794578814507e+07 
-1.2000000000000004e+00 -5.5035742521491482e-01 +7.2240806964470714e+00 +4.7521457061432457e+00 -1.0016502267407965e+02 +3.7135840393854078e+03 +1.7421835942918833e+05 -1.7863000595380083e+07 
-1.2500000000000004e+00 -5.5037369535408054e-01 +7.2250037393785327e+00 +4.7290084656071683e+00 -1.0007428688808029e+02 +3.7269511362242565e+03 +1.7458232326584388e+05 -1.7835334234149367e+07 
-1.3000000000000005e+00 -5.5039030644024323e-01 +7.2259440077344728e+00 +4.7055730559294613e+00 -9.9974265645563577e+01 +3.7400433506889253e+03 +1.7491107937345366e+05 -1.7809177600616235e+07 
-1.3500000000000005e+00 -5.5040725701817117e-01 +7.2269013519975758e+00 +4.6818491166137353e+00 -9.9864149335403638e+01 +3.7528596645492248e+03 +1.7519925378701004e+05 -1.7784912785621352e+07 
-1.4000000000000006e+00 -5.5042454563264853e-01 +7.2278756226546665e+00 +4.6578462878270415e+00 -9.9743128464952051e+01 +3.7653990450901483e+03 +1.7544147338827181e+05 -1.7762921802445859e+07 
-1.4500000000000006e+00 -5.5044217082845293e-01 +7.2288666701926187e+00 +4.6335742057974638e+00 -9.9610393584421956e+01 +3.7776605639358690e+03 +1.7563236564995328e+05 -1.7743587356182650e+07 
-1.5000000000000007e+00 -5.5046013115039083e-01 +7.2298743450923402e+00 +4.6090425100392300e+00 -9.9465134963375547e+01 +3.7896432043803752e+03 +1.7576655568042595e+05 -1.7727291564082224e+07 
-1.5500000000000007e+00 -5.5047842514329126e-01 +7.2308984978400384e+00 +4.5842608419912754e+00 -9.9306543083399120e+01 +3.8013458918171550e+03 +1.7583867036544567e+05 -1.7714416124373209e+07 
-1.6000000000000008e+00 -5.5049705135196980e-01 +7.2319389789211108e+00 +4.5592388377611490e+00 -9.9133808391546211e+01 +3.8127677043406497e+03 +1.7584333638751498e+05 -1.7705343804370180e+07 
-1.6500000000000008e+00 -5.5051600832127412e-01 +7.2329956388212828e+00 +4.5339861380806044e+00 -9.8946121346836151e+01 +3.8239075816513937e+03 +1.7577518059206847e+05 -1.7700456384313960e+07 
-1.7000000000000008e+00 -5.5053529459604333e-01 +7.2340683280242688e+00 +4.5085123793035375e+00 -9.8742672330306064e+01 +3.8347645910915030e+03 +1.7562882927203531e+05 -1.7700136546277899e+07 
-1.7500000000000009e+00 -5.5055490872114810e-01 +7.2351568970150542e+00 +4.4828272014546604e+00 -9.8522651745345627e+01 +3.8453376950510342e+03 +1.7539890884839967e+05 -1.7704766238596782e+07 
-1.8000000000000009e+00 -5.5057484924145239e-01 +7.2362611962782220e+00 +4.4569402413314441e+00 -9.8285250003015847e+01 +3.8556259426460601e+03 +1.7508004597714994e+05 -1.7714727995546654e+07 
-1.8500000000000010e+00 -5.5059511470184719e-01 +7.2373810762989530e+00 +4.4308611385222925e+00 -9.8029657534483519e+01 +3.8656283080049302e+03 +1.7466686751933969e+05 -1.7730403848457318e+07 
-1.9000000000000010e+00 -5.5061570364722179e-01 +7.2385163875606002e+00 +4.4045995305518488e+00 -9.7755064687976741e+01 +3.8753438150643860e+03 +1.7415399970285330e+05 -1.7752176141684167e+07 
-1.9500000000000011e+00 -5.5063661462247981e-01 +7.2396669805472396e+00 +4.3781650551256490e+00 -9.7460661846908692e+01 +3.8847714878785073e+03 +1.7353606911486210e+05 -1.7780427241247501e+07 
-2.0000000000000009e+00 -5.5065784617253377e-01 +7.2408327057433448e+00 +4.3515673500100096e+00 -9.7145639414678612e+01 +3.8939103429946526e+03 +1.7280770259643279e+05 -1.7815539441791348e+07 
-2.0500000000000007e+00 -5.5067939663035992e-01 +7.2420134147877953e+00 +4.3248145138106349e+00 -9.6809504079638671e+01 +3.9027622445856159e+03 +1.7196545936000094e+05 -1.7857803647567157e+07 
-2.1000000000000005e+00 -5.5070126348154069e-01 +7.2432089581299142e+00 +4.2979085549131577e+00 -9.6452969405182273e+01 +3.9113464066694764e+03 +1.7101314962256132e+05 -1.7907179206013244e+07 
-2.1500000000000004e+00 -5.5072344399986917e-01 +7.2444191844694128e+00 +4.2708499771222606e+00 -9.6077036435890193e+01 +3.9196880034160004e+03 +1.6995627440519218e+05 -1.7963551849727165e+07 
-2.2000000000000002e+00 -5.5074593545918404e-01 +7.2456439425010064e+00 +4.2436392910441789e+00 -9.5682705992252693e+01 +3.9278120208277537e+03 +1.6880033282919944e+05 -1.8026806019550480e+07 
-2.2500000000000000e+00 -5.5076873513329971e-01 +7.2468830809269207e+00 +4.2162770012826414e+00 -9.5270979208737913e+01 +3.9357436102326510e+03 +1.6755082665677374e+05 -1.8096827287565917e+07 
-2.2999999999999998e+00 -5.5079184029607076e-01 +7.2481364484467656e+00 +4.1887636179960079e+00 -9.4842857089647680e+01 +3.9435077707988175e+03 +1.6621325652616975e+05 -1.8173500185937777e+07 
-2.3499999999999996e+00 -5.5081524822133099e-01 +7.2494038937585730e+00 +4.1610996460517784e+00 -9.4399340580598761e+01 +3.9511296493821933e+03 +1.6479312263674059e+05 -1.8256710266394060e+07 
-2.3999999999999995e+00 -5.5083895618294731e-01 +7.2506852655635052e+00 +4.1332855947557645e+00 -9.3941430739382682e+01 +3.9586342717551915e+03 +1.6329592608433252e+05 -1.8346342256872632e+07 
-2.4499999999999993e+00 -5.5086296145477154e-01 +7.2519804125615401e+00 +4.1053219699070791e+00 -9.3470128568260790e+01 +3.9660467540212735e+03 +1.6172716749894360e+05 -1.8442281477945283e+07 
-2.4999999999999991e+00 -5.5088726131068355e-01 +7.2532891834519972e+00 +4.0772092798145811e+00 -9.2986435043176158e+01 +3.9733921551586236e+03 +1.6009234731882630e+05 -1.8544412903655760e+07 
-2.5499999999999989e+00 -5.5091185302457069e-01 +7.2546114269363855e+00 +4.0489480340029651e+00 -9.2491351207902468e+01 +3.9806954907801355e+03 +1.5839696647276453e+05 -1.8652621177231118e+07 
-2.5999999999999988e+00 -5.5093673387030107e-01 +7.2559469917153887e+00 +4.0205387362418721e+00 -9.1985878080825344e+01 +3.9879819421446223e+03 +1.5664652573875588e+05 -1.8766792096659653e+07 
-2.6499999999999986e+00 -5.5096190112178578e-01 +7.2572957264884419e+00 +3.9919818974766450e+00 -9.1471016614800490e+01 +3.9952764927154367e+03 +1.5484652530490220e+05 -1.8886810111086141e+07 
-2.6999999999999984e+00 -5.5098735205291594e-01 +7.2586574799607719e+00 +3.9632780234612750e+00 -9.0947768001004619e+01 +4.0026042669436210e+03 +1.5300246733754801e+05 -1.9012560620300107e+07 
-2.7499999999999982e+00 -5.5101308393760984e-01 +7.2600321008293802e+00 +3.9344276236917683e+00 -9.0417133075220249e+01 +4.0099902923801633e+03 +1.5111985102447463e+05 -1.9143928388956603e+07 
-2.7999999999999980e+00 -5.5103909404978002e-01 +7.2614194377983843e+00 +3.9054312057705438e+00 -8.9880112963132675e+01 +4.0174596450072131e+03 +1.4920417792640580e+05 -1.9280798495835919e+07 
-2.8499999999999979e+00 -5.5106537966334346e-01 +7.2628193395690532e+00 +3.8762892766158794e+00 -8.9337708674234193e+01 +4.0250374234931760e+03 +1.4726094866540085e+05 -1.9423056188282564e+07 
-2.8999999999999977e+00 -5.5109193805224166e-01 +7.2642316548441332e+00 +3.8470023467294676e+00 -8.8790921267624640e+01 +4.0327486295027870e+03 +1.4529566422264479e+05 -1.9570586057427980e+07 
-2.9499999999999975e+00 -5.5111876649039415e-01 +7.2656562323268670e+00 +3.8175709217390530e+00 -8.8240751814578076e+01 +4.0406183974769810e+03 +1.4331382565700472e+05 -1.9723273595233716e+07 
-2.9999999999999973e+00 -5.5114586225175566e-01 +7.2670929207174346e+00 +3.7879955124376683e+00 -8.7688201270156569e+01 +4.0486717239861355e+03 +1.4132093309612598e+05 -1.9881003366101697e+07 
-3.0499999999999972e+00 -5.5117322261026014e-01 +7.2685415687215791e+00 +3.7582766252529480e+00 -8.7134270786668438e+01 +4.0569337233499605e+03 +1.3932248816749381e+05 -2.0043660730006181e+07 
-3.0999999999999970e+00 -5.5120084483986964e-01 +7.2700020250407720e+00 +3.7284147706239650e+00 -8.6579961355717472e+01 +4.0654294049449386e+03 +1.3732399122351309e+05 -2.0211130349845942e+07 
-3.1499999999999968e+00 -5.5122872621453556e-01 +7.2714741383793822e+00 +3.6984104559675326e+00 -8.6026274085098819e+01 +4.0741838620292560e+03 +1.3533094355608418e+05 -2.0383297461809479e+07 
-3.1999999999999966e+00 -5.5125686400822438e-01 +7.2729577574412705e+00 +3.6682641911643326e+00 -8.5474210043430062e+01 +4.0832221195877128e+03 +1.3334884604488526e+05 -2.0560046834012900e+07 
-3.2499999999999964e+00 -5.5128525549490548e-01 +7.2744527309290641e+00 +3.6379764855265355e+00 -8.4924770250862011e+01 +4.0925692222174011e+03 +1.3138319916535151e+05 -2.0741263382316429e+07 
-3.2999999999999963e+00 -5.5131389794854591e-01 +7.2759589075492395e+00 +3.6075478473541365e+00 -8.4378955884148638e+01 +4.1022502411986343e+03 +1.2943950465976071e+05 -2.0926832197511237e+07 
-3.3499999999999961e+00 -5.5134278864312336e-01 +7.2774761360035933e+00 +3.5769787861437297e+00 -8.3837767924189563e+01 +4.1122902208123951e+03 +1.2752326262196008e+05 -2.1116638210536961e+07 
-3.3999999999999959e+00 -5.5137192485262565e-01 +7.2790042649989237e+00 +3.5462698125670196e+00 -8.3302207545962389e+01 +4.1227141726088303e+03 +1.2563997467753805e+05 -2.1310566122674558e+07 
-3.4499999999999957e+00 -5.5140130385102304e-01 +7.2805431432414833e+00 +3.5154214338472061e+00 -8.2773275905280556e+01 +4.1335472024998471e+03 +1.2379514228300529e+05 -2.1508501277664408e+07 
-3.4999999999999956e+00 -5.5143092291231655e-01 +7.2820926194341622e+00 +3.4844341618252033e+00 -8.2251974012667958e+01 +4.1448142956267648e+03 +1.2199426563577366e+05 -2.1710328217449326e+07 
-3.5499999999999954e+00 -5.5146077931049764e-01 +7.2836525422829297e+00 +3.4533085063260889e+00 -8.1739303002968413e+01 +4.1565404922077232e+03 +1.2024284591901200e+05 -2.1915931854867369e+07 
-3.5999999999999952e+00 -5.5149087031956134e-01 +7.2852227604953308e+00 +3.4220449773488912e+00 -8.1236264076718854e+01 +4.1687508306700565e+03 +1.1854638483873733e+05 -2.2125197103048198e+07 
-3.6499999999999950e+00 -5.5152119321350235e-01 +7.2868031227755683e+00 +3.3906440844569028e+00 -8.0743858287203309e+01 +4.1814703638809679e+03 +1.1691038280131767e+05 -2.2338008980873141e+07 
-3.6999999999999948e+00 -5.5155174526632578e-01 +7.2883934778307680e+00 +3.3591063388296698e+00 -8.0263086808969504e+01 +4.1947240996416594e+03 +1.1534034118526384e+05 -2.2554252193519708e+07 
-3.7499999999999947e+00 -5.5158252375204619e-01 +7.2899936743684917e+00 +3.3274322525552411e+00 -7.9794950836854625e+01 +4.2085370290652709e+03 +1.1384176149798506e+05 -2.2773811363933001e+07 
-3.7999999999999945e+00 -5.5161352594465829e-01 +7.2916035610949939e+00 +3.2956223346475086e+00 -7.9340451494236490e+01 +4.2229342222975911e+03 +1.1242014455359563e+05 -2.2996571631326977e+07 
-3.8499999999999943e+00 -5.5164474911817707e-01 +7.2932229867191900e+00 +3.2636770969650302e+00 -7.8900590036707413e+01 +4.2379406791140391e+03 +1.1108099229508761e+05 -2.3222417682775140e+07 
-3.8999999999999941e+00 -5.5167619054661687e-01 +7.2948517999454658e+00 +3.2315970509677694e+00 -7.8476367503120045e+01 +4.2535814147880510e+03 +1.0982980470806842e+05 -2.3451234325554308e+07 
-3.9499999999999940e+00 -5.5170784750399127e-01 +7.2964898494844403e+00 +3.1993827085954036e+00 -7.8068785208982021e+01 +4.2698814247090113e+03 +1.0867208409205773e+05 -2.3682906205097556e+07 
-3.9999999999999938e+00 -5.5173971726431559e-01 +7.2981369840425172e+00 +3.1670345812552427e+00 -7.7678844283144898e+01 +4.2868657306067635e+03 +1.0761333112825532e+05 -2.3917318186644088e+07 
-4.0499999999999936e+00 -5.5177179708353963e-01 +7.2997930424587398e+00 +3.1345540784682058e+00 -7.7307301943476133e+01 +4.3045497882312575e+03 +1.0665775776164622e+05 -2.4154330827214886e+07 
-4.0999999999999934e+00 -5.5180408414516924e-01 +7.3014578229777278e+00 +3.1019466962362219e+00 -7.6953976765654531e+01 +4.3228991589724665e+03 +1.0580471910498796e+05 -2.4393648481476173e+07 
-4.1499999999999932e+00 -5.5183657561453903e-01 +7.3031311133979777e+00 +3.0692190773712591e+00 -7.6618462143818732e+01 +4.3418641996947817e+03 +1.0505243700916502e+05 -2.4634923091148965e+07 
-4.1999999999999931e+00 -5.5186926865701935e-01 +7.3048127015195696e+00 +3.0363778711068123e+00 -7.6300351538916971e+01 +4.3613950923010343e+03 +1.0439913381188046e+05 -2.4877805404913023e+07 
-4.2499999999999929e+00 -5.5190216043793994e-01 +7.3065023751408891e+00 +3.0034297199487958e+00 -7.5999238367350856e+01 +4.3814422033439114e+03 +1.0384303152933058e+05 -2.5121947434746895e+07 
-4.2999999999999927e+00 -5.5193524812265249e-01 +7.3081999220600977e+00 +2.9703812711433750e+00 -7.5714716030551202e+01 +4.4019557663095020e+03 +1.0338235197879045e+05 -2.5367000276586466e+07 
-4.3499999999999925e+00 -5.5196852887649506e-01 +7.3099051300747755e+00 +2.9372391693714008e+00 -7.5446377928857501e+01 +4.4228860870680128e+03 +1.0301531700279462e+05 -2.5612615523432992e+07 
-4.3999999999999924e+00 -5.5200199986480625e-01 +7.3116177869829615e+00 +2.9040100605982935e+00 -7.5193817481941679e+01 +4.4441834336543452e+03 +1.0274014854341792e+05 -2.5858444507892404e+07 
-4.4499999999999922e+00 -5.5203565825292333e-01 +7.3133376805826398e+00 +2.8707005909865515e+00 -7.4956628128600514e+01 +4.4657980666340936e+03 +1.0255506872753153e+05 -2.6104138500045579e+07 
-4.4999999999999920e+00 -5.5206950120616649e-01 +7.3150645986697382e+00 +2.8373174040118290e+00 -7.4734403232949674e+01 +4.4876803227106820e+03 +1.0245829904212376e+05 -2.6349349300759844e+07 
-4.5499999999999918e+00 -5.5210352588987222e-01 +7.3167983290418181e+00 +2.8038671473605810e+00 -7.4526736226945033e+01 +4.5097804203413225e+03 +1.0244806146141666e+05 -2.6593727899223711e+07 
-4.5999999999999917e+00 -5.5213772946935691e-01 +7.3185386594955366e+00 +2.7703564655734576e+00 -7.4333220530314691e+01 +4.5320486630584919e+03 +1.0252257790430647e+05 -2.6836925857554950e+07 
-4.6499999999999915e+00 -5.5217210910993320e-01 +7.3202853778249422e+00 +2.7367920033395094e+00 -7.4153449471936483e+01 +4.5544353500908965e+03 +1.0268006952085720e+05 -2.7078594709552631e+07 
-4.6999999999999913e+00 -5.5220666197692536e-01 +7.3220382718273394e+00 +2.7031804084624036e+00 -7.3987016517151446e+01 +4.5768906938794998e+03 +1.0291875853698220e+05 -2.7318385394550573e+07 
-4.7499999999999911e+00 -5.5224138523563160e-01 +7.3237971292967350e+00 +2.6695283249607420e+00 -7.3833515012162565e+01 +4.5993650090296769e+03 +1.0323686617994848e+05 -2.7555949542890653e+07 
-4.7999999999999909e+00 -5.5227627605134932e-01 +7.3255617380294824e+00 +2.6358423975716248e+00 -7.3692538424325292e+01 +4.6218085916751752e+03 +1.0363261469468779e+05 -2.7790938665930931e+07 
-4.8499999999999908e+00 -5.5231133158938572e-01 +7.3273318858167995e+00 +2.6021292743030333e+00 -7.3563680013075157e+01 +4.6441716430714841e+03 +1.0410422455531951e+05 -2.8023003610196680e+07 
-4.8999999999999906e+00 -5.5234654901501368e-01 +7.3291073604551480e+00 +2.5683955974602344e+00 -7.3446533281199464e+01 +4.6664045236726388e+03 +1.0464991826424176e+05 -2.8251796319075067e+07 
-4.9499999999999904e+00 -5.5238192549353216e-01 +7.3308879497356658e+00 +2.5346480155786582e+00 -7.3340691513530160e+01 +4.6884574201500982e+03 +1.0526791644305213e+05 -2.8476967540974956e+07 
-4.9999999999999902e+00 -5.5241745819020882e-01 +7.3326734414521759e+00 +2.5008931725997385e+00 -7.3245748137180627e+01 +4.7102806454348547e+03 +1.0595644093896452e+05 -2.8698168889619350e+07 
-5.0499999999999901e+00 -5.5245314427031000e-01 +7.3344636233972880e+00 +2.4671377138755375e+00 -7.3161296539018821e+01 +4.7318244675096275e+03 +1.0671371320313665e+05 -2.8915051649108820e+07 
