# trajectory
# s[mm] rx[mm] ry[mm] rz[mm] px[rad] py[rad] pz[rad]
0.0000000000000000e+00 +8.2850000000000001e+00 +0.0000000000000000e+00 +0.0000000000000000e+00 +0.0000000000000000e+00 +0.0000000000000000e+00 +1.0000000000000000e+00
5.0000000000000003e-02 +8.2849999309886950e+00 +0.0000000000000000e+00 +4.9999999999936498e-02 -2.7604537171234032e-06 +0.0000000000000000e+00 +9.9999999999618994e-01
1.0000000000000001e-01 +8.2849997239544599e+00 +0.0000000000000000e+00 +9.9999999999491995e-02 -5.5209175386544361e-06 +0.0000000000000000e+00 +9.9999999998475975e-01
1.5000000000000002e-01 +8.2849993788967407e+00 +0.0000000000000000e+00 +1.4999999999828548e-01 -8.2813933955785937e-06 +0.0000000000000000e+00 +9.9999999996570932e-01
2.0000000000000001e-01 +8.2849988958148870e+00 +0.0000000000000000e+00 +1.9999999999593593e-01 -1.1041883214192867e-05 +0.0000000000000000e+00 +9.9999999993903843e-01
2.5000000000000000e-01 +8.2849982747081548e+00 +0.0000000000000000e+00 +2.4999999999206232e-01 -1.3802388916105832e-05 +0.0000000000000000e+00 +9.9999999990474708e-01
2.9999999999999999e-01 +8.2849975155757001e+00 +0.0000000000000000e+00 +2.9999999998628363e-01 -1.6562912418237740e-05 +0.0000000000000000e+00 +9.9999999986283505e-01
3.4999999999999998e-01 +8.2849966184165851e+00 +0.0000000000000000e+00 +3.4999999997821879e-01 -1.9323455632820601e-05 +0.0000000000000000e+00 +9.9999999981330212e-01
3.9999999999999997e-01 +8.2849955832297759e+00 +0.0000000000000000e+00 +3.9999999996748681e-01 -2.2084020467398281e-05 +0.0000000000000000e+00 +9.9999999975614806e-01
4.4999999999999996e-01 +8.2849944100141464e+00 +0.0000000000000000e+00 +4.4999999995370660e-01 -2.4844608824826580e-05 +0.0000000000000000e+00 +9.9999999969137277e-01
4.9999999999999994e-01 +8.2849930987684708e+00 +0.0000000000000000e+00 +4.9999999993649707e-01 -2.7605222603273326e-05 +0.0000000000000000e+00 +9.9999999961897590e-01
5.4999999999999993e-01 +8.2849916494914311e+00 +0.0000000000000000e+00 +5.4999999991547721e-01 -3.0365863696218459e-05 +0.0000000000000000e+00 +9.9999999953895724e-01
5.9999999999999998e-01 +8.2849900621816150e+00 +0.0000000000000000e+00 +5.9999999989026576e-01 -3.3126533992454110e-05 +0.0000000000000000e+00 +9.9999999945131646e-01
6.5000000000000002e-01 +8.2849883368375146e+00 +0.0000000000000000e+00 +6.4999999986048174e-01 -3.5887235376084709e-05 +0.0000000000000000e+00 +9.9999999935605322e-01
7.0000000000000007e-01 +8.2849864734575291e+00 +0.0000000000000000e+00 +6.9999999982574401e-01 -3.8647969726527035e-05 +0.0000000000000000e+00 +9.9999999925316729e-01
7.5000000000000011e-01 +8.2849844720399624e+00 +0.0000000000000000e+00 +7.4999999978567145e-01 -4.1408738918510344e-05 +0.0000000000000000e+00 +9.9999999914265825e-01
8.0000000000000016e-01 +8.2849823325830254e+00 +0.0000000000000000e+00 +7.9999999973988278e-01 -4.4169544822076421e-05 +0.0000000000000000e+00 +9.9999999902452574e-01
8.5000000000000020e-01 +8.2849800550848371e+00 +0.0000000000000000e+00 +8.4999999968799689e-01 -4.6930389302579675e-05 +0.0000000000000000e+00 +9.9999999889876934e-01
9.0000000000000024e-01 +8.2849776395434223e+00 +0.0000000000000000e+00 +8.9999999962963262e-01 -4.9691274220687223e-05 +0.0000000000000000e+00 +9.9999999876538870e-01
9.5000000000000029e-01 +8.2849750859567113e+00 +0.0000000000000000e+00 +9.4999999956440873e-01 -5.2452201432378981e-05 +0.0000000000000000e+00 +9.9999999862438338e-01
1.0000000000000002e+00 +8.2849723943225442e+00 +0.0000000000000000e+00 +9.9999999949194385e-01 -5.5213172788947729e-05 +0.0000000000000000e+00 +9.9999999847575283e-01
1.0500000000000003e+00 +8.2849695646386667e+00 +0.0000000000000000e+00 +1.0499999994118570e+00 -5.7974190136999215e-05 +0.0000000000000000e+00 +9.9999999831949671e-01
1.1000000000000003e+00 +8.2849665969027342e+00 +0.0000000000000000e+00 +1.0999999993237666e+00 -6.0735255318452219e-05 +0.0000000000000000e+00 +9.9999999815561447e-01
1.1500000000000004e+00 +8.2849634911123076e+00 +0.0000000000000000e+00 +1.1499999992272913e+00 -6.3496370170538648e-05 +0.0000000000000000e+00 +9.9999999798410555e-01
1.2000000000000004e+00 +8.2849602472648591e+00 +0.0000000000000000e+00 +1.1999999991220500e+00 -6.6257536525803602e-05 +0.0000000000000000e+00 +9.9999999780496951e-01
1.2500000000000004e+00 +8.2849568653577670e+00 +0.0000000000000000e+00 +1.2499999990076611e+00 -6.9018756212105490e-05 +0.0000000000000000e+00 +9.9999999761820568e-01
1.3000000000000005e+00 +8.2849533453883186e+00 +0.0000000000000000e+00 +1.2999999988837434e+00 -7.1780031052616066e-05 +0.0000000000000000e+00 +9.9999999742381362e-01
1.3500000000000005e+00 +8.2849496873537110e+00 +0.0000000000000000e+00 +1.3499999987499154e+00 -7.4541362865820525e-05 +0.0000000000000000e+00 +9.9999999722179267e-01
1.4000000000000006e+00 +8.2849458912510521e+00 +0.0000000000000000e+00 +1.3999999986057956e+00 -7.7302753465517598e-05 +0.0000000000000000e+00 +9.9999999701214226e-01
1.4500000000000006e+00 +8.2849419570773559e+00 +0.0000000000000000e+00 +1.4499999984510026e+00 -8.0064204660819621e-05 +0.0000000000000000e+00 +9.9999999679486162e-01
1.5000000000000007e+00 +8.2849378848295476e+00 +0.0000000000000000e+00 +1.4999999982851546e+00 -8.2825718256152628e-05 +0.0000000000000000e+00 +9.9999999656995020e-01
1.5500000000000007e+00 +8.2849336745044617e+00 +0.0000000000000000e+00 +1.5499999981078703e+00 -8.5587296051256378e-05 +0.0000000000000000e+00 +9.9999999633740733e-01
1.6000000000000008e+00 +8.2849293260988439e+00 +0.0000000000000000e+00 +1.5999999979187680e+00 -8.8348939841184507e-05 +0.0000000000000000e+00 +9.9999999609723234e-01
1.6500000000000008e+00 +8.2849248396093493e+00 +0.0000000000000000e+00 +1.6499999977174662e+00 -9.1110651416304551e-05 +0.0000000000000000e+00 +9.9999999584942456e-01
1.7000000000000008e+00 +8.2849202150325443e+00 +0.0000000000000000e+00 +1.6999999975035831e+00 -9.3872432562298058e-05 +0.0000000000000000e+00 +9.9999999559398312e-01
1.7500000000000009e+00 +8.2849154523649045e+00 +0.0000000000000000e+00 +1.7499999972767373e+00 -9.6634285060160627e-05 +0.0000000000000000e+00 +9.9999999533090733e-01
1.8000000000000009e+00 +8.2849105516028185e+00 +0.0000000000000000e+00 +1.7999999970365468e+00 -9.9396210686202027e-05 +0.0000000000000000e+00 +9.9999999506019654e-01
1.8500000000000010e+00 +8.2849055127425864e+00 +0.0000000000000000e+00 +1.8499999967826297e+00 -1.0215821121204626e-04 +0.0000000000000000e+00 +9.9999999478184987e-01
1.9000000000000010e+00 +8.2849003357804190e+00 +0.0000000000000000e+00 +1.8999999965146044e+00 -1.0492028840463160e-04 +0.0000000000000000e+00 +9.9999999449586652e-01
1.9500000000000011e+00 +8.2848950207124386e+00 +0.0000000000000000e+00 +1.9499999962320891e+00 -1.0768244402621073e-04 +0.0000000000000000e+00 +9.9999999420224561e-01
2.0000000000000009e+00 +8.2848895675346803e+00 +0.0000000000000000e+00 +1.9999999959347017e+00 -1.1044467983435076e-04 +0.0000000000000000e+00 +9.9999999390098637e-01
2.0500000000000007e+00 +8.2848839762430906e+00 +0.0000000000000000e+00 +2.0499999956220605e+00 -1.1320699758169269e-04 +0.0000000000000000e+00 +9.9999999359208791e-01
2.1000000000000005e+00 +8.2848782468335287e+00 +0.0000000000000000e+00 +2.0999999952937833e+00 -1.1596939901330424e-04 +0.0000000000000000e+00 +9.9999999327554934e-01
2.1500000000000004e+00 +8.2848723793017669e+00 +0.0000000000000000e+00 +2.1499999949494883e+00 -1.1873188586403261e-04 +0.0000000000000000e+00 +9.9999999295136976e-01
2.2000000000000002e+00 +8.2848663736434904e+00 +0.0000000000000000e+00 +2.1999999945887931e+00 -1.2149445985826402e-04 +0.0000000000000000e+00 +9.9999999261954819e-01
2.2500000000000000e+00 +8.2848602298542993e+00 +0.0000000000000000e+00 +2.2499999942113158e+00 -1.2425712270992362e-04 +0.0000000000000000e+00 +9.9999999228008385e-01
2.2999999999999998e+00 +8.2848539479297099e+00 +0.0000000000000000e+00 +2.2999999938166740e+00 -1.2701987612247565e-04 +0.0000000000000000e+00 +9.9999999193297562e-01
2.3499999999999996e+00 +8.2848475278651499e+00 +0.0000000000000000e+00 +2.3499999934044857e+00 -1.2978272178892344e-04 +0.0000000000000000e+00 +9.9999999157822261e-01
2.3999999999999995e+00 +8.2848409696559653e+00 +0.0000000000000000e+00 +2.3999999929743687e+00 -1.3254566139180951e-04 +0.0000000000000000e+00 +9.9999999121582384e-01
2.4499999999999993e+00 +8.2848342732974167e+00 +0.0000000000000000e+00 +2.4499999925259406e+00 -1.3530869660321562e-04 +0.0000000000000000e+00 +9.9999999084577829e-01
2.4999999999999991e+00 +8.2848274387846832e+00 +0.0000000000000000e+00 +2.4999999920588190e+00 -1.3807182908476278e-04 +0.0000000000000000e+00 +9.9999999046808496e-01
2.5499999999999989e+00 +8.2848204661128602e+00 +0.0000000000000000e+00 +2.5499999915726215e+00 -1.4083506048761133e-04 +0.0000000000000000e+00 +9.9999999008274287e-01
2.5999999999999988e+00 +8.2848133552769596e+00 +0.0000000000000000e+00 +2.5999999910669658e+00 -1.4359839245246098e-04 +0.0000000000000000e+00 +9.9999998968975079e-01
2.6499999999999986e+00 +8.2848061062719118e+00 +0.0000000000000000e+00 +2.6499999905414691e+00 -1.4636182660955090e-04 +0.0000000000000000e+00 +9.9999998928910783e-01
2.6999999999999984e+00 +8.2847987190925672e+00 +0.0000000000000000e+00 +2.6999999899957490e+00 -1.4912536457865972e-04 +0.0000000000000000e+00 +9.9999998888081276e-01
2.7499999999999982e+00 +8.2847911937336960e+00 +0.0000000000000000e+00 +2.7499999894294227e+00 -1.5188900796910562e-04 +0.0000000000000000e+00 +9.9999998846486460e-01
2.7999999999999980e+00 +8.2847835301899870e+00 +0.0000000000000000e+00 +2.7999999888421079e+00 -1.5465275837974631e-04 +0.0000000000000000e+00 +9.9999998804126211e-01
2.8499999999999979e+00 +8.2847757284560490e+00 +0.0000000000000000e+00 +2.8499999882334213e+00 -1.5741661739897915e-04 +0.0000000000000000e+00 +9.9999998761000419e-01
2.8999999999999977e+00 +8.2847677885264108e+00 +0.0000000000000000e+00 +2.8999999876029805e+00 -1.6018058660474116e-04 +0.0000000000000000e+00 +9.9999998717108973e-01
2.9499999999999975e+00 +8.2847597103955248e+00 +0.0000000000000000e+00 +2.9499999869504028e+00 -1.6294466756450903e-04 +0.0000000000000000e+00 +9.9999998672451751e-01
2.9999999999999973e+00 +8.2847514940577653e+00 +0.0000000000000000e+00 +2.9999999862753048e+00 -1.6570886183529923e-04 +0.0000000000000000e+00 +9.9999998627028641e-01
3.0499999999999972e+00 +8.2847431395074267e+00 +0.0000000000000000e+00 +3.0499999855773039e+00 -1.6847317096366801e-04 +0.0000000000000000e+00 +9.9999998580839522e-01
3.0999999999999970e+00 +8.2847346467387286e+00 +0.0000000000000000e+00 +3.0999999848560167e+00 -1.7123759648571144e-04 +0.0000000000000000e+00 +9.9999998533884260e-01
3.1499999999999968e+00 +8.2847260157458127e+00 +0.0000000000000000e+00 +3.1499999841110604e+00 -1.7400213992706546e-04 +0.0000000000000000e+00 +9.9999998486162744e-01
3.1999999999999966e+00 +8.2847172465227459e+00 +0.0000000000000000e+00 +3.1999999833420518e+00 -1.7676680280290593e-04 +0.0000000000000000e+00 +9.9999998437674853e-01
3.2499999999999964e+00 +8.2847083390635170e+00 +0.0000000000000000e+00 +3.2499999825486077e+00 -1.7953158661794861e-04 +0.0000000000000000e+00 +9.9999998388420452e-01
3.2999999999999963e+00 +8.2846992933620438e+00 +0.0000000000000000e+00 +3.2999999817303447e+00 -1.8229649286644924e-04 +0.0000000000000000e+00 +9.9999998338399421e-01
3.3499999999999961e+00 +8.2846901094121659e+00 +0.0000000000000000e+00 +3.3499999808868792e+00 -1.8506152303220355e-04 +0.0000000000000000e+00 +9.9999998287611624e-01
3.3999999999999959e+00 +8.2846807872076500e+00 +0.0000000000000000e+00 +3.3999999800178284e+00 -1.8782667858854737e-04 +0.0000000000000000e+00 +9.9999998236056931e-01
3.4499999999999957e+00 +8.2846713267421919e+00 +0.0000000000000000e+00 +3.4499999791228086e+00 -1.9059196099835654e-04 +0.0000000000000000e+00 +9.9999998183735206e-01
3.4999999999999956e+00 +8.2846617280094108e+00 +0.0000000000000000e+00 +3.4999999782014362e+00 -1.9335737171404701e-04 +0.0000000000000000e+00 +9.9999998130646328e-01
3.5499999999999954e+00 +8.2846519910028569e+00 +0.0000000000000000e+00 +3.5499999772533273e+00 -1.9612291217757487e-04 +0.0000000000000000e+00 +9.9999998076790153e-01
3.5999999999999952e+00 +8.2846421157160073e+00 +0.0000000000000000e+00 +3.5999999762780983e+00 -1.9888858382043637e-04 +0.0000000000000000e+00 +9.9999998022166547e-01
3.6499999999999950e+00 +8.2846321021422664e+00 +0.0000000000000000e+00 +3.6499999752753656e+00 -2.0165438806366793e-04 +0.0000000000000000e+00 +9.9999997966775378e-01
3.6999999999999948e+00 +8.2846219502749676e+00 +0.0000000000000000e+00 +3.6999999742447454e+00 -2.0442032631784617e-04 +0.0000000000000000e+00 +9.9999997910616500e-01
3.7499999999999947e+00 +8.2846116601073767e+00 +0.0000000000000000e+00 +3.7499999731858540e+00 -2.0718639998308793e-04 +0.0000000000000000e+00 +9.9999997853689770e-01
3.7999999999999945e+00 +8.2846012316326885e+00 +0.0000000000000000e+00 +3.7999999720983073e+00 -2.0995261044905034e-04 +0.0000000000000000e+00 +9.9999997795995055e-01
3.8499999999999943e+00 +8.2845906648440284e+00 +0.0000000000000000e+00 +3.8499999709817212e+00 -2.1271895909493081e-04 +0.0000000000000000e+00 +9.9999997737532209e-01
3.8999999999999941e+00 +8.2845799597344527e+00 +0.0000000000000000e+00 +3.8999999698357115e+00 -2.1548544728946701e-04 +0.0000000000000000e+00 +9.9999997678301089e-01
3.9499999999999940e+00 +8.2845691162969501e+00 +0.0000000000000000e+00 +3.9499999686598941e+00 -2.1825207639093692e-04 +0.0000000000000000e+00 +9.9999997618301550e-01
3.9999999999999938e+00 +8.2845581345244419e+00 +0.0000000000000000e+00 +3.9999999674538849e+00 -2.2101884774715889e-04 +0.0000000000000000e+00 +9.9999997557533438e-01
4.0499999999999936e+00 +8.2845470144097817e+00 +0.0000000000000000e+00 +4.0499999662172996e+00 -2.2378576269537840e-04 +0.0000000000000000e+00 +9.9999997495996606e-01
4.0999999999999934e+00 +8.2845357559457575e+00 +0.0000000000000000e+00 +4.0999999649497534e+00 -2.2655282256102242e-04 +0.0000000000000000e+00 +9.9999997433690913e-01
4.1499999999999932e+00 +8.2845243591250899e+00 +0.0000000000000000e+00 +4.1499999636508624e+00 -2.2932002865645398e-04 +0.0000000000000000e+00 +9.9999997370616200e-01
4.1999999999999931e+00 +8.2845128239404335e+00 +0.0000000000000000e+00 +4.1999999623202413e+00 -2.3208738228085884e-04 +0.0000000000000000e+00 +9.9999997306772326e-01
4.2499999999999929e+00 +8.2845011503843811e+00 +0.0000000000000000e+00 +4.2499999609575063e+00 -2.3485488472024558e-04 +0.0000000000000000e+00 +9.9999997242159133e-01
4.2999999999999927e+00 +8.2844893384494593e+00 +0.0000000000000000e+00 +4.2999999595622720e+00 -2.3762253724744550e-04 +0.0000000000000000e+00 +9.9999997176776467e-01
4.3499999999999925e+00 +8.2844773881281331e+00 +0.0000000000000000e+00 +4.3499999581341546e+00 -2.4039034112211281e-04 +0.0000000000000000e+00 +9.9999997110624173e-01
4.3999999999999924e+00 +8.2844652994128030e+00 +0.0000000000000000e+00 +4.3999999566727679e+00 -2.4315829759072441e-04 +0.0000000000000000e+00 +9.9999997043702094e-01
4.4499999999999922e+00 +8.2844530722958094e+00 +0.0000000000000000e+00 +4.4499999551777281e+00 -2.4592640788658008e-04 +0.0000000000000000e+00 +9.9999996976010075e-01
4.4999999999999920e+00 +8.2844407067694306e+00 +0.0000000000000000e+00 +4.4999999536486497e+00 -2.4869467322980246e-04 +0.0000000000000000e+00 +9.9999996907547950e-01
4.5499999999999918e+00 +8.2844282028258824e+00 +0.0000000000000000e+00 +4.5499999520851473e+00 -2.5146309482733690e-04 +0.0000000000000000e+00 +9.9999996838315575e-01
4.5999999999999917e+00 +8.2844155604573242e+00 +0.0000000000000000e+00 +4.5999999504868363e+00 -2.5423167387295169e-04 +0.0000000000000000e+00 +9.9999996768312771e-01
4.6499999999999915e+00 +8.2844027796558528e+00 +0.0000000000000000e+00 +4.6499999488533312e+00 -2.5700041154723787e-04 +0.0000000000000000e+00 +9.9999996697539395e-01
4.6999999999999913e+00 +8.2843898604135067e+00 +0.0000000000000000e+00 +4.6999999471842466e+00 -2.5976930901760938e-04 +0.0000000000000000e+00 +9.9999996625995269e-01
4.7499999999999911e+00 +8.2843768027222691e+00 +0.0000000000000000e+00 +4.7499999454791979e+00 -2.6253836743830297e-04 +0.0000000000000000e+00 +9.9999996553680248e-01
4.7999999999999909e+00 +8.2843636065740629e+00 +0.0000000000000000e+00 +4.7999999437377987e+00 -2.6530758795037816e-04 +0.0000000000000000e+00 +9.9999996480594155e-01
4.8499999999999908e+00 +8.2843502719607542e+00 +0.0000000000000000e+00 +4.8499999419596636e+00 -2.6807697168171736e-04 +0.0000000000000000e+00 +9.9999996406736824e-01
4.8999999999999906e+00 +8.2843367988741559e+00 +0.0000000000000000e+00 +4.8999999401444070e+00 -2.7084651974702579e-04 +0.0000000000000000e+00 +9.9999996332108099e-01
4.9499999999999904e+00 +8.2843231873060219e+00 +0.0000000000000000e+00 +4.9499999382916435e+00 -2.7361623324783144e-04 +0.0000000000000000e+00 +9.9999996256707802e-01
4.9999999999999902e+00 +8.2843094372480550e+00 +0.0000000000000000e+00 +4.9999999364009868e+00 -2.7638611327248519e-04 +0.0000000000000000e+00 +9.9999996180535777e-01
5.0499999999999901e+00 +8.2842955486919010e+00 +0.0000000000000000e+00 +5.0499999344720505e+00 -2.7915616089616062e-04 +0.0000000000000000e+00 +9.9999996103591848e-01
5.0999999999999899e+00 +8.2842815216291541e+00 +0.0000000000000000e+00 +5.0999999325044501e+00 -2.8192637718085420e-04 +0.0000000000000000e+00 +9.9999996025875848e-01
5.1499999999999897e+00 +8.2842673560513553e+00 +0.0000000000000000e+00 +5.1499999304977981e+00 -2.8469676317538511e-04 +0.0000000000000000e+00 +9.9999995947387599e-01
5.1999999999999895e+00 +8.2842530519499924e+00 +0.0000000000000000e+00 +5.1999999284517093e+00 -2.8746731991539535e-04 +0.0000000000000000e+00 +9.9999995868126945e-01
5.2499999999999893e+00 +8.2842386093165015e+00 +0.0000000000000000e+00 +5.2499999263657964e+00 -2.9023804842334970e-04 +0.0000000000000000e+00 +9.9999995788093710e-01
5.2999999999999892e+00 +8.2842240281422708e+00 +0.0000000000000000e+00 +5.2999999242396738e+00 -2.9300894970853559e-04 +0.0000000000000000e+00 +9.9999995707287714e-01
5.3499999999999890e+00 +8.2842093084186352e+00 +0.0000000000000000e+00 +5.3499999220729553e+00 -2.9578002476706323e-04 +0.0000000000000000e+00 +9.9999995625708793e-01
5.3999999999999888e+00 +8.2841944501368818e+00 +0.0000000000000000e+00 +5.3999999198652535e+00 -2.9855127458186553e-04 +0.0000000000000000e+00 +9.9999995543356768e-01
5.4499999999999886e+00 +8.2841794532882478e+00 +0.0000000000000000e+00 +5.4499999176161831e+00 -3.0132270012269812e-04 +0.0000000000000000e+00 +9.9999995460231461e-01
5.4999999999999885e+00 +8.2841643178639242e+00 +0.0000000000000000e+00 +5.4999999153253567e+00 -3.0409430234613931e-04 +0.0000000000000000e+00 +9.9999995376332707e-01
5.5499999999999883e+00 +8.2841490438550522e+00 +0.0000000000000000e+00 +5.5499999129923872e+00 -3.0686608219559006e-04 +0.0000000000000000e+00 +9.9999995291660315e-01
5.5999999999999881e+00 +8.2841336312527289e+00 +0.0000000000000000e+00 +5.5999999106168881e+00 -3.0963804060127396e-04 +0.0000000000000000e+00 +9.9999995206214121e-01
5.6499999999999879e+00 +8.2841180800480014e+00 +0.0000000000000000e+00 +5.6499999081984722e+00 -3.1241017848023715e-04 +0.0000000000000000e+00 +9.9999995119993945e-01
5.6999999999999877e+00 +8.2841023902318742e+00 +0.0000000000000000e+00 +5.6999999057367532e+00 -3.1518249673634851e-04 +0.0000000000000000e+00 +9.9999995032999611e-01
5.7499999999999876e+00 +8.2840865617953057e+00 +0.0000000000000000e+00 +5.7499999032313429e+00 -3.1795499626029931e-04 +0.0000000000000000e+00 +9.9999994945230941e-01
5.7999999999999874e+00 +8.2840705947292115e+00 +0.0000000000000000e+00 +5.7999999006818550e+00 -3.2072767792960349e-04 +0.0000000000000000e+00 +9.9999994856687746e-01
5.8499999999999872e+00 +8.2840544890244630e+00 +0.0000000000000000e+00 +5.8499998980879013e+00 -3.2350054260859749e-04 +0.0000000000000000e+00 +9.9999994767369860e-01
5.8999999999999870e+00 +8.2840382446718870e+00 +0.0000000000000000e+00 +5.8999998954490955e+00 -3.2627359114844017e-04 +0.0000000000000000e+00 +9.9999994677277093e-01
