# multipoles
# s[mm] polynom_b[n=0][T/m^n] polynom_b[n=1][T/m^n] polynom_b[n=2][T/m^n] polynom_b[n=3][T/m^n] polynom_b[n=4][T/m^n] polynom_b[n=5][T/m^n] polynom_b[n=6][T/m^n] 
+0.0000000000000000e+00 -5.5188572558276316e-01 +7.2187459927571807e+00 +6.5914919736660602e+00 -1.4479112214013975e+02 -1.9034821489070117e+04 +6.8192178199483303e+05 +1.2555597022838154e+08 
-5.0000000000000003e-02 -5.5188646757407156e-01 +7.2187587784958067e+00 +6.5804329632629477e+00 -1.4505035985931377e+02 -1.8811086468733934e+04 +6.8240581106768874e+05 +1.2433896784415534e+08 
-1.0000000000000001e-01 -5.5188761174219314e-01 +7.2187938278077990e+00 +6.5687615492396052e+00 -1.4532011950684665e+02 -1.8586050380713848e+04 +6.8300735009464878e+05 +1.2311655431188296e+08 
-1.5000000000000002e-01 -5.5188915745185874e-01 +7.2188510402227477e+00 +6.5564991148428007e+00 -1.4559947584162646e+02 -1.8360049438202805e+04 +6.8372103140130616e+05 +1.2189053084569003e+08 
-2.0000000000000001e-01 -5.5189110406778596e-01 +7.2189303152721180e+00 +6.5436670382694846e+00 -1.4588750365798131e+02 -1.8133419719565827e+04 +6.8454148756740999e+05 +1.2066269774710624e+08 
-2.5000000000000000e-01 -5.5189345095473541e-01 +7.2190315524874524e+00 +6.5302867016186443e+00 -1.4618327773295925e+02 -1.7906497405853770e+04 +6.8546335107645812e+05 +1.1943485600110006e+08 
-2.9999999999999999e-01 -5.5189619747748830e-01 +7.2191546514012828e+00 +6.5163794872544560e+00 -1.4648587284170483e+02 -1.7679618688298095e+04 +6.8648125434740621e+05 +1.1820880667651242e+08 
-3.4999999999999998e-01 -5.5189934300083254e-01 +7.2192995115457528e+00 +6.5019667757649806e+00 -1.4679436370890306e+02 -1.7453119707436934e+04 +6.8758982936683786e+05 +1.1698635048024786e+08 
-3.9999999999999997e-01 -5.5190288688957656e-01 +7.2194660324549673e+00 +6.4870699482901450e+00 -1.4710782512274258e+02 -1.7227336624106953e+04 +6.8878370869718341e+05 +1.1576928828039163e+08 
-4.4999999999999996e-01 -5.5190682850855599e-01 +7.2196541136629824e+00 +6.4717103868252774e+00 -1.4742533182607244e+02 -1.7002605614979708e+04 +6.9005752448127605e+05 +1.1455942102081056e+08 
-4.9999999999999994e-01 -5.5191116722260425e-01 +7.2198636547044019e+00 +6.4559094704904973e+00 -1.4774595855568268e+02 -1.6779262785342929e+04 +6.9140590881152079e+05 +1.1335854918620342e+08 
-5.4999999999999993e-01 -5.5191590239660338e-01 +7.2200945551159386e+00 +6.4396885836074276e+00 -1.4806878011493305e+02 -1.6557644379988884e+04 +6.9282349436648434e+05 +1.1216847419706994e+08 
-5.9999999999999998e-01 -5.5192103339542575e-01 +7.2203467144328242e+00 +6.4230691056925391e+00 -1.4839287121628635e+02 -1.6338086513817789e+04 +6.9430491307493846e+05 +1.1099099659459651e+08 
-6.5000000000000002e-01 -5.5192655958397174e-01 +7.2206200321908556e+00 +6.4060724177919477e+00 -1.4871730655515725e+02 -1.6120925341768390e+04 +6.9584479667421454e+05 +1.0982791718503740e+08 
-7.0000000000000007e-01 -5.5193248032716735e-01 +7.2209144079262231e+00 +6.3887199025362005e+00 -1.4904116083182103e+02 -1.5906497065513735e+04 +6.9743777702120272e+05 +1.0868103710394183e+08 
-7.5000000000000011e-01 -5.5193879498994858e-01 +7.2212297411780613e+00 +6.3710329416243994e+00 -1.4936350883750171e+02 -1.5695137861621504e+04 +6.9907848670106265e+05 +1.0755215731315754e+08 
-8.0000000000000016e-01 -5.5194550293726019e-01 +7.2215659314831031e+00 +6.3530329144668523e+00 -1.4968342522912877e+02 -1.5487183843132876e+04 +7.0076155717838125e+05 +1.0644307834093800e+08 
-8.5000000000000020e-01 -5.5195260353408226e-01 +7.2219228783766436e+00 +6.3347412045390552e+00 -1.4999998459781852e+02 -1.5282971237417536e+04 +7.0248161944456724e+05 +1.0535560149951534e+08 
-9.0000000000000024e-01 -5.5196009614539820e-01 +7.2223004813994436e+00 +6.3161791919535348e+00 -1.5031226172259488e+02 -1.5082836176811907e+04 +7.0423330601786193e+05 +1.0429152744384882e+08 
-9.5000000000000029e-01 -5.5196798013620829e-01 +7.2226986400856452e+00 +6.2973682574702803e+00 -1.5061933108657044e+02 -1.4887114817410291e+04 +7.0601124697244132e+05 +1.0325265701200779e+08 
-1.0000000000000002e+00 -5.5197625487154822e-01 +7.2231172539757553e+00 +6.2783297851320441e+00 -1.5092026742115286e+02 -1.4696143403234482e+04 +7.0781007449638087e+05 +1.0224079162916949e+08 
-1.0500000000000003e+00 -5.5198491971644870e-01 +7.2235562226088623e+00 +6.2590851546017854e+00 -1.5121414535991448e+02 -1.4510258058869982e+04 +7.0962441991503548e+05 +1.0125773191020195e+08 
-1.1000000000000003e+00 -5.5199397403595440e-01 +7.2240154455182504e+00 +6.2396557454606363e+00 -1.5150003930483157e+02 -1.4329794909984983e+04 +7.1144891277618334e+05 +1.0030527848557907e+08 
-1.1500000000000004e+00 -5.5200341719514212e-01 +7.2244948222447860e+00 +6.2200629402495604e+00 -1.5177702392367399e+02 -1.4155090164064837e+04 +7.1327818474667531e+05 +9.9385232544748515e+07 
-1.2000000000000004e+00 -5.5201324855911393e-01 +7.2249942523267556e+00 +6.2003281223719000e+00 -1.5204417376594552e+02 -1.3986480050782397e+04 +7.1510686656052724e+05 +9.8499395423472971e+07 
-1.2500000000000004e+00 -5.5202346749295417e-01 +7.2255136353007003e+00 +6.1804726698673980e+00 -1.5230056329618034e+02 -1.3824300657179945e+04 +7.1692958830618428e+05 +9.7649567495877981e+07 
-1.3000000000000005e+00 -5.5203407336178922e-01 +7.2260528707028246e+00 +6.1605179651206194e+00 -1.5254526694052646e+02 -1.3668888191035558e+04 +7.1874097975879081e+05 +9.6837549967133597e+07 
-1.3500000000000005e+00 -5.5204506553075183e-01 +7.2266118580723280e+00 +6.1404853884967974e+00 -1.5277735923111109e+02 -1.3520578801847530e+04 +7.2053567159584397e+05 +9.6065143630424082e+07 
-1.4000000000000006e+00 -5.5205644336499549e-01 +7.2271904969427059e+00 +6.1203963219497330e+00 -1.5299591445051044e+02 -1.3379708691941572e+04 +7.2230829247408151e+05 +9.5334149672357753e+07 
-1.4500000000000006e+00 -5.5206820622969544e-01 +7.2277886868531445e+00 +6.1002721475588713e+00 -1.5320000709637503e+02 -1.3246614059560701e+04 +7.2405347284456715e+05 +9.4646369222240284e+07 
-1.5000000000000007e+00 -5.5208035349001283e-01 +7.2284063273397754e+00 +6.0801342430809662e+00 -1.5338871152687466e+02 -1.3121630996069114e+04 +7.2576584205233387e+05 +9.4003602721210688e+07 
-1.5500000000000007e+00 -5.5209288451116423e-01 +7.2290433179347175e+00 +6.0600039923165268e+00 -1.5356110192233956e+02 -1.3005095749288375e+04 +7.2744002801148582e+05 +9.3407651641998872e+07 
-1.6000000000000008e+00 -5.5210579865834997e-01 +7.2296995581758532e+00 +6.0399027742775919e+00 -1.5371625267918904e+02 -1.2897344447620169e+04 +7.2907066043664690e+05 +9.2860316685215771e+07 
-1.6500000000000008e+00 -5.5211909529680225e-01 +7.2303749475968067e+00 +6.0198519705048641e+00 -1.5385323801391672e+02 -1.2798713284535435e+04 +7.3065236762229924e+05 +9.2363398976971194e+07 
-1.7000000000000008e+00 -5.5213277379176462e-01 +7.2310693857308745e+00 +5.9998729617873972e+00 -1.5397113210864791e+02 -1.2709538436510784e+04 +7.3217977759179077e+05 +9.1918699539688364e+07 
-1.7500000000000009e+00 -5.5214683350848937e-01 +7.2317827721100159e+00 +5.9799871281328425e+00 -1.5406900908075008e+02 -1.2630156062191681e+04 +7.3364751788493397e+05 +9.1528019285274878e+07 
-1.8000000000000009e+00 -5.5216127381225344e-01 +7.2325150062687262e+00 +5.9602158506894796e+00 -1.5414594314641312e+02 -1.2560902348725722e+04 +7.3505021692120354e+05 +9.1193159307095200e+07 
-1.8500000000000010e+00 -5.5217609406833212e-01 +7.2332659877370977e+00 +5.9405805083768657e+00 -1.5420100831982543e+02 -1.2502113432708891e+04 +7.3638250145763881e+05 +9.0915920393535182e+07 
-1.9000000000000010e+00 -5.5219129364203390e-01 +7.2340356160455173e+00 +5.9211024828040593e+00 -1.5423327862208640e+02 -1.2454125518844097e+04 +7.3763899837495398e+05 +9.0698103772425681e+07 
-1.9500000000000011e+00 -5.5220687189867335e-01 +7.2348237907247039e+00 +5.9018031541619518e+00 -1.5424182808022559e+02 -1.2417274777163781e+04 +7.3881433465726860e+05 +9.0541510449342683e+07 
-2.0000000000000009e+00 -5.5222282820357926e-01 +7.2356304113027976e+00 +5.8827039028675454e+00 -1.5422573060702928e+02 -1.2391897388704268e+04 +7.3990313639554323e+05 +9.0447941521947503e+07 
-2.0500000000000007e+00 -5.5223916161298692e-01 +7.2364553749475604e+00 +5.8638188476951632e+00 -1.5418430817644827e+02 -1.2378196230547719e+04 +7.4090119008504087e+05 +9.0418477609955579e+07 
-2.1000000000000005e+00 -5.5225586994645182e-01 +7.2372985629689044e+00 +5.8451330915458986e+00 -1.5411783558535782e+02 -1.2375832971165284e+04 +7.4180859859922680e+05 +9.0451276707665369e+07 
-2.1500000000000004e+00 -5.5227295071420779e-01 +7.2381598511189065e+00 +5.8266244839724610e+00 -1.5402681679843357e+02 -1.2384331565924640e+04 +7.4262646257991181e+05 +9.0543753287060738e+07 
-2.2000000000000002e+00 -5.5229040142654906e-01 +7.2390391151498630e+00 +5.8082708824413025e+00 -1.5391175574426305e+02 -1.2403216177675982e+04 +7.4335588225706352e+05 +9.0693323200649336e+07 
-2.2500000000000000e+00 -5.5230821959374776e-01 +7.2399362308141084e+00 +5.7900501386613428e+00 -1.5377315634229845e+02 -1.2432010820173213e+04 +7.4399795780488313e+05 +9.0897401317879751e+07 
-2.2999999999999998e+00 -5.5232640272611067e-01 +7.2408510738654615e+00 +5.7719401080876649e+00 -1.5361152255438631e+02 -1.2470239604520706e+04 +7.4455378975718294e+05 +9.1153403150036469e+07 
-2.3499999999999996e+00 -5.5234494833394698e-01 +7.2417835200572611e+00 +5.7539186444140977e+00 -1.5342735828801966e+02 -1.2517426598551598e+04 +7.4502447812190943e+05 +9.1458743936184555e+07 
-2.3999999999999995e+00 -5.5236385392757625e-01 +7.2427334451454968e+00 +5.7359636013006634e+00 -1.5322116755459058e+02 -1.2573095865889312e+04 +7.4541112381766504e+05 +9.1810838867318735e+07 
-2.4499999999999993e+00 -5.5238311701733567e-01 +7.2437007248871552e+00 +5.7180528327073157e+00 -1.5299345437469529e+02 -1.2636771476314536e+04 +7.4571482779067929e+05 +9.2207103174662367e+07 
-2.4999999999999991e+00 -5.5240273511357274e-01 +7.2446852350368065e+00 +5.7001641930441229e+00 -1.5274472264381589e+02 -1.2707977518659336e+04 +7.4593668990416895e+05 +9.2644952244480997e+07 
-2.5499999999999989e+00 -5.5242270572663865e-01 +7.2456868513560426e+00 +5.6822755348432246e+00 -1.5247547653109402e+02 -1.2786238024043343e+04 +7.4607781229597609e+05 +9.3121801043309897e+07 
-2.5999999999999988e+00 -5.5244302636690357e-01 +7.2467054495997454e+00 +5.6643647121556437e+00 -1.5218621990779127e+02 -1.2871077067861666e+04 +7.4613929462181544e+05 +9.3635064851992279e+07 
-2.6499999999999986e+00 -5.5246369454475963e-01 +7.2477409055328579e+00 +5.6464095811364752e+00 -1.5187745702210481e+02 -1.2962018783069630e+04 +7.4612223955422372e+05 +9.4182159342572823e+07 
-2.6999999999999984e+00 -5.5248470777058156e-01 +7.2487930949132311e+00 +5.6283879922105502e+00 -1.5154969183317428e+02 -1.3058587142828583e+04 +7.4602774746936280e+05 +9.4760499089684993e+07 
-2.7499999999999982e+00 -5.5250606355477971e-01 +7.2498618935057806e+00 +5.6102778008168510e+00 -1.5120342854086417e+02 -1.3160306259098443e+04 +7.4585692058006080e+05 +9.5367499618196949e+07 
-2.7999999999999980e+00 -5.5252775940776111e-01 +7.2509471770726224e+00 +5.5920568600128719e+00 -1.5083917122076375e+02 -1.3266700182885301e+04 +7.4561086009518278e+05 +9.6000576055519909e+07 
-2.8499999999999979e+00 -5.5254979283995442e-01 +7.2520488213798595e+00 +5.5737030239706353e+00 -1.5045742408889356e+02 -1.3377292984910428e+04 +7.4529066836230876e+05 +9.6657143624186501e+07 
-2.8999999999999977e+00 -5.5257216136179022e-01 +7.2531667021945783e+00 +5.5551941460598204e+00 -1.5005869137358283e+02 -1.3491608721039687e+04 +7.4489744775123778e+05 +9.7334617471609414e+07 
-2.9499999999999975e+00 -5.5259486248370748e-01 +7.2543006952834963e+00 +5.5365080791851238e+00 -1.4964347727282887e+02 -1.3609171431876031e+04 +7.4443230039535672e+05 +9.8030412632714435e+07 
-2.9999999999999973e+00 -5.5261789371616499e-01 +7.2554506764168778e+00 +5.5176226779782240e+00 -1.4921228609295599e+02 -1.3729505205537032e+04 +7.4389632921200886e+05 +9.8741944470064938e+07 
-3.0499999999999972e+00 -5.5264125256961560e-01 +7.2566165213648990e+00 +5.4985157943456890e+00 -1.4876562212109738e+02 -1.3852134054875476e+04 +7.4329063696106011e+05 +9.9466627829635054e+07 
-3.0999999999999970e+00 -5.5266493655454252e-01 +7.2577981059002186e+00 +5.4791652836900067e+00 -1.4830398972027260e+02 -1.3976582084567464e+04 +7.4261632696980960e+05 +1.0020187817058116e+08 
-3.1499999999999968e+00 -5.5268894318142026e-01 +7.2589953057983942e+00 +5.4595489980968672e+00 -1.4782789335355625e+02 -1.4102373309915891e+04 +7.4187450336201850e+05 +1.0094511035134529e+08 
-3.1999999999999966e+00 -5.5271326996073689e-01 +7.2602079968330733e+00 +5.4396447907591776e+00 -1.4733783737411446e+02 -1.4229031776222682e+04 +7.4106626928050746e+05 +1.0169373943289961e+08 
-3.2499999999999964e+00 -5.5273791440299569e-01 +7.2614360547823606e+00 +5.4194305156747857e+00 -1.4683432629579517e+02 -1.4356081549540679e+04 +7.4019272915227688e+05 +1.0244518061512055e+08 
-3.2999999999999963e+00 -5.5276287401870783e-01 +7.2626793554262168e+00 +5.3988840268526950e+00 -1.4631786468709106e+02 -1.4483046694466802e+04 +7.3925498781016481e+05 +1.0319684908322489e+08 
-3.3499999999999961e+00 -5.5278814631838058e-01 +7.2639377745448259e+00 +5.3779831758619858e+00 -1.4578895709447764e+02 -1.4609451207511733e+04 +7.3825414982071274e+05 +1.0394615955413619e+08 
-3.3999999999999959e+00 -5.5281372881254465e-01 +7.2652111879210564e+00 +5.3567058173430766e+00 -1.4524810815638222e+02 -1.4734819172244224e+04 +7.3719132048989553e+05 +1.0469052735234739e+08 
-3.4499999999999957e+00 -5.5283961901173373e-01 +7.2664994713403468e+00 +5.3350298041402988e+00 -1.4469582258718711e+02 -1.4858674613439311e+04 +7.3606760566298105e+05 +1.0542736736702909e+08 
-3.4999999999999956e+00 -5.5286581442648242e-01 +7.2678025005882212e+00 +5.3129329887144152e+00 -1.4413260508019934e+02 -1.4980541553389576e+04 +7.3488411095492891e+05 +1.0615409450266874e+08 
-3.5499999999999954e+00 -5.5289231256734417e-01 +7.2691201514532073e+00 +5.2903932247752712e+00 -1.4355896043183964e+02 -1.5099944039479094e+04 +7.3364194279079803e+05 +1.0686812380125229e+08 
-3.5999999999999952e+00 -5.5291911094487489e-01 +7.2704522997282535e+00 +5.2673883655150950e+00 -1.4297539358623382e+02 -1.5216406108503479e+04 +7.3234220870819991e+05 +1.0756687024911657e+08 
-3.6499999999999950e+00 -5.5294620706964104e-01 +7.2717988212032472e+00 +5.2438962643553149e+00 -1.4238240933714482e+02 -1.5329451800296894e+04 +7.3098601495383773e+05 +1.0824774884507532e+08 
-3.6999999999999948e+00 -5.5297359845220473e-01 +7.2731595916749701e+00 +5.2198947730366934e+00 -1.4178051274607171e+02 -1.5438605110098126e+04 +7.2957446994230885e+05 +1.0890817428819562e+08 
-3.7499999999999947e+00 -5.5300128260315151e-01 +7.2745344869404782e+00 +5.1953617454616845e+00 -1.4117020884652018e+02 -1.5543390083787112e+04 +7.2810868173754972e+05 +1.0954556159589602e+08 
-3.7999999999999945e+00 -5.5302925703307282e-01 +7.2759233827982968e+00 +5.1702750360872241e+00 -1.4055200271350787e+02 -1.5643330787923374e+04 +7.2658975870227790e+05 +1.1015732594735992e+08 
-3.8499999999999943e+00 -5.5305751925255042e-01 +7.2773261550500754e+00 +5.1446124960486577e+00 -1.3992639952223033e+02 -1.5737951193582483e+04 +7.2501880994518206e+05 +1.1074088185681131e+08 
-3.8999999999999941e+00 -5.5308606677217886e-01 +7.2787426795014412e+00 +5.1183519774289570e+00 -1.3929390458744055e+02 -1.5826775296118549e+04 +7.2339694564952934e+05 +1.1129364400442964e+08 
-3.9499999999999940e+00 -5.5311489710258011e-01 +7.2801728319574108e+00 +5.0914713361303239e+00 -1.3865502316453777e+02 -1.5909327191728606e+04 +7.2172527541027043e+05 +1.1181302774051864e+08 
-3.9999999999999938e+00 -5.5314400775434658e-01 +7.2816164882264545e+00 +5.0639484219418831e+00 -1.3801026062815669e+02 -1.5985130811637233e+04 +7.2000490978127765e+05 +1.1229644731057049e+08 
-4.0499999999999936e+00 -5.5317339621088069e-01 +7.2830735141718472e+00 +5.0357673925242459e+00 -1.3736008909036627e+02 -1.6053813356700119e+04 +7.1823707538540161e+05 +1.1274187279052882e+08 
-4.0999999999999934e+00 -5.5320305984746299e-01 +7.2845437317186432e+00 +5.0069383280450870e+00 -1.3670495064716746e+02 -1.6115420168491257e+04 +7.1642399071567133e+05 +1.1314951621579064e+08 
-4.1499999999999932e+00 -5.5323299601257747e-01 +7.2860269507573712e+00 +4.9774779890598078e+00 -1.3604530727244264e+02 -1.6170102413068464e+04 +7.1456825762214290e+05 +1.1352015552482960e+08 
-4.1999999999999931e+00 -5.5326320205472546e-01 +7.2875229811852940e+00 +4.9474031382709986e+00 -1.3538162124223547e+02 -1.6218011310982192e+04 +7.1267248037072981e+05 +1.1385456902873871e+08 
-4.2499999999999929e+00 -5.5329367532240858e-01 +7.2890316328962070e+00 +4.9167305381861617e+00 -1.3471435469131558e+02 -1.6259298075549921e+04 +7.1073926201123919e+05 +1.1415353498233320e+08 
-4.2999999999999927e+00 -5.5332441316410319e-01 +7.2905527157828436e+00 +4.8854769467645109e+00 -1.3404396975012489e+02 -1.6294113799476201e+04 +7.0877120567878662e+05 +1.1441783083158049e+08 
-4.3499999999999925e+00 -5.5335541292833690e-01 +7.2920860397377600e+00 +4.8536591301848437e+00 -1.3337092853017532e+02 -1.6322609792657209e+04 +7.0677091424339439e+05 +1.1464823547901422e+08 
-4.3999999999999924e+00 -5.5338667196360081e-01 +7.2936314146541985e+00 +4.8212938485323189e+00 -1.3269569321139542e+02 -1.6344937202433877e+04 +7.0474099124896794e+05 +1.1484552673240227e+08 
-4.4499999999999922e+00 -5.5341818761839745e-01 +7.2951886504231069e+00 +4.7883978632336142e+00 -1.3201872588692009e+02 -1.6361247209815867e+04 +7.0268403949702578e+05 +1.1501048262144676e+08 
-4.4999999999999920e+00 -5.5344995724123158e-01 +7.2967575569356180e+00 +4.7549879369020216e+00 -1.3134048869113900e+02 -1.6371691032713472e+04 +7.0060266219382477e+05 +1.1514388144251548e+08 
-4.5499999999999918e+00 -5.5348197818061606e-01 +7.2983379440825171e+00 +4.7210808320525466e+00 -1.3066144374944037e+02 -1.6376419874191999e+04 +6.9849946243438812e+05 +1.1524650134887321e+08 
-4.5999999999999917e+00 -5.5351424778505465e-01 +7.2999296217532823e+00 +4.6866933107697211e+00 -1.2998205317187279e+02 -1.6375584934642997e+04 +6.9637704326713679e+05 +1.1531912050978950e+08 
-4.6499999999999915e+00 -5.5354676340305475e-01 +7.3015323998368888e+00 +4.6518421352237906e+00 -1.2930277906346723e+02 -1.6369337411048247e+04 +6.9423800768549799e+05 +1.1536251705107316e+08 
-4.6999999999999913e+00 -5.5357952238311858e-01 +7.3031460882196244e+00 +4.6165440670401470e+00 -1.2862408343331865e+02 -1.6357828486443754e+04 +6.9208495788722124e+05 +1.1537746900788268e+08 
-4.7499999999999911e+00 -5.5361252207376566e-01 +7.3047704967907467e+00 +4.5808158708984124e+00 -1.2794642846297361e+02 -1.6341209426082985e+04 +6.8992049759829906e+05 +1.1536475497310221e+08 
-4.7999999999999909e+00 -5.5364575982348718e-01 +7.3064054354346153e+00 +4.5446743064898207e+00 -1.2727027614016487e+02 -1.6319631356812488e+04 +6.8774722890455066e+05 +1.1532515258954652e+08 
-4.8499999999999908e+00 -5.5367923298080812e-01 +7.3080507140380284e+00 +4.5081361398760551e+00 -1.2659608859385075e+02 -1.6293245576899006e+04 +6.8556775512776559e+05 +1.1525944065831472e+08 
-4.8999999999999906e+00 -5.5371293889421824e-01 +7.3097061424855960e+00 +4.4712181308339281e+00 -1.2592432787630072e+02 -1.6262203215289708e+04 +6.8338467892835417e+05 +1.1516839684193008e+08 
-4.9499999999999904e+00 -5.5374687491222896e-01 +7.3113715306582767e+00 +4.4339370441284238e+00 -1.2525545594056175e+02 -1.6226655536562454e+04 +6.8120060225179151e+05 +1.1505279971843599e+08 
-4.9999999999999902e+00 -5.5378103838334436e-01 +7.3130466884398704e+00 +4.3963096426851918e+00 -1.2458993487205937e+02 -1.6186753749516611e+04 +6.7901812810454646e+05 +1.1491342747235252e+08 
-5.0499999999999901e+00 -5.5381542665606309e-01 +7.3147314257112077e+00 +4.3583526891233593e+00 -1.2392822667126899e+02 -1.6142649055994139e+04 +6.7683985884008033e+05 +1.1475105824653977e+08 
