# field on trajectory
# s[mm] rx[mm] ry[mm] rz[mm] bx[T] by[T] bz[T]
0.0000000000000000e+00 +8.5269999999999904e+00 +0.0000000000000000e+00 +0.0000000000000000e+00 -3.0242761179315156e-02 -5.8015721782223939e-01 +5.2772147302870215e-03
5.0000000000000003e-02 +8.5269999309457507e+00 +0.0000000000000000e+00 +4.9999999999936401e-02 -3.0243525693098534e-02 -5.8015384072844534e-01 +5.2763305962930255e-03
1.0000000000000001e-01 +8.5269997237883199e+00 +0.0000000000000000e+00 +9.9999999999491399e-02 -3.0244309468104792e-02 -5.8015080822764897e-01 +5.2754547462452233e-03
1.4999999999999999e-01 +8.5269993785295792e+00 +0.0000000000000000e+00 +1.4999999999828301e-01 -3.0245112434371182e-02 -5.8014811989349435e-01 +5.2745872659981348e-03
2.0000000000000001e-01 +8.5269988951622508e+00 +0.0000000000000000e+00 +1.9999999999593099e-01 -3.0245934521939608e-02 -5.8014577529971101e-01 +5.2737282414071270e-03
2.5000000000000000e-01 +8.5269982736936107e+00 +0.0000000000000000e+00 +2.4999999999205300e-01 -3.0246775660846974e-02 -5.8014377401993178e-01 +5.2728777583270631e-03
2.9999999999999999e-01 +8.5269975141200103e+00 +0.0000000000000000e+00 +2.9999999998626797e-01 -3.0247635781135512e-02 -5.8014211562788864e-01 +5.2720359026138010e-03
3.4999999999999998e-01 +8.5269966164378292e+00 +0.0000000000000000e+00 +3.4999999997819298e-01 -3.0248514812848203e-02 -5.8014079969732835e-01 +5.2712027601235726e-03
4.0000000000000002e-01 +8.5269955806543294e+00 +0.0000000000000000e+00 +3.9999999996744900e-01 -3.0249412686024355e-02 -5.8013982580193013e-01 +5.2703784167123704e-03
4.5000000000000001e-01 +8.5269944067658798e+00 +0.0000000000000000e+00 +4.4999999995365297e-01 -3.0250329330708387e-02 -5.8013919351547028e-01 +5.2695629582372337e-03
5.0000000000000000e-01 +8.5269930947724806e+00 +0.0000000000000000e+00 +4.9999999993642402e-01 -3.0251264676943869e-02 -5.8013890241171351e-01 +5.2687564705554144e-03
5.5000000000000004e-01 +8.5269916446777607e+00 +0.0000000000000000e+00 +5.4999999991537996e-01 -3.0252218654773427e-02 -5.8013895206441080e-01 +5.2679590395244020e-03
5.9999999999999998e-01 +8.5269900564744603e+00 +0.0000000000000000e+00 +5.9999999989013997e-01 -3.0253191194244636e-02 -5.8013934204741158e-01 +5.2671707510027780e-03
6.5000000000000002e-01 +8.5269883301661995e+00 +0.0000000000000000e+00 +6.4999999986032297e-01 -3.0254182225401105e-02 -5.8014007193449713e-01 +5.2663916908489757e-03
6.9999999999999996e-01 +8.5269864657566394e+00 +0.0000000000000000e+00 +6.9999999982554695e-01 -3.0255191678286782e-02 -5.8014114129946270e-01 +5.2656219449219166e-03
7.5000000000000000e-01 +8.5269844632421208e+00 +0.0000000000000000e+00 +7.4999999978543097e-01 -3.0256219482948928e-02 -5.8014254971617429e-01 +5.2648615990814676e-03
8.0000000000000004e-01 +8.5269823226226400e+00 +0.0000000000000000e+00 +7.9999999973959202e-01 -3.0257265569433610e-02 -5.8014429675848445e-01 +5.2641107391878123e-03
8.4999999999999998e-01 +8.5269800438982202e+00 +0.0000000000000000e+00 +8.4999999968765005e-01 -3.0258329867787044e-02 -5.8014638200026047e-01 +5.2633694511016798e-03
9.0000000000000002e-01 +8.5269776270688507e+00 +0.0000000000000000e+00 +8.9999999962922395e-01 -3.0259412308055650e-02 -5.8014880501538357e-01 +5.2626378206843674e-03
9.4999999999999996e-01 +8.5269750721381605e+00 +0.0000000000000000e+00 +9.4999999956393100e-01 -3.0260512820284472e-02 -5.8015156537772272e-01 +5.2619159337975469e-03
1.0000000000000000e+00 +8.5269723790988792e+00 +0.0000000000000000e+00 +9.9999999949139096e-01 -3.0261631334522952e-02 -5.8015466266124383e-01 +5.2612038763041203e-03
1.0500000000000000e+00 +8.5269695479546499e+00 +0.0000000000000000e+00 +1.0499999994112199e+00 -3.0262767780816137e-02 -5.8015809643984340e-01 +5.2605017340669703e-03
1.1000000000000001e+00 +8.5269665787091107e+00 +0.0000000000000000e+00 +1.0999999993230400e+00 -3.0263922089208976e-02 -5.8016186628743283e-01 +5.2598095929496276e-03
1.1499999999999999e+00 +8.5269634713586093e+00 +0.0000000000000000e+00 +1.1499999992264700e+00 -3.0265094189749209e-02 -5.8016597177799323e-01 +5.2591275388166820e-03
1.2000000000000000e+00 +8.5269602259031707e+00 +0.0000000000000000e+00 +1.1999999991211201e+00 -3.0266284012482922e-02 -5.8017041248549206e-01 +5.2584556575331872e-03
1.2500000000000000e+00 +8.5269568423427700e+00 +0.0000000000000000e+00 +1.2499999990066200e+00 -3.0267491487455910e-02 -5.8017518798390999e-01 +5.2577940349648857e-03
1.3000000000000000e+00 +8.5269533206774195e+00 +0.0000000000000000e+00 +1.2999999988825901e+00 -3.0268716544713702e-02 -5.8018029784724290e-01 +5.2571427569782225e-03
1.3500000000000001e+00 +8.5269496609071194e+00 +0.0000000000000000e+00 +1.3499999987486300e+00 -3.0269959114301401e-02 -5.8018574164950021e-01 +5.2565019094403609e-03
1.3999999999999999e+00 +8.5269458630355093e+00 +0.0000000000000000e+00 +1.3999999986043801e+00 -3.0271219126262194e-02 -5.8019151896467713e-01 +5.2558715782189975e-03
1.4500000000000000e+00 +8.5269419270553009e+00 +0.0000000000000000e+00 +1.4499999984494401e+00 -3.0272496510643267e-02 -5.8019762936686636e-01 +5.2552518491832097e-03
1.5000000000000000e+00 +8.5269378529737896e+00 +0.0000000000000000e+00 +1.4999999982834400e+00 -3.0273791197485248e-02 -5.8020407243006300e-01 +5.2546428082020048e-03
1.5500000000000000e+00 +8.5269336407873197e+00 +0.0000000000000000e+00 +1.5499999981060000e+00 -3.0275103116832677e-02 -5.8021084772835918e-01 +5.2540445411458176e-03
1.6000000000000001e+00 +8.5269292904959002e+00 +0.0000000000000000e+00 +1.5999999979167401e+00 -3.0276432198727898e-02 -5.8021795483583372e-01 +5.2534571338856825e-03
1.6499999999999999e+00 +8.5269248020995292e+00 +0.0000000000000000e+00 +1.6499999977152600e+00 -3.0277778373212529e-02 -5.8022539332657797e-01 +5.2528806722934428e-03
1.7000000000000000e+00 +8.5269201755982102e+00 +0.0000000000000000e+00 +1.6999999975011999e+00 -3.0279141570327423e-02 -5.8023316277469728e-01 +5.2523152422417965e-03
1.7500000000000000e+00 +8.5269154109919292e+00 +0.0000000000000000e+00 +1.7499999972741700e+00 -3.0280521720112551e-02 -5.8024126275431043e-01 +5.2517609296043027e-03
1.8000000000000000e+00 +8.5269105082843506e+00 +0.0000000000000000e+00 +1.7999999970337901e+00 -3.0281918752605497e-02 -5.8024969283952188e-01 +5.2512178202551701e-03
1.8500000000000001e+00 +8.5269054674718099e+00 +0.0000000000000000e+00 +1.8499999967796801e+00 -3.0283332597845929e-02 -5.8025845260450515e-01 +5.2506860000699433e-03
1.8999999999999999e+00 +8.5269002885506797e+00 +0.0000000000000000e+00 +1.8999999965114500e+00 -3.0284763185872372e-02 -5.8026754162344640e-01 +5.2501655549250566e-03
1.9500000000000000e+00 +8.5268949715282396e+00 +0.0000000000000000e+00 +1.9499999962287300e+00 -3.0286210446717903e-02 -5.8027695947046276e-01 +5.2496565706972561e-03
2.0000000000000000e+00 +8.5268895164008391e+00 +0.0000000000000000e+00 +1.9999999959311201e+00 -3.0287674310418872e-02 -5.8028670571976715e-01 +5.2491591332648581e-03
2.0499999999999998e+00 +8.5268839230666291e+00 +0.0000000000000000e+00 +2.0499999956182600e+00 -3.0289154721650512e-02 -5.8029677972799287e-01 +5.2486733214205722e-03
2.1000000000000001e+00 +8.5268781914164702e+00 +0.0000000000000000e+00 +2.0999999952897199e+00 -3.0290651683491196e-02 -5.8030717997846892e-01 +5.2481991855896715e-03
2.1499999999999999e+00 +8.5268723214576294e+00 +0.0000000000000000e+00 +2.1499999949451398e+00 -3.0292165213573242e-02 -5.8031790473530087e-01 +5.2477367690993825e-03
2.2000000000000002e+00 +8.5268663131864706e+00 +0.0000000000000000e+00 +2.1999999945841302e+00 -3.0293695329534822e-02 -5.8032895226268943e-01 +5.2472861152783479e-03
2.2500000000000000e+00 +8.5268601666030008e+00 +0.0000000000000000e+00 +2.2499999942063100e+00 -3.0295242049014130e-02 -5.8034032082481701e-01 +5.2468472674558142e-03
2.2999999999999998e+00 +8.5268538817035697e+00 +0.0000000000000000e+00 +2.2999999938113000e+00 -3.0296805389652511e-02 -5.8035200868590486e-01 +5.2464202689620461e-03
2.3500000000000001e+00 +8.5268474584954692e+00 +0.0000000000000000e+00 +2.3499999933987001e+00 -3.0298385369088583e-02 -5.8036401411010086e-01 +5.2460051631274983e-03
2.3999999999999999e+00 +8.5268408969750507e+00 +0.0000000000000000e+00 +2.3999999929681501e+00 -3.0299982004967203e-02 -5.8037633536164601e-01 +5.2456019932840730e-03
2.4500000000000002e+00 +8.5268341971459396e+00 +0.0000000000000000e+00 +2.4499999925192602e+00 -3.0301595314932220e-02 -5.8038897070473605e-01 +5.2452108027640837e-03
2.5000000000000000e+00 +8.5268273590008903e+00 +0.0000000000000000e+00 +2.4999999920516398e+00 -3.0303225316633913e-02 -5.8040191840365940e-01 +5.2448316349012975e-03
2.5499999999999998e+00 +8.5268203825435194e+00 +0.0000000000000000e+00 +2.5499999915649201e+00 -3.0304872027720225e-02 -5.8041517672263077e-01 +5.2444645330296932e-03
2.6000000000000001e+00 +8.5268132677774702e+00 +0.0000000000000000e+00 +2.5999999910586999e+00 -3.0306535465841368e-02 -5.8042874392587340e-01 +5.2441095404841031e-03
2.6499999999999999e+00 +8.5268060146954703e+00 +0.0000000000000000e+00 +2.6499999905326099e+00 -3.0308215648654230e-02 -5.8044261827770449e-01 +5.2437667006008208e-03
2.7000000000000002e+00 +8.5267986233047797e+00 +0.0000000000000000e+00 +2.6999999899862699e+00 -3.0309912593812213e-02 -5.8045679804233696e-01 +5.2434360567161628e-03
2.7500000000000000e+00 +8.5267910936017905e+00 +0.0000000000000000e+00 +2.7499999894192899e+00 -3.0311626318975673e-02 -5.8047128148407823e-01 +5.2431176521679397e-03
2.7999999999999998e+00 +8.5267834255828294e+00 +0.0000000000000000e+00 +2.7999999888312899e+00 -3.0313356841807589e-02 -5.8048606686724191e-01 +5.2428115302948089e-03
2.8500000000000001e+00 +8.5267756192552007e+00 +0.0000000000000000e+00 +2.8499999882218900e+00 -3.0315104179969118e-02 -5.8050115245606770e-01 +5.2425177344356828e-03
2.8999999999999999e+00 +8.5267676746152592e+00 +0.0000000000000000e+00 +2.8999999875907001e+00 -3.0316868351128710e-02 -5.8051653651488688e-01 +5.2422363079309715e-03
2.9500000000000002e+00 +8.5267595916629908e+00 +0.0000000000000000e+00 +2.9499999869373399e+00 -3.0318649372956256e-02 -5.8053221730801119e-01 +5.2419672941217601e-03
3.0000000000000000e+00 +8.5267513703984203e+00 +0.0000000000000000e+00 +2.9999999862614302e+00 -3.0320447263124554e-02 -5.8054819309975947e-01 +5.2417107363500132e-03
3.0499999999999998e+00 +8.5267430108251592e+00 +0.0000000000000000e+00 +3.0499999855625899e+00 -3.0322262039308070e-02 -5.8056446215443036e-01 +5.2414666779583823e-03
3.1000000000000001e+00 +8.5267345129359509e+00 +0.0000000000000000e+00 +3.0999999848404300e+00 -3.0324093719188882e-02 -5.8058102273641388e-01 +5.2412351622910360e-03
3.1499999999999999e+00 +8.5267258767344192e+00 +0.0000000000000000e+00 +3.1499999840945798e+00 -3.0325942320447902e-02 -5.8059787311002409e-01 +5.2410162326924211e-03
3.2000000000000002e+00 +8.5267171022205694e+00 +0.0000000000000000e+00 +3.1999999833246400e+00 -3.0327807860770915e-02 -5.8061501153960904e-01 +5.2408099325081036e-03
3.2500000000000000e+00 +8.5267081893980503e+00 +0.0000000000000000e+00 +3.2499999825302401e+00 -3.0329690357845680e-02 -5.8063243628949623e-01 +5.2406163050843476e-03
3.2999999999999998e+00 +8.5266991382632096e+00 +0.0000000000000000e+00 +3.2999999817109900e+00 -3.0331589829366509e-02 -5.8065014562407591e-01 +5.2404353937687519e-03
3.3500000000000001e+00 +8.5266899488124199e+00 +0.0000000000000000e+00 +3.3499999808665200e+00 -3.0333506293031380e-02 -5.8066813780774429e-01 +5.2402672419098366e-03
3.3999999999999999e+00 +8.5266806210529502e+00 +0.0000000000000000e+00 +3.3999999799964300e+00 -3.0335439766537603e-02 -5.8068641110482033e-01 +5.2401118928564307e-03
3.4500000000000002e+00 +8.5266711549811607e+00 +0.0000000000000000e+00 +3.4499999791003502e+00 -3.0337390267590785e-02 -5.8070496377971359e-01 +5.2399693899589156e-03
3.5000000000000000e+00 +8.5266615505970496e+00 +0.0000000000000000e+00 +3.4999999781778901e+00 -3.0339357813899015e-02 -5.8072379409681074e-01 +5.2398397765684038e-03
3.5499999999999998e+00 +8.5266518079006293e+00 +0.0000000000000000e+00 +3.5499999772286701e+00 -3.0341342423174465e-02 -5.8074290032050457e-01 +5.2397230960369544e-03
3.6000000000000001e+00 +8.5266419268882601e+00 +0.0000000000000000e+00 +3.5999999762523198e+00 -3.0343344113134926e-02 -5.8076228071522140e-01 +5.2396193917177833e-03
3.6499999999999999e+00 +8.5266319075708505e+00 +0.0000000000000000e+00 +3.6499999752484298e+00 -3.0345362901496510e-02 -5.8078193354528140e-01 +5.2395287069642244e-03
3.6999999999999900e+00 +8.5266217499374797e+00 +0.0000000000000000e+00 +3.6999999742166398e+00 -3.0347398805988603e-02 -5.8080185707517784e-01 +5.2394510851318243e-03
3.7499999999999898e+00 +8.5266114539917908e+00 +0.0000000000000000e+00 +3.7499999731565601e+00 -3.0349451844339095e-02 -5.8082204956929628e-01 +5.2393865695762589e-03
3.7999999999999901e+00 +8.5266010197374307e+00 +0.0000000000000000e+00 +3.7999999720678099e+00 -3.0351522034280411e-02 -5.8084250929202785e-01 +5.2393352036541772e-03
3.8499999999999899e+00 +8.5265904471671092e+00 +0.0000000000000000e+00 +3.8499999709499999e+00 -3.0353609393554096e-02 -5.8086323450785227e-01 +5.2392970307238267e-03
3.8999999999999901e+00 +8.5265797362881095e+00 +0.0000000000000000e+00 +3.8999999698027499e+00 -3.0355713939900483e-02 -5.8088422348114188e-01 +5.2392720941436084e-03
3.9499999999999900e+00 +8.5265688870931609e+00 +0.0000000000000000e+00 +3.9499999686256899e+00 -3.0357835691070693e-02 -5.8090547447638452e-01 +5.2392604372737310e-03
3.9999999999999898e+00 +8.5265578995895304e+00 +0.0000000000000000e+00 +3.9999999674184199e+00 -3.0359974664814843e-02 -5.8092698575796176e-01 +5.2392621034745741e-03
4.0499999999999901e+00 +8.5265467737735907e+00 +0.0000000000000000e+00 +4.0499999661805601e+00 -3.0362130843354283e-02 -5.8094875547399039e-01 +5.2392771239646238e-03
4.0999999999999899e+00 +8.5265355096416897e+00 +0.0000000000000000e+00 +4.0999999649117402e+00 -3.0364304066760030e-02 -5.8097078130718771e-01 +5.2393054813889683e-03
4.1499999999999897e+00 +8.5265241072047502e+00 +0.0000000000000000e+00 +4.1499999636115703e+00 -3.0366494139557786e-02 -5.8099306082381141e-01 +5.2393471462485377e-03
4.1999999999999904e+00 +8.5265125664518600e+00 +0.0000000000000000e+00 +4.1999999622796604e+00 -3.0368700866280535e-02 -5.8101559159029037e-01 +5.2394020890456647e-03
4.2499999999999902e+00 +8.5265008873866499e+00 +0.0000000000000000e+00 +4.2499999609156403e+00 -3.0370924051453613e-02 -5.8103837117294432e-01 +5.2394702802819717e-03
4.2999999999999901e+00 +8.5264890700091200e+00 +0.0000000000000000e+00 +4.2999999595191198e+00 -3.0373163499601973e-02 -5.8106139713812566e-01 +5.2395516904593948e-03
4.3499999999999899e+00 +8.5264771143192792e+00 +0.0000000000000000e+00 +4.3499999580897200e+00 -3.0375419015248616e-02 -5.8108466705218853e-01 +5.2396462900799589e-03
4.3999999999999897e+00 +8.5264650203207601e+00 +0.0000000000000000e+00 +4.3999999566270596e+00 -3.0377690402913025e-02 -5.8110817848146268e-01 +5.2397540496455491e-03
4.4499999999999904e+00 +8.5264527880062797e+00 +0.0000000000000000e+00 +4.4499999551307496e+00 -3.0379977467116986e-02 -5.8113192899236421e-01 +5.2398749396587200e-03
4.4999999999999902e+00 +8.5264404173794901e+00 +0.0000000000000000e+00 +4.4999999536004101e+00 -3.0382280012375529e-02 -5.8115591615122797e-01 +5.2400089306214202e-03
4.5499999999999901e+00 +8.5264279084440204e+00 +0.0000000000000000e+00 +4.5499999520356598e+00 -3.0384597843201296e-02 -5.8118013752439068e-01 +5.2401559930356128e-03
4.5999999999999899e+00 +8.5264152611962292e+00 +0.0000000000000000e+00 +4.5999999504361098e+00 -3.0386930764107478e-02 -5.8120459067824815e-01 +5.2403160974036642e-03
4.6499999999999897e+00 +8.5264024756361305e+00 +0.0000000000000000e+00 +4.6499999488013897e+00 -3.0389278579603111e-02 -5.8122927317916884e-01 +5.2404892142276860e-03
4.6999999999999904e+00 +8.5263895517600794e+00 +0.0000000000000000e+00 +4.6999999471311096e+00 -3.0391641094196092e-02 -5.8125418259355222e-01 +5.2406753140099615e-03
4.7499999999999902e+00 +8.5263764895753393e+00 +0.0000000000000000e+00 +4.7499999454248902e+00 -3.0394018112386987e-02 -5.8127931648771458e-01 +5.2408743672520538e-03
4.7999999999999901e+00 +8.5263632890782901e+00 +0.0000000000000000e+00 +4.7999999436823400e+00 -3.0396409438677954e-02 -5.8130467242805817e-01 +5.2410863444560694e-03
4.8499999999999899e+00 +8.5263499502725608e+00 +0.0000000000000000e+00 +4.8499999419030901e+00 -3.0398814877565128e-02 -5.8133024798093058e-01 +5.2413112161235802e-03
4.8999999999999897e+00 +8.5263364731472393e+00 +0.0000000000000000e+00 +4.8999999400867402e+00 -3.0401234233547503e-02 -5.8135604071279157e-01 +5.2415489527568564e-03
4.9499999999999904e+00 +8.5263228577168793e+00 +0.0000000000000000e+00 +4.9499999382329296e+00 -3.0403667311110365e-02 -5.8138204818990680e-01 +5.2417995248565524e-03
4.9999999999999902e+00 +8.5263091039705596e+00 +0.0000000000000000e+00 +4.9999999363412497e+00 -3.0406113914746138e-02 -5.8140826797873835e-01 +5.2420629029246036e-03
5.0499999999999901e+00 +8.5262952115954196e+00 +0.0000000000000000e+00 +5.0499999344112600e+00 -3.0408573849067984e-02 -5.8143469764807598e-01 +5.2423390574802484e-03
5.0999999999999899e+00 +8.5262811802713294e+00 +0.0000000000000000e+00 +5.0999999324424596e+00 -3.0411046918688709e-02 -5.8146133476676776e-01 +5.2426279590429749e-03
5.1499999999999897e+00 +8.5262670100019005e+00 +0.0000000000000000e+00 +5.1499999304344799e+00 -3.0413532928084290e-02 -5.8148817690116794e-01 +5.2429295781133145e-03
5.1999999999999904e+00 +8.5262527007798798e+00 +0.0000000000000000e+00 +5.1999999283869203e+00 -3.0416031681731463e-02 -5.8151522161771385e-01 +5.2432438851921660e-03
5.2499999999999902e+00 +8.5262382526088896e+00 +0.0000000000000000e+00 +5.2499999262994104e+00 -3.0418542984098566e-02 -5.8154246648275931e-01 +5.2435708507795357e-03
5.2999999999999901e+00 +8.5262236654925800e+00 +0.0000000000000000e+00 +5.2999999241715603e+00 -3.0421066639649979e-02 -5.8156990906265837e-01 +5.2439104453751223e-03
5.3499999999999899e+00 +8.5262089394273097e+00 +0.0000000000000000e+00 +5.3499999220029704e+00 -3.0423602452848957e-02 -5.8159754692381893e-01 +5.2442626394787421e-03
5.3999999999999897e+00 +8.5261940744130698e+00 +0.0000000000000000e+00 +5.3999999197932702e+00 -3.0426150228153089e-02 -5.8162537763262212e-01 +5.2446274035896573e-03
5.4499999999999904e+00 +8.5261790704498708e+00 +0.0000000000000000e+00 +5.4499999175420601e+00 -3.0428709770015633e-02 -5.8165339875544708e-01 +5.2450047082067816e-03
5.4999999999999902e+00 +8.5261639275377092e+00 +0.0000000000000000e+00 +5.4999999152489698e+00 -3.0431280882885426e-02 -5.8168160785867229e-01 +5.2453945238286484e-03
5.5499999999999901e+00 +8.5261486456802196e+00 +0.0000000000000000e+00 +5.5499999129136004e+00 -3.0433863371205305e-02 -5.8171000250864702e-01 +5.2457968209531887e-03
5.5999999999999899e+00 +8.5261332248737691e+00 +0.0000000000000000e+00 +5.5999999105355700e+00 -3.0436457039416439e-02 -5.8173858027177483e-01 +5.2462115700783298e-03
5.6499999999999897e+00 +8.5261176651147306e+00 +0.0000000000000000e+00 +5.6499999081144896e+00 -3.0439061691955292e-02 -5.8176733871445807e-01 +5.2466387417015783e-03
5.6999999999999904e+00 +8.5261019664103497e+00 +0.0000000000000000e+00 +5.6999999056499897e+00 -3.0441677133248968e-02 -5.8179627540301393e-01 +5.2470783063193419e-03
5.7499999999999902e+00 +8.5260861287570204e+00 +0.0000000000000000e+00 +5.7499999031416600e+00 -3.0444303167724118e-02 -5.8182538790384042e-01 +5.2475302344281802e-03
5.7999999999999901e+00 +8.5260701521547198e+00 +0.0000000000000000e+00 +5.7999999005891203e+00 -3.0446939599800809e-02 -5.8185467378330602e-01 +5.2479944965239510e-03
5.8499999999999899e+00 +8.5260540366070892e+00 +0.0000000000000000e+00 +5.8499998979920003e+00 -3.0449586233892489e-02 -5.8188413060774935e-01 +5.2484710631017862e-03
5.8999999999999897e+00 +8.5260377821068705e+00 +0.0000000000000000e+00 +5.8999998953498896e+00 -3.0452242874411752e-02 -5.8191375594359007e-01 +5.2489599046569076e-03
