# multipoles
# s[mm] polynom_b[n=0][T/m^n] polynom_b[n=1][T/m^n] polynom_b[n=2][T/m^n] polynom_b[n=3][T/m^n] polynom_b[n=4][T/m^n] polynom_b[n=5][T/m^n] polynom_b[n=6][T/m^n] 
+0.0000000000000000e+00 -5.7799231147584762e-01 +7.5925085360861875e+00 +5.2662140940374433e+00 -5.3291589965855017e+01 +5.4026900592220454e+03 -1.2882263618313638e+05 -3.5614747891292654e+07 
+5.0000000000000003e-02 -5.7799076271990235e-01 +7.5923692855443443e+00 +5.2741435957299858e+00 -5.3728844882446715e+01 +5.3396320825051253e+03 -1.2618485322909940e+05 -3.5274714271058962e+07 
+1.0000000000000001e-01 -5.7798961328094101e-01 +7.5922511906153831e+00 +5.2817715398502010e+00 -5.4144355905260689e+01 +5.2699918840312712e+03 -1.2363236936822200e+05 -3.4885807122154281e+07 
+1.4999999999999999e-01 -5.7798886257683635e-01 +7.5921542221041873e+00 +5.2890896365014290e+00 -5.4538381855213352e+01 +5.1940699899879801e+03 -1.2116437261467239e+05 -3.4450177267355889e+07 
+2.0000000000000001e-01 -5.7798851002541518e-01 +7.5920783508144449e+00 +5.2960896015263561e+00 -5.4911181440386464e+01 +5.1121667712074141e+03 -1.1878005203183118e+05 -3.3969974481641911e+07 
+2.5000000000000000e-01 -5.7798855504460667e-01 +7.5920235475542643e+00 +5.3027631456009594e+00 -5.5263013527390001e+01 +5.0245827365594805e+03 -1.1647859535995887e+05 -3.3447349462042000e+07 
+2.9999999999999999e-01 -5.7798899705229823e-01 +7.5919897831293257e+00 +5.3091019836521722e+00 -5.5594136840486243e+01 +4.9316182800779425e+03 -1.1425919153761506e+05 -3.2884452136385906e+07 
+3.4999999999999998e-01 -5.7798983546639560e-01 +7.5919770283484294e+00 +5.3150978257556769e+00 -5.5904810194900215e+01 +4.8335739229328456e+03 -1.1212102878088395e+05 -3.2283433276422080e+07 
+4.0000000000000002e-01 -5.7799106970484426e-01 +7.5919852540201109e+00 +5.3207423856407239e+00 -5.6195292348432190e+01 +4.7307500891125001e+03 -1.1006329583954436e+05 -3.1646443004596703e+07 
+4.5000000000000001e-01 -5.7799269918564755e-01 +7.5920144309530500e+00 +5.3260273789378507e+00 -5.6465842035620739e+01 +4.6234471503917166e+03 -1.0808518164150440e+05 -3.0975631087210868e+07 
+5.0000000000000000e-01 -5.7799472332673196e-01 +7.5920645299595870e+00 +5.3309445146003007e+00 -5.6716718102171413e+01 +4.5119656541879822e+03 -1.0618587422769240e+05 -3.0273148461883523e+07 
+5.5000000000000004e-01 -5.7799714154607540e-01 +7.5921355218492499e+00 +5.3354855074513363e+00 -5.6948179235296529e+01 +4.3966059905284319e+03 -1.0436456297622230e+05 -2.9541145011440814e+07 
+5.9999999999999998e-01 -5.7799995326174392e-01 +7.5922273774326374e+00 +5.3396420693555271e+00 -5.7160484142381129e+01 +4.2776686310455189e+03 -1.0262043708745390e+05 -2.8781771171605833e+07 
+6.5000000000000002e-01 -5.7800315789172807e-01 +7.5923400675255079e+00 +5.3434059105845577e+00 -5.7353891690535505e+01 +4.1554540867790938e+03 -1.0095268450776624e+05 -2.7997177634766445e+07 
+6.9999999999999996e-01 -5.7800675485412989e-01 +7.5924735629391193e+00 +5.3467687487218587e+00 -5.7528660544759312e+01 +4.0302626681456513e+03 -9.9360494801279841e+04 -2.7189513730450060e+07 
+7.5000000000000000e-01 -5.7801074356694226e-01 +7.5926278344897220e+00 +5.3497222925930377e+00 -5.7685049529701857e+01 +3.9023949271297547e+03 -9.7843056246671651e+04 -2.6360930437159944e+07 
+8.0000000000000004e-01 -5.7801512344831107e-01 +7.5928028529918450e+00 +5.3522582558651521e+00 -5.7823317367052262e+01 +3.7721512785189962e+03 -9.6399557995621726e+04 -2.5513577782587614e+07 
+8.4999999999999998e-01 -5.7801989391630149e-01 +7.5929985892607457e+00 +5.3543683493626775e+00 -5.7943722772428956e+01 +3.6398322156722143e+03 -9.5029189245270783e+04 -2.4649606338057324e+07 
+9.0000000000000002e-01 -5.7802505438905427e-01 +7.5932150141128920e+00 +5.3560442886641537e+00 -5.8046524481635039e+01 +3.5057381055708724e+03 -9.3731139019972878e+04 -2.3771165824512657e+07 
+9.4999999999999996e-01 -5.7803060428471131e-01 +7.5934520983692799e+00 +5.3572777822668343e+00 -5.8131981383990855e+01 +3.3701694985897270e+03 -9.2504595079278253e+04 -2.2880407175288122e+07 
+1.0000000000000000e+00 -5.7803654302138996e-01 +7.5937098128462566e+00 +5.3580605454266053e+00 -5.8200352142578751e+01 +3.2334267678660440e+03 -9.1348747046053672e+04 -2.1979480151054911e+07 
+1.0500000000000000e+00 -5.7804287001728416e-01 +7.5939881283646065e+00 +5.3583842888636264e+00 -5.8251895570985823e+01 +3.0958104083857065e+03 -9.0262783310191327e+04 -2.1070535329853378e+07 
+1.1000000000000001e+00 -5.7804958469061296e-01 +7.5942870157466844e+00 +5.3582407250811732e+00 -5.8286870523129529e+01 +2.9576208635022799e+03 -8.9245891900289644e+04 -2.0155722932060491e+07 
+1.1499999999999999e+00 -5.7805668645955199e-01 +7.5946064458102045e+00 +5.3576215649809393e+00 -5.8305535616661501e+01 +2.8191586226586528e+03 -8.8297262821566314e+04 -1.9237193499837901e+07 
+1.2000000000000000e+00 -5.7806417474233363e-01 +7.5949463893795128e+00 +5.3565185221796767e+00 -5.8308149732646974e+01 +2.6807240956478572e+03 -8.7416083827682072e+04 -1.8317097015154134e+07 
+1.2500000000000000e+00 -5.7807204895720277e-01 +7.5953068172785656e+00 +5.3549233086535413e+00 -5.8294971687627914e+01 +2.5426177431691221e+03 -8.6601543252688411e+04 -1.7397583830953125e+07 
+1.3000000000000000e+00 -5.7808030852243453e-01 +7.5956877003312799e+00 +5.3528276341815841e+00 -5.8266260275858954e+01 +2.4051400809183415e+03 -8.5852829586017731e+04 -1.6480804655304525e+07 
+1.3500000000000001e+00 -5.7808895285627926e-01 +7.5960890093636060e+00 +5.3502232154682376e+00 -5.8222274342010728e+01 +2.2685914379937362e+03 -8.5169130866515130e+04 -1.5568908939343162e+07 
+1.3999999999999999e+00 -5.7809798137705115e-01 +7.5965107152002513e+00 +5.3471017576364126e+00 -5.8163272659008548e+01 +2.1332724584065595e+03 -8.4549635708781527e+04 -1.4664048270705560e+07 
+1.4500000000000000e+00 -5.7810739350305274e-01 +7.5969527886703379e+00 +5.3434549761211887e+00 -5.8089514150184570e+01 +1.9994835016105872e+03 -8.3993531454721859e+04 -1.3768372294387706e+07 
+1.5000000000000000e+00 -5.7811718865261741e-01 +7.5974152006014366e+00 +5.3392745828596428e+00 -5.8001257640920038e+01 +1.8675250274814666e+03 -8.3500006260097303e+04 -1.2884031355117090e+07 
+1.5500000000000000e+00 -5.7812736624408534e-01 +7.5978979218223470e+00 +5.3345522884782373e+00 -5.7898761990784791e+01 +1.7376975285402104e+03 -8.3068247935869542e+04 -1.2013176012459733e+07 
+1.6000000000000001e+00 -5.7813792569585065e-01 +7.5984009231650989e+00 +5.3292798049154637e+00 -5.7782286159335577e+01 +1.6103014617250988e+03 -8.2697443468390702e+04 -1.1157956582144253e+07 
+1.6499999999999999e+00 -5.7814886642624019e-01 +7.5989241754568271e+00 +5.3234488439985208e+00 -5.7652088874758199e+01 +1.4856372864652078e+03 -8.2386781715145436e+04 -1.0320523399762668e+07 
+1.7000000000000000e+00 -5.7816018785370060e-01 +7.5994676495343132e+00 +5.3170511162011351e+00 -5.7508429255886476e+01 +1.3640054972964112e+03 -8.2135448223909960e+04 -9.5030270312439334e+06 
+1.7500000000000000e+00 -5.7817188939664743e-01 +7.6000313162294075e+00 +5.3100783325899927e+00 -5.7351566175214039e+01 +1.2457065800991154e+03 -8.1942630612501700e+04 -8.7076180155291334e+06 
+1.8000000000000000e+00 -5.7818397047346126e-01 +7.6006151463766374e+00 +5.3025222056421715e+00 -5.7181758594926457e+01 +1.1310409730680021e+03 -8.1807515677335017e+04 -7.9364465332932360e+06 
+1.8500000000000001e+00 -5.7819643050261527e-01 +7.6012191108111500e+00 +5.2943744458805524e+00 -5.6999265481197973e+01 +1.0203091731013576e+03 -8.1729290160231743e+04 -7.1916631851904159e+06 
+1.8999999999999999e+00 -5.7820926890260327e-01 +7.6018431803675570e+00 +5.2856267647097166e+00 -5.6804345751642451e+01 +9.1381165244344720e+02 -8.1707141169188253e+04 -6.4754184038966643e+06 
+1.9500000000000000e+00 -5.7822248509184493e-01 +7.6024873258858889e+00 +5.2762708720309837e+00 -5.6597258533677234e+01 +8.1184892296823273e+02 -8.1740253968566089e+04 -5.7898628868715791e+06 
+2.0000000000000000e+00 -5.7823596148468537e-01 +7.6031457890837642e+00 +5.2663885506535459e+00 -5.6380225731508631e+01 +7.1544635014780908e+02 -8.1826439498508786e+04 -5.1419996872351579e+06 
+2.0499999999999998e+00 -5.7824980681300064e-01 +7.6038238344671045e+00 +5.2559099173515342e+00 -5.6152042260757526e+01 +6.2362645855948006e+02 -8.1963265081220568e+04 -4.5252989947794182e+06 
+2.1000000000000001e+00 -5.7826401916936399e-01 +7.6045213322656426e+00 +5.2448450198611054e+00 -5.5913248554223429e+01 +5.3621753330293052e+02 -8.2148010627828640e+04 -3.9386324627630273e+06 
+2.1499999999999999e+00 -5.7827859664637105e-01 +7.6052381527075781e+00 +5.2332039129849752e+00 -5.5664384944853090e+01 +4.5304766390576378e+02 -8.2377956929535329e+04 -3.3808704033623943e+06 
+2.2000000000000002e+00 -5.7829353733662359e-01 +7.6059741660259412e+00 +5.2209966452154228e+00 -5.5405991954354199e+01 +3.7394511237191841e+02 -8.2650383177455064e+04 -2.8508843019692940e+06 
+2.2500000000000000e+00 -5.7830883933276933e-01 +7.6067292424496840e+00 +5.2082332657230594e+00 -5.5138609922587101e+01 +2.9873812431176464e+02 -8.2962570039938029e+04 -2.3475455398889123e+06 
+2.2999999999999998e+00 -5.7832450072743735e-01 +7.6075032522089892e+00 +5.1949238280393697e+00 -5.4862779192640417e+01 +2.2725482545740724e+02 -8.3311798242071556e+04 -1.8697246809826135e+06 
+2.3500000000000001e+00 -5.7834051961332122e-01 +7.6082960655369671e+00 +5.1810783804101908e+00 -5.4579040235631233e+01 +1.5932348292526385e+02 -8.3695347353538134e+04 -1.4162932384796871e+06 
+2.3999999999999999e+00 -5.7835689408300517e-01 +7.6091075526654093e+00 +5.1667069732688233e+00 -5.4287933414852695e+01 +9.4772312825682747e+01 -8.4110497934918574e+04 -9.8612241291693342e+05 
+2.4500000000000002e+00 -5.7837362222923383e-01 +7.6099375838263947e+00 +5.1518196596998003e+00 -5.3989999117589186e+01 +3.3429451132406655e+01 -8.4554530244924317e+04 -5.7808283057164261e+05 
+2.5000000000000000e+00 -5.7839070214465993e-01 +7.6107860292520622e+00 +5.1364264882789419e+00 -5.3685777689900178e+01 -2.4876839270263872e+01 -8.5024724959424711e+04 -1.9104599206580129e+05 
+2.5499999999999998e+00 -5.7840813192198692e-01 +7.6116527591778489e+00 +5.1205375100425510e+00 -5.3375809589997907e+01 -8.0318363342325569e+01 -8.5518361848689397e+04 +1.7611706349611570e+05 
+2.6000000000000001e+00 -5.7842590965397889e-01 +7.6125376438328525e+00 +5.1041627743458990e+00 -5.3060635024386436e+01 -1.3306687579570297e+02 -8.6032722663994224e+04 +5.2453493977054919e+05 
+2.6499999999999999e+00 -5.7844403343332174e-01 +7.6134405534545957e+00 +5.0873123349868328e+00 -5.2740794481693925e+01 -1.8329425852170937e+02 -8.6565086973966259e+04 +8.5533712834698299e+05 
+2.7000000000000002e+00 -5.7846250135274035e-01 +7.6143613582756080e+00 +5.0699962402011272e+00 -5.2416828272427949e+01 -2.3117223475916535e+02 -8.7112735662269653e+04 +1.1696520160602201e+06 
+2.7500000000000000e+00 -5.7848131150502047e-01 +7.6152999285295602e+00 +5.0522245424101477e+00 -5.2089276697344346e+01 -2.7687264564392876e+02 -8.7672949839271532e+04 +1.4686088071919547e+06 
+2.7999999999999998e+00 -5.7850046198289251e-01 +7.6162561344517945e+00 +5.0340072920540164e+00 -5.1758680125722506e+01 -3.2056727592529643e+02 -8.8243009985325480e+04 +1.7533363143254439e+06 
+2.8500000000000001e+00 -5.7851995087915764e-01 +7.6172298462769588e+00 +5.0153545404176763e+00 -5.1425578873387025e+01 -3.6242793317363828e+02 -8.8820197052442236e+04 +2.0249635037906985e+06 
+2.8999999999999999e+00 -5.7853977628658426e-01 +7.6182209342387281e+00 +4.9962763362591218e+00 -5.1090513206602580e+01 -4.0262635734810152e+02 -8.9401792371630771e+04 +2.2846188881031931e+06 
+2.9500000000000002e+00 -5.7855993629793290e-01 +7.6192292685730125e+00 +4.9767827338902411e+00 -5.0754023449353504e+01 -4.4133442923553815e+02 -8.9985076861048554e+04 +2.5334318988879877e+06 
+3.0000000000000000e+00 -5.7858042900604278e-01 +7.6202547195166357e+00 +4.9568837816132589e+00 -5.0416649948897117e+01 -4.7872388025483417e+02 -9.0567331265697721e+04 +2.7725310072130668e+06 
+3.0499999999999998e+00 -5.7860125250374517e-01 +7.6212971573004786e+00 +4.9365895332603431e+00 -5.0078932809912232e+01 -5.1496657972165167e+02 -9.1145838252488596e+04 +3.0030455747923171e+06 
+3.1000000000000001e+00 -5.7862240488382644e-01 +7.6223564521651292e+00 +4.9159100386817984e+00 -4.9741412502838308e+01 -5.5023429573900728e+02 -9.1717877536369269e+04 +3.2261043017955357e+06 
+3.1499999999999999e+00 -5.7864388423918711e-01 +7.6234324743414472e+00 +4.8948553505201273e+00 -4.9404629075096366e+01 -5.8469886307290733e+02 -9.2280732386649455e+04 +3.4428363112927978e+06 
+3.2000000000000002e+00 -5.7866568866257773e-01 +7.6245250940690825e+00 +4.8734355186440173e+00 -4.9069122930435377e+01 -6.1853204647077041e+02 -9.2831683054775698e+04 +3.6543702674808637e+06 
+3.2500000000000000e+00 -5.7868781624687615e-01 +7.6256341815795166e+00 +4.8516605941576652e+00 -4.8735434117253178e+01 -6.5190564526454216e+02 -9.3368012788133783e+04 +3.8618350780971381e+06 
+3.2999999999999998e+00 -5.7871026508498902e-01 +7.6267596071109249e+00 +4.8295406312577356e+00 -4.8404102944509077e+01 -6.8499153446089338e+02 -9.3887002681452737e+04 +4.0663601311577233e+06 
+3.3500000000000001e+00 -5.7873303326978176e-01 +7.6279012408964624e+00 +4.8070856801069688e+00 -4.8075669491997751e+01 -7.1796148141381627e+02 -9.4385935760207023e+04 +4.2690740952848531e+06 
+3.3999999999999999e+00 -5.7875611889410827e-01 +7.6290589531755790e+00 +4.7843057928951787e+00 -4.7750674098960275e+01 -7.5098731276966316e+02 -9.4862092862017482e+04 +4.4711060585980136e+06 
+3.4500000000000002e+00 -5.7877952005087885e-01 +7.6302326141804420e+00 +4.7612110196828263e+00 -4.7429656762562146e+01 -7.8424078607973104e+02 -9.5312757773006291e+04 +4.6735845973248854e+06 
+3.5000000000000000e+00 -5.7880323483298612e-01 +7.6314220941472035e+00 +4.7378114163206506e+00 -4.7113157659478667e+01 -8.1789382330262652e+02 -9.5735212687801410e+04 +4.8776394334216379e+06 
+3.5499999999999998e+00 -5.7882726133331919e-01 +7.6326272633114858e+00 +4.7141170318231493e+00 -4.6801716915079133e+01 -8.5211815953660562e+02 -9.6126740309133093e+04 +5.0843990178713333e+06 
+3.6000000000000001e+00 -5.7885159764485195e-01 +7.6338479919085511e+00 +4.6901379185193921e+00 -4.6495874625501088e+01 -8.8708561339510027e+02 -9.6484623604708700e+04 +5.2949923444861313e+06 
+3.6499999999999999e+00 -5.7887624186044306e-01 +7.6350841501711155e+00 +4.6658841319346864e+00 -4.6196170764708086e+01 -9.2296809193532283e+02 -9.6806146563617498e+04 +5.5105490145913661e+06 
+3.6999999999999900e+00 -5.7890119207308699e-01 +7.6363356083376619e+00 +4.6413657205884347e+00 -4.5903145540973860e+01 -9.5993731127381852e+02 -9.7088591241348637e+04 +5.7321973368736422e+06 
+3.7499999999999898e+00 -5.7892644637565216e-01 +7.6376022366423939e+00 +4.6165927393863528e+00 -4.5617338971700981e+01 -9.9816516098385193e+02 -9.7329241272759042e+04 +5.9610667934089182e+06 
+3.7999999999999901e+00 -5.7895200286114468e-01 +7.6388839053156827e+00 +4.5915752411217401e+00 -4.5339290891709595e+01 -1.0378234664067247e+03 -9.7525381892039019e+04 +6.1982864100233046e+06 
+3.8499999999999899e+00 -5.7897785962251336e-01 +7.6401804845960086e+00 +4.5663232775622387e+00 -4.5069541469998789e+01 -1.0790840301812045e+03 -9.7674295526327391e+04 +6.4449850804679068e+06 
+3.8999999999999901e+00 -5.7900401475269991e-01 +7.6414918447153415e+00 +4.5408469029562690e+00 -4.4808630591869182e+01 -1.1221187168983545e+03 -9.7773266985714901e+04 +6.7022920957601499e+06 
+3.9499999999999900e+00 -5.7903046630023747e-01 +7.6428178526549564e+00 +4.5151557481057623e+00 -4.4557046524433318e+01 -1.1670845582918475e+03 -9.7819838883779681e+04 +6.9712454761196896e+06 
+3.9999999999999898e+00 -5.7905721179688185e-01 +7.6441583309251797e+00 +4.4892551462076433e+00 -4.4314735433862467e+01 -1.2139737459446544e+03 -9.7814447733981870e+04 +7.2518590897743367e+06 
+4.0499999999999901e+00 -5.7908424844056750e-01 +7.6455130701721945e+00 +4.4631479548543052e+00 -4.4081323755862599e+01 -1.2626745281687731e+03 -9.7759337488142002e+04 +7.5434969856835008e+06 
+4.0999999999999899e+00 -5.7911157342368169e-01 +7.6468818603681497e+00 +4.4368370051448709e+00 -4.3856434136175785e+01 -1.3130734843467401e+03 -9.7656778873159899e+04 +7.8455126469643405e+06 
+4.1499999999999897e+00 -5.7913918393875663e-01 +7.6482644914844347e+00 +4.4103251332842959e+00 -4.3639689184410969e+01 -1.3650573326751985e+03 -9.7509043008730077e+04 +8.1572605051075201e+06 
+4.1999999999999904e+00 -5.7916707717816307e-01 +7.6496607534921974e+00 +4.3836151717331839e+00 -4.3430711528137941e+01 -1.4185126941783701e+03 -9.7318400774692942e+04 +8.4780943443331365e+06 
+4.2499999999999902e+00 -5.7919525033436459e-01 +7.6510704363655275e+00 +4.3567099536730911e+00 -4.3229123920310464e+01 -1.4733262031129570e+03 -9.7087122078795932e+04 +8.8073680168016776e+06 
+4.2999999999999901e+00 -5.7922370059976735e-01 +7.6524933300760614e+00 +4.3296123123600845e+00 -4.3034549022998803e+01 -1.5293845056810969e+03 -9.6817477584382868e+04 +9.1444354951676801e+06 
+4.3499999999999899e+00 -5.7925242516679643e-01 +7.6539292245914234e+00 +4.3023250785738885e+00 -4.2846609360829284e+01 -1.5865741726633134e+03 -9.6511739050913675e+04 +9.4886502064428683e+06 
+4.3999999999999897e+00 -5.7928142122793203e-01 +7.6553779098882346e+00 +4.2748510883170852e+00 -4.2664927831247617e+01 -1.6447819225636717e+03 -9.6172175222631064e+04 +9.8393666045640986e+06 
+4.4499999999999904e+00 -5.7931068597560931e-01 +7.6568391759360379e+00 +4.2471931740172986e+00 -4.2489127066991735e+01 -1.7038943751712716e+03 -9.5801056986467578e+04 +1.0195938466218695e+07 
+4.4999999999999902e+00 -5.7934021660220447e-01 +7.6583128127083766e+00 +4.2193541675314465e+00 -4.2318829873601473e+01 -1.7637981359357275e+03 -9.5400653845141336e+04 +1.0557719477264754e+07 
+4.5499999999999901e+00 -5.7937001030027013e-01 +7.6597986101769289e+00 +4.1913369023754443e+00 -4.2153659014103305e+01 -1.8243798550873876e+03 -9.4973235612147197e+04 +1.0924063624057582e+07 
+4.5999999999999899e+00 -5.7940006426210111e-01 +7.6612963583105778e+00 +4.1631442107465091e+00 -4.1993237133513752e+01 -1.8855261492157276e+03 -9.4521073139781365e+04 +1.1294324676358251e+07 
+4.6499999999999897e+00 -5.7943037568021982e-01 +7.6628058470841820e+00 +4.1347789262948602e+00 -4.1837187157563207e+01 -1.9471236766641421e+03 -9.4046434941653351e+04 +1.1667856691535791e+07 
+4.6999999999999904e+00 -5.7946094174706253e-01 +7.6643268664682678e+00 +4.1062438816778632e+00 -4.1685131859431699e+01 -2.0090590659173936e+03 -9.3551590770112729e+04 +1.2044013516275823e+07 
+4.7499999999999902e+00 -5.7949175965502797e-01 +7.6658592064335132e+00 +4.0775419080112583e+00 -4.1536694031572765e+01 -2.0712189039563768e+03 -9.3038810253969103e+04 +1.2422148717965789e+07 
+4.7999999999999901e+00 -5.7952282659659071e-01 +7.6674026569521452e+00 +4.0486758406648873e+00 -4.1391496553344354e+01 -2.1334898985355267e+03 -9.2510362325171431e+04 +1.2801616702905279e+07 
+4.8499999999999899e+00 -5.7955413976419490e-01 +7.6689570079953402e+00 +4.0196485096377295e+00 -4.1249162294917362e+01 -2.1957586082912339e+03 -9.1968515950753208e+04 +1.3181770850957945e+07 
+4.8999999999999897e+00 -5.7958569635015678e-01 +7.6705220495345809e+00 +3.9904627474182144e+00 -4.1109314144814427e+01 -2.2579116632903324e+03 -9.1415540018475411e+04 +1.3561965044701025e+07 
+4.9499999999999904e+00 -5.7961727862853274e-01 +7.6720869192727212e+00 +3.9613198894096491e+00 -4.0972504641551389e+01 -2.3194197177727228e+03 -9.0857510329586439e+04 +1.3939000876754116e+07 
+4.9999999999999902e+00 -5.7964909554189425e-01 +7.6736619228620153e+00 +3.9320263030998013e+00 -4.0837406369750397e+01 -2.3805907548094742e+03 -9.0292962016523525e+04 +1.4314805811534991e+07 
+5.0499999999999901e+00 -5.7968114433899720e-01 +7.6752468544916743e+00 +3.9025847627054686e+00 -4.0703649931501118e+01 -2.4413136421448803e+03 -8.9724117085894701e+04 +1.4688746433675921e+07 
