# multipoles
# s[mm] polynom_b[n=0][T/m^n] polynom_b[n=1][T/m^n] polynom_b[n=2][T/m^n] polynom_b[n=3][T/m^n] polynom_b[n=4][T/m^n] polynom_b[n=5][T/m^n] polynom_b[n=6][T/m^n] 
+0.0000000000000000e+00 -5.7589319775705394e-01 +7.5400073177776799e+00 +5.7661402631251457e+00 -9.1275987022666911e+01 +1.3860006087820011e+04 +1.2802288998232508e+05 -6.2015364770578884e+07 
+5.0000000000000003e-02 -5.7589167089895088e-01 +7.5399988694231057e+00 +5.7681567089749350e+00 -9.0981128961057479e+01 +1.3838859346040195e+04 +1.2600560987507414e+05 -6.1997216311403997e+07 
+1.0000000000000001e-01 -5.7589056538103811e-01 +7.5400137534315039e+00 +5.7698238312556569e+00 -9.0710465536659157e+01 +1.3816376762120328e+04 +1.2419605326947164e+05 -6.1978269732004754e+07 
+1.5000000000000002e-01 -5.7588988035181532e-01 +7.5400519171474549e+00 +5.7711413964203997e+00 -9.0463768697844358e+01 +1.3792483335492578e+04 +1.2259181390377907e+05 -6.1957747871893339e+07 
+2.0000000000000001e-01 -5.7588961495984481e-01 +7.5401133079210929e+00 +5.7721091787331105e+00 -9.0240810600929947e+01 +1.3767103853897695e+04 +1.2119048727713931e+05 -6.1934872139041767e+07 
+2.5000000000000000e-01 -5.7588976835366268e-01 +7.5401978730960622e+00 +5.7727269441069886e+00 -9.0041363106258231e+01 +1.3740163332856762e+04 +1.1998966647028374e+05 -6.1908865491221547e+07 
+2.9999999999999999e-01 -5.7589033968184566e-01 +7.5403055600207134e+00 +5.7729944627930818e+00 -8.9865198240782163e+01 +1.3711586668019523e+04 +1.1898694595236480e+05 -6.1878950068316631e+07 
+3.4999999999999998e-01 -5.7589132809298249e-01 +7.5404363160429453e+00 +5.7729115030180500e+00 -8.9712087988959581e+01 +1.3681298813918056e+04 +1.1817991987430899e+05 -6.1844348423283339e+07 
+3.9999999999999997e-01 -5.7589273273569475e-01 +7.5405900885133308e+00 +5.7724778359829729e+00 -8.9581804409011582e+01 +1.3649224641574499e+04 +1.1756618298015770e+05 -6.1804282535324290e+07 
+4.4999999999999996e-01 -5.7589455275860602e-01 +7.5407668247781245e+00 +5.7716932291891645e+00 -8.9474119367100329e+01 +1.3615289130522184e+04 +1.1714332849957849e+05 -6.1757975152750820e+07 
+4.9999999999999994e-01 -5.7589678731037541e-01 +7.5409664721893837e+00 +5.7705574539091016e+00 -8.9388804926438709e+01 +1.3579417145747402e+04 +1.1690895124236951e+05 -6.1704648198151551e+07 
+5.4999999999999993e-01 -5.7589943553967304e-01 +7.5411889780962165e+00 +5.7690702793310171e+00 -8.9325633010728197e+01 +1.3541533621397315e+04 +1.1686064492470947e+05 -6.1643524118724659e+07 
+5.9999999999999998e-01 -5.7590249659519488e-01 +7.5414342898484499e+00 +5.7672314759384129e+00 -8.9284375538661024e+01 +1.3501563452455215e+04 +1.1699600320447575e+05 -6.1573825075685769e+07 
+6.5000000000000002e-01 -5.7590596962564311e-01 +7.5417023547986641e+00 +5.7650408119929484e+00 -8.9264804520735112e+01 +1.3459431594778258e+04 +1.1731262053941279e+05 -6.1494773648540266e+07 
+7.0000000000000007e-01 -5.7590985377974946e-01 +7.5419931202972803e+00 +5.7624980580621159e+00 -8.9266691832272571e+01 +1.3415062938601970e+04 +1.1780809020502590e+05 -6.1405591962051600e+07 
+7.5000000000000011e-01 -5.7591414820626496e-01 +7.5423065336992936e+00 +5.7596029842894403e+00 -8.9289809527166796e+01 +1.3368382392810883e+04 +1.1848000703066359e+05 -6.1305502295785517e+07 
+8.0000000000000016e-01 -5.7591885205396753e-01 +7.5426425423553116e+00 +5.7563553622815800e+00 -8.9333929428212684e+01 +1.3319314823248982e+04 +1.1932596386280104e+05 -6.1193726622038819e+07 
+8.5000000000000020e-01 -5.7592396447163130e-01 +7.5430010936211804e+00 +5.7527549600300141e+00 -8.9398823556038465e+01 +1.3267785193838106e+04 +1.2034355522942396e+05 -6.1069487582407393e+07 
+9.0000000000000024e-01 -5.7592948460806526e-01 +7.5433821348481747e+00 +5.7488015482489816e+00 -8.9484263721128571e+01 +1.3213718396379256e+04 +1.2153037395561770e+05 -6.0932007336939737e+07 
+9.5000000000000029e-01 -5.7593541161210327e-01 +7.5437856133930019e+00 +5.7444948984089379e+00 -8.9590021901869576e+01 +1.3157039305063123e+04 +1.2288401414684403e+05 -6.0780507935176447e+07 
+1.0000000000000002e+00 -5.7594174463258219e-01 +7.5442114766123680e+00 +5.7398347798579898e+00 -8.9715870062359798e+01 +1.3097672845538080e+04 +1.2440206985326011e+05 -6.0614211753178157e+07 
+1.0500000000000003e+00 -5.7594848281837641e-01 +7.5446596718596197e+00 +5.7348209649390833e+00 -8.9861579990042628e+01 +1.3035543868575116e+04 +1.2608213363076324e+05 -6.0432340686167367e+07 
+1.1000000000000003e+00 -5.7595562531834821e-01 +7.5451301464937677e+00 +5.7294532208325650e+00 -9.0026923670372767e+01 +1.2970577362406188e+04 +1.2792179964392599e+05 -6.0234117550505519e+07 
+1.1500000000000004e+00 -5.7596317128141772e-01 +7.5456228478710212e+00 +5.7237313214006988e+00 -9.0211672950381043e+01 +1.2902698136259143e+04 +1.2991866094009895e+05 -6.0018763955716878e+07 
+1.2000000000000004e+00 -5.7597111985649430e-01 +7.5461377233486004e+00 +5.7176550355756541e+00 -9.0415599675225508e+01 +1.2831831133410304e+04 +1.3207031048967768e+05 -5.9785502425091043e+07 
+1.2500000000000004e+00 -5.7597947019252427e-01 +7.5466747202874789e+00 +5.7112241359054101e+00 -9.0638475815294484e+01 +1.2757901196142922e+04 +1.3437434229805390e+05 -5.9533554783772923e+07 
+1.3000000000000005e+00 -5.7598822143845363e-01 +7.5472337860439334e+00 +5.7044383912274332e+00 -9.0880073113790601e+01 +1.2680833271013164e+04 +1.3682834847295369e+05 -5.9262143576762781e+07 
+1.3500000000000005e+00 -5.7599737274326512e-01 +7.5478148679796222e+00 +5.6972975739398812e+00 -9.1140163501833612e+01 +1.2600552207572042e+04 +1.3942992264563625e+05 -5.8970490692346729e+07 
+1.4000000000000006e+00 -5.7600692325595115e-01 +7.5484179134551006e+00 +5.6898014548493601e+00 -9.1418518826804231e+01 +1.2516982900202533e+04 +1.4217665771942007e+05 -5.8657818326775171e+07 
+1.4500000000000006e+00 -5.7601687212551633e-01 +7.5490428698315757e+00 +5.6819498040767549e+00 -9.1714910929060110e+01 +1.2430050257785404e+04 +1.4506614652030819e+05 -5.8323348759095870e+07 
+1.5000000000000007e+00 -5.7602721850100058e-01 +7.5496896844718924e+00 +5.6737423944224181e+00 -9.2029111688390088e+01 +1.2339679122324949e+04 +1.4809598218138434e+05 -5.7966303836904541e+07 
+1.5500000000000007e+00 -5.7603796153144693e-01 +7.5503583047363172e+00 +5.6651789964278265e+00 -9.2360892825206022e+01 +1.2245794392868231e+04 +1.5126375643854999e+05 -5.7585905777110323e+07 
+1.6000000000000008e+00 -5.7604910036592338e-01 +7.5510486779893435e+00 +5.6562593816944444e+00 -9.2710026214406440e+01 +1.2148320944305908e+04 +1.5456706231775112e+05 -5.7181376650886893e+07 
+1.6500000000000008e+00 -5.7606063415351083e-01 +7.5517607515958245e+00 +5.6469833213192739e+00 -9.3076283705748310e+01 +1.2047183660464536e+04 +1.5800349259232465e+05 -5.6751938570556350e+07 
+1.7000000000000008e+00 -5.7607256204331592e-01 +7.5524944729194869e+00 +5.6373505873351917e+00 -9.3459437061269995e+01 +1.1942307405121846e+04 +1.6157063924977020e+05 -5.6296813531183869e+07 
+1.7500000000000009e+00 -5.7608488318445072e-01 +7.5532497893279373e+00 +5.6273609504598205e+00 -9.3859258166307470e+01 +1.1833617072394016e+04 +1.6526609526046636e+05 -5.5815223714954183e+07 
+1.8000000000000009e+00 -5.7609759672606153e-01 +7.5540266481829379e+00 +5.6170141837935041e+00 -9.4275518624566246e+01 +1.1721037495382283e+04 +1.6908745120850194e+05 -5.5306390900532551e+07 
+1.8500000000000010e+00 -5.7611070181729762e-01 +7.5548249968553858e+00 +5.6063100575215552e+00 -9.4707990392200827e+01 +1.1604493591797593e+04 +1.7303230059739060e+05 -5.4769537461208798e+07 
+1.9000000000000010e+00 -5.7612419760732703e-01 +7.5556447827120410e+00 +5.5952483431556956e+00 -9.5156445196409379e+01 +1.1483910230770100e+04 +1.7709823491380521e+05 -5.4203885391034067e+07 
+1.9500000000000011e+00 -5.7613808324535598e-01 +7.5564859531202790e+00 +5.5838288152817590e+00 -9.5620654762393826e+01 +1.1359212208041557e+04 +1.8128284561795078e+05 -5.3608656225225307e+07 
+2.0000000000000009e+00 -5.7615235788057717e-01 +7.5573484554500538e+00 +5.5720512430149505e+00 -9.6100390889113925e+01 +1.1230324466711556e+04 +1.8558372476563539e+05 -5.2983072490811035e+07 
+2.0500000000000007e+00 -5.7616702042688672e-01 +7.5582322113133644e+00 +5.5599150619633626e+00 -9.6595270964566637e+01 +1.1097225271747211e+04 +1.8999768480911732e+05 -5.2326765027010284e+07 
+2.1000000000000005e+00 -5.7618206885629775e-01 +7.5591370340658406e+00 +5.5474189436389896e+00 -9.7104374336000618e+01 +1.0960106042995470e+04 +1.9451883468124288e+05 -5.1641004470897436e+07 
+2.1500000000000004e+00 -5.7619750090526567e-01 +7.5600627086874015e+00 +5.5345615321302546e+00 -9.7626666498134824e+01 +1.0819211241179888e+04 +1.9914071043824474e+05 -5.0927471350957133e+07 
+2.2000000000000002e+00 -5.7621331431024136e-01 +7.5610090201644731e+00 +5.5213414681766348e+00 -9.8161113197257478e+01 +1.0674785414684415e+04 +2.0385685017447610e+05 -5.0187846769207418e+07 
+2.2500000000000000e+00 -5.7622950680770235e-01 +7.5619757534775269e+00 +5.5077573952608869e+00 -9.8706679928055266e+01 +1.0527073040042693e+04 +2.0866078995941288e+05 -4.9423811358735383e+07 
+2.2999999999999998e+00 -5.7624607613411272e-01 +7.5629626936124019e+00 +5.4938079514340785e+00 -9.9262332386254030e+01 +1.0376318741974226e+04 +2.1354606749725208e+05 -4.8637046752687328e+07 
+2.3499999999999996e+00 -5.7626302002599317e-01 +7.5639696255546989e+00 +5.4794917834555763e+00 -9.9827036237324364e+01 +1.0222766904230029e+04 +2.1850622022432508e+05 -4.7829232940960780e+07 
+2.3999999999999995e+00 -5.7628033621982611e-01 +7.5649963342886997e+00 +5.4648075287695344e+00 -1.0039975708803918e+02 +1.0066662164657117e+04 +2.2353478514302275e+05 -4.7002051638679221e+07 
+2.4499999999999993e+00 -5.7629802245214179e-01 +7.5660426048001153e+00 +5.4497538309986000e+00 -1.0097946059363522e+02 +9.9082489937755454e+03 +2.2862529966164270e+05 -4.6157183429584883e+07 
+2.4999999999999991e+00 -5.7631607645945993e-01 +7.5671082220764170e+00 +5.4343293305655305e+00 -1.0156511246990739e+02 +9.7477719425729028e+03 +2.3377130170434352e+05 -4.5296309419609927e+07 
+2.5499999999999989e+00 -5.7633449597832254e-01 +7.5681929711026381e+00 +5.4185326685720199e+00 -1.0215567831254684e+02 +9.5854755540397346e+03 +2.3896632817058303e+05 -4.4421110702420138e+07 
+2.5999999999999988e+00 -5.7635327874527686e-01 +7.5692966368692103e+00 +5.4023624867010884e+00 -1.0275012394131183e+02 +9.4216043387541704e+03 +2.4420391786868725e+05 -4.3533268088880897e+07 
+2.6499999999999986e+00 -5.7637242249688969e-01 +7.5704190043619537e+00 +5.3858174266909735e+00 -1.0334741496895965e+02 +9.2564028201298261e+03 +2.4947760788210289e+05 -4.2634462532275178e+07 
+2.6999999999999984e+00 -5.7639192496971625e-01 +7.5715598585687589e+00 +5.3688961273070559e+00 -1.0394651710999516e+02 +9.0901155908638393e+03 +2.5478093624220052e+05 -4.1726375415768355e+07 
+2.7499999999999982e+00 -5.7641178390034398e-01 +7.5727189844814555e+00 +5.3515972307705102e+00 -1.0454639619441248e+02 +8.9229871540874046e+03 +2.6010744178451132e+05 -4.0810687530095577e+07 
+2.7999999999999980e+00 -5.7643199702535797e-01 +7.5738961670872413e+00 +5.3339193772056017e+00 -1.0514601789421720e+02 +8.7552620667514839e+03 +2.6545066222383501e+05 -3.9889080021103553e+07 
+2.8499999999999979e+00 -5.7645256208135620e-01 +7.5750911913771004e+00 +5.3158612073528930e+00 -1.0574434800987581e+02 +8.5871848687489837e+03 +2.7080413625240588e+05 -3.8963233921920456e+07 
+2.8999999999999977e+00 -5.7647347680494343e-01 +7.5763038423394056e+00 +5.2974213615621206e+00 -1.0634035224270413e+02 +8.4190001060445484e+03 +2.7616140181771776e+05 -3.8034830286427066e+07 
+2.9499999999999975e+00 -5.7649473893272674e-01 +7.5775339049670016e+00 +5.2785984784802542e+00 -1.0693299647375331e+02 +8.2509523775920752e+03 +2.8151599836605124e+05 -3.7105550559559435e+07 
+2.9999999999999973e+00 -5.7651634620134140e-01 +7.5787811642521499e+00 +5.2593912010170412e+00 -1.0752124655476568e+02 +8.0832861548647725e+03 +2.8686146511015965e+05 -3.6177075276409663e+07 
+3.0499999999999972e+00 -5.7653829634740661e-01 +7.5800454051830668e+00 +5.2397981671533307e+00 -1.0810406817577142e+02 +7.9162460488396518e+03 +2.9219133997820283e+05 -3.5251085942989916e+07 
+3.0999999999999970e+00 -5.7656058710754987e-01 +7.5813264127558408e+00 +5.2198180145684780e+00 -1.0868042734994930e+02 +7.7500766768220210e+03 +2.9749916358093021e+05 -3.4329264100058608e+07 
+3.1499999999999968e+00 -5.7658321621843356e-01 +7.5826239719614517e+00 +5.1994493863619464e+00 -1.0924928988434743e+02 +7.5850225037169848e+03 +3.0277847487000917e+05 -3.3413290239228971e+07 
+3.1999999999999966e+00 -5.7660618141669373e-01 +7.5839378677948233e+00 +5.1786909190996271e+00 -1.0980962174153724e+02 +7.4213281747745350e+03 +3.0802281408423750e+05 -3.2504846088070970e+07 
+3.2499999999999964e+00 -5.7662948043899143e-01 +7.5852678852469966e+00 +5.1575412527951174e+00 -1.1036038873951814e+02 +7.2592382354165675e+03 +3.1322572033202194e+05 -3.1605612674466338e+07 
+3.2999999999999963e+00 -5.7665311102198480e-01 +7.5866138093132038e+00 +5.1359990251225289e+00 -1.1090055686593108e+02 +7.0989972979678332e+03 +3.1838073413457273e+05 -3.0717271494531214e+07 
+3.3499999999999961e+00 -5.7667707090234066e-01 +7.5879754249891889e+00 +5.1140628745650947e+00 -1.1142909213959088e+02 +6.9408499479350103e+03 +3.2348139632689662e+05 -2.9841503847172033e+07 
+3.3999999999999959e+00 -5.7670135781674092e-01 +7.5893525172670611e+00 +5.0917314408839864e+00 -1.1194496043483655e+02 +6.7850407337910956e+03 +3.2852124657387298e+05 -2.8979990772341676e+07 
+3.4499999999999957e+00 -5.7672596950185950e-01 +7.5907448711468488e+00 +5.0690033613816565e+00 -1.1244712796218600e+02 +6.6318142716765478e+03 +3.3349382737139845e+05 -2.8134413776952036e+07 
+3.4999999999999956e+00 -5.7675090369437465e-01 +7.5921522716213827e+00 +5.0458772727019721e+00 -1.1293456063121499e+02 +6.4814151916194105e+03 +3.3839267872211168e+05 -2.7306454444422286e+07 
+3.5499999999999954e+00 -5.7677615813097871e-01 +7.5935745036860860e+00 +5.0223518132070639e+00 -1.1340622449159200e+02 +6.3340880772261826e+03 +3.4321134190642746e+05 -2.6497794049880896e+07 
+3.5999999999999952e+00 -5.7680173054836570e-01 +7.5950113523388350e+00 +4.9984256204777635e+00 -1.1386108567794939e+02 +6.1900775299318684e+03 +3.4794335885281506e+05 -2.5710113978955079e+07 
+3.6499999999999950e+00 -5.7682761868322940e-01 +7.5964626025762634e+00 +4.9740973311893608e+00 -1.1429811031341819e+02 +6.0496281731110057e+03 +3.5258227155897662e+05 -2.4945095756272666e+07 
+3.6999999999999948e+00 -5.7685382027226684e-01 +7.5979280393966651e+00 +4.9493655814078181e+00 -1.1471626456983667e+02 +5.9129846463852136e+03 +3.5712162232836179e+05 -2.4204421017673489e+07 
+3.7499999999999947e+00 -5.7688033305218633e-01 +7.5994074477973781e+00 +4.9242290088174263e+00 -1.1511451462068173e+02 +5.7803915412262941e+03 +3.6155495363823458e+05 -2.3489771061944053e+07 
+3.7999999999999945e+00 -5.7690715475968501e-01 +7.6009006127767282e+00 +4.8986862476424120e+00 -1.1549182667883713e+02 +5.6520935449222688e+03 +3.6587580828287068e+05 -2.2802827844488814e+07 
+3.8499999999999943e+00 -5.7693428313147743e-01 +7.6024073193335093e+00 +4.8727359349188148e+00 -1.1584716700643301e+02 +5.5283352615933700e+03 +3.7007772956467752e+05 -2.2145272732547309e+07 
+3.8999999999999941e+00 -5.7696171590427003e-01 +7.6039273524649600e+00 +4.8463767055798552e+00 -1.1617950179398210e+02 +5.4093613527578264e+03 +3.7415426015732286e+05 -2.1518787490104645e+07 
+3.9499999999999940e+00 -5.7698945081477493e-01 +7.6054604971734543e+00 +4.8196071944964674e+00 -1.1648779748216091e+02 +5.2954164792497086e+03 +3.7809894492698438e+05 -2.0925053866737638e+07 
+3.9999999999999938e+00 -5.7701748559971833e-01 +7.6070065384565746e+00 +4.7924260386358464e+00 -1.1677102032366113e+02 +5.1867452424595995e+03 +3.8190532724445622e+05 -2.0365753199621029e+07 
+4.0499999999999936e+00 -5.7704581786342857e-01 +7.6085652682386087e+00 +4.7648331191603921e+00 -1.1702837937088623e+02 +5.0835397492269849e+03 +3.8556820727572613e+05 -1.9842190415050268e+07 
+4.0999999999999934e+00 -5.7707444468168201e-01 +7.6101364973288241e+00 +4.7368331962228023e+00 -1.1725996223690456e+02 +4.9857883655397363e+03 +3.8908681720165157e+05 -1.9354185367266905e+07 
+4.1499999999999932e+00 -5.7710336299838838e-01 +7.6117200390552311e+00 +4.7084322552919842e+00 -1.1746605311858919e+02 +4.8934297465153049e+03 +3.9246133774237277e+05 -1.8901189578269549e+07 
+4.1999999999999931e+00 -5.7713256975742688e-01 +7.6133157067515400e+00 +4.6796362759990258e+00 -1.1764693645441157e+02 +4.8064027063192325e+03 +3.9569195151967555e+05 -1.8482655640368920e+07 
+4.2499999999999929e+00 -5.7716206190270014e-01 +7.6149233137495305e+00 +4.6504512421343032e+00 -1.1780289659814055e+02 +4.7246459416267653e+03 +3.9877884040052397e+05 -1.8098035328699350e+07 
+4.2999999999999927e+00 -5.7719183637810068e-01 +7.6165426733776522e+00 +4.6208831347867481e+00 -1.1793421776928805e+02 +4.6480982298417412e+03 +4.0172218511557602e+05 -1.7746780992687792e+07 
+4.3499999999999925e+00 -5.7722189012752700e-01 +7.6181735989715325e+00 +4.5909379360396247e+00 -1.1804118448235350e+02 +4.5766983155166381e+03 +4.0452216879611445e+05 -1.7428344730415624e+07 
+4.3999999999999924e+00 -5.7725222009488142e-01 +7.6198159038621487e+00 +4.5606216284923384e+00 -1.1812408106907500e+02 +4.5103849328110728e+03 +4.0717897304776084e+05 -1.7142178584642842e+07 
+4.4499999999999922e+00 -5.7728282322405589e-01 +7.6214694013820043e+00 +4.5299401927848741e+00 -1.1818319192489879e+02 +4.4490968640385545e+03 +4.0969277996838884e+05 -1.6887734898608666e+07 
+4.4999999999999920e+00 -5.7731369645896491e-01 +7.6231339048617190e+00 +4.4988996128936432e+00 -1.1821880135861311e+02 +4.3927728109484588e+03 +4.1206377085718786e+05 -1.6664465507951120e+07 
+4.5499999999999918e+00 -5.7734483674350434e-01 +7.6248092276350876e+00 +4.4675058698675798e+00 -1.1823119383143498e+02 +4.3413515447058990e+03 +4.1429212830259069e+05 -1.6471822673424389e+07 
+4.5999999999999917e+00 -5.7737624102156793e-01 +7.6264951830343932e+00 +4.4357649441337186e+00 -1.1822065373308909e+02 +4.2947718598477759e+03 +4.1637803421297192e+05 -1.6309258838764835e+07 
+4.6499999999999915e+00 -5.7740790623707194e-01 +7.6281915843909944e+00 +4.4036828201473028e+00 -1.1818746542204016e+02 +4.2529724383645171e+03 +4.1832167021850706e+05 -1.6176225666327577e+07 
+4.6999999999999913e+00 -5.7743982933390636e-01 +7.6298982450375341e+00 +4.3712654778938811e+00 -1.1813191331543929e+02 +4.2158920843668566e+03 +4.2012321838744037e+05 -1.6072175649445273e+07 
+4.7499999999999911e+00 -5.7747200725597958e-01 +7.6316149783075868e+00 +4.3385189001414322e+00 -1.1805428188493308e+02 +4.1834695308832470e+03 +4.2178286125594948e+05 -1.5996560809071852e+07 
+4.7999999999999909e+00 -5.7750443694718190e-01 +7.6333415975345114e+00 +4.3054490673359966e+00 -1.1795485556525179e+02 +4.1556435673221167e+03 +4.2330078086518805e+05 -1.5948833521213088e+07 
+4.8499999999999908e+00 -5.7753711535141916e-01 +7.6350779160486706e+00 +4.2720619622920770e+00 -1.1783391870505007e+02 +4.1323529237601542e+03 +4.2467715864263364e+05 -1.5928445773067001e+07 
+4.8999999999999906e+00 -5.7757003941258789e-01 +7.6368237471825440e+00 +4.2383635665629962e+00 -1.1769175572701772e+02 +4.1135363652205460e+03 +4.2591217649713333e+05 -1.5934849789692510e+07 
+4.9499999999999904e+00 -5.7760320607457527e-01 +7.6385789042692451e+00 +4.2043598604113548e+00 -1.1752865110727762e+02 +4.0991326897335775e+03 +4.2700601681830018e+05 -1.5967498006289568e+07 
+4.9999999999999902e+00 -5.7763661228128782e-01 +7.6403432006420475e+00 +4.1700568275746646e+00 -1.1734488931318380e+02 +4.0890806032757359e+03 +4.2795886178848456e+05 -1.6025842238175076e+07 
+5.0499999999999901e+00 -5.7767025497661117e-01 +7.6421164496328675e+00 +4.1354604488527711e+00 -1.1714075477171602e+02 +4.0833188909144196e+03 +4.2877089324695780e+05 -1.6109334831569009e+07 
