# field on trajectory
# s[mm] rx[mm] ry[mm] rz[mm] bx[T] by[T] bz[T]
0.0000000000000000e+00 +8.5270000000000206e+00 +0.0000000000000000e+00 +0.0000000000000000e+00 -2.9023945454008476e-02 -5.5108877750228358e-01 +4.7655190833813359e-03
5.0000000000000003e-02 +8.5269999309457507e+00 +0.0000000000000000e+00 +4.9999999999936401e-02 -2.9025234996438561e-02 -5.5108861680119037e-01 +4.7655730985542120e-03
1.0000000000000001e-01 +8.5269997237846802e+00 +0.0000000000000000e+00 +9.9999999999491399e-02 -2.9026542418593280e-02 -5.5108883329126068e-01 +4.7656438138447997e-03
1.4999999999999999e-01 +8.5269993785186706e+00 +0.0000000000000000e+00 +1.4999999999828301e-01 -2.9027867736308489e-02 -5.5108942621314649e-01 +4.7657312106821068e-03
2.0000000000000001e-01 +8.5269988951477007e+00 +0.0000000000000000e+00 +1.9999999999593099e-01 -2.9029210965422249e-02 -5.5109039480753041e-01 +4.7658352704959836e-03
2.5000000000000000e-01 +8.5269982736681396e+00 +0.0000000000000000e+00 +2.4999999999205300e-01 -2.9030572121775476e-02 -5.5109173831513936e-01 +4.7659559747172085e-03
2.9999999999999999e-01 +8.5269975140799907e+00 +0.0000000000000000e+00 +2.9999999998626697e-01 -2.9031951221209017e-02 -5.5109345597669068e-01 +4.7660933047771626e-03
3.4999999999999998e-01 +8.5269966163905302e+00 +0.0000000000000000e+00 +3.4999999997819298e-01 -2.9033348279562141e-02 -5.5109554703286778e-01 +4.7662472421076520e-03
4.0000000000000002e-01 +8.5269955805888493e+00 +0.0000000000000000e+00 +3.9999999996744801e-01 -2.9034763312682479e-02 -5.5109801072450182e-01 +4.7664177681420970e-03
4.5000000000000001e-01 +8.5269944066858407e+00 +0.0000000000000000e+00 +4.4999999995365197e-01 -2.9036196336410185e-02 -5.5110084629228284e-01 +4.7666048643136795e-03
5.0000000000000000e-01 +8.5269930946742498e+00 +0.0000000000000000e+00 +4.9999999993642202e-01 -2.9037647366593655e-02 -5.5110405297704945e-01 +4.7668085120571909e-03
5.5000000000000004e-01 +8.5269916445577092e+00 +0.0000000000000000e+00 +5.4999999991537796e-01 -2.9039116419077970e-02 -5.5110763001957785e-01 +4.7670286928076953e-03
5.9999999999999998e-01 +8.5269900563289394e+00 +0.0000000000000000e+00 +5.9999999989013697e-01 -2.9040603509713433e-02 -5.5111157666073907e-01 +4.7672653880015438e-03
6.5000000000000002e-01 +8.5269883299988596e+00 +0.0000000000000000e+00 +6.4999999986031898e-01 -2.9042108654343972e-02 -5.5111589214128875e-01 +4.7675185790750137e-03
6.9999999999999996e-01 +8.5269864655601904e+00 +0.0000000000000000e+00 +6.9999999982554195e-01 -2.9043631868821508e-02 -5.5112057570212936e-01 +4.7677882474660106e-03
7.5000000000000000e-01 +8.5269844630165608e+00 +0.0000000000000000e+00 +7.4999999978542398e-01 -2.9045173168994319e-02 -5.5112562658410114e-01 +4.7680743746127199e-03
8.0000000000000004e-01 +8.5269823223679904e+00 +0.0000000000000000e+00 +7.9999999973958402e-01 -2.9046732570712726e-02 -5.5113104402808466e-01 +4.7683769419542754e-03
8.4999999999999998e-01 +8.5269800436108198e+00 +0.0000000000000000e+00 +8.4999999968764095e-01 -2.9048310089829055e-02 -5.5113682727500257e-01 +4.7686959309307707e-03
9.0000000000000002e-01 +8.5269776267450705e+00 +0.0000000000000000e+00 +8.9999999962921295e-01 -2.9049905742194671e-02 -5.5114297556576630e-01 +4.7690313229829164e-03
9.4999999999999996e-01 +8.5269750717743609e+00 +0.0000000000000000e+00 +9.4999999956391801e-01 -2.9051519543659875e-02 -5.5114948814127507e-01 +4.7693830995520431e-03
1.0000000000000000e+00 +8.5269723786986997e+00 +0.0000000000000000e+00 +9.9999999949137597e-01 -2.9053151510076716e-02 -5.5115636424246883e-01 +4.7697512420804451e-03
1.0500000000000000e+00 +8.5269695475144491e+00 +0.0000000000000000e+00 +1.0499999994111999e+00 -2.9054801657298981e-02 -5.5116360311032864e-01 +4.7701357320113803e-03
1.1000000000000001e+00 +8.5269665782288904e+00 +0.0000000000000000e+00 +1.0999999993230201e+00 -2.9056470001176282e-02 -5.5117120398577035e-01 +4.7705365507883946e-03
1.1499999999999999e+00 +8.5269634708311095e+00 +0.0000000000000000e+00 +1.1499999992264500e+00 -2.9058156557565541e-02 -5.5117916610985473e-01 +4.7709536798566776e-03
1.2000000000000000e+00 +8.5269602253283701e+00 +0.0000000000000000e+00 +1.1999999991210999e+00 -2.9059861342316508e-02 -5.5118748872352508e-01 +4.7713871006613735e-03
1.2500000000000000e+00 +8.5269568417206791e+00 +0.0000000000000000e+00 +1.2499999990065900e+00 -2.9061584371281757e-02 -5.5119617106779051e-01 +4.7718367946487711e-03
1.3000000000000000e+00 +8.5269533200044005e+00 +0.0000000000000000e+00 +1.2999999988825499e+00 -2.9063325660315220e-02 -5.5120521238369946e-01 +4.7723027432661266e-03
1.3500000000000001e+00 +8.5269496601795307e+00 +0.0000000000000000e+00 +1.3499999987485900e+00 -2.9065085225269155e-02 -5.5121461191228716e-01 +4.7727849279613375e-03
1.3999999999999999e+00 +8.5269458622533403e+00 +0.0000000000000000e+00 +1.3999999986043401e+00 -2.9066863081992717e-02 -5.5122436889454862e-01 +4.7732833301827680e-03
1.4500000000000000e+00 +8.5269419262185693e+00 +0.0000000000000000e+00 +1.4499999984494001e+00 -2.9068659246340427e-02 -5.5123448257159668e-01 +4.7737979313802695e-03
1.5000000000000000e+00 +8.5269378520752106e+00 +0.0000000000000000e+00 +1.4999999982833900e+00 -2.9070473734163584e-02 -5.5124495218450353e-01 +4.7743287130041726e-03
1.5500000000000000e+00 +8.5269336398268898e+00 +0.0000000000000000e+00 +1.5499999981059500e+00 -2.9072306561311493e-02 -5.5125577697432759e-01 +4.7748756565054442e-03
1.6000000000000001e+00 +8.5269292894736299e+00 +0.0000000000000000e+00 +1.5999999979166799e+00 -2.9074157743634380e-02 -5.5126695618216481e-01 +4.7754387433360393e-03
1.6499999999999999e+00 +8.5269248010117700e+00 +0.0000000000000000e+00 +1.6499999977152000e+00 -2.9076027296983283e-02 -5.5127848904914956e-01 +4.7760179549489051e-03
1.7000000000000000e+00 +8.5269201744449692e+00 +0.0000000000000000e+00 +1.6999999975011300e+00 -2.9077915237205626e-02 -5.5129037481637422e-01 +4.7766132727974624e-03
1.7500000000000000e+00 +8.5269154097695701e+00 +0.0000000000000000e+00 +1.7499999972740901e+00 -2.9079821580150961e-02 -5.5130261272499548e-01 +4.7772246783363012e-03
1.8000000000000000e+00 +8.5269105069892195e+00 +0.0000000000000000e+00 +1.7999999970336999e+00 -2.9081746341665087e-02 -5.5131520201612871e-01 +4.7778521530204851e-03
1.8500000000000001e+00 +8.5269054661039299e+00 +0.0000000000000000e+00 +1.8499999967795799e+00 -2.9083689537594298e-02 -5.5132814193092472e-01 +4.7784956783060847e-03
1.8999999999999999e+00 +8.5269002871100401e+00 +0.0000000000000000e+00 +1.8999999965113501e+00 -2.9085651183785397e-02 -5.5134143171057304e-01 +4.7791552356501645e-03
1.9500000000000000e+00 +8.5268949700112007e+00 +0.0000000000000000e+00 +1.9499999962286201e+00 -2.9087631296081155e-02 -5.5135507059621958e-01 +4.7798308065102732e-03
2.0000000000000000e+00 +8.5268895148037700e+00 +0.0000000000000000e+00 +1.9999999959310100e+00 -2.9089629890326138e-02 -5.5136905782907297e-01 +4.7805223723451414e-03
2.0499999999999998e+00 +8.5268839213858900e+00 +0.0000000000000000e+00 +2.0499999956181298e+00 -2.9091646942855535e-02 -5.5138339242544010e-01 +4.7812299111351913e-03
2.1000000000000001e+00 +8.5268781896593300e+00 +0.0000000000000000e+00 +2.0999999952895898e+00 -2.9093682271814133e-02 -5.5139807249911266e-01 +4.7819533869262118e-03
2.1499999999999999e+00 +8.5268723196240899e+00 +0.0000000000000000e+00 +2.1499999949449999e+00 -2.9095735655761065e-02 -5.5141309593755550e-01 +4.7826927602761743e-03
2.2000000000000002e+00 +8.5268663112729008e+00 +0.0000000000000000e+00 +2.1999999945839801e+00 -2.9097806873259149e-02 -5.5142846062829831e-01 +4.7834479917440841e-03
2.2500000000000000e+00 +8.5268601646093902e+00 +0.0000000000000000e+00 +2.2499999942061502e+00 -2.9099895702867695e-02 -5.5144416445880307e-01 +4.7842190418890844e-03
2.2999999999999998e+00 +8.5268538796335598e+00 +0.0000000000000000e+00 +2.2999999938111202e+00 -2.9102001923148237e-02 -5.5146020531656803e-01 +4.7850058712711474e-03
2.3500000000000001e+00 +8.5268474563490599e+00 +0.0000000000000000e+00 +2.3499999933985198e+00 -2.9104125312661818e-02 -5.5147658108907804e-01 +4.7858084404507287e-03
2.3999999999999999e+00 +8.5268408947522403e+00 +0.0000000000000000e+00 +2.3999999929679601e+00 -2.9106265649973293e-02 -5.5149328966388123e-01 +4.7866267099892692e-03
2.4500000000000002e+00 +8.5268341948467405e+00 +0.0000000000000000e+00 +2.4499999925190501e+00 -2.9108422713645644e-02 -5.5151032892848317e-01 +4.7874606404485001e-03
2.5000000000000000e+00 +8.5268273566252901e+00 +0.0000000000000000e+00 +2.4999999920514302e+00 -2.9110596282247197e-02 -5.5152769677048064e-01 +4.7883101923913030e-03
2.5499999999999998e+00 +8.5268203800987994e+00 +0.0000000000000000e+00 +2.5499999915646900e+00 -2.9112786134340197e-02 -5.5154539107734857e-01 +4.7891753263803079e-03
2.6000000000000001e+00 +8.5268132652563509e+00 +0.0000000000000000e+00 +2.5999999910584699e+00 -2.9114992048496654e-02 -5.5156340973673157e-01 +4.7900560029798048e-03
2.6499999999999999e+00 +8.5268060121015896e+00 +0.0000000000000000e+00 +2.6499999905323701e+00 -2.9117213803284036e-02 -5.5158175063617909e-01 +4.7909521827540014e-03
2.7000000000000002e+00 +8.5267986206345103e+00 +0.0000000000000000e+00 +2.6999999899860101e+00 -2.9119451177272410e-02 -5.5160041166327656e-01 +4.7918638262678601e-03
2.7500000000000000e+00 +8.5267910908551094e+00 +0.0000000000000000e+00 +2.7499999894190199e+00 -2.9121703949033247e-02 -5.5161939070562183e-01 +4.7927908940869537e-03
2.7999999999999998e+00 +8.5267834227670392e+00 +0.0000000000000000e+00 +2.7999999888310101e+00 -2.9123971897137786e-02 -5.5163868565079488e-01 +4.7937333467772481e-03
2.8500000000000001e+00 +8.5267756163666508e+00 +0.0000000000000000e+00 +2.8499999882215898e+00 -2.9126254800161629e-02 -5.5165829438643965e-01 +4.7946911449056493e-03
2.8999999999999999e+00 +8.5267676716539391e+00 +0.0000000000000000e+00 +2.8999999875903901e+00 -2.9128552436680329e-02 -5.5167821480018420e-01 +4.7956642490394469e-03
2.9500000000000002e+00 +8.5267595886289200e+00 +0.0000000000000000e+00 +2.9499999869370299e+00 -2.9130864585270932e-02 -5.5169844477966556e-01 +4.7966526197465035e-03
3.0000000000000000e+00 +8.5267513672915793e+00 +0.0000000000000000e+00 +2.9999999862611100e+00 -2.9133191024511982e-02 -5.5171898221253179e-01 +4.7976562175952257e-03
3.0499999999999998e+00 +8.5267430076455604e+00 +0.0000000000000000e+00 +3.0499999855622502e+00 -2.9135531532982210e-02 -5.5173982498641394e-01 +4.7986750031543939e-03
3.1000000000000001e+00 +8.5267345096872305e+00 +0.0000000000000000e+00 +3.0999999848400801e+00 -2.9137885889264810e-02 -5.5176097098900567e-01 +4.7997089369936855e-03
3.1499999999999999e+00 +8.5267258734165807e+00 +0.0000000000000000e+00 +3.1499999840942201e+00 -2.9140253871943238e-02 -5.5178241810798423e-01 +4.8007579796831290e-03
3.2000000000000002e+00 +8.5267170988336094e+00 +0.0000000000000000e+00 +3.1999999833242700e+00 -2.9142635259602655e-02 -5.5180416423103651e-01 +4.8018220917932812e-03
3.2500000000000000e+00 +8.5267081859419704e+00 +0.0000000000000000e+00 +3.2499999825298600e+00 -2.9145029830828551e-02 -5.5182620724583209e-01 +4.8029012338950336e-03
3.2999999999999998e+00 +8.5266991347380099e+00 +0.0000000000000000e+00 +3.2999999817106000e+00 -2.9147437364211149e-02 -5.5184854504010350e-01 +4.8039953665601522e-03
3.3500000000000001e+00 +8.5266899452181004e+00 +0.0000000000000000e+00 +3.3499999808661101e+00 -2.9149857638342509e-02 -5.5187117550159193e-01 +4.8051044503608980e-03
3.3999999999999999e+00 +8.5266806173895002e+00 +0.0000000000000000e+00 +3.3999999799960099e+00 -2.9152290431812292e-02 -5.5189409651796895e-01 +4.8062284458694959e-03
3.4500000000000002e+00 +8.5266711512522306e+00 +0.0000000000000000e+00 +3.4499999790999101e+00 -2.9154735523215000e-02 -5.5191730597696820e-01 +4.8073673136590136e-03
3.5000000000000000e+00 +8.5266615468026394e+00 +0.0000000000000000e+00 +3.4999999781774398e+00 -2.9157192691148616e-02 -5.5194080176635851e-01 +4.8085210143031833e-03
3.5499999999999998e+00 +8.5266518040407409e+00 +0.0000000000000000e+00 +3.5499999772282100e+00 -2.9159661714211704e-02 -5.5196458177389152e-01 +4.8096895083760260e-03
3.6000000000000001e+00 +8.5266419229665207e+00 +0.0000000000000000e+00 +3.5999999762518402e+00 -2.9162142371004979e-02 -5.5198864388732771e-01 +4.8108727564520346e-03
3.6499999999999999e+00 +8.5266319035799807e+00 +0.0000000000000000e+00 +3.6499999752479400e+00 -2.9164634440131298e-02 -5.5201298599443660e-01 +4.8120707191061539e-03
3.6999999999999900e+00 +8.5266217458847695e+00 +0.0000000000000000e+00 +3.6999999742161398e+00 -2.9167137700194253e-02 -5.5203760598296925e-01 +4.8132833569136000e-03
3.7499999999999898e+00 +8.5266114498736005e+00 +0.0000000000000000e+00 +3.7499999731560498e+00 -2.9169651929804103e-02 -5.5206250174076554e-01 +4.8145106304505842e-03
3.7999999999999901e+00 +8.5266010155537497e+00 +0.0000000000000000e+00 +3.7999999720672801e+00 -2.9172176907567533e-02 -5.5208767115556778e-01 +4.8157525002930184e-03
3.8499999999999899e+00 +8.5265904429179500e+00 +0.0000000000000000e+00 +3.8499999709494599e+00 -2.9174712412099457e-02 -5.5211311211523206e-01 +4.8170089270179774e-03
3.8999999999999901e+00 +8.5265797319771099e+00 +0.0000000000000000e+00 +3.8999999698022001e+00 -2.9177258222009866e-02 -5.5213882250749069e-01 +4.8182798712020436e-03
3.9499999999999900e+00 +8.5265688827203103e+00 +0.0000000000000000e+00 +3.9499999686251202e+00 -2.9179814115919984e-02 -5.5216480022024428e-01 +4.8195652934233078e-03
3.9999999999999898e+00 +8.5265578951548395e+00 +0.0000000000000000e+00 +3.9999999674178399e+00 -2.9182379872446200e-02 -5.5219104314126699e-01 +4.8208651542593550e-03
4.0499999999999901e+00 +8.5265467692734092e+00 +0.0000000000000000e+00 +4.0499999661799704e+00 -2.9184955298968536e-02 -5.5221754905791443e-01 +4.8221794068918538e-03
4.0999999999999899e+00 +8.5265355050833005e+00 +0.0000000000000000e+00 +4.0999999649111301e+00 -2.9187540317883950e-02 -5.5224431535530150e-01 +4.8235079749137542e-03
4.1499999999999897e+00 +8.5265241025808791e+00 +0.0000000000000000e+00 +4.1499999636109504e+00 -2.9190134880349310e-02 -5.5227133931809003e-01 +4.8248507745215505e-03
4.1999999999999904e+00 +8.5265125617697795e+00 +0.0000000000000000e+00 +4.1999999622790298e+00 -2.9192738937518541e-02 -5.5229861823088999e-01 +4.8262077219114047e-03
4.2499999999999902e+00 +8.5265008826427202e+00 +0.0000000000000000e+00 +4.2499999609149901e+00 -2.9195352440549875e-02 -5.5232614937839120e-01 +4.8275787332800425e-03
4.2999999999999901e+00 +8.5264890652069898e+00 +0.0000000000000000e+00 +4.2999999595184599e+00 -2.9197975340595570e-02 -5.5235393004517863e-01 +4.8289637248234507e-03
4.3499999999999899e+00 +8.5264771094589396e+00 +0.0000000000000000e+00 +4.3499999580890396e+00 -2.9200607588812183e-02 -5.5238195751591657e-01 +4.8303626127381392e-03
4.3999999999999897e+00 +8.5264650153985695e+00 +0.0000000000000000e+00 +4.3999999566263703e+00 -2.9203249136354602e-02 -5.5241022907524240e-01 +4.8317753132204018e-03
4.4499999999999904e+00 +8.5264527830295300e+00 +0.0000000000000000e+00 +4.4499999551300400e+00 -2.9205899934376073e-02 -5.5243874200776655e-01 +4.8332017424662877e-03
4.4999999999999902e+00 +8.5264404123481707e+00 +0.0000000000000000e+00 +4.4999999535996897e+00 -2.9208559934032530e-02 -5.5246749359815273e-01 +4.8346418166721437e-03
4.5499999999999901e+00 +8.5264279033544899e+00 +0.0000000000000000e+00 +4.5499999520349199e+00 -2.9211229086478201e-02 -5.5249648113103622e-01 +4.8360954520340338e-03
4.5999999999999899e+00 +8.5264152560448601e+00 +0.0000000000000000e+00 +4.5999999504353601e+00 -2.9213907342868436e-02 -5.5252570189107808e-01 +4.8375625647481043e-03
4.6499999999999897e+00 +8.5264024704301793e+00 +0.0000000000000000e+00 +4.6499999488006196e+00 -2.9216594654352473e-02 -5.5255515316283155e-01 +4.8390430710096239e-03
4.6999999999999904e+00 +8.5263895464995603e+00 +0.0000000000000000e+00 +4.6999999471303298e+00 -2.9219290972087909e-02 -5.5258483223100652e-01 +4.8405368870148378e-03
4.7499999999999902e+00 +8.5263764842602505e+00 +0.0000000000000000e+00 +4.7499999454240900e+00 -2.9221996247224664e-02 -5.5261473638017933e-01 +4.8420439289588923e-03
4.7999999999999901e+00 +8.5263632837050007e+00 +0.0000000000000000e+00 +4.7999999436815299e+00 -2.9224710430918104e-02 -5.5264486289502923e-01 +4.8435641130375063e-03
4.8499999999999899e+00 +8.5263499448447000e+00 +0.0000000000000000e+00 +4.8499999419022597e+00 -2.9227433474315792e-02 -5.5267520906010015e-01 +4.8450973554452570e-03
4.8999999999999897e+00 +8.5263364676684397e+00 +0.0000000000000000e+00 +4.8999999400859000e+00 -2.9230165328573612e-02 -5.5270577216009253e-01 +4.8466435723776386e-03
4.9499999999999904e+00 +8.5263228521798702e+00 +0.0000000000000000e+00 +4.9499999382320699e+00 -2.9232905944841049e-02 -5.5273654947959694e-01 +4.8482026800291591e-03
4.9999999999999902e+00 +8.5263090983826295e+00 +0.0000000000000000e+00 +4.9999999363403900e+00 -2.9235655274267067e-02 -5.5276753830320036e-01 +4.8497745945940722e-03
5.0499999999999901e+00 +8.5262952059529198e+00 +0.0000000000000000e+00 +5.0499999344103799e+00 -2.9238413268131903e-02 -5.5279873591788697e-01 +4.8513592322834307e-03
5.0999999999999899e+00 +8.5262811745706095e+00 +0.0000000000000000e+00 +5.0999999324415599e+00 -2.9241179877713880e-02 -5.5283013961061100e-01 +4.8529565093079251e-03
5.1499999999999897e+00 +8.5262670042357094e+00 +0.0000000000000000e+00 +5.1499999304335597e+00 -2.9243955054161816e-02 -5.5286174666597676e-01 +4.8545663418613338e-03
5.1999999999999904e+00 +8.5262526949518396e+00 +0.0000000000000000e+00 +5.1999999283859903e+00 -2.9246738748622370e-02 -5.5289355436855769e-01 +4.8561886461369157e-03
5.2499999999999902e+00 +8.5262382467153692e+00 +0.0000000000000000e+00 +5.2499999262984600e+00 -2.9249530912244442e-02 -5.5292556000297444e-01 +4.8578233383279766e-03
5.2999999999999901e+00 +8.5262236595299292e+00 +0.0000000000000000e+00 +5.2999999241705797e+00 -2.9252331496173237e-02 -5.5295776085378945e-01 +4.8594703346270833e-03
5.3499999999999899e+00 +8.5262089333882596e+00 +0.0000000000000000e+00 +5.3499999220019703e+00 -2.9255140451557624e-02 -5.5299015420564046e-01 +4.8611295512270072e-03
5.3999999999999897e+00 +8.5261940682976292e+00 +0.0000000000000000e+00 +5.3999999197922497e+00 -2.9257957729539753e-02 -5.5302273734305163e-01 +4.8628009043193664e-03
5.4499999999999904e+00 +8.5261790642507496e+00 +0.0000000000000000e+00 +5.4499999175410201e+00 -2.9260783281266842e-02 -5.5305550755064770e-01 +4.8644843100961281e-03
5.4999999999999902e+00 +8.5261639212585596e+00 +0.0000000000000000e+00 +5.4999999152479004e+00 -2.9263617057877906e-02 -5.5308846211291374e-01 +4.8661796847478877e-03
5.5499999999999901e+00 +8.5261486393137602e+00 +0.0000000000000000e+00 +5.5499999129125097e+00 -2.9266459010518369e-02 -5.5312159831446184e-01 +4.8678869444657435e-03
5.5999999999999899e+00 +8.5261332184127205e+00 +0.0000000000000000e+00 +5.5999999105344500e+00 -2.9269309090331281e-02 -5.5315491343987000e-01 +4.8696060054401590e-03
5.6499999999999897e+00 +8.5261176585627307e+00 +0.0000000000000000e+00 +5.6499999081133403e+00 -2.9272167248454311e-02 -5.5318840477362829e-01 +4.8713367838605194e-03
5.6999999999999904e+00 +8.5261019597637606e+00 +0.0000000000000000e+00 +5.6999999056488004e+00 -2.9275033436027074e-02 -5.5322206960027354e-01 +4.8730791959161208e-03
5.7499999999999902e+00 +8.5260861220122006e+00 +0.0000000000000000e+00 +5.7499999031404396e+00 -2.9277907604189597e-02 -5.5325590520436030e-01 +4.8748331577959190e-03
5.7999999999999901e+00 +8.5260701453080401e+00 +0.0000000000000000e+00 +5.7999999005878804e+00 -2.9280789704079435e-02 -5.5328990887040963e-01 +4.8765985856881657e-03
5.8499999999999899e+00 +8.5260540296512808e+00 +0.0000000000000000e+00 +5.8499998979907204e+00 -2.9283679686832993e-02 -5.5332407788293247e-01 +4.8783753957805454e-03
5.8999999999999897e+00 +8.5260377750455500e+00 +0.0000000000000000e+00 +5.8999998953485804e+00 -2.9286577503584082e-02 -5.5335840952640525e-01 +4.8801635042599904e-03
