# field on trajectory
# s[mm] rx[mm] ry[mm] rz[mm] bx[T] by[T] bz[T]
0.0000000000000000e+00 +8.5389999999999997e+00 +0.0000000000000000e+00 +0.0000000000000000e+00 -2.7235199682736157e-02 -5.2392705968940112e-01 +5.0556723049695659e-03
-5.0000000000000003e-02 +8.5389999309312739e+00 +0.0000000000000000e+00 -4.9999999999936394e-02 -2.7235037798749029e-02 -5.2392877603820409e-01 +5.0549226073773566e-03
-1.0000000000000001e-01 +8.5389997237247801e+00 +0.0000000000000000e+00 -9.9999999999491135e-02 -2.7234892181900151e-02 -5.2393083143142016e-01 +5.0541802721028551e-03
-1.5000000000000002e-01 +8.5389993783799767e+00 +0.0000000000000000e+00 -1.4999999999828262e-01 -2.7234762896752598e-02 -5.2393322498328998e-01 +5.0534453331422284e-03
-2.0000000000000001e-01 +8.5389988948962312e+00 +0.0000000000000000e+00 -1.9999999999592916e-01 -2.7234650007870426e-02 -5.2393595580806884e-01 +5.0527178244918454e-03
-2.5000000000000000e-01 +8.5389982732728242e+00 +0.0000000000000000e+00 -2.4999999999204908e-01 -2.7234553579818768e-02 -5.2393902302002837e-01 +5.0519977801482922e-03
-2.9999999999999999e-01 +8.5389975135089475e+00 +0.0000000000000000e+00 -2.9999999998626076e-01 -2.7234473677163789e-02 -5.2394242573345429e-01 +5.0512852341083802e-03
-3.4999999999999998e-01 +8.5389966156037040e+00 +0.0000000000000000e+00 -3.4999999997818254e-01 -2.7234410364472699e-02 -5.2394616306264785e-01 +5.0505802203691559e-03
-3.9999999999999997e-01 +8.5389955795561097e+00 +0.0000000000000000e+00 -3.9999999996743268e-01 -2.7234363706313706e-02 -5.2395023412192543e-01 +5.0498827729279234e-03
-4.4999999999999996e-01 +8.5389944053650897e+00 +0.0000000000000000e+00 -4.4999999995362955e-01 -2.7234333767256147e-02 -5.2395463802561826e-01 +5.0491929257822383e-03
-4.9999999999999994e-01 +8.5389930930294824e+00 +0.0000000000000000e+00 -4.9999999993639138e-01 -2.7234320611870325e-02 -5.2395937388807234e-01 +5.0485107129299295e-03
-5.4999999999999993e-01 +8.5389916425480390e+00 +0.0000000000000000e+00 -5.4999999991533655e-01 -2.7234324304727622e-02 -5.2396444082364879e-01 +5.0478361683691077e-03
-5.9999999999999998e-01 +8.5389900539194254e+00 +0.0000000000000000e+00 -5.9999999989008324e-01 -2.7234344910400450e-02 -5.2396983794672369e-01 +5.0471693260981743e-03
-6.5000000000000002e-01 +8.5389883271422171e+00 +0.0000000000000000e+00 -6.4999999986024970e-01 -2.7234382493462279e-02 -5.2397556437168691e-01 +5.0465102201158350e-03
-7.0000000000000007e-01 +8.5389864622149059e+00 +0.0000000000000000e+00 -6.9999999982545424e-01 -2.7234437118487647e-02 -5.2398161921294473e-01 +5.0458588844211130e-03
-7.5000000000000011e-01 +8.5389844591358930e+00 +0.0000000000000000e+00 -7.4999999978531506e-01 -2.7234508850052085e-02 -5.2398800158491643e-01 +5.0452153530133517e-03
-8.0000000000000016e-01 +8.5389823179034980e+00 +0.0000000000000000e+00 -7.9999999973945035e-01 -2.7234597752732247e-02 -5.2399471060203684e-01 +5.0445796598922316e-03
-8.5000000000000020e-01 +8.5389800385159500e+00 +0.0000000000000000e+00 -8.4999999968747841e-01 -2.7234703891105775e-02 -5.2400174537875455e-01 +5.0439518390577830e-03
-9.0000000000000024e-01 +8.5389776209713961e+00 +0.0000000000000000e+00 -8.9999999962901733e-01 -2.7234827329751399e-02 -5.2400910502953324e-01 +5.0433319245103917e-03
-9.5000000000000029e-01 +8.5389750652678948e+00 +0.0000000000000000e+00 -9.4999999956368519e-01 -2.7234968133248903e-02 -5.2401678866885104e-01 +5.0427199502508131e-03
-1.0000000000000002e+00 +8.5389723714034211e+00 +0.0000000000000000e+00 -9.9999999949110019e-01 -2.7235126366179096e-02 -5.2402479541120006e-01 +5.0421159502801816e-03
-1.0500000000000003e+00 +8.5389695393758629e+00 +0.0000000000000000e+00 -1.0499999994108804e+00 -2.7235302093123873e-02 -5.2403312437108684e-01 +5.0415199586000279e-03
-1.1000000000000003e+00 +8.5389665691830263e+00 +0.0000000000000000e+00 -1.0999999993226441e+00 -2.7235495378666180e-02 -5.2404177466303226e-01 +5.0409320092122730e-03
-1.1500000000000004e+00 +8.5389634608226288e+00 +0.0000000000000000e+00 -1.1499999992260093e+00 -2.7235706287390013e-02 -5.2405074540157159e-01 +5.0403521361192648e-03
-1.2000000000000004e+00 +8.5389602142923060e+00 +0.0000000000000000e+00 -1.1999999991205939e+00 -2.7235934883880437e-02 -5.2406003570125337e-01 +5.0397803733237606e-03
-1.2500000000000004e+00 +8.5389568295896083e+00 +0.0000000000000000e+00 -1.2499999990060158e+00 -2.7236181232723571e-02 -5.2406964467664130e-01 +5.0392167548289632e-03
-1.3000000000000005e+00 +8.5389533067120009e+00 +0.0000000000000000e+00 -1.2999999988818931e+00 -2.7236445398506601e-02 -5.2407957144231254e-01 +5.0386613146385147e-03
-1.3500000000000005e+00 +8.5389496456568690e+00 +0.0000000000000000e+00 -1.3499999987478439e+00 -2.7236727445817763e-02 -5.2408981511285824e-01 +5.0381140867565193e-03
-1.4000000000000006e+00 +8.5389458464215107e+00 +0.0000000000000000e+00 -1.3999999986034861e+00 -2.7237027439246372e-02 -5.2410037480288341e-01 +5.0375751051875391e-03
-1.4500000000000006e+00 +8.5389419090031407e+00 +0.0000000000000000e+00 -1.4499999984484375e+00 -2.7237345443382802e-02 -5.2411124962700717e-01 +5.0370444039366255e-03
-1.5000000000000007e+00 +8.5389378333988937e+00 +0.0000000000000000e+00 -1.4999999982823162e+00 -2.7237681522818510e-02 -5.2412243869986241e-01 +5.0365220170093131e-03
-1.5500000000000007e+00 +8.5389336196058192e+00 +0.0000000000000000e+00 -1.5499999981047399e+00 -2.7238035742145970e-02 -5.2413394113609535e-01 +5.0360079784116350e-03
-1.6000000000000008e+00 +8.5389292676208832e+00 +0.0000000000000000e+00 -1.5999999979153263e+00 -2.7238408165958787e-02 -5.2414575605036651e-01 +5.0355023221501406e-03
-1.6500000000000008e+00 +8.5389247774409718e+00 +0.0000000000000000e+00 -1.6499999977136932e+00 -2.7238798858851585e-02 -5.2415788255734952e-01 +5.0350050822318988e-03
-1.7000000000000008e+00 +8.5389201490628892e+00 +0.0000000000000000e+00 -1.6999999974994584e+00 -2.7239207885420103e-02 -5.2417031977173167e-01 +5.0345162926645100e-03
-1.7500000000000009e+00 +8.5389153824833546e+00 +0.0000000000000000e+00 -1.7499999972722398e+00 -2.7239635310261114e-02 -5.2418306680821380e-01 +5.0340359874561195e-03
-1.8000000000000009e+00 +8.5389104776990070e+00 +0.0000000000000000e+00 -1.7999999970316547e+00 -2.7240081197972475e-02 -5.2419612278151062e-01 +5.0335642006154296e-03
-1.8500000000000010e+00 +8.5389054347064040e+00 +0.0000000000000000e+00 -1.8499999967773211e+00 -2.7240545613153137e-02 -5.2420948680635016e-01 +5.0331009661517077e-03
-1.9000000000000010e+00 +8.5389002535020229e+00 +0.0000000000000000e+00 -1.8999999965088563e+00 -2.7241028620403111e-02 -5.2422315799747266e-01 +5.0326463180747983e-03
-1.9500000000000011e+00 +8.5388949340822595e+00 +0.0000000000000000e+00 -1.9499999962258781e+00 -2.7241530284323454e-02 -5.2423713546963313e-01 +5.0322002903951286e-03
-2.0000000000000009e+00 +8.5388894764434280e+00 +0.0000000000000000e+00 -1.9999999959280039e+00 -2.7242050669516359e-02 -5.2425141833759925e-01 +5.0317629171237298e-03
-2.0500000000000007e+00 +8.5388838805817624e+00 +0.0000000000000000e+00 -2.0499999956148511e+00 -2.7242589785432429e-02 -5.2426600553742220e-01 +5.0313342228402750e-03
-2.1000000000000005e+00 +8.5388781464934169e+00 +0.0000000000000000e+00 -2.0999999952860375e+00 -2.7243147420912443e-02 -5.2428089529024813e-01 +5.0309141943970619e-03
-2.1500000000000004e+00 +8.5388722741744676e+00 +0.0000000000000000e+00 -2.1499999949411803e+00 -2.7243723309644561e-02 -5.2429608563850305e-01 +5.0305028092147760e-03
-2.2000000000000002e+00 +8.5388662636209069e+00 +0.0000000000000000e+00 -2.1999999945798967e+00 -2.7244317185316839e-02 -5.2431157462462341e-01 +5.0301000447144284e-03
-2.2500000000000000e+00 +8.5388601148286529e+00 +0.0000000000000000e+00 -2.2499999942018043e+00 -2.7244928781617186e-02 -5.2432736029105642e-01 +5.0297058783173544e-03
-2.2999999999999998e+00 +8.5388538277935435e+00 +0.0000000000000000e+00 -2.2999999938065203e+00 -2.7245557832233272e-02 -5.2434344068025740e-01 +5.0293202874451973e-03
-2.3499999999999996e+00 +8.5388474025113386e+00 +0.0000000000000000e+00 -2.3499999933936619e+00 -2.7246204070852462e-02 -5.2435981383469166e-01 +5.0289432495199196e-03
-2.3999999999999995e+00 +8.5388408389777215e+00 +0.0000000000000000e+00 -2.3999999929628464e+00 -2.7246867231161785e-02 -5.2437647779683383e-01 +5.0285747419637743e-03
-2.4499999999999993e+00 +8.5388341371882976e+00 +0.0000000000000000e+00 -2.4499999925136908e+00 -2.7247547046847825e-02 -5.2439343060916699e-01 +5.0282147421993120e-03
-2.4999999999999991e+00 +8.5388272971385994e+00 +0.0000000000000000e+00 -2.4999999920458120e+00 -2.7248243251596676e-02 -5.2441067031418331e-01 +5.0278632276493755e-03
-2.5499999999999989e+00 +8.5388203188240794e+00 +0.0000000000000000e+00 -2.5499999915588272e+00 -2.7248955579093924e-02 -5.2442819495438286e-01 +5.0275201757370895e-03
-2.5999999999999988e+00 +8.5388132022401191e+00 +0.0000000000000000e+00 -2.5999999910523535e+00 -2.7249683763024474e-02 -5.2444600257227469e-01 +5.0271855638858512e-03
-2.6499999999999986e+00 +8.5388059473820217e+00 +0.0000000000000000e+00 -2.6499999905260081e+00 -2.7250427537072595e-02 -5.2446409121037518e-01 +5.0268593695193247e-03
-2.6999999999999984e+00 +8.5387985542450195e+00 +0.0000000000000000e+00 -2.6999999899794074e+00 -2.7251186634921751e-02 -5.2448245891120848e-01 +5.0265415700614388e-03
-2.7499999999999982e+00 +8.5387910228242703e+00 +0.0000000000000000e+00 -2.7499999894121685e+00 -2.7251960790254676e-02 -5.2450110371730685e-01 +5.0262321429363800e-03
-2.7999999999999980e+00 +8.5387833531148569e+00 +0.0000000000000000e+00 -2.7999999888239082e+00 -2.7252749736753162e-02 -5.2452002367120931e-01 +5.0259310655685809e-03
-2.8499999999999979e+00 +8.5387755451117915e+00 +0.0000000000000000e+00 -2.8499999882142433e+00 -2.7253553208098098e-02 -5.2453921681546234e-01 +5.0256383153827197e-03
-2.8999999999999977e+00 +8.5387675988100131e+00 +0.0000000000000000e+00 -2.8999999875827904e+00 -2.7254370937969345e-02 -5.2455868119261895e-01 +5.0253538698037054e-03
-2.9499999999999975e+00 +8.5387595142043917e+00 +0.0000000000000000e+00 -2.9499999869291660e+00 -2.7255202660045691e-02 -5.2457841484523915e-01 +5.0250777062566783e-03
-2.9999999999999973e+00 +8.5387512912897225e+00 +0.0000000000000000e+00 -2.9999999862529867e+00 -2.7256048108004808e-02 -5.2459841581588929e-01 +5.0248098021670089e-03
-3.0499999999999972e+00 +8.5387429300607334e+00 +0.0000000000000000e+00 -3.0499999855538693e+00 -2.7256907015523153e-02 -5.2461868214714147e-01 +5.0245501349602730e-03
-3.0999999999999970e+00 +8.5387344305120809e+00 +0.0000000000000000e+00 -3.0999999848314301e+00 -2.7257779116275912e-02 -5.2463921188157447e-01 +5.0242986820622608e-03
-3.1499999999999968e+00 +8.5387257926383526e+00 +0.0000000000000000e+00 -3.1499999840852855e+00 -2.7258664143936972e-02 -5.2466000306177218e-01 +5.0240554208989688e-03
-3.1999999999999966e+00 +8.5387170164340667e+00 +0.0000000000000000e+00 -3.1999999833150521e+00 -2.7259561832178782e-02 -5.2468105373032470e-01 +5.0238203288965853e-03
-3.2499999999999964e+00 +8.5387081018936719e+00 +0.0000000000000000e+00 -3.2499999825203458e+00 -2.7260471914672370e-02 -5.2470236192982656e-01 +5.0235933834814912e-03
-3.2999999999999963e+00 +8.5386990490115515e+00 +0.0000000000000000e+00 -3.2999999817007830e+00 -2.7261394125087234e-02 -5.2472392570287807e-01 +5.0233745620802510e-03
-3.3499999999999961e+00 +8.5386898577820194e+00 +0.0000000000000000e+00 -3.3499999808559799e+00 -2.7262328197091245e-02 -5.2474574309208388e-01 +5.0231638421196056e-03
-3.3999999999999959e+00 +8.5386805281993237e+00 +0.0000000000000000e+00 -3.3999999799855529e+00 -2.7263273864350686e-02 -5.2476781214005419e-01 +5.0229612010264674e-03
-3.4499999999999957e+00 +8.5386710602576468e+00 +0.0000000000000000e+00 -3.4499999790891178e+00 -2.7264230860530068e-02 -5.2479013088940230e-01 +5.0227666162279121e-03
-3.4999999999999956e+00 +8.5386614539511037e+00 +0.0000000000000000e+00 -3.4999999781662905e+00 -2.7265198919292129e-02 -5.2481269738274672e-01 +5.0225800651511705e-03
-3.5499999999999954e+00 +8.5386517092737453e+00 +0.0000000000000000e+00 -3.5499999772166873e+00 -2.7266177774297781e-02 -5.2483550966270931e-01 +5.0224015252236277e-03
-3.5999999999999952e+00 +8.5386418262195551e+00 +0.0000000000000000e+00 -3.5999999762399235e+00 -2.7267167159206001e-02 -5.2485856577191592e-01 +5.0222309738728096e-03
-3.6499999999999950e+00 +8.5386318047824563e+00 +0.0000000000000000e+00 -3.6499999752356156e+00 -2.7268166807673817e-02 -5.2488186375299595e-01 +5.0220683885263849e-03
-3.6999999999999948e+00 +8.5386216449563044e+00 +0.0000000000000000e+00 -3.6999999742033789e+00 -2.7269176453356192e-02 -5.2490540164858179e-01 +5.0219137466121526e-03
-3.7499999999999947e+00 +8.5386113467348963e+00 +0.0000000000000000e+00 -3.7499999731428293e+00 -2.7270195829905967e-02 -5.2492917750130896e-01 +5.0217670255580261e-03
-3.7999999999999945e+00 +8.5386009101119615e+00 +0.0000000000000000e+00 -3.7999999720535822e+00 -2.7271224670973853e-02 -5.2495318935381652e-01 +5.0216282027920533e-03
-3.8499999999999943e+00 +8.5385903350811692e+00 +0.0000000000000000e+00 -3.8499999709352535e+00 -2.7272262710208300e-02 -5.2497743524874496e-01 +5.0214972557423793e-03
-3.8999999999999941e+00 +8.5385796216361278e+00 +0.0000000000000000e+00 -3.8999999697874586e+00 -2.7273309681255471e-02 -5.2500191322873790e-01 +5.0213741618372644e-03
-3.9499999999999940e+00 +8.5385687697703823e+00 +0.0000000000000000e+00 -3.9499999686098128e+00 -2.7274365317759116e-02 -5.2502662133644096e-01 +5.0212588985050583e-03
-3.9999999999999938e+00 +8.5385577794774203e+00 +0.0000000000000000e+00 -3.9999999674019313e+00 -2.7275429353360640e-02 -5.2505155761450140e-01 +5.0211514431742132e-03
-4.0499999999999936e+00 +8.5385466507506660e+00 +0.0000000000000000e+00 -4.0499999661634298e+00 -2.7276501559371086e-02 -5.2507671998765215e-01 +5.0210517704885093e-03
-4.0999999999999934e+00 +8.5385353835834845e+00 +0.0000000000000000e+00 -4.0999999648939234e+00 -2.7277581857789439e-02 -5.2510210590895812e-01 +5.0209598439528141e-03
-4.1499999999999932e+00 +8.5385239779691844e+00 +0.0000000000000000e+00 -4.1499999635930269e+00 -2.7278670208288155e-02 -5.2512771271356773e-01 +5.0208756242873746e-03
-4.1999999999999931e+00 +8.5385124339010137e+00 +0.0000000000000000e+00 -4.1999999622603559e+00 -2.7279766570541174e-02 -5.2515353773662943e-01 +5.0207990722125721e-03
-4.2499999999999929e+00 +8.5385007513721636e+00 +0.0000000000000000e+00 -4.2499999608955248e+00 -2.7280870904224049e-02 -5.2517957831329110e-01 +5.0207301484489130e-03
-4.2999999999999927e+00 +8.5384889303757685e+00 +0.0000000000000000e+00 -4.2999999594981491e+00 -2.7281983169013924e-02 -5.2520583177870050e-01 +5.0206688137170398e-03
-4.3499999999999925e+00 +8.5384769709049060e+00 +0.0000000000000000e+00 -4.3499999580678432e+00 -2.7283103324589639e-02 -5.2523229546800421e-01 +5.0206150287377066e-03
-4.3999999999999924e+00 +8.5384648729526003e+00 +0.0000000000000000e+00 -4.3999999566042227e+00 -2.7284231330631795e-02 -5.2525896671634775e-01 +5.0205687542317938e-03
-4.4499999999999922e+00 +8.5384526365118187e+00 +0.0000000000000000e+00 -4.4499999551069020e+00 -2.7285367146822767e-02 -5.2528584285887581e-01 +5.0205299509202871e-03
-4.4999999999999920e+00 +8.5384402615754755e+00 +0.0000000000000000e+00 -4.4999999535754958e+00 -2.7286510732846801e-02 -5.2531292123073081e-01 +5.0204985795242870e-03
-4.5499999999999918e+00 +8.5384277481364315e+00 +0.0000000000000000e+00 -4.5499999520096184e+00 -2.7287662048390095e-02 -5.2534019916705399e-01 +5.0204746007649929e-03
-4.5999999999999917e+00 +8.5384150961874941e+00 +0.0000000000000000e+00 -4.5999999504088844e+00 -2.7288821053140781e-02 -5.2536767400298445e-01 +5.0204579753637072e-03
-4.6499999999999915e+00 +8.5384023057214193e+00 +0.0000000000000000e+00 -4.6499999487729085e+00 -2.7289987706789053e-02 -5.2539534307365821e-01 +5.0204486640418253e-03
-4.6999999999999913e+00 +8.5383893767309136e+00 +0.0000000000000000e+00 -4.6999999471013041e+00 -2.7291161969027190e-02 -5.2542320371420959e-01 +5.0204466275208318e-03
-4.7499999999999911e+00 +8.5383763092086298e+00 +0.0000000000000000e+00 -4.7499999453936868e+00 -2.7292343799549649e-02 -5.2545125325976982e-01 +5.0204518265222955e-03
-4.7999999999999909e+00 +8.5383631031471730e+00 +0.0000000000000000e+00 -4.7999999436496701e+00 -2.7293533158053079e-02 -5.2547948904546671e-01 +5.0204642217678754e-03
-4.8499999999999908e+00 +8.5383497585391002e+00 +0.0000000000000000e+00 -4.8499999418688686e+00 -2.7294730004236413e-02 -5.2550790840642470e-01 +5.0204837739792983e-03
-4.8999999999999906e+00 +8.5383362753769170e+00 +0.0000000000000000e+00 -4.8999999400508960e+00 -2.7295934297800917e-02 -5.2553650867776514e-01 +5.0205104438783643e-03
-4.9499999999999904e+00 +8.5383226536530845e+00 +0.0000000000000000e+00 -4.9499999381953668e+00 -2.7297145998450227e-02 -5.2556528719460505e-01 +5.0205441921869418e-03
-4.9999999999999902e+00 +8.5383088933600142e+00 +0.0000000000000000e+00 -4.9999999363018937e+00 -2.7298365065890468e-02 -5.2559424129205756e-01 +5.0205849796269679e-03
-5.0499999999999901e+00 +8.5382949944900712e+00 +0.0000000000000000e+00 -5.0499999343700921e+00 -2.7299591459830248e-02 -5.2562336830523104e-01 +5.0206327669204270e-03
-5.0999999999999899e+00 +8.5382809570355782e+00 +0.0000000000000000e+00 -5.0999999323995748e+00 -2.7300825139980726e-02 -5.2565266556922940e-01 +5.0206875147893711e-03
-5.1499999999999897e+00 +8.5382667809888098e+00 +0.0000000000000000e+00 -5.1499999303899555e+00 -2.7302066066055744e-02 -5.2568213041915202e-01 +5.0207491839558928e-03
-5.1999999999999895e+00 +8.5382524663419961e+00 +0.0000000000000000e+00 -5.1999999283408487e+00 -2.7303314197771759e-02 -5.2571176019009269e-01 +5.0208177351421263e-03
-5.2499999999999893e+00 +8.5382380130873283e+00 +0.0000000000000000e+00 -5.2499999262518671e+00 -2.7304569494848021e-02 -5.2574155221713958e-01 +5.0208931290702617e-03
-5.2999999999999892e+00 +8.5382234212169497e+00 +0.0000000000000000e+00 -5.2999999241226243e+00 -2.7305831917006564e-02 -5.2577150383537541e-01 +5.0209753264625094e-03
-5.3499999999999890e+00 +8.5382086907229642e+00 +0.0000000000000000e+00 -5.3499999219527341e+00 -2.7307101423972285e-02 -5.2580161237987755e-01 +5.0210642880411200e-03
-5.3999999999999888e+00 +8.5381938215974316e+00 +0.0000000000000000e+00 -5.3999999197418092e+00 -2.7308377975473003e-02 -5.2583187518571617e-01 +5.0211599745283650e-03
-5.4499999999999886e+00 +8.5381788138323760e+00 +0.0000000000000000e+00 -5.4499999174894631e+00 -2.7309661531239520e-02 -5.2586228958795544e-01 +5.0212623466465460e-03
-5.4999999999999885e+00 +8.5381636674197772e+00 +0.0000000000000000e+00 -5.4999999151953087e+00 -2.7310952051005664e-02 -5.2589285292165311e-01 +5.0213713651179760e-03
-5.5499999999999883e+00 +8.5381483823515776e+00 +0.0000000000000000e+00 -5.5499999128589597e+00 -2.7312249494508382e-02 -5.2592356252185957e-01 +5.0214869906649862e-03
-5.5999999999999881e+00 +8.5381329586196788e+00 +0.0000000000000000e+00 -5.5999999104800287e+00 -2.7313553821487743e-02 -5.2595441572361790e-01 +5.0216091840099104e-03
-5.6499999999999879e+00 +8.5381173962159487e+00 +0.0000000000000000e+00 -5.6499999080581285e+00 -2.7314864991687053e-02 -5.2598540986196363e-01 +5.0217379058750929e-03
-5.6999999999999877e+00 +8.5381016951322142e+00 +0.0000000000000000e+00 -5.6999999055928718e+00 -2.7316182964852907e-02 -5.2601654227192551e-01 +5.0218731169828779e-03
-5.7499999999999876e+00 +8.5380858553602685e+00 +0.0000000000000000e+00 -5.7499999030838724e+00 -2.7317507700735186e-02 -5.2604781028852310e-01 +5.0220147780556000e-03
-5.7999999999999874e+00 +8.5380698768918659e+00 +0.0000000000000000e+00 -5.7999999005307421e+00 -2.7318839159087213e-02 -5.2607921124676815e-01 +5.0221628498155887e-03
-5.8499999999999872e+00 +8.5380537597187285e+00 +0.0000000000000000e+00 -5.8499998979330936e+00 -2.7320177299665710e-02 -5.2611074248166401e-01 +5.0223172929851579e-03
