# trajectory
# s[mm] rx[mm] ry[mm] rz[mm] px[rad] py[rad] pz[rad]
0.0000000000000000e+00 +8.5389999999999997e+00 +0.0000000000000000e+00 +0.0000000000000000e+00 +0.0000000000000000e+00 +0.0000000000000000e+00 +1.0000000000000000e+00
5.0000000000000003e-02 +8.5389999311174449e+00 +0.0000000000000000e+00 +4.9999999999936734e-02 -2.7553014436267256e-06 +0.0000000000000000e+00 +9.9999999999620415e-01
1.0000000000000001e-01 +8.5389997244699138e+00 +0.0000000000000000e+00 +9.9999999999493883e-02 -5.5105994136271056e-06 +0.0000000000000000e+00 +9.9999999998481659e-01
1.5000000000000002e-01 +8.5389993800575290e+00 +0.0000000000000000e+00 +1.4999999999829186e-01 -8.2658959231540207e-06 +0.0000000000000000e+00 +9.9999999996583744e-01
2.0000000000000001e-01 +8.5389988978803135e+00 +0.0000000000000000e+00 +1.9999999999595108e-01 -1.1021192981103042e-05 +0.0000000000000000e+00 +9.9999999993926658e-01
2.5000000000000000e-01 +8.5389982779381892e+00 +0.0000000000000000e+00 +2.4999999999209199e-01 -1.3776492592112516e-05 +0.0000000000000000e+00 +9.9999999990510402e-01
2.9999999999999999e-01 +8.5389975202309785e+00 +0.0000000000000000e+00 +2.9999999998633498e-01 -1.6531796756563654e-05 +0.0000000000000000e+00 +9.9999999986334975e-01
3.4999999999999998e-01 +8.5389966247584042e+00 +0.0000000000000000e+00 +3.4999999997830045e-01 -1.9287107470580629e-05 +0.0000000000000000e+00 +9.9999999981400367e-01
3.9999999999999997e-01 +8.5389955915200897e+00 +0.0000000000000000e+00 +3.9999999996760882e-01 -2.2042426726030651e-05 +0.0000000000000000e+00 +9.9999999975706566e-01
4.4999999999999996e-01 +8.5389944205155572e+00 +0.0000000000000000e+00 +4.4999999995388051e-01 -2.4797756510524069e-05 +0.0000000000000000e+00 +9.9999999969253561e-01
4.9999999999999994e-01 +8.5389931117442313e+00 +0.0000000000000000e+00 +4.9999999993673588e-01 -2.7553098807414455e-05 +0.0000000000000000e+00 +9.9999999962041330e-01
5.4999999999999993e-01 +8.5389916652054350e+00 +0.0000000000000000e+00 +5.4999999991579529e-01 -3.0308455595798692e-05 +0.0000000000000000e+00 +9.9999999954069874e-01
5.9999999999999998e-01 +8.5389900808983974e+00 +0.0000000000000000e+00 +5.9999999989067920e-01 -3.3063828850517068e-05 +0.0000000000000000e+00 +9.9999999945339157e-01
6.5000000000000002e-01 +8.5389883588222428e+00 +0.0000000000000000e+00 +6.4999999986100787e-01 -3.5819220542153350e-05 +0.0000000000000000e+00 +9.9999999935849171e-01
7.0000000000000007e-01 +8.5389864989760031e+00 +0.0000000000000000e+00 +6.9999999982640171e-01 -3.8574632637034895e-05 +0.0000000000000000e+00 +9.9999999925599881e-01
7.5000000000000011e-01 +8.5389845013586072e+00 +0.0000000000000000e+00 +7.4999999978648113e-01 -4.1330067097232717e-05 +0.0000000000000000e+00 +9.9999999914591275e-01
8.0000000000000016e-01 +8.5389823659688879e+00 +0.0000000000000000e+00 +7.9999999974086644e-01 -4.4085525880561586e-05 +0.0000000000000000e+00 +9.9999999902823322e-01
8.5000000000000020e-01 +8.5389800928055806e+00 +0.0000000000000000e+00 +8.4999999968917794e-01 -4.6841010940580121e-05 +0.0000000000000000e+00 +9.9999999890295987e-01
9.0000000000000024e-01 +8.5389776818673226e+00 +0.0000000000000000e+00 +8.9999999963103594e-01 -4.9596524226590865e-05 +0.0000000000000000e+00 +9.9999999877009238e-01
9.5000000000000029e-01 +8.5389751331526540e+00 +0.0000000000000000e+00 +9.4999999956606063e-01 -5.2352067683640386e-05 +0.0000000000000000e+00 +9.9999999862963052e-01
1.0000000000000002e+00 +8.5389724466600185e+00 +0.0000000000000000e+00 +9.9999999949387242e-01 -5.5107643252519351e-05 +0.0000000000000000e+00 +9.9999999848157384e-01
1.0500000000000003e+00 +8.5389696223877607e+00 +0.0000000000000000e+00 +1.0499999994140914e+00 -5.7863252869762623e-05 +0.0000000000000000e+00 +9.9999999832592201e-01
1.1000000000000003e+00 +8.5389666603341308e+00 +0.0000000000000000e+00 +1.0999999993263379e+00 -6.0618898467649355e-05 +0.0000000000000000e+00 +9.9999999816267460e-01
1.1500000000000004e+00 +8.5389635604972813e+00 +0.0000000000000000e+00 +1.1499999992302321e+00 -6.3374581974203061e-05 +0.0000000000000000e+00 +9.9999999799183126e-01
1.2000000000000004e+00 +8.5389603228752691e+00 +0.0000000000000000e+00 +1.1999999991253942e+00 -6.6130305313191713e-05 +0.0000000000000000e+00 +9.9999999781339144e-01
1.2500000000000004e+00 +8.5389569474660547e+00 +0.0000000000000000e+00 +1.2499999990114445e+00 -6.8886070404127817e-05 +0.0000000000000000e+00 +9.9999999762735470e-01
1.3000000000000005e+00 +8.5389534342675013e+00 +0.0000000000000000e+00 +1.2999999988880031e+00 -7.1641879162268526e-05 +0.0000000000000000e+00 +9.9999999743372059e-01
1.3500000000000005e+00 +8.5389497832773795e+00 +0.0000000000000000e+00 +1.3499999987546900e+00 -7.4397733498615714e-05 +0.0000000000000000e+00 +9.9999999723248867e-01
1.4000000000000006e+00 +8.5389459944933606e+00 +0.0000000000000000e+00 +1.3999999986111253e+00 -7.7153635319916032e-05 +0.0000000000000000e+00 +9.9999999702365827e-01
1.4500000000000006e+00 +8.5389420679130232e+00 +0.0000000000000000e+00 +1.4499999984569292e+00 -7.9909586528661058e-05 +0.0000000000000000e+00 +9.9999999680722895e-01
1.5000000000000007e+00 +8.5389380035338522e+00 +0.0000000000000000e+00 +1.4999999982917216e+00 -8.2665589023087326e-05 +0.0000000000000000e+00 +9.9999999658320016e-01
1.5500000000000007e+00 +8.5389338013532345e+00 +0.0000000000000000e+00 +1.5499999981151225e+00 -8.5421644697176430e-05 +0.0000000000000000e+00 +9.9999999635157122e-01
1.6000000000000008e+00 +8.5389294613684648e+00 +0.0000000000000000e+00 +1.5999999979267518e+00 -8.8177755440655133e-05 +0.0000000000000000e+00 +9.9999999611234158e-01
1.6500000000000008e+00 +8.5389249835767416e+00 +0.0000000000000000e+00 +1.6499999977262299e+00 -9.0933923138995426e-05 +0.0000000000000000e+00 +9.9999999586551069e-01
1.7000000000000008e+00 +8.5389203679751695e+00 +0.0000000000000000e+00 +1.6999999975131763e+00 -9.3690149673414632e-05 +0.0000000000000000e+00 +9.9999999561107777e-01
1.7500000000000009e+00 +8.5389156145607608e+00 +0.0000000000000000e+00 +1.7499999972872109e+00 -9.6446436920875461e-05 +0.0000000000000000e+00 +9.9999999534904227e-01
1.8000000000000009e+00 +8.5389107233304333e+00 +0.0000000000000000e+00 +1.7999999970479537e+00 -9.9202786754086145e-05 +0.0000000000000000e+00 +9.9999999507940340e-01
1.8500000000000010e+00 +8.5389056942810111e+00 +0.0000000000000000e+00 +1.8499999967950245e+00 -1.0195920104150048e-04 +0.0000000000000000e+00 +9.9999999480216051e-01
1.9000000000000010e+00 +8.5389005274092238e+00 +0.0000000000000000e+00 +1.8999999965280430e+00 -1.0471568164731795e-04 +0.0000000000000000e+00 +9.9999999451731281e-01
1.9500000000000011e+00 +8.5388952227117105e+00 +0.0000000000000000e+00 +1.9499999962466290e+00 -1.0747223043148377e-04 +0.0000000000000000e+00 +9.9999999422485963e-01
2.0000000000000009e+00 +8.5388897801850145e+00 +0.0000000000000000e+00 +1.9999999959504022e+00 -1.1022884924968899e-04 +0.0000000000000000e+00 +9.9999999392480021e-01
2.0500000000000007e+00 +8.5388841998255884e+00 +0.0000000000000000e+00 +2.0499999956389821e+00 -1.1298553995313249e-04 +0.0000000000000000e+00 +9.9999999361713365e-01
2.1000000000000005e+00 +8.5388784816297907e+00 +0.0000000000000000e+00 +2.0999999953119888e+00 -1.1574230438590166e-04 +0.0000000000000000e+00 +9.9999999330185929e-01
2.1500000000000004e+00 +8.5388726255938909e+00 +0.0000000000000000e+00 +2.1499999949690416e+00 -1.1849914438235323e-04 +0.0000000000000000e+00 +9.9999999297897624e-01
2.2000000000000002e+00 +8.5388666317140629e+00 +0.0000000000000000e+00 +2.1999999946097599e+00 -1.2125606176687514e-04 +0.0000000000000000e+00 +9.9999999264848360e-01
2.2500000000000000e+00 +8.5388604999863933e+00 +0.0000000000000000e+00 +2.2499999942337632e+00 -1.2401305835388658e-04 +0.0000000000000000e+00 +9.9999999231038050e-01
2.2999999999999998e+00 +8.5388542304068764e+00 +0.0000000000000000e+00 +2.2999999938406712e+00 -1.2677013594783817e-04 +0.0000000000000000e+00 +9.9999999196466616e-01
2.3499999999999996e+00 +8.5388478229714178e+00 +0.0000000000000000e+00 +2.3499999934301030e+00 -1.2952729634321190e-04 +0.0000000000000000e+00 +9.9999999161133957e-01
2.3999999999999995e+00 +8.5388412776758322e+00 +0.0000000000000000e+00 +2.3999999930016784e+00 -1.3228454132452121e-04 +0.0000000000000000e+00 +9.9999999125039984e-01
2.4499999999999993e+00 +8.5388345945158459e+00 +0.0000000000000000e+00 +2.4499999925550164e+00 -1.3504187266631112e-04 +0.0000000000000000e+00 +9.9999999088184610e-01
2.4999999999999991e+00 +8.5388277734870961e+00 +0.0000000000000000e+00 +2.4999999920897364e+00 -1.3779929213315816e-04 +0.0000000000000000e+00 +9.9999999050567734e-01
2.5499999999999989e+00 +8.5388208145851348e+00 +0.0000000000000000e+00 +2.5499999916054574e+00 -1.4055680147967051e-04 +0.0000000000000000e+00 +9.9999999012189256e-01
2.5999999999999988e+00 +8.5388137178054215e+00 +0.0000000000000000e+00 +2.5999999911017988e+00 -1.4331440245048807e-04 +0.0000000000000000e+00 +9.9999998973049076e-01
2.6499999999999986e+00 +8.5388064831433326e+00 +0.0000000000000000e+00 +2.6499999905783795e+00 -1.4607209678028243e-04 +0.0000000000000000e+00 +9.9999998933147105e-01
2.6999999999999984e+00 +8.5387991105941587e+00 +0.0000000000000000e+00 +2.6999999900348191e+00 -1.4882988619375698e-04 +0.0000000000000000e+00 +9.9999998892483222e-01
2.7499999999999982e+00 +8.5387916001531003e+00 +0.0000000000000000e+00 +2.7499999894707359e+00 -1.5158777240564694e-04 +0.0000000000000000e+00 +9.9999998851057337e-01
2.7999999999999980e+00 +8.5387839518152759e+00 +0.0000000000000000e+00 +2.7999999888857494e+00 -1.5434575712071938e-04 +0.0000000000000000e+00 +9.9999998808869339e-01
2.8499999999999979e+00 +8.5387761655757188e+00 +0.0000000000000000e+00 +2.8499999882794782e+00 -1.5710384203377332e-04 +0.0000000000000000e+00 +9.9999998765919118e-01
2.8999999999999977e+00 +8.5387682414293753e+00 +0.0000000000000000e+00 +2.8999999876515412e+00 -1.5986202882963972e-04 +0.0000000000000000e+00 +9.9999998722206562e-01
2.9499999999999975e+00 +8.5387601793711099e+00 +0.0000000000000000e+00 +2.9499999870015574e+00 -1.6262031918318152e-04 +0.0000000000000000e+00 +9.9999998677731561e-01
2.9999999999999973e+00 +8.5387519793957036e+00 +0.0000000000000000e+00 +2.9999999863291458e+00 -1.6537871475929376e-04 +0.0000000000000000e+00 +9.9999998632494003e-01
3.0499999999999972e+00 +8.5387436414978524e+00 +0.0000000000000000e+00 +3.0499999856339244e+00 -1.6813721721290351e-04 +0.0000000000000000e+00 +9.9999998586493777e-01
3.0999999999999970e+00 +8.5387351656721737e+00 +0.0000000000000000e+00 +3.0999999849155122e+00 -1.7089582818897000e-04 +0.0000000000000000e+00 +9.9999998539730761e-01
3.1499999999999968e+00 +8.5387265519131983e+00 +0.0000000000000000e+00 +3.1499999841735278e+00 -1.7365454932248456e-04 +0.0000000000000000e+00 +9.9999998492204845e-01
3.1999999999999966e+00 +8.5387178002153785e+00 +0.0000000000000000e+00 +3.1999999834075896e+00 -1.7641338223847074e-04 +0.0000000000000000e+00 +9.9999998443915894e-01
3.2499999999999964e+00 +8.5387089105730851e+00 +0.0000000000000000e+00 +3.2499999826173163e+00 -1.7917232855198432e-04 +0.0000000000000000e+00 +9.9999998394863798e-01
3.2999999999999963e+00 +8.5386998829806071e+00 +0.0000000000000000e+00 +3.2999999818023262e+00 -1.8193138986811333e-04 +0.0000000000000000e+00 +9.9999998345048435e-01
3.3499999999999961e+00 +8.5386907174321554e+00 +0.0000000000000000e+00 +3.3499999809622376e+00 -1.8469056778197809e-04 +0.0000000000000000e+00 +9.9999998294469672e-01
3.3999999999999959e+00 +8.5386814139218590e+00 +0.0000000000000000e+00 +3.3999999800966685e+00 -1.8744986387873118e-04 +0.0000000000000000e+00 +9.9999998243127386e-01
3.4499999999999957e+00 +8.5386719724437707e+00 +0.0000000000000000e+00 +3.4499999792052374e+00 -1.9020927973355757e-04 +0.0000000000000000e+00 +9.9999998191021455e-01
3.4999999999999956e+00 +8.5386623929918635e+00 +0.0000000000000000e+00 +3.4999999782875624e+00 -1.9296881691167460e-04 +0.0000000000000000e+00 +9.9999998138151747e-01
3.5499999999999954e+00 +8.5386526755600318e+00 +0.0000000000000000e+00 +3.5499999773432616e+00 -1.9572847696833198e-04 +0.0000000000000000e+00 +9.9999998084518127e-01
3.5999999999999952e+00 +8.5386428201420923e+00 +0.0000000000000000e+00 +3.5999999763719530e+00 -1.9848826144881185e-04 +0.0000000000000000e+00 +9.9999998030120463e-01
3.6499999999999950e+00 +8.5386328267317868e+00 +0.0000000000000000e+00 +3.6499999753732548e+00 -2.0124817188842876e-04 +0.0000000000000000e+00 +9.9999997974958621e-01
3.6999999999999948e+00 +8.5386226953227791e+00 +0.0000000000000000e+00 +3.6999999743467846e+00 -2.0400820981252975e-04 +0.0000000000000000e+00 +9.9999997919032468e-01
3.7499999999999947e+00 +8.5386124259086564e+00 +0.0000000000000000e+00 +3.7499999732921601e+00 -2.0676837673649432e-04 +0.0000000000000000e+00 +9.9999997862341872e-01
3.7999999999999945e+00 +8.5386020184829317e+00 +0.0000000000000000e+00 +3.7999999722089992e+00 -2.0952867416573444e-04 +0.0000000000000000e+00 +9.9999997804886687e-01
3.8499999999999943e+00 +8.5385914730390411e+00 +0.0000000000000000e+00 +3.8499999710969193e+00 -2.1228910359569463e-04 +0.0000000000000000e+00 +9.9999997746666780e-01
3.8999999999999941e+00 +8.5385807895703483e+00 +0.0000000000000000e+00 +3.8999999699555383e+00 -2.1504966651185188e-04 +0.0000000000000000e+00 +9.9999997687681996e-01
3.9499999999999940e+00 +8.5385699680701403e+00 +0.0000000000000000e+00 +3.9499999687844736e+00 -2.1781036438971578e-04 +0.0000000000000000e+00 +9.9999997627932202e-01
3.9999999999999938e+00 +8.5385590085316352e+00 +0.0000000000000000e+00 +3.9999999675833426e+00 -2.2057119869482844e-04 +0.0000000000000000e+00 +9.9999997567417254e-01
4.0499999999999936e+00 +8.5385479109479725e+00 +0.0000000000000000e+00 +4.0499999663517627e+00 -2.2333217088253514e-04 +0.0000000000000000e+00 +9.9999997506137006e-01
4.0999999999999934e+00 +8.5385366753122245e+00 +0.0000000000000000e+00 +4.0999999650893519e+00 -2.2609328239546131e-04 +0.0000000000000000e+00 +9.9999997444091315e-01
4.1499999999999932e+00 +8.5385253016173870e+00 +0.0000000000000000e+00 +4.1499999637957270e+00 -2.2885453466098938e-04 +0.0000000000000000e+00 +9.9999997381280026e-01
4.1999999999999931e+00 +8.5385137898563883e+00 +0.0000000000000000e+00 +4.1999999624705051e+00 -2.3161592909102946e-04 +0.0000000000000000e+00 +9.9999997317702993e-01
4.2499999999999929e+00 +8.5385021400220857e+00 +0.0000000000000000e+00 +4.2499999611133026e+00 -2.3437746708201938e-04 +0.0000000000000000e+00 +9.9999997253360073e-01
4.2999999999999927e+00 +8.5384903521072655e+00 +0.0000000000000000e+00 +4.2999999597237375e+00 -2.3713915001492464e-04 +0.0000000000000000e+00 +9.9999997188251100e-01
4.3499999999999925e+00 +8.5384784261046462e+00 +0.0000000000000000e+00 +4.3499999583014262e+00 -2.3990097925523845e-04 +0.0000000000000000e+00 +9.9999997122375928e-01
4.3999999999999924e+00 +8.5384663620068793e+00 +0.0000000000000000e+00 +4.3999999568459858e+00 -2.4266295615298173e-04 +0.0000000000000000e+00 +9.9999997055734402e-01
4.4499999999999922e+00 +8.5384541598065482e+00 +0.0000000000000000e+00 +4.4499999553570326e+00 -2.4542508204270316e-04 +0.0000000000000000e+00 +9.9999996988326367e-01
4.4999999999999920e+00 +8.5384418194961693e+00 +0.0000000000000000e+00 +4.4999999538341839e+00 -2.4818735824347913e-04 +0.0000000000000000e+00 +9.9999996920151668e-01
4.5499999999999918e+00 +8.5384293410681966e+00 +0.0000000000000000e+00 +4.5499999522770560e+00 -2.5094978605891380e-04 +0.0000000000000000e+00 +9.9999996851210149e-01
4.5999999999999917e+00 +8.5384167245150149e+00 +0.0000000000000000e+00 +4.5999999506852660e+00 -2.5371236677713906e-04 +0.0000000000000000e+00 +9.9999996781501654e-01
4.6499999999999915e+00 +8.5384039698289484e+00 +0.0000000000000000e+00 +4.6499999490584303e+00 -2.5647510167081449e-04 +0.0000000000000000e+00 +9.9999996711026018e-01
4.6999999999999913e+00 +8.5383910770022577e+00 +0.0000000000000000e+00 +4.6999999473961642e+00 -2.5923799199712751e-04 +0.0000000000000000e+00 +9.9999996639783084e-01
4.7499999999999911e+00 +8.5383780460271375e+00 +0.0000000000000000e+00 +4.7499999456980850e+00 -2.6200103899779326e-04 +0.0000000000000000e+00 +9.9999996567772687e-01
4.7999999999999909e+00 +8.5383648768957254e+00 +0.0000000000000000e+00 +4.7999999439638090e+00 -2.6476424389905467e-04 +0.0000000000000000e+00 +9.9999996494994658e-01
4.8499999999999908e+00 +8.5383515696000956e+00 +0.0000000000000000e+00 +4.8499999421929516e+00 -2.6752760791168235e-04 +0.0000000000000000e+00 +9.9999996421448845e-01
4.8999999999999906e+00 +8.5383381241322631e+00 +0.0000000000000000e+00 +4.8999999403851300e+00 -2.7029113223097474e-04 +0.0000000000000000e+00 +9.9999996347135078e-01
4.9499999999999904e+00 +8.5383245404841812e+00 +0.0000000000000000e+00 +4.9499999385399587e+00 -2.7305481803675791e-04 +0.0000000000000000e+00 +9.9999996272053204e-01
4.9999999999999902e+00 +8.5383108186477479e+00 +0.0000000000000000e+00 +4.9999999366570549e+00 -2.7581866649338581e-04 +0.0000000000000000e+00 +9.9999996196203045e-01
5.0499999999999901e+00 +8.5382969586148025e+00 +0.0000000000000000e+00 +5.0499999347360340e+00 -2.7858267874974010e-04 +0.0000000000000000e+00 +9.9999996119584433e-01
5.0999999999999899e+00 +8.5382829603771242e+00 +0.0000000000000000e+00 +5.0999999327765115e+00 -2.8134685593923006e-04 +0.0000000000000000e+00 +9.9999996042197203e-01
5.1499999999999897e+00 +8.5382688239264404e+00 +0.0000000000000000e+00 +5.1499999307781028e+00 -2.8411119917979281e-04 +0.0000000000000000e+00 +9.9999995964041188e-01
5.1999999999999895e+00 +8.5382545492544200e+00 +0.0000000000000000e+00 +5.1999999287404242e+00 -2.8687570957389310e-04 +0.0000000000000000e+00 +9.9999995885116222e-01
5.2499999999999893e+00 +8.5382401363526785e+00 +0.0000000000000000e+00 +5.2499999266630910e+00 -2.8964038820852346e-04 +0.0000000000000000e+00 +9.9999995805422137e-01
5.2999999999999892e+00 +8.5382255852127766e+00 +0.0000000000000000e+00 +5.2999999245457179e+00 -2.9240523615520409e-04 +0.0000000000000000e+00 +9.9999995724958757e-01
5.3499999999999890e+00 +8.5382108958262233e+00 +0.0000000000000000e+00 +5.3499999223879211e+00 -2.9517025446998283e-04 +0.0000000000000000e+00 +9.9999995643725903e-01
5.3999999999999888e+00 +8.5381960681844724e+00 +0.0000000000000000e+00 +5.3999999201893152e+00 -2.9793544419343517e-04 +0.0000000000000000e+00 +9.9999995561723409e-01
5.4499999999999886e+00 +8.5381811022789300e+00 +0.0000000000000000e+00 +5.4499999179495155e+00 -3.0070080635066429e-04 +0.0000000000000000e+00 +9.9999995478951109e-01
5.4999999999999885e+00 +8.5381659981009470e+00 +0.0000000000000000e+00 +5.4999999156681376e+00 -3.0346634195130100e-04 +0.0000000000000000e+00 +9.9999995395408814e-01
5.5499999999999883e+00 +8.5381507556418281e+00 +0.0000000000000000e+00 +5.5499999133447959e+00 -3.0623205198950372e-04 +0.0000000000000000e+00 +9.9999995311096357e-01
5.5999999999999881e+00 +8.5381353748928248e+00 +0.0000000000000000e+00 +5.5999999109791059e+00 -3.0899793744395849e-04 +0.0000000000000000e+00 +9.9999995226013572e-01
5.6499999999999879e+00 +8.5381198558451441e+00 +0.0000000000000000e+00 +5.6499999085706811e+00 -3.1176399927787887e-04 +0.0000000000000000e+00 +9.9999995140160269e-01
5.6999999999999877e+00 +8.5381041984899415e+00 +0.0000000000000000e+00 +5.6999999061191371e+00 -3.1453023843900599e-04 +0.0000000000000000e+00 +9.9999995053536284e-01
5.7499999999999876e+00 +8.5380884028183281e+00 +0.0000000000000000e+00 +5.7499999036240883e+00 -3.1729665585960854e-04 +0.0000000000000000e+00 +9.9999994966141437e-01
5.7999999999999874e+00 +8.5380724688213689e+00 +0.0000000000000000e+00 +5.7999999010851493e+00 -3.2006325245648268e-04 +0.0000000000000000e+00 +9.9999994877975540e-01
5.8499999999999872e+00 +8.5380563964900809e+00 +0.0000000000000000e+00 +5.8499998985019346e+00 -3.2283002913095212e-04 +0.0000000000000000e+00 +9.9999994789038427e-01
5.8999999999999870e+00 +8.5380401858154400e+00 +0.0000000000000000e+00 +5.8999998958740587e+00 -3.2559698676886794e-04 +0.0000000000000000e+00 +9.9999994699329919e-01
