# trajectory
# s[mm] rx[mm] ry[mm] rz[mm] px[rad] py[rad] pz[rad]
0.0000000000000000e+00 +8.2850000000000001e+00 +0.0000000000000000e+00 +0.0000000000000000e+00 +0.0000000000000000e+00 +0.0000000000000000e+00 +1.0000000000000000e+00
5.0000000000000003e-02 +8.2849999307834672e+00 +0.0000000000000000e+00 +4.9999999999936123e-02 -2.7686557519167615e-06 +0.0000000000000000e+00 +9.9999999999616729e-01
1.0000000000000001e-01 +8.2849997231349661e+00 +0.0000000000000000e+00 +9.9999999999488970e-02 -5.5372790558955987e-06 +0.0000000000000000e+00 +9.9999999998466926e-01
1.5000000000000002e-01 +8.2849993770560726e+00 +0.0000000000000000e+00 +1.4999999999827529e-01 -8.3058717729188877e-06 +0.0000000000000000e+00 +9.9999999996550626e-01
2.0000000000000001e-01 +8.2849988925482680e+00 +0.0000000000000000e+00 +1.9999999999591184e-01 -1.1074435764868066e-05 +0.0000000000000000e+00 +9.9999999993867850e-01
2.5000000000000000e-01 +8.2849982696129434e+00 +0.0000000000000000e+00 +2.4999999999201539e-01 -1.3842972894523723e-05 +0.0000000000000000e+00 +9.9999999990418609e-01
2.9999999999999999e-01 +8.2849975082513954e+00 +0.0000000000000000e+00 +2.9999999998620269e-01 -1.6611485025565684e-05 +0.0000000000000000e+00 +9.9999999986202937e-01
3.4999999999999998e-01 +8.2849966084648266e+00 +0.0000000000000000e+00 +3.4999999997809056e-01 -1.9379974022573113e-05 +0.0000000000000000e+00 +9.9999999981220844e-01
3.9999999999999997e-01 +8.2849955702543472e+00 +0.0000000000000000e+00 +3.9999999996729579e-01 -2.2148441751024580e-05 +0.0000000000000000e+00 +9.9999999975472342e-01
4.4999999999999996e-01 +8.2849943936209751e+00 +0.0000000000000000e+00 +4.4999999995343520e-01 -2.4916890077298175e-05 +0.0000000000000000e+00 +9.9999999968957443e-01
4.9999999999999994e-01 +8.2849930785656323e+00 +0.0000000000000000e+00 +4.9999999993612554e-01 -2.7685320868671575e-05 +0.0000000000000000e+00 +9.9999999961676167e-01
5.4999999999999993e-01 +8.2849916250891500e+00 +0.0000000000000000e+00 +5.4999999991498361e-01 -3.0453735993322149e-05 +0.0000000000000000e+00 +9.9999999953628516e-01
5.9999999999999998e-01 +8.2849900331922637e+00 +0.0000000000000000e+00 +5.9999999988962627e-01 -3.3222137320327033e-05 +0.0000000000000000e+00 +9.9999999944814499e-01
6.5000000000000002e-01 +8.2849883028756164e+00 +0.0000000000000000e+00 +6.4999999985967039e-01 -3.5990526719663226e-05 +0.0000000000000000e+00 +9.9999999935234118e-01
7.0000000000000007e-01 +8.2849864341397588e+00 +0.0000000000000000e+00 +6.9999999982473271e-01 -3.8758906062207681e-05 +0.0000000000000000e+00 +9.9999999924887384e-01
7.5000000000000011e-01 +8.2849844269851474e+00 +0.0000000000000000e+00 +7.4999999978443010e-01 -4.1527277219737377e-05 +0.0000000000000000e+00 +9.9999999913774285e-01
8.0000000000000016e-01 +8.2849822814121428e+00 +0.0000000000000000e+00 +7.9999999973837932e-01 -4.4295642064929417e-05 +0.0000000000000000e+00 +9.9999999901894832e-01
8.5000000000000020e-01 +8.2849799974210150e+00 +0.0000000000000000e+00 +8.4999999968619722e-01 -4.7064002471361124e-05 +0.0000000000000000e+00 +9.9999999889249014e-01
9.0000000000000024e-01 +8.2849775750119381e+00 +0.0000000000000000e+00 +8.9999999962750066e-01 -4.9832360313510107e-05 +0.0000000000000000e+00 +9.9999999875836820e-01
9.5000000000000029e-01 +8.2849750141849938e+00 +0.0000000000000000e+00 +9.4999999956190639e-01 -5.2600717466754361e-05 +0.0000000000000000e+00 +9.9999999861658251e-01
1.0000000000000002e+00 +8.2849723149401715e+00 +0.0000000000000000e+00 +9.9999999948903118e-01 -5.5369075807372354e-05 +0.0000000000000000e+00 +9.9999999846713294e-01
1.0500000000000003e+00 +8.2849694772773628e+00 +0.0000000000000000e+00 +1.0499999994084919e+00 -5.8137437212543102e-05 +0.0000000000000000e+00 +9.9999999831001940e-01
1.1000000000000003e+00 +8.2849665011963687e+00 +0.0000000000000000e+00 +1.0999999993199054e+00 -6.0905803560346261e-05 +0.0000000000000000e+00 +9.9999999814524176e-01
1.1500000000000004e+00 +8.2849633866968944e+00 +0.0000000000000000e+00 +1.1499999992228884e+00 -6.3674176729762227e-05 +0.0000000000000000e+00 +9.9999999797279981e-01
1.2000000000000004e+00 +8.2849601337785508e+00 +0.0000000000000000e+00 +1.1999999991170578e+00 -6.6442558600672186e-05 +0.0000000000000000e+00 +9.9999999779269344e-01
1.2500000000000004e+00 +8.2849567424408566e+00 +0.0000000000000000e+00 +1.2499999990020301e+00 -6.9210951053858235e-05 +0.0000000000000000e+00 +9.9999999760492231e-01
1.3000000000000005e+00 +8.2849532126832361e+00 +0.0000000000000000e+00 +1.2999999988774222e+00 -7.1979355971003444e-05 +0.0000000000000000e+00 +9.9999999740948631e-01
1.3500000000000005e+00 +8.2849495445050199e+00 +0.0000000000000000e+00 +1.3499999987428510e+00 -7.4747775234691946e-05 +0.0000000000000000e+00 +9.9999999720638522e-01
1.4000000000000006e+00 +8.2849457379054421e+00 +0.0000000000000000e+00 +1.3999999985979330e+00 -7.7516210728409028e-05 +0.0000000000000000e+00 +9.9999999699561870e-01
1.4500000000000006e+00 +8.2849417928836449e+00 +0.0000000000000000e+00 +1.4499999984422851e+00 -8.0284664336541215e-05 +0.0000000000000000e+00 +9.9999999677718654e-01
1.5000000000000007e+00 +8.2849377094386742e+00 +0.0000000000000000e+00 +1.4999999982755239e+00 -8.3053137944376332e-05 +0.0000000000000000e+00 +9.9999999655108829e-01
1.5500000000000007e+00 +8.2849334875694840e+00 +0.0000000000000000e+00 +1.5499999980972661e+00 -8.5821633438103610e-05 +0.0000000000000000e+00 +9.9999999631732372e-01
1.6000000000000008e+00 +8.2849291272749337e+00 +0.0000000000000000e+00 +1.5999999979071284e+00 -8.8590152704813764e-05 +0.0000000000000000e+00 +9.9999999607589252e-01
1.6500000000000008e+00 +8.2849246285537870e+00 +0.0000000000000000e+00 +1.6499999977047275e+00 -9.1358697632499080e-05 +0.0000000000000000e+00 +9.9999999582679433e-01
1.7000000000000008e+00 +8.2849199914047116e+00 +0.0000000000000000e+00 +1.6999999974896800e+00 -9.4127270110053494e-05 +0.0000000000000000e+00 +9.9999999557002861e-01
1.7500000000000009e+00 +8.2849152158262847e+00 +0.0000000000000000e+00 +1.7499999972616025e+00 -9.6895872027272643e-05 +0.0000000000000000e+00 +9.9999999530559514e-01
1.8000000000000009e+00 +8.2849103018169874e+00 +0.0000000000000000e+00 +1.7999999970201117e+00 -9.9664505274854021e-05 +0.0000000000000000e+00 +9.9999999503349335e-01
1.8500000000000010e+00 +8.2849052493752051e+00 +0.0000000000000000e+00 +1.8499999967648240e+00 -1.0243317174439698e-04 +0.0000000000000000e+00 +9.9999999475372281e-01
1.9000000000000010e+00 +8.2849000584992289e+00 +0.0000000000000000e+00 +1.8999999964953560e+00 -1.0520187332840287e-04 +0.0000000000000000e+00 +9.9999999446628307e-01
1.9500000000000011e+00 +8.2848947291872559e+00 +0.0000000000000000e+00 +1.9499999962113244e+00 -1.0797061192027507e-04 +0.0000000000000000e+00 +9.9999999417117358e-01
2.0000000000000009e+00 +8.2848892614373888e+00 +0.0000000000000000e+00 +1.9999999959123456e+00 -1.1073938941431912e-04 +0.0000000000000000e+00 +9.9999999386839389e-01
2.0500000000000007e+00 +8.2848836552476346e+00 +0.0000000000000000e+00 +2.0499999955980361e+00 -1.1350820770532651e-04 +0.0000000000000000e+00 +9.9999999355794345e-01
2.1000000000000005e+00 +8.2848779106159061e+00 +0.0000000000000000e+00 +2.0999999952680124e+00 -1.1627706868399576e-04 +0.0000000000000000e+00 +9.9999999323982169e-01
2.1500000000000004e+00 +8.2848720275400236e+00 +0.0000000000000000e+00 +2.1499999949218904e+00 -1.1904597423235350e-04 +0.0000000000000000e+00 +9.9999999291402808e-01
2.2000000000000002e+00 +8.2848660060177099e+00 +0.0000000000000000e+00 +2.1999999945592870e+00 -1.2181492622333830e-04 +0.0000000000000000e+00 +9.9999999258056194e-01
2.2500000000000000e+00 +8.2848598460465972e+00 +0.0000000000000000e+00 +2.2499999941798183e+00 -1.2458392652080067e-04 +0.0000000000000000e+00 +9.9999999223942271e-01
2.2999999999999998e+00 +8.2848535476242233e+00 +0.0000000000000000e+00 +2.2999999937831013e+00 -1.2735297697950325e-04 +0.0000000000000000e+00 +9.9999999189060973e-01
2.3499999999999996e+00 +8.2848471107480339e+00 +0.0000000000000000e+00 +2.3499999933687516e+00 -1.3012207944512071e-04 +0.0000000000000000e+00 +9.9999999153412233e-01
2.3999999999999995e+00 +8.2848405354153822e+00 +0.0000000000000000e+00 +2.3999999929363858e+00 -1.3289123575423997e-04 +0.0000000000000000e+00 +9.9999999116995986e-01
2.4499999999999993e+00 +8.2848338216235309e+00 +0.0000000000000000e+00 +2.4499999924856199e+00 -1.3566044773436012e-04 +0.0000000000000000e+00 +9.9999999079812163e-01
2.4999999999999991e+00 +8.2848269693696501e+00 +0.0000000000000000e+00 +2.4999999920160700e+00 -1.3842971720389268e-04 +0.0000000000000000e+00 +9.9999999041860688e-01
2.5499999999999989e+00 +8.2848199786508214e+00 +0.0000000000000000e+00 +2.5499999915273523e+00 -1.4119904597216144e-04 +0.0000000000000000e+00 +9.9999999003141493e-01
2.5999999999999988e+00 +8.2848128494640338e+00 +0.0000000000000000e+00 +2.5999999910190832e+00 -1.4396843583940264e-04 +0.0000000000000000e+00 +9.9999998963654491e-01
2.6499999999999986e+00 +8.2848055818061894e+00 +0.0000000000000000e+00 +2.6499999904908789e+00 -1.4673788859676507e-04 +0.0000000000000000e+00 +9.9999998923399613e-01
2.6999999999999984e+00 +8.2847981756740978e+00 +0.0000000000000000e+00 +2.6999999899423548e+00 -1.4950740602631004e-04 +0.0000000000000000e+00 +9.9999998882376784e-01
2.7499999999999982e+00 +8.2847906310644799e+00 +0.0000000000000000e+00 +2.7499999893731273e+00 -1.5227698990101149e-04 +0.0000000000000000e+00 +9.9999998840585924e-01
2.7999999999999980e+00 +8.2847829479739712e+00 +0.0000000000000000e+00 +2.7999999887828126e+00 -1.5504664198475601e-04 +0.0000000000000000e+00 +9.9999998798026946e-01
2.8499999999999979e+00 +8.2847751263991167e+00 +0.0000000000000000e+00 +2.8499999881710263e+00 -1.5781636403234295e-04 +0.0000000000000000e+00 +9.9999998754699770e-01
2.8999999999999977e+00 +8.2847671663363744e+00 +0.0000000000000000e+00 +2.8999999875373845e+00 -1.6058615778948441e-04 +0.0000000000000000e+00 +9.9999998710604299e-01
2.9499999999999975e+00 +8.2847590677821152e+00 +0.0000000000000000e+00 +2.9499999868815028e+00 -1.6335602499280538e-04 +0.0000000000000000e+00 +9.9999998665740453e-01
2.9999999999999973e+00 +8.2847508307326230e+00 +0.0000000000000000e+00 +2.9999999862029969e+00 -1.6612596736984372e-04 +0.0000000000000000e+00 +9.9999998620108144e-01
3.0499999999999972e+00 +8.2847424551840962e+00 +0.0000000000000000e+00 +3.0499999855014828e+00 -1.6889598663905023e-04 +0.0000000000000000e+00 +9.9999998573707283e-01
3.0999999999999970e+00 +8.2847339411326484e+00 +0.0000000000000000e+00 +3.0999999847765762e+00 -1.7166608450978877e-04 +0.0000000000000000e+00 +9.9999998526537770e-01
3.1499999999999968e+00 +8.2847252885743075e+00 +0.0000000000000000e+00 +3.1499999840278927e+00 -1.7443626268233615e-04 +0.0000000000000000e+00 +9.9999998478599506e-01
3.1999999999999966e+00 +8.2847164975050145e+00 +0.0000000000000000e+00 +3.1999999832550476e+00 -1.7720652284788240e-04 +0.0000000000000000e+00 +9.9999998429892401e-01
3.2499999999999964e+00 +8.2847075679206288e+00 +0.0000000000000000e+00 +3.2499999824576569e+00 -1.7997686668853063e-04 +0.0000000000000000e+00 +9.9999998380416355e-01
3.2999999999999963e+00 +8.2846984998169244e+00 +0.0000000000000000e+00 +3.2999999816353358e+00 -1.8274729587729719e-04 +0.0000000000000000e+00 +9.9999998330171269e-01
3.3499999999999961e+00 +8.2846892931895919e+00 +0.0000000000000000e+00 +3.3499999807876999e+00 -1.8551781207811168e-04 +0.0000000000000000e+00 +9.9999998279157043e-01
3.3999999999999959e+00 +8.2846799480342384e+00 +0.0000000000000000e+00 +3.3999999799143645e+00 -1.8828841694581701e-04 +0.0000000000000000e+00 +9.9999998227373577e-01
3.4499999999999957e+00 +8.2846704643463909e+00 +0.0000000000000000e+00 +3.4499999790149452e+00 -1.9105911212616942e-04 +0.0000000000000000e+00 +9.9999998174820759e-01
3.4999999999999956e+00 +8.2846608421214931e+00 +0.0000000000000000e+00 +3.4999999780890572e+00 -1.9382989925583854e-04 +0.0000000000000000e+00 +9.9999998121498479e-01
3.5499999999999954e+00 +8.2846510813549052e+00 +0.0000000000000000e+00 +3.5499999771363155e+00 -1.9660077996240744e-04 +0.0000000000000000e+00 +9.9999998067406637e-01
3.5999999999999952e+00 +8.2846411820419092e+00 +0.0000000000000000e+00 +3.5999999761563357e+00 -1.9937175586437269e-04 +0.0000000000000000e+00 +9.9999998012545122e-01
3.6499999999999950e+00 +8.2846311441777054e+00 +0.0000000000000000e+00 +3.6499999751487326e+00 -2.0214282857114438e-04 +0.0000000000000000e+00 +9.9999997956913811e-01
3.6999999999999948e+00 +8.2846209677574123e+00 +0.0000000000000000e+00 +3.6999999741131213e+00 -2.0491399968304618e-04 +0.0000000000000000e+00 +9.9999997900512605e-01
3.7499999999999947e+00 +8.2846106527760703e+00 +0.0000000000000000e+00 +3.7499999730491167e+00 -2.0768527079131530e-04 +0.0000000000000000e+00 +9.9999997843341382e-01
3.7999999999999945e+00 +8.2846001992286400e+00 +0.0000000000000000e+00 +3.7999999719563342e+00 -2.1045664347810268e-04 +0.0000000000000000e+00 +9.9999997785400030e-01
3.8499999999999943e+00 +8.2845896071100036e+00 +0.0000000000000000e+00 +3.8499999708343884e+00 -2.1322811931647289e-04 +0.0000000000000000e+00 +9.9999997726688428e-01
3.8999999999999941e+00 +8.2845788764149635e+00 +0.0000000000000000e+00 +3.8999999696828942e+00 -2.1599969987040426e-04 +0.0000000000000000e+00 +9.9999997667206453e-01
3.9499999999999940e+00 +8.2845680071382457e+00 +0.0000000000000000e+00 +3.9499999685014666e+00 -2.1877138669478888e-04 +0.0000000000000000e+00 +9.9999997606953983e-01
3.9999999999999938e+00 +8.2845569992744981e+00 +0.0000000000000000e+00 +3.9999999672897197e+00 -2.2154318133543263e-04 +0.0000000000000000e+00 +9.9999997545930908e-01
4.0499999999999936e+00 +8.2845458528182903e+00 +0.0000000000000000e+00 +4.0499999660472685e+00 -2.2431508532889678e-04 +0.0000000000000000e+00 +9.9999997484137093e-01
4.0999999999999934e+00 +8.2845345677641173e+00 +0.0000000000000000e+00 +4.0999999647737280e+00 -2.2708710020075538e-04 +0.0000000000000000e+00 +9.9999997421572417e-01
4.1499999999999932e+00 +8.2845231441063980e+00 +0.0000000000000000e+00 +4.1499999634687121e+00 -2.2985922746385261e-04 +0.0000000000000000e+00 +9.9999997358236747e-01
4.1999999999999931e+00 +8.2845115818394728e+00 +0.0000000000000000e+00 +4.1999999621318356e+00 -2.3263146861814436e-04 +0.0000000000000000e+00 +9.9999997294129961e-01
4.2499999999999929e+00 +8.2844998809576129e+00 +0.0000000000000000e+00 +4.2499999607627128e+00 -2.3540382515069828e-04 +0.0000000000000000e+00 +9.9999997229251925e-01
4.2999999999999927e+00 +8.2844880414550115e+00 +0.0000000000000000e+00 +4.2999999593609584e+00 -2.3817629853569380e-04 +0.0000000000000000e+00 +9.9999997163602505e-01
4.3499999999999925e+00 +8.2844760633257888e+00 +0.0000000000000000e+00 +4.3499999579261868e+00 -2.4094889023442220e-04 +0.0000000000000000e+00 +9.9999997097181581e-01
4.3999999999999924e+00 +8.2844639465639922e+00 +0.0000000000000000e+00 +4.3999999564580117e+00 -2.4372160169528661e-04 +0.0000000000000000e+00 +9.9999997029989007e-01
4.4499999999999922e+00 +8.2844516911635981e+00 +0.0000000000000000e+00 +4.4499999549560476e+00 -2.4649443435380205e-04 +0.0000000000000000e+00 +9.9999996962024651e-01
4.4999999999999920e+00 +8.2844392971185119e+00 +0.0000000000000000e+00 +4.4999999534199082e+00 -2.4926738963259546e-04 +0.0000000000000000e+00 +9.9999996893288379e-01
4.5499999999999918e+00 +8.2844267644225678e+00 +0.0000000000000000e+00 +4.5499999518492071e+00 -2.5204046894140581e-04 +0.0000000000000000e+00 +9.9999996823780057e-01
4.5999999999999917e+00 +8.2844140930695271e+00 +0.0000000000000000e+00 +4.5999999502435589e+00 -2.5481367367708395e-04 +0.0000000000000000e+00 +9.9999996753499543e-01
4.6499999999999915e+00 +8.2844012830530858e+00 +0.0000000000000000e+00 +4.6499999486025780e+00 -2.5758700522359281e-04 +0.0000000000000000e+00 +9.9999996682446690e-01
4.6999999999999913e+00 +8.2843883343668683e+00 +0.0000000000000000e+00 +4.6999999469258773e+00 -2.6036046495200735e-04 +0.0000000000000000e+00 +9.9999996610621367e-01
4.7499999999999911e+00 +8.2843752470044318e+00 +0.0000000000000000e+00 +4.7499999452130703e+00 -2.6313405422051463e-04 +0.0000000000000000e+00 +9.9999996538023428e-01
4.7999999999999909e+00 +8.2843620209592643e+00 +0.0000000000000000e+00 +4.7999999434637717e+00 -2.6590777437441384e-04 +0.0000000000000000e+00 +9.9999996464652730e-01
4.8499999999999908e+00 +8.2843486562247897e+00 +0.0000000000000000e+00 +4.8499999416775941e+00 -2.6868162674611616e-04 +0.0000000000000000e+00 +9.9999996390509127e-01
4.8999999999999906e+00 +8.2843351527943643e+00 +0.0000000000000000e+00 +4.8999999398541521e+00 -2.7145561265514508e-04 +0.0000000000000000e+00 +9.9999996315592465e-01
4.9499999999999904e+00 +8.2843215106612771e+00 +0.0000000000000000e+00 +4.9499999379930584e+00 -2.7422973340813622e-04 +0.0000000000000000e+00 +9.9999996239902611e-01
4.9999999999999902e+00 +8.2843077298187549e+00 +0.0000000000000000e+00 +4.9999999360939258e+00 -2.7700399029883735e-04 +0.0000000000000000e+00 +9.9999996163439409e-01
5.0499999999999901e+00 +8.2842938102599568e+00 +0.0000000000000000e+00 +5.0499999341563688e+00 -2.7977838460810855e-04 +0.0000000000000000e+00 +9.9999996086202714e-01
5.0999999999999899e+00 +8.2842797519779818e+00 +0.0000000000000000e+00 +5.0999999321800003e+00 -2.8255291760392209e-04 +0.0000000000000000e+00 +9.9999996008192371e-01
5.1499999999999897e+00 +8.2842655549658630e+00 +0.0000000000000000e+00 +5.1499999301644328e+00 -2.8532759054136249e-04 +0.0000000000000000e+00 +9.9999995929408236e-01
5.1999999999999895e+00 +8.2842512192165731e+00 +0.0000000000000000e+00 +5.1999999281092792e+00 -2.8810240466262664e-04 +0.0000000000000000e+00 +9.9999995849850154e-01
5.2499999999999893e+00 +8.2842367447230227e+00 +0.0000000000000000e+00 +5.2499999260141532e+00 -2.9087736119702372e-04 +0.0000000000000000e+00 +9.9999995769517969e-01
5.2999999999999892e+00 +8.2842221314780602e+00 +0.0000000000000000e+00 +5.2999999238786675e+00 -2.9365246136097518e-04 +0.0000000000000000e+00 +9.9999995688411525e-01
5.3499999999999890e+00 +8.2842073794744735e+00 +0.0000000000000000e+00 +5.3499999217024357e+00 -2.9642770635801493e-04 +0.0000000000000000e+00 +9.9999995606530667e-01
5.3999999999999888e+00 +8.2841924887049903e+00 +0.0000000000000000e+00 +5.3999999194850696e+00 -2.9920309737878912e-04 +0.0000000000000000e+00 +9.9999995523875240e-01
5.4499999999999886e+00 +8.2841774591622812e+00 +0.0000000000000000e+00 +5.4499999172261822e+00 -3.0197863560105633e-04 +0.0000000000000000e+00 +9.9999995440445089e-01
5.4999999999999885e+00 +8.2841622908389567e+00 +0.0000000000000000e+00 +5.4999999149253860e+00 -3.0475432218968760e-04 +0.0000000000000000e+00 +9.9999995356240057e-01
5.5499999999999883e+00 +8.2841469837275703e+00 +0.0000000000000000e+00 +5.5499999125822930e+00 -3.0753015829666633e-04 +0.0000000000000000e+00 +9.9999995271259989e-01
5.5999999999999881e+00 +8.2841315378206168e+00 +0.0000000000000000e+00 +5.5999999101965168e+00 -3.1030614506108835e-04 +0.0000000000000000e+00 +9.9999995185504720e-01
5.6499999999999879e+00 +8.2841159531105344e+00 +0.0000000000000000e+00 +5.6499999077676684e+00 -3.1308228360916193e-04 +0.0000000000000000e+00 +9.9999995098974082e-01
5.6999999999999877e+00 +8.2841002295897077e+00 +0.0000000000000000e+00 +5.6999999052953614e+00 -3.1585857505420789e-04 +0.0000000000000000e+00 +9.9999995011667919e-01
5.7499999999999876e+00 +8.2840843672504629e+00 +0.0000000000000000e+00 +5.7499999027792068e+00 -3.1863502049665933e-04 +0.0000000000000000e+00 +9.9999994923586077e-01
5.7999999999999874e+00 +8.2840683660850729e+00 +0.0000000000000000e+00 +5.7999999002188174e+00 -3.2141162102406200e-04 +0.0000000000000000e+00 +9.9999994834728378e-01
5.8499999999999872e+00 +8.2840522260857572e+00 +0.0000000000000000e+00 +5.8499998976138059e+00 -3.2418837771107411e-04 +0.0000000000000000e+00 +9.9999994745094667e-01
5.8999999999999870e+00 +8.2840359472446821e+00 +0.0000000000000000e+00 +5.8999998949637833e+00 -3.2696529161946628e-04 +0.0000000000000000e+00 +9.9999994654684776e-01
