# field on trajectory
# s[mm] rx[mm] ry[mm] rz[mm] bx[T] by[T] bz[T]
0.0000000000000000e+00 +8.2850000000000001e+00 +0.0000000000000000e+00 +0.0000000000000000e+00 -2.7533254122548510e-02 -5.2681708366217694e-01 +5.1855686209538046e-03
5.0000000000000003e-02 +8.2849999305503523e+00 +0.0000000000000000e+00 +4.9999999999935693e-02 -2.7533340723003449e-02 -5.2681727599835326e-01 +5.1866242599117067e-03
1.0000000000000001e-01 +8.2849997222013627e+00 +0.0000000000000000e+00 +9.9999999999485528e-02 -2.7533442319969313e-02 -5.2681781131065175e-01 +5.1876870412269106e-03
1.5000000000000002e-01 +8.2849993749528892e+00 +0.0000000000000000e+00 +1.4999999999826363e-01 -2.7533558881194315e-02 -5.2681868884310379e-01 +5.1887568990380082e-03
2.0000000000000001e-01 +8.2849988888046990e+00 +0.0000000000000000e+00 +1.9999999999588414e-01 -2.7533690374426670e-02 -5.2681990783975563e-01 +5.1898337674838096e-03
2.5000000000000000e-01 +8.2849982637564725e+00 +0.0000000000000000e+00 +2.4999999999196121e-01 -2.7533836767414731e-02 -5.2682146754466919e-01 +5.1909175807033610e-03
2.9999999999999999e-01 +8.2849974998077975e+00 +0.0000000000000000e+00 +2.9999999998610893e-01 -2.7533998027906910e-02 -5.2682336720192247e-01 +5.1920082728359298e-03
3.4999999999999998e-01 +8.2849965969581749e+00 +0.0000000000000000e+00 +3.4999999997794146e-01 -2.7534174123651708e-02 -5.2682560605560813e-01 +5.1931057780210121e-03
3.9999999999999997e-01 +8.2849955552070131e+00 +0.0000000000000000e+00 +3.9999999996707292e-01 -2.7534365022397790e-02 -5.2682818334983472e-01 +5.1942100303983291e-03
4.4999999999999996e-01 +8.2849943745536319e+00 +0.0000000000000000e+00 +4.4999999995311740e-01 -2.7534570691893915e-02 -5.2683109832872566e-01 +5.1953209641078298e-03
4.9999999999999994e-01 +8.2849930549972637e+00 +0.0000000000000000e+00 +4.9999999993568905e-01 -2.7534791099889020e-02 -5.2683435023642011e-01 +5.1964385132896975e-03
5.4999999999999993e-01 +8.2849915965370506e+00 +0.0000000000000000e+00 +5.4999999991440196e-01 -2.7535026214132188e-02 -5.2683793831707171e-01 +5.1975626120843313e-03
5.9999999999999998e-01 +8.2849899991720477e+00 +0.0000000000000000e+00 +5.9999999988887009e-01 -2.7535276002372717e-02 -5.2684186181484960e-01 +5.1986931946323631e-03
6.5000000000000002e-01 +8.2849882629012193e+00 +0.0000000000000000e+00 +6.4999999985870760e-01 -2.7535540432360055e-02 -5.2684611997393782e-01 +5.1998301950746551e-03
7.0000000000000007e-01 +8.2849863877234426e+00 +0.0000000000000000e+00 +6.9999999982352856e-01 -2.7535819471843897e-02 -5.2685071203853506e-01 +5.2009735475522867e-03
7.5000000000000011e-01 +8.2849843736375082e+00 +0.0000000000000000e+00 +7.4999999978294707e-01 -2.7536113088574156e-02 -5.2685563725285511e-01 +5.2021231862065731e-03
8.0000000000000016e-01 +8.2849822206421173e+00 +0.0000000000000000e+00 +7.9999999973657709e-01 -2.7536421250301008e-02 -5.2686089486112675e-01 +5.2032790451790566e-03
8.5000000000000020e-01 +8.2849799287358827e+00 +0.0000000000000000e+00 +8.4999999968403261e-01 -2.7536743924774846e-02 -5.2686648410759263e-01 +5.2044410586114991e-03
9.0000000000000024e-01 +8.2849774979173318e+00 +0.0000000000000000e+00 +8.9999999962492772e-01 -2.7537081079746388e-02 -5.2687240423651149e-01 +5.2056091606459019e-03
9.5000000000000029e-01 +8.2849749281849032e+00 +0.0000000000000000e+00 +9.4999999955887637e-01 -2.7537432682966611e-02 -5.2687865449215465e-01 +5.2067832854244805e-03
1.0000000000000002e+00 +8.2849722195369502e+00 +0.0000000000000000e+00 +9.9999999948549256e-01 -2.7537798702186797e-02 -5.2688523411880961e-01 +5.2079633670896863e-03
1.0500000000000003e+00 +8.2849693719717354e+00 +0.0000000000000000e+00 +1.0499999994043903e+00 -2.7538179105158572e-02 -5.2689214236077730e-01 +5.2091493397841962e-03
1.1000000000000003e+00 +8.2849663854874400e+00 +0.0000000000000000e+00 +1.0999999993151832e+00 -2.7538573859633885e-02 -5.2689937846237334e-01 +5.2103411376509083e-03
1.1500000000000004e+00 +8.2849632600821561e+00 +0.0000000000000000e+00 +1.1499999992174856e+00 -2.7538982933365031e-02 -5.2690694166792740e-01 +5.2115386948329602e-03
1.2000000000000004e+00 +8.2849599957538889e+00 +0.0000000000000000e+00 +1.1999999991109112e+00 -2.7539406294104691e-02 -5.2691483122178384e-01 +5.2127419454737062e-03
1.2500000000000004e+00 +8.2849565925005582e+00 +0.0000000000000000e+00 +1.2499999989950736e+00 -2.7539843909605892e-02 -5.2692304636830001e-01 +5.2139508237167287e-03
1.3000000000000005e+00 +8.2849530503199968e+00 +0.0000000000000000e+00 +1.2999999988695872e+00 -2.7540295747622123e-02 -5.2693158635184889e-01 +5.2151652637058418e-03
1.3500000000000005e+00 +8.2849493692099543e+00 +0.0000000000000000e+00 +1.3499999987340654e+00 -2.7540761775907231e-02 -5.2694045041681603e-01 +5.2163851995850868e-03
1.4000000000000006e+00 +8.2849455491680946e+00 +0.0000000000000000e+00 +1.3999999985881222e+00 -2.7541241962215520e-02 -5.2694963780760185e-01 +5.2176105654987322e-03
1.4500000000000006e+00 +8.2849415901919947e+00 +0.0000000000000000e+00 +1.4499999984313712e+00 -2.7541736274301731e-02 -5.2695914776861963e-01 +5.2188412955912651e-03
1.5000000000000007e+00 +8.2849374922791466e+00 +0.0000000000000000e+00 +1.4999999982634262e+00 -2.7542244679921064e-02 -5.2696897954429689e-01 +5.2200773240074147e-03
1.5500000000000007e+00 +8.2849332554269584e+00 +0.0000000000000000e+00 +1.5499999980839010e+00 -2.7542767146829201e-02 -5.2697913237907512e-01 +5.2213185848921252e-03
1.6000000000000008e+00 +8.2849288796327532e+00 +0.0000000000000000e+00 +1.5999999978924091e+00 -2.7543303642782308e-02 -5.2698960551740903e-01 +5.2225650123905740e-03
1.6500000000000008e+00 +8.2849243648937705e+00 +0.0000000000000000e+00 +1.6499999976885644e+00 -2.7543854135537088e-02 -5.2700039820376721e-01 +5.2238165406481686e-03
1.7000000000000008e+00 +8.2849197112071646e+00 +0.0000000000000000e+00 +1.6999999974719804e+00 -2.7544418592850728e-02 -5.2701150968263066e-01 +5.2250731038105385e-03
1.7500000000000009e+00 +8.2849149185700064e+00 +0.0000000000000000e+00 +1.7499999972422706e+00 -2.7544996982480953e-02 -5.2702293919849530e-01 +5.2263346360235403e-03
1.8000000000000009e+00 +8.2849099869792813e+00 +0.0000000000000000e+00 +1.7999999969990486e+00 -2.7545589272186085e-02 -5.2703468599586911e-01 +5.2276010714332639e-03
1.8500000000000010e+00 +8.2849049164318931e+00 +0.0000000000000000e+00 +1.8499999967419281e+00 -2.7546195429724966e-02 -5.2704674931927409e-01 +5.2288723441860181e-03
1.9000000000000010e+00 +8.2848997069246604e+00 +0.0000000000000000e+00 +1.8999999964705223e+00 -2.7546815422857061e-02 -5.2705912841324465e-01 +5.2301483884283481e-03
1.9500000000000011e+00 +8.2848943584543200e+00 +0.0000000000000000e+00 +1.9499999961844450e+00 -2.7547449219342417e-02 -5.2707182252232931e-01 +5.2314291383070231e-03
2.0000000000000009e+00 +8.2848888710175252e+00 +0.0000000000000000e+00 +1.9999999958833092e+00 -2.7548096786941687e-02 -5.2708483089108871e-01 +5.2327145279690403e-03
2.0500000000000007e+00 +8.2848832446108460e+00 +0.0000000000000000e+00 +2.0499999955667287e+00 -2.7548758092239545e-02 -5.2709815258963300e-01 +5.2340044868176812e-03
2.1000000000000005e+00 +8.2848774792307704e+00 +0.0000000000000000e+00 +2.0999999952343167e+00 -2.7549433097114807e-02 -5.2711178599023001e-01 +5.2352989252806570e-03
2.1500000000000004e+00 +8.2848715748737032e+00 +0.0000000000000000e+00 +2.1499999948856860e+00 -2.7550121762270584e-02 -5.2712572929069534e-01 +5.2365977490417999e-03
2.2000000000000002e+00 +8.2848655315359689e+00 +0.0000000000000000e+00 +2.1999999945204505e+00 -2.7550824048410982e-02 -5.2713998068885715e-01 +5.2379008637850151e-03
2.2500000000000000e+00 +8.2848593492138107e+00 +0.0000000000000000e+00 +2.2499999941382232e+00 -2.7551539916241059e-02 -5.2715453838255355e-01 +5.2392081751942363e-03
2.2999999999999998e+00 +8.2848530279033881e+00 +0.0000000000000000e+00 +2.2999999937386173e+00 -2.7552269326466976e-02 -5.2716940056963546e-01 +5.2405195889534441e-03
2.3499999999999996e+00 +8.2848465676007859e+00 +0.0000000000000000e+00 +2.3499999933212461e+00 -2.7553012239795917e-02 -5.2718456544796422e-01 +5.2418350107466339e-03
2.3999999999999995e+00 +8.2848399683020038e+00 +0.0000000000000000e+00 +2.3999999928857227e+00 -2.7553768616936192e-02 -5.2720003121541259e-01 +5.2431543462578235e-03
2.4499999999999993e+00 +8.2848332300029632e+00 +0.0000000000000000e+00 +2.4499999924316600e+00 -2.7554538418597223e-02 -5.2721579606986391e-01 +5.2444775011710352e-03
2.4999999999999991e+00 +8.2848263526995094e+00 +0.0000000000000000e+00 +2.4999999919586711e+00 -2.7555321605489628e-02 -5.2723185820921303e-01 +5.2458043811702904e-03
2.5499999999999989e+00 +8.2848193363874074e+00 +0.0000000000000000e+00 +2.5499999914663687e+00 -2.7556118138325206e-02 -5.2724821583136472e-01 +5.2471348919395965e-03
2.5999999999999988e+00 +8.2848121810623443e+00 +0.0000000000000000e+00 +2.5999999909543656e+00 -2.7556927977816989e-02 -5.2726486713423482e-01 +5.2484689391629315e-03
2.6499999999999986e+00 +8.2848048867199306e+00 +0.0000000000000000e+00 +2.6499999904222751e+00 -2.7557751084679265e-02 -5.2728181031574928e-01 +5.2498064285242509e-03
2.6999999999999984e+00 +8.2847974533556989e+00 +0.0000000000000000e+00 +2.6999999898697098e+00 -2.7558587419627623e-02 -5.2729904357384483e-01 +5.2511472657074676e-03
2.7499999999999982e+00 +8.2847898809651053e+00 +0.0000000000000000e+00 +2.7499999892962825e+00 -2.7559436943378968e-02 -5.2731656510646763e-01 +5.2524913563964312e-03
2.7999999999999980e+00 +8.2847821695435293e+00 +0.0000000000000000e+00 +2.7999999887016060e+00 -2.7560299616651580e-02 -5.2733437311157449e-01 +5.2538386062749446e-03
2.8499999999999979e+00 +8.2847743190862779e+00 +0.0000000000000000e+00 +2.8499999880852931e+00 -2.7561175400165106e-02 -5.2735246578713169e-01 +5.2551889210267289e-03
2.8999999999999977e+00 +8.2847663295885798e+00 +0.0000000000000000e+00 +2.8999999874469564e+00 -2.7562064254640650e-02 -5.2737084133111545e-01 +5.2565422063354343e-03
2.9499999999999975e+00 +8.2847582010455891e+00 +0.0000000000000000e+00 +2.9499999867862083e+00 -2.7562966140800716e-02 -5.2738949794151180e-01 +5.2578983678846138e-03
2.9999999999999973e+00 +8.2847499334523889e+00 +0.0000000000000000e+00 +2.9999999861026612e+00 -2.7563881019369341e-02 -5.2740843381631541e-01 +5.2592573113577207e-03
3.0499999999999972e+00 +8.2847415268039857e+00 +0.0000000000000000e+00 +3.0499999853959276e+00 -2.7564808851072070e-02 -5.2742764715353163e-01 +5.2606189424381049e-03
3.0999999999999970e+00 +8.2847329810953134e+00 +0.0000000000000000e+00 +3.0999999846656201e+00 -2.7565749596635967e-02 -5.2744713615117367e-01 +5.2619831668089898e-03
3.1499999999999968e+00 +8.2847242963212349e+00 +0.0000000000000000e+00 +3.1499999839113508e+00 -2.7566703216789702e-02 -5.2746689900726473e-01 +5.2633498901534757e-03
3.1999999999999966e+00 +8.2847154724765399e+00 +0.0000000000000000e+00 +3.1999999831327322e+00 -2.7567669672263571e-02 -5.2748693391983659e-01 +5.2647190181545223e-03
3.2499999999999964e+00 +8.2847065095559440e+00 +0.0000000000000000e+00 +3.2499999823293764e+00 -2.7568648923789491e-02 -5.2750723908692965e-01 +5.2660904564949436e-03
3.2999999999999963e+00 +8.2846974075540949e+00 +0.0000000000000000e+00 +3.2999999815008958e+00 -2.7569640932101042e-02 -5.2752781270659366e-01 +5.2674641108573913e-03
3.3499999999999961e+00 +8.2846881664655694e+00 +0.0000000000000000e+00 +3.3499999806469023e+00 -2.7570645657933567e-02 -5.2754865297688558e-01 +5.2688398869243551e-03
3.3999999999999959e+00 +8.2846787862848714e+00 +0.0000000000000000e+00 +3.3999999797670082e+00 -2.7571663062024097e-02 -5.2756975809587259e-01 +5.2702176903781433e-03
3.4499999999999957e+00 +8.2846692670064375e+00 +0.0000000000000000e+00 +3.4499999788608253e+00 -2.7572693105111457e-02 -5.2759112626162896e-01 +5.2715974269008821e-03
3.4999999999999956e+00 +8.2846596086246329e+00 +0.0000000000000000e+00 +3.4999999779279660e+00 -2.7573735747936277e-02 -5.2761275567223676e-01 +5.2729790021744964e-03
3.5499999999999954e+00 +8.2846498111337556e+00 +0.0000000000000000e+00 +3.5499999769680417e+00 -2.7574790951241029e-02 -5.2763464452578723e-01 +5.2743623218807116e-03
3.5999999999999952e+00 +8.2846398745280361e+00 +0.0000000000000000e+00 +3.5999999759806642e+00 -2.7575858675770032e-02 -5.2765679102037844e-01 +5.2757472917010348e-03
3.6499999999999950e+00 +8.2846297988016335e+00 +0.0000000000000000e+00 +3.6499999749654455e+00 -2.7576938882269520e-02 -5.2767919335411684e-01 +5.2771338173167454e-03
3.6999999999999948e+00 +8.2846195839486416e+00 +0.0000000000000000e+00 +3.6999999739219973e+00 -2.7578031531487666e-02 -5.2770184972511591e-01 +5.2785218044088906e-03
3.7499999999999947e+00 +8.2846092299630865e+00 +0.0000000000000000e+00 +3.7499999728499311e+00 -2.7579136584174595e-02 -5.2772475833149679e-01 +5.2799111586582731e-03
3.7999999999999945e+00 +8.2845987368389284e+00 +0.0000000000000000e+00 +3.7999999717488584e+00 -2.7580254001082431e-02 -5.2774791737138871e-01 +5.2813017857454457e-03
3.8499999999999943e+00 +8.2845881045700622e+00 +0.0000000000000000e+00 +3.8499999706183909e+00 -2.7581383742965336e-02 -5.2777132504292690e-01 +5.2826935913506861e-03
3.8999999999999941e+00 +8.2845773331503167e+00 +0.0000000000000000e+00 +3.8999999694581398e+00 -2.7582525770579520e-02 -5.2779497954425403e-01 +5.2840864811540102e-03
3.9499999999999940e+00 +8.2845664225734552e+00 +0.0000000000000000e+00 +3.9499999682677167e+00 -2.7583680044683281e-02 -5.2781887907351999e-01 +5.2854803608351477e-03
3.9999999999999938e+00 +8.2845553728331751e+00 +0.0000000000000000e+00 +3.9999999670467328e+00 -2.7584846526037061e-02 -5.2784302182888154e-01 +5.2868751360735334e-03
4.0499999999999936e+00 +8.2845441839231118e+00 +0.0000000000000000e+00 +4.0499999657947994e+00 -2.7586025160189997e-02 -5.2786740590540771e-01 +5.2882707195727203e-03
4.0999999999999934e+00 +8.2845328558368365e+00 +0.0000000000000000e+00 +4.0999999645115279e+00 -2.7587215831838686e-02 -5.2789202898579723e-01 +5.2896670521337171e-03
4.1499999999999932e+00 +8.2845213885678586e+00 +0.0000000000000000e+00 +4.1499999631965290e+00 -2.7588418410466140e-02 -5.2791688864965725e-01 +5.2910640815817429e-03
4.1999999999999931e+00 +8.2845097821096232e+00 +0.0000000000000000e+00 +4.1999999618494144e+00 -2.7589632765555067e-02 -5.2794198247659618e-01 +5.2924617557417834e-03
4.2499999999999929e+00 +8.2844980364555134e+00 +0.0000000000000000e+00 +4.2499999604697942e+00 -2.7590858766587761e-02 -5.2796730804622338e-01 +5.2938600224385858e-03
4.2999999999999927e+00 +8.2844861515988519e+00 +0.0000000000000000e+00 +4.2999999590572795e+00 -2.7592096283046139e-02 -5.2799286293814973e-01 +5.2952588294966473e-03
4.3499999999999925e+00 +8.2844741275329010e+00 +0.0000000000000000e+00 +4.3499999576114821e+00 -2.7593345184411630e-02 -5.2801864473198645e-01 +5.2966581247402122e-03
4.3999999999999924e+00 +8.2844619642508643e+00 +0.0000000000000000e+00 +4.3999999561320120e+00 -2.7594605340165172e-02 -5.2804465100734510e-01 +5.2980578559932547e-03
4.4499999999999922e+00 +8.2844496617458852e+00 +0.0000000000000000e+00 +4.4499999546184794e+00 -2.7595876619787147e-02 -5.2807087934383690e-01 +5.2994579710794959e-03
4.4999999999999920e+00 +8.2844372200110481e+00 +0.0000000000000000e+00 +4.4999999530704953e+00 -2.7597158892757358e-02 -5.2809732732107406e-01 +5.3008584178223673e-03
4.5499999999999918e+00 +8.2844246390393792e+00 +0.0000000000000000e+00 +4.5499999514876706e+00 -2.7598452028554973e-02 -5.2812399251866782e-01 +5.3022591440450347e-03
4.5999999999999917e+00 +8.2844119188238494e+00 +0.0000000000000000e+00 +4.5999999498696154e+00 -2.7599755896658456e-02 -5.2815087251622816e-01 +5.3036600975703580e-03
4.6499999999999915e+00 +8.2843990593573711e+00 +0.0000000000000000e+00 +4.6499999482159406e+00 -2.7601070366545549e-02 -5.2817796489336488e-01 +5.3050612262209099e-03
4.6999999999999913e+00 +8.2843860606328015e+00 +0.0000000000000000e+00 +4.6999999465262556e+00 -2.7602395307693265e-02 -5.2820526722968597e-01 +5.3064624778189637e-03
4.7499999999999911e+00 +8.2843729226429428e+00 +0.0000000000000000e+00 +4.7499999448001713e+00 -2.7603730589577768e-02 -5.2823277710479843e-01 +5.3078638001864773e-03
4.7999999999999909e+00 +8.2843596453805421e+00 +0.0000000000000000e+00 +4.7999999430372977e+00 -2.7605076081674354e-02 -5.2826049209830672e-01 +5.3092651411450953e-03
4.8499999999999908e+00 +8.2843462288382916e+00 +0.0000000000000000e+00 +4.8499999412372459e+00 -2.7606431653457469e-02 -5.2828840978981373e-01 +5.3106664485161438e-03
4.8999999999999906e+00 +8.2843326730088300e+00 +0.0000000000000000e+00 +4.8999999393996250e+00 -2.7607797174400546e-02 -5.2831652775892013e-01 +5.3120676701206085e-03
4.9499999999999904e+00 +8.2843189778847446e+00 +0.0000000000000000e+00 +4.9499999375240442e+00 -2.7609172513976103e-02 -5.2834484358522338e-01 +5.3134687537791476e-03
4.9999999999999902e+00 +8.2843051434585711e+00 +0.0000000000000000e+00 +4.9999999356101146e+00 -2.7610557541655565e-02 -5.2837335484831849e-01 +5.3148696473120762e-03
5.0499999999999901e+00 +8.2842911697227901e+00 +0.0000000000000000e+00 +5.0499999336574453e+00 -2.7611952126909305e-02 -5.2840205912779703e-01 +5.3162702985393526e-03
5.0999999999999899e+00 +8.2842770566698363e+00 +0.0000000000000000e+00 +5.0999999316656464e+00 -2.7613356139206569e-02 -5.2843095400324724e-01 +5.3176706552805798e-03
5.1499999999999897e+00 +8.2842628042920889e+00 +0.0000000000000000e+00 +5.1499999296343271e+00 -2.7614769448015445e-02 -5.2846003705425371e-01 +5.3190706653550067e-03
5.1999999999999895e+00 +8.2842484125818814e+00 +0.0000000000000000e+00 +5.1999999275630975e+00 -2.7616191922802812e-02 -5.2848930586039677e-01 +5.3204702765814963e-03
5.2499999999999893e+00 +8.2842338815314971e+00 +0.0000000000000000e+00 +5.2499999254515668e+00 -2.7617623433034255e-02 -5.2851875800125236e-01 +5.3218694367785438e-03
5.2999999999999892e+00 +8.2842192111331716e+00 +0.0000000000000000e+00 +5.2999999232993451e+00 -2.7619063848174124e-02 -5.2854839105639240e-01 +5.3232680937642567e-03
5.3499999999999890e+00 +8.2842044013790908e+00 +0.0000000000000000e+00 +5.3499999211060407e+00 -2.7620513037685406e-02 -5.2857820260538313e-01 +5.3246661953563531e-03
5.3999999999999888e+00 +8.2841894522613959e+00 +0.0000000000000000e+00 +5.3999999188712628e+00 -2.7621970871029654e-02 -5.2860819022778660e-01 +5.3260636893721520e-03
5.4499999999999886e+00 +8.2841743637721788e+00 +0.0000000000000000e+00 +5.4499999165946216e+00 -2.7623437217667062e-02 -5.2863835150315885e-01 +5.3274605236285641e-03
5.4999999999999885e+00 +8.2841591359034901e+00 +0.0000000000000000e+00 +5.4999999142757252e+00 -2.7624911947056290e-02 -5.2866868401105016e-01 +5.3288566459420948e-03
5.5499999999999883e+00 +8.2841437686473309e+00 +0.0000000000000000e+00 +5.5499999119141830e+00 -2.7626394928654537e-02 -5.2869918533100557e-01 +5.3302520041288272e-03
5.5999999999999881e+00 +8.2841282619956598e+00 +0.0000000000000000e+00 +5.5999999095096040e+00 -2.7627886031917365e-02 -5.2872985304256304e-01 +5.3316465460044159e-03
5.6499999999999879e+00 +8.2841126159403906e+00 +0.0000000000000000e+00 +5.6499999070615976e+00 -2.7629385126298797e-02 -5.2876068472525450e-01 +5.3330402193840854e-03
5.6999999999999877e+00 +8.2840968304733948e+00 +0.0000000000000000e+00 +5.6999999045697720e+00 -2.7630892081251166e-02 -5.2879167795860471e-01 +5.3344329720826254e-03
5.7499999999999876e+00 +8.2840809055865012e+00 +0.0000000000000000e+00 +5.7499999020337356e+00 -2.7632406766225123e-02 -5.2882283032213184e-01 +5.3358247519143731e-03
5.7999999999999874e+00 +8.2840648412714959e+00 +0.0000000000000000e+00 +5.7999998994530975e+00 -2.7633929050669581e-02 -5.2885413939534676e-01 +5.3372155066932136e-03
5.8499999999999872e+00 +8.2840486375201259e+00 +0.0000000000000000e+00 +5.8499998968274660e+00 -2.7635458804031659e-02 -5.2888560275775209e-01 +5.3386051842325725e-03
5.8999999999999870e+00 +8.2840322943240938e+00 +0.0000000000000000e+00 +5.8999998941564495e+00 -2.7636995895756633e-02 -5.2891721798884317e-01 +5.3399937323454121e-03
