# field on trajectory
# s[mm] rx[mm] ry[mm] rz[mm] bx[T] by[T] bz[T]
-0.0000000000000000e+00 +8.5269999999999904e+00 +0.0000000000000000e+00 -0.0000000000000000e+00 -2.9272672119470051e-02 -5.5226954917521298e-01 +5.3982866649332330e-03
-5.0000000000000003e-02 +8.5269999309457507e+00 +0.0000000000000000e+00 -4.9999999999936401e-02 -2.9272568228714158e-02 -5.5227039767077946e-01 +5.3989355992898292e-03
-1.0000000000000001e-01 +8.5269997237883199e+00 +0.0000000000000000e+00 -9.9999999999491399e-02 -2.9272484345216735e-02 -5.5227159154388417e-01 +5.3995934107285998e-03
-1.4999999999999999e-01 +8.5269993785295792e+00 +0.0000000000000000e+00 -1.4999999999828301e-01 -2.9272420369599105e-02 -5.5227313006050116e-01 +5.4002599878039768e-03
-2.0000000000000001e-01 +8.5269988951622508e+00 +0.0000000000000000e+00 -1.9999999999593099e-01 -2.9272376202486367e-02 -5.5227501248668687e-01 +5.4009352190713331e-03
-2.5000000000000000e-01 +8.5269982736936107e+00 +0.0000000000000000e+00 -2.4999999999205300e-01 -2.9272351744498520e-02 -5.5227723808840701e-01 +5.4016189930852897e-03
-2.9999999999999999e-01 +8.5269975141200103e+00 +0.0000000000000000e+00 -2.9999999998626797e-01 -2.9272346896260092e-02 -5.5227980613172256e-01 +5.4023111984015052e-03
-3.4999999999999998e-01 +8.5269966164378292e+00 +0.0000000000000000e+00 -3.4999999997819298e-01 -2.9272361558395969e-02 -5.5228271588271016e-01 +5.4030117235758877e-03
-4.0000000000000002e-01 +8.5269955806543294e+00 +0.0000000000000000e+00 -3.9999999996744900e-01 -2.9272395631527399e-02 -5.5228596660738249e-01 +5.4037204571638240e-03
-4.5000000000000001e-01 +8.5269944067658798e+00 +0.0000000000000000e+00 -4.4999999995365297e-01 -2.9272449016280146e-02 -5.5228955757184661e-01 +5.4044372877216917e-03
-5.0000000000000000e-01 +8.5269930947724806e+00 +0.0000000000000000e+00 -4.9999999993642402e-01 -2.9272521613279080e-02 -5.5229348804219935e-01 +5.4051621038058327e-03
-5.5000000000000004e-01 +8.5269916446777607e+00 +0.0000000000000000e+00 -5.4999999991537996e-01 -2.9272613323148136e-02 -5.5229775728452524e-01 +5.4058947939725384e-03
-5.9999999999999998e-01 +8.5269900564744603e+00 +0.0000000000000000e+00 -5.9999999989013997e-01 -2.9272724046515868e-02 -5.5230236456500426e-01 +5.4066352467790572e-03
-6.5000000000000002e-01 +8.5269883301661995e+00 +0.0000000000000000e+00 -6.4999999986032297e-01 -2.9272853684007213e-02 -5.5230730914975157e-01 +5.4073833507820570e-03
-6.9999999999999996e-01 +8.5269864657566394e+00 +0.0000000000000000e+00 -6.9999999982554695e-01 -2.9273002136247613e-02 -5.5231259030489810e-01 +5.4081389945383552e-03
-7.5000000000000000e-01 +8.5269844632421208e+00 +0.0000000000000000e+00 -7.4999999978543097e-01 -2.9273169303865785e-02 -5.5231820729664216e-01 +5.4089020666054548e-03
-8.0000000000000004e-01 +8.5269823226226400e+00 +0.0000000000000000e+00 -7.9999999973959202e-01 -2.9273355087489634e-02 -5.5232415939117097e-01 +5.4096724555407465e-03
-8.4999999999999998e-01 +8.5269800438982202e+00 +0.0000000000000000e+00 -8.4999999968765005e-01 -2.9273559387747571e-02 -5.5233044585468605e-01 +5.4104500499017319e-03
-9.0000000000000002e-01 +8.5269776270688507e+00 +0.0000000000000000e+00 -8.9999999962922395e-01 -2.9273782105268629e-02 -5.5233706595340448e-01 +5.4112347382460476e-03
-9.4999999999999996e-01 +8.5269750721381605e+00 +0.0000000000000000e+00 -9.4999999956393100e-01 -2.9274023140681067e-02 -5.5234401895353169e-01 +5.4120264091311737e-03
-1.0000000000000000e+00 +8.5269723790988792e+00 +0.0000000000000000e+00 -9.9999999949139096e-01 -2.9274282394617813e-02 -5.5235130412136646e-01 +5.4128249511154625e-03
-1.0500000000000000e+00 +8.5269695479546499e+00 +0.0000000000000000e+00 -1.0499999994112199e+00 -2.9274559767708323e-02 -5.5235892072314330e-01 +5.4136302527565665e-03
-1.1000000000000001e+00 +8.5269665787091107e+00 +0.0000000000000000e+00 -1.0999999993230400e+00 -2.9274855160582716e-02 -5.5236686802511192e-01 +5.4144422026122067e-03
-1.1499999999999999e+00 +8.5269634713586093e+00 +0.0000000000000000e+00 -1.1499999992264700e+00 -2.9275168473874444e-02 -5.5237514529358800e-01 +5.4152606892406826e-03
-1.2000000000000000e+00 +8.5269602259031707e+00 +0.0000000000000000e+00 -1.1999999991211201e+00 -2.9275499608216297e-02 -5.5238375179487720e-01 +5.4160856012000777e-03
-1.2500000000000000e+00 +8.5269568423427700e+00 +0.0000000000000000e+00 -1.2499999990066200e+00 -2.9275848464241718e-02 -5.5239268679529763e-01 +5.4169168270485086e-03
-1.3000000000000000e+00 +8.5269533206774195e+00 +0.0000000000000000e+00 -1.2999999988825901e+00 -2.9276214942584877e-02 -5.5240194956118360e-01 +5.4177542553441108e-03
-1.3500000000000001e+00 +8.5269496609071194e+00 +0.0000000000000000e+00 -1.3499999987486300e+00 -2.9276598943880617e-02 -5.5241153935888254e-01 +5.4185977746450294e-03
-1.3999999999999999e+00 +8.5269458630355093e+00 +0.0000000000000000e+00 -1.3999999986043801e+00 -2.9277000368763146e-02 -5.5242145545472976e-01 +5.4194472735091398e-03
-1.4500000000000000e+00 +8.5269419270553009e+00 +0.0000000000000000e+00 -1.4499999984494401e+00 -2.9277419117871538e-02 -5.5243169711515472e-01 +5.4203026404950868e-03
-1.5000000000000000e+00 +8.5269378529737896e+00 +0.0000000000000000e+00 -1.4999999982834400e+00 -2.9277855091840117e-02 -5.5244226360649418e-01 +5.4211637641604377e-03
-1.5500000000000000e+00 +8.5269336407873197e+00 +0.0000000000000000e+00 -1.5499999981060000e+00 -2.9278308191308101e-02 -5.5245315419517982e-01 +5.4220305330635096e-03
-1.6000000000000001e+00 +8.5269292904959002e+00 +0.0000000000000000e+00 -1.5999999979167401e+00 -2.9278778316914125e-02 -5.5246436814762934e-01 +5.4229028357622965e-03
-1.6499999999999999e+00 +8.5269248020995292e+00 +0.0000000000000000e+00 -1.6499999977152600e+00 -2.9279265369297605e-02 -5.5247590473027519e-01 +5.4237805608147302e-03
-1.7000000000000000e+00 +8.5269201755982102e+00 +0.0000000000000000e+00 -1.6999999975011999e+00 -2.9279769249098794e-02 -5.5248776320956405e-01 +5.4246635967786627e-03
-1.7500000000000000e+00 +8.5269154109919292e+00 +0.0000000000000000e+00 -1.7499999972741700e+00 -2.9280289856958776e-02 -5.5249994285195547e-01 +5.4255518322118548e-03
-1.8000000000000000e+00 +8.5269105082843506e+00 +0.0000000000000000e+00 -1.7999999970337901e+00 -2.9280827093518060e-02 -5.5251244292389645e-01 +5.4264451556717032e-03
-1.8500000000000001e+00 +8.5269054674718099e+00 +0.0000000000000000e+00 -1.8499999967796801e+00 -2.9281380859420870e-02 -5.5252526269190161e-01 +5.4273434557160173e-03
-1.8999999999999999e+00 +8.5269002885506797e+00 +0.0000000000000000e+00 -1.8999999965114500e+00 -2.9281951055312151e-02 -5.5253840142249833e-01 +5.4282466209024677e-03
-1.9500000000000000e+00 +8.5268949715282396e+00 +0.0000000000000000e+00 -1.9499999962287300e+00 -2.9282537581833756e-02 -5.5255185838214804e-01 +5.4291545397878154e-03
-2.0000000000000000e+00 +8.5268895164008391e+00 +0.0000000000000000e+00 -1.9999999959311201e+00 -2.9283140339632491e-02 -5.5256563283740590e-01 +5.4300671009294352e-03
-2.0499999999999998e+00 +8.5268839230666291e+00 +0.0000000000000000e+00 -2.0499999956182600e+00 -2.9283759239822692e-02 -5.5257972386620180e-01 +5.4309842060626754e-03
-2.1000000000000001e+00 +8.5268781914164702e+00 +0.0000000000000000e+00 -2.0999999952897199e+00 -2.9284394235241182e-02 -5.5259412978912359e-01 +5.4319058096076464e-03
-2.1499999999999999e+00 +8.5268723214576294e+00 +0.0000000000000000e+00 -2.1499999949451398e+00 -2.9285045289111428e-02 -5.5260884873657057e-01 +5.4328318791473590e-03
-2.2000000000000002e+00 +8.5268663131864706e+00 +0.0000000000000000e+00 -2.1999999945841302e+00 -2.9285712364661490e-02 -5.5262387883903186e-01 +5.4337623822658006e-03
-2.2500000000000000e+00 +8.5268601666030008e+00 +0.0000000000000000e+00 -2.2499999942063100e+00 -2.9286395425118589e-02 -5.5263921822698026e-01 +5.4346972865469021e-03
-2.2999999999999998e+00 +8.5268538817035697e+00 +0.0000000000000000e+00 -2.2999999938113000e+00 -2.9287094433711861e-02 -5.5265486503092576e-01 +5.4356365595750866e-03
-2.3500000000000001e+00 +8.5268474584954692e+00 +0.0000000000000000e+00 -2.3499999933987001e+00 -2.9287809353666816e-02 -5.5267081738130808e-01 +5.4365801689342085e-03
-2.3999999999999999e+00 +8.5268408969750507e+00 +0.0000000000000000e+00 -2.3999999929681501e+00 -2.9288540148213547e-02 -5.5268707340865653e-01 +5.4375280822091549e-03
-2.4500000000000002e+00 +8.5268341971459396e+00 +0.0000000000000000e+00 -2.4499999925192602e+00 -2.9289286780579949e-02 -5.5270363124345734e-01 +5.4384802669845403e-03
-2.5000000000000000e+00 +8.5268273590008903e+00 +0.0000000000000000e+00 -2.4999999920516398e+00 -2.9290049213998456e-02 -5.5272048901628434e-01 +5.4394366908460112e-03
-2.5499999999999998e+00 +8.5268203825435194e+00 +0.0000000000000000e+00 -2.5499999915649201e+00 -2.9290827411697872e-02 -5.5273764485764176e-01 +5.4403973213787114e-03
-2.6000000000000001e+00 +8.5268132677774702e+00 +0.0000000000000000e+00 -2.5999999910586999e+00 -2.9291621336907499e-02 -5.5275509689804259e-01 +5.4413621261680542e-03
-2.6499999999999999e+00 +8.5268060146954703e+00 +0.0000000000000000e+00 -2.6499999905326099e+00 -2.9292430952861132e-02 -5.5277284326808784e-01 +5.4423310728005346e-03
-2.7000000000000002e+00 +8.5267986233047797e+00 +0.0000000000000000e+00 -2.6999999899862699e+00 -2.9293256222787573e-02 -5.5279088209828064e-01 +5.4433041288618937e-03
-2.7500000000000000e+00 +8.5267910936017905e+00 +0.0000000000000000e+00 -2.7499999894192899e+00 -2.9294097109920175e-02 -5.5280921151921214e-01 +5.4442812619389692e-03
-2.7999999999999998e+00 +8.5267834255828294e+00 +0.0000000000000000e+00 -2.7999999888312899e+00 -2.9294953577492698e-02 -5.5282782966148192e-01 +5.4452624396189187e-03
-2.8500000000000001e+00 +8.5267756192552007e+00 +0.0000000000000000e+00 -2.8499999882218900e+00 -2.9295825588735176e-02 -5.5284673465561651e-01 +5.4462476294884375e-03
-2.8999999999999999e+00 +8.5267676746152592e+00 +0.0000000000000000e+00 -2.8999999875907001e+00 -2.9296713106882220e-02 -5.5286592463223039e-01 +5.4472367991353510e-03
-2.9500000000000002e+00 +8.5267595916629908e+00 +0.0000000000000000e+00 -2.9499999869373399e+00 -2.9297616095167428e-02 -5.5288539772191914e-01 +5.4482299161475733e-03
-3.0000000000000000e+00 +8.5267513703984203e+00 +0.0000000000000000e+00 -2.9999999862614302e+00 -2.9298534516824785e-02 -5.5290515205528490e-01 +5.4492269481133688e-03
-3.0499999999999998e+00 +8.5267430108251592e+00 +0.0000000000000000e+00 -3.0499999855625899e+00 -2.9299468335087311e-02 -5.5292518576291028e-01 +5.4502278626211154e-03
-3.1000000000000001e+00 +8.5267345129359509e+00 +0.0000000000000000e+00 -3.0999999848404300e+00 -2.9300417513192463e-02 -5.5294549697546425e-01 +5.4512326272603533e-03
-3.1499999999999999e+00 +8.5267258767344192e+00 +0.0000000000000000e+00 -3.1499999840945798e+00 -2.9301382014373996e-02 -5.5296608382354273e-01 +5.4522412096202266e-03
-3.2000000000000002e+00 +8.5267171022205694e+00 +0.0000000000000000e+00 -3.1999999833246400e+00 -2.9302361801867349e-02 -5.5298694443777463e-01 +5.4532535772905356e-03
-3.2500000000000000e+00 +8.5267081893980503e+00 +0.0000000000000000e+00 -3.2499999825302401e+00 -2.9303356838906967e-02 -5.5300807694876764e-01 +5.4542696978612344e-03
-3.2999999999999998e+00 +8.5266991382632096e+00 +0.0000000000000000e+00 -3.2999999817109900e+00 -2.9304367088730326e-02 -5.5302947948718917e-01 +5.4552895389232102e-03
-3.3500000000000001e+00 +8.5266899488124199e+00 +0.0000000000000000e+00 -3.3499999808665200e+00 -2.9305392514575260e-02 -5.5305115018371187e-01 +5.4563130680677901e-03
-3.3999999999999999e+00 +8.5266806210529502e+00 +0.0000000000000000e+00 -3.3999999799964300e+00 -2.9306433079675807e-02 -5.5307308716893411e-01 +5.4573402528859428e-03
-3.4500000000000002e+00 +8.5266711549811607e+00 +0.0000000000000000e+00 -3.4499999791003502e+00 -2.9307488747270405e-02 -5.5309528857353951e-01 +5.4583710609698785e-03
-3.5000000000000000e+00 +8.5266615505970496e+00 +0.0000000000000000e+00 -3.4999999781778901e+00 -2.9308559480596418e-02 -5.5311775252818940e-01 +5.4594054599119996e-03
-3.5499999999999998e+00 +8.5266518079006293e+00 +0.0000000000000000e+00 -3.5499999772286701e+00 -2.9309645242891515e-02 -5.5314047716355030e-01 +5.4604434173051797e-03
-3.6000000000000001e+00 +8.5266419268882601e+00 +0.0000000000000000e+00 -3.5999999762523198e+00 -2.9310745997394996e-02 -5.5316346061032051e-01 +5.4614849007430305e-03
-3.6499999999999999e+00 +8.5266319075708505e+00 +0.0000000000000000e+00 -3.6499999752484298e+00 -2.9311861707340962e-02 -5.5318670099909484e-01 +5.4625298778186006e-03
-3.6999999999999900e+00 +8.5266217499374797e+00 +0.0000000000000000e+00 -3.6999999742166398e+00 -2.9312992335972010e-02 -5.5321019646063307e-01 +5.4635783161270171e-03
-3.7499999999999898e+00 +8.5266114539917908e+00 +0.0000000000000000e+00 -3.7499999731565601e+00 -2.9314137846525472e-02 -5.5323394512559210e-01 +5.4646301832628639e-03
-3.7999999999999901e+00 +8.5266010197374307e+00 +0.0000000000000000e+00 -3.7999999720678099e+00 -2.9315298202238951e-02 -5.5325794512463211e-01 +5.4656854468212368e-03
-3.8499999999999899e+00 +8.5265904471671092e+00 +0.0000000000000000e+00 -3.8499999709499999e+00 -2.9316473366354377e-02 -5.5328219458849737e-01 +5.4667440743985558e-03
-3.8999999999999901e+00 +8.5265797362881095e+00 +0.0000000000000000e+00 -3.8999999698027499e+00 -2.9317663302108454e-02 -5.5330669164782820e-01 +5.4678060335907235e-03
-3.9499999999999900e+00 +8.5265688870931609e+00 +0.0000000000000000e+00 -3.9499999686256899e+00 -2.9318867972743540e-02 -5.5333143443337474e-01 +5.4688712919952398e-03
-3.9999999999999898e+00 +8.5265578995895304e+00 +0.0000000000000000e+00 -3.9999999674184199e+00 -2.9320087341496753e-02 -5.5335642107578387e-01 +5.4699398172091138e-03
-4.0499999999999901e+00 +8.5265467737735907e+00 +0.0000000000000000e+00 -4.0499999661805601e+00 -2.9321321342544615e-02 -5.5338164959342573e-01 +5.4710115649449784e-03
-4.0999999999999899e+00 +8.5265355096416897e+00 +0.0000000000000000e+00 -4.0999999649117402e+00 -2.9322569793804140e-02 -5.5340711755523708e-01 +5.4720864433727614e-03
-4.1499999999999897e+00 +8.5265241072047502e+00 +0.0000000000000000e+00 -4.1499999636115703e+00 -2.9323832484122063e-02 -5.5343282241768965e-01 +5.4731643487754235e-03
-4.1999999999999904e+00 +8.5265125664518600e+00 +0.0000000000000000e+00 -4.1999999622796604e+00 -2.9325109202353598e-02 -5.5345876163741725e-01 +5.4742451774373192e-03
-4.2499999999999902e+00 +8.5265008873866499e+00 +0.0000000000000000e+00 -4.2499999609156403e+00 -2.9326399737348633e-02 -5.5348493267094756e-01 +5.4753288256415263e-03
-4.2999999999999901e+00 +8.5264890700091200e+00 +0.0000000000000000e+00 -4.2999999595191198e+00 -2.9327703877958664e-02 -5.5351133297483524e-01 +5.4764151896711574e-03
-4.3499999999999899e+00 +8.5264771143192792e+00 +0.0000000000000000e+00 -4.3499999580897200e+00 -2.9329021413035391e-02 -5.5353796000563582e-01 +5.4775041658090889e-03
-4.3999999999999897e+00 +8.5264650203207601e+00 +0.0000000000000000e+00 -4.3999999566270596e+00 -2.9330352131429305e-02 -5.5356481121987811e-01 +5.4785956503376710e-03
-4.4499999999999904e+00 +8.5264527880062797e+00 +0.0000000000000000e+00 -4.4499999551307496e+00 -2.9331695821995213e-02 -5.5359188407417104e-01 +5.4796895395397898e-03
-4.4999999999999902e+00 +8.5264404173794901e+00 +0.0000000000000000e+00 -4.4999999536004101e+00 -2.9333052273583959e-02 -5.5361917602504362e-01 +5.4807857296972464e-03
-4.5499999999999901e+00 +8.5264279084440204e+00 +0.0000000000000000e+00 -4.5499999520356598e+00 -2.9334421275046572e-02 -5.5364668452902366e-01 +5.4818841170915485e-03
-4.5999999999999899e+00 +8.5264152611962292e+00 +0.0000000000000000e+00 -4.5999999504361098e+00 -2.9335802615236974e-02 -5.5367440704269144e-01 +5.4829845980044270e-03
-4.6499999999999897e+00 +8.5264024756361305e+00 +0.0000000000000000e+00 -4.6499999488013897e+00 -2.9337196083007857e-02 -5.5370234102260041e-01 +5.4840870687170220e-03
-4.6999999999999904e+00 +8.5263895517600794e+00 +0.0000000000000000e+00 -4.6999999471311096e+00 -2.9338601467213433e-02 -5.5373048392532909e-01 +5.4851914255104111e-03
-4.7499999999999902e+00 +8.5263764895753393e+00 +0.0000000000000000e+00 -4.7499999454248902e+00 -2.9340018556703946e-02 -5.5375883320737385e-01 +5.4862975646645089e-03
-4.7999999999999901e+00 +8.5263632890782901e+00 +0.0000000000000000e+00 -4.7999999436823400e+00 -2.9341447140333852e-02 -5.5378738632531033e-01 +5.4874053824596836e-03
-4.8499999999999899e+00 +8.5263499502725608e+00 +0.0000000000000000e+00 -4.8499999419030901e+00 -2.9342887006955008e-02 -5.5381614073565855e-01 +5.4885147751753812e-03
-4.8999999999999897e+00 +8.5263364731472393e+00 +0.0000000000000000e+00 -4.8999999400867402e+00 -2.9344337945424875e-02 -5.5384509389504311e-01 +5.4896256390917280e-03
-4.9499999999999904e+00 +8.5263228577168793e+00 +0.0000000000000000e+00 -4.9499999382329296e+00 -2.9345799744591377e-02 -5.5387424325989898e-01 +5.4907378704865820e-03
-4.9999999999999902e+00 +8.5263091039705596e+00 +0.0000000000000000e+00 -4.9999999363412497e+00 -2.9347272193312176e-02 -5.5390358628684577e-01 +5.4918513656392479e-03
-5.0499999999999901e+00 +8.5262952115954196e+00 +0.0000000000000000e+00 -5.0499999344112600e+00 -2.9348755080559299e-02 -5.5393312043471787e-01 +5.4929660208508013e-03
-5.0999999999999899e+00 +8.5262811802713294e+00 +0.0000000000000000e+00 -5.0999999324424596e+00 -2.9350248195307682e-02 -5.5396284316240252e-01 +5.4940817324224608e-03
-5.1499999999999897e+00 +8.5262670100019005e+00 +0.0000000000000000e+00 -5.1499999304344799e+00 -2.9351751326409867e-02 -5.5399275192640518e-01 +5.4951983966311947e-03
-5.1999999999999904e+00 +8.5262527007798798e+00 +0.0000000000000000e+00 -5.1999999283869203e+00 -2.9353264262722552e-02 -5.5402284418330894e-01 +5.4963159097543117e-03
-5.2499999999999902e+00 +8.5262382526088896e+00 +0.0000000000000000e+00 -5.2499999262994104e+00 -2.9354786793098428e-02 -5.5405311738961194e-01 +5.4974341680678277e-03
-5.2999999999999901e+00 +8.5262236654925800e+00 +0.0000000000000000e+00 -5.2999999241715603e+00 -2.9356318706390189e-02 -5.5408356900180966e-01 +5.4985530678472640e-03
-5.3499999999999899e+00 +8.5262089394273097e+00 +0.0000000000000000e+00 -5.3499999220029704e+00 -2.9357859791453340e-02 -5.5411419647644489e-01 +5.4996725053681568e-03
-5.3999999999999897e+00 +8.5261940744130698e+00 +0.0000000000000000e+00 -5.3999999197932702e+00 -2.9359409837142057e-02 -5.5414499727003086e-01 +5.5007923769052631e-03
-5.4499999999999904e+00 +8.5261790704498708e+00 +0.0000000000000000e+00 -5.4499999175420601e+00 -2.9360968632310528e-02 -5.5417596883907461e-01 +5.5019125787327920e-03
-5.4999999999999902e+00 +8.5261639275377092e+00 +0.0000000000000000e+00 -5.4999999152489698e+00 -2.9362535965812977e-02 -5.5420710864007938e-01 +5.5030330071244010e-03
-5.5499999999999901e+00 +8.5261486456802196e+00 +0.0000000000000000e+00 -5.5499999129136004e+00 -2.9364111626502258e-02 -5.5423841412951524e-01 +5.5041535583529103e-03
-5.5999999999999899e+00 +8.5261332248737691e+00 +0.0000000000000000e+00 -5.5999999105355700e+00 -2.9365695403233978e-02 -5.5426988276390077e-01 +5.5052741286910995e-03
-5.6499999999999897e+00 +8.5261176651147306e+00 +0.0000000000000000e+00 -5.6499999081144896e+00 -2.9367287084863757e-02 -5.5430151199974920e-01 +5.5063946144111595e-03
-5.6999999999999904e+00 +8.5261019664103497e+00 +0.0000000000000000e+00 -5.6999999056499897e+00 -2.9368886460243066e-02 -5.5433329929348696e-01 +5.5075149117838652e-03
-5.7499999999999902e+00 +8.5260861287570204e+00 +0.0000000000000000e+00 -5.7499999031416600e+00 -2.9370493318227484e-02 -5.5436524210161475e-01 +5.5086349170801732e-03
-5.7999999999999901e+00 +8.5260701521547198e+00 +0.0000000000000000e+00 -5.7999999005891203e+00 -2.9372107447671204e-02 -5.5439733788059975e-01 +5.5097545265701377e-03
-5.8499999999999899e+00 +8.5260540366070892e+00 +0.0000000000000000e+00 -5.8499998979920003e+00 -2.9373728637427009e-02 -5.5442958408687637e-01 +5.5108736365229016e-03
