# multipoles
# s[mm] polynom_b[n=0][T/m^n] polynom_b[n=1][T/m^n] polynom_b[n=2][T/m^n] polynom_b[n=3][T/m^n] polynom_b[n=4][T/m^n] polynom_b[n=5][T/m^n] polynom_b[n=6][T/m^n] 
+0.0000000000000000e+00 -5.4948032293200844e-01 +7.1890195028712158e+00 +7.1809304699004475e+00 +6.8834069846250458e+01 -2.2632673758364868e+04 -7.6295987169007340e+05 +1.2656903781367728e+08 
+5.0000000000000003e-02 -5.4947881586461567e-01 +7.1890237239753887e+00 +7.1798343542164114e+00 +6.8807064081681958e+01 -2.2626170632988989e+04 -7.6321220291547535e+05 +1.2657804746975277e+08 
+1.0000000000000001e-01 -5.4947771067068207e-01 +7.1890507163707884e+00 +7.1780737745672649e+00 +6.8757285107598605e+01 -2.2615897583598566e+04 -7.6330067487706279e+05 +1.2656409039229108e+08 
+1.5000000000000002e-01 -5.4947700656077758e-01 +7.1891003694314772e+00 +7.1756554635059144e+00 +6.8686048997278220e+01 -2.2601932105005930e+04 -7.6323279580782086e+05 +1.2652754248992768e+08 
+2.0000000000000001e-01 -5.4947670274547422e-01 +7.1891725725324562e+00 +7.1725861498537213e+00 +6.8594671827878145e+01 -2.2584351585235570e+04 -7.6301607404002233e+05 +1.2646877892944190e+08 
+2.5000000000000000e-01 -5.4947679843536534e-01 +7.1892672150479653e+00 +7.1688725635541948e+00 +6.8484469727208563e+01 -2.2563233446910741e+04 -7.6265801825884636e+05 +1.2638817512370998e+08 
+2.9999999999999999e-01 -5.4947729284107694e-01 +7.1893841863544132e+00 +7.1645214363408707e+00 +6.8356758779492552e+01 -2.2538655156763045e+04 -7.6216613685650134e+05 +1.2628610677030338e+08 
+3.4999999999999998e-01 -5.4947818517322555e-01 +7.1895233758283572e+00 +7.1595394954807796e+00 +6.8212855083163475e+01 -2.2510694062544404e+04 -7.6154793831278640e+05 +1.2616294876519391e+08 
+3.9999999999999997e-01 -5.4947947464248104e-01 +7.1896846728487054e+00 +7.1539334741004694e+00 +6.8054074670048863e+01 -2.2479427668154003e+04 -7.6081093053623778e+05 +1.2601907705106752e+08 
+4.4999999999999996e-01 -5.4948116045950168e-01 +7.1898679667947807e+00 +7.1477100999379690e+00 +6.7881733580065543e+01 -2.2444933331775177e+04 -7.5996262149821618e+05 +1.2585486658610791e+08 
+4.9999999999999994e-01 -5.4948324183498265e-01 +7.1900731470431500e+00 +7.1408761044527127e+00 +6.7697148007558724e+01 -2.2407288514374810e+04 -7.5901052048413269e+05 +1.2567069302782640e+08 
+5.4999999999999993e-01 -5.4948571797963208e-01 +7.1903001029779032e+00 +7.1334382178625120e+00 +6.7501633850099765e+01 -2.2366570641549093e+04 -7.5796213426622283e+05 +1.2546693178886123e+08 
+5.9999999999999998e-01 -5.4948858810417534e-01 +7.1905487239780506e+00 +7.1254031702895819e+00 +6.7296507250623321e+01 -2.2322857135562655e+04 -7.5682497166483954e+05 +1.2524395825414251e+08 
+6.5000000000000002e-01 -5.4949185141935963e-01 +7.1908188994251780e+00 +7.1167776925413007e+00 +6.7083084278312541e+01 -2.2276225438650647e+04 -7.5560654090225173e+05 +1.2500214794867060e+08 
+7.0000000000000007e-01 -5.4949550713594164e-01 +7.1911105187039901e+00 +7.1075685137694773e+00 +6.6862680892356877e+01 -2.2226752945927656e+04 -7.5431434925454634e+05 +1.2474187606900576e+08 
+7.5000000000000011e-01 -5.4949955446469678e-01 +7.1914234711969733e+00 +7.0977823637510582e+00 +6.6636613171124026e+01 -2.2174517073533778e+04 -7.5295590497990046e+05 +1.2446351796669908e+08 
+8.0000000000000016e-01 -5.4950399261643101e-01 +7.1917576462886181e+00 +7.0874259740983376e+00 +6.6406197138477296e+01 -2.2119595284427593e+04 -7.5153871587270731e+05 +1.2416744929982466e+08 
+8.5000000000000020e-01 -5.4950882080196217e-01 +7.1921129333627567e+00 +7.0765060753454945e+00 +6.6172748881812026e+01 -2.2062065009617199e+04 -7.5007029029161797e+05 +1.2385404549612428e+08 
+9.0000000000000024e-01 -5.4951403823209943e-01 +7.1924892218069996e+00 +7.0650293946268130e+00 +6.5937584336271897e+01 -2.2002003602941197e+04 -7.4855813523319794e+05 +1.2352368151860318e+08 
+9.5000000000000029e-01 -5.4951964411772369e-01 +7.1928864010066169e+00 +7.0530026669146677e+00 +6.5702019583213584e+01 -2.1939488610819077e+04 -7.4700975899739261e+05 +1.2317673355552773e+08 
+1.0000000000000002e+00 -5.4952563766966922e-01 +7.1933043603485221e+00 +7.0404326171203033e+00 +6.5467370646623223e+01 -2.1874597323283047e+04 -7.4543266932810203e+05 +1.2281357612264210e+08 
+1.0500000000000003e+00 -5.4953201809883923e-01 +7.1937429892210414e+00 +7.0273259789956768e+00 +6.5234953523188310e+01 -2.1807407262441728e+04 -7.4383437375637132e+05 +1.2243458527151844e+08 
+1.1000000000000003e+00 -5.4953878461612427e-01 +7.1942021770109159e+00 +7.0136894810396120e+00 +6.5006084293477599e+01 -2.1737995813011810e+04 -7.4222238048241008e+05 +1.2204013614631367e+08 
+1.1500000000000004e+00 -5.4954593643243899e-01 +7.1946818131074490e+00 +6.9995298530301788e+00 +6.4782078968324541e+01 -2.1666440391265493e+04 -7.4060419715134334e+05 +1.2163060408718729e+08 
+1.2000000000000004e+00 -5.4955347275870858e-01 +7.1951817869030492e+00 +6.9848538239517035e+00 +6.4564253439559323e+01 -2.1592818399682739e+04 -7.3898733035418950e+05 +1.2120636437268151e+08 
+1.2500000000000004e+00 -5.4956139280589555e-01 +7.1957019877850232e+00 +6.9696681261046951e+00 +6.4353923844335498e+01 -2.1517207324431194e+04 -7.3737928874664172e+05 +1.2076779281869565e+08 
+1.3000000000000005e+00 -5.4956969578494386e-01 +7.1962423051443070e+00 +6.9539794858376656e+00 +6.4152406189608726e+01 -2.1439684495365891e+04 -7.3578757987370703e+05 +1.2031526420190419e+08 
+1.3500000000000005e+00 -5.4957838090684952e-01 +7.1968026283712669e+00 +6.9377946356939866e+00 +6.3961016531841508e+01 -2.1360327411745813e+04 -7.3421971168090589e+05 +1.1984915445138800e+08 
+1.4000000000000006e+00 -5.4958744738260057e-01 +7.1973828468604362e+00 +6.9211203040084905e+00 +6.3781070771029562e+01 -2.1279213457672118e+04 -7.3268319079062424e+05 +1.1936983870792826e+08 
+1.4500000000000006e+00 -5.4959689442320458e-01 +7.1979828500009200e+00 +6.9039632196671317e+00 +6.3613885057656049e+01 -2.1196420034753148e+04 -7.3118552588448639e+05 +1.1887769223883238e+08 
+1.5000000000000007e+00 -5.4960672123968635e-01 +7.1986025271876306e+00 +6.8863301118984692e+00 +6.3460775326112859e+01 -2.1112024555955508e+04 -7.2973422384442156e+05 +1.1837309039579546e+08 
+1.5500000000000007e+00 -5.4961692704308918e-01 +7.1992417678126310e+00 +6.8682277105079104e+00 +6.3323057652160493e+01 -2.1026104452142739e+04 -7.2833679272955994e+05 +1.1785640865718925e+08 
+1.6000000000000008e+00 -5.4962751104446339e-01 +7.1999004612716417e+00 +6.8496627434065260e+00 +6.3202047967368401e+01 -2.0938737102801642e+04 -7.2700073931135470e+05 +1.1732802215256386e+08 
+1.6500000000000008e+00 -5.4963847245488640e-01 +7.2005784969553241e+00 +6.8306419410149060e+00 +6.3099062458594148e+01 -2.0849999958566586e+04 -7.2573357256489131e+05 +1.1678830650148268e+08 
+1.7000000000000008e+00 -5.4964981048542971e-01 +7.2012757642619807e+00 +6.8111720294674978e+00 +6.3015416990838077e+01 -2.0759970353731773e+04 -7.2454279867546447e+05 +1.1623763653466399e+08 
+1.7500000000000009e+00 -5.4966152434721083e-01 +7.2019921525847739e+00 +6.7912597407677788e+00 +6.2952427679441108e+01 -2.0668725785442599e+04 -7.2343592594803288e+05 +1.1567638819481064e+08 
+1.8000000000000009e+00 -5.4967361325132436e-01 +7.2027275513170563e+00 +6.7709118000115476e+00 +6.2911410645903572e+01 -2.0576343566514435e+04 -7.2242046269659605e+05 +1.1510493618900555e+08 
+1.8500000000000010e+00 -5.4968607640891953e-01 +7.2034818498590774e+00 +6.7501349391620726e+00 +6.2893681746175758e+01 -2.0482901194730537e+04 -7.2150391501507780e+05 +1.1452365646790814e+08 
+1.9000000000000010e+00 -5.4969891303111229e-01 +7.2042549376032250e+00 +6.7289358820317400e+00 +6.2900557180643865e+01 -2.0388475953590969e+04 -7.2069379182254430e+05 +1.1393292355293670e+08 
+1.9500000000000011e+00 -5.4971212232907907e-01 +7.2050467039479642e+00 +6.7073213601131103e+00 +6.2933352919456965e+01 -2.0293145333353939e+04 -7.1999760012428835e+05 +1.1333311336132628e+08 
+2.0000000000000009e+00 -5.4972570351397332e-01 +7.2058570382893006e+00 +6.6852980982858066e+00 +6.2993385049005433e+01 -2.0196986648162871e+04 -7.1942284784440114e+05 +1.1272460062502645e+08 
+2.0500000000000007e+00 -5.4973965557412652e-01 +7.2066858276346482e+00 +6.6628724715351515e+00 +6.3081622733592333e+01 -2.0100065909770514e+04 -7.1897524167288328e+05 +1.1210771269592601e+08 
+2.1000000000000005e+00 -5.4975397660654202e-01 +7.2075329436678519e+00 +6.6400495401296844e+00 +6.3197645374754437e+01 -2.0002394830112094e+04 -7.1865337694568292e+05 +1.1148254085077469e+08 
+2.1500000000000004e+00 -5.4976866448543660e-01 +7.2083982528117607e+00 +6.6168340731745410e+00 +6.3340683476798539e+01 -1.9903969453865968e+04 -7.1845409537981509e+05 +1.1084910711430132e+08 
+2.2000000000000002e+00 -5.4978371708505647e-01 +7.2092816214847613e+00 +6.5932308428993043e+00 +6.3509967735938211e+01 -1.9804785913776344e+04 -7.1837424026958423e+05 +1.1020743412530282e+08 
+2.2500000000000000e+00 -5.4979913227962962e-01 +7.2101829161105222e+00 +6.5692446156426643e+00 +6.3704728642362596e+01 -1.9704840176991293e+04 -7.1841065320633794e+05 +1.0955754337674794e+08 
+2.2999999999999998e+00 -5.4981490794340748e-01 +7.2111020031088913e+00 +6.5448801602147393e+00 +6.3924196857000616e+01 -1.9604128285454590e+04 -7.1856017716649070e+05 +1.0889945690035883e+08 
+2.3499999999999996e+00 -5.4983104195066701e-01 +7.2120387489035380e+00 +6.5201422474029718e+00 +6.4167602907352475e+01 -1.9502646328666302e+04 -7.1881965407333104e+05 +1.0823319702678965e+08 
+2.3999999999999995e+00 -5.4984753217569327e-01 +7.2129930199147196e+00 +6.4950356477032134e+00 +6.4434177446444849e+01 -1.9400390391025150e+04 -7.1918592676346644e+05 +1.0755878605991757e+08 
+2.4499999999999993e+00 -5.4986437649277231e-01 +7.2139646825673927e+00 +6.4695651292056331e+00 +6.4723150978524345e+01 -1.9297356487395657e+04 -7.1965583697874600e+05 +1.0687624582022724e+08 
+2.4999999999999991e+00 -5.4988157277620020e-01 +7.2149536032828276e+00 +6.4437354602118946e+00 +6.5033754148474316e+01 -1.9193540644697612e+04 -7.2022622751530446e+05 +1.0618559823420319e+08 
+2.5499999999999989e+00 -5.4989911890030108e-01 +7.2159596484839685e+00 +6.4175514117411883e+00 +6.5365217548603525e+01 -1.9088938958592713e+04 -7.2089394075927569e+05 +1.0548686567423522e+08 
+2.5999999999999988e+00 -5.4991701273939086e-01 +7.2169826845949547e+00 +6.3910177514441937e+00 +6.5716771730848308e+01 -1.8983547431810592e+04 -7.2165581875288370e+05 +1.0478006987712291e+08 
+2.6499999999999986e+00 -5.4993525216782002e-01 +7.2180225780393039e+00 +6.3641392512774768e+00 +6.6087647279517114e+01 -1.8877362188670733e+04 -7.2250870378301980e+05 +1.0406523342477441e+08 
+2.6999999999999984e+00 -5.4995383505992335e-01 +7.2190791952428111e+00 +6.3369206783745291e+00 +6.6477074702092736e+01 -1.8770379218582257e+04 -7.2344943753148417e+05 +1.0334237796973406e+08 
+2.7499999999999982e+00 -5.4997275929006062e-01 +7.2201524026260993e+00 +6.3093668023105094e+00 +6.6884284726240281e+01 -1.8662594573755894e+04 -7.2447486349214625e+05 +1.0261152557584572e+08 
+2.7999999999999980e+00 -5.4999202273260095e-01 +7.2212420666166688e+00 +6.2814823930075097e+00 +6.7308507791956600e+01 -1.8554004323884528e+04 -7.2558182271388767e+05 +1.0187269846131541e+08 
+2.8499999999999979e+00 -5.5001162326192277e-01 +7.2223480536375053e+00 +6.2532722197695074e+00 +6.7748974543111927e+01 -1.8444604512958871e+04 -7.2676715798581811e+05 +1.0112591863348749e+08 
+2.8999999999999977e+00 -5.5003155875240939e-01 +7.2234702301135405e+00 +6.2247410510354495e+00 +6.8204915550908240e+01 -1.8334391162400789e+04 -7.2802771147701459e+05 +1.0037120795280741e+08 
+2.9499999999999975e+00 -5.5005182707846734e-01 +7.2246084624705365e+00 +6.1958936579864448e+00 +6.8675561353262722e+01 -1.8223360370993054e+04 -7.2936032506347285e+05 +9.9608588817467049e+07 
+2.9999999999999973e+00 -5.5007242611450058e-01 +7.2257626171332365e+00 +6.1667348094680046e+00 +6.9160142537569328e+01 -1.8111508171058736e+04 -7.3076184103411913e+05 +9.8838083164074242e+07 
+3.0499999999999972e+00 -5.5009335373491508e-01 +7.2269325605269197e+00 +6.1372692729753400e+00 +6.9657889675076376e+01 -1.7998830554568467e+04 -7.3222910153899214e+05 +9.8059712642172650e+07 
+3.0999999999999970e+00 -5.5011460781415877e-01 +7.2281181590770984e+00 +6.1075018219036483e+00 +7.0168033332989438e+01 -1.7885323677421929e+04 -7.3375894869589014e+05 +9.7273500032040551e+07 
+3.1499999999999968e+00 -5.5013618622664828e-01 +7.2293192792091263e+00 +6.0774372226218940e+00 +7.0689804091630762e+01 -1.7770983499285689e+04 -7.3534822473628726e+05 +9.6479466759117275e+07 
+3.1999999999999966e+00 -5.5015808684682999e-01 +7.2305357873498775e+00 +6.0470802452861641e+00 +7.1222432463751986e+01 -1.7655806087897745e+04 -7.3699377129350451e+05 +9.5677635009354636e+07 
+3.2499999999999964e+00 -5.5018030754916092e-01 +7.2317675499233571e+00 +6.0164356599374784e+00 +7.1765149084294052e+01 -1.7539787496780409e+04 -7.3869243101561524e+05 +9.4868026827365682e+07 
+3.2999999999999963e+00 -5.5020284620810556e-01 +7.2330144333579369e+00 +5.9855082372012820e+00 +7.2317184422480224e+01 -1.7422923803903002e+04 -7.4044104521896713e+05 +9.4050664460955039e+07 
+3.3499999999999961e+00 -5.5022570069812693e-01 +7.2342763040778522e+00 +5.9543027460050091e+00 +7.2877769106221763e+01 -1.7305211037637328e+04 -7.4223645647679700e+05 +9.3225569808239952e+07 
+3.3999999999999959e+00 -5.5024886889370339e-01 +7.2355530285095764e+00 +5.9228239554632003e+00 +7.3446133683551210e+01 -1.7186645221438517e+04 -7.4407550674197357e+05 +9.2392764701258808e+07 
+3.4499999999999957e+00 -5.5027234866932240e-01 +7.2368444730789818e+00 +5.8910766364725671e+00 +7.4021508720749551e+01 -1.7067222438626035e+04 -7.4595503808884812e+05 +9.1552271421417832e+07 
+3.4999999999999956e+00 -5.5029613789948306e-01 +7.2381505042144587e+00 +5.8590655597898236e+00 +7.4603124681095892e+01 -1.6946938758116987e+04 -7.4787189173615724e+05 +9.0704112114654943e+07 
+3.5499999999999954e+00 -5.5032023445867218e-01 +7.2394709883397432e+00 +5.8267954927732299e+00 +7.5190212227764192e+01 -1.6825790157824296e+04 -7.4982291058413452e+05 +8.9848308318956837e+07 
+3.5999999999999952e+00 -5.5034463622140761e-01 +7.2408057918836057e+00 +5.7942712075742966e+00 +7.5782001802870226e+01 -1.6703772746833634e+04 -7.5180493565763545e+05 +8.8984882466094747e+07 
+3.6499999999999950e+00 -5.5036934106220381e-01 +7.2421547812690372e+00 +5.7614974738644538e+00 +7.6377724095877326e+01 -1.6580882561167440e+04 -7.5381481006106711e+05 +8.8113856475910157e+07 
+3.6999999999999948e+00 -5.5039434685558664e-01 +7.2435178229257016e+00 +5.7284790627822328e+00 +7.6976609515513971e+01 -1.6457115677563481e+04 -7.5584937456842011e+05 +8.7235252547669217e+07 
+3.7499999999999947e+00 -5.5041965147606875e-01 +7.2448947832790012e+00 +5.6952207412076383e+00 +7.7577888648235614e+01 -1.6332468051400194e+04 -7.5790547143097012e+05 +8.6349092040750384e+07 
+3.7999999999999945e+00 -5.5044525279820500e-01 +7.2462855287553429e+00 +5.6617272832372318e+00 +7.8180792030049602e+01 -1.6206935838157189e+04 -7.5997994246265024e+05 +8.5455397690106124e+07 
+3.8499999999999943e+00 -5.5047114869653690e-01 +7.2476899257801284e+00 +5.6280034594577781e+00 +7.8784550237350359e+01 -1.6080515094175284e+04 -7.6206962981551338e+05 +8.4554191545442030e+07 
+3.8999999999999941e+00 -5.5049733704560078e-01 +7.2491078407812282e+00 +5.5940540376454324e+00 +7.9388393741481735e+01 -1.5953201792842483e+04 -7.6417137478105060e+05 +8.3645495074403033e+07 
+3.9499999999999940e+00 -5.5052381571996134e-01 +7.2505391401834203e+00 +5.5598837908204608e+00 +7.9991553135996995e+01 -1.5824992055047198e+04 -7.6628201965722768e+05 +8.2729330764909998e+07 
+3.9999999999999938e+00 -5.5055058259417267e-01 +7.2519836904143631e+00 +5.5254974883332588e+00 +8.0593258895349834e+01 -1.5695881894061386e+04 -7.6839840572763875e+05 +8.1805720354285896e+07 
+4.0499999999999936e+00 -5.5057763540509108e-01 +7.2534413529884514e+00 +5.4909005788372394e+00 +8.1192753097002395e+01 -1.5565896009502061e+04 -7.7051714779403922e+05 +8.0874881434548780e+07 
+4.0999999999999934e+00 -5.5060497133920272e-01 +7.2549119615363926e+00 +5.4561016323667175e+00 +8.1789368130578040e+01 -1.5435177321401035e+04 -7.7263416198915581e+05 +7.9937822520775661e+07 
+4.1499999999999932e+00 -5.5063258744550758e-01 +7.2563953406573178e+00 +5.4211101259789771e+00 +8.2382468779990234e+01 -1.5303899272655504e+04 -7.7474523515276879e+05 +7.8995752085550189e+07 
+4.1999999999999931e+00 -5.5066048077301977e-01 +7.2578913149493269e+00 +5.3859355390900214e+00 +8.2971419875356659e+01 -1.5172235369914406e+04 -7.7684615461253666e+05 +7.8049879039746478e+07 
+4.2499999999999929e+00 -5.5068864837075993e-01 +7.2593997090109266e+00 +5.3505873519398026e+00 +8.3555586218598108e+01 -1.5040359142881774e+04 -7.7893270742905722e+05 +7.7101412454710290e+07 
+4.2999999999999927e+00 -5.5071708728774171e-01 +7.2609203474366026e+00 +5.3150750429222473e+00 +8.4134332790236371e+01 -1.4908444067525468e+04 -7.8100068220435083e+05 +7.6151561023900479e+07 
+4.3499999999999925e+00 -5.5074579457299222e-01 +7.2624530548257527e+00 +5.2794080925481257e+00 +8.4707024375787057e+01 -1.4776663676116756e+04 -7.8304586596690933e+05 +7.5201533817669347e+07 
+4.3999999999999924e+00 -5.5077476727552754e-01 +7.2639976557758343e+00 +5.2435959794780675e+00 +8.5273025833480276e+01 -1.4645191452256100e+04 -7.8506404634621879e+05 +7.4252539584988713e+07 
+4.4499999999999922e+00 -5.5080400244438088e-01 +7.2655539748818549e+00 +5.2076481844765876e+00 +8.5831702138518821e+01 -1.4514200931456293e+04 -7.8705101201347425e+05 +7.3305787408572480e+07 
+4.4999999999999920e+00 -5.5083349712858420e-01 +7.2671218367400723e+00 +5.1715741890174760e+00 +8.6382418211559155e+01 -1.4383865675034567e+04 -7.8900255119347270e+05 +7.2362486568433017e+07 
+4.5499999999999918e+00 -5.5086324837716272e-01 +7.2687010659447386e+00 +5.1353834720371250e+00 +8.6924539057986991e+01 -1.4254359164142621e+04 -7.9091445285507524e+05 +7.1423845762020797e+07 
+4.5999999999999917e+00 -5.5089325323915306e-01 +7.2702914870932434e+00 +5.0990855151545889e+00 +8.7457429563881547e+01 -1.4125854958363272e+04 -7.9278250503803452e+05 +7.0491074239559323e+07 
+4.6499999999999915e+00 -5.5092350876357543e-01 +7.2718929247789879e+00 +5.0626897971511964e+00 +8.7980454780882923e+01 -1.3998526539358621e+04 -7.9460249717839505e+05 +6.9565380720339268e+07 
+4.6999999999999913e+00 -5.5095401199947835e-01 +7.2735052035977397e+00 +5.0262058009233241e+00 +8.8492979655578935e+01 -1.3872547492443544e+04 -7.9637021785246930e+05 +6.8647974598580256e+07 
+4.7499999999999911e+00 -5.5098475999589192e-01 +7.2751281481408521e+00 +4.9896430075070617e+00 +8.8994369337312790e+01 -1.3748091361388138e+04 -7.9808145741281519e+05 +6.7740065019391820e+07 
+4.7999999999999909e+00 -5.5101574980185319e-01 +7.2767615830034700e+00 +4.9530108980151830e+00 +8.9483988798784580e+01 -1.3625331679834831e+04 -7.9973200471276150e+05 +6.6842861013414130e+07 
+4.8499999999999908e+00 -5.5104697846639761e-01 +7.2784053327774805e+00 +4.9163189545383892e+00 +8.9961203170946320e+01 -1.3504442017842126e+04 -8.0131765004215483e+05 +6.5957571899026193e+07 
+4.8999999999999906e+00 -5.5107844303856168e-01 +7.2800592220548968e+00 +4.8795766585585989e+00 +9.0425377574640748e+01 -1.3385595918105773e+04 -8.0283418361148669e+05 +6.5085406768696718e+07 
+4.9499999999999904e+00 -5.5111014056738006e-01 +7.2817230754275846e+00 +4.8427934922126097e+00 +9.0875877128630080e+01 -1.3268966945184480e+04 -8.0427739563954785e+05 +6.4227574876721926e+07 
+4.9999999999999902e+00 -5.5114206810188671e-01 +7.2833967174882357e+00 +4.8059789376776623e+00 +9.1312066935295505e+01 -1.3154728663005257e+04 -8.0564307630309090e+05 +6.3385285469482392e+07 
+5.0499999999999901e+00 -5.5117422269112437e-01 +7.2850799728249607e+00 +4.7691424787152554e+00 +9.1733312276755086e+01 -1.3043054673838644e+04 -8.0692701727682282e+05 +6.2559748036516778e+07 
