# field on trajectory
# s[mm] rx[mm] ry[mm] rz[mm] bx[T] by[T] bz[T]
0.0000000000000000e+00 +8.5269999999999992e+00 +0.0000000000000000e+00 +0.0000000000000000e+00 -3.1751916151822587e-02 -5.7728430035111411e-01 +5.8798068764814365e-03
5.0000000000000003e-02 +8.5269999310568174e+00 +0.0000000000000000e+00 +4.9999999999936630e-02 -3.1751560004921228e-02 -5.7728253783664929e-01 +5.8762126064777730e-03
1.0000000000000001e-01 +8.5269997242275331e+00 +0.0000000000000000e+00 +9.9999999999493008e-02 -3.1751235176171497e-02 -5.7728118670028317e-01 +5.8726138782502811e-03
1.5000000000000002e-01 +8.5269993795124712e+00 +0.0000000000000000e+00 +1.4999999999828889e-01 -3.1750941534616314e-02 -5.7728024628063157e-01 +5.8690110009638058e-03
2.0000000000000001e-01 +8.5269988969118558e+00 +0.0000000000000000e+00 +1.9999999999594401e-01 -3.1750678949300067e-02 -5.7727971591632898e-01 +5.8654042837827805e-03
2.5000000000000000e-01 +8.5269982764258128e+00 +0.0000000000000000e+00 +2.4999999999207811e-01 -3.1750447289268721e-02 -5.7727959494603098e-01 +5.8617940358712825e-03
2.9999999999999999e-01 +8.5269975180543724e+00 +0.0000000000000000e+00 +2.9999999998631099e-01 -3.1750246423569703e-02 -5.7727988270841080e-01 +5.8581805663930680e-03
3.4999999999999998e-01 +8.5269966217974655e+00 +0.0000000000000000e+00 +3.4999999997826237e-01 -3.1750076221251894e-02 -5.7728057854216241e-01 +5.8545641845115940e-03
3.9999999999999997e-01 +8.5269955876549250e+00 +0.0000000000000000e+00 +3.9999999996755203e-01 -3.1749936551365744e-02 -5.7728168178599815e-01 +5.8509451993900858e-03
4.4999999999999996e-01 +8.5269944156264881e+00 +0.0000000000000000e+00 +4.4999999995379969e-01 -3.1749827282963133e-02 -5.7728319177864973e-01 +5.8473239201915538e-03
4.9999999999999994e-01 +8.5269931057117940e+00 +0.0000000000000000e+00 +4.9999999993662508e-01 -3.1749748285097405e-02 -5.7728510785886789e-01 +5.8437006560788426e-03
5.4999999999999993e-01 +8.5269916579103846e+00 +0.0000000000000000e+00 +5.4999999991564796e-01 -3.1749699426823402e-02 -5.7728742936542266e-01 +5.8400757162146684e-03
5.9999999999999998e-01 +8.5269900722217074e+00 +0.0000000000000000e+00 +5.9999999989048802e-01 -3.1749680577197362e-02 -5.7729015563710229e-01 +5.8364494097616574e-03
6.5000000000000002e-01 +8.5269883486451086e+00 +0.0000000000000000e+00 +6.4999999986076507e-01 -3.1749691605277040e-02 -5.7729328601271457e-01 +5.8328220458823930e-03
7.0000000000000007e-01 +8.5269864871798422e+00 +0.0000000000000000e+00 +6.9999999982609873e-01 -3.1749732380121541e-02 -5.7729681983108516e-01 +5.8291939337394285e-03
7.5000000000000011e-01 +8.5269844878250645e+00 +0.0000000000000000e+00 +7.4999999978610865e-01 -3.1749802770791501e-02 -5.7730075643105916e-01 +5.8255653824953709e-03
8.0000000000000016e-01 +8.5269823505798339e+00 +0.0000000000000000e+00 +7.9999999974041469e-01 -3.1749902646348853e-02 -5.7730509515149941e-01 +5.8219367013128713e-03
8.5000000000000020e-01 +8.5269800754431149e+00 +0.0000000000000000e+00 +8.4999999968863638e-01 -3.1750031875857065e-02 -5.7730983533128755e-01 +5.8183081993547041e-03
9.0000000000000024e-01 +8.5269776624137741e+00 +0.0000000000000000e+00 +8.9999999963039345e-01 -3.1750190328380931e-02 -5.7731497630932382e-01 +5.8146801857837816e-03
9.5000000000000029e-01 +8.5269751114905858e+00 +0.0000000000000000e+00 +9.4999999956530556e-01 -3.1750377872986658e-02 -5.7732051742452639e-01 +5.8110529697631957e-03
1.0000000000000002e+00 +8.5269724226722250e+00 +0.0000000000000000e+00 +9.9999999949299223e-01 -3.1750594378741857e-02 -5.7732645801583149e-01 +5.8074268604562732e-03
1.0500000000000003e+00 +8.5269695959572740e+00 +0.0000000000000000e+00 +1.0499999994130733e+00 -3.1750839714715533e-02 -5.7733279742219412e-01 +5.8038021670265977e-03
1.1000000000000003e+00 +8.5269666313442176e+00 +0.0000000000000000e+00 +1.0999999993251681e+00 -3.1751113749977987e-02 -5.7733953498258617e-01 +5.8001791986380599e-03
1.1500000000000004e+00 +8.5269635288314465e+00 +0.0000000000000000e+00 +1.1499999992288965e+00 -3.1751416353600972e-02 -5.7734667003599838e-01 +5.7965582644548836e-03
1.2000000000000004e+00 +8.5269602884172571e+00 +0.0000000000000000e+00 +1.1999999991238779e+00 -3.1751747394657526e-02 -5.7735420192143905e-01 +5.7929396736416802e-03
1.2500000000000004e+00 +8.5269569100998499e+00 +0.0000000000000000e+00 +1.2499999990097317e+00 -3.1752106742222085e-02 -5.7736212997793379e-01 +5.7893237353634783e-03
1.3000000000000005e+00 +8.5269533938773314e+00 +0.0000000000000000e+00 +1.2999999988860775e+00 -3.1752494265370405e-02 -5.7737045354452676e-01 +5.7857107587857663e-03
1.3500000000000005e+00 +8.5269497397477121e+00 +0.0000000000000000e+00 +1.3499999987525351e+00 -3.1752909833179584e-02 -5.7737917196027833e-01 +5.7821010530745287e-03
1.4000000000000006e+00 +8.5269459477089118e+00 +0.0000000000000000e+00 +1.3999999986087237e+00 -3.1753353314728013e-02 -5.7738828456426794e-01 +5.7784949273962894e-03
1.4500000000000006e+00 +8.5269420177587527e+00 +0.0000000000000000e+00 +1.4499999984542629e+00 -3.1753824579095438e-02 -5.7739779069559138e-01 +5.7748926909181502e-03
1.5000000000000007e+00 +8.5269379498949647e+00 +0.0000000000000000e+00 +1.4999999982887720e+00 -3.1754323495362863e-02 -5.7740768969336187e-01 +5.7712946528078258e-03
1.5500000000000007e+00 +8.5269337441151833e+00 +0.0000000000000000e+00 +1.5499999981118702e+00 -3.1754849932612642e-02 -5.7741798089671026e-01 +5.7677011222336859e-03
1.6000000000000008e+00 +8.5269294004169520e+00 +0.0000000000000000e+00 +1.5999999979231772e+00 -3.1755403759928393e-02 -5.7742866364478374e-01 +5.7641124083647926e-03
1.6500000000000008e+00 +8.5269249187977181e+00 +0.0000000000000000e+00 +1.6499999977223121e+00 -3.1755984846395004e-02 -5.7743973727674736e-01 +5.7605288203709483e-03
1.7000000000000008e+00 +8.5269202992548365e+00 +0.0000000000000000e+00 +1.6999999975088944e+00 -3.1756593061098654e-02 -5.7745120113178283e-01 +5.7569506674227172e-03
1.7500000000000009e+00 +8.5269155417855682e+00 +0.0000000000000000e+00 +1.7499999972825435e+00 -3.1757228273126797e-02 -5.7746305454908831e-01 +5.7533782586914857e-03
1.8000000000000009e+00 +8.5269106463870834e+00 +0.0000000000000000e+00 +1.7999999970428784e+00 -3.1757890351568133e-02 -5.7747529686787979e-01 +5.7498119033494843e-03
1.8500000000000010e+00 +8.5269056130564564e+00 +0.0000000000000000e+00 +1.8499999967895184e+00 -3.1758579165512599e-02 -5.7748792742738875e-01 +5.7462519105698313e-03
1.9000000000000010e+00 +8.5269004417906729e+00 +0.0000000000000000e+00 +1.8999999965220826e+00 -3.1759294584051426e-02 -5.7750094556686415e-01 +5.7426985895265856e-03
1.9500000000000011e+00 +8.5268951325866222e+00 +0.0000000000000000e+00 +1.9499999962401904e+00 -3.1760036476276995e-02 -5.7751435062557077e-01 +5.7391522493947600e-03
2.0000000000000009e+00 +8.5268896854411018e+00 +0.0000000000000000e+00 +1.9999999959434607e+00 -3.1760804711282974e-02 -5.7752814194279078e-01 +5.7356131993503822e-03
2.0500000000000007e+00 +8.5268841003508182e+00 +0.0000000000000000e+00 +2.0499999956315125e+00 -3.1761599181270118e-02 -5.7754231859419569e-01 +5.7320817424067931e-03
2.1000000000000005e+00 +8.5268783773123857e+00 +0.0000000000000000e+00 +2.0999999953039650e+00 -3.1762419870863812e-02 -5.7755687860096971e-01 +5.7285581569233640e-03
2.1500000000000004e+00 +8.5268725163223262e+00 +0.0000000000000000e+00 +2.1499999949604369e+00 -3.1763266787796715e-02 -5.7757181972068383e-01 +5.7250427150966213e-03
2.2000000000000002e+00 +8.5268665173770710e+00 +0.0000000000000000e+00 +2.1999999946005477e+00 -3.1764139939802864e-02 -5.7758713971092346e-01 +5.7215356891239973e-03
2.2500000000000000e+00 +8.5268603804729608e+00 +0.0000000000000000e+00 +2.2499999942239159e+00 -3.1765039334617676e-02 -5.7760283632928577e-01 +5.7180373512038434e-03
2.2999999999999998e+00 +8.5268541056062475e+00 +0.0000000000000000e+00 +2.2999999938301605e+00 -3.1765964979977912e-02 -5.7761890733338139e-01 +5.7145479735354566e-03
2.3499999999999996e+00 +8.5268476927730923e+00 +0.0000000000000000e+00 +2.3499999934189004e+00 -3.1766916883621765e-02 -5.7763535048083336e-01 +5.7110678283191140e-03
2.3999999999999995e+00 +8.5268411419695678e+00 +0.0000000000000000e+00 +2.3999999929897542e+00 -3.1767895053288760e-02 -5.7765216352927662e-01 +5.7075971877560815e-03
2.4499999999999993e+00 +8.5268344531916576e+00 +0.0000000000000000e+00 +2.4499999925423408e+00 -3.1768899496719863e-02 -5.7766934423635818e-01 +5.7041363240486519e-03
2.4999999999999991e+00 +8.5268276264352583e+00 +0.0000000000000000e+00 +2.4999999920762788e+00 -3.1769930221657375e-02 -5.7768689035973686e-01 +5.7006855094001614e-03
2.5499999999999989e+00 +8.5268206616961795e+00 +0.0000000000000000e+00 +2.5499999915911871e+00 -3.1770987235845018e-02 -5.7770479965708299e-01 +5.6972450160150193e-03
2.5999999999999988e+00 +8.5268135589701419e+00 +0.0000000000000000e+00 +2.5999999910866842e+00 -3.1772070547027909e-02 -5.7772306988607758e-01 +5.6938151160987284e-03
2.6499999999999986e+00 +8.5268063182527829e+00 +0.0000000000000000e+00 +2.6499999905623883e+00 -3.1773180162952532e-02 -5.7774169880441373e-01 +5.6903960818579105e-03
2.6999999999999984e+00 +8.5267989395396544e+00 +0.0000000000000000e+00 +2.6999999900179183e+00 -3.1774316091366807e-02 -5.7776068416979420e-01 +5.6869881855003352e-03
2.7499999999999982e+00 +8.5267914228262196e+00 +0.0000000000000000e+00 +2.7499999894528928e+00 -3.1775478340019987e-02 -5.7778002373993276e-01 +5.6835916992349286e-03
2.7999999999999980e+00 +8.5267837681078600e+00 +0.0000000000000000e+00 +2.7999999888669298e+00 -3.1776666916662796e-02 -5.7779971527255325e-01 +5.6802068952718256e-03
2.8499999999999979e+00 +8.5267759753798735e+00 +0.0000000000000000e+00 +2.8499999882596478e+00 -3.1777881829047325e-02 -5.7781975652538931e-01 +5.6768340458223697e-03
2.8999999999999977e+00 +8.5267680446374712e+00 +0.0000000000000000e+00 +2.8999999876306650e+00 -3.1779123084927065e-02 -5.7784014525618477e-01 +5.6734734230991487e-03
2.9499999999999975e+00 +8.5267599758757839e+00 +0.0000000000000000e+00 +2.9499999869795999e+00 -3.1780390692056924e-02 -5.7786087922269236e-01 +5.6701252993160180e-03
2.9999999999999973e+00 +8.5267517690898611e+00 +0.0000000000000000e+00 +2.9999999863060705e+00 -3.1781684658193199e-02 -5.7788195618267491e-01 +5.6667899466881187e-03
3.0499999999999972e+00 +8.5267434242746667e+00 +0.0000000000000000e+00 +3.0499999856096953e+00 -3.1783004991093614e-02 -5.7790337389390278e-01 +5.6634676374319104e-03
3.0999999999999970e+00 +8.5267349414250848e+00 +0.0000000000000000e+00 +3.0999999848900921e+00 -3.1784351698517316e-02 -5.7792513011415669e-01 +5.6601586437651959e-03
3.1499999999999968e+00 +8.5267263205359214e+00 +0.0000000000000000e+00 +3.1499999841468789e+00 -3.1785724788224827e-02 -5.7794722260122489e-01 +5.6568632379071409e-03
3.1999999999999966e+00 +8.5267175616018971e+00 +0.0000000000000000e+00 +3.1999999833796737e+00 -3.1787124267978105e-02 -5.7796964911290394e-01 +5.6535816920782944e-03
3.2499999999999964e+00 +8.5267086646176562e+00 +0.0000000000000000e+00 +3.2499999825880947e+00 -3.1788550145540544e-02 -5.7799240740699864e-01 +5.6503142785006280e-03
3.2999999999999963e+00 +8.5266996295777631e+00 +0.0000000000000000e+00 +3.2999999817717596e+00 -3.1790002428676918e-02 -5.7801549524132134e-01 +5.6470612693975426e-03
3.3499999999999961e+00 +8.5266904564767039e+00 +0.0000000000000000e+00 +3.3499999809302858e+00 -3.1791481125153447e-02 -5.7803891037369171e-01 +5.6438229369939110e-03
3.3999999999999959e+00 +8.5266811453088849e+00 +0.0000000000000000e+00 +3.3999999800632916e+00 -3.1792986242737797e-02 -5.7806265056193740e-01 +5.6405995535160867e-03
3.4499999999999957e+00 +8.5266716960686360e+00 +0.0000000000000000e+00 +3.4499999791703941e+00 -3.1794517789198978e-02 -5.7808671356389218e-01 +5.6373913911919350e-03
3.4999999999999956e+00 +8.5266621087502106e+00 +0.0000000000000000e+00 +3.4999999782512115e+00 -3.1796075772307510e-02 -5.7811109713739706e-01 +5.6341987222508581e-03
3.5499999999999954e+00 +8.5266523833477841e+00 +0.0000000000000000e+00 +3.5499999773053612e+00 -3.1797660199835306e-02 -5.7813579904029910e-01 +5.6310218189238193e-03
3.5999999999999952e+00 +8.5266425198554572e+00 +0.0000000000000000e+00 +3.5999999763324606e+00 -3.1799271079555734e-02 -5.7816081703045219e-01 +5.6278609534433713e-03
3.6499999999999950e+00 +8.5266325182672524e+00 +0.0000000000000000e+00 +3.6499999753321268e+00 -3.1800908419243538e-02 -5.7818614886571573e-01 +5.6247163980436710e-03
3.6999999999999948e+00 +8.5266223785771214e+00 +0.0000000000000000e+00 +3.6999999743039780e+00 -3.1802572226674979e-02 -5.7821179230395536e-01 +5.6215884249605106e-03
3.7499999999999947e+00 +8.5266121007789373e+00 +0.0000000000000000e+00 +3.7499999732476308e+00 -3.1804262509627659e-02 -5.7823774510304149e-01 +5.6184773064313440e-03
3.7999999999999945e+00 +8.5266016848665025e+00 +0.0000000000000000e+00 +3.7999999721627025e+00 -3.1805979275880684e-02 -5.7826400502085051e-01 +5.6153833146953087e-03
3.8499999999999943e+00 +8.5265911308335447e+00 +0.0000000000000000e+00 +3.8499999710488106e+00 -3.1807722533214601e-02 -5.7829056981526339e-01 +5.6123067219932448e-03
3.8999999999999941e+00 +8.5265804386737187e+00 +0.0000000000000000e+00 +3.8999999699055721e+00 -3.1809492289411379e-02 -5.7831743724416607e-01 +5.6092478005677305e-03
3.9499999999999940e+00 +8.5265696083806084e+00 +0.0000000000000000e+00 +3.9499999687326035e+00 -3.1811288552254430e-02 -5.7834460506544860e-01 +5.6062068226631050e-03
3.9999999999999938e+00 +8.5265586399477247e+00 +0.0000000000000000e+00 +3.9999999675295226e+00 -3.1813111329528611e-02 -5.7837207103700583e-01 +5.6031840605254794e-03
4.0499999999999936e+00 +8.5265475333685057e+00 +0.0000000000000000e+00 +4.0499999662959461e+00 -3.1814960579018413e-02 -5.7839983281570173e-01 +5.6001797713935647e-03
4.0999999999999934e+00 +8.5265362886363221e+00 +0.0000000000000000e+00 +4.0999999650314898e+00 -3.1816836058501614e-02 -5.7842788765426445e-01 +5.5971941524708170e-03
4.1499999999999932e+00 +8.5265249057444716e+00 +0.0000000000000000e+00 +4.1499999637357714e+00 -3.1818737475754283e-02 -5.7845623270439106e-01 +5.5942273859529330e-03
4.1999999999999931e+00 +8.5265133846861847e+00 +0.0000000000000000e+00 +4.1999999624084072e+00 -3.1820664538552576e-02 -5.7848486511778197e-01 +5.5912796540371007e-03
4.2499999999999929e+00 +8.5265017254546223e+00 +0.0000000000000000e+00 +4.2499999610490145e+00 -3.1822616954672790e-02 -5.7851378204614079e-01 +5.5883511389220198e-03
4.2999999999999927e+00 +8.5264899280428779e+00 +0.0000000000000000e+00 +4.2999999596572094e+00 -3.1824594431891243e-02 -5.7854298064117338e-01 +5.5854420228079096e-03
4.3499999999999925e+00 +8.5264779924439775e+00 +0.0000000000000000e+00 +4.3499999582326083e+00 -3.1826596677984313e-02 -5.7857245805458912e-01 +5.5825524878965211e-03
4.3999999999999924e+00 +8.5264659186508815e+00 +0.0000000000000000e+00 +4.3999999567748276e+00 -3.1828623400728361e-02 -5.7860221143809942e-01 +5.5796827163911572e-03
4.4499999999999922e+00 +8.5264537066564827e+00 +0.0000000000000000e+00 +4.4499999552834835e+00 -3.1830674307899660e-02 -5.7863223794341767e-01 +5.5768328904966767e-03
4.4999999999999920e+00 +8.5264413564536081e+00 +0.0000000000000000e+00 +4.4999999537581923e+00 -3.1832749107274461e-02 -5.7866253472225926e-01 +5.5740031924195145e-03
4.5499999999999918e+00 +8.5264288680350226e+00 +0.0000000000000000e+00 +4.5499999521985703e+00 -3.1834847506628836e-02 -5.7869309892634124e-01 +5.5711938043676917e-03
4.5999999999999917e+00 +8.5264162413934255e+00 +0.0000000000000000e+00 +4.5999999506042339e+00 -3.1836969213738749e-02 -5.7872392770738179e-01 +5.5684049085508291e-03
4.6499999999999915e+00 +8.5264034765214536e+00 +0.0000000000000000e+00 +4.6499999489747985e+00 -3.1839113936379893e-02 -5.7875501821710096e-01 +5.5656366871801666e-03
4.6999999999999913e+00 +8.5263905734116801e+00 +0.0000000000000000e+00 +4.6999999473098804e+00 -3.1841281382327821e-02 -5.7878636760721858e-01 +5.5628893224685637e-03
4.7499999999999911e+00 +8.5263775320566175e+00 +0.0000000000000000e+00 +4.7499999456090949e+00 -3.1843471259357721e-02 -5.7881797302945626e-01 +5.5601629966305181e-03
4.7999999999999909e+00 +8.5263643524487183e+00 +0.0000000000000000e+00 +4.7999999438720584e+00 -3.1845683275244556e-02 -5.7884983163553572e-01 +5.5574578918821914e-03
4.8499999999999908e+00 +8.5263510345803724e+00 +0.0000000000000000e+00 +4.8499999420983864e+00 -3.1847917137762881e-02 -5.7888194057717790e-01 +5.5547741904413989e-03
4.8999999999999906e+00 +8.5263375784439095e+00 +0.0000000000000000e+00 +4.8999999402876941e+00 -3.1850172554686904e-02 -5.7891429700610475e-01 +5.5521120745276450e-03
4.9499999999999904e+00 +8.5263239840316025e+00 +0.0000000000000000e+00 +4.9499999384395981e+00 -3.1852449233790416e-02 -5.7894689807403765e-01 +5.5494717263621244e-03
4.9999999999999902e+00 +8.5263102513356639e+00 +0.0000000000000000e+00 +4.9999999365537127e+00 -3.1854746882846736e-02 -5.7897974093269744e-01 +5.5468533281677361e-03
5.0499999999999901e+00 +8.5262963803482492e+00 +0.0000000000000000e+00 +5.0499999346296534e+00 -3.1857065209628679e-02 -5.7901282273380339e-01 +5.5442570621691009e-03
5.0999999999999899e+00 +8.5262823710614573e+00 +0.0000000000000000e+00 +5.0999999326670364e+00 -3.1859403921908572e-02 -5.7904614062907478e-01 +5.5416831105925693e-03
5.1499999999999897e+00 +8.5262682234673317e+00 +0.0000000000000000e+00 +5.1499999306654765e+00 -3.1861762727458144e-02 -5.7907969177022867e-01 +5.5391316556662384e-03
5.1999999999999895e+00 +8.5262539375578559e+00 +0.0000000000000000e+00 +5.1999999286245879e+00 -3.1864141334048517e-02 -5.7911347330898144e-01 +5.5366028796199705e-03
5.2499999999999893e+00 +8.5262395133249633e+00 +0.0000000000000000e+00 +5.2499999265439872e+00 -3.1866539449450199e-02 -5.7914748239704661e-01 +5.5340969646853902e-03
5.2999999999999892e+00 +8.5262249507605308e+00 +0.0000000000000000e+00 +5.2999999244232887e+00 -3.1868956781433005e-02 -5.7918171618613634e-01 +5.5316140930959179e-03
5.3499999999999890e+00 +8.5262102498563799e+00 +0.0000000000000000e+00 +5.3499999222621071e+00 -3.1871393037766038e-02 -5.7921617182796059e-01 +5.5291544470867666e-03
5.3999999999999888e+00 +8.5261954106042825e+00 +0.0000000000000000e+00 +5.3999999200600568e+00 -3.1873847926217620e-02 -5.7925084647422609e-01 +5.5267182088949594e-03
5.4499999999999886e+00 +8.5261804329959574e+00 +0.0000000000000000e+00 +5.4499999178167533e+00 -3.1876321154555333e-02 -5.7928573727663735e-01 +5.5243055607593541e-03
5.4999999999999885e+00 +8.5261653170230698e+00 +0.0000000000000000e+00 +5.4999999155318111e+00 -3.1878812430545925e-02 -5.7932084138689577e-01 +5.5219166849206367e-03
5.5499999999999883e+00 +8.5261500626772335e+00 +0.0000000000000000e+00 +5.5499999132048448e+00 -3.1881321461955242e-02 -5.7935615595669887e-01 +5.5195517636213555e-03
5.5999999999999881e+00 +8.5261346699500162e+00 +0.0000000000000000e+00 +5.5999999108354679e+00 -3.1883847956548264e-02 -5.7939167813774117e-01 +5.5172109791059160e-03
5.6499999999999879e+00 +8.5261191388329323e+00 +0.0000000000000000e+00 +5.6499999084232959e+00 -3.1886391622089040e-02 -5.7942740508171353e-01 +5.5148945136206072e-03
5.6999999999999877e+00 +8.5261034693174480e+00 +0.0000000000000000e+00 +5.6999999059679425e+00 -3.1888952166340634e-02 -5.7946333394030236e-01 +5.5126025494136076e-03
5.7499999999999876e+00 +8.5260876613949836e+00 +0.0000000000000000e+00 +5.7499999034690221e+00 -3.1891529297065055e-02 -5.7949946186518975e-01 +5.5103352687350012e-03
5.7999999999999874e+00 +8.5260717150569079e+00 +0.0000000000000000e+00 +5.7999999009261494e+00 -3.1894122722023362e-02 -5.7953578600805367e-01 +5.5080928538367912e-03
5.8499999999999872e+00 +8.5260556302945467e+00 +0.0000000000000000e+00 +5.8499998983389379e+00 -3.1896732148975447e-02 -5.7957230352056688e-01 +5.5058754869729085e-03
5.8999999999999870e+00 +8.5260394070991765e+00 +0.0000000000000000e+00 +5.8999998957070012e+00 -3.1899357285680094e-02 -5.7960901155439726e-01 +5.5036833503992397e-03
