# trajectory
# s[mm] rx[mm] ry[mm] rz[mm] px[rad] py[rad] pz[rad]
0.0000000000000000e+00 +8.3650000000000002e+00 +0.0000000000000000e+00 +0.0000000000000000e+00 +0.0000000000000000e+00 +0.0000000000000000e+00 +1.0000000000000000e+00
5.0000000000000003e-02 +8.3649999311440499e+00 +0.0000000000000000e+00 +4.9999999999936789e-02 -2.7542377292885229e-06 +0.0000000000000000e+00 +9.9999999999620703e-01
1.0000000000000001e-01 +8.3649997245762417e+00 +0.0000000000000000e+00 +9.9999999999494271e-02 -5.5084745855955111e-06 +0.0000000000000000e+00 +9.9999999998482825e-01
1.5000000000000002e-01 +8.3649993802965721e+00 +0.0000000000000000e+00 +1.4999999999829317e-01 -8.2627125685364111e-06 +0.0000000000000000e+00 +9.9999999996586364e-01
2.0000000000000001e-01 +8.3649988983049326e+00 +0.0000000000000000e+00 +1.9999999999595419e-01 -1.1016953673872428e-05 +0.0000000000000000e+00 +9.9999999993931321e-01
2.5000000000000000e-01 +8.3649982786011190e+00 +0.0000000000000000e+00 +2.4999999999209804e-01 -1.3771199893510609e-05 +0.0000000000000000e+00 +9.9999999990517685e-01
2.9999999999999999e-01 +8.3649975211848258e+00 +0.0000000000000000e+00 +2.9999999998634547e-01 -1.6525453215503946e-05 +0.0000000000000000e+00 +9.9999999986345456e-01
3.4999999999999998e-01 +8.3649966260556461e+00 +0.0000000000000000e+00 +3.4999999997831710e-01 -1.9279715624051455e-05 +0.0000000000000000e+00 +9.9999999981414611e-01
3.9999999999999997e-01 +8.3649955932130791e+00 +0.0000000000000000e+00 +3.9999999996763363e-01 -2.2033989099498273e-05 +0.0000000000000000e+00 +9.9999999975725151e-01
4.4999999999999996e-01 +8.3649944226565189e+00 +0.0000000000000000e+00 +4.4999999995391582e-01 -2.4788275618335745e-05 +0.0000000000000000e+00 +9.9999999969277054e-01
4.9999999999999994e-01 +8.3649931143852658e+00 +0.0000000000000000e+00 +4.9999999993678429e-01 -2.7542577153201514e-05 +0.0000000000000000e+00 +9.9999999962070307e-01
5.4999999999999993e-01 +8.3649916683985204e+00 +0.0000000000000000e+00 +5.4999999991585968e-01 -3.0296895672879613e-05 +0.0000000000000000e+00 +9.9999999954104890e-01
5.9999999999999998e-01 +8.3649900846953837e+00 +0.0000000000000000e+00 +5.9999999989076269e-01 -3.3051233142300549e-05 +0.0000000000000000e+00 +9.9999999945380780e-01
6.5000000000000002e-01 +8.3649883632748576e+00 +0.0000000000000000e+00 +6.4999999986111401e-01 -3.5805591522541398e-05 +0.0000000000000000e+00 +9.9999999935897965e-01
7.0000000000000007e-01 +8.3649865041358495e+00 +0.0000000000000000e+00 +6.9999999982653427e-01 -3.8559972770825881e-05 +0.0000000000000000e+00 +9.9999999925656413e-01
7.5000000000000011e-01 +8.3649845072771676e+00 +0.0000000000000000e+00 +7.4999999978664400e-01 -4.1314378840524473e-05 +0.0000000000000000e+00 +9.9999999914656090e-01
8.0000000000000016e-01 +8.3649823726975203e+00 +0.0000000000000000e+00 +7.9999999974106384e-01 -4.4068811681154457e-05 +0.0000000000000000e+00 +9.9999999902896974e-01
8.5000000000000020e-01 +8.3649801003955204e+00 +0.0000000000000000e+00 +8.4999999968941442e-01 -4.6823273238380051e-05 +0.0000000000000000e+00 +9.9999999890379032e-01
9.0000000000000024e-01 +8.3649776903696846e+00 +0.0000000000000000e+00 +8.9999999963131638e-01 -4.9577765454012461e-05 +0.0000000000000000e+00 +9.9999999877102241e-01
9.5000000000000029e-01 +8.3649751426184320e+00 +0.0000000000000000e+00 +9.4999999956639014e-01 -5.2332290266009985e-05 +0.0000000000000000e+00 +9.9999999863066558e-01
1.0000000000000002e+00 +8.3649724571400839e+00 +0.0000000000000000e+00 +9.9999999949425633e-01 -5.5086849608478101e-05 +0.0000000000000000e+00 +9.9999999848271937e-01
1.0500000000000003e+00 +8.3649696339328639e+00 +0.0000000000000000e+00 +1.0499999994145355e+00 -5.7841445411669540e-05 +0.0000000000000000e+00 +9.9999999832718345e-01
1.1000000000000003e+00 +8.3649666729949033e+00 +0.0000000000000000e+00 +1.0999999993268481e+00 -6.0596079601984374e-05 +0.0000000000000000e+00 +9.9999999816405738e-01
1.1500000000000004e+00 +8.3649635743242321e+00 +0.0000000000000000e+00 +1.1499999992308148e+00 -6.3350754101970099e-05 +0.0000000000000000e+00 +9.9999999799334083e-01
1.2000000000000004e+00 +8.3649603379187880e+00 +0.0000000000000000e+00 +1.1999999991260557e+00 -6.6105470830321743e-05 +0.0000000000000000e+00 +9.9999999781503324e-01
1.2500000000000004e+00 +8.3649569637764127e+00 +0.0000000000000000e+00 +1.2499999990121915e+00 -6.8860231701881925e-05 +0.0000000000000000e+00 +9.9999999762913416e-01
1.3000000000000005e+00 +8.3649534518948503e+00 +0.0000000000000000e+00 +1.2999999988888427e+00 -7.1615038627640946e-05 +0.0000000000000000e+00 +9.9999999743564305e-01
1.3500000000000005e+00 +8.3649498022717506e+00 +0.0000000000000000e+00 +1.3499999987556293e+00 -7.4369893514736855e-05 +0.0000000000000000e+00 +9.9999999723455935e-01
1.4000000000000006e+00 +8.3649460149046675e+00 +0.0000000000000000e+00 +1.3999999986121721e+00 -7.7124798266455571e-05 +0.0000000000000000e+00 +9.9999999702588260e-01
1.4500000000000006e+00 +8.3649420897910609e+00 +0.0000000000000000e+00 +1.4499999984580911e+00 -7.9879754782230937e-05 +0.0000000000000000e+00 +9.9999999680961227e-01
1.5000000000000007e+00 +8.3649380269282947e+00 +0.0000000000000000e+00 +1.4999999982930068e+00 -8.2634764957644803e-05 +0.0000000000000000e+00 +9.9999999658574767e-01
1.5500000000000007e+00 +8.3649338263136386e+00 +0.0000000000000000e+00 +1.5499999981165393e+00 -8.5389830684427120e-05 +0.0000000000000000e+00 +9.9999999635428827e-01
1.6000000000000008e+00 +8.3649294879442682e+00 +0.0000000000000000e+00 +1.5999999979283090e+00 -8.8144953850456019e-05 +0.0000000000000000e+00 +9.9999999611523338e-01
1.6500000000000008e+00 +8.3649250118172649e+00 +0.0000000000000000e+00 +1.6499999977279360e+00 -9.0900136339757884e-05 +0.0000000000000000e+00 +9.9999999586858246e-01
1.7000000000000008e+00 +8.3649203979296143e+00 +0.0000000000000000e+00 +1.6999999975150406e+00 -9.3655380032507427e-05 +0.0000000000000000e+00 +9.9999999561433472e-01
1.7500000000000009e+00 +8.3649156462782095e+00 +0.0000000000000000e+00 +1.7499999972892428e+00 -9.6410686805027787e-05 +0.0000000000000000e+00 +9.9999999535248951e-01
1.8000000000000009e+00 +8.3649107568598513e+00 +0.0000000000000000e+00 +1.7999999970501628e+00 -9.9166058529790612e-05 +0.0000000000000000e+00 +9.9999999508304616e-01
1.8500000000000010e+00 +8.3649057296712428e+00 +0.0000000000000000e+00 +1.8499999967974208e+00 -1.0192149707541612e-04 +0.0000000000000000e+00 +9.9999999480600399e-01
1.9000000000000010e+00 +8.3649005647089982e+00 +0.0000000000000000e+00 +1.8999999965306367e+00 -1.0467700430667318e-04 +0.0000000000000000e+00 +9.9999999452136212e-01
1.9500000000000011e+00 +8.3648952619696360e+00 +0.0000000000000000e+00 +1.9499999962494303e+00 -1.0743258208447942e-04 +0.0000000000000000e+00 +9.9999999422911989e-01
2.0000000000000009e+00 +8.3648898214495819e+00 +0.0000000000000000e+00 +1.9999999959534218e+00 -1.1018823226590126e-04 +0.0000000000000000e+00 +9.9999999392927652e-01
2.0500000000000007e+00 +8.3648842431451715e+00 +0.0000000000000000e+00 +2.0499999956422310e+00 -1.1294395670387635e-04 +0.0000000000000000e+00 +9.9999999362183112e-01
2.1000000000000005e+00 +8.3648785270526442e+00 +0.0000000000000000e+00 +2.0999999953154780e+00 -1.1569975724415897e-04 +0.0000000000000000e+00 +9.9999999330678291e-01
2.1500000000000004e+00 +8.3648726731681489e+00 +0.0000000000000000e+00 +2.1499999949727826e+00 -1.1845563572226556e-04 +0.0000000000000000e+00 +9.9999999298413100e-01
2.2000000000000002e+00 +8.3648666814877437e+00 +0.0000000000000000e+00 +2.1999999946137643e+00 -1.2121159396319704e-04 +0.0000000000000000e+00 +9.9999999265387451e-01
2.2500000000000000e+00 +8.3648605520073946e+00 +0.0000000000000000e+00 +2.2499999942380433e+00 -1.2396763378143890e-04 +0.0000000000000000e+00 +9.9999999231601266e-01
2.2999999999999998e+00 +8.3648542847229770e+00 +0.0000000000000000e+00 +2.2999999938452391e+00 -1.2672375698096120e-04 +0.0000000000000000e+00 +9.9999999197054446e-01
2.3499999999999996e+00 +8.3648478796302772e+00 +0.0000000000000000e+00 +2.3499999934349711e+00 -1.2947996535521878e-04 +0.0000000000000000e+00 +9.9999999161746900e-01
2.3999999999999995e+00 +8.3648413367249930e+00 +0.0000000000000000e+00 +2.3999999930068592e+00 -1.3223626068715110e-04 +0.0000000000000000e+00 +9.9999999125678540e-01
2.4499999999999993e+00 +8.3648346560027296e+00 +0.0000000000000000e+00 +2.4499999925605227e+00 -1.3499264474918249e-04 +0.0000000000000000e+00 +9.9999999088849267e-01
2.4999999999999991e+00 +8.3648278374590088e+00 +0.0000000000000000e+00 +2.4999999920955815e+00 -1.3774911930322214e-04 +0.0000000000000000e+00 +9.9999999051258981e-01
2.5499999999999989e+00 +8.3648208810892619e+00 +0.0000000000000000e+00 +2.5499999916116547e+00 -1.4050568610066410e-04 +0.0000000000000000e+00 +9.9999999012907581e-01
2.5999999999999988e+00 +8.3648137868888330e+00 +0.0000000000000000e+00 +2.5999999911083620e+00 -1.4326234688238741e-04 +0.0000000000000000e+00 +9.9999998973794968e-01
2.6499999999999986e+00 +8.3648065548529793e+00 +0.0000000000000000e+00 +2.6499999905853229e+00 -1.4601910337875613e-04 +0.0000000000000000e+00 +9.9999998933921042e-01
2.6999999999999984e+00 +8.3647991849768708e+00 +0.0000000000000000e+00 +2.6999999900421563e+00 -1.4877595730961938e-04 +0.0000000000000000e+00 +9.9999998893285691e-01
2.7499999999999982e+00 +8.3647916772555959e+00 +0.0000000000000000e+00 +2.7499999894784817e+00 -1.5153291038431138e-04 +0.0000000000000000e+00 +9.9999998851888816e-01
2.7999999999999980e+00 +8.3647840316841524e+00 +0.0000000000000000e+00 +2.7999999888939180e+00 -1.5428996430165158e-04 +0.0000000000000000e+00 +9.9999998809730306e-01
2.8499999999999979e+00 +8.3647762482574564e+00 +0.0000000000000000e+00 +2.8499999882880847e+00 -1.5704712074994458e-04 +0.0000000000000000e+00 +9.9999998766810050e-01
2.8999999999999977e+00 +8.3647683269703403e+00 +0.0000000000000000e+00 +2.8999999876606011e+00 -1.5980438140698026e-04 +0.0000000000000000e+00 +9.9999998723127936e-01
2.9499999999999975e+00 +8.3647602678175517e+00 +0.0000000000000000e+00 +2.9499999870110858e+00 -1.6256174794003386e-04 +0.0000000000000000e+00 +9.9999998678683855e-01
2.9999999999999973e+00 +8.3647520707937542e+00 +0.0000000000000000e+00 +2.9999999863391578e+00 -1.6531922200586593e-04 +0.0000000000000000e+00 +9.9999998633477694e-01
3.0499999999999972e+00 +8.3647437358935317e+00 +0.0000000000000000e+00 +3.0499999856444364e+00 -1.6807680525072241e-04 +0.0000000000000000e+00 +9.9999998587509331e-01
3.0999999999999970e+00 +8.3647352631113829e+00 +0.0000000000000000e+00 +3.0999999849265403e+00 -1.7083449931033472e-04 +0.0000000000000000e+00 +9.9999998540778645e-01
3.1499999999999968e+00 +8.3647266524417265e+00 +0.0000000000000000e+00 +3.1499999841850883e+00 -1.7359230580991976e-04 +0.0000000000000000e+00 +9.9999998493285525e-01
3.1999999999999966e+00 +8.3647179038789012e+00 +0.0000000000000000e+00 +3.1999999834196990e+00 -1.7635022636417993e-04 +0.0000000000000000e+00 +9.9999998445029836e-01
3.2499999999999964e+00 +8.3647090174171623e+00 +0.0000000000000000e+00 +3.2499999826299910e+00 -1.7910826257730322e-04 +0.0000000000000000e+00 +9.9999998396011469e-01
3.2999999999999963e+00 +8.3646999930506887e+00 +0.0000000000000000e+00 +3.2999999818155832e+00 -1.8186641604296322e-04 +0.0000000000000000e+00 +9.9999998346230290e-01
3.3499999999999961e+00 +8.3646908307735774e+00 +0.0000000000000000e+00 +3.3499999809760941e+00 -1.8462468834431914e-04 +0.0000000000000000e+00 +9.9999998295686177e-01
3.3999999999999959e+00 +8.3646815305798476e+00 +0.0000000000000000e+00 +3.3999999801111422e+00 -1.8738308105401585e-04 +0.0000000000000000e+00 +9.9999998244378996e-01
3.4499999999999957e+00 +8.3646720924634401e+00 +0.0000000000000000e+00 +3.4499999792203457e+00 -1.9014159573418402e-04 +0.0000000000000000e+00 +9.9999998192308626e-01
3.4999999999999956e+00 +8.3646625164182158e+00 +0.0000000000000000e+00 +3.4999999783033235e+00 -1.9290023393643996e-04 +0.0000000000000000e+00 +9.9999998139474933e-01
3.5499999999999954e+00 +8.3646528024379609e+00 +0.0000000000000000e+00 +3.5499999773596937e+00 -1.9565899720188585e-04 +0.0000000000000000e+00 +9.9999998085877784e-01
3.5999999999999952e+00 +8.3646429505163855e+00 +0.0000000000000000e+00 +3.5999999763890744e+00 -1.9841788706110959e-04 +0.0000000000000000e+00 +9.9999998031517046e-01
3.6499999999999950e+00 +8.3646329606471195e+00 +0.0000000000000000e+00 +3.6499999753910837e+00 -2.0117690503418498e-04 +0.0000000000000000e+00 +9.9999997976392585e-01
3.6999999999999948e+00 +8.3646228328237218e+00 +0.0000000000000000e+00 +3.6999999743653396e+00 -2.0393605263067165e-04 +0.0000000000000000e+00 +9.9999997920504258e-01
3.7499999999999947e+00 +8.3646125670396714e+00 +0.0000000000000000e+00 +3.7499999733114606e+00 -2.0669533134961518e-04 +0.0000000000000000e+00 +9.9999997863851930e-01
3.7999999999999945e+00 +8.3646021632883762e+00 +0.0000000000000000e+00 +3.7999999722290645e+00 -2.0945474267954702e-04 +0.0000000000000000e+00 +9.9999997806435470e-01
3.8499999999999943e+00 +8.3645916215631679e+00 +0.0000000000000000e+00 +3.8499999711177688e+00 -2.1221428809848459e-04 +0.0000000000000000e+00 +9.9999997748254732e-01
3.8999999999999941e+00 +8.3645809418573069e+00 +0.0000000000000000e+00 +3.8999999699771917e+00 -2.1497396907393127e-04 +0.0000000000000000e+00 +9.9999997689309561e-01
3.9499999999999940e+00 +8.3645701241639774e+00 +0.0000000000000000e+00 +3.9499999688069507e+00 -2.1773378706287644e-04 +0.0000000000000000e+00 +9.9999997629599824e-01
3.9999999999999938e+00 +8.3645591684762923e+00 +0.0000000000000000e+00 +3.9999999676066640e+00 -2.2049374351179553e-04 +0.0000000000000000e+00 +9.9999997569125376e-01
4.0499999999999936e+00 +8.3645480747872938e+00 +0.0000000000000000e+00 +4.0499999663759487e+00 -2.2325383985646180e-04 +0.0000000000000000e+00 +9.9999997507886074e-01
4.0999999999999934e+00 +8.3645368430899509e+00 +0.0000000000000000e+00 +4.0999999651144226e+00 -2.2601407751987696e-04 +0.0000000000000000e+00 +9.9999997445881761e-01
4.1499999999999932e+00 +8.3645254733771637e+00 +0.0000000000000000e+00 +4.1499999638217027e+00 -2.2877445791020157e-04 +0.0000000000000000e+00 +9.9999997383112293e-01
4.1999999999999931e+00 +8.3645139656417591e+00 +0.0000000000000000e+00 +4.1999999624974071e+00 -2.3153498242056686e-04 +0.0000000000000000e+00 +9.9999997319577516e-01
4.2499999999999929e+00 +8.3645023198764967e+00 +0.0000000000000000e+00 +4.2499999611411532e+00 -2.3429565242907488e-04 +0.0000000000000000e+00 +9.9999997255277284e-01
4.2999999999999927e+00 +8.3644905360740687e+00 +0.0000000000000000e+00 +4.2999999597525571e+00 -2.3705646929879836e-04 +0.0000000000000000e+00 +9.9999997190211443e-01
4.3499999999999925e+00 +8.3644786142270977e+00 +0.0000000000000000e+00 +4.3499999583312370e+00 -2.3981743437778079e-04 +0.0000000000000000e+00 +9.9999997124379836e-01
4.3999999999999924e+00 +8.3644665543281391e+00 +0.0000000000000000e+00 +4.3999999568768091e+00 -2.4257854899903638e-04 +0.0000000000000000e+00 +9.9999997057782308e-01
4.4499999999999922e+00 +8.3644543563696843e+00 +0.0000000000000000e+00 +4.4499999553888916e+00 -2.4533981448055008e-04 +0.0000000000000000e+00 +9.9999996990418705e-01
4.4999999999999920e+00 +8.3644420203441552e+00 +0.0000000000000000e+00 +4.4999999538671007e+00 -2.4810123212527758e-04 +0.0000000000000000e+00 +9.9999996922288859e-01
4.5499999999999918e+00 +8.3644295462439135e+00 +0.0000000000000000e+00 +4.5499999523110528e+00 -2.5086280322114533e-04 +0.0000000000000000e+00 +9.9999996853392625e-01
4.5999999999999917e+00 +8.3644169340612535e+00 +0.0000000000000000e+00 +4.5999999507203650e+00 -2.5362452904105048e-04 +0.0000000000000000e+00 +9.9999996783729839e-01
4.6499999999999915e+00 +8.3644041837884089e+00 +0.0000000000000000e+00 +4.6499999490946546e+00 -2.5638641084286087e-04 +0.0000000000000000e+00 +9.9999996713300343e-01
4.6999999999999913e+00 +8.3643912954175494e+00 +0.0000000000000000e+00 +4.6999999474335379e+00 -2.5914844986941511e-04 +0.0000000000000000e+00 +9.9999996642103972e-01
4.7499999999999911e+00 +8.3643782689407811e+00 +0.0000000000000000e+00 +4.7499999457366311e+00 -2.6191064734852246e-04 +0.0000000000000000e+00 +9.9999996570140559e-01
4.7999999999999909e+00 +8.3643651043501528e+00 +0.0000000000000000e+00 +4.7999999440035506e+00 -2.6467300449296296e-04 +0.0000000000000000e+00 +9.9999996497409949e-01
4.8499999999999908e+00 +8.3643518016376515e+00 +0.0000000000000000e+00 +4.8499999422339126e+00 -2.6743552250048716e-04 +0.0000000000000000e+00 +9.9999996423911974e-01
4.8999999999999906e+00 +8.3643383607952035e+00 +0.0000000000000000e+00 +4.8999999404273344e+00 -2.7019820255381647e-04 +0.0000000000000000e+00 +9.9999996349646469e-01
4.9499999999999904e+00 +8.3643247818146769e+00 +0.0000000000000000e+00 +4.9499999385834315e+00 -2.7296104582064280e-04 +0.0000000000000000e+00 +9.9999996274613268e-01
4.9999999999999902e+00 +8.3643110646878824e+00 +0.0000000000000000e+00 +4.9999999367018200e+00 -2.7572405345362876e-04 +0.0000000000000000e+00 +9.9999996198812213e-01
5.0499999999999901e+00 +8.3642972094065726e+00 +0.0000000000000000e+00 +5.0499999347821154e+00 -2.7848722659040752e-04 +0.0000000000000000e+00 +9.9999996122243129e-01
5.0999999999999899e+00 +8.3642832159624447e+00 +0.0000000000000000e+00 +5.0999999328239349e+00 -2.8125056635358288e-04 +0.0000000000000000e+00 +9.9999996044905837e-01
5.1499999999999897e+00 +8.3642690843471410e+00 +0.0000000000000000e+00 +5.1499999308268931e+00 -2.8401407385072926e-04 +0.0000000000000000e+00 +9.9999995966800181e-01
5.1999999999999895e+00 +8.3642548145522468e+00 +0.0000000000000000e+00 +5.1999999287906071e+00 -2.8677775017439151e-04 +0.0000000000000000e+00 +9.9999995887925985e-01
5.2499999999999893e+00 +8.3642404065692926e+00 +0.0000000000000000e+00 +5.2499999267146915e+00 -2.8954159640208509e-04 +0.0000000000000000e+00 +9.9999995808283082e-01
5.2999999999999892e+00 +8.3642258603897570e+00 +0.0000000000000000e+00 +5.2999999245987626e+00 -2.9230561359629593e-04 +0.0000000000000000e+00 +9.9999995727871294e-01
5.3499999999999890e+00 +8.3642111760050657e+00 +0.0000000000000000e+00 +5.3499999224424348e+00 -2.9506980280448041e-04 +0.0000000000000000e+00 +9.9999995646690454e-01
5.3999999999999888e+00 +8.3641963534065926e+00 +0.0000000000000000e+00 +5.3999999202453246e+00 -2.9783416505906540e-04 +0.0000000000000000e+00 +9.9999995564740385e-01
5.4499999999999886e+00 +8.3641813925856585e+00 +0.0000000000000000e+00 +5.4499999180070473e+00 -3.0059870137744810e-04 +0.0000000000000000e+00 +9.9999995482020909e-01
5.4999999999999885e+00 +8.3641662935335361e+00 +0.0000000000000000e+00 +5.4999999157272175e+00 -3.0336341276199620e-04 +0.0000000000000000e+00 +9.9999995398531860e-01
5.5499999999999883e+00 +8.3641510562414485e+00 +0.0000000000000000e+00 +5.5499999134054505e+00 -3.0612830020004762e-04 +0.0000000000000000e+00 +9.9999995314273060e-01
5.5999999999999881e+00 +8.3641356807005671e+00 +0.0000000000000000e+00 +5.5999999110413619e+00 -3.0889336466391064e-04 +0.0000000000000000e+00 +9.9999995229244332e-01
5.6499999999999879e+00 +8.3641201669020155e+00 +0.0000000000000000e+00 +5.6499999086345660e+00 -3.1165860711086378e-04 +0.0000000000000000e+00 +9.9999995143445497e-01
5.6999999999999877e+00 +8.3641045148368729e+00 +0.0000000000000000e+00 +5.6999999061846784e+00 -3.1442402848315583e-04 +0.0000000000000000e+00 +9.9999995056876378e-01
5.7499999999999876e+00 +8.3640887244961686e+00 +0.0000000000000000e+00 +5.7499999036913136e+00 -3.1718962970800574e-04 +0.0000000000000000e+00 +9.9999994969536798e-01
5.7999999999999874e+00 +8.3640727958708894e+00 +0.0000000000000000e+00 +5.7999999011540870e+00 -3.1995541169760268e-04 +0.0000000000000000e+00 +9.9999994881426579e-01
5.8499999999999872e+00 +8.3640567289519723e+00 +0.0000000000000000e+00 +5.8499998985726123e+00 -3.2272137534910584e-04 +0.0000000000000000e+00 +9.9999994792545543e-01
5.8999999999999870e+00 +8.3640405237303117e+00 +0.0000000000000000e+00 +5.8999998959465039e+00 -3.2548752154464456e-04 +0.0000000000000000e+00 +9.9999994702893513e-01
