# field on trajectory
# s[mm] rx[mm] ry[mm] rz[mm] bx[T] by[T] bz[T]
0.0000000000000000e+00 +8.5270000000000206e+00 +0.0000000000000000e+00 +0.0000000000000000e+00 -2.7496323154851589e-02 -5.2298328860061050e-01 +5.0917917851530520e-03
5.0000000000000003e-02 +8.5269999273587000e+00 +0.0000000000000000e+00 +5.1282051281982703e-02 -2.7495982867899716e-02 -5.2297528369693469e-01 +5.0920173738118095e-03
1.0000000000000001e-01 +8.5269997094401297e+00 +0.0000000000000000e+00 +1.0256410256355400e-01 -2.7495662562098257e-02 -5.2296766138847406e-01 +5.0922494748715545e-03
1.4999999999999999e-01 +8.5269993462388793e+00 +0.0000000000000000e+00 +1.5384615384430200e-01 -2.7495362150018660e-02 -5.2296042162890388e-01 +5.0924880515914005e-03
2.0000000000000001e-01 +8.5269988377622195e+00 +0.0000000000000000e+00 +2.0512820512381499e-01 -2.7495081544228646e-02 -5.2295356437182972e-01 +5.0927330672297542e-03
2.5000000000000000e-01 +8.5269981840028795e+00 +0.0000000000000000e+00 +2.5641025640168202e-01 -2.7494820657301765e-02 -5.2294708957097857e-01 +5.0929844850461656e-03
2.9999999999999999e-01 +8.5269973849644902e+00 +0.0000000000000000e+00 +3.0769230767749101e-01 -2.7494579401808484e-02 -5.2294099718001930e-01 +5.0932422682996130e-03
3.4999999999999998e-01 +8.5269964406470500e+00 +0.0000000000000000e+00 +3.5897435895083102e-01 -2.7494357690321297e-02 -5.2293528715266646e-01 +5.0935063802495083e-03
4.0000000000000002e-01 +8.5269953510505694e+00 +0.0000000000000000e+00 +4.1025641022129000e-01 -2.7494155435413527e-02 -5.2292995944265275e-01 +5.0937767841554432e-03
4.5000000000000001e-01 +8.5269941161714105e+00 +0.0000000000000000e+00 +4.6153846148845601e-01 -2.7493972549660548e-02 -5.2292501400375468e-01 +5.0940534432774645e-03
5.0000000000000000e-01 +8.5269927360132005e+00 +0.0000000000000000e+00 +5.1282051275191798e-01 -2.7493808945636036e-02 -5.2292045078971827e-01 +5.0943363208753268e-03
5.5000000000000004e-01 +8.5269912105795793e+00 +0.0000000000000000e+00 +5.6410256401126402e-01 -2.7493664535914501e-02 -5.2291626975430705e-01 +5.0946253802090120e-03
5.9999999999999998e-01 +8.5269895398632798e+00 +0.0000000000000000e+00 +6.1538461526608301e-01 -2.7493539233075206e-02 -5.2291247085137849e-01 +5.0949205845394674e-03
6.5000000000000002e-01 +8.5269877238679292e+00 +0.0000000000000000e+00 +6.6666666651596296e-01 -2.7493432949694419e-02 -5.2290905403473409e-01 +5.0952218971271421e-03
6.9999999999999996e-01 +8.5269857625899004e+00 +0.0000000000000000e+00 +7.1794871776049296e-01 -2.7493345598351964e-02 -5.2290601925824332e-01 +5.0955292812332282e-03
7.5000000000000000e-01 +8.5269836560364602e+00 +0.0000000000000000e+00 +7.6923076899926102e-01 -2.7493277091624694e-02 -5.2290336647571889e-01 +5.0958427001184343e-03
8.0000000000000004e-01 +8.5269814042003400e+00 +0.0000000000000000e+00 +8.2051282023185501e-01 -2.7493227342095555e-02 -5.2290109564109122e-01 +5.0961621170447259e-03
8.4999999999999998e-01 +8.5269790070851705e+00 +0.0000000000000000e+00 +8.7179487145786405e-01 -2.7493196262344692e-02 -5.2289920670823498e-01 +5.0964874952736114e-03
9.0000000000000002e-01 +8.5269764646909607e+00 +0.0000000000000000e+00 +9.2307692267687602e-01 -2.7493183764954476e-02 -5.2289769963106658e-01 +5.0968187980671310e-03
9.4999999999999996e-01 +8.5269737770140601e+00 +0.0000000000000000e+00 +9.7435897388848103e-01 -2.7493189762509616e-02 -5.2289657436354664e-01 +5.0971559886878771e-03
1.0000000000000000e+00 +8.5269709440617607e+00 +0.0000000000000000e+00 +1.0256410250922601e+00 -2.7493214167592026e-02 -5.2289583085957680e-01 +5.0974990303980020e-03
1.0500000000000000e+00 +8.5269679658304103e+00 +0.0000000000000000e+00 +1.0769230762878199e+00 -2.7493256892788514e-02 -5.2289546907315310e-01 +5.0978478864607260e-03
1.1000000000000001e+00 +8.5269648423163709e+00 +0.0000000000000000e+00 +1.1282051274747300e+00 -2.7493317850687007e-02 -5.2289548895828897e-01 +5.0982025201395942e-03
1.1499999999999999e+00 +8.5269615735232893e+00 +0.0000000000000000e+00 +1.1794871786525800e+00 -2.7493396953873966e-02 -5.2289589046896412e-01 +5.0985628946980032e-03
1.2000000000000000e+00 +8.5269581594511692e+00 +0.0000000000000000e+00 +1.2307692298209700e+00 -2.7493494114938268e-02 -5.2289667355920189e-01 +5.0989289733999309e-03
1.2500000000000000e+00 +8.5269546000999998e+00 +0.0000000000000000e+00 +1.2820512809794800e+00 -2.7493609246469930e-02 -5.2289783818304258e-01 +5.0993007195097350e-03
1.3000000000000000e+00 +8.5269508954661397e+00 +0.0000000000000000e+00 +1.3333333321277101e+00 -2.7493742261061493e-02 -5.2289938429456839e-01 +5.0996780962923784e-03
1.3500000000000001e+00 +8.5269470455568808e+00 +0.0000000000000000e+00 +1.3846153832652299e+00 -2.7493893071302785e-02 -5.2290131184780497e-01 +5.1000610670124584e-03
1.3999999999999999e+00 +8.5269430503649293e+00 +0.0000000000000000e+00 +1.4358974343916400e+00 -2.7494061589790012e-02 -5.2290362079689323e-01 +5.1004495949359572e-03
1.4500000000000000e+00 +8.5269389098939392e+00 +0.0000000000000000e+00 +1.4871794855065199e+00 -2.7494247729116746e-02 -5.2290631109591723e-01 +5.1008436433285101e-03
1.5000000000000000e+00 +8.5269346241439106e+00 +0.0000000000000000e+00 +1.5384615366094700e+00 -2.7494451401879148e-02 -5.2290938269900233e-01 +5.1012431754564125e-03
1.5500000000000000e+00 +8.5269301931148203e+00 +0.0000000000000000e+00 +1.5897435877000701e+00 -2.7494672520674637e-02 -5.2291283556029133e-01 +5.1016481545863761e-03
1.6000000000000001e+00 +8.5269256168030605e+00 +0.0000000000000000e+00 +1.6410256387779201e+00 -2.7494910998103226e-02 -5.2291666963396799e-01 +5.1020585439857900e-03
1.6499999999999999e+00 +8.5269208952158806e+00 +0.0000000000000000e+00 +1.6923076898425899e+00 -2.7495166746762428e-02 -5.2292088487415811e-01 +5.1024743069217407e-03
1.7000000000000000e+00 +8.5269160283460206e+00 +0.0000000000000000e+00 +1.7435897408936800e+00 -2.7495439679256193e-02 -5.2292548123510374e-01 +5.1028954066627517e-03
1.7500000000000000e+00 +8.5269110161934805e+00 +0.0000000000000000e+00 +1.7948717919307799e+00 -2.7495729708187311e-02 -5.2293045867101351e-01 +5.1033218064773147e-03
1.8000000000000000e+00 +8.5269058587655309e+00 +0.0000000000000000e+00 +1.8461538429534701e+00 -2.7496036746157394e-02 -5.2293581713606230e-01 +5.1037534696338899e-03
1.8500000000000001e+00 +8.5269005560585391e+00 +0.0000000000000000e+00 +1.8974358939613500e+00 -2.7496360705773316e-02 -5.2294155658451646e-01 +5.1041903594021580e-03
1.8999999999999999e+00 +8.5268951080688602e+00 +0.0000000000000000e+00 +1.9487179449540000e+00 -2.7496701499643367e-02 -5.2294767697065803e-01 +5.1046324390523019e-03
1.9500000000000000e+00 +8.5268895148037700e+00 +0.0000000000000000e+00 +1.9999999959310100e+00 -2.7497059040373494e-02 -5.2295417824871016e-01 +5.1050796718542426e-03
2.0000000000000000e+00 +8.5268838253941794e+00 +0.0000000000000000e+00 +2.0508474532398102e+00 -2.7497430026745380e-02 -5.2296100016664315e-01 +5.1055281668240136e-03
2.0499999999999998e+00 +8.5268779929429002e+00 +0.0000000000000000e+00 +2.1016949105324101e+00 -2.7497817468729792e-02 -5.2296819475580347e-01 +5.1059816596718266e-03
2.1000000000000001e+00 +8.5268720174499304e+00 +0.0000000000000000e+00 +2.1525423678083899e+00 -2.7498221443561371e-02 -5.2297576026740300e-01 +5.1064401181899867e-03
2.1499999999999999e+00 +8.5268658989189099e+00 +0.0000000000000000e+00 +2.2033898250673700e+00 -2.7498642028475146e-02 -5.2298369495264208e-01 +5.1069035101707991e-03
2.2000000000000002e+00 +8.5268596373498404e+00 +0.0000000000000000e+00 +2.2542372823089400e+00 -2.7499079300709023e-02 -5.2299199706275934e-01 +5.1073718034070504e-03
2.2500000000000000e+00 +8.5268532327390893e+00 +0.0000000000000000e+00 +2.3050847395326799e+00 -2.7499533337503861e-02 -5.2300066484903007e-01 +5.1078449656920145e-03
2.2999999999999998e+00 +8.5268466850902804e+00 +0.0000000000000000e+00 +2.3559321967382099e+00 -2.7500004216099709e-02 -5.2300969656269403e-01 +5.1083229648187008e-03
2.3500000000000001e+00 +8.5268399943961395e+00 +0.0000000000000000e+00 +2.4067796539251201e+00 -2.7500492013742096e-02 -5.2301909045507589e-01 +5.1088057685810748e-03
2.3999999999999999e+00 +8.5268331606675893e+00 +0.0000000000000000e+00 +2.4576271110930099e+00 -2.7500996807671926e-02 -5.2302884477738920e-01 +5.1092933447720850e-03
2.4500000000000002e+00 +8.5268261838973594e+00 +0.0000000000000000e+00 +2.5084745682414700e+00 -2.7501518675138312e-02 -5.2303895778098353e-01 +5.1097856611861236e-03
2.5000000000000000e+00 +8.5268190640890698e+00 +0.0000000000000000e+00 +2.5593220253701001e+00 -2.7502057693388288e-02 -5.2304942771714569e-01 +5.1102826856170500e-03
2.5499999999999998e+00 +8.5268118012427294e+00 +0.0000000000000000e+00 +2.6101694824785100e+00 -2.7502613939672023e-02 -5.2306025283719859e-01 +5.1107843858591616e-03
2.6000000000000001e+00 +8.5268043953510606e+00 +0.0000000000000000e+00 +2.6610169395662799e+00 -2.7503187491244117e-02 -5.2307143139252699e-01 +5.1112907297074552e-03
2.6499999999999999e+00 +8.5267968464213499e+00 +0.0000000000000000e+00 +2.7118643966330200e+00 -2.7503778425355889e-02 -5.2308296163442547e-01 +5.1118016849561031e-03
2.7000000000000002e+00 +8.5267891544535797e+00 +0.0000000000000000e+00 +2.7627118536783102e+00 -2.7504386819263153e-02 -5.2309484181425137e-01 +5.1123172193999712e-03
2.7500000000000000e+00 +8.5267813194441295e+00 +0.0000000000000000e+00 +2.8135593107017698e+00 -2.7505012750224968e-02 -5.2310707018339575e-01 +5.1128373008343369e-03
2.7999999999999998e+00 +8.5267733413966198e+00 +0.0000000000000000e+00 +2.8644067677029899e+00 -2.7505656295499767e-02 -5.2311964499321184e-01 +5.1133618970541552e-03
2.8500000000000001e+00 +8.5267652203074196e+00 +0.0000000000000000e+00 +2.9152542246815600e+00 -2.7506317532350551e-02 -5.2313256449511214e-01 +5.1138909758550351e-03
2.8999999999999999e+00 +8.5267569561765395e+00 +0.0000000000000000e+00 +2.9661016816370900e+00 -2.7506996538041055e-02 -5.2314582694049439e-01 +5.1144245050324952e-03
2.9500000000000002e+00 +8.5267485490112396e+00 +0.0000000000000000e+00 +3.0169491385691698e+00 -2.7507693389834505e-02 -5.2315943058071634e-01 +5.1149624523817048e-03
3.0000000000000000e+00 +8.5267399988042598e+00 +0.0000000000000000e+00 +3.0677965954773900e+00 -2.7508408165001354e-02 -5.2317337366724548e-01 +5.1155047856989754e-03
3.0499999999999998e+00 +8.5267313055555896e+00 +0.0000000000000000e+00 +3.1186440523613599e+00 -2.7509140940811531e-02 -5.2318765445150828e-01 +5.1160514727802532e-03
3.1000000000000001e+00 +8.5267224692688597e+00 +0.0000000000000000e+00 +3.1694915092206801e+00 -2.7509891794535883e-02 -5.2320227118491613e-01 +5.1166024814213763e-03
3.1499999999999999e+00 +8.5267134899368102e+00 +0.0000000000000000e+00 +3.2203389660549400e+00 -2.7510660803451232e-02 -5.2321722211896438e-01 +5.1171577794190499e-03
3.2000000000000002e+00 +8.5267043675703498e+00 +0.0000000000000000e+00 +3.2711864228637300e+00 -2.7511448044830161e-02 -5.2323250550503109e-01 +5.1177173345688500e-03
3.2500000000000000e+00 +8.5266951021658297e+00 +0.0000000000000000e+00 +3.3220338796466700e+00 -2.7512253595952614e-02 -5.2324811959460482e-01 +5.1182811146674697e-03
3.2999999999999998e+00 +8.5266856937196298e+00 +0.0000000000000000e+00 +3.3728813364033301e+00 -2.7513077534100774e-02 -5.2326406263918068e-01 +5.1188490875117097e-03
3.3500000000000001e+00 +8.5266761422317394e+00 +0.0000000000000000e+00 +3.4237287931333298e+00 -2.7513919936557812e-02 -5.2328033289023901e-01 +5.1194212208982215e-03
3.3999999999999999e+00 +8.5266664477057894e+00 +0.0000000000000000e+00 +3.4745762498362600e+00 -2.7514780880607905e-02 -5.2329692859924126e-01 +5.1199974826235031e-03
3.4500000000000002e+00 +8.5266566101381596e+00 +0.0000000000000000e+00 +3.5254237065117100e+00 -2.7515660443540105e-02 -5.2331384801770764e-01 +5.1205778404846396e-03
3.5000000000000000e+00 +8.5266466295324808e+00 +0.0000000000000000e+00 +3.5762711631592898e+00 -2.7516558702643263e-02 -5.2333108939711626e-01 +5.1211622622783053e-03
3.5499999999999998e+00 +8.5266365058887494e+00 +0.0000000000000000e+00 +3.6271186197785901e+00 -2.7517475735209879e-02 -5.2334865098897687e-01 +5.1217507158015010e-03
3.6000000000000001e+00 +8.5266262391996896e+00 +0.0000000000000000e+00 +3.6779660763692101e+00 -2.7518411618537464e-02 -5.2336653104485675e-01 +5.1223431688517986e-03
3.6499999999999999e+00 +8.5266158294762100e+00 +0.0000000000000000e+00 +3.7288135329307499e+00 -2.7519366429919478e-02 -5.2338472781620604e-01 +5.1229395892255850e-03
3.6999999999999900e+00 +8.5266052767074108e+00 +0.0000000000000000e+00 +3.7796609894627999e+00 -2.7520340246659582e-02 -5.2340323955463020e-01 +5.1235399447208093e-03
3.7499999999999898e+00 +8.5265945809042005e+00 +0.0000000000000000e+00 +3.8305084459649699e+00 -2.7521333146056218e-02 -5.2342206451159190e-01 +5.1241442031339721e-03
3.7999999999999901e+00 +8.5265837420592998e+00 +0.0000000000000000e+00 +3.8813559024368498e+00 -2.7522345205416743e-02 -5.2344120093868540e-01 +5.1247523322628750e-03
3.8499999999999899e+00 +8.5265727601727104e+00 +0.0000000000000000e+00 +3.9322033588780299e+00 -2.7523376502048516e-02 -5.2346064708746121e-01 +5.1253642999048634e-03
3.8999999999999901e+00 +8.5265616352480702e+00 +0.0000000000000000e+00 +3.9830508152881201e+00 -2.7524427113260159e-02 -5.2348040120945072e-01 +5.1259800738570668e-03
3.9499999999999900e+00 +8.5265503672853793e+00 +0.0000000000000000e+00 +4.0338982716667102e+00 -2.7525497099906916e-02 -5.2350046152866780e-01 +5.1265996203770439e-03
3.9999999999999898e+00 +8.5265389562773599e+00 +0.0000000000000000e+00 +4.0847457280134103e+00 -2.7526586331532519e-02 -5.2352082594893667e-01 +5.1272228878221238e-03
4.0499999999999901e+00 +8.5265274022313005e+00 +0.0000000000000000e+00 +4.1355931843278002e+00 -2.7527694554245048e-02 -5.2354149216737789e-01 +5.1278498129994068e-03
4.0999999999999899e+00 +8.5265157051508105e+00 +0.0000000000000000e+00 +4.1864406406094901e+00 -2.7528821512095233e-02 -5.2356245787770161e-01 +5.1284803325233322e-03
4.1499999999999897e+00 +8.5265038650250098e+00 +0.0000000000000000e+00 +4.2372880968580704e+00 -2.7529966949137355e-02 -5.2358372077372617e-01 +5.1291143830088561e-03
4.1999999999999904e+00 +8.5264918818611495e+00 +0.0000000000000000e+00 +4.2881355530731398e+00 -2.7531130609417583e-02 -5.2360527854915262e-01 +5.1297519010691925e-03
4.2499999999999902e+00 +8.5264797556556005e+00 +0.0000000000000000e+00 +4.3389830092543002e+00 -2.7532312236984147e-02 -5.2362712889776375e-01 +5.1303928233178012e-03
4.2999999999999901e+00 +8.5264674864120007e+00 +0.0000000000000000e+00 +4.3898304654011504e+00 -2.7533511575880857e-02 -5.2364926951330149e-01 +5.1310370863671033e-03
4.3499999999999899e+00 +8.5264550741303502e+00 +0.0000000000000000e+00 +4.4406779215132799e+00 -2.7534728370150821e-02 -5.2367169808953906e-01 +5.1316846268292171e-03
4.3999999999999897e+00 +8.5264425188070199e+00 +0.0000000000000000e+00 +4.4915253775902899e+00 -2.7535962363836333e-02 -5.2369441232028202e-01 +5.1323353813159433e-03
4.4499999999999904e+00 +8.5264298204419902e+00 +0.0000000000000000e+00 +4.5423728336317897e+00 -2.7537213300976249e-02 -5.2371740989931892e-01 +5.1329892864382413e-03
4.4999999999999902e+00 +8.5264169790425495e+00 +0.0000000000000000e+00 +4.5932202896373502e+00 -2.7538480925604587e-02 -5.2374068852039402e-01 +5.1336462788059509e-03
4.5499999999999901e+00 +8.5264039945941494e+00 +0.0000000000000000e+00 +4.6440677456066002e+00 -2.7539764981760691e-02 -5.2376424587741033e-01 +5.1343062950297948e-03
4.5999999999999899e+00 +8.5263908671149693e+00 +0.0000000000000000e+00 +4.6949152015391098e+00 -2.7541065213469856e-02 -5.2378807966405072e-01 +5.1349692717175700e-03
4.6499999999999897e+00 +8.5263775965941004e+00 +0.0000000000000000e+00 +4.7457626574344998e+00 -2.7542381364765126e-02 -5.2381218757420622e-01 +5.1356351454784231e-03
4.6999999999999904e+00 +8.5263641830315500e+00 +0.0000000000000000e+00 +4.7966101132923500e+00 -2.7543713179673007e-02 -5.2383656730169903e-01 +5.1363038529200532e-03
4.7499999999999902e+00 +8.5263506264309399e+00 +0.0000000000000000e+00 +4.8474575691122697e+00 -2.7545060402215937e-02 -5.2386121654033224e-01 +5.1369753306491905e-03
4.7999999999999901e+00 +8.5263369267886393e+00 +0.0000000000000000e+00 +4.8983050248938502e+00 -2.7546422776416096e-02 -5.2388613298396636e-01 +5.1376495152723441e-03
4.8499999999999899e+00 +8.5263230841010191e+00 +0.0000000000000000e+00 +4.9491524806366902e+00 -2.7547800046292693e-02 -5.2391131432646754e-01 +5.1383263433952683e-03
4.8999999999999897e+00 +8.5263090983826295e+00 +0.0000000000000000e+00 +4.9999999363403900e+00 -2.7549191955855392e-02 -5.2393675826158226e-01 +5.1390057516216741e-03
4.9499999999999904e+00 +8.5262950649157592e+00 +0.0000000000000000e+00 +5.0505049848957304e+00 -2.7550588731713212e-02 -5.2396228852774940e-01 +5.1396830762162615e-03
4.9999999999999902e+00 +8.5262808896768494e+00 +0.0000000000000000e+00 +5.1010100334114901e+00 -2.7551999447581757e-02 -5.2398807333135478e-01 +5.1403628216588285e-03
5.0499999999999901e+00 +8.5262665726659197e+00 +0.0000000000000000e+00 +5.1515150818872497e+00 -2.7553423852603190e-02 -5.2401411041254120e-01 +5.1410449258239010e-03
5.0999999999999899e+00 +8.5262521138793108e+00 +0.0000000000000000e+00 +5.2020201303226203e+00 -2.7554861695917660e-02 -5.2404039751148257e-01 +5.1417293265854308e-03
5.1499999999999897e+00 +8.5262375133206696e+00 +0.0000000000000000e+00 +5.2525251787172103e+00 -2.7556312726659239e-02 -5.2406693236830804e-01 +5.1424159618160123e-03
5.1999999999999904e+00 +8.5262227709863492e+00 +0.0000000000000000e+00 +5.3030302270706198e+00 -2.7557776693961047e-02 -5.2409371272320227e-01 +5.1431047693878797e-03
5.2499999999999902e+00 +8.5262078868836397e+00 +0.0000000000000000e+00 +5.3535352753824403e+00 -2.7559253346948687e-02 -5.2412073631627909e-01 +5.1437956871716118e-03
5.2999999999999901e+00 +8.5261928610125306e+00 +0.0000000000000000e+00 +5.4040403236522803e+00 -2.7560742434746582e-02 -5.2414800088770785e-01 +5.1444886530373976e-03
5.3499999999999899e+00 +8.5261776933584805e+00 +0.0000000000000000e+00 +5.4545453718797399e+00 -2.7562243706480527e-02 -5.2417550417776504e-01 +5.1451836048555157e-03
5.3999999999999897e+00 +8.5261623839360308e+00 +0.0000000000000000e+00 +5.5050504200644301e+00 -2.7563756911262043e-02 -5.2420324392652839e-01 +5.1458804804932583e-03
5.4499999999999904e+00 +8.5261469327415398e+00 +0.0000000000000000e+00 +5.5555554682059496e+00 -2.7565281798205048e-02 -5.2423121787420723e-01 +5.1465792178182262e-03
5.4999999999999902e+00 +8.5261313397750200e+00 +0.0000000000000000e+00 +5.6060605163038897e+00 -2.7566818116418094e-02 -5.2425942376099099e-01 +5.1472797546967871e-03
5.5499999999999901e+00 +8.5261156050328299e+00 +0.0000000000000000e+00 +5.6565655643578596e+00 -2.7568365615006783e-02 -5.2428785932709798e-01 +5.1479820289945530e-03
5.5999999999999899e+00 +8.5260997285186004e+00 +0.0000000000000000e+00 +5.7070706123674597e+00 -2.7569924043069825e-02 -5.2431652231270054e-01 +5.1486859785756078e-03
5.6499999999999897e+00 +8.5260837102287006e+00 +0.0000000000000000e+00 +5.7575756603323001e+00 -2.7571493149704120e-02 -5.2434541045802630e-01 +5.1493915413034939e-03
5.6999999999999904e+00 +8.5260675501704100e+00 +0.0000000000000000e+00 +5.8080807082519703e+00 -2.7573072683998140e-02 -5.2437452150322983e-01 +5.1500986550399360e-03
5.7499999999999902e+00 +8.5260512483400799e+00 +0.0000000000000000e+00 +5.8585857561260797e+00 -2.7574662395039713e-02 -5.2440385318854765e-01 +5.1508072576463369e-03
5.7999999999999901e+00 +8.5260348047340795e+00 +0.0000000000000000e+00 +5.9090908039542303e+00 -2.7576262031911918e-02 -5.2443340325421872e-01 +5.1515172869829986e-03
5.8499999999999899e+00 +8.5260182193524106e+00 +0.0000000000000000e+00 +5.9595958517360303e+00 -2.7577871343691777e-02 -5.2446316944046090e-01 +5.1522286809088536e-03
5.8999999999999897e+00 +8.5260014921987004e+00 +0.0000000000000000e+00 +6.0101008994710599e+00 -2.7579490079572163e-02 -5.2449314948652814e-01 +5.1529413773452899e-03
