# multipoles
# s[mm] polynom_b[n=0][T/m^n] polynom_b[n=1][T/m^n] polynom_b[n=2][T/m^n] polynom_b[n=3][T/m^n] polynom_b[n=4][T/m^n] polynom_b[n=5][T/m^n] polynom_b[n=6][T/m^n] 
+0.0000000000000000e+00 -5.5361400762946189e-01 +7.2503585512101152e+00 +5.0401049892974266e+00 +1.8879765230782411e+01 +4.4750912701149127e+03 -4.4285340870035603e+05 -2.3945819925571471e+07 
-5.0000000000000003e-02 -5.5361522121456119e-01 +7.2504360351373434e+00 +5.0427513615535426e+00 +1.8404582941108909e+01 +4.4206688715113332e+03 -4.3962241599466506e+05 -2.3706094691109516e+07 
-1.0000000000000001e-01 -5.5361679355819604e-01 +7.2505337043555498e+00 +5.0447160612978719e+00 +1.7921122533406812e+01 +4.3717189155952065e+03 -4.3633584185828909e+05 -2.3496616433289524e+07 
-1.5000000000000002e-01 -5.5361872376982701e-01 +7.2506514684936247e+00 +5.0460062787706779e+00 +1.7429929590333820e+01 +4.3280963488282559e+03 -4.3299645689460402e+05 -2.3316571802580938e+07 
-2.0000000000000001e-01 -5.5362101095894212e-01 +7.2507892371833895e+00 +5.0466292065008966e+00 +1.6931549602587719e+01 +4.2896560486344843e+03 -4.2960703097086225e+05 -2.3165146952683061e+07 
-2.5000000000000000e-01 -5.5362365423502768e-01 +7.2509469200555428e+00 +5.0465920336881060e+00 +1.6426528140606326e+01 +4.2562529860634922e+03 -4.2617033463180141e+05 -2.3041528686863955e+07 
-2.9999999999999999e-01 -5.5362665270761269e-01 +7.2511244267430666e+00 +5.0459019537341101e+00 +1.5915410701112100e+01 +4.2277420205971011e+03 -4.2268913780917507e+05 -2.2944903061809018e+07 
-3.4999999999999998e-01 -5.5363000548621843e-01 +7.2513216668783365e+00 +5.0445661562516184e+00 +1.5398742843356031e+01 +4.2039781088137242e+03 -4.1916621098782803e+05 -2.2874456768687632e+07 
-3.9999999999999997e-01 -5.5363371168039588e-01 +7.2515385500963339e+00 +5.0425918322658054e+00 +1.4877070029750696e+01 +4.1848161789380074e+03 -4.1560432380437525e+05 -2.2829376346698746e+07 
-4.4999999999999996e-01 -5.5363777039971473e-01 +7.2517749860334737e+00 +5.0399861741613581e+00 +1.4350937708395977e+01 +4.1701111121192771e+03 -4.1200624585005810e+05 -2.2808847976934440e+07 
-4.9999999999999994e-01 -5.5364218075375227e-01 +7.2520308843233003e+00 +5.0367563722992790e+00 +1.3820891465807126e+01 +4.1597178483700991e+03 -4.0837474783664697e+05 -2.2812058253428962e+07 
-5.4999999999999993e-01 -5.5364694185210062e-01 +7.2523061546065861e+00 +5.0329096165740426e+00 +1.3287476610788193e+01 +4.1534913431897376e+03 -4.0471259817319602e+05 -2.2838193888865720e+07 
-5.9999999999999998e-01 -5.5365205280438445e-01 +7.2526007065171898e+00 +5.0284530999335040e+00 +1.2751238781243041e+01 +4.1512864671395891e+03 -4.0102256804564077e+05 -2.2886441009676188e+07 
-6.5000000000000002e-01 -5.5365751272022612e-01 +7.2529144496961822e+00 +5.0233940123818535e+00 +1.2212723329353238e+01 +4.1529581678103132e+03 -3.9730742624209088e+05 -2.2955986257425059e+07 
-7.0000000000000007e-01 -5.5366332070927937e-01 +7.2532472937840531e+00 +5.0177395459331340e+00 +1.1672475661823132e+01 +4.1583613439870251e+03 -3.9356994200699276e+05 -2.3046015961473156e+07 
-7.5000000000000011e-01 -5.5366947588121229e-01 +7.2535991484162237e+00 +5.0114968929207926e+00 +1.1131041428641806e+01 +4.1673508803644854e+03 -3.8981288664038182e+05 -2.3155716337696485e+07 
-8.0000000000000016e-01 -5.5367597734569018e-01 +7.2539699232396471e+00 +5.0046732421449711e+00 +1.0588965825385330e+01 +4.1797817607963743e+03 -3.8603902766435029e+05 -2.3284274286863040e+07 
-8.5000000000000020e-01 -5.5368282421241288e-01 +7.2543595278926434e+00 +4.9972757857091361e+00 +1.0046794429372380e+01 +4.1955088786798378e+03 -3.8225113575972727e+05 -2.3430876094893154e+07 
-9.0000000000000024e-01 -5.5369001559108399e-01 +7.2547678720187410e+00 +4.9893117139645007e+00 +9.5050726320579368e+00 +4.2143871696356055e+03 -3.7845198008710588e+05 -2.3594708312172826e+07 
-9.5000000000000029e-01 -5.5369755059143211e-01 +7.2551948652614326e+00 +4.9807882181728047e+00 +8.9643458531801326e+00 +4.2362715551301308e+03 -3.7464433003854426e+05 -2.3774957435117040e+07 
-1.0000000000000002e+00 -5.5370542832320324e-01 +7.2556404172648552e+00 +4.9717124908722452e+00 +8.4251595194445148e+00 +4.2610169114047330e+03 -3.7083095510659867e+05 -2.3970809615399309e+07 
-1.0500000000000003e+00 -5.5371364789613819e-01 +7.2561044376737458e+00 +4.9620917201985240e+00 +7.8880590395793986e+00 +4.2884782397774707e+03 -3.6701462455059093e+05 -2.4181451871918809e+07 
-1.1000000000000003e+00 -5.5372220842001696e-01 +7.2565868361328461e+00 +4.9519330994251316e+00 +7.3535898825705974e+00 +4.3185103959294411e+03 -3.6319810826987709e+05 -2.4406070216262568e+07 
-1.1500000000000004e+00 -5.5373110900463507e-01 +7.2570875222892290e+00 +4.9412438206769433e+00 +6.8222974126869316e+00 +4.3509682762209095e+03 -3.5938417516583879e+05 -2.4643850969661262e+07 
-1.2000000000000004e+00 -5.5374034875977640e-01 +7.2576064057888248e+00 +4.9300310726841845e+00 +6.2947270869418217e+00 +4.3857068563170824e+03 -3.5557559497737890e+05 -2.4893980945639648e+07 
-1.2500000000000004e+00 -5.5374992679525281e-01 +7.2581433962806061e+00 +4.9183020455272528e+00 +5.7714242523446133e+00 +4.4225810855896070e+03 -3.5177513650135417e+05 -2.5155646820035558e+07 
-1.3000000000000005e+00 -5.5375984222090202e-01 +7.2586984034107225e+00 +4.9060639317942005e+00 +5.2529344213033076e+00 +4.4614458369537624e+03 -3.4798556999796868e+05 -2.5428034715869941e+07 
-1.3500000000000005e+00 -5.5377009414656819e-01 +7.2592713368290731e+00 +4.8933239225504757e+00 +4.7398029509827317e+00 +4.5021560280387048e+03 -3.4420966432439588e+05 -2.5710331077091273e+07 
-1.4000000000000006e+00 -5.5378068168210459e-01 +7.2598621061857758e+00 +4.8800892077057245e+00 +4.2325752306830813e+00 +4.5445666068654118e+03 -3.4045018868015800e+05 -2.6001722549859069e+07 
-1.4500000000000006e+00 -5.5379160393738402e-01 +7.2604706211279693e+00 +4.8663669782525405e+00 +3.7317967991935928e+00 +4.5885324916512009e+03 -3.3670991349154949e+05 -2.6301395577636469e+07 
-1.5000000000000007e+00 -5.5380286002229817e-01 +7.2610967913080318e+00 +4.8521644258423491e+00 +3.2380130004103465e+00 +4.6339085810499255e+03 -3.3299160756498424e+05 -2.6608536464086674e+07 
-1.5500000000000007e+00 -5.5381444904672550e-01 +7.2617405263754105e+00 +4.8374887377582754e+00 +2.7517693276823505e+00 +4.6805498889824903e+03 -3.2929804094854905e+05 -2.6922332286180232e+07 
-1.6000000000000008e+00 -5.5382637012061031e-01 +7.2624017359844828e+00 +4.8223471098586908e+00 +2.2736110916128065e+00 +4.7283112019412638e+03 -3.2563198215888732e+05 -2.7241968599969398e+07 
-1.6500000000000008e+00 -5.5383862235385761e-01 +7.2630803297841409e+00 +4.8067467288555994e+00 +1.8040838712853084e+00 +4.7770475481977746e+03 -3.2199620199848898e+05 -2.7566632573328979e+07 
-1.7000000000000008e+00 -5.5385120485641215e-01 +7.2637762174278686e+00 +4.7906947860258660e+00 +1.3437330651743875e+00 +4.8266138361255635e+03 -3.1839346970692213e+05 -2.7895510584560141e+07 
-1.7500000000000009e+00 -5.5386411673822877e-01 +7.2644893085688347e+00 +4.7741984718552457e+00 +8.9310411814545076e-01 +4.8768649903807755e+03 -3.1482655493464688e+05 -2.8227789095905993e+07 
-1.8000000000000009e+00 -5.5387735710926933e-01 +7.2652195128603534e+00 +4.7572649764165931e+00 +4.5274249824146107e-01 +4.9276559444682507e+03 -3.1129822754502145e+05 -2.8562654630063906e+07 
-1.8500000000000010e+00 -5.5389092507952253e-01 +7.2659667399579178e+00 +4.7399014909607970e+00 +2.3193598899265613e-02 +4.9788416071589563e+03 -3.0781125673089863e+05 -2.8899293565540966e+07 
-1.9000000000000010e+00 -5.5390481975898009e-01 +7.2667308995121651e+00 +4.7221152056628073e+00 -3.9499694621881015e-01 +5.0302769078027768e+03 -3.0436841372792487e+05 -2.9236892390098333e+07 
-1.9500000000000011e+00 -5.5391904025764027e-01 +7.2675119011805478e+00 +4.7039133095826413e+00 -8.0128376899239007e-01 +5.0818168066331118e+03 -3.0097246754836000e+05 -2.9574637807317842e+07 
-2.0000000000000009e+00 -5.5393358568552964e-01 +7.2683096546171502e+00 +4.6853029940408231e+00 -1.1951213356150954e+00 +5.1333162038709452e+03 -2.9762618854943791e+05 -2.9911716116607368e+07 
-2.0500000000000007e+00 -5.5394845496874046e-01 +7.2691240610643248e+00 +4.6662913598715416e+00 -1.5760773438731348e+00 +5.1846411930429185e+03 -2.9433177898951108e+05 -3.0247342084734153e+07 
-2.1000000000000005e+00 -5.5396364629774975e-01 +7.2699549832842267e+00 +4.6468854150815320e+00 -1.9441771444137812e+00 +5.2357049001429377e+03 -2.9108934178073757e+05 -3.0580853620145127e+07 
-2.1500000000000004e+00 -5.5397915767913442e-01 +7.2708022732144721e+00 +4.6270922132107817e+00 -2.2995622786341086e+00 +5.2864329460763684e+03 -2.8789849972268229e+05 -3.0911622501483656e+07 
-2.2000000000000002e+00 -5.5399498711951245e-01 +7.2716657827910263e+00 +4.6069188123881366e+00 -2.6423742332038569e+00 +5.3367508317635720e+03 -2.8475887598680990e+05 -3.1239019706433821e+07 
-2.2500000000000000e+00 -5.5401113262548951e-01 +7.2725453639514788e+00 +4.5863722669885520e+00 -2.9727545193069540e+00 +5.3865841592583247e+03 -2.8167009365793545e+05 -3.1562416896538947e+07 
-2.2999999999999998e+00 -5.5402759220367226e-01 +7.2734408686326031e+00 +4.5654596299587098e+00 -3.2908446167024366e+00 +5.4358585665442906e+03 -2.7863177603119588e+05 -3.1881185969431318e+07 
-2.3499999999999996e+00 -5.5404436386071498e-01 +7.2743521487738603e+00 +4.5441879602888982e+00 -3.5967860761004391e+00 +5.4844995296368479e+03 -2.7564354592322692e+05 -3.2194697727976136e+07 
-2.3999999999999995e+00 -5.5406144560324000e-01 +7.2752790563126544e+00 +4.5225643101586561e+00 -3.8907203673011970e+00 +5.5324327053852485e+03 -2.7270502677060704e+05 -3.2502324188477110e+07 
-2.4499999999999993e+00 -5.5407883543790137e-01 +7.2762214431900141e+00 +4.5005957350766677e+00 -4.1727890834561219e+00 +5.5795836654321602e+03 -2.6981584104939288e+05 -3.2803436809642639e+07 
-2.4999999999999991e+00 -5.5409653137137937e-01 +7.2771791613417038e+00 +4.4782892937103114e+00 -4.4431335815016402e+00 +5.6258778919291299e+03 -2.6697561323294998e+05 -3.3097406428289410e+07 
-2.5499999999999989e+00 -5.5411453141031641e-01 +7.2781520627085641e+00 +4.4556520365574368e+00 -4.7018954193506763e+00 +5.6712410865035481e+03 -2.6418396613426442e+05 -3.3383605360706955e+07 
-2.5999999999999988e+00 -5.5413283356140897e-01 +7.2791399992309875e+00 +4.4326910217374067e+00 -4.9492161206543202e+00 +5.7155987484195030e+03 -2.6144052288132950e+05 -3.3661404569561139e+07 
-2.6499999999999986e+00 -5.5415143583134219e-01 +7.2801428228485356e+00 +4.4094133040460051e+00 -5.1852371506559223e+00 +5.7588764615038817e+03 -2.5874490715527500e+05 -3.3930175568100497e+07 
-2.6999999999999984e+00 -5.5417033622680567e-01 +7.2811603855007947e+00 +4.3858259369962376e+00 -5.4100999755495325e+00 +5.8009998499854601e+03 -2.5609674260454535e+05 -3.4189290164094791e+07 
-2.7499999999999982e+00 -5.5418953275450922e-01 +7.2821925391296061e+00 +4.3619359769999102e+00 -5.6239461273787086e+00 +5.8418944526582254e+03 -2.5349565241930677e+05 -3.4438119562957034e+07 
-2.7999999999999980e+00 -5.5420902342116840e-01 +7.2832391356737105e+00 +4.3377504793534536e+00 -5.8269170079092634e+00 +5.8814858420834762e+03 -2.5094126086729579e+05 -3.4676035208911642e+07 
-2.8499999999999979e+00 -5.5422880623350856e-01 +7.2843000270742264e+00 +4.3132764995649397e+00 -6.0191540977765277e+00 +5.9196995871768086e+03 -2.4843319160456173e+05 -3.4902408532095022e+07 
-2.8999999999999977e+00 -5.5424887919825350e-01 +7.2853750652738603e+00 +4.2885210920176453e+00 -6.2007989302784576e+00 +5.9564612805499246e+03 -2.4597106791357897e+05 -3.5116611094490446e+07 
-2.9499999999999975e+00 -5.5426924032214431e-01 +7.2864641022141337e+00 +4.2634913125737670e+00 -6.3719929831780382e+00 +5.9916964783076310e+03 -2.4355451354017577e+05 -3.5318014227704972e+07 
-2.9999999999999973e+00 -5.5428988761192144e-01 +7.2875669898352875e+00 +4.2381942152701457e+00 -6.5328776677026550e+00 +6.0253307877594907e+03 -2.4118315283041695e+05 -3.5505989613479331e+07 
-3.0499999999999972e+00 -5.5431081907434254e-01 +7.2886835800790388e+00 +4.2126368565752124e+00 -6.6835944346543164e+00 +6.0572897435149935e+03 -2.3885660988205310e+05 -3.5679908415460698e+07 
-3.0999999999999970e+00 -5.5433203271615938e-01 +7.2898137248863950e+00 +4.1868262899753601e+00 -6.8242847135597096e+00 +6.0874989674738690e+03 -2.3657450894035539e+05 -3.5839142413056180e+07 
-3.1499999999999968e+00 -5.5435352654413972e-01 +7.2909572762017163e+00 +4.1607695709691770e+00 -6.9550900432789806e+00 +6.1158840241244598e+03 -2.3433647345713445e+05 -3.5983062986868560e+07 
-3.1999999999999966e+00 -5.5437529856506529e-01 +7.2921140859656157e+00 +4.1344737564577372e+00 -7.0761518181843792e+00 +6.1423704367749506e+03 -2.3214212804936100e+05 -3.6111041224159539e+07 
-3.2499999999999964e+00 -5.5439734678570673e-01 +7.2932840061212030e+00 +4.1079458997856175e+00 -7.1876115086674996e+00 +6.1668838308020377e+03 -2.2999109682120269e+05 -3.6222448925399758e+07 
-3.2999999999999963e+00 -5.5441966921285513e-01 +7.2944668886093895e+00 +4.0811930570776429e+00 -7.2896104932277819e+00 +6.1893497523554306e+03 -2.2788300464110007e+05 -3.6316657338856623e+07 
-3.3499999999999961e+00 -5.5444226385329931e-01 +7.2956625853727592e+00 +4.0542222833570438e+00 -7.3822902100980441e+00 +6.2096937740399471e+03 -2.2581747594563005e+05 -3.6393037879568815e+07 
-3.3999999999999959e+00 -5.5446512871383036e-01 +7.2968709483542353e+00 +4.0270406321985810e+00 -7.4657921076580704e+00 +6.2278415152683574e+03 -2.2379413510774585e+05 -3.6450962306613050e+07 
-3.4499999999999957e+00 -5.5448826180126409e-01 +7.2980918294981461e+00 +3.9996551610096684e+00 -7.5402576739286564e+00 +6.2437184874359828e+03 -2.2181260627940265e+05 -3.6489801631190524e+07 
-3.4999999999999956e+00 -5.5451166112240091e-01 +7.2993250807448993e+00 +3.9720729241137893e+00 -7.6058282373580344e+00 +6.2572502793221265e+03 -2.1987251492944820e+05 -3.6508927365804136e+07 
-3.5499999999999954e+00 -5.5453532468405797e-01 +7.3005705540368844e+00 +3.9443009766075030e+00 -7.6626451992699458e+00 +6.2683624713170475e+03 -2.1797348599195693e+05 -3.6507711012001343e+07 
-3.5999999999999952e+00 -5.5455925049305443e-01 +7.3018281013186890e+00 +3.9163463741559950e+00 -7.7108500439418073e+00 +6.2769806157823050e+03 -2.1611514377446531e+05 -3.6485523831628792e+07 
-3.6499999999999950e+00 -5.5458343655620246e-01 +7.3030975745310425e+00 +3.8882161698781812e+00 -7.7505840991426957e+00 +6.2830303406730027e+03 -2.1429711389025490e+05 -3.6441737625224419e+07 
-3.6999999999999948e+00 -5.5460788088034674e-01 +7.3043788256193842e+00 +3.8599174218925385e+00 -7.7819888616296620e+00 +6.2864371369920564e+03 -2.1251902069500359e+05 -3.6375723257905707e+07 
-3.7499999999999947e+00 -5.5463258147231242e-01 +7.3056717065226007e+00 +3.8314571839632952e+00 -7.8052055716058657e+00 +6.2871266147938077e+03 -2.1078049065074101e+05 -3.6286852404982530e+07 
-3.7999999999999945e+00 -5.5465753633893877e-01 +7.3069760691874803e+00 +3.8028425118760336e+00 -7.8203757955539475e+00 +6.2850243256425001e+03 -2.0908114755391845e+05 -3.6174496329351909e+07 
-3.8499999999999943e+00 -5.5468274348706148e-01 +7.3082917655533102e+00 +3.7740804600783431e+00 -7.8276407610004552e+00 +6.2800558598257421e+03 -2.0742061816152706e+05 -3.6038026566635460e+07 
-3.8999999999999941e+00 -5.5470820092352879e-01 +7.3096186475631209e+00 +3.7451780842940527e+00 -7.8271418700994069e+00 +6.2721467736973591e+03 -2.0579852774951316e+05 -3.5876814422602661e+07 
-3.9499999999999940e+00 -5.5473390665518274e-01 +7.3109565671608223e+00 +3.7161424390705684e+00 -7.8190205514846811e+00 +6.2612226508632857e+03 -2.0421450146829276e+05 -3.5690231369725615e+07 
-3.9999999999999938e+00 -5.5475985868888633e-01 +7.3123053762893520e+00 +3.6869805814475267e+00 -7.8034181724072393e+00 +6.2472090143984578e+03 -2.0266816506898307e+05 -3.5477648491992660e+07 
-4.0499999999999936e+00 -5.5478605491162469e-01 +7.3136649253468580e+00 +3.6576982452020186e+00 -7.7805150022047167e+00 +6.2300829191534449e+03 -2.0115901825658098e+05 -3.5238839505543850e+07 
-4.0999999999999934e+00 -5.5481249273054911e-01 +7.3150350541589928e+00 +3.6282959179993055e+00 -7.7507491458031890e+00 +6.2100322241737467e+03 -1.9968519202790153e+05 -3.4975214760473408e+07 
-4.1499999999999932e+00 -5.5483916943278078e-01 +7.3164155988169117e+00 +3.5987728022513275e+00 -7.7146498132872106e+00 +6.1872990038859252e+03 -1.9824425865495691e+05 -3.4688603199897289e+07 
-4.1999999999999931e+00 -5.5486608230539636e-01 +7.3178063954111021e+00 +3.5691280928821145e+00 -7.6727461877360676e+00 +6.1621255326019300e+03 -1.9683379074347098e+05 -3.4380835101271421e+07 
-4.2499999999999929e+00 -5.5489322863550705e-01 +7.3192072800324590e+00 +3.5393609904028458e+00 -7.6255674974403069e+00 +6.1347539396648363e+03 -1.9545136042659171e+05 -3.4053739786623657e+07 
-4.2999999999999927e+00 -5.5492060571022939e-01 +7.3206180887676044e+00 +3.5094706960030773e+00 -7.5736428310247605e+00 +6.1054263352522685e+03 -1.9409454086734305e+05 -3.3709146439374737e+07 
-4.3499999999999925e+00 -5.5494821081664458e-01 +7.3220386577100953e+00 +3.4794564050402839e+00 -7.5175015479886422e+00 +6.0743849850966772e+03 -1.9276090308033707e+05 -3.3348885289131280e+07 
-4.3999999999999924e+00 -5.5497604124187161e-01 +7.3234688229473441e+00 +3.4493173187917954e+00 -7.4576728073958636e+00 +6.0418720025745488e+03 -1.9144801953900832e+05 -3.2974785562344473e+07 
-4.4499999999999922e+00 -5.5500409427301745e-01 +7.3249084205700052e+00 +3.4190526367487499e+00 -7.3946859066930664e+00 +6.0081295474725139e+03 -1.9015346158302203e+05 -3.2588676792201445e+07 
-4.4999999999999920e+00 -5.5503236719717908e-01 +7.3263572866674052e+00 +3.3886615567376581e+00 -7.3290701188594358e+00 +5.9733998250032309e+03 -1.8887480065772744e+05 -3.2192388819407824e+07 
-4.5499999999999918e+00 -5.5506085730146226e-01 +7.3278152573301254e+00 +3.3581432779993952e+00 -7.2613547924664985e+00 +5.9379250033789531e+03 -1.8760960752018876e+05 -3.1787751234537307e+07 
-4.5999999999999917e+00 -5.5508956187298664e-01 +7.3292821686464853e+00 +3.3274970022259609e+00 -7.1920692052476030e+00 +5.9019471896943633e+03 -1.8635545345232409e+05 -3.1376593237714518e+07 
-4.6499999999999915e+00 -5.5511847819883997e-01 +7.3307578567077822e+00 +3.2967219259455351e+00 -7.1217427822277246e+00 +5.8657086286932317e+03 -1.8510990845297021e+05 -3.0960744950478520e+07 
-4.6999999999999913e+00 -5.5514760356613024e-01 +7.3322421576019821e+00 +3.2658172488647401e+00 -7.0509048491616042e+00 +5.8294514844341184e+03 -1.8387054321602840e+05 -3.0542035965567973e+07 
-4.7499999999999911e+00 -5.5517693526196910e-01 +7.3337349074166598e+00 +3.2347821726302906e+00 -6.9800847277585687e+00 +5.7934178639774664e+03 -1.8263492846681867e+05 -3.0122295476247270e+07 
-4.7999999999999909e+00 -5.5520647057344918e-01 +7.3352359422438678e+00 +3.2036158946566191e+00 -6.9098119686162134e+00 +5.7578499953113142e+03 -1.8140063288567352e+05 -2.9703353509585336e+07 
-4.8499999999999908e+00 -5.5523620678767593e-01 +7.3367450981700850e+00 +3.1723176152985211e+00 -6.8406159061931406e+00 +5.7229900298478624e+03 -1.8016522693274898e+05 -2.9287039589881595e+07 
-4.8999999999999906e+00 -5.5526614119174311e-01 +7.3382622112849631e+00 +3.1408865336676119e+00 -6.7730260553316093e+00 +5.6890801489254700e+03 -1.7892627941257000e+05 -2.8875183429230701e+07 
-4.9499999999999904e+00 -5.5529627107275781e-01 +7.3397871176784291e+00 +3.1093218509521559e+00 -6.7075719661127060e+00 +5.6563624853006913e+03 -1.7768135879272906e+05 -2.8469614435161684e+07 
-4.9999999999999902e+00 -5.5532659371781001e-01 +7.3413196534364102e+00 +3.0776227661700148e+00 -6.6447830560813932e+00 +5.6250792290534473e+03 -1.7642803453725227e+05 -2.8072162398676682e+07 
-5.0499999999999901e+00 -5.5535710641398695e-01 +7.3428596546481835e+00 +3.0457884783811320e+00 -6.5851889112769806e+00 +5.5954725706953304e+03 -1.7516387464892113e+05 -2.7684657118334770e+07 
