# field on trajectory
# s[mm] rx[mm] ry[mm] rz[mm] bx[T] by[T] bz[T]
0.0000000000000000e+00 +8.2850000000000001e+00 +0.0000000000000000e+00 +0.0000000000000000e+00 -2.8389703549782749e-02 -5.5125806319992365e-01 +5.2578991170118012e-03
-5.0000000000000003e-02 +8.2849999309131146e+00 +0.0000000000000000e+00 -4.9999999999936359e-02 -2.8389271161806600e-02 -5.5125883750122806e-01 +5.2588478847411533e-03
-1.0000000000000001e-01 +8.2849997236523123e+00 +0.0000000000000000e+00 -9.9999999999490885e-02 -2.8388862108399419e-02 -5.5126001394216440e-01 +5.2598044337728430e-03
-1.5000000000000002e-01 +8.2849993782172984e+00 +0.0000000000000000e+00 -1.4999999999828173e-01 -2.8388476355035278e-02 -5.5126159197062996e-01 +5.2607687049654973e-03
-2.0000000000000001e-01 +8.2849988946076785e+00 +0.0000000000000000e+00 -1.9999999999592705e-01 -2.8388113867189008e-02 -5.5126357103453971e-01 +5.2617406391781488e-03
-2.5000000000000000e-01 +8.2849982728229552e+00 +0.0000000000000000e+00 -2.4999999999204497e-01 -2.8387774610336196e-02 -5.5126595058182704e-01 +5.2627201772702430e-03
-2.9999999999999999e-01 +8.2849975128625317e+00 +0.0000000000000000e+00 -2.9999999998625365e-01 -2.8387458549953299e-02 -5.5126873006044408e-01 +5.2637072601016280e-03
-3.4999999999999998e-01 +8.2849966147257117e+00 +0.0000000000000000e+00 -3.4999999997817127e-01 -2.8387165651517561e-02 -5.5127190891836120e-01 +5.2647018285325378e-03
-3.9999999999999997e-01 +8.2849955784116993e+00 +0.0000000000000000e+00 -3.9999999996741592e-01 -2.8386895880507024e-02 -5.5127548660356696e-01 +5.2657038234235820e-03
-4.4999999999999996e-01 +8.2849944039195975e+00 +0.0000000000000000e+00 -4.4999999995360568e-01 -2.8386649202400641e-02 -5.5127946256406812e-01 +5.2667131856357500e-03
-4.9999999999999994e-01 +8.2849930912484098e+00 +0.0000000000000000e+00 -4.9999999993635869e-01 -2.8386425582678180e-02 -5.5128383624788979e-01 +5.2677298560303825e-03
-5.4999999999999993e-01 +8.2849916403970401e+00 +0.0000000000000000e+00 -5.4999999991529314e-01 -2.8386224986820318e-02 -5.5128860710307515e-01 +5.2687537754691795e-03
-5.9999999999999998e-01 +8.2849900513642911e+00 +0.0000000000000000e+00 -5.9999999989002695e-01 -2.8386047380308591e-02 -5.5129377457768491e-01 +5.2697848848141824e-03
-6.5000000000000002e-01 +8.2849883241488698e+00 +0.0000000000000000e+00 -6.4999999986017831e-01 -2.8385892728625482e-02 -5.5129933811979859e-01 +5.2708231249277634e-03
-7.0000000000000007e-01 +8.2849864587493798e+00 +0.0000000000000000e+00 -6.9999999982536520e-01 -2.8385760997254372e-02 -5.5130529717751298e-01 +5.2718684366726241e-03
-7.5000000000000011e-01 +8.2849844551643272e+00 +0.0000000000000000e+00 -7.4999999978520582e-01 -2.8385652151679583e-02 -5.5131165119894332e-01 +5.2729207609117758e-03
-8.0000000000000016e-01 +8.2849823133921205e+00 +0.0000000000000000e+00 -7.9999999973931801e-01 -2.8385566157386379e-02 -5.5131839963222140e-01 +5.2739800385085368e-03
-8.5000000000000020e-01 +8.2849800334310686e+00 +0.0000000000000000e+00 -8.4999999968731987e-01 -2.8385502979861019e-02 -5.5132554192549843e-01 +5.2750462103265247e-03
-9.0000000000000024e-01 +8.2849776152793808e+00 +0.0000000000000000e+00 -8.9999999962882937e-01 -2.8385462584590737e-02 -5.5133307752694216e-01 +5.2761192172296485e-03
-9.5000000000000029e-01 +8.2849750589351689e+00 +0.0000000000000000e+00 -9.4999999956346448e-01 -2.8385444937063728e-02 -5.5134100588473833e-01 +5.2771990000820800e-03
-1.0000000000000002e+00 +8.2849723643964452e+00 +0.0000000000000000e+00 -9.9999999949084317e-01 -2.8385450002769232e-02 -5.5134932644708989e-01 +5.2782854997482790e-03
-1.0500000000000003e+00 +8.2849695316611243e+00 +0.0000000000000000e+00 -1.0499999994105833e+00 -2.8385477747197529e-02 -5.5135803866221778e-01 +5.2793786570929490e-03
-1.1000000000000003e+00 +8.2849665607270211e+00 +0.0000000000000000e+00 -1.0999999993223029e+00 -2.8385528135839895e-02 -5.5136714197836023e-01 +5.2804784129810546e-03
-1.1500000000000004e+00 +8.2849634515918549e+00 +0.0000000000000000e+00 -1.1499999992256198e+00 -2.8385601134188705e-02 -5.5137663584377306e-01 +5.2815847082777973e-03
-1.2000000000000004e+00 +8.2849602042532471e+00 +0.0000000000000000e+00 -1.1999999991201518e+00 -2.8385696707737388e-02 -5.5138651970672781e-01 +5.2826974838486099e-03
-1.2500000000000004e+00 +8.2849568187087197e+00 +0.0000000000000000e+00 -1.2499999990055168e+00 -2.8385814821980444e-02 -5.5139679301551603e-01 +5.2838166805591500e-03
-1.3000000000000005e+00 +8.2849532949556970e+00 +0.0000000000000000e+00 -1.2999999988813327e+00 -2.8385955442413503e-02 -5.5140745521844403e-01 +5.2849422392752853e-03
-1.3500000000000005e+00 +8.2849496329915073e+00 +0.0000000000000000e+00 -1.3499999987472169e+00 -2.8386118534533298e-02 -5.5141850576383666e-01 +5.2860741008630922e-03
-1.4000000000000006e+00 +8.2849458328133796e+00 +0.0000000000000000e+00 -1.3999999986027873e+00 -2.8386304063837679e-02 -5.5142994410003532e-01 +5.2872122061888398e-03
-1.4500000000000006e+00 +8.2849418944184485e+00 +0.0000000000000000e+00 -1.4499999984476619e+00 -2.8386511995825685e-02 -5.5144176967539871e-01 +5.2883564961189794e-03
-1.5000000000000007e+00 +8.2849378178037494e+00 +0.0000000000000000e+00 -1.4999999982814582e+00 -2.8386742295997455e-02 -5.5145398193830153e-01 +5.2895069115201435e-03
-1.5500000000000007e+00 +8.2849336029662215e+00 +0.0000000000000000e+00 -1.5499999981037937e+00 -2.8386994929854338e-02 -5.5146658033713625e-01 +5.2906633932591268e-03
-1.6000000000000008e+00 +8.2849292499027065e+00 +0.0000000000000000e+00 -1.5999999979142863e+00 -2.8387269862898877e-02 -5.5147956432031287e-01 +5.2918258822028923e-03
-1.6500000000000008e+00 +8.2849247586099501e+00 +0.0000000000000000e+00 -1.6499999977125532e+00 -2.8387567060634819e-02 -5.5149293333625637e-01 +5.2929943192185393e-03
-1.7000000000000008e+00 +8.2849201290846022e+00 +0.0000000000000000e+00 -1.6999999974982123e+00 -2.8387886488567122e-02 -5.5150668683340975e-01 +5.2941686451733133e-03
-1.7500000000000009e+00 +8.2849153613232147e+00 +0.0000000000000000e+00 -1.7499999972708808e+00 -2.8388228112201968e-02 -5.5152082426023208e-01 +5.2953488009345887e-03
-1.8000000000000009e+00 +8.2849104553222439e+00 +0.0000000000000000e+00 -1.7999999970301765e+00 -2.8388591897046817e-02 -5.5153534506519963e-01 +5.2965347273698591e-03
-1.8500000000000010e+00 +8.2849054110780500e+00 +0.0000000000000000e+00 -1.8499999967757166e+00 -2.8388977808610393e-02 -5.5155024869680402e-01 +5.2977263653467329e-03
-1.9000000000000010e+00 +8.2849002285868973e+00 +0.0000000000000000e+00 -1.8999999965071186e+00 -2.8389385812402662e-02 -5.5156553460355484e-01 +5.2989236557329199e-03
-1.9500000000000011e+00 +8.2848949078449561e+00 +0.0000000000000000e+00 -1.9499999962239998e+00 -2.8389815873934923e-02 -5.5158120223397722e-01 +5.3001265393962192e-03
-2.0000000000000009e+00 +8.2848894488482987e+00 +0.0000000000000000e+00 -1.9999999959259773e+00 -2.8390267958719781e-02 -5.5159725103661228e-01 +5.3013349572045166e-03
-2.0500000000000007e+00 +8.2848838515929017e+00 +0.0000000000000000e+00 -2.0499999956126689e+00 -2.8390742033487685e-02 -5.5161368015828194e-01 +5.3025488448260518e-03
-2.1000000000000005e+00 +8.2848781160746476e+00 +0.0000000000000000e+00 -2.0999999952836914e+00 -2.8391238069836372e-02 -5.5163048753887478e-01 +5.3037681171301740e-03
-2.1500000000000004e+00 +8.2848722422893228e+00 +0.0000000000000000e+00 -2.1499999949386619e+00 -2.8391756040580994e-02 -5.5164767081655741e-01 +5.3049926837865245e-03
-2.2000000000000002e+00 +8.2848662302326215e+00 +0.0000000000000000e+00 -2.1999999945771975e+00 -2.8392295918537428e-02 -5.5166522762950909e-01 +5.3062224544647187e-03
-2.2500000000000000e+00 +8.2848600799001435e+00 +0.0000000000000000e+00 -2.2499999941989155e+00 -2.8392857676522314e-02 -5.5168315561592218e-01 +5.3074573388343449e-03
-2.2999999999999998e+00 +8.2848537912873947e+00 +0.0000000000000000e+00 -2.2999999938034330e+00 -2.8393441287353032e-02 -5.5170145241400192e-01 +5.3086972465649527e-03
-2.3499999999999996e+00 +8.2848473643897886e+00 +0.0000000000000000e+00 -2.3499999933903668e+00 -2.8394046723847675e-02 -5.5172011566196633e-01 +5.3099420873260385e-03
-2.3999999999999995e+00 +8.2848407992026480e+00 +0.0000000000000000e+00 -2.3999999929593341e+00 -2.8394673958825025e-02 -5.5173914299804494e-01 +5.3111917707870373e-03
-2.4499999999999993e+00 +8.2848340957212034e+00 +0.0000000000000000e+00 -2.4499999925099516e+00 -2.8395322965104542e-02 -5.5175853206048064e-01 +5.3124462066172946e-03
-2.4999999999999991e+00 +8.2848272539405947e+00 +0.0000000000000000e+00 -2.4999999920418361e+00 -2.8395993715506357e-02 -5.5177828048752720e-01 +5.3137053044860728e-03
-2.5499999999999989e+00 +8.2848202738558729e+00 +0.0000000000000000e+00 -2.5499999915546043e+00 -2.8396686182851211e-02 -5.5179838591745056e-01 +5.3149689740625292e-03
-2.5999999999999988e+00 +8.2848131554619968e+00 +0.0000000000000000e+00 -2.5999999910478730e+00 -2.8397400339960487e-02 -5.5181884598852815e-01 +5.3162371250157041e-03
-2.6499999999999986e+00 +8.2848058987538398e+00 +0.0000000000000000e+00 -2.6499999905212590e+00 -2.8398136159656199e-02 -5.5183965833904813e-01 +5.3175096670145085e-03
-2.6999999999999984e+00 +8.2847985037261846e+00 +0.0000000000000000e+00 -2.6999999899743790e+00 -2.8398893614760862e-02 -5.5186082060731045e-01 +5.3187865097277052e-03
-2.7499999999999982e+00 +8.2847909703737290e+00 +0.0000000000000000e+00 -2.7499999894068492e+00 -2.8399672678097648e-02 -5.5188233043162538e-01 +5.3200675628239163e-03
-2.7999999999999980e+00 +8.2847832986910799e+00 +0.0000000000000000e+00 -2.7999999888182860e+00 -2.8400473322490224e-02 -5.5190418545031406e-01 +5.3213527359715802e-03
-2.8499999999999979e+00 +8.2847754886727589e+00 +0.0000000000000000e+00 -2.8499999882083062e+00 -2.8401295520762808e-02 -5.5192638330170729e-01 +5.3226419388389661e-03
-2.8999999999999977e+00 +8.2847675403132026e+00 +0.0000000000000000e+00 -2.8999999875765261e+00 -2.8402139245740098e-02 -5.5194892162414699e-01 +5.3239350810941454e-03
-2.9499999999999975e+00 +8.2847594536067621e+00 +0.0000000000000000e+00 -2.9499999869225619e+00 -2.8403004470247326e-02 -5.5197179805598429e-01 +5.3252320724049831e-03
-2.9999999999999973e+00 +8.2847512285477034e+00 +0.0000000000000000e+00 -2.9999999862460300e+00 -2.8403891167110146e-02 -5.5199501023558017e-01 +5.3265328224391352e-03
-3.0499999999999972e+00 +8.2847428651302089e+00 +0.0000000000000000e+00 -3.0499999855465467e+00 -2.8404799309154717e-02 -5.5201855580130510e-01 +5.3278372408640069e-03
-3.0999999999999970e+00 +8.2847343633483774e+00 +0.0000000000000000e+00 -3.0999999848237278e+00 -2.8405728869207579e-02 -5.5204243239153905e-01 +5.3291452373467763e-03
-3.1499999999999968e+00 +8.2847257231962228e+00 +0.0000000000000000e+00 -3.1499999840771897e+00 -2.8406679820095742e-02 -5.5206663764467068e-01 +5.3304567215543587e-03
-3.1999999999999966e+00 +8.2847169446676787e+00 +0.0000000000000000e+00 -3.1999999833065482e+00 -2.8407652134646591e-02 -5.5209116919909695e-01 +5.3317716031534030e-03
-3.2499999999999964e+00 +8.2847080277565972e+00 +0.0000000000000000e+00 -3.2499999825114192e+00 -2.8408645785687876e-02 -5.5211602469322485e-01 +5.3330897918102737e-03
-3.2999999999999963e+00 +8.2846989724567468e+00 +0.0000000000000000e+00 -3.2999999816914185e+00 -2.8409660746047723e-02 -5.5214120176546866e-01 +5.3344111971910368e-03
-3.3499999999999961e+00 +8.2846897787618179e+00 +0.0000000000000000e+00 -3.3499999808461625e+00 -2.8410696988554605e-02 -5.5216669805425067e-01 +5.3357357289614601e-03
-3.3999999999999959e+00 +8.2846804466654191e+00 +0.0000000000000000e+00 -3.3999999799752665e+00 -2.8411754486037302e-02 -5.5219251119800139e-01 +5.3370632967869765e-03
-3.4499999999999957e+00 +8.2846709761610811e+00 +0.0000000000000000e+00 -3.4499999790783460e+00 -2.8412833211324925e-02 -5.5221863883515954e-01 +5.3383938103326997e-03
-3.4999999999999956e+00 +8.2846613672422560e+00 +0.0000000000000000e+00 -3.4999999781550168e+00 -2.8413933137246831e-02 -5.5224507860417016e-01 +5.3397271792633948e-03
-3.5499999999999954e+00 +8.2846516199023164e+00 +0.0000000000000000e+00 -3.5499999772048945e+00 -2.8415054236632691e-02 -5.5227182814348685e-01 +5.3410633132434633e-03
-3.5999999999999952e+00 +8.2846417341345564e+00 +0.0000000000000000e+00 -3.5999999762275943e+00 -2.8416196482312386e-02 -5.5229888509156877e-01 +5.3424021219369367e-03
-3.6499999999999950e+00 +8.2846317099321958e+00 +0.0000000000000000e+00 -3.6499999752227321e+00 -2.8417359847116058e-02 -5.5232624708688327e-01 +5.3437435150074644e-03
-3.6999999999999948e+00 +8.2846215472883742e+00 +0.0000000000000000e+00 -3.6999999741899230e+00 -2.8418544303874037e-02 -5.5235391176790383e-01 +5.3450874021182988e-03
-3.7499999999999947e+00 +8.2846112461961585e+00 +0.0000000000000000e+00 -3.7499999731287819e+00 -2.8419749825416857e-02 -5.5238187677310935e-01 +5.3464336929322813e-03
-3.7999999999999945e+00 +8.2846008066485410e+00 +0.0000000000000000e+00 -3.7999999720389241e+00 -2.8420976384575219e-02 -5.5241013974098596e-01 +5.3477822971118322e-03
-3.8499999999999943e+00 +8.2845902286384359e+00 +0.0000000000000000e+00 -3.8499999709199653e+00 -2.8422223954180006e-02 -5.5243869831002590e-01 +5.3491331243189378e-03
-3.8999999999999941e+00 +8.2845795121586860e+00 +0.0000000000000000e+00 -3.8999999697715197e+00 -2.8423492507062199e-02 -5.5246755011872617e-01 +5.3504860842151346e-03
-3.9499999999999940e+00 +8.2845686572020583e+00 +0.0000000000000000e+00 -3.9499999685932030e+00 -2.8424782016052919e-02 -5.5249669280558955e-01 +5.3518410864614964e-03
-3.9999999999999938e+00 +8.2845576637612499e+00 +0.0000000000000000e+00 -3.9999999673846296e+00 -2.8426092453983389e-02 -5.5252612400912415e-01 +5.3531980407186298e-03
-4.0499999999999936e+00 +8.2845465318288838e+00 +0.0000000000000000e+00 -4.0499999661454140e+00 -2.8427423743869792e-02 -5.5255584125048995e-01 +5.3545568601282697e-03
-4.0999999999999934e+00 +8.2845352613975098e+00 +0.0000000000000000e+00 -4.0999999648751722e+00 -2.8428775609467896e-02 -5.5258584158143687e-01 +5.3559174717582904e-03
-4.1499999999999932e+00 +8.2845238524596105e+00 +0.0000000000000000e+00 -4.1499999635735172e+00 -2.8430147724718947e-02 -5.5261612193636345e-01 +5.3572798061580417e-03
-4.1999999999999931e+00 +8.2845123050075955e+00 +0.0000000000000000e+00 -4.1999999622400646e+00 -2.8431539763565161e-02 -5.5264667924967048e-01 +5.3586437938767497e-03
-4.2499999999999929e+00 +8.2845006190338051e+00 +0.0000000000000000e+00 -4.2499999608744288e+00 -2.8432951399949672e-02 -5.5267751045576208e-01 +5.3600093654635151e-03
-4.2999999999999927e+00 +8.2844887945305121e+00 +0.0000000000000000e+00 -4.2999999594762244e+00 -2.8434382307816489e-02 -5.5270861248904224e-01 +5.3613764514673107e-03
-4.3499999999999925e+00 +8.2844768314899202e+00 +0.0000000000000000e+00 -4.3499999580450650e+00 -2.8435832161110636e-02 -5.5273998228391763e-01 +5.3627449824369877e-03
-4.3999999999999924e+00 +8.2844647299041672e+00 +0.0000000000000000e+00 -4.3999999565805652e+00 -2.8437300633778036e-02 -5.5277161677479580e-01 +5.3641148889212592e-03
-4.4499999999999922e+00 +8.2844524897653233e+00 +0.0000000000000000e+00 -4.4499999550823395e+00 -2.8438787399765571e-02 -5.5280351289608509e-01 +5.3654861014687154e-03
-4.4999999999999920e+00 +8.2844401110653951e+00 +0.0000000000000000e+00 -4.4999999535500015e+00 -2.8440292133021107e-02 -5.5283566758219449e-01 +5.3668585506278172e-03
-4.5499999999999918e+00 +8.2844275937963232e+00 +0.0000000000000000e+00 -4.5499999519831649e+00 -2.8441814507493446e-02 -5.5286807776753344e-01 +5.3682321669468866e-03
-4.5999999999999917e+00 +8.2844149379499825e+00 +0.0000000000000000e+00 -4.5999999503814442e+00 -2.8443354197132380e-02 -5.5290074038651127e-01 +5.3696068809741208e-03
-4.6499999999999915e+00 +8.2844021435181876e+00 +0.0000000000000000e+00 -4.6499999487444530e+00 -2.8444910875888702e-02 -5.5293365237353720e-01 +5.3709826232575825e-03
-4.6999999999999913e+00 +8.2843892104926891e+00 +0.0000000000000000e+00 -4.6999999470718059e+00 -2.8446484217714167e-02 -5.5296681066301956e-01 +5.3723593243451941e-03
-4.7499999999999911e+00 +8.2843761388651753e+00 +0.0000000000000000e+00 -4.7499999453631156e+00 -2.8448073896561551e-02 -5.5300021218936646e-01 +5.3737369147847476e-03
-4.7999999999999909e+00 +8.2843629286272762e+00 +0.0000000000000000e+00 -4.7999999436179959e+00 -2.8449679586384634e-02 -5.5303385388698489e-01 +5.3751153251238963e-03
-4.8499999999999908e+00 +8.2843495797705575e+00 +0.0000000000000000e+00 -4.8499999418360602e+00 -2.8451300961138206e-02 -5.5306773269027976e-01 +5.3764944859101627e-03
-4.8999999999999906e+00 +8.2843360922865283e+00 +0.0000000000000000e+00 -4.8999999400169223e+00 -2.8452937694778087e-02 -5.5310184553365460e-01 +5.3778743276909164e-03
-4.9499999999999904e+00 +8.2843224661666373e+00 +0.0000000000000000e+00 -4.9499999381601949e+00 -2.8454589461261094e-02 -5.5313618935151154e-01 +5.3792547810134006e-03
-4.9999999999999902e+00 +8.2843087014022778e+00 +0.0000000000000000e+00 -4.9999999362654917e+00 -2.8456255934545139e-02 -5.5317076107825025e-01 +5.3806357764247179e-03
-5.0499999999999901e+00 +8.2842947979847832e+00 +0.0000000000000000e+00 -5.0499999343324253e+00 -2.8457936788589135e-02 -5.5320555764826740e-01 +5.3820172444718189e-03
-5.0999999999999899e+00 +8.2842807559054332e+00 +0.0000000000000000e+00 -5.0999999323606096e+00 -2.8459631697353063e-02 -5.5324057599595744e-01 +5.3833991157015227e-03
-5.1499999999999897e+00 +8.2842665751554510e+00 +0.0000000000000000e+00 -5.1499999303496571e+00 -2.8461340334797972e-02 -5.5327581305571139e-01 +5.3847813206604981e-03
-5.1999999999999895e+00 +8.2842522557260025e+00 +0.0000000000000000e+00 -5.1999999282991807e+00 -2.8463062374885946e-02 -5.5331126576191692e-01 +5.3861637898952710e-03
-5.2499999999999893e+00 +8.2842377976082027e+00 +0.0000000000000000e+00 -5.2499999262087931e+00 -2.8464797491580200e-02 -5.5334693104895816e-01 +5.3875464539522256e-03
-5.2999999999999892e+00 +8.2842232007931127e+00 +0.0000000000000000e+00 -5.2999999240781070e+00 -2.8466545358844984e-02 -5.5338280585121546e-01 +5.3889292433775956e-03
-5.3499999999999890e+00 +8.2842084652717389e+00 +0.0000000000000000e+00 -5.3499999219067353e+00 -2.8468305650645672e-02 -5.5341888710306442e-01 +5.3903120887174643e-03
-5.3999999999999888e+00 +8.2841935910350397e+00 +0.0000000000000000e+00 -5.3999999196942898e+00 -2.8470078040948706e-02 -5.5345517173887715e-01 +5.3916949205177773e-03
-5.4499999999999886e+00 +8.2841785780739201e+00 +0.0000000000000000e+00 -5.4499999174403841e+00 -2.8471862203721679e-02 -5.5349165669301992e-01 +5.3930776693243221e-03
-5.4999999999999885e+00 +8.2841634263792336e+00 +0.0000000000000000e+00 -5.4999999151446293e+00 -2.8473657812933248e-02 -5.5352833889985431e-01 +5.3944602656827321e-03
-5.5499999999999883e+00 +8.2841481359417877e+00 +0.0000000000000000e+00 -5.5499999128066388e+00 -2.8475464542553230e-02 -5.5356521529373670e-01 +5.3958426401385026e-03
-5.5999999999999881e+00 +8.2841327067523380e+00 +0.0000000000000000e+00 -5.5999999104260239e+00 -2.8477282066552572e-02 -5.5360228280901769e-01 +5.3972247232369642e-03
-5.6499999999999879e+00 +8.2841171388015944e+00 +0.0000000000000000e+00 -5.6499999080023970e+00 -2.8479110058903336e-02 -5.5363953838004198e-01 +5.3986064455232990e-03
-5.6999999999999877e+00 +8.2841014320802202e+00 +0.0000000000000000e+00 -5.6999999055353703e+00 -2.8480948193578739e-02 -5.5367697894114787e-01 +5.3999877375425368e-03
-5.7499999999999876e+00 +8.2840855865788292e+00 +0.0000000000000000e+00 -5.7499999030245554e+00 -2.8482796144553166e-02 -5.5371460142666751e-01 +5.4013685298395456e-03
-5.7999999999999874e+00 +8.2840696022879925e+00 +0.0000000000000000e+00 -5.7999999004695635e+00 -2.8484653585802135e-02 -5.5375240277092619e-01 +5.4027487529590404e-03
-5.8499999999999872e+00 +8.2840534791982350e+00 +0.0000000000000000e+00 -5.8499998978700072e+00 -2.8486520191302378e-02 -5.5379037990824198e-01 +5.4041283374455830e-03
