# trajectory
# s[mm] rx[mm] ry[mm] rz[mm] px[rad] py[rad] pz[rad]
0.0000000000000000e+00 +8.3650000000000002e+00 +0.0000000000000000e+00 +0.0000000000000000e+00 +0.0000000000000000e+00 +0.0000000000000000e+00 +1.0000000000000000e+00
5.0000000000000003e-02 +8.3649999307097733e+00 +0.0000000000000000e+00 +4.9999999999935991e-02 -2.7716063804406021e-06 +0.0000000000000000e+00 +9.9999999999615907e-01
1.0000000000000001e-01 +8.3649997228396185e+00 +0.0000000000000000e+00 +9.9999999999487887e-02 -5.5431974002802184e-06 +0.0000000000000000e+00 +9.9999999998463640e-01
1.5000000000000002e-01 +8.3649993763902621e+00 +0.0000000000000000e+00 +1.4999999999827160e-01 -8.3147747156595289e-06 +0.0000000000000000e+00 +9.9999999996543221e-01
2.0000000000000001e-01 +8.3649988913623474e+00 +0.0000000000000000e+00 +1.9999999999590307e-01 -1.1086339980653224e-05 +0.0000000000000000e+00 +9.9999999993854649e-01
2.5000000000000000e-01 +8.3649982677564374e+00 +0.0000000000000000e+00 +2.4999999999199821e-01 -1.3857894847270090e-05 +0.0000000000000000e+00 +9.9999999990397936e-01
2.9999999999999999e-01 +8.3649975055730099e+00 +0.0000000000000000e+00 +2.9999999998617299e-01 -1.6629440965453079e-05 +0.0000000000000000e+00 +9.9999999986173083e-01
3.4999999999999998e-01 +8.3649966048124593e+00 +0.0000000000000000e+00 +3.4999999997804332e-01 -1.9400979983079390e-05 +0.0000000000000000e+00 +9.9999999981180099e-01
3.9999999999999997e-01 +8.3649955654751018e+00 +0.0000000000000000e+00 +3.9999999996722507e-01 -2.2172513545960538e-05 +0.0000000000000000e+00 +9.9999999975418985e-01
4.4999999999999996e-01 +8.3649943875611683e+00 +0.0000000000000000e+00 +4.4999999995333428e-01 -2.4944043297842441e-05 +0.0000000000000000e+00 +9.9999999968889741e-01
4.9999999999999994e-01 +8.3649930710708080e+00 +0.0000000000000000e+00 +4.9999999993598682e-01 -2.7715570880405480e-05 +0.0000000000000000e+00 +9.9999999961592367e-01
5.4999999999999993e-01 +8.3649916160040885e+00 +0.0000000000000000e+00 +5.4999999991479864e-01 -3.0487097933264591e-05 +0.0000000000000000e+00 +9.9999999953526852e-01
5.9999999999999998e-01 +8.3649900223609954e+00 +0.0000000000000000e+00 +5.9999999988938568e-01 -3.3258626093969325e-05 +0.0000000000000000e+00 +9.9999999944693196e-01
6.5000000000000002e-01 +8.3649882901414330e+00 +0.0000000000000000e+00 +6.4999999985936385e-01 -3.6030156998003931e-05 +0.0000000000000000e+00 +9.9999999935091399e-01
7.0000000000000007e-01 +8.3649864193452235e+00 +0.0000000000000000e+00 +6.9999999982434902e-01 -3.8801692278787426e-05 +0.0000000000000000e+00 +9.9999999924721439e-01
7.5000000000000011e-01 +8.3649844099721058e+00 +0.0000000000000000e+00 +7.4999999978395726e-01 -4.1573233567673676e-05 +0.0000000000000000e+00 +9.9999999913583315e-01
8.0000000000000016e-01 +8.3649822620217389e+00 +0.0000000000000000e+00 +7.9999999973780433e-01 -4.4344782493951458e-05 +0.0000000000000000e+00 +9.9999999901677017e-01
8.5000000000000020e-01 +8.3649799754937018e+00 +0.0000000000000000e+00 +8.4999999968550621e-01 -4.7116340684844547e-05 +0.0000000000000000e+00 +9.9999999889002522e-01
9.0000000000000024e-01 +8.3649775503874899e+00 +0.0000000000000000e+00 +8.9999999962667876e-01 -4.9887909765511778e-05 +0.0000000000000000e+00 +9.9999999875559820e-01
9.5000000000000029e-01 +8.3649749867025172e+00 +0.0000000000000000e+00 +9.4999999956093795e-01 -5.2659491359047117e-05 +0.0000000000000000e+00 +9.9999999861348898e-01
1.0000000000000002e+00 +8.3649722844381191e+00 +0.0000000000000000e+00 +9.9999999948789964e-01 -5.5431087086479750e-05 +0.0000000000000000e+00 +9.9999999846369725e-01
1.0500000000000003e+00 +8.3649694435935462e+00 +0.0000000000000000e+00 +1.0499999994071796e+00 -5.8202698566774138e-05 +0.0000000000000000e+00 +9.9999999830622288e-01
1.1000000000000003e+00 +8.3649664641679724e+00 +0.0000000000000000e+00 +1.0999999993183938e+00 -6.0974327416830094e-05 +0.0000000000000000e+00 +9.9999999814106566e-01
1.1500000000000004e+00 +8.3649633461604882e+00 +0.0000000000000000e+00 +1.1499999992211580e+00 -6.3745975251482863e-05 +0.0000000000000000e+00 +9.9999999796822525e-01
1.2000000000000004e+00 +8.3649600895701042e+00 +0.0000000000000000e+00 +1.1999999991150883e+00 -6.6517643683503173e-05 +0.0000000000000000e+00 +9.9999999778770143e-01
1.2500000000000004e+00 +8.3649566943957492e+00 +0.0000000000000000e+00 +1.2499999989998001e+00 -6.9289334323597323e-05 +0.0000000000000000e+00 +9.9999999759949398e-01
1.3000000000000005e+00 +8.3649531606362739e+00 +0.0000000000000000e+00 +1.2999999988749096e+00 -7.2061048780407258e-05 +0.0000000000000000e+00 +9.9999999740360257e-01
1.3500000000000005e+00 +8.3649494882904474e+00 +0.0000000000000000e+00 +1.3499999987400324e+00 -7.4832788660510614e-05 +0.0000000000000000e+00 +9.9999999720002686e-01
1.4000000000000006e+00 +8.3649456773569568e+00 +0.0000000000000000e+00 +1.3999999985947842e+00 -7.7604555568420815e-05 +0.0000000000000000e+00 +9.9999999698876652e-01
1.4500000000000006e+00 +8.3649417278344131e+00 +0.0000000000000000e+00 +1.4499999984387808e+00 -8.0376351106587141e-05 +0.0000000000000000e+00 +9.9999999676982110e-01
1.5000000000000007e+00 +8.3649376397213437e+00 +0.0000000000000000e+00 +1.4999999982716381e+00 -8.3148176875394781e-05 +0.0000000000000000e+00 +9.9999999654319038e-01
1.5500000000000007e+00 +8.3649334130161961e+00 +0.0000000000000000e+00 +1.5499999980929717e+00 -8.5920034473164900e-05 +0.0000000000000000e+00 +9.9999999630887393e-01
1.6000000000000008e+00 +8.3649290477173395e+00 +0.0000000000000000e+00 +1.5999999979023973e+00 -8.8691925496154738e-05 +0.0000000000000000e+00 +9.9999999606687129e-01
1.6500000000000008e+00 +8.3649245438230633e+00 +0.0000000000000000e+00 +1.6499999976995308e+00 -9.1463851538557645e-05 +0.0000000000000000e+00 +9.9999999581718202e-01
1.7000000000000008e+00 +8.3649199013315751e+00 +0.0000000000000000e+00 +1.6999999974839874e+00 -9.4235814192503167e-05 +0.0000000000000000e+00 +9.9999999555980579e-01
1.7500000000000009e+00 +8.3649151202410064e+00 +0.0000000000000000e+00 +1.7499999972553832e+00 -9.7007815048057096e-05 +0.0000000000000000e+00 +9.9999999529474204e-01
1.8000000000000009e+00 +8.3649102005494065e+00 +0.0000000000000000e+00 +1.7999999970133336e+00 -9.9779855693221583e-05 +0.0000000000000000e+00 +9.9999999502199033e-01
1.8500000000000010e+00 +8.3649051422547469e+00 +0.0000000000000000e+00 +1.8499999967574541e+00 -1.0255193771393515e-04 +0.0000000000000000e+00 +9.9999999474155021e-01
1.9000000000000010e+00 +8.3648999453549191e+00 +0.0000000000000000e+00 +1.8999999964873604e+00 -1.0532406269407278e-04 +0.0000000000000000e+00 +9.9999999445342114e-01
1.9500000000000011e+00 +8.3648946098477346e+00 +0.0000000000000000e+00 +1.9499999962026680e+00 -1.0809623221544600e-04 +0.0000000000000000e+00 +9.9999999415760255e-01
2.0000000000000009e+00 +8.3648891357309285e+00 +0.0000000000000000e+00 +1.9999999959029924e+00 -1.1086844785780292e-04 +0.0000000000000000e+00 +9.9999999385409388e-01
2.0500000000000007e+00 +8.3648835230021543e+00 +0.0000000000000000e+00 +2.0499999955879491e+00 -1.1364071119856516e-04 +0.0000000000000000e+00 +9.9999999354289459e-01
2.1000000000000005e+00 +8.3648777716589873e+00 +0.0000000000000000e+00 +2.0999999952571535e+00 -1.1641302380993301e-04 +0.0000000000000000e+00 +9.9999999322400412e-01
2.1500000000000004e+00 +8.3648718816989263e+00 +0.0000000000000000e+00 +2.1499999949102211e+00 -1.1918538725599067e-04 +0.0000000000000000e+00 +9.9999999289742192e-01
2.2000000000000002e+00 +8.3648658531193885e+00 +0.0000000000000000e+00 +2.1999999945467672e+00 -1.2195780309244310e-04 +0.0000000000000000e+00 +9.9999999256314731e-01
2.2500000000000000e+00 +8.3648596859177182e+00 +0.0000000000000000e+00 +2.2499999941664073e+00 -1.2473027286661611e-04 +0.0000000000000000e+00 +9.9999999222117975e-01
2.2999999999999998e+00 +8.3648533800911782e+00 +0.0000000000000000e+00 +2.2999999937687567e+00 -1.2750279811745639e-04 +0.0000000000000000e+00 +9.9999999187151845e-01
2.3499999999999996e+00 +8.3648469356369564e+00 +0.0000000000000000e+00 +2.3499999933534310e+00 -1.3027538037553154e-04 +0.0000000000000000e+00 +9.9999999151416286e-01
2.3999999999999995e+00 +8.3648403525521644e+00 +0.0000000000000000e+00 +2.3999999929200451e+00 -1.3304802116303015e-04 +0.0000000000000000e+00 +9.9999999114911220e-01
2.4499999999999993e+00 +8.3648336308338394e+00 +0.0000000000000000e+00 +2.4499999924682139e+00 -1.3582072199376188e-04 +0.0000000000000000e+00 +9.9999999077636592e-01
2.4999999999999991e+00 +8.3648267704789401e+00 +0.0000000000000000e+00 +2.4999999919975533e+00 -1.3859348437315742e-04 +0.0000000000000000e+00 +9.9999999039592324e-01
2.5499999999999989e+00 +8.3648197714843509e+00 +0.0000000000000000e+00 +2.5499999915076779e+00 -1.4136630979826864e-04 +0.0000000000000000e+00 +9.9999999000778339e-01
2.5999999999999988e+00 +8.3648126338468831e+00 +0.0000000000000000e+00 +2.5999999909982030e+00 -1.4413919975776856e-04 +0.0000000000000000e+00 +9.9999998961194569e-01
2.6499999999999986e+00 +8.3648053575632737e+00 +0.0000000000000000e+00 +2.6499999904687441e+00 -1.4691215573195147e-04 +0.0000000000000000e+00 +9.9999998920840938e-01
2.6999999999999984e+00 +8.3647979426301848e+00 +0.0000000000000000e+00 +2.6999999899189158e+00 -1.4968517919273288e-04 +0.0000000000000000e+00 +9.9999998879717367e-01
2.7499999999999982e+00 +8.3647903890442059e+00 +0.0000000000000000e+00 +2.7499999893483333e+00 -1.5245827160364963e-04 +0.0000000000000000e+00 +9.9999998837823778e-01
2.7999999999999980e+00 +8.3647826968018517e+00 +0.0000000000000000e+00 +2.7999999887566114e+00 -1.5523143441985990e-04 +0.0000000000000000e+00 +9.9999998795160094e-01
2.8499999999999979e+00 +8.3647748658995660e+00 +0.0000000000000000e+00 +2.8499999881433649e+00 -1.5800466908814334e-04 +0.0000000000000000e+00 +9.9999998751726238e-01
2.8999999999999977e+00 +8.3647668963337214e+00 +0.0000000000000000e+00 +2.8999999875082092e+00 -1.6077797704690098e-04 +0.0000000000000000e+00 +9.9999998707522120e-01
2.9499999999999975e+00 +8.3647587881006160e+00 +0.0000000000000000e+00 +2.9499999868507589e+00 -1.6355135972615536e-04 +0.0000000000000000e+00 +9.9999998662547651e-01
2.9999999999999973e+00 +8.3647505411964787e+00 +0.0000000000000000e+00 +2.9999999861706286e+00 -1.6632481854755054e-04 +0.0000000000000000e+00 +9.9999998616802754e-01
3.0499999999999972e+00 +8.3647421556174688e+00 +0.0000000000000000e+00 +3.0499999854674331e+00 -1.6909835492435213e-04 +0.0000000000000000e+00 +9.9999998570287330e-01
3.0999999999999970e+00 +8.3647336313596714e+00 +0.0000000000000000e+00 +3.0999999847407875e+00 -1.7187197026144737e-04 +0.0000000000000000e+00 +9.9999998523001299e-01
3.1499999999999968e+00 +8.3647249684191038e+00 +0.0000000000000000e+00 +3.1499999839903059e+00 -1.7464566595534512e-04 +0.0000000000000000e+00 +9.9999998474944574e-01
3.1999999999999966e+00 +8.3647161667917143e+00 +0.0000000000000000e+00 +3.1999999832156036e+00 -1.7741944339417593e-04 +0.0000000000000000e+00 +9.9999998426117065e-01
3.2499999999999964e+00 +8.3647072264733797e+00 +0.0000000000000000e+00 +3.2499999824162948e+00 -1.8019330395769204e-04 +0.0000000000000000e+00 +9.9999998376518673e-01
3.2999999999999963e+00 +8.3646981474599098e+00 +0.0000000000000000e+00 +3.2999999815919940e+00 -1.8296724901726744e-04 +0.0000000000000000e+00 +9.9999998326149298e-01
3.3499999999999961e+00 +8.3646889297470466e+00 +0.0000000000000000e+00 +3.3499999807423158e+00 -1.8574127993589790e-04 +0.0000000000000000e+00 +9.9999998275008850e-01
3.3999999999999959e+00 +8.3646795733304629e+00 +0.0000000000000000e+00 +3.3999999798668745e+00 -1.8851539806820101e-04 +0.0000000000000000e+00 +9.9999998223097242e-01
3.4499999999999957e+00 +8.3646700782057639e+00 +0.0000000000000000e+00 +3.4499999789652844e+00 -1.9128960476041620e-04 +0.0000000000000000e+00 +9.9999998170414361e-01
3.4999999999999956e+00 +8.3646604443684893e+00 +0.0000000000000000e+00 +3.4999999780371600e+00 -1.9406390135040476e-04 +0.0000000000000000e+00 +9.9999998116960109e-01
3.5499999999999954e+00 +8.3646506718141094e+00 +0.0000000000000000e+00 +3.5499999770821158e+00 -1.9683828916764988e-04 +0.0000000000000000e+00 +9.9999998062734397e-01
3.5999999999999952e+00 +8.3646407605380304e+00 +0.0000000000000000e+00 +3.5999999760997659e+00 -1.9961276953325672e-04 +0.0000000000000000e+00 +9.9999998007737112e-01
3.6499999999999950e+00 +8.3646307105355913e+00 +0.0000000000000000e+00 +3.6499999750897243e+00 -2.0238734375995236e-04 +0.0000000000000000e+00 +9.9999997951968156e-01
3.6999999999999948e+00 +8.3646205218020668e+00 +0.0000000000000000e+00 +3.6999999740516052e+00 -2.0516201315208589e-04 +0.0000000000000000e+00 +9.9999997895427417e-01
3.7499999999999947e+00 +8.3646101943326681e+00 +0.0000000000000000e+00 +3.7499999729850231e+00 -2.0793677900562838e-04 +0.0000000000000000e+00 +9.9999997838114796e-01
3.7999999999999945e+00 +8.3645997281225384e+00 +0.0000000000000000e+00 +3.7999999718895916e+00 -2.1071164260817298e-04 +0.0000000000000000e+00 +9.9999997780030181e-01
3.8499999999999943e+00 +8.3645891231667573e+00 +0.0000000000000000e+00 +3.8499999707649248e+00 -2.1348660523893488e-04 +0.0000000000000000e+00 +9.9999997721173461e-01
3.8999999999999941e+00 +8.3645783794603421e+00 +0.0000000000000000e+00 +3.8999999696106364e+00 -2.1626166816875137e-04 +0.0000000000000000e+00 +9.9999997661544537e-01
3.9499999999999940e+00 +8.3645674969982480e+00 +0.0000000000000000e+00 +3.9499999684263405e+00 -2.1903683266008184e-04 +0.0000000000000000e+00 +9.9999997601143287e-01
3.9999999999999938e+00 +8.3645564757753625e+00 +0.0000000000000000e+00 +3.9999999672116511e+00 -2.2181209996700779e-04 +0.0000000000000000e+00 +9.9999997539969598e-01
4.0499999999999936e+00 +8.3645453157865166e+00 +0.0000000000000000e+00 +4.0499999659661814e+00 -2.2458747133509443e-04 +0.0000000000000000e+00 +9.9999997478023372e-01
4.0999999999999934e+00 +8.3645340170264753e+00 +0.0000000000000000e+00 +4.0999999646895455e+00 -2.2736294799986759e-04 +0.0000000000000000e+00 +9.9999997415304476e-01
4.1499999999999932e+00 +8.3645225794899414e+00 +0.0000000000000000e+00 +4.1499999633813571e+00 -2.3013853118529064e-04 +0.0000000000000000e+00 +9.9999997351812808e-01
4.1999999999999931e+00 +8.3645110031715610e+00 +0.0000000000000000e+00 +4.1999999620412298e+00 -2.3291422210362604e-04 +0.0000000000000000e+00 +9.9999997287548237e-01
4.2499999999999929e+00 +8.3644992880659164e+00 +0.0000000000000000e+00 +4.2499999606687764e+00 -2.3569002195543542e-04 +0.0000000000000000e+00 +9.9999997222510650e-01
4.2999999999999927e+00 +8.3644874341675308e+00 +0.0000000000000000e+00 +4.2999999592636113e+00 -2.3846593192957947e-04 +0.0000000000000000e+00 +9.9999997156699938e-01
4.3499999999999925e+00 +8.3644754414708693e+00 +0.0000000000000000e+00 +4.3499999578253474e+00 -2.4124195320321813e-04 +0.0000000000000000e+00 +9.9999997090115966e-01
4.3999999999999924e+00 +8.3644633099703363e+00 +0.0000000000000000e+00 +4.3999999563535983e+00 -2.4401808694181042e-04 +0.0000000000000000e+00 +9.9999997022758624e-01
4.4499999999999922e+00 +8.3644510396602811e+00 +0.0000000000000000e+00 +4.4499999548479767e+00 -2.4679433429911464e-04 +0.0000000000000000e+00 +9.9999996954627790e-01
4.4999999999999920e+00 +8.3644386305349929e+00 +0.0000000000000000e+00 +4.4999999533080963e+00 -2.4957069641718820e-04 +0.0000000000000000e+00 +9.9999996885723330e-01
4.5499999999999918e+00 +8.3644260825887073e+00 +0.0000000000000000e+00 +4.5499999517335707e+00 -2.5234717442638782e-04 +0.0000000000000000e+00 +9.9999996816045134e-01
4.5999999999999917e+00 +8.3644133958155997e+00 +0.0000000000000000e+00 +4.5999999501240127e+00 -2.5512376944536935e-04 +0.0000000000000000e+00 +9.9999996745593067e-01
4.6499999999999915e+00 +8.3644005702097939e+00 +0.0000000000000000e+00 +4.6499999484790351e+00 -2.5790048258108797e-04 +0.0000000000000000e+00 +9.9999996674367009e-01
4.6999999999999913e+00 +8.3643876057653550e+00 +0.0000000000000000e+00 +4.6999999467982505e+00 -2.6067731492879811e-04 +0.0000000000000000e+00 +9.9999996602366825e-01
4.7499999999999911e+00 +8.3643745024762968e+00 +0.0000000000000000e+00 +4.7499999450812727e+00 -2.6345426757205337e-04 +0.0000000000000000e+00 +9.9999996529592394e-01
4.7999999999999909e+00 +8.3643612603365760e+00 +0.0000000000000000e+00 +4.7999999433277143e+00 -2.6623134158270675e-04 +0.0000000000000000e+00 +9.9999996456043583e-01
4.8499999999999908e+00 +8.3643478793400980e+00 +0.0000000000000000e+00 +4.8499999415371873e+00 -2.6900853802091043e-04 +0.0000000000000000e+00 +9.9999996381720269e-01
4.8999999999999906e+00 +8.3643343594807167e+00 +0.0000000000000000e+00 +4.8999999397093053e+00 -2.7178585793511594e-04 +0.0000000000000000e+00 +9.9999996306622319e-01
4.9499999999999904e+00 +8.3643207007522307e+00 +0.0000000000000000e+00 +4.9499999378436801e+00 -2.7456330236207409e-04 +0.0000000000000000e+00 +9.9999996230749599e-01
4.9999999999999902e+00 +8.3643069031483890e+00 +0.0000000000000000e+00 +4.9999999359399254e+00 -2.7734087232683500e-04 +0.0000000000000000e+00 +9.9999996154101978e-01
5.0499999999999901e+00 +8.3642929666628891e+00 +0.0000000000000000e+00 +5.0499999339976531e+00 -2.8011856884274807e-04 +0.0000000000000000e+00 +9.9999996076679321e-01
5.0999999999999899e+00 +8.3642788912893788e+00 +0.0000000000000000e+00 +5.0999999320164759e+00 -2.8289639291146203e-04 +0.0000000000000000e+00 +9.9999995998481495e-01
5.1499999999999897e+00 +8.3642646770214562e+00 +0.0000000000000000e+00 +5.1499999299960058e+00 -2.8567434552292492e-04 +0.0000000000000000e+00 +9.9999995919508367e-01
5.1999999999999895e+00 +8.3642503238526675e+00 +0.0000000000000000e+00 +5.1999999279358553e+00 -2.8845242765538411e-04 +0.0000000000000000e+00 +9.9999995839759792e-01
5.2499999999999893e+00 +8.3642358317765151e+00 +0.0000000000000000e+00 +5.2499999258356365e+00 -2.9123064027538633e-04 +0.0000000000000000e+00 +9.9999995759235649e-01
5.2999999999999892e+00 +8.3642212007864494e+00 +0.0000000000000000e+00 +5.2999999236949620e+00 -2.9400898433777753e-04 +0.0000000000000000e+00 +9.9999995677935793e-01
5.3499999999999890e+00 +8.3642064308758748e+00 +0.0000000000000000e+00 +5.3499999215134437e+00 -2.9678746078570301e-04 +0.0000000000000000e+00 +9.9999995595860092e-01
5.3999999999999888e+00 +8.3641915220381495e+00 +0.0000000000000000e+00 +5.3999999192906936e+00 -2.9956607055060748e-04 +0.0000000000000000e+00 +9.9999995513008400e-01
5.4499999999999886e+00 +8.3641764742665838e+00 +0.0000000000000000e+00 +5.4499999170263234e+00 -3.0234481455223487e-04 +0.0000000000000000e+00 +9.9999995429380584e-01
5.4999999999999885e+00 +8.3641612875544418e+00 +0.0000000000000000e+00 +5.4999999147199450e+00 -3.0512369369862841e-04 +0.0000000000000000e+00 +9.9999995344976500e-01
5.5499999999999883e+00 +8.3641459618949465e+00 +0.0000000000000000e+00 +5.5499999123711703e+00 -3.0790270888613077e-04 +0.0000000000000000e+00 +9.9999995259796015e-01
5.5999999999999881e+00 +8.3641304972812716e+00 +0.0000000000000000e+00 +5.5999999099796112e+00 -3.1068186099938376e-04 +0.0000000000000000e+00 +9.9999995173838985e-01
5.6499999999999879e+00 +8.3641148937065495e+00 +0.0000000000000000e+00 +5.6499999075448795e+00 -3.1346115091132864e-04 +0.0000000000000000e+00 +9.9999995087105265e-01
5.6999999999999877e+00 +8.3640991511638685e+00 +0.0000000000000000e+00 +5.6999999050665870e+00 -3.1624057948320585e-04 +0.0000000000000000e+00 +9.9999994999594710e-01
5.7499999999999876e+00 +8.3640832696462759e+00 +0.0000000000000000e+00 +5.7499999025443449e+00 -3.1902014756455524e-04 +0.0000000000000000e+00 +9.9999994911307188e-01
5.7999999999999874e+00 +8.3640672491467729e+00 +0.0000000000000000e+00 +5.7999998999777649e+00 -3.2179985599321582e-04 +0.0000000000000000e+00 +9.9999994822242544e-01
5.8499999999999872e+00 +8.3640510896583233e+00 +0.0000000000000000e+00 +5.8499998973664580e+00 -3.2457970559532595e-04 +0.0000000000000000e+00 +9.9999994732400643e-01
5.8999999999999870e+00 +8.3640347911738466e+00 +0.0000000000000000e+00 +5.8999998947100361e+00 -3.2735969718532319e-04 +0.0000000000000000e+00 +9.9999994641781331e-01
