# trajectory
# s[mm] rx[mm] ry[mm] rz[mm] px[rad] py[rad] pz[rad]
0.0000000000000000e+00 +8.2850000000000001e+00 +0.0000000000000000e+00 +0.0000000000000000e+00 +0.0000000000000000e+00 +0.0000000000000000e+00 +1.0000000000000000e+00
-5.0000000000000003e-02 +8.2849999306392483e+00 +0.0000000000000000e+00 -4.9999999999935860e-02 +2.7744289412567580e-06 +0.0000000000000000e+00 +9.9999999999615130e-01
-1.0000000000000001e-01 +8.2849997225572025e+00 +0.0000000000000000e+00 -9.9999999999486847e-02 +5.5488521071492213e-06 +0.0000000000000000e+00 +9.9999999998460520e-01
-1.5000000000000002e-01 +8.2849993757541043e+00 +0.0000000000000000e+00 -1.4999999999826810e-01 +8.3232713029629527e-06 +0.0000000000000000e+00 +9.9999999996536171e-01
-2.0000000000000001e-01 +8.2849988902301082e+00 +0.0000000000000000e+00 -1.9999999999589474e-01 +1.1097688333028634e-05 +0.0000000000000000e+00 +9.9999999993842081e-01
-2.5000000000000000e-01 +8.2849982659852763e+00 +0.0000000000000000e+00 -2.4999999999198191e-01 +1.3872105000722152e-05 +0.0000000000000000e+00 +9.9999999990378252e-01
-2.9999999999999999e-01 +8.2849975030195839e+00 +0.0000000000000000e+00 -2.9999999998614474e-01 +1.6646523108464687e-05 +0.0000000000000000e+00 +9.9999999986144683e-01
-3.4999999999999998e-01 +8.2849966013329119e+00 +0.0000000000000000e+00 -3.4999999997799836e-01 +1.9420944457722801e-05 +0.0000000000000000e+00 +9.9999999981141363e-01
-3.9999999999999997e-01 +8.2849955609250543e+00 +0.0000000000000000e+00 -3.9999999996715785e-01 +2.2195370849008522e-05 +0.0000000000000000e+00 +9.9999999975368292e-01
-4.4999999999999996e-01 +8.2849943817957126e+00 +0.0000000000000000e+00 -4.4999999995323836e-01 +2.4969804081879433e-05 +0.0000000000000000e+00 +9.9999999968825459e-01
-4.9999999999999994e-01 +8.2849930639445013e+00 +0.0000000000000000e+00 -4.9999999993585503e-01 +2.7744245954938759e-05 +0.0000000000000000e+00 +9.9999999961512853e-01
-5.4999999999999993e-01 +8.2849916073709426e+00 +0.0000000000000000e+00 -5.4999999991462289e-01 +3.0518698265835447e-05 +0.0000000000000000e+00 +9.9999999953430463e-01
-5.9999999999999998e-01 +8.2849900120744699e+00 +0.0000000000000000e+00 -5.9999999988915720e-01 +3.3293162811264261e-05 +0.0000000000000000e+00 +9.9999999944578277e-01
-6.5000000000000002e-01 +8.2849882780544277e+00 +0.0000000000000000e+00 -6.4999999985907286e-01 +3.6067641386965869e-05 +0.0000000000000000e+00 +9.9999999934956274e-01
-7.0000000000000007e-01 +8.2849864053100681e+00 +0.0000000000000000e+00 -6.9999999982398509e-01 +3.8842135787726900e-05 +0.0000000000000000e+00 +9.9999999924564431e-01
-7.5000000000000011e-01 +8.2849843938405563e+00 +0.0000000000000000e+00 -7.4999999978350895e-01 +4.1616647807380068e-05 +0.0000000000000000e+00 +9.9999999913402737e-01
-8.0000000000000016e-01 +8.2849822436449649e+00 +0.0000000000000000e+00 -7.9999999973725955e-01 +4.4391179238804235e-05 +0.0000000000000000e+00 +9.9999999901471170e-01
-8.5000000000000020e-01 +8.2849799547222798e+00 +0.0000000000000000e+00 -8.4999999968485185e-01 +4.7165731873924488e-05 +0.0000000000000000e+00 +9.9999999888769697e-01
-9.0000000000000024e-01 +8.2849775270713941e+00 +0.0000000000000000e+00 -8.9999999962590094e-01 +4.9940307503712245e-05 +0.0000000000000000e+00 +9.9999999875298295e-01
-9.5000000000000029e-01 +8.2849749606911161e+00 +0.0000000000000000e+00 -9.4999999956002179e-01 +5.2714907918185319e-05 +0.0000000000000000e+00 +9.9999999861056932e-01
-1.0000000000000002e+00 +8.2849722555801595e+00 +0.0000000000000000e+00 -9.9999999948682949e-01 +5.5489534906408003e-05 +0.0000000000000000e+00 +9.9999999846045584e-01
-1.0500000000000003e+00 +8.2849694117371531e+00 +0.0000000000000000e+00 -1.0499999994059390e+00 +5.8264190256491161e-05 +0.0000000000000000e+00 +9.9999999830264219e-01
-1.1000000000000003e+00 +8.2849664291606313e+00 +0.0000000000000000e+00 -1.0999999993169653e+00 +6.1038875755592306e-05 +0.0000000000000000e+00 +9.9999999813712792e-01
-1.1500000000000004e+00 +8.2849633078490452e+00 +0.0000000000000000e+00 -1.1499999992195236e+00 +6.3813593189915679e-05 +0.0000000000000000e+00 +9.9999999796391281e-01
-1.2000000000000004e+00 +8.2849600478007517e+00 +0.0000000000000000e+00 -1.1999999991132284e+00 +6.6588344344712338e-05 +0.0000000000000000e+00 +9.9999999778299631e-01
-1.2500000000000004e+00 +8.2849566490140187e+00 +0.0000000000000000e+00 -1.2499999989976949e+00 +6.9363131004280211e-05 +0.0000000000000000e+00 +9.9999999759437819e-01
-1.3000000000000005e+00 +8.2849531114870292e+00 +0.0000000000000000e+00 -1.2999999988725379e+00 +7.2137954951964229e-05 +0.0000000000000000e+00 +9.9999999739805789e-01
-1.3500000000000005e+00 +8.2849494352178734e+00 +0.0000000000000000e+00 -1.3499999987373723e+00 +7.4912817970156374e-05 +0.0000000000000000e+00 +9.9999999719403498e-01
-1.4000000000000006e+00 +8.2849456202045513e+00 +0.0000000000000000e+00 -1.3999999985918130e+00 +7.7687721840295738e-05 +0.0000000000000000e+00 +9.9999999698230901e-01
-1.4500000000000006e+00 +8.2849416664449773e+00 +0.0000000000000000e+00 -1.4499999984354748e+00 +8.0462668342868641e-05 +0.0000000000000000e+00 +9.9999999676287954e-01
-1.5000000000000007e+00 +8.2849375739369755e+00 +0.0000000000000000e+00 -1.4999999982679726e+00 +8.3237659257408690e-05 +0.0000000000000000e+00 +9.9999999653574612e-01
-1.5500000000000007e+00 +8.2849333426782810e+00 +0.0000000000000000e+00 -1.5499999980889210e+00 +8.6012696362496857e-05 +0.0000000000000000e+00 +9.9999999630090808e-01
-1.6000000000000008e+00 +8.2849289726665400e+00 +0.0000000000000000e+00 -1.5999999978979349e+00 +8.8787781435761587e-05 +0.0000000000000000e+00 +9.9999999605836498e-01
-1.6500000000000008e+00 +8.2849244638993085e+00 +0.0000000000000000e+00 -1.6499999976946291e+00 +9.1562916253878828e-05 +0.0000000000000000e+00 +9.9999999580811627e-01
-1.7000000000000008e+00 +8.2849198163740549e+00 +0.0000000000000000e+00 -1.6999999974786182e+00 +9.4338102592572150e-05 +0.0000000000000000e+00 +9.9999999555016128e-01
-1.7500000000000009e+00 +8.2849150300881611e+00 +0.0000000000000000e+00 -1.7499999972495168e+00 +9.7113342226612802e-05 +0.0000000000000000e+00 +9.9999999528449945e-01
-1.8000000000000009e+00 +8.2849101050389162e+00 +0.0000000000000000e+00 -1.7999999970069396e+00 +9.9888636929819775e-05 +0.0000000000000000e+00 +9.9999999501113013e-01
-1.8500000000000010e+00 +8.2849050412235208e+00 +0.0000000000000000e+00 -1.8499999967505012e+00 +1.0266398847505993e-04 +0.0000000000000000e+00 +9.9999999473005274e-01
-1.9000000000000010e+00 +8.2848998386390917e+00 +0.0000000000000000e+00 -1.8999999964798162e+00 +1.0543939863424801e-04 +0.0000000000000000e+00 +9.9999999444126664e-01
-1.9500000000000011e+00 +8.2848944972826519e+00 +0.0000000000000000e+00 -1.9499999961944994e+00 +1.0821486917834677e-04 +0.0000000000000000e+00 +9.9999999414477103e-01
-2.0000000000000009e+00 +8.2848890171511389e+00 +0.0000000000000000e+00 -1.9999999958941650e+00 +1.1099040187736702e-04 +0.0000000000000000e+00 +9.9999999384056537e-01
-2.0500000000000007e+00 +8.2848833982413996e+00 +0.0000000000000000e+00 -2.0499999955784274e+00 +1.1376599850002735e-04 +0.0000000000000000e+00 +9.9999999352864877e-01
-2.1000000000000005e+00 +8.2848776405501940e+00 +0.0000000000000000e+00 -2.0999999952469013e+00 +1.1654166081001029e-04 +0.0000000000000000e+00 +9.9999999320902067e-01
-2.1500000000000004e+00 +8.2848717440741950e+00 +0.0000000000000000e+00 -2.1499999948992010e+00 +1.1931739056221845e-04 +0.0000000000000000e+00 +9.9999999288168018e-01
-2.2000000000000002e+00 +8.2848657088099849e+00 +0.0000000000000000e+00 -2.1999999945349407e+00 +1.2209318950243424e-04 +0.0000000000000000e+00 +9.9999999254662653e-01
-2.2500000000000000e+00 +8.2848595347540623e+00 +0.0000000000000000e+00 -2.2499999941537348e+00 +1.2486905936731990e-04 +0.0000000000000000e+00 +9.9999999220385904e-01
-2.2999999999999998e+00 +8.2848532219028375e+00 +0.0000000000000000e+00 -2.2999999937551978e+00 +1.2764500188441763e-04 +0.0000000000000000e+00 +9.9999999185337674e-01
-2.3499999999999996e+00 +8.2848467702526349e+00 +0.0000000000000000e+00 -2.3499999933389439e+00 +1.3042101877214958e-04 +0.0000000000000000e+00 +9.9999999149517893e-01
-2.3999999999999995e+00 +8.2848401797996925e+00 +0.0000000000000000e+00 -2.3999999929045872e+00 +1.3319711173981797e-04 +0.0000000000000000e+00 +9.9999999112926474e-01
-2.4499999999999993e+00 +8.2848334505401642e+00 +0.0000000000000000e+00 -2.4499999924517417e+00 +1.3597328248760509e-04 +0.0000000000000000e+00 +9.9999999075563328e-01
-2.4999999999999991e+00 +8.2848265824701190e+00 +0.0000000000000000e+00 -2.4999999919800220e+00 +1.3874953270657348e-04 +0.0000000000000000e+00 +9.9999999037428366e-01
-2.5499999999999989e+00 +8.2848195755855407e+00 +0.0000000000000000e+00 -2.5499999914890417e+00 +1.4152586407866586e-04 +0.0000000000000000e+00 +9.9999998998521500e-01
-2.5999999999999988e+00 +8.2848124298823311e+00 +0.0000000000000000e+00 -2.5999999909784148e+00 +1.4430227827670527e-04 +0.0000000000000000e+00 +9.9999998958842629e-01
-2.6499999999999986e+00 +8.2848051453563052e+00 +0.0000000000000000e+00 -2.6499999904477556e+00 +1.4707877696439506e-04 +0.0000000000000000e+00 +9.9999998918391675e-01
-2.6999999999999984e+00 +8.2847977220031979e+00 +0.0000000000000000e+00 -2.6999999898966780e+00 +1.4985536179631907e-04 +0.0000000000000000e+00 +9.9999998877168528e-01
-2.7499999999999982e+00 +8.2847901598186624e+00 +0.0000000000000000e+00 -2.7499999893247957e+00 +1.5263203441794154e-04 +0.0000000000000000e+00 +9.9999998835173098e-01
-2.7999999999999980e+00 +8.2847824587982668e+00 +0.0000000000000000e+00 -2.7999999887317224e+00 +1.5540879646560728e-04 +0.0000000000000000e+00 +9.9999998792405298e-01
-2.8499999999999979e+00 +8.2847746189374991e+00 +0.0000000000000000e+00 -2.8499999881170721e+00 +1.5818564956654165e-04 +0.0000000000000000e+00 +9.9999998748865015e-01
-2.8999999999999977e+00 +8.2847666402317657e+00 +0.0000000000000000e+00 -2.8999999874804585e+00 +1.6096259533885068e-04 +0.0000000000000000e+00 +9.9999998704552151e-01
-2.9499999999999975e+00 +8.2847585226763929e+00 +0.0000000000000000e+00 -2.9499999868214952e+00 +1.6373963539152109e-04 +0.0000000000000000e+00 +9.9999998659466593e-01
-2.9999999999999973e+00 +8.2847502662666272e+00 +0.0000000000000000e+00 -2.9999999861397963e+00 +1.6651677132442037e-04 +0.0000000000000000e+00 +9.9999998613608243e-01
-3.0499999999999972e+00 +8.2847418709976353e+00 +0.0000000000000000e+00 -3.0499999854349751e+00 +1.6929400472829676e-04 +0.0000000000000000e+00 +9.9999998566977000e-01
-3.0999999999999970e+00 +8.2847333368645035e+00 +0.0000000000000000e+00 -3.0999999847066446e+00 +1.7207133718477938e-04 +0.0000000000000000e+00 +9.9999998519572741e-01
-3.1499999999999968e+00 +8.2847246638622405e+00 +0.0000000000000000e+00 -3.1499999839544190e+00 +1.7484877026637829e-04 +0.0000000000000000e+00 +9.9999998471395368e-01
-3.1999999999999966e+00 +8.2847158519857746e+00 +0.0000000000000000e+00 -3.1999999831779111e+00 +1.7762630553648444e-04 +0.0000000000000000e+00 +9.9999998422444769e-01
-3.2499999999999964e+00 +8.2847069012299581e+00 +0.0000000000000000e+00 -3.2499999823767349e+00 +1.8040394454936986e-04 +0.0000000000000000e+00 +9.9999998372720833e-01
-3.2999999999999963e+00 +8.2846978115895649e+00 +0.0000000000000000e+00 -3.2999999815505032e+00 +1.8318168885018756e-04 +0.0000000000000000e+00 +9.9999998322223438e-01
-3.3499999999999961e+00 +8.2846885830592925e+00 +0.0000000000000000e+00 -3.3499999806988296e+00 +1.8595953997497172e-04 +0.0000000000000000e+00 +9.9999998270952473e-01
-3.3999999999999959e+00 +8.2846792156337621e+00 +0.0000000000000000e+00 -3.3999999798213270e+00 +1.8873749945063763e-04 +0.0000000000000000e+00 +9.9999998218907815e-01
-3.4499999999999957e+00 +8.2846697093075168e+00 +0.0000000000000000e+00 -3.4499999789176083e+00 +1.9151556879498183e-04 +0.0000000000000000e+00 +9.9999998166089343e-01
-3.4999999999999956e+00 +8.2846600640750268e+00 +0.0000000000000000e+00 -3.4999999779872870e+00 +1.9429374951668204e-04 +0.0000000000000000e+00 +9.9999998112496946e-01
-3.5499999999999954e+00 +8.2846502799306840e+00 +0.0000000000000000e+00 -3.5499999770299762e+00 +1.9707204311529729e-04 +0.0000000000000000e+00 +9.9999998058130490e-01
-3.5999999999999952e+00 +8.2846403568688096e+00 +0.0000000000000000e+00 -3.5999999760452885e+00 +1.9985045108126797e-04 +0.0000000000000000e+00 +9.9999998002989854e-01
-3.6499999999999950e+00 +8.2846302948836463e+00 +0.0000000000000000e+00 -3.6499999750328369e+00 +2.0262897489591584e-04 +0.0000000000000000e+00 +9.9999997947074915e-01
-3.6999999999999948e+00 +8.2846200939693642e+00 +0.0000000000000000e+00 -3.6999999739922345e+00 +2.0540761603144404e-04 +0.0000000000000000e+00 +9.9999997890385550e-01
-3.7499999999999947e+00 +8.2846097541200621e+00 +0.0000000000000000e+00 -3.7499999729230935e+00 +2.0818637595093723e-04 +0.0000000000000000e+00 +9.9999997832921628e-01
-3.7999999999999945e+00 +8.2845992753297644e+00 +0.0000000000000000e+00 -3.7999999718250268e+00 +2.1096525610836154e-04 +0.0000000000000000e+00 +9.9999997774683014e-01
-3.8499999999999943e+00 +8.2845886575924226e+00 +0.0000000000000000e+00 -3.8499999706976471e+00 +2.1374425794856467e-04 +0.0000000000000000e+00 +9.9999997715669586e-01
-3.8999999999999941e+00 +8.2845779009019171e+00 +0.0000000000000000e+00 -3.8999999695405672e+00 +2.1652338290727586e-04 +0.0000000000000000e+00 +9.9999997655881212e-01
-3.9499999999999940e+00 +8.2845670052520557e+00 +0.0000000000000000e+00 -3.9499999683533993e+00 +2.1930263241110601e-04 +0.0000000000000000e+00 +9.9999997595317747e-01
-3.9999999999999938e+00 +8.2845559706365766e+00 +0.0000000000000000e+00 -3.9999999671357558e+00 +2.2208200787754767e-04 +0.0000000000000000e+00 +9.9999997533979068e-01
-4.0499999999999936e+00 +8.2845447970491453e+00 +0.0000000000000000e+00 -4.0499999658872490e+00 +2.2486151071478511e-04 +0.0000000000000000e+00 +9.9999997471865032e-01
-4.0999999999999934e+00 +8.2845334844833580e+00 +0.0000000000000000e+00 -4.0999999646074912e+00 +2.2764114231960448e-04 +0.0000000000000000e+00 +9.9999997408975494e-01
-4.1499999999999932e+00 +8.2845220329327436e+00 +0.0000000000000000e+00 -4.1499999632960947e+00 +2.3042090407530402e-04 +0.0000000000000000e+00 +9.9999997345310321e-01
-4.1999999999999931e+00 +8.2845104423907596e+00 +0.0000000000000000e+00 -4.1999999619526722e+00 +2.3320079735150405e-04 +0.0000000000000000e+00 +9.9999997280869379e-01
-4.2499999999999929e+00 +8.2844987128507945e+00 +0.0000000000000000e+00 -4.2499999605768348e+00 +2.3598082350414701e-04 +0.0000000000000000e+00 +9.9999997215652514e-01
-4.2999999999999927e+00 +8.2844868443061728e+00 +0.0000000000000000e+00 -4.2999999591681952e+00 +2.3876098387549746e-04 +0.0000000000000000e+00 +9.9999997149659592e-01
-4.3499999999999925e+00 +8.2844748367501477e+00 +0.0000000000000000e+00 -4.3499999577263653e+00 +2.4154127979414202e-04 +0.0000000000000000e+00 +9.9999997082890468e-01
-4.3999999999999924e+00 +8.2844626901759106e+00 +0.0000000000000000e+00 -4.3999999562509569e+00 +2.4432171257498945e-04 +0.0000000000000000e+00 +9.9999997015344999e-01
-4.4499999999999922e+00 +8.2844504045765870e+00 +0.0000000000000000e+00 -4.4499999547415809e+00 +2.4710228351927064e-04 +0.0000000000000000e+00 +9.9999996947023029e-01
-4.4999999999999920e+00 +8.2844379799452348e+00 +0.0000000000000000e+00 -4.4999999531978503e+00 +2.4988299391453855e-04 +0.0000000000000000e+00 +9.9999996877924424e-01
-4.5499999999999918e+00 +8.2844254162748499e+00 +0.0000000000000000e+00 -4.5499999516193759e+00 +2.5266384503466825e-04 +0.0000000000000000e+00 +9.9999996808049030e-01
-4.5999999999999917e+00 +8.2844127135583641e+00 +0.0000000000000000e+00 -4.5999999500057696e+00 +2.5544483813985696e-04 +0.0000000000000000e+00 +9.9999996737396690e-01
-4.6499999999999915e+00 +8.2843998717886489e+00 +0.0000000000000000e+00 -4.6499999483566432e+00 +2.5822597447662396e-04 +0.0000000000000000e+00 +9.9999996665967261e-01
-4.6999999999999913e+00 +8.2843868909585101e+00 +0.0000000000000000e+00 -4.6999999466716078e+00 +2.6100725527781056e-04 +0.0000000000000000e+00 +9.9999996593760587e-01
-4.7499999999999911e+00 +8.2843737710606931e+00 +0.0000000000000000e+00 -4.7499999449502743e+00 +2.6378868176258024e-04 +0.0000000000000000e+00 +9.9999996520776524e-01
-4.7999999999999909e+00 +8.2843605120878845e+00 +0.0000000000000000e+00 -4.7999999431922546e+00 +2.6657025513641849e-04 +0.0000000000000000e+00 +9.9999996447014905e-01
-4.8499999999999908e+00 +8.2843471140327107e+00 +0.0000000000000000e+00 -4.8499999413971597e+00 +2.6935197659113286e-04 +0.0000000000000000e+00 +9.9999996372475586e-01
-4.8999999999999906e+00 +8.2843335768877377e+00 +0.0000000000000000e+00 -4.8999999395646006e+00 +2.7213384730485289e-04 +0.0000000000000000e+00 +9.9999996297158400e-01
-4.9499999999999904e+00 +8.2843199006454729e+00 +0.0000000000000000e+00 -4.9499999376941881e+00 +2.7491586844203024e-04 +0.0000000000000000e+00 +9.9999996221063203e-01
-4.9999999999999902e+00 +8.2843060852983665e+00 +0.0000000000000000e+00 -4.9999999357855334e+00 +2.7769804115343851e-04 +0.0000000000000000e+00 +9.9999996144189829e-01
-5.0499999999999901e+00 +8.2842921308388124e+00 +0.0000000000000000e+00 -5.0499999338382482e+00 +2.8048036657617328e-04 +0.0000000000000000e+00 +9.9999996066538122e-01
-5.0999999999999899e+00 +8.2842780372591456e+00 +0.0000000000000000e+00 -5.0999999318519418e+00 +2.8326284583365214e-04 +0.0000000000000000e+00 +9.9999995988107926e-01
-5.1499999999999897e+00 +8.2842638045516459e+00 +0.0000000000000000e+00 -5.1499999298262260e+00 +2.8604548003561457e-04 +0.0000000000000000e+00 +9.9999995908899086e-01
-5.1999999999999895e+00 +8.2842494327085401e+00 +0.0000000000000000e+00 -5.1999999277607110e+00 +2.8882827027812197e-04 +0.0000000000000000e+00 +9.9999995828911425e-01
-5.2499999999999893e+00 +8.2842349217219997e+00 +0.0000000000000000e+00 -5.2499999256550076e+00 +2.9161121764355758e-04 +0.0000000000000000e+00 +9.9999995748144799e-01
-5.2999999999999892e+00 +8.2842202715841395e+00 +0.0000000000000000e+00 -5.2999999235087261e+00 +2.9439432320062660e-04 +0.0000000000000000e+00 +9.9999995666599029e-01
-5.3499999999999890e+00 +8.2842054822870246e+00 +0.0000000000000000e+00 -5.3499999213214764e+00 +2.9717758800435601e-04 +0.0000000000000000e+00 +9.9999995584273960e-01
-5.3999999999999888e+00 +8.2841905538226666e+00 +0.0000000000000000e+00 -5.3999999190928696e+00 +2.9996101309609464e-04 +0.0000000000000000e+00 +9.9999995501169425e-01
-5.4499999999999886e+00 +8.2841754861830257e+00 +0.0000000000000000e+00 -5.4499999168225157e+00 +3.0274459950351299e-04 +0.0000000000000000e+00 +9.9999995417285259e-01
-5.4999999999999885e+00 +8.2841602793600106e+00 +0.0000000000000000e+00 -5.4999999145100249e+00 +3.0552834824060335e-04 +0.0000000000000000e+00 +9.9999995332621305e-01
-5.5499999999999883e+00 +8.2841449333454804e+00 +0.0000000000000000e+00 -5.5499999121550072e+00 +3.0831226030767975e-04 +0.0000000000000000e+00 +9.9999995247177387e-01
-5.5999999999999881e+00 +8.2841294481312424e+00 +0.0000000000000000e+00 -5.5999999097570727e+00 +3.1109633669137781e-04 +0.0000000000000000e+00 +9.9999995160953337e-01
-5.6499999999999879e+00 +8.2841138237090561e+00 +0.0000000000000000e+00 -5.6499999073158307e+00 +3.1388057836465483e-04 +0.0000000000000000e+00 +9.9999995073948988e-01
-5.6999999999999877e+00 +8.2840980600706349e+00 +0.0000000000000000e+00 -5.6999999048308911e+00 +3.1666498628678963e-04 +0.0000000000000000e+00 +9.9999994986164176e-01
-5.7499999999999876e+00 +8.2840821572076404e+00 +0.0000000000000000e+00 -5.7499999023018642e+00 +3.1944956140338257e-04 +0.0000000000000000e+00 +9.9999994897598732e-01
-5.7999999999999874e+00 +8.2840661151116919e+00 +0.0000000000000000e+00 -5.7999998997283599e+00 +3.2223430464635563e-04 +0.0000000000000000e+00 +9.9999994808252490e-01
-5.8499999999999872e+00 +8.2840499337743587e+00 +0.0000000000000000e+00 -5.8499998971099867e+00 +3.2501921693395210e-04 +0.0000000000000000e+00 +9.9999994718125274e-01
