# field on trajectory
# s[mm] rx[mm] ry[mm] rz[mm] bx[T] by[T] bz[T]
0.0000000000000000e+00 +8.5270000000000206e+00 +0.0000000000000000e+00 +0.0000000000000000e+00 -2.7569552510050707e-02 -5.2482490164186391e-01 +5.0122322199423483e-03
5.0000000000000003e-02 +8.5269999309457507e+00 +0.0000000000000000e+00 +4.9999999999936401e-02 -2.7569959269742903e-02 -5.2482651700099470e-01 +5.0144506282829987e-03
1.0000000000000001e-01 +8.5269997237846802e+00 +0.0000000000000000e+00 +9.9999999999491399e-02 -2.7570377683804409e-02 -5.2482847446594927e-01 +5.0166768295374451e-03
1.4999999999999999e-01 +8.5269993785186706e+00 +0.0000000000000000e+00 +1.4999999999828301e-01 -2.7570807710767524e-02 -5.2483077304084758e-01 +5.0189106873219499e-03
2.0000000000000001e-01 +8.5269988951477007e+00 +0.0000000000000000e+00 +1.9999999999593099e-01 -2.7571249309165383e-02 -5.2483341172983899e-01 +5.0211520652532829e-03
2.5000000000000000e-01 +8.5269982736681396e+00 +0.0000000000000000e+00 +2.4999999999205300e-01 -2.7571702437532621e-02 -5.2483638953711442e-01 +5.0234008269488123e-03
2.9999999999999999e-01 +8.5269975140799907e+00 +0.0000000000000000e+00 +2.9999999998626697e-01 -2.7572167054402907e-02 -5.2483970546685443e-01 +5.0256568360260261e-03
3.4999999999999998e-01 +8.5269966163905302e+00 +0.0000000000000000e+00 +3.4999999997819298e-01 -2.7572643118307708e-02 -5.2484335852320640e-01 +5.0279199561022898e-03
4.0000000000000002e-01 +8.5269955805888493e+00 +0.0000000000000000e+00 +3.9999999996744801e-01 -2.7573130587785152e-02 -5.2484734771045805e-01 +5.0301900507964369e-03
4.5000000000000001e-01 +8.5269944066858407e+00 +0.0000000000000000e+00 +4.4999999995365197e-01 -2.7573629421366166e-02 -5.2485167203276195e-01 +5.0324669837262161e-03
5.0000000000000000e-01 +8.5269930946742498e+00 +0.0000000000000000e+00 +4.9999999993642202e-01 -2.7574139577588429e-02 -5.2485633049441038e-01 +5.0347506185108156e-03
5.5000000000000004e-01 +8.5269916445577092e+00 +0.0000000000000000e+00 +5.4999999991537796e-01 -2.7574661014986294e-02 -5.2486132209963576e-01 +5.0370408187689975e-03
5.9999999999999998e-01 +8.5269900563289394e+00 +0.0000000000000000e+00 +5.9999999989013697e-01 -2.7575193692098387e-02 -5.2486664585276033e-01 +5.0393374481204718e-03
6.5000000000000002e-01 +8.5269883299988596e+00 +0.0000000000000000e+00 +6.4999999986031898e-01 -2.7575737567457556e-02 -5.2487230075799474e-01 +5.0416403701840041e-03
6.9999999999999996e-01 +8.5269864655601904e+00 +0.0000000000000000e+00 +6.9999999982554195e-01 -2.7576292599603515e-02 -5.2487828581968865e-01 +5.0439494485797487e-03
7.5000000000000000e-01 +8.5269844630165608e+00 +0.0000000000000000e+00 +7.4999999978542398e-01 -2.7576858747072813e-02 -5.2488460004213155e-01 +5.0462645469273567e-03
8.0000000000000004e-01 +8.5269823223679904e+00 +0.0000000000000000e+00 +7.9999999973958402e-01 -2.7577435968403872e-02 -5.2489124242964980e-01 +5.0485855288468851e-03
8.4999999999999998e-01 +8.5269800436108198e+00 +0.0000000000000000e+00 +8.4999999968764095e-01 -2.7578024222137065e-02 -5.2489821198660958e-01 +5.0509122579588004e-03
9.0000000000000002e-01 +8.5269776267450705e+00 +0.0000000000000000e+00 +8.9999999962921295e-01 -2.7578623466812217e-02 -5.2490550771736444e-01 +5.0532445978834720e-03
9.4999999999999996e-01 +8.5269750717743609e+00 +0.0000000000000000e+00 +9.4999999956391801e-01 -2.7579233660968590e-02 -5.2491312862625483e-01 +5.0555824122411530e-03
1.0000000000000000e+00 +8.5269723786986997e+00 +0.0000000000000000e+00 +9.9999999949137597e-01 -2.7579854763147529e-02 -5.2492107371766017e-01 +5.0579255646524572e-03
1.0500000000000000e+00 +8.5269695475144491e+00 +0.0000000000000000e+00 +1.0499999994111999e+00 -2.7580486731892419e-02 -5.2492934199599650e-01 +5.0602739187383169e-03
1.1000000000000001e+00 +8.5269665782288904e+00 +0.0000000000000000e+00 +1.0999999993230201e+00 -2.7581129525743740e-02 -5.2493793246561637e-01 +5.0626273381190355e-03
1.1499999999999999e+00 +8.5269634708311095e+00 +0.0000000000000000e+00 +1.1499999992264500e+00 -2.7581783103249140e-02 -5.2494684413101067e-01 +5.0649856864161619e-03
1.2000000000000000e+00 +8.5269602253283701e+00 +0.0000000000000000e+00 +1.1999999991210999e+00 -2.7582447422950875e-02 -5.2495607599655525e-01 +5.0673488272500941e-03
1.2500000000000000e+00 +8.5269568417206791e+00 +0.0000000000000000e+00 +1.2499999990065900e+00 -2.7583122443394680e-02 -5.2496562706668815e-01 +5.0697166242417340e-03
1.3000000000000000e+00 +8.5269533200044005e+00 +0.0000000000000000e+00 +1.2999999988825499e+00 -2.7583808123128543e-02 -5.2497549634588336e-01 +5.0720889410122236e-03
1.3500000000000001e+00 +8.5269496601795307e+00 +0.0000000000000000e+00 +1.3499999987485900e+00 -2.7584504420700234e-02 -5.2498568283860048e-01 +5.0744656411824615e-03
1.3999999999999999e+00 +8.5269458622533403e+00 +0.0000000000000000e+00 +1.3999999986043401e+00 -2.7585211294656006e-02 -5.2499618554926020e-01 +5.0768465883728334e-03
1.4500000000000000e+00 +8.5269419262185693e+00 +0.0000000000000000e+00 +1.4499999984494001e+00 -2.7585928703548299e-02 -5.2500700348239260e-01 +5.0792316462046410e-03
1.5000000000000000e+00 +8.5269378520752106e+00 +0.0000000000000000e+00 +1.4999999982833900e+00 -2.7586656605928125e-02 -5.2501813564248900e-01 +5.0816206782986475e-03
1.5500000000000000e+00 +8.5269336398268898e+00 +0.0000000000000000e+00 +1.5499999981059500e+00 -2.7587394960346442e-02 -5.2502958103402508e-01 +5.0840135482752907e-03
1.6000000000000001e+00 +8.5269292894736299e+00 +0.0000000000000000e+00 +1.5999999979166799e+00 -2.7588143725356607e-02 -5.2504133866151048e-01 +5.0864101197551489e-03
1.6499999999999999e+00 +8.5269248010117700e+00 +0.0000000000000000e+00 +1.6499999977152000e+00 -2.7588902859514534e-02 -5.2505340752949115e-01 +5.0888102563589411e-03
1.7000000000000000e+00 +8.5269201744449692e+00 +0.0000000000000000e+00 +1.6999999975011300e+00 -2.7589672321374832e-02 -5.2506578664246994e-01 +5.0912138217067563e-03
1.7500000000000000e+00 +8.5269154097695701e+00 +0.0000000000000000e+00 +1.7499999972740901e+00 -2.7590452069495997e-02 -5.2507847500500993e-01 +5.0936206794190272e-03
1.8000000000000000e+00 +8.5269105069892195e+00 +0.0000000000000000e+00 +1.7999999970336999e+00 -2.7591242062435271e-02 -5.2509147162163305e-01 +5.0960306931155316e-03
1.8500000000000001e+00 +8.5269054661039299e+00 +0.0000000000000000e+00 +1.8499999967795799e+00 -2.7592042258752579e-02 -5.2510477549689294e-01 +5.0984437264161055e-03
1.8999999999999999e+00 +8.5269002871100401e+00 +0.0000000000000000e+00 +1.8999999965113501e+00 -2.7592852617010531e-02 -5.2511838563537916e-01 +5.1008596429406349e-03
1.9500000000000000e+00 +8.5268949700112007e+00 +0.0000000000000000e+00 +1.9499999962286201e+00 -2.7593673095770620e-02 -5.2513230104163655e-01 +5.1032783063082905e-03
2.0000000000000000e+00 +8.5268895148037700e+00 +0.0000000000000000e+00 +1.9999999959310100e+00 -2.7594503653598359e-02 -5.2514652072026946e-01 +5.1056995801385049e-03
2.0499999999999998e+00 +8.5268839213858900e+00 +0.0000000000000000e+00 +2.0499999956181298e+00 -2.7595344251806268e-02 -5.2516104349832327e-01 +5.1081233266504628e-03
2.1000000000000001e+00 +8.5268781896593300e+00 +0.0000000000000000e+00 +2.0999999952895898e+00 -2.7596194862551642e-02 -5.2517586748984202e-01 +5.1105494024361970e-03
2.1499999999999999e+00 +8.5268723196240899e+00 +0.0000000000000000e+00 +2.1499999949449999e+00 -2.7597055460669567e-02 -5.2519099062995100e-01 +5.1129776626742023e-03
2.2000000000000002e+00 +8.5268663112729008e+00 +0.0000000000000000e+00 +2.1999999945839801e+00 -2.7597926020998413e-02 -5.2520641085383568e-01 +5.1154079625432766e-03
2.2500000000000000e+00 +8.5268601646093902e+00 +0.0000000000000000e+00 +2.2499999942061502e+00 -2.7598806518373646e-02 -5.2522212609661612e-01 +5.1178401572212701e-03
2.2999999999999998e+00 +8.5268538796335598e+00 +0.0000000000000000e+00 +2.2999999938111202e+00 -2.7599696927632696e-02 -5.2523813429344468e-01 +5.1202741018860536e-03
2.3500000000000001e+00 +8.5268474563490599e+00 +0.0000000000000000e+00 +2.3499999933985198e+00 -2.7600597223612529e-02 -5.2525443337945943e-01 +5.1227096517150227e-03
2.3999999999999999e+00 +8.5268408947522403e+00 +0.0000000000000000e+00 +2.3999999929679601e+00 -2.7601507381153481e-02 -5.2527102128985759e-01 +5.1251466618858392e-03
2.4500000000000002e+00 +8.5268341948467405e+00 +0.0000000000000000e+00 +2.4499999925190501e+00 -2.7602427375094048e-02 -5.2528789595979375e-01 +5.1275849875753966e-03
2.5000000000000000e+00 +8.5268273566252901e+00 +0.0000000000000000e+00 +2.4999999920514302e+00 -2.7603357180277316e-02 -5.2530505532450877e-01 +5.1300244839610912e-03
2.5499999999999998e+00 +8.5268203800987994e+00 +0.0000000000000000e+00 +2.5499999915646900e+00 -2.7604296771540752e-02 -5.2532249731912406e-01 +5.1324650062187826e-03
2.6000000000000001e+00 +8.5268132652563509e+00 +0.0000000000000000e+00 +2.5999999910584699e+00 -2.7605246123730175e-02 -5.2534021987892265e-01 +5.1349064095255539e-03
2.6499999999999999e+00 +8.5268060121015896e+00 +0.0000000000000000e+00 +2.6499999905323701e+00 -2.7606205211687093e-02 -5.2535822093909501e-01 +5.1373485490571868e-03
2.7000000000000002e+00 +8.5267986206345103e+00 +0.0000000000000000e+00 +2.6999999899860101e+00 -2.7607174010254910e-02 -5.2537649843486367e-01 +5.1397912799893983e-03
2.7500000000000000e+00 +8.5267910908551094e+00 +0.0000000000000000e+00 +2.7499999894190199e+00 -2.7608152494277827e-02 -5.2539505030146194e-01 +5.1422344574976022e-03
2.7999999999999998e+00 +8.5267834227670392e+00 +0.0000000000000000e+00 +2.7999999888310101e+00 -2.7609140638599376e-02 -5.2541387447410370e-01 +5.1446779367566075e-03
2.8500000000000001e+00 +8.5267756163666508e+00 +0.0000000000000000e+00 +2.8499999882215898e+00 -2.7610138418066404e-02 -5.2543296888806312e-01 +5.1471215729414037e-03
2.8999999999999999e+00 +8.5267676716539391e+00 +0.0000000000000000e+00 +2.8999999875903901e+00 -2.7611145807525092e-02 -5.2545233147859716e-01 +5.1495652212263637e-03
2.9500000000000002e+00 +8.5267595886289200e+00 +0.0000000000000000e+00 +2.9499999869370299e+00 -2.7612162781822321e-02 -5.2547196018096931e-01 +5.1520087367854968e-03
3.0000000000000000e+00 +8.5267513672915793e+00 +0.0000000000000000e+00 +2.9999999862611100e+00 -2.7613189315805611e-02 -5.2549185293045253e-01 +5.1544519747924421e-03
3.0499999999999998e+00 +8.5267430076455604e+00 +0.0000000000000000e+00 +3.0499999855622502e+00 -2.7614225384321865e-02 -5.2551200766230133e-01 +5.1568947904201932e-03
3.1000000000000001e+00 +8.5267345096872305e+00 +0.0000000000000000e+00 +3.0999999848400801e+00 -2.7615270962221144e-02 -5.2553242231182851e-01 +5.1593370388418498e-03
3.1499999999999999e+00 +8.5267258734165807e+00 +0.0000000000000000e+00 +3.1499999840942201e+00 -2.7616326024352884e-02 -5.2555309481432944e-01 +5.1617785752298547e-03
3.2000000000000002e+00 +8.5267170988336094e+00 +0.0000000000000000e+00 +3.1999999833242700e+00 -2.7617390545567135e-02 -5.2557402310510692e-01 +5.1642192547562259e-03
3.2500000000000000e+00 +8.5267081859419704e+00 +0.0000000000000000e+00 +3.2499999825298600e+00 -2.7618464500713258e-02 -5.2559520511944569e-01 +5.1666589325922883e-03
3.2999999999999998e+00 +8.5266991347380099e+00 +0.0000000000000000e+00 +3.2999999817106000e+00 -2.7619547864643771e-02 -5.2561663879268872e-01 +5.1690974639094474e-03
3.3500000000000001e+00 +8.5266899452181004e+00 +0.0000000000000000e+00 +3.3499999808661101e+00 -2.7620640612211769e-02 -5.2563832206018546e-01 +5.1715347038786422e-03
3.3999999999999999e+00 +8.5266806173895002e+00 +0.0000000000000000e+00 +3.3999999799960099e+00 -2.7621742718267103e-02 -5.2566025285721718e-01 +5.1739705076695808e-03
3.4500000000000002e+00 +8.5266711512522306e+00 +0.0000000000000000e+00 +3.4499999790999101e+00 -2.7622854157662743e-02 -5.2568242911912255e-01 +5.1764047304520052e-03
3.5000000000000000e+00 +8.5266615468026394e+00 +0.0000000000000000e+00 +3.4999999781774398e+00 -2.7623974905253489e-02 -5.2570484878127266e-01 +5.1788372273954275e-03
3.5499999999999998e+00 +8.5266518040407409e+00 +0.0000000000000000e+00 +3.5499999772282100e+00 -2.7625104935893378e-02 -5.2572750977901950e-01 +5.1812678536686018e-03
3.6000000000000001e+00 +8.5266419229665207e+00 +0.0000000000000000e+00 +3.5999999762518402e+00 -2.7626244224437033e-02 -5.2575041004772261e-01 +5.1836964644397746e-03
3.6499999999999999e+00 +8.5266319035799807e+00 +0.0000000000000000e+00 +3.6499999752479400e+00 -2.7627392745739561e-02 -5.2577354752274708e-01 +5.1861229148766654e-03
3.6999999999999900e+00 +8.5266217458847695e+00 +0.0000000000000000e+00 +3.6999999742161398e+00 -2.7628550474655338e-02 -5.2579692013944013e-01 +5.1885470601461970e-03
3.7499999999999898e+00 +8.5266114498736005e+00 +0.0000000000000000e+00 +3.7499999731560498e+00 -2.7629717386043039e-02 -5.2582052583323124e-01 +5.1909687554155381e-03
3.7999999999999901e+00 +8.5266010155537497e+00 +0.0000000000000000e+00 +3.7999999720672801e+00 -2.7630893454756777e-02 -5.2584436253945477e-01 +5.1933878558502464e-03
3.8499999999999899e+00 +8.5265904429179500e+00 +0.0000000000000000e+00 +3.8499999709494599e+00 -2.7632078655656221e-02 -5.2586842819355217e-01 +5.1958042166163681e-03
3.8999999999999901e+00 +8.5265797319771099e+00 +0.0000000000000000e+00 +3.8999999698022001e+00 -2.7633272963595128e-02 -5.2589272073084481e-01 +5.1982176928780542e-03
3.9499999999999900e+00 +8.5265688827203103e+00 +0.0000000000000000e+00 +3.9499999686251202e+00 -2.7634476353435397e-02 -5.2591723808681268e-01 +5.2006281398004383e-03
3.9999999999999898e+00 +8.5265578951548395e+00 +0.0000000000000000e+00 +3.9999999674178399e+00 -2.7635688800033004e-02 -5.2594197819681365e-01 +5.2030354125467450e-03
4.0499999999999901e+00 +8.5265467692734092e+00 +0.0000000000000000e+00 +4.0499999661799704e+00 -2.7636910248895342e-02 -5.2596693891957924e-01 +5.2054393708328619e-03
4.0999999999999899e+00 +8.5265355050833005e+00 +0.0000000000000000e+00 +4.0999999649111301e+00 -2.7638140528107889e-02 -5.2599211780680211e-01 +5.2078398925819620e-03
4.1499999999999897e+00 +8.5265241025808791e+00 +0.0000000000000000e+00 +4.1499999636109504e+00 -2.7639379436404325e-02 -5.2601751233351790e-01 +5.2102368602696932e-03
4.1999999999999904e+00 +8.5265125617697795e+00 +0.0000000000000000e+00 +4.1999999622790298e+00 -2.7640626772514207e-02 -5.2604311997471098e-01 +5.2126301563705894e-03
4.2499999999999902e+00 +8.5265008826427202e+00 +0.0000000000000000e+00 +4.2499999609149901e+00 -2.7641882335169267e-02 -5.2606893820544276e-01 +5.2150196633594008e-03
4.2999999999999901e+00 +8.5264890652069898e+00 +0.0000000000000000e+00 +4.2999999595184599e+00 -2.7643145923094373e-02 -5.2609496450067350e-01 +5.2174052637092242e-03
4.3499999999999899e+00 +8.5264771094589396e+00 +0.0000000000000000e+00 +4.3499999580890396e+00 -2.7644417335016450e-02 -5.2612119633543841e-01 +5.2197868398933490e-03
4.3999999999999897e+00 +8.5264650153985695e+00 +0.0000000000000000e+00 +4.3999999566263703e+00 -2.7645696369659249e-02 -5.2614763118474805e-01 +5.2221642743841964e-03
4.4499999999999904e+00 +8.5264527830295300e+00 +0.0000000000000000e+00 +4.4499999551300400e+00 -2.7646982825743339e-02 -5.2617426652358557e-01 +5.2245374496532855e-03
4.4999999999999902e+00 +8.5264404123481707e+00 +0.0000000000000000e+00 +4.4999999535996897e+00 -2.7648276501989807e-02 -5.2620109982698537e-01 +5.2269062481720531e-03
4.5499999999999901e+00 +8.5264279033544899e+00 +0.0000000000000000e+00 +4.5499999520349199e+00 -2.7649577197116419e-02 -5.2622812856995482e-01 +5.2292705524110252e-03
4.5999999999999899e+00 +8.5264152560448601e+00 +0.0000000000000000e+00 +4.5999999504353601e+00 -2.7650884709840035e-02 -5.2625535022752445e-01 +5.2316302448403495e-03
4.6499999999999897e+00 +8.5264024704301793e+00 +0.0000000000000000e+00 +4.6499999488006196e+00 -2.7652198838870202e-02 -5.2628276227462290e-01 +5.2339852079284479e-03
4.6999999999999904e+00 +8.5263895464995603e+00 +0.0000000000000000e+00 +4.6999999471303298e+00 -2.7653519382921887e-02 -5.2631036218632787e-01 +5.2363353241446807e-03
4.7499999999999902e+00 +8.5263764842602505e+00 +0.0000000000000000e+00 +4.7499999454240900e+00 -2.7654846140701246e-02 -5.2633814743758922e-01 +5.2386804759563897e-03
4.7999999999999901e+00 +8.5263632837050007e+00 +0.0000000000000000e+00 +4.7999999436815299e+00 -2.7656178910917220e-02 -5.2636611550345536e-01 +5.2410205458313149e-03
4.8499999999999899e+00 +8.5263499448447000e+00 +0.0000000000000000e+00 +4.8499999419022597e+00 -2.7657517492269777e-02 -5.2639426385884525e-01 +5.2433554162351573e-03
4.8999999999999897e+00 +8.5263364676684397e+00 +0.0000000000000000e+00 +4.8999999400859000e+00 -2.7658861683464042e-02 -5.2642258997882685e-01 +5.2456849696345233e-03
4.9499999999999904e+00 +8.5263228521798702e+00 +0.0000000000000000e+00 +4.9499999382320699e+00 -2.7660211283197407e-02 -5.2645109133836454e-01 +5.2480090884942368e-03
4.9999999999999902e+00 +8.5263090983826295e+00 +0.0000000000000000e+00 +4.9999999363403900e+00 -2.7661566090164545e-02 -5.2647976541241837e-01 +5.2503276552783957e-03
5.0499999999999901e+00 +8.5262952059529198e+00 +0.0000000000000000e+00 +5.0499999344103799e+00 -2.7662925903173031e-02 -5.2650860967823720e-01 +5.2526405524748335e-03
5.0999999999999899e+00 +8.5262811745706095e+00 +0.0000000000000000e+00 +5.0999999324415599e+00 -2.7664290521026424e-02 -5.2653762161304296e-01 +5.2549476625704961e-03
5.1499999999999897e+00 +8.5262670042357094e+00 +0.0000000000000000e+00 +5.1499999304335597e+00 -2.7665659742412370e-02 -5.2656679869181300e-01 +5.2572488680277278e-03
5.1999999999999904e+00 +8.5262526949518396e+00 +0.0000000000000000e+00 +5.1999999283859903e+00 -2.7667033366014220e-02 -5.2659613838949404e-01 +5.2595440513078474e-03
5.2499999999999902e+00 +8.5262382467153692e+00 +0.0000000000000000e+00 +5.2499999262984600e+00 -2.7668411190514879e-02 -5.2662563818108032e-01 +5.2618330948719519e-03
5.2999999999999901e+00 +8.5262236595299292e+00 +0.0000000000000000e+00 +5.2999999241705797e+00 -2.7669793014591548e-02 -5.2665529554150947e-01 +5.2641158811798008e-03
5.3499999999999899e+00 +8.5262089333882596e+00 +0.0000000000000000e+00 +5.3499999220019703e+00 -2.7671178636922127e-02 -5.2668510794579115e-01 +5.2663922926912028e-03
5.3999999999999897e+00 +8.5261940682976292e+00 +0.0000000000000000e+00 +5.3999999197922497e+00 -2.7672567856176122e-02 -5.2671507286882724e-01 +5.2686622118640726e-03
5.4499999999999904e+00 +8.5261790642507496e+00 +0.0000000000000000e+00 +5.4499999175410201e+00 -2.7673960471024821e-02 -5.2674518778561619e-01 +5.2709255211566136e-03
5.4999999999999902e+00 +8.5261639212585596e+00 +0.0000000000000000e+00 +5.4999999152479004e+00 -2.7675356280129758e-02 -5.2677545017102356e-01 +5.2731821030248408e-03
5.5499999999999901e+00 +8.5261486393137602e+00 +0.0000000000000000e+00 +5.5499999129125097e+00 -2.7676755082155408e-02 -5.2680585750003617e-01 +5.2754318399253234e-03
5.5999999999999899e+00 +8.5261332184127205e+00 +0.0000000000000000e+00 +5.5999999105344500e+00 -2.7678156675761432e-02 -5.2683640724760905e-01 +5.2776746143135241e-03
5.6499999999999897e+00 +8.5261176585627307e+00 +0.0000000000000000e+00 +5.6499999081133403e+00 -2.7679560859600029e-02 -5.2686709688861399e-01 +5.2799103086432313e-03
5.6999999999999904e+00 +8.5261019597637606e+00 +0.0000000000000000e+00 +5.6999999056488004e+00 -2.7680967432322342e-02 -5.2689792389796730e-01 +5.2821388053679429e-03
5.7499999999999902e+00 +8.5260861220122006e+00 +0.0000000000000000e+00 +5.7499999031404396e+00 -2.7682376192577029e-02 -5.2692888575060370e-01 +5.2843599869405638e-03
5.7999999999999901e+00 +8.5260701453080401e+00 +0.0000000000000000e+00 +5.7999999005878804e+00 -2.7683786939007665e-02 -5.2695997992142563e-01 +5.2865737358128613e-03
5.8499999999999899e+00 +8.5260540296512808e+00 +0.0000000000000000e+00 +5.8499998979907204e+00 -2.7685199470253989e-02 -5.2699120388532716e-01 +5.2887799344357202e-03
5.8999999999999897e+00 +8.5260377750455500e+00 +0.0000000000000000e+00 +5.8999998953485804e+00 -2.7686613584950448e-02 -5.2702255511716956e-01 +5.2909784652588601e-03
