# field on trajectory
# s[mm] rx[mm] ry[mm] rz[mm] bx[T] by[T] bz[T]
0.0000000000000000e+00 +8.5269999999999992e+00 +0.0000000000000000e+00 +0.0000000000000000e+00 -3.0823852756754835e-02 -5.7777962271728966e-01 +6.6496799266839478e-03
5.0000000000000003e-02 +8.5269999309975866e+00 +0.0000000000000000e+00 +4.9999999999936512e-02 -3.0822142499625081e-02 -5.7777973230161650e-01 +6.6477796325790026e-03
1.0000000000000001e-01 +8.5269997239903166e+00 +0.0000000000000000e+00 +9.9999999999492134e-02 -3.0820463089812938e-02 -5.7778024441339249e-01 +6.6458703437260363e-03
1.5000000000000002e-01 +8.5269993789780667e+00 +0.0000000000000000e+00 +1.4999999999828592e-01 -3.0818814324051806e-02 -5.7778115794998386e-01 +6.6439522322389467e-03
2.0000000000000001e-01 +8.5269988959606184e+00 +0.0000000000000000e+00 +1.9999999999593698e-01 -3.0817195999076553e-02 -5.7778247180877396e-01 +6.6420254702312005e-03
2.5000000000000000e-01 +8.5269982749376592e+00 +0.0000000000000000e+00 +2.4999999999206443e-01 -3.0815607911623452e-02 -5.7778418488716565e-01 +6.6400902298158386e-03
2.9999999999999999e-01 +8.5269975159087785e+00 +0.0000000000000000e+00 +2.9999999998628729e-01 -3.0814049858430167e-02 -5.7778629608257837e-01 +6.6381466831054786e-03
3.4999999999999998e-01 +8.5269966188734720e+00 +0.0000000000000000e+00 +3.4999999997822467e-01 -3.0812521636235789e-02 -5.7778880429245127e-01 +6.6361950022123667e-03
3.9999999999999997e-01 +8.5269955838311411e+00 +0.0000000000000000e+00 +3.9999999996749569e-01 -3.0811023041780749e-02 -5.7779170841424110e-01 +6.6342353592483590e-03
4.4999999999999996e-01 +8.5269944107810929e+00 +0.0000000000000000e+00 +4.4999999995371937e-01 -3.0809553871806811e-02 -5.7779500734542288e-01 +6.6322679263249524e-03
4.9999999999999994e-01 +8.5269930997225387e+00 +0.0000000000000000e+00 +4.9999999993651473e-01 -3.0808113923057063e-02 -5.7779869998348943e-01 +6.6302928755532994e-03
5.4999999999999993e-01 +8.5269916506545975e+00 +0.0000000000000000e+00 +5.4999999991550086e-01 -3.0806702992275878e-02 -5.7780278522595119e-01 +6.6283103790442197e-03
5.9999999999999998e-01 +8.5269900635762923e+00 +0.0000000000000000e+00 +5.9999999989029684e-01 -3.0805320876208915e-02 -5.7780726197033683e-01 +6.6263206089082162e-03
6.5000000000000002e-01 +8.5269883384865537e+00 +0.0000000000000000e+00 +6.4999999986052159e-01 -3.0803967371603066e-02 -5.7781212911419233e-01 +6.6243237372555063e-03
7.0000000000000007e-01 +8.5269864753842199e+00 +0.0000000000000000e+00 +6.9999999982579419e-01 -3.0802642275206470e-02 -5.7781738555508233e-01 +6.6223199361960094e-03
7.5000000000000011e-01 +8.5269844742680352e+00 +0.0000000000000000e+00 +7.4999999978573362e-01 -3.0801345383768462e-02 -5.7782303019058767e-01 +6.6203093778393878e-03
8.0000000000000016e-01 +8.5269823351366512e+00 +0.0000000000000000e+00 +7.9999999973995894e-01 -3.0800076494039569e-02 -5.7782906191830763e-01 +6.6182922342950430e-03
8.5000000000000020e-01 +8.5269800579886272e+00 +0.0000000000000000e+00 +8.4999999968808904e-01 -3.0798835402771462e-02 -5.7783547963585835e-01 +6.6162686776721508e-03
9.0000000000000024e-01 +8.5269776428224322e+00 +0.0000000000000000e+00 +8.9999999962974286e-01 -3.0797621906716966e-02 -5.7784228224087353e-01 +6.6142388800796608e-03
9.5000000000000029e-01 +8.5269750896364389e+00 +0.0000000000000000e+00 +9.4999999956453940e-01 -3.0796435802630022e-02 -5.7784946863100473e-01 +6.6122030136263228e-03
1.0000000000000002e+00 +8.5269723984289314e+00 +0.0000000000000000e+00 +9.9999999949209750e-01 -3.0795276887265660e-02 -5.7785703770391927e-01 +6.6101612504206918e-03
1.0500000000000003e+00 +8.5269695691981031e+00 +0.0000000000000000e+00 +1.0499999994120361e+00 -3.0794144957379994e-02 -5.7786498835730304e-01 +6.6081137625711595e-03
1.1000000000000003e+00 +8.5269666019420534e+00 +0.0000000000000000e+00 +1.0999999993239742e+00 -3.0793039809730173e-02 -5.7787331948885801e-01 +6.6060607221859538e-03
1.1500000000000004e+00 +8.5269634966587926e+00 +0.0000000000000000e+00 +1.1499999992275305e+00 -3.0791961241074410e-02 -5.7788202999630400e-01 +6.6040023013731646e-03
1.2000000000000004e+00 +8.5269602533462407e+00 +0.0000000000000000e+00 +1.1999999991223238e+00 -3.0790909048171868e-02 -5.7789111877737609e-01 +6.6019386722407517e-03
1.2500000000000004e+00 +8.5269568720022271e+00 +0.0000000000000000e+00 +1.2499999990079731e+00 -3.0789883027782738e-02 -5.7790058472982808e-01 +6.5998700068965752e-03
1.3000000000000005e+00 +8.5269533526244921e+00 +0.0000000000000000e+00 +1.2999999988840971e+00 -3.0788882976668173e-02 -5.7791042675142923e-01 +6.5977964774483911e-03
1.3500000000000005e+00 +8.5269496952106820e+00 +0.0000000000000000e+00 +1.3499999987503144e+00 -3.0787908691590253e-02 -5.7792064373996543e-01 +6.5957182560038834e-03
1.4000000000000006e+00 +8.5269458997583580e+00 +0.0000000000000000e+00 +1.3999999986062439e+00 -3.0786959969311963e-02 -5.7793123459324003e-01 +6.5936355146706746e-03
1.4500000000000006e+00 +8.5269419662649906e+00 +0.0000000000000000e+00 +1.4499999984515044e+00 -3.0786036606597216e-02 -5.7794219820907189e-01 +6.5915484255563341e-03
1.5000000000000007e+00 +8.5269378947279613e+00 +0.0000000000000000e+00 +1.4999999982857144e+00 -3.0785138400210799e-02 -5.7795353348529654e-01 +6.5894571607684090e-03
1.5500000000000007e+00 +8.5269336851445630e+00 +0.0000000000000000e+00 +1.5499999981084926e+00 -3.0784265146918306e-02 -5.7796523931976618e-01 +6.5873618924144235e-03
1.6000000000000008e+00 +8.5269293375119997e+00 +0.0000000000000000e+00 +1.5999999979194577e+00 -3.0783416643486206e-02 -5.7797731461034885e-01 +6.5852627926019057e-03
1.6500000000000008e+00 +8.5269248518273866e+00 +0.0000000000000000e+00 +1.6499999977182283e+00 -3.0782592686681768e-02 -5.7798975825492904e-01 +6.5831600334384068e-03
1.7000000000000008e+00 +8.5269202280877519e+00 +0.0000000000000000e+00 +1.6999999975044227e+00 -3.0781793073273032e-02 -5.7800256915140691e-01 +6.5810537870314989e-03
1.7500000000000009e+00 +8.5269154662900348e+00 +0.0000000000000000e+00 +1.7499999972776596e+00 -3.0781017600028816e-02 -5.7801574619769880e-01 +6.5789442254888071e-03
1.8000000000000009e+00 +8.5269105664310896e+00 +0.0000000000000000e+00 +1.7999999970375575e+00 -3.0780266063718673e-02 -5.7802928829173739e-01 +6.5768315209180266e-03
1.8500000000000010e+00 +8.5269055285076796e+00 +0.0000000000000000e+00 +1.8499999967837348e+00 -3.0779538261112876e-02 -5.7804319433147033e-01 +6.5747158454269221e-03
1.9000000000000010e+00 +8.5269003525164848e+00 +0.0000000000000000e+00 +1.8999999965158101e+00 -3.0778833988982408e-02 -5.7805746321486196e-01 +6.5725973711233589e-03
1.9500000000000011e+00 +8.5268950384540965e+00 +0.0000000000000000e+00 +1.9499999962334016e+00 -3.0778153044098908e-02 -5.7807209383989167e-01 +6.5704762701153108e-03
2.0000000000000009e+00 +8.5268895863170204e+00 +0.0000000000000000e+00 +1.9999999959361277e+00 -3.0777495223234683e-02 -5.7808708510455475e-01 +6.5683527145108840e-03
2.0500000000000007e+00 +8.5268839961016774e+00 +0.0000000000000000e+00 +2.0499999956236068e+00 -3.0776860333245046e-02 -5.7810243572881026e-01 +6.5662268753406373e-03
2.1000000000000005e+00 +8.5268782678043991e+00 +0.0000000000000000e+00 +2.0999999952954571e+00 -3.0776248221315500e-02 -5.7811814372042469e-01 +6.5640989193245418e-03
2.1500000000000004e+00 +8.5268724014214339e+00 +0.0000000000000000e+00 +2.1499999949512967e+00 -3.0775658744714635e-02 -5.7813420690912543e-01 +6.5619690121049802e-03
2.2000000000000002e+00 +8.5268663969489449e+00 +0.0000000000000000e+00 +2.1999999945907440e+00 -3.0775091760711713e-02 -5.7815062312465237e-01 +6.5598373193244391e-03
2.2500000000000000e+00 +8.5268602543830117e+00 +0.0000000000000000e+00 +2.2499999942134168e+00 -3.0774547126576700e-02 -5.7816739019675745e-01 +6.5577040066255258e-03
2.2999999999999998e+00 +8.5268539737196303e+00 +0.0000000000000000e+00 +2.2999999938189335e+00 -3.0774024699580210e-02 -5.7818450595520399e-01 +6.5555692396509647e-03
2.3499999999999996e+00 +8.5268475549547116e+00 +0.0000000000000000e+00 +2.3499999934069122e+00 -3.0773524336993489e-02 -5.7820196822976710e-01 +6.5534331840436215e-03
2.3999999999999995e+00 +8.5268409980840847e+00 +0.0000000000000000e+00 +2.3999999929769706e+00 -3.0773045896088404e-02 -5.7821977485023335e-01 +6.5512960054465051e-03
2.4499999999999993e+00 +8.5268343031034970e+00 +0.0000000000000000e+00 +2.4499999925287272e+00 -3.0772589234137466e-02 -5.7823792364639959e-01 +6.5491578695027882e-03
2.4999999999999991e+00 +8.5268274700086142e+00 +0.0000000000000000e+00 +2.4999999920617997e+00 -3.0772154208413758e-02 -5.7825641244807469e-01 +6.5470189418558086e-03
2.5499999999999989e+00 +8.5268204987950185e+00 +0.0000000000000000e+00 +2.5499999915758056e+00 -3.0771740676190967e-02 -5.7827523908507694e-01 +6.5448793881490892e-03
2.5999999999999988e+00 +8.5268133894582157e+00 +0.0000000000000000e+00 +2.5999999910703631e+00 -3.0771348494743323e-02 -5.7829440138723531e-01 +6.5427393740263356e-03
2.6499999999999986e+00 +8.5268061419936263e+00 +0.0000000000000000e+00 +2.6499999905450897e+00 -3.0770977521345614e-02 -5.7831389718438841e-01 +6.5405990651314621e-03
2.6999999999999984e+00 +8.5267987563965946e+00 +0.0000000000000000e+00 +2.6999999899996032e+00 -3.0770627613273194e-02 -5.7833372430638597e-01 +6.5384586271085956e-03
2.7499999999999982e+00 +8.5267912326623865e+00 +0.0000000000000000e+00 +2.7499999894335216e+00 -3.0770298627801909e-02 -5.7835388058308568e-01 +6.5363182256020858e-03
2.7999999999999980e+00 +8.5267835707861863e+00 +0.0000000000000000e+00 +2.7999999888464622e+00 -3.0769990422208102e-02 -5.7837436384435481e-01 +6.5341780262565168e-03
2.8499999999999979e+00 +8.5267757707631020e+00 +0.0000000000000000e+00 +2.8499999882380429e+00 -3.0769702853768632e-02 -5.7839517192007084e-01 +6.5320381947167180e-03
2.8999999999999977e+00 +8.5267678325881633e+00 +0.0000000000000000e+00 +2.8999999876078806e+00 -3.0769435779760830e-02 -5.7841630264011856e-01 +6.5298988966277817e-03
2.9499999999999975e+00 +8.5267597562563218e+00 +0.0000000000000000e+00 +2.9499999869555933e+00 -3.0769189057462499e-02 -5.7843775383439244e-01 +6.5277602976350560e-03
2.9999999999999973e+00 +8.5267515417624562e+00 +0.0000000000000000e+00 +2.9999999862807982e+00 -3.0768962544151839e-02 -5.7845952333279405e-01 +6.5256225633841779e-03
3.0499999999999972e+00 +8.5267431891013654e+00 +0.0000000000000000e+00 +3.0499999855831130e+00 -3.0768756097107532e-02 -5.7848160896523415e-01 +6.5234858595210731e-03
3.0999999999999970e+00 +8.5267346982677754e+00 +0.0000000000000000e+00 +3.0999999848621544e+00 -3.0768569573608649e-02 -5.7850400856163076e-01 +6.5213503516919624e-03
3.1499999999999968e+00 +8.5267260692563358e+00 +0.0000000000000000e+00 +3.1499999841175401e+00 -3.0768402830934651e-02 -5.7852671995190952e-01 +6.5192162055433822e-03
3.1999999999999966e+00 +8.5267173020616216e+00 +0.0000000000000000e+00 +3.1999999833488872e+00 -3.0768255726365445e-02 -5.7854974096600376e-01 +6.5170835867221959e-03
3.2499999999999964e+00 +8.5267083966781332e+00 +0.0000000000000000e+00 +3.2499999825558126e+00 -3.0768128117181225e-02 -5.7857306943385278e-01 +6.5149526608755913e-03
3.2999999999999963e+00 +8.5266993531002999e+00 +0.0000000000000000e+00 +3.2999999817379337e+00 -3.0768019860662577e-02 -5.7859670318540402e-01 +6.5128235936511066e-03
3.3499999999999961e+00 +8.5266901713224765e+00 +0.0000000000000000e+00 +3.3499999808948675e+00 -3.0767930814090443e-02 -5.7862064005061065e-01 +6.5106965506966357e-03
3.3999999999999959e+00 +8.5266808513389467e+00 +0.0000000000000000e+00 +3.3999999800262306e+00 -3.0767860834746044e-02 -5.7864487785943208e-01 +6.5085716976604324e-03
3.4499999999999957e+00 +8.5266713931439213e+00 +0.0000000000000000e+00 +3.4499999791316402e+00 -3.0767809779910955e-02 -5.7866941444183417e-01 +6.5064492001911346e-03
3.4999999999999956e+00 +8.5266617967315383e+00 +0.0000000000000000e+00 +3.4999999782107132e+00 -3.0767777506867017e-02 -5.7869424762778876e-01 +6.5043292239377682e-03
3.5499999999999954e+00 +8.5266520620958666e+00 +0.0000000000000000e+00 +3.5499999772630662e+00 -3.0767763872896349e-02 -5.7871937524727268e-01 +6.5022119345497570e-03
3.5999999999999952e+00 +8.5266421892309054e+00 +0.0000000000000000e+00 +3.5999999762883155e+00 -3.0767768735281340e-02 -5.7874479513026833e-01 +6.5000974976769368e-03
3.6499999999999950e+00 +8.5266321781305834e+00 +0.0000000000000000e+00 +3.6499999752860783e+00 -3.0767791951304628e-02 -5.7877050510676342e-01 +6.4979860789695608e-03
3.6999999999999948e+00 +8.5266220287887577e+00 +0.0000000000000000e+00 +3.6999999742559710e+00 -3.0767833378249079e-02 -5.7879650300675001e-01 +6.4958778440783139e-03
3.7499999999999947e+00 +8.5266117411992202e+00 +0.0000000000000000e+00 +3.7499999731976099e+00 -3.0767892873397779e-02 -5.7882278666022535e-01 +6.4937729586543357e-03
3.7999999999999945e+00 +8.5266013153556930e+00 +0.0000000000000000e+00 +3.7999999721106117e+00 -3.0767970294034011e-02 -5.7884935389719006e-01 +6.4916715883492045e-03
3.8499999999999943e+00 +8.5265907512518311e+00 +0.0000000000000000e+00 +3.8499999709945927e+00 -3.0768065497441238e-02 -5.7887620254764982e-01 +6.4895738988149741e-03
3.8999999999999941e+00 +8.5265800488812218e+00 +0.0000000000000000e+00 +3.8999999698491692e+00 -3.0768178340903094e-02 -5.7890333044161357e-01 +6.4874800557041656e-03
3.9499999999999940e+00 +8.5265692082373850e+00 +0.0000000000000000e+00 +3.9499999686739575e+00 -3.0768308681703417e-02 -5.7893073540909434e-01 +6.4853902246698033e-03
3.9999999999999938e+00 +8.5265582293137747e+00 +0.0000000000000000e+00 +3.9999999674685740e+00 -3.0768456377126097e-02 -5.7895841528010761e-01 +6.4833045713653913e-03
4.0499999999999936e+00 +8.5265471121037795e+00 +0.0000000000000000e+00 +4.0499999662326349e+00 -3.0768621321583613e-02 -5.7898636778398016e-01 +6.4812232512293320e-03
4.0999999999999934e+00 +8.5265358566007237e+00 +0.0000000000000000e+00 +4.0999999649657557e+00 -3.0768803558002711e-02 -5.7901459024726964e-01 +6.4791463788380728e-03
4.1499999999999932e+00 +8.5265244627978660e+00 +0.0000000000000000e+00 +4.1499999636675522e+00 -3.0769003166439580e-02 -5.7904307989584058e-01 +6.4770740585531703e-03
4.1999999999999931e+00 +8.5265129306884013e+00 +0.0000000000000000e+00 +4.1999999623376407e+00 -3.0769220226951416e-02 -5.7907183395555817e-01 +6.4750063947369941e-03
4.2499999999999929e+00 +8.5265012602654622e+00 +0.0000000000000000e+00 +4.2499999609756367e+00 -3.0769454819596351e-02 -5.7910084965228537e-01 +6.4729434917527402e-03
4.2999999999999927e+00 +8.5264894515221190e+00 +0.0000000000000000e+00 +4.2999999595811564e+00 -3.0769707024433598e-02 -5.7913012421188503e-01 +6.4708854539644598e-03
4.3499999999999925e+00 +8.5264775044513783e+00 +0.0000000000000000e+00 +4.3499999581538153e+00 -3.0769976921523324e-02 -5.7915965486021770e-01 +6.4688323857370576e-03
4.3999999999999924e+00 +8.5264654190461879e+00 +0.0000000000000000e+00 +4.3999999566932289e+00 -3.0770264590926751e-02 -5.7918943882314289e-01 +6.4667843914363397e-03
4.4499999999999922e+00 +8.5264531952994336e+00 +0.0000000000000000e+00 +4.4499999551990133e+00 -3.0770570112706151e-02 -5.7921947332651813e-01 +6.4647415754290104e-03
4.4999999999999920e+00 +8.5264408332039405e+00 +0.0000000000000000e+00 +4.4999999536707831e+00 -3.0770893566924817e-02 -5.7924975559619762e-01 +6.4627040420826981e-03
4.5499999999999918e+00 +8.5264283327524772e+00 +0.0000000000000000e+00 +4.5499999521081547e+00 -3.0771235033647138e-02 -5.7928028285803357e-01 +6.4606718957659790e-03
4.5999999999999917e+00 +8.5264156939377518e+00 +0.0000000000000000e+00 +4.5999999505107425e+00 -3.0771594592938538e-02 -5.7931105233787439e-01 +6.4586452408483819e-03
4.6499999999999915e+00 +8.5264029167524154e+00 +0.0000000000000000e+00 +4.6499999488781620e+00 -3.0771972324865567e-02 -5.7934206126156651e-01 +6.4566241817004292e-03
4.6999999999999913e+00 +8.5263900011890605e+00 +0.0000000000000000e+00 +4.6999999472100287e+00 -3.0772368309495823e-02 -5.7937330685495003e-01 +6.4546088226936273e-03
4.7499999999999911e+00 +8.5263769472402249e+00 +0.0000000000000000e+00 +4.7499999455059569e+00 -3.0772782626898067e-02 -5.7940478634386372e-01 +6.4525992682005181e-03
4.7999999999999909e+00 +8.5263637548983890e+00 +0.0000000000000000e+00 +4.7999999437655623e+00 -3.0773215357142111e-02 -5.7943649695414023e-01 +6.4505956225946685e-03
4.8499999999999908e+00 +8.5263504241559804e+00 +0.0000000000000000e+00 +4.8499999419884592e+00 -3.0773666580298960e-02 -5.7946843591160790e-01 +6.4485979902507090e-03
4.8999999999999906e+00 +8.5263369550053696e+00 +0.0000000000000000e+00 +4.8999999401742631e+00 -3.0774136376440726e-02 -5.7950060044208984e-01 +6.4466064755443406e-03
4.9499999999999904e+00 +8.5263233474388738e+00 +0.0000000000000000e+00 +4.9499999383225886e+00 -3.0774624825640660e-02 -5.7953298777140405e-01 +6.4446211828523619e-03
4.9999999999999902e+00 +8.5263096014487569e+00 +0.0000000000000000e+00 +4.9999999364330501e+00 -3.0775132007973209e-02 -5.7956559512536243e-01 +6.4426422165526822e-03
5.0499999999999901e+00 +8.5262957170272315e+00 +0.0000000000000000e+00 +5.0499999345052622e+00 -3.0775658003513989e-02 -5.7959841972977078e-01 +6.4406696810243493e-03
5.0999999999999899e+00 +8.5262816941664568e+00 +0.0000000000000000e+00 +5.0999999325388403e+00 -3.0776202892339750e-02 -5.7963145881042910e-01 +6.4387036806475501e-03
5.1499999999999897e+00 +8.5262675328585420e+00 +0.0000000000000000e+00 +5.1499999305333981e+00 -3.0776766754528513e-02 -5.7966470959312932e-01 +6.4367443198036526e-03
5.1999999999999895e+00 +8.5262532330955452e+00 +0.0000000000000000e+00 +5.1999999284885501e+00 -3.0777349670159455e-02 -5.7969816930365803e-01 +6.4347917028752099e-03
5.2499999999999893e+00 +8.5262387948694744e+00 +0.0000000000000000e+00 +5.2499999264039108e+00 -3.0777951719312989e-02 -5.7973183516779270e-01 +6.4328459342459831e-03
5.2999999999999892e+00 +8.5262242181722900e+00 +0.0000000000000000e+00 +5.2999999242790938e+00 -3.0778572982070759e-02 -5.7976570441130426e-01 +6.4309071183009598e-03
5.3499999999999890e+00 +8.5262095029959006e+00 +0.0000000000000000e+00 +5.3499999221137138e+00 -3.0779213538515635e-02 -5.7979977425995477e-01 +6.4289753594263697e-03
5.3999999999999888e+00 +8.5261946493321688e+00 +0.0000000000000000e+00 +5.3999999199073843e+00 -3.0779873468731764e-02 -5.7983404193949828e-01 +6.4270507620097133e-03
5.4499999999999886e+00 +8.5261796571729107e+00 +0.0000000000000000e+00 +5.4499999176597198e+00 -3.0780552852804531e-02 -5.7986850467568007e-01 +6.4251334304397745e-03
5.4999999999999885e+00 +8.5261645265098931e+00 +0.0000000000000000e+00 +5.4999999153703341e+00 -3.0781251770820604e-02 -5.7990315969423634e-01 +6.4232234691066325e-03
5.5499999999999883e+00 +8.5261492573348416e+00 +0.0000000000000000e+00 +5.5499999130388407e+00 -3.0781970302867959e-02 -5.7993800422089359e-01 +6.4213209824016985e-03
5.5999999999999881e+00 +8.5261338496394306e+00 +0.0000000000000000e+00 +5.5999999106648541e+00 -3.0782708529035807e-02 -5.7997303548136847e-01 +6.4194260747177136e-03
5.6499999999999879e+00 +8.5261183034152950e+00 +0.0000000000000000e+00 +5.6499999082479873e+00 -3.0783466529414747e-02 -5.8000825070136863e-01 +6.4175388504487865e-03
5.6999999999999877e+00 +8.5261026186540221e+00 +0.0000000000000000e+00 +5.6999999057878536e+00 -3.0784244384096635e-02 -5.8004364710658995e-01 +6.4156594139903964e-03
5.7499999999999876e+00 +8.5260867953471600e+00 +0.0000000000000000e+00 +5.7499999032840670e+00 -3.0785042173174675e-02 -5.8007922192271810e-01 +6.4137878697394287e-03
5.7999999999999874e+00 +8.5260708334862088e+00 +0.0000000000000000e+00 +5.7999999007362408e+00 -3.0785859976743418e-02 -5.8011497237542775e-01 +6.4119243220941806e-03
5.8499999999999872e+00 +8.5260547330626313e+00 +0.0000000000000000e+00 +5.8499998981439880e+00 -3.0786697874898784e-02 -5.8015089569038236e-01 +6.4100688754543831e-03
5.8999999999999870e+00 +8.5260384940678460e+00 +0.0000000000000000e+00 +5.8999998955069222e+00 -3.0787555947737997e-02 -5.8018698909323285e-01 +6.4082216342212220e-03
