# multipoles
# s[mm] polynom_b[n=0][T/m^n] polynom_b[n=1][T/m^n] polynom_b[n=2][T/m^n] polynom_b[n=3][T/m^n] polynom_b[n=4][T/m^n] polynom_b[n=5][T/m^n] polynom_b[n=6][T/m^n] 
+0.0000000000000000e+00 -5.4950140639366785e-01 +7.1853277636758683e+00 +6.0416417794499750e+00 -2.3989655976128596e+01 +2.2719763900122648e+03 -1.6088293424100909e+05 -5.7149431750584934e+06 
+5.0000000000000003e-02 -5.4950158023377227e-01 +7.1853759194961393e+00 +6.0436492033449660e+00 -2.3859522493060275e+01 +2.2089109222969346e+03 -1.6210935725979207e+05 -5.4026612494121594e+06 
+1.0000000000000001e-01 -5.4950216589424539e-01 +7.1854462637745842e+00 +6.0452110519909246e+00 -2.3731684866359029e+01 +2.1483172317838485e+03 -1.6328137451463309e+05 -5.1151413088029008e+06 
+1.5000000000000002e-01 -5.4950316221891149e-01 +7.1855387147789749e+00 +6.0463216889970370e+00 -2.3606051521604087e+01 +2.0902097361647729e+03 -1.6439887599631981e+05 -4.8519289903633632e+06 
+2.0000000000000001e-01 -5.4950456805160941e-01 +7.1856531907823813e+00 +6.0469754766259909e+00 -2.3482531086247644e+01 +2.0346028873739658e+03 -1.6546174998022529e+05 -4.6125701484087380e+06 
+2.5000000000000000e-01 -5.4950638223622084e-01 +7.1857896100568412e+00 +6.0471667821996151e+00 -2.3361032118999692e+01 +1.9815109986168027e+03 -1.6646988528150381e+05 -4.3966096997654326e+06 
+2.9999999999999999e-01 -5.4950860361661102e-01 +7.1859478908718701e+00 +6.0468899663847395e+00 -2.3241463053271055e+01 +1.9309485643966927e+03 -1.6742317172216609e+05 -4.2035937905779434e+06 
+3.4999999999999998e-01 -5.4951123103669175e-01 +7.1861279515034466e+00 +6.0461393948424709e+00 -2.3123732558838437e+01 +1.8829299456722667e+03 -1.6832149718899626e+05 -4.0330676730506774e+06 
+3.9999999999999997e-01 -5.4951426334038267e-01 +7.1863297102248218e+00 +6.0449094316185423e+00 -2.3007749181054322e+01 +1.8374695427744714e+03 -1.6916475051148856e+05 -3.8845768496766179e+06 
+4.4999999999999996e-01 -5.4951769937162376e-01 +7.1865530853086419e+00 +6.0431944408247951e+00 -2.2893421407751106e+01 +1.7945817590479689e+03 -1.6995282101393386e+05 -3.7576668652317892e+06 
+4.9999999999999994e-01 -5.4952153797436443e-01 +7.1867979950325589e+00 +6.0409887848913986e+00 -2.2780657901539445e+01 +1.7542810426147412e+03 -1.7068559660166092e+05 -3.6518835644714814e+06 
+5.4999999999999993e-01 -5.4952577799258995e-01 +7.1870643576713071e+00 +6.0382868298813372e+00 -2.2669367204557101e+01 +1.7165817385358644e+03 -1.7136296605322612e+05 -3.5667720786860753e+06 
+5.9999999999999998e-01 -5.4953041827028748e-01 +7.1873520914998492e+00 +6.0350829385965747e+00 -2.2559457807768663e+01 +1.6814982855246840e+03 -1.7198481870992022e+05 -3.5018781960349553e+06 
+6.5000000000000002e-01 -5.4953545765146505e-01 +7.1876611147977671e+00 +6.0313714746097551e+00 -2.2450838410761818e+01 +1.6490450973529696e+03 -1.7255104200772254e+05 -3.4567475219995356e+06 
+7.0000000000000007e-01 -5.4954089498016157e-01 +7.1879913458422076e+00 +6.0271468034846167e+00 -2.2343417531860140e+01 +1.6192365385672963e+03 -1.7306152509990174e+05 -3.4309253485162477e+06 
+7.5000000000000011e-01 -5.4954672910041524e-01 +7.1883427029139311e+00 +6.0224032879336784e+00 -2.2237103857606954e+01 +1.5920870449094427e+03 -1.7351615556591429e+05 -3.4239574269001386e+06 
+8.0000000000000016e-01 -5.4955295885629574e-01 +7.1887151042892796e+00 +6.0171352930349791e+00 -2.2131805843487321e+01 +1.5676109903349532e+03 -1.7391482298464561e+05 -3.4353891032256852e+06 
+8.5000000000000020e-01 -5.4955958309188291e-01 +7.1891084682528579e+00 +6.0113371824666686e+00 -2.2027432258110544e+01 +1.5458227868280828e+03 -1.7425741436735477e+05 -3.4647659818123174e+06 
+9.0000000000000024e-01 -5.4956660065127061e-01 +7.1895227130842754e+00 +6.0050033193824977e+00 -2.1923891644792693e+01 +1.5267368605640295e+03 -1.7454381855344793e+05 -3.5116337644296801e+06 
+9.5000000000000029e-01 -5.4957401037859099e-01 +7.1899577570674476e+00 +5.9981280706202078e+00 -2.1821092682362242e+01 +1.5103675367820383e+03 -1.7477392333916848e+05 -3.5755374678502395e+06 
+1.0000000000000002e+00 -5.4958181111795512e-01 +7.1904135184847622e+00 +5.9907057963358774e+00 -2.1718943969782980e+01 +1.4967293224627954e+03 -1.7494761714692262e+05 -3.6560233443276170e+06 
+1.0500000000000003e+00 -5.4959000171352967e-01 +7.1908899156213524e+00 +5.9827308635224732e+00 -2.1617354181913683e+01 +1.4858365377090799e+03 -1.7506478783498902e+05 -3.7526363750230097e+06 
+1.1000000000000003e+00 -5.4959858100947856e-01 +7.1913868667618104e+00 +5.9741976357344670e+00 -2.1516231940135551e+01 +1.4777035957555611e+03 -1.7512532372420351e+05 -3.8649221755672009e+06 
+1.1500000000000004e+00 -5.4960754784998755e-01 +7.1919042901954855e+00 +5.9651004773082432e+00 -2.1415486034553183e+01 +1.4723448890930010e+03 -1.7512911176852512e+05 -3.9924262222436448e+06 
+1.2000000000000004e+00 -5.4961690107926109e-01 +7.1924421042069895e+00 +5.9554337529693395e+00 -2.1315025034114562e+01 +1.4697747986991435e+03 -1.7507604075672961e+05 -4.1346939135279641e+06 
+1.2500000000000004e+00 -5.4962663954150670e-01 +7.1930002270857898e+00 +5.9451918252730298e+00 -2.1214757658519137e+01 +1.4700077628712806e+03 -1.7496599834643968e+05 -4.2912710313432747e+06 
+1.3000000000000005e+00 -5.4963676208096768e-01 +7.1935785771236187e+00 +5.9343690601176089e+00 -2.1114592711168996e+01 +1.4730581301290424e+03 -1.7479887145243847e+05 -4.4617027566447183e+06 
+1.3500000000000005e+00 -5.4964726754189341e-01 +7.1941770726085839e+00 +5.9229598212974492e+00 -2.1014438796764942e+01 +1.4789403065479039e+03 -1.7457454873848590e+05 -4.6455346615581447e+06 
+1.4000000000000006e+00 -5.4965815476854185e-01 +7.1947956318340998e+00 +5.9109584716488142e+00 -2.0914204712967951e+01 +1.4876687209811441e+03 -1.7429291730058208e+05 -4.8423124635586133e+06 
+1.4500000000000006e+00 -5.4966942260521501e-01 +7.1954341730945295e+00 +5.8983593788968633e+00 -2.0813799254622570e+01 +1.4992576705474087e+03 -1.7395386434768673e+05 -5.0515809931362867e+06 
+1.5000000000000007e+00 -5.4968106989619747e-01 +7.1960926146828061e+00 +5.8851569047030194e+00 -2.0713131138759081e+01 +1.5137216168231971e+03 -1.7355727771080576e+05 -5.2728861973718135e+06 
+1.5500000000000007e+00 -5.4969309548580869e-01 +7.1967708748950319e+00 +5.8713454141117394e+00 -2.0612109158523477e+01 +1.5310749295072535e+03 -1.7310304474787635e+05 -5.5057734016908268e+06 
+1.6000000000000008e+00 -5.4970549821837689e-01 +7.1974688720270965e+00 +5.8569192712921918e+00 -2.0510642083763525e+01 +1.5513319964877551e+03 -1.7259105298006747e+05 -5.7497880348519590e+06 
+1.6500000000000008e+00 -5.4971827693826114e-01 +7.1981865243781309e+00 +5.8418728424571231e+00 -2.0408638769444710e+01 +1.5745071583624438e+03 -1.7202118934424000e+05 -6.0044752402492724e+06 
+1.7000000000000008e+00 -5.4973143048980477e-01 +7.1989237502470074e+00 +5.8262004891343837e+00 -2.0306008028260003e+01 +1.6006148735426320e+03 -1.7139334118736818e+05 -6.2693809268230004e+06 
+1.7500000000000009e+00 -5.4974495771741339e-01 +7.1996804679360977e+00 +5.8098965803547866e+00 -2.0202658773110539e+01 +1.6296694015398430e+03 -1.7070739512287130e+05 -6.5440496713519040e+06 
+1.8000000000000009e+00 -5.4975885746545483e-01 +7.2004565957458571e+00 +5.7929554763809277e+00 -2.0098499815947189e+01 +1.6616852361869933e+03 -1.6996323861650153e+05 -6.8280276331494171e+06 
+1.8500000000000010e+00 -5.4977312857834482e-01 +7.2012520519793943e+00 +5.7753715427458845e+00 -1.9993440026623020e+01 +1.6966767317946035e+03 -1.6916075879649117e+05 -7.1208600370811149e+06 
+1.9000000000000010e+00 -5.4978776990051292e-01 +7.2020667549413648e+00 +5.7571391452891154e+00 -1.9887388308430310e+01 +1.7346582273333590e+03 -1.6829984256173315e+05 -7.4220919802712146e+06 
+1.9500000000000011e+00 -5.4980278027640062e-01 +7.2029006229400689e+00 +5.7382526489369123e+00 -1.9780253668983907e+01 +1.7756440902378267e+03 -1.6738037607513051e+05 -7.7312687695389120e+06 
+2.0000000000000009e+00 -5.4981815855045957e-01 +7.2037535742799390e+00 +5.7187064180903802e+00 -1.9671944932121235e+01 +1.8196486994114020e+03 -1.6640224703060804e+05 -8.0479357806156632e+06 
+2.0500000000000007e+00 -5.4983390341485283e-01 +7.2046255177533842e+00 +5.6984976551078788e+00 -1.9562327698205959e+01 +1.8666720775496144e+03 -1.6536623833464648e+05 -8.3717079934410704e+06 
+2.1000000000000005e+00 -5.4985001295210689e-01 +7.2055163202052031e+00 +5.6776350927803074e+00 -1.9451183470712554e+01 +1.9166584461171492e+03 -1.6427604282352354e+05 -8.7024746853812281e+06 
+2.1500000000000004e+00 -5.4986648509223002e-01 +7.2064258370336356e+00 +5.6561303946800274e+00 -1.9338295822618939e+01 +1.9695387167557417e+03 -1.6313591192173873e+05 -9.0401944086229708e+06 
+2.2000000000000002e+00 -5.4988331776525068e-01 +7.2073539236355524e+00 +5.6339952258597172e+00 -1.9223448236225355e+01 +2.0252437587111499e+03 -1.6195009789381450e+05 -9.3848254155939724e+06 
+2.2500000000000000e+00 -5.4990050890120012e-01 +7.2083004354095772e+00 +5.6112412493074579e+00 -1.9106424268379811e+01 +2.0837045023722658e+03 -1.6072285230976285e+05 -9.7363263925734013e+06 
+2.2999999999999998e+00 -5.4991805643012004e-01 +7.2092652277513078e+00 +5.5878801279115589e+00 -1.8987007328533615e+01 +2.1448518763955958e+03 -1.5945842797963705e+05 -1.0094655997050511e+07 
+2.3499999999999996e+00 -5.4993595828208364e-01 +7.2102481560624820e+00 +5.5639235281646959e+00 -1.8864981065478787e+01 +2.2086167098946698e+03 -1.5816107573070182e+05 -1.0459772202493753e+07 
+2.3999999999999995e+00 -5.4995421238714703e-01 +7.2112490757396612e+00 +5.5393831110384006e+00 -1.8740128897734412e+01 +2.2749299856107709e+03 -1.5683504828909255e+05 -1.0831634037522504e+07 
+2.4499999999999993e+00 -5.4997281667540021e-01 +7.2122678421828033e+00 +5.5142705413614488e+00 -1.8612234365039992e+01 +2.3437225808075518e+03 -1.5548459739142784e+05 -1.1210199811676748e+07 
+2.4999999999999991e+00 -5.4999176907693448e-01 +7.2133043107901855e+00 +5.4885974822115280e+00 -1.8481080940316073e+01 +2.4149254204276144e+03 -1.5411397525784522e+05 -1.1595428156113094e+07 
+2.5499999999999989e+00 -5.5001106752187090e-01 +7.2143583369643682e+00 +5.4623756000645391e+00 -1.8346452247052586e+01 +2.4884693356458547e+03 -1.5272743290199427e+05 -1.1987277059575547e+07 
+2.5999999999999988e+00 -5.5003070994030445e-01 +7.2154297760996879e+00 +5.4356165543077175e+00 -1.8208131567273053e+01 +2.5642853531638571e+03 -1.5132922411261647e+05 -1.2385705845445765e+07 
+2.6499999999999986e+00 -5.5005069426237019e-01 +7.2165184836010630e+00 +5.4083320100911640e+00 -1.8065902605121860e+01 +2.6423043386379873e+03 -1.4992359917829194e+05 -1.2790672726409230e+07 
+2.6999999999999984e+00 -5.5007101841821671e-01 +7.2176243148669741e+00 +5.3805336321674568e+00 -1.7919548789018247e+01 +2.7224571759368591e+03 -1.4851481065971180e+05 -1.3202136063838173e+07 
+2.7499999999999982e+00 -5.5009168033797762e-01 +7.2187471252960433e+00 +5.3522330814562826e+00 -1.7768853547283168e+01 +2.8046748457960584e+03 -1.4710711107700411e+05 -1.3620054846404033e+07 
+2.7999999999999980e+00 -5.5011267795182883e-01 +7.2198867702889604e+00 +5.3234420242286422e+00 -1.7613600379930297e+01 +2.8888881878213465e+03 -1.4570475235302196e+05 -1.4044387121256558e+07 
+2.8499999999999979e+00 -5.5013400918991917e-01 +7.2210431052463209e+00 +5.2941721199818073e+00 -1.7453572790839740e+01 +2.9750282263857985e+03 -1.4431198630552794e+05 -1.4475092186370265e+07 
+2.8999999999999977e+00 -5.5015567198244331e-01 +7.2222159855684449e+00 +5.2644350345783488e+00 -1.7288554250598253e+01 +3.0630258094051942e+03 -1.4293306504205926e+05 -1.4912128125121070e+07 
+2.9499999999999975e+00 -5.5017766425958170e-01 +7.2234052666549156e+00 +5.2342424295198837e+00 -1.7118328198393463e+01 +3.1528119103453241e+03 -1.4157224089123905e+05 -1.5355453901593916e+07 
+2.9999999999999973e+00 -5.5019998395153213e-01 +7.2246108039067298e+00 +5.2036059680234521e+00 -1.6942678136864959e+01 +3.2443174481978194e+03 -1.4023376558431788e+05 -1.5805028074451702e+07 
+3.0499999999999972e+00 -5.5022262898850371e-01 +7.2258324527212059e+00 +5.1725373131739998e+00 -1.6761387397018353e+01 +3.3374733498254145e+03 -1.3892189229347464e+05 -1.6260809267086085e+07 
+3.0999999999999970e+00 -5.5024559730070988e-01 +7.2270700685002449e+00 +5.1410481272382613e+00 -1.6574239509613243e+01 +3.4322105672409643e+03 -1.3764087245144753e+05 -1.6722756284998132e+07 
+3.1499999999999968e+00 -5.5026888681837660e-01 +7.2283235066403986e+00 +5.1091500731354174e+00 -1.6381017778115851e+01 +3.5284600309443576e+03 -1.3639495934393324e+05 -1.7190827766594585e+07 
+3.1999999999999966e+00 -5.5029249547173664e-01 +7.2295926225466660e+00 +5.0768548130377074e+00 -1.6181505851313908e+01 +3.6261526961960153e+03 -1.3518840337231787e+05 -1.7664982533225492e+07 
+3.2499999999999964e+00 -5.5031642119103030e-01 +7.2308772716113454e+00 +5.0441740095873540e+00 -1.5975486858713969e+01 +3.7252194995942218e+03 -1.3402545915393656e+05 -1.8145179252331875e+07 
+3.2999999999999963e+00 -5.5034066190651254e-01 +7.2321773092366071e+00 +5.0111193256778579e+00 -1.5762744326725890e+01 +3.8255913803877024e+03 -1.3291037802711379e+05 -1.8631376642753322e+07 
+3.3499999999999961e+00 -5.5036521554842321e-01 +7.2334925908192265e+00 +4.9777024207762386e+00 -1.5543061578473013e+01 +3.9271993610507484e+03 -1.3184741288788919e+05 -1.9123533945802078e+07 
+3.3999999999999959e+00 -5.5039008004704748e-01 +7.2348229717584269e+00 +4.9439349602042650e+00 -1.5316222023955138e+01 +4.0299743141482268e+03 -1.3084081592385138e+05 -1.9621609414538402e+07 
+3.4499999999999957e+00 -5.5041525333264607e-01 +7.2361683074512575e+00 +4.9098286038684638e+00 -1.5082009000212762e+01 +4.1338472556347815e+03 -1.2989483982259022e+05 -2.0125562258182935e+07 
+3.4999999999999956e+00 -5.5044073333549948e-01 +7.2375284532950133e+00 +4.8753950138113638e+00 -1.4840205839252137e+01 +4.2387491455704439e+03 -1.2901373732007132e+05 -2.0635351310328651e+07 
+3.5499999999999954e+00 -5.5046651798589530e-01 +7.2389032646847209e+00 +4.8406458517575022e+00 -1.4590595808100682e+01 +4.3446109523972573e+03 -1.2820176154473919e+05 -2.1150935454539057e+07 
+3.5999999999999952e+00 -5.5049260521412935e-01 +7.2402925970179339e+00 +4.8055927799037095e+00 -1.4332962263703205e+01 +4.4513636311653327e+03 -1.2746316489634399e+05 -2.1672273477366846e+07 
+3.6499999999999950e+00 -5.5051899295049644e-01 +7.2416963056891079e+00 +4.7702474582042003e+00 -1.4067088453648488e+01 +4.5589382031782488e+03 -1.2680220055899504e+05 -2.2199324628515746e+07 
+3.6999999999999948e+00 -5.5054567912530339e-01 +7.2431142460922295e+00 +4.7346215485153031e+00 -1.3792757607266770e+01 +4.6672656318338995e+03 -1.2622312183414593e+05 -2.2732047738139603e+07 
+3.7499999999999947e+00 -5.5057266166886210e-01 +7.2445462736240467e+00 +4.6987267115512443e+00 -1.3509753079922923e+01 +4.7762769176141037e+03 -1.2573018089513789e+05 -2.3270401904285565e+07 
+3.7999999999999945e+00 -5.5059993851150391e-01 +7.2459922436770841e+00 +4.6625746105703145e+00 -1.3217858057181498e+01 +4.8859029912654387e+03 -1.2532763126272056e+05 -2.3814345744198207e+07 
+3.8499999999999943e+00 -5.5062750758353052e-01 +7.2474520116448078e+00 +4.6261769024539428e+00 -1.2916855774905422e+01 +4.9960749557496047e+03 -1.2501972595905373e+05 -2.4363839034800205e+07 
+3.8999999999999941e+00 -5.5065536681527538e-01 +7.2489254329166499e+00 +4.5895452482516816e+00 -1.2606529317263458e+01 +5.1067238038546757e+03 -1.2481071917344695e+05 -2.4918840808400128e+07 
+3.9499999999999940e+00 -5.5068351413709571e-01 +7.2504123628862889e+00 +4.5526913125761084e+00 -1.2286661952068892e+01 +5.2177804311175996e+03 -1.2470486350955640e+05 -2.5479309434276666e+07 
+3.9999999999999938e+00 -5.5071194747930663e-01 +7.2519126569444312e+00 +4.5156267514418280e+00 -1.1957036830770939e+01 +5.3291759660915886e+03 -1.2470641243934336e+05 -2.6045204847898789e+07 
+4.0499999999999936e+00 -5.5074066461929849e-01 +7.2534261619896201e+00 +4.4783630191748474e+00 -1.1617557786789733e+01 +5.4408310402862917e+03 -1.2481813636720559e+05 -2.6616352966407977e+07 
+4.0999999999999934e+00 -5.5076966272351136e-01 +7.2549526822466239e+00 +4.4409114330936328e+00 -1.1268551207360810e+01 +5.5526255488216048e+03 -1.2503747053677532e+05 -2.7192084603799161e+07 
+4.1499999999999932e+00 -5.5079893880586128e-01 +7.2564920091032619e+00 +4.4032834745206060e+00 -1.0910437169274218e+01 +5.6644292824593003e+03 -1.2536064994680788e+05 -2.7771614873817421e+07 
+4.1999999999999931e+00 -5.5082848988027677e-01 +7.2580439339491356e+00 +4.3654906265179836e+00 -1.0543635861379535e+01 +5.7761119884189238e+03 -1.2578390865238721e+05 -2.8354158599728171e+07 
+4.2499999999999929e+00 -5.5085831296069676e-01 +7.2596082481744100e+00 +4.3275443739532564e+00 -1.0168567491794166e+01 +5.8875433652036572e+03 -1.2630348058257095e+05 -2.8938930276479855e+07 
+4.2999999999999927e+00 -5.5088840506105052e-01 +7.2611847431653773e+00 +4.2894561998350458e+00 -9.7856521231301485e+00 +5.9985931610541120e+03 -1.2691560083694894e+05 -2.9525144733925842e+07 
+4.3499999999999925e+00 -5.5091876319526689e-01 +7.2627732103089278e+00 +4.2512375868780641e+00 -9.3953098432733970e+00 +6.1091311324291664e+03 -1.2761650431713801e+05 -3.0112016857914239e+07 
+4.3999999999999924e+00 -5.5094938437728136e-01 +7.2643734409902754e+00 +4.2129000190358443e+00 -8.9979606945171842e+00 +6.2190270035738022e+03 -1.2840242624004836e+05 -3.0698761324550778e+07 
+4.4499999999999922e+00 -5.5098026562103397e-01 +7.2659852265973210e+00 +4.1744549810977380e+00 -8.5940248233041636e+00 +6.3281504742152310e+03 -1.2926960101541385e+05 -3.1284592635256454e+07 
+4.4999999999999920e+00 -5.5101140394044579e-01 +7.2676083585135727e+00 +4.1359139543578713e+00 -8.1839222243522958e+00 +6.4363713413733440e+03 -1.3021426420770457e+05 -3.1868725961884540e+07 
+4.5499999999999918e+00 -5.5104279634946252e-01 +7.2692426281222762e+00 +4.0972884250498813e+00 -7.7680728863711259e+00 +6.5435592640614368e+03 -1.3123265145251239e+05 -3.2450375525950529e+07 
+4.5999999999999917e+00 -5.5107443986202242e-01 +7.2708878268105179e+00 +4.0585898776143994e+00 -7.3468969657196244e+00 +6.6495839569488844e+03 -1.3232099700074852e+05 -3.3028755954935260e+07 
+4.6499999999999915e+00 -5.5110633149203814e-01 +7.2725437459555398e+00 +4.0198297927164077e+00 -6.9208142268187718e+00 +6.7543152301412192e+03 -1.3347553830581956e+05 -3.3603082496248506e+07 
+4.6999999999999913e+00 -5.5113846825345603e-01 +7.2742101769410645e+00 +3.9810196571527046e+00 -6.4902447198596072e+00 +6.8576227320905255e+03 -1.3469251044317681e+05 -3.4172569322569422e+07 
+4.7499999999999911e+00 -5.5117084716020548e-01 +7.2758869111477953e+00 +3.9421709545936015e+00 -6.0556083868690154e+00 +6.9593761967552491e+03 -1.3596814933927925e+05 -3.4736431186567418e+07 
+4.7999999999999909e+00 -5.5120346522621444e-01 +7.2775737399561562e+00 +3.9032951695680862e+00 -5.6173251599075291e+00 +7.0594453307025633e+03 -1.3729869105871234e+05 -3.5293882643799447e+07 
+4.8499999999999908e+00 -5.5123631946540785e-01 +7.2792704547436440e+00 +3.8644037860627671e+00 -5.1758148829368915e+00 +7.1576998597100937e+03 -1.3868037229544978e+05 -3.5844138397329688e+07 
+4.8999999999999906e+00 -5.5126940689171100e-01 +7.2809768468875919e+00 +3.8255082885108456e+00 -4.7314973939712264e+00 +7.2540094965797598e+03 -1.4010942983941647e+05 -3.6386413059186861e+07 
+4.9499999999999904e+00 -5.5130272451904805e-01 +7.2826927077676338e+00 +3.7866201621542634e+00 -4.2847926541098609e+00 +7.3482439300502665e+03 -1.4158209941075378e+05 -3.6919921072953179e+07 
+4.9999999999999902e+00 -5.5133626936134006e-01 +7.2844178287572969e+00 +3.7477508919744440e+00 -3.8361203880807149e+00 +7.4402728585761370e+03 -1.4309461866234228e+05 -3.7443876959282599e+07 
+5.0499999999999901e+00 -5.5137003843250132e-01 +7.2861520012325229e+00 +3.7089119625563010e+00 -3.3859004347317478e+00 +7.5299659902554158e+03 -1.4464322430341286e+05 -3.7957495301171280e+07 
