# multipoles
# s[mm] polynom_b[n=0][T/m^n] polynom_b[n=1][T/m^n] polynom_b[n=2][T/m^n] polynom_b[n=3][T/m^n] polynom_b[n=4][T/m^n] polynom_b[n=5][T/m^n] polynom_b[n=6][T/m^n] 
+0.0000000000000000e+00 -5.2383812888415515e-01 +6.8793966176158765e+00 +4.7867718076911139e+00 -1.4325264884075150e+02 -4.2553532927935312e+03 +7.6693802128945081e+05 +5.5473157312708370e+07 
+5.0000000000000003e-02 -5.2383841726849056e-01 +6.8794188867456034e+00 +4.7845276339639993e+00 -1.4342636932702251e+02 -4.1899919634743974e+03 +7.6784766700698214e+05 +5.5034539428793631e+07 
+1.0000000000000001e-01 -5.2383906190753216e-01 +6.8794619866431468e+00 +4.7816659548855087e+00 -1.4363343460519815e+02 -4.1232452411418926e+03 +7.6899647339315130e+05 +5.4594040072658576e+07 
+1.4999999999999999e-01 -5.2384006220458779e-01 +6.8795257986184755e+00 +4.7782012805226151e+00 -1.4387232710602186e+02 -4.0553058310686088e+03 +7.7037549467143253e+05 +5.4152566576888554e+07 
+2.0000000000000001e-01 -5.2384141756297331e-01 +6.8796102039792606e+00 +4.7741481172751836e+00 -1.4414152912897973e+02 -3.9863663396554157e+03 +7.7197578396662674e+05 +5.3711025604367413e+07 
+2.5000000000000000e-01 -5.2384312738607797e-01 +6.8797150840375174e+00 +4.7695209775179190e+00 -1.4443952311605224e+02 -3.9166195366318134e+03 +7.7378839554140507e+05 +5.3270324928487144e+07 
+2.9999999999999999e-01 -5.2384519107725624e-01 +6.8798403201034182e+00 +4.7643343685631017e+00 -1.4476479140714244e+02 -3.8462580511726669e+03 +7.7580438284626976e+05 +5.2831371358438767e+07 
+3.4999999999999998e-01 -5.2384760803982566e-01 +6.8799857934914188e+00 +4.7586027974871499e+00 -1.4511581646658988e+02 -3.7754745072137907e+03 +7.7801480026946799e+05 +5.2395071669326678e+07 
+4.0000000000000002e-01 -5.2385037767728049e-01 +6.8801513855153713e+00 +4.7523407773613338e+00 -1.4549108071925036e+02 -3.7044616874916578e+03 +7.8041070191368612e+05 +5.1962333696802065e+07 
+4.5000000000000001e-01 -5.2385349939294579e-01 +6.8803369774869765e+00 +4.7455628154710103e+00 -1.4588906645372066e+02 -3.6334122234749739e+03 +7.8298314072132180e+05 +5.1534064272536337e+07 
+5.0000000000000000e-01 -5.2385697259030339e-01 +6.8805424507229622e+00 +4.7382834216408529e+00 -1.4630825613644549e+02 -3.5625188116041513e+03 +7.8572317106239218e+05 +5.1111170653291941e+07 
+5.5000000000000004e-01 -5.2386079667276675e-01 +6.8807676865390697e+00 +4.7305171040362914e+00 -1.4674713217512331e+02 -3.4919741021336013e+03 +7.8862184689283988e+05 +5.0694559775121979e+07 
+5.9999999999999998e-01 -5.2386497104385799e-01 +6.8810125662511386e+00 +4.7222783742275594e+00 -1.4720417692924647e+02 -3.4219708399122146e+03 +7.9167022165674646e+05 +5.0285139223747119e+07 
+6.5000000000000002e-01 -5.2386949510697078e-01 +6.8812769711764297e+00 +4.7135817400458651e+00 -1.4767787279753020e+02 -3.3527016648670315e+03 +7.9485934919137042e+05 +4.9883815858473733e+07 
+6.9999999999999996e-01 -5.2387436826565503e-01 +6.8815607826316718e+00 +4.7044417130069052e+00 -1.4816670212827799e+02 -3.2843593262879435e+03 +7.9818028288172907e+05 +4.9491497315633371e+07 
+7.5000000000000000e-01 -5.2387958992337758e-01 +6.8818638819367148e+00 +4.6948727995213524e+00 -1.4866914736373164e+02 -3.2171364235424358e+03 +8.0162407688288239e+05 +4.9109090168537527e+07 
+8.0000000000000004e-01 -5.2388515948368319e-01 +6.8821861504103579e+00 +4.6848895132511741e+00 -1.4918369087744475e+02 -3.1512257589091037e+03 +8.0518178478775779e+05 +4.8737502388323821e+07 
+8.4999999999999998e-01 -5.2389107635011356e-01 +6.8825274693699861e+00 +4.6745063602751271e+00 -1.4970881495513592e+02 -3.0868199314315025e+03 +8.0884445945145760e+05 +4.8377640578318112e+07 
+9.0000000000000002e-01 -5.2389733992623810e-01 +6.8828877201377576e+00 +4.6637378527675413e+00 -1.5024300205717662e+02 -3.0241116987736546e+03 +8.1260315519936359e+05 +4.8030412388166852e+07 
+9.4999999999999996e-01 -5.2390394961558384e-01 +6.8832667840331379e+00 +4.6525984979660997e+00 -1.5078473449857188e+02 -2.9632936921379442e+03 +8.1644892512920836e+05 +4.7696724638430923e+07 
+1.0000000000000000e+00 -5.2391090482174130e-01 +6.8836645423765548e+00 +4.6411028073493421e+00 -1.5133249461144527e+02 -2.9045586590745620e+03 +8.2037282250119455e+05 +4.7377484939553164e+07 
+1.0500000000000000e+00 -5.2391820494832753e-01 +6.8840808764893557e+00 +4.6292652894241524e+00 -1.5188476473806398e+02 -2.8480992611106794e+03 +8.2436590064080723e+05 +4.7073600300104491e+07 
+1.1000000000000001e+00 -5.2392584939890663e-01 +6.8845156676933401e+00 +4.6171004547304566e+00 -1.5244002722056436e+02 -2.7941082212204069e+03 +8.2841921292733785e+05 +4.6785978163806021e+07 
+1.1499999999999999e+00 -5.2393383757717615e-01 +6.8849687973087716e+00 +4.6046228120897439e+00 -1.5299676430626633e+02 -2.7427782116545591e+03 +8.3252381190754974e+05 +4.6515525617156319e+07 
+1.2000000000000000e+00 -5.2394216888672018e-01 +6.8854401466584045e+00 +4.5918468710784968e+00 -1.5355345832918724e+02 -2.6943019347161203e+03 +8.3667075091032928e+05 +4.6263149980246902e+07 
+1.2500000000000000e+00 -5.2395084273119097e-01 +6.8859295970644672e+00 +4.5787871406730112e+00 -1.5410859156988747e+02 -2.6488720691528988e+03 +8.4085108279373159e+05 +4.6029758389453657e+07 
+1.3000000000000000e+00 -5.2395985851428373e-01 +6.8864370298500157e+00 +4.5654581313522069e+00 -1.5466064632604608e+02 -2.6066813387861998e+03 +8.4505586057828122e+05 +4.5816258297368377e+07 
+1.3500000000000001e+00 -5.2396921563967291e-01 +6.8869623263371826e+00 +4.5518743516561821e+00 -1.5520810484168427e+02 -2.5679224162709197e+03 +8.4927613689645007e+05 +4.5623556814812899e+07 
+1.3999999999999999e+00 -5.2397891351099846e-01 +6.8875053678466935e+00 +4.5380503108287282e+00 -1.5574944926497355e+02 -2.5327879978956885e+03 +8.5350296354943677e+05 +4.5452561228502333e+07 
+1.4500000000000000e+00 -5.2398895153201175e-01 +6.8880660357035604e+00 +4.5240005172851969e+00 -1.5628316192065020e+02 -2.5014707535358075e+03 +8.5772739386995207e+05 +4.5304178629180945e+07 
+1.5000000000000000e+00 -5.2399932910643310e-01 +6.8886442112283151e+00 +4.5097394807739963e+00 -1.5680772491335514e+02 -2.4741633954343674e+03 +8.6194047934304713e+05 +4.5179316416505016e+07 
+1.5500000000000000e+00 -5.2401004563797304e-01 +6.8892397757467743e+00 +4.4952817111677401e+00 -1.5732162055462970e+02 -2.4510586385723627e+03 +8.6613327322004118e+05 +4.5078882004281379e+07 
+1.6000000000000001e+00 -5.2402110053036488e-01 +6.8898526105785365e+00 +4.4806417157553984e+00 -1.5782333087423117e+02 -2.4323491288771725e+03 +8.7029682642971235e+05 +4.5003782339411683e+07 
+1.6499999999999999e+00 -5.2403249318739320e-01 +6.8904825970487380e+00 +4.4658340043510876e+00 -1.5831133812499766e+02 -2.4182275866978225e+03 +8.7442219179192698e+05 +4.4954924893993877e+07 
+1.7000000000000000e+00 -5.2404422301279463e-01 +6.8911296164778131e+00 +4.4508730844573714e+00 -1.5878412433554493e+02 -2.4088866674852593e+03 +8.7850042028141767e+05 +4.4933216692681953e+07 
+1.7500000000000000e+00 -5.2405628941037408e-01 +6.8917935501884227e+00 +4.4357734650961271e+00 -1.5924017162022449e+02 -2.4045190752215431e+03 +8.8252256362648704e+05 +4.4939565111772552e+07 
+1.8000000000000000e+00 -5.2406869178390025e-01 +6.8924742795042890e+00 +4.4205496549460603e+00 -1.5967796211153464e+02 -2.4053174982181636e+03 +8.8647967371914338e+05 +4.4974877394171149e+07 
+1.8500000000000001e+00 -5.2408142953717063e-01 +6.8931716857452772e+00 +4.4052161616589665e+00 -1.6009597777120823e+02 -2.4114746089095438e+03 +8.9036280107709335e+05 +4.5040060722193271e+07 
+1.8999999999999999e+00 -5.2409450207402053e-01 +6.8938856502336323e+00 +4.3897874926659020e+00 -1.6049270065375407e+02 -2.4231830707098343e+03 +8.9416299704231310e+05 +4.5136022201563418e+07 
+1.9500000000000000e+00 -5.2410790879825830e-01 +6.8946160542913963e+00 +4.3742781573018643e+00 -1.6086661277329407e+02 -2.4406356010011891e+03 +8.9787131261866109e+05 +4.5263669309090510e+07 
+2.0000000000000000e+00 -5.2412164911373660e-01 +6.8953627792393819e+00 +4.3587026620804146e+00 -1.6121619610130659e+02 -2.4640248468078776e+03 +9.0147879855302779e+05 +4.5423909069036715e+07 
+2.0499999999999998e+00 -5.2413572218145910e-01 +6.8961257070813629e+00 +4.3430721225923543e+00 -1.6154027638024519e+02 -2.4934770264270064e+03 +9.0497816631498793e+05 +4.5617303079763189e+07 
+2.1000000000000001e+00 -5.2415012618808143e-01 +6.8969047239031029e+00 +4.3273836508794785e+00 -1.6183902856407076e+02 -2.5288425719411048e+03 +9.0836854505056841e+05 +4.5842980125842281e+07 
+2.1499999999999999e+00 -5.2416485907599386e-01 +6.8976997137354177e+00 +4.3116309477180774e+00 -1.6211296311911596e+02 -2.5699006707525191e+03 +9.1165060947912629e+05 +4.6099699955090411e+07 
+2.2000000000000002e+00 -5.2417991878765691e-01 +6.8985105606133255e+00 +4.2958077154099295e+00 -1.6236259065935786e+02 -2.6164305510953445e+03 +9.1482503545824648e+05 +4.6386222593807220e+07 
+2.2500000000000000e+00 -5.2419530326544461e-01 +6.8993371485679562e+00 +4.2799076522094150e+00 -1.6258842163099533e+02 -2.6682113291192859e+03 +9.1789249751381052e+05 +4.6701307299828291e+07 
+2.2999999999999998e+00 -5.2421101045178509e-01 +6.9001793616349349e+00 +4.2639244600974795e+00 -1.6279096664092947e+02 -2.7250222271609214e+03 +9.2085367144760501e+05 +4.7043714071766034e+07 
+2.3500000000000001e+00 -5.2422703828907335e-01 +6.9010370838444564e+00 +4.2478518373131546e+00 -1.6297073606669539e+02 -2.7866423608744303e+03 +9.2370923121344717e+05 +4.7412202166839227e+07 
+2.3999999999999999e+00 -5.2424338471978649e-01 +6.9019101992352461e+00 +4.2316834863568715e+00 -1.6312824062021019e+02 -2.8528509647893111e+03 +9.2645985348775412e+05 +4.7805531659873553e+07 
+2.4500000000000002e+00 -5.2426004768633783e-01 +6.9027985918382511e+00 +4.2154131056954398e+00 -1.6326399067906328e+02 -2.9234271657908357e+03 +9.2910621220199368e+05 +4.8222461906358592e+07 
+2.5000000000000000e+00 -5.2427702513125174e-01 +6.9037021456897749e+00 +4.1990343978960105e+00 -1.6337849683393577e+02 -2.9981501954387177e+03 +9.3164898304969305e+05 +4.8661752944780581e+07 
+2.5499999999999998e+00 -5.2429431499690182e-01 +6.9046207448268770e+00 +4.1825410596243735e+00 -1.6347226968365342e+02 -3.0767991296109253e+03 +9.3408884176401969e+05 +4.9122163780342899e+07 
+2.6000000000000001e+00 -5.2431191522585197e-01 +6.9055542732829451e+00 +4.1659267928872055e+00 -1.6354581966950266e+02 -3.1591531867906056e+03 +9.3642646277282201e+05 +4.9602454374560349e+07 
+2.6499999999999999e+00 -5.2432982376056103e-01 +6.9065026150964481e+00 +4.1491852971612380e+00 -1.6359965743869270e+02 -3.2449915160861060e+03 +9.3866252224828547e+05 +5.0101384220132567e+07 
+2.7000000000000002e+00 -5.2434803854352408e-01 +6.9074656543019799e+00 +4.1323102723385414e+00 -1.6363429345075397e+02 -3.3340932785483305e+03 +9.4079769474139437e+05 +5.0617712893631905e+07 
+2.7500000000000000e+00 -5.2436655751725003e-01 +6.9084432749392599e+00 +4.1152954195379126e+00 -1.6365023837523324e+02 -3.4262376701163121e+03 +9.4283265655901982e+05 +5.1150200215977877e+07 
+2.7999999999999998e+00 -5.2438537862421197e-01 +6.9094353610435846e+00 +4.0981344358095040e+00 -1.6364800268876351e+02 -3.5212037705974012e+03 +9.4476808242123644e+05 +5.1697605203196019e+07 
+2.8500000000000001e+00 -5.2440449980697479e-01 +6.9104417966577296e+00 +4.0808210241647958e+00 -1.6362809715796141e+02 -3.6187708214651434e+03 +9.4660464938795357e+05 +5.2258687967251666e+07 
+2.8999999999999999e+00 -5.2442391900805552e-01 +6.9114624658159078e+00 +4.0633488826638908e+00 -1.6359103220088920e+02 -3.7187179345092327e+03 +9.4834303169315786e+05 +5.2832207761840060e+07 
+2.9500000000000002e+00 -5.2444363416999895e-01 +6.9124972525594313e+00 +4.0457117121180630e+00 -1.6353731850740445e+02 -3.8208242887974175e+03 +9.4998390576435335e+05 +5.3416924271356411e+07 
+3.0000000000000000e+00 -5.2446364323533190e-01 +6.9135460409282947e+00 +4.0279032092610283e+00 -1.6346746670677575e+02 -3.9248689573512238e+03 +9.5152794752559450e+05 +5.4011596482365012e+07 
+3.0499999999999998e+00 -5.2448394414659960e-01 +6.9146087149636921e+00 +4.0099170767888292e+00 -1.6338198746568929e+02 -4.0306311693978519e+03 +9.5297583318900503e+05 +5.4614984420181982e+07 
+3.1000000000000001e+00 -5.2450453484638471e-01 +6.9156851587045498e+00 +3.9917470140494182e+00 -1.6328139135788007e+02 -4.1378900651287040e+03 +9.5432823821445240e+05 +5.5225847516578957e+07 
+3.1499999999999999e+00 -5.2452541327724111e-01 +6.9167752561951081e+00 +3.9733867180377533e+00 -1.6316618916117761e+02 -4.2464247175692717e+03 +9.5558583971097739e+05 +5.5842944740699582e+07 
+3.2000000000000002e+00 -5.2454657738175792e-01 +6.9178788914765441e+00 +3.9548298909578024e+00 -1.6303689152113287e+02 -4.3560143414998538e+03 +9.5674931368523301e+05 +5.6465036025078937e+07 
+3.2500000000000000e+00 -5.2456802510248024e-01 +6.9189959485898793e+00 +3.9360702303867048e+00 -1.6289400906817042e+02 -4.4664380242371008e+03 +9.5781933600952779e+05 +5.7090880435259610e+07 
+3.2999999999999998e+00 -5.2458975438202748e-01 +6.9201263115799341e+00 +3.9171014369128812e+00 -1.6273805258526576e+02 -4.5774749355682115e+03 +9.5879658379491512e+05 +5.7719237601855315e+07 
+3.3500000000000001e+00 -5.2461176316301894e-01 +6.9212698644914488e+00 +3.8979172097101880e+00 -1.6256953284333318e+02 -4.6889042012864957e+03 +9.5968173402841436e+05 +5.8348866839366324e+07 
+3.3999999999999999e+00 -5.2463404938799718e-01 +6.9224264913682925e+00 +3.8785112468327325e+00 -1.6238896057286809e+02 -4.8005049212201311e+03 +9.6047546337217290e+05 +5.8978527308626741e+07 
+3.4500000000000002e+00 -5.2465661099958150e-01 +6.9235960762562465e+00 +3.8588772493147565e+00 -1.6219684657717107e+02 -4.9120562654805581e+03 +9.6117844905208296e+05 +5.9606978607777879e+07 
+3.5000000000000000e+00 -5.2467944594040605e-01 +6.9247785031999198e+00 +3.8390089159567120e+00 -1.6199370160704660e+02 -5.0233373516521178e+03 +9.6179136785175418e+05 +6.0232980014541931e+07 
+3.5499999999999998e+00 -5.2470255215308270e-01 +6.9259736562465379e+00 +3.8188999446384697e+00 -1.6178003651335814e+02 -5.1341272665062888e+03 +9.6231489734960289e+05 +6.0855290580974281e+07 
+3.6000000000000001e+00 -5.2472592758024250e-01 +6.9271814194419097e+00 +3.7985440354241793e+00 -1.6155636208739929e+02 -5.2442051544648166e+03 +9.6274971462513704e+05 +6.1472669748718277e+07 
+3.6499999999999999e+00 -5.2474957016451973e-01 +6.9284016768359784e+00 +3.7779348878359627e+00 -1.6132318928414324e+02 -5.3533501393767538e+03 +9.6309649808050948e+05 +6.2083876797632359e+07 
+3.6999999999999900e+00 -5.2477347784852002e-01 +6.9296343124761943e+00 +3.7570662004601498e+00 -1.6108102895055376e+02 -5.4613413278418338e+03 +9.6335592520312581e+05 +6.2687670930669583e+07 
+3.7499999999999898e+00 -5.2479764857493705e-01 +6.9308792104125025e+00 +3.7359316722994640e+00 -1.6083039204067308e+02 -5.5679578259294585e+03 +9.6352867435417313e+05 +6.3282811305718109e+07 
+3.7999999999999901e+00 -5.2482208028637045e-01 +6.9321362546941847e+00 +3.7145250031175179e+00 -1.6057178946724241e+02 -5.6729787634264821e+03 +9.6361542350913770e+05 +6.3868057255394623e+07 
+3.8499999999999899e+00 -5.2484677092551257e-01 +6.9334053293716256e+00 +3.6928398899655930e+00 -1.6030573219451199e+02 -5.7761831936515728e+03 +9.6361685106800322e+05 +6.4442167593066886e+07 
+3.8999999999999901e+00 -5.2487171843495706e-01 +6.9346863184959577e+00 +3.6708700343045781e+00 -1.6003273121405212e+02 -5.8773502874547812e+03 +9.6353363563449658e+05 +6.5003901920570202e+07 
+3.9499999999999900e+00 -5.2489692075742622e-01 +6.9359791061203504e+00 +3.6486091322688630e+00 -1.5975329759632510e+02 -5.9762590677794988e+03 +9.6336645641492971e+05 +6.5552018832218520e+07 
+3.9999999999999898e+00 -5.2492237583554668e-01 +6.9372835762968830e+00 +3.6260508848746236e+00 -1.5946794236826281e+02 -6.0726886885159420e+03 +9.6311599229946896e+05 +6.6085277813606277e+07 
+4.0499999999999901e+00 -5.2494808150569672e-01 +6.9385996041921674e+00 +3.6031910561600373e+00 -1.5917711138576180e+02 -6.1664620742846182e+03 +9.6278301289001748e+05 +6.6602695087196976e+07 
+4.0999999999999899e+00 -5.2497403517943353e-01 +6.9399270225250520e+00 +3.5800343185706698e+00 -1.5888099402703392e+02 -6.2575846257525054e+03 +9.6236870613492874e+05 +6.7104336450184554e+07 
+4.1499999999999897e+00 -5.2500023416240105e-01 +6.9412656516668907e+00 +3.5565877625702491e+00 -1.5857971812499673e+02 -6.3461093128210496e+03 +9.6187438867191377e+05 +6.7590536376982093e+07 
+4.1999999999999904e+00 -5.2502667576019080e-01 +6.9426153119885301e+00 +3.5328584778348966e+00 -1.5827341150160834e+02 -6.4320890783847017e+03 +9.6130137698525388e+05 +6.8061629144020244e+07 
+4.2499999999999902e+00 -5.2505335727845959e-01 +6.9439758238636085e+00 +3.5088535519368351e+00 -1.5796220209908287e+02 -6.5155768077829425e+03 +9.6065098852185975e+05 +6.8517948636565939e+07 
+4.2999999999999901e+00 -5.2508027602277452e-01 +6.9453470076616872e+00 +3.4845800741495330e+00 -1.5764621770700421e+02 -6.5966254321072356e+03 +9.5992453952217265e+05 +6.8959829053021178e+07 
+4.3499999999999899e+00 -5.2510742929876364e-01 +6.9467286837566924e+00 +3.4600451319020133e+00 -1.5732558628984515e+02 -6.6752878386695656e+03 +9.5912334760006855e+05 +6.9387604314700872e+07 
+4.3999999999999897e+00 -5.2513481441206877e-01 +6.9481206725183178e+00 +3.4352558183829704e+00 -1.5700043566043533e+02 -6.7516170600024698e+03 +9.5824872918074066e+05 +6.9801609289221883e+07 
+4.4499999999999904e+00 -5.2516242866825447e-01 +6.9495227943196598e+00 +3.4102192184058109e+00 -1.5667089377107575e+02 -6.8256659104394985e+03 +9.5730200179955922e+05 +7.0202177400785506e+07 
+4.4999999999999902e+00 -5.2519026937297808e-01 +6.9509348695294735e+00 +3.3849424242699668e+00 -1.5633708840541058e+02 -6.8974874053919730e+03 +9.5628448159770132e+05 +7.0589643427701607e+07 
+4.5499999999999901e+00 -5.2521833383183558e-01 +6.9523567185189119e+00 +3.3594325213839409e+00 -1.5599914746215697e+02 -6.9671343680893306e+03 +9.5519748569185438e+05 +7.0964340827435642e+07 
+4.5999999999999899e+00 -5.2524661935048056e-01 +6.9537881616600163e+00 +3.3336966018239864e+00 -1.5565719888053147e+02 -7.0346598088436267e+03 +9.5404233149046719e+05 +7.1326604350058019e+07 
+4.6499999999999897e+00 -5.2527512323444747e-01 +6.9552290193211022e+00 +3.3077417542785414e+00 -1.5531137046028579e+02 -7.1001166440943107e+03 +9.5282033528933371e+05 +7.1676768102767065e+07 
+4.6999999999999904e+00 -5.2530384278942210e-01 +6.9566791118713365e+00 +3.2815750674663380e+00 -1.5496179005070286e+02 -7.1635577883890919e+03 +9.5153281377482915e+05 +7.2015166171009809e+07 
+4.7499999999999902e+00 -5.2533277532095246e-01 +6.9581382596824790e+00 +3.2552036289386770e+00 -1.5460858561421244e+02 -7.2250361286985262e+03 +9.5018108455339645e+05 +7.2342132466933712e+07 
+4.7999999999999901e+00 -5.2536191813471422e-01 +6.9596062831228558e+00 +3.2286345308418389e+00 -1.5425188499401276e+02 -7.2846046741636892e+03 +9.4876646427174541e+05 +7.2658001725152403e+07 
+4.8499999999999899e+00 -5.2539126853623419e-01 +6.9610830025614483e+00 +3.2018748616227675e+00 -1.5389181605964123e+02 -7.3423163324677644e+03 +9.4729026976006210e+05 +7.2963107988844931e+07 
+4.8999999999999897e+00 -5.2542082383117927e-01 +6.9625682383657148e+00 +3.1749317086220841e+00 -1.5352850664724386e+02 -7.3982239842179079e+03 +9.4575381759932160e+05 +7.3257785127561808e+07 
+4.9499999999999904e+00 -5.2545058132513389e-01 +6.9640618109052186e+00 +3.1478121625482638e+00 -1.5316208468790396e+02 -7.4523805986646503e+03 +9.4415842515336187e+05 +7.3542367603240952e+07 
+4.9999999999999902e+00 -5.2548053832367536e-01 +6.9655635405456735e+00 +3.1205233134971349e+00 -1.5279267796330984e+02 -7.5048391297828975e+03 +9.4250540852033882e+05 +7.3817189780234843e+07 
+5.0499999999999901e+00 -5.2551069213464496e-01 +6.9670732399159467e+00 +3.0930726373151400e+00 -1.5242042203342913e+02 -7.5556523758824396e+03 +9.4079608367312956e+05 +7.4082585177736297e+07 
