# field on trajectory
# s[mm] rx[mm] ry[mm] rz[mm] bx[T] by[T] bz[T]
0.0000000000000000e+00 +8.5270000000000206e+00 +0.0000000000000000e+00 +0.0000000000000000e+00 -3.0155221708251304e-02 -5.7641516202830034e-01 +5.7003445492938374e-03
5.0000000000000003e-02 +8.5269999309457507e+00 +0.0000000000000000e+00 +4.9999999999936401e-02 -3.0155151534860810e-02 -5.7641538051539420e-01 +5.6993423609712542e-03
1.0000000000000001e-01 +8.5269997237846802e+00 +0.0000000000000000e+00 +9.9999999999491399e-02 -3.0155109147853281e-02 -5.7641602397419778e-01 +5.6983418692388762e-03
1.4999999999999999e-01 +8.5269993785186706e+00 +0.0000000000000000e+00 +1.4999999999828301e-01 -3.0155094466173312e-02 -5.7641709154241316e-01 +5.6973431657412997e-03
2.0000000000000001e-01 +8.5269988951477007e+00 +0.0000000000000000e+00 +1.9999999999593099e-01 -3.0155107408766899e-02 -5.7641858235777355e-01 +5.6963463421231377e-03
2.5000000000000000e-01 +8.5269982736681396e+00 +0.0000000000000000e+00 +2.4999999999205300e-01 -3.0155147894582207e-02 -5.7642049555805641e-01 +5.6953514900291791e-03
2.9999999999999999e-01 +8.5269975140799907e+00 +0.0000000000000000e+00 +2.9999999998626697e-01 -3.0155215842566675e-02 -5.7642283028103058e-01 +5.6943587011038348e-03
3.4999999999999998e-01 +8.5269966163905302e+00 +0.0000000000000000e+00 +3.4999999997819298e-01 -3.0155311171665509e-02 -5.7642558566442703e-01 +5.6933680669909014e-03
4.0000000000000002e-01 +8.5269955805888493e+00 +0.0000000000000000e+00 +3.9999999996744801e-01 -3.0155433800832361e-02 -5.7642876084613170e-01 +5.6923796793354959e-03
4.5000000000000001e-01 +8.5269944066858407e+00 +0.0000000000000000e+00 +4.4999999995365197e-01 -3.0155583649012749e-02 -5.7643235496388356e-01 +5.6913936297810306e-03
5.0000000000000000e-01 +8.5269930946742498e+00 +0.0000000000000000e+00 +4.9999999993642202e-01 -3.0155760635160702e-02 -5.7643636715557678e-01 +5.6904100099722764e-03
5.5000000000000004e-01 +8.5269916445577092e+00 +0.0000000000000000e+00 +5.4999999991537796e-01 -3.0155964678226819e-02 -5.7644079655904035e-01 +5.6894289115531644e-03
5.9999999999999998e-01 +8.5269900563289394e+00 +0.0000000000000000e+00 +5.9999999989013697e-01 -3.0156195697167314e-02 -5.7644564231220485e-01 +5.6884504261684619e-03
6.5000000000000002e-01 +8.5269883299988596e+00 +0.0000000000000000e+00 +6.4999999986031898e-01 -3.0156453610932030e-02 -5.7645090355288020e-01 +5.6874746454615736e-03
6.9999999999999996e-01 +8.5269864655601904e+00 +0.0000000000000000e+00 +6.9999999982554195e-01 -3.0156738338479556e-02 -5.7645657941903194e-01 +5.6865016610773223e-03
7.5000000000000000e-01 +8.5269844630165608e+00 +0.0000000000000000e+00 +7.4999999978542398e-01 -3.0157049798765333e-02 -5.7646266904856192e-01 +5.6855315646597623e-03
8.0000000000000004e-01 +8.5269823223679904e+00 +0.0000000000000000e+00 +7.9999999973958402e-01 -3.0157387910747558e-02 -5.7646917157941646e-01 +5.6845644478532801e-03
8.4999999999999998e-01 +8.5269800436108198e+00 +0.0000000000000000e+00 +8.4999999968764095e-01 -3.0157752593387439e-02 -5.7647608614958801e-01 +5.6836004023026344e-03
9.0000000000000002e-01 +8.5269776267450705e+00 +0.0000000000000000e+00 +8.9999999962921295e-01 -3.0158143765646097e-02 -5.7648341189705987e-01 +5.6826395196524051e-03
9.4999999999999996e-01 +8.5269750717743609e+00 +0.0000000000000000e+00 +9.4999999956391801e-01 -3.0158561346484675e-02 -5.7649114795980538e-01 +5.6816818915470082e-03
1.0000000000000000e+00 +8.5269723786986997e+00 +0.0000000000000000e+00 +9.9999999949137597e-01 -3.0159005254867432e-02 -5.7649929347584450e-01 +5.6807276096312769e-03
1.0500000000000000e+00 +8.5269695475144491e+00 +0.0000000000000000e+00 +1.0499999994111999e+00 -3.0159475409761785e-02 -5.7650784758324181e-01 +5.6797767655504582e-03
1.1000000000000001e+00 +8.5269665782288904e+00 +0.0000000000000000e+00 +1.0999999993230201e+00 -3.0159971730132351e-02 -5.7651680941999939e-01 +5.6788294509491450e-03
1.1499999999999999e+00 +8.5269634708311095e+00 +0.0000000000000000e+00 +1.1499999992264500e+00 -3.0160494134953052e-02 -5.7652617812427320e-01 +5.6778857574734803e-03
1.2000000000000000e+00 +8.5269602253283701e+00 +0.0000000000000000e+00 +1.1999999991210999e+00 -3.0161042543192084e-02 -5.7653595283410153e-01 +5.6769457767684326e-03
1.2500000000000000e+00 +8.5269568417206791e+00 +0.0000000000000000e+00 +1.2499999990065900e+00 -3.0161616873822569e-02 -5.7654613268759580e-01 +5.6760096004797311e-03
1.3000000000000000e+00 +8.5269533200044005e+00 +0.0000000000000000e+00 +1.2999999988825499e+00 -3.0162217045821102e-02 -5.7655671682291310e-01 +5.6750773202536020e-03
1.3500000000000001e+00 +8.5269496601795307e+00 +0.0000000000000000e+00 +1.3499999987485900e+00 -3.0162842978164767e-02 -5.7656770437820182e-01 +5.6741490277362455e-03
1.3999999999999999e+00 +8.5269458622533403e+00 +0.0000000000000000e+00 +1.3999999986043401e+00 -3.0163494589829695e-02 -5.7657909449157441e-01 +5.6732248145735780e-03
1.4500000000000000e+00 +8.5269419262185693e+00 +0.0000000000000000e+00 +1.4499999984494001e+00 -3.0164171799800202e-02 -5.7659088630127087e-01 +5.6723047724128684e-03
1.5000000000000000e+00 +8.5269378520752106e+00 +0.0000000000000000e+00 +1.4999999982833900e+00 -3.0164874527059782e-02 -5.7660307894549589e-01 +5.6713889929011487e-03
1.5500000000000000e+00 +8.5269336398268898e+00 +0.0000000000000000e+00 +1.5499999981059500e+00 -3.0165602690592656e-02 -5.7661567156244486e-01 +5.6704775676854760e-03
1.6000000000000001e+00 +8.5269292894736299e+00 +0.0000000000000000e+00 +1.5999999979166799e+00 -3.0166356209386867e-02 -5.7662866329035956e-01 +5.6695705884135025e-03
1.6499999999999999e+00 +8.5269248010117700e+00 +0.0000000000000000e+00 +1.6499999977152000e+00 -3.0167135002434377e-02 -5.7664205326752849e-01 +5.6686681467334986e-03
1.7000000000000000e+00 +8.5269201744449692e+00 +0.0000000000000000e+00 +1.6999999975011300e+00 -3.0167938988726491e-02 -5.7665584063220299e-01 +5.6677703342935312e-03
1.7500000000000000e+00 +8.5269154097695701e+00 +0.0000000000000000e+00 +1.7499999972740901e+00 -3.0168768087260114e-02 -5.7667002452270932e-01 +5.6668772427425950e-03
1.8000000000000000e+00 +8.5269105069892195e+00 +0.0000000000000000e+00 +1.7999999970336999e+00 -3.0169622217031605e-02 -5.7668460407733746e-01 +5.6659889637295201e-03
1.8500000000000001e+00 +8.5269054661039299e+00 +0.0000000000000000e+00 +1.8499999967795799e+00 -3.0170501297041494e-02 -5.7669957843442388e-01 +5.6651055889038095e-03
1.8999999999999999e+00 +8.5269002871100401e+00 +0.0000000000000000e+00 +1.8999999965113501e+00 -3.0171405246294518e-02 -5.7671494673235124e-01 +5.6642272099156647e-03
1.9500000000000000e+00 +8.5268949700112007e+00 +0.0000000000000000e+00 +1.9499999962286201e+00 -3.0172333983795051e-02 -5.7673070810946681e-01 +5.6633539184151671e-03
2.0000000000000000e+00 +8.5268895148037700e+00 +0.0000000000000000e+00 +1.9999999959310100e+00 -3.0173287428553346e-02 -5.7674686170419143e-01 +5.6624858060533943e-03
2.0499999999999998e+00 +8.5268839213858900e+00 +0.0000000000000000e+00 +2.0499999956181298e+00 -3.0174265484097348e-02 -5.7676340639540313e-01 +5.6616229651575570e-03
2.1000000000000001e+00 +8.5268781896593300e+00 +0.0000000000000000e+00 +2.0999999952895898e+00 -3.0175267991851489e-02 -5.7678034002075651e-01 +5.6607654907286547e-03
2.1499999999999999e+00 +8.5268723196240899e+00 +0.0000000000000000e+00 +2.1499999949449999e+00 -3.0176294777674157e-02 -5.7679766015687317e-01 +5.6599134784293143e-03
2.2000000000000002e+00 +8.5268663112729008e+00 +0.0000000000000000e+00 +2.1999999945839801e+00 -3.0177345667427823e-02 -5.7681536438044356e-01 +5.6590670239232569e-03
2.2500000000000000e+00 +8.5268601646093902e+00 +0.0000000000000000e+00 +2.2499999942061502e+00 -3.0178420486971256e-02 -5.7683345026808841e-01 +5.6582262228739647e-03
2.2999999999999998e+00 +8.5268538796335598e+00 +0.0000000000000000e+00 +2.2999999938111202e+00 -3.0179519062165563e-02 -5.7685191539646752e-01 +5.6573911709457709e-03
2.3500000000000001e+00 +8.5268474563490599e+00 +0.0000000000000000e+00 +2.3499999933985198e+00 -3.0180641218871134e-02 -5.7687075734222604e-01 +5.6565619638033453e-03
2.3999999999999999e+00 +8.5268408947522403e+00 +0.0000000000000000e+00 +2.3999999929679601e+00 -3.0181786782952125e-02 -5.7688997368207540e-01 +5.6557386971125209e-03
2.4500000000000002e+00 +8.5268341948467405e+00 +0.0000000000000000e+00 +2.4499999925190501e+00 -3.0182955580270301e-02 -5.7690956199268340e-01 +5.6549214665392311e-03
2.5000000000000000e+00 +8.5268273566252901e+00 +0.0000000000000000e+00 +2.4999999920514302e+00 -3.0184147436692597e-02 -5.7692951985081120e-01 +5.6541103677508675e-03
2.5499999999999998e+00 +8.5268203800987994e+00 +0.0000000000000000e+00 +2.5499999915646900e+00 -3.0185362178078923e-02 -5.7694984483309364e-01 +5.6533054964141623e-03
2.6000000000000001e+00 +8.5268132652563509e+00 +0.0000000000000000e+00 +2.5999999910584699e+00 -3.0186599630298797e-02 -5.7697053451634106e-01 +5.6525069481981492e-03
2.6499999999999999e+00 +8.5268060121015896e+00 +0.0000000000000000e+00 +2.6499999905323701e+00 -3.0187859619216113e-02 -5.7699158647726412e-01 +5.6517148187714998e-03
2.7000000000000002e+00 +8.5267986206345103e+00 +0.0000000000000000e+00 +2.6999999899860101e+00 -3.0189141970696637e-02 -5.7701299829260955e-01 +5.6509292038038807e-03
2.7500000000000000e+00 +8.5267910908551094e+00 +0.0000000000000000e+00 +2.7499999894190199e+00 -3.0190446510606515e-02 -5.7703476753913585e-01 +5.6501501989657159e-03
2.7999999999999998e+00 +8.5267834227670392e+00 +0.0000000000000000e+00 +2.7999999888310101e+00 -3.0191773064810593e-02 -5.7705689179358022e-01 +5.6493778999279114e-03
2.8500000000000001e+00 +8.5267756163666508e+00 +0.0000000000000000e+00 +2.8499999882215898e+00 -3.0193121459177005e-02 -5.7707936863274700e-01 +5.6486124023627012e-03
2.8999999999999999e+00 +8.5267676716539391e+00 +0.0000000000000000e+00 +2.8999999875903901e+00 -3.0194491519572552e-02 -5.7710219563341925e-01 +5.6478538019428528e-03
2.9500000000000002e+00 +8.5267595886289200e+00 +0.0000000000000000e+00 +2.9499999869370299e+00 -3.0195883071864101e-02 -5.7712537037238931e-01 +5.6471021943419533e-03
3.0000000000000000e+00 +8.5267513672915793e+00 +0.0000000000000000e+00 +2.9999999862611100e+00 -3.0197295941918580e-02 -5.7714889042645767e-01 +5.6463576752344251e-03
3.0499999999999998e+00 +8.5267430076455604e+00 +0.0000000000000000e+00 +3.0499999855622502e+00 -3.0198729955601394e-02 -5.7717275337240448e-01 +5.6456203402952786e-03
3.1000000000000001e+00 +8.5267345096872305e+00 +0.0000000000000000e+00 +3.0999999848400801e+00 -3.0200184938780936e-02 -5.7719695678707195e-01 +5.6448902852009293e-03
3.1499999999999999e+00 +8.5267258734165807e+00 +0.0000000000000000e+00 +3.1499999840942201e+00 -3.0201660717323945e-02 -5.7722149824728308e-01 +5.6441676056284184e-03
3.2000000000000002e+00 +8.5267170988336094e+00 +0.0000000000000000e+00 +3.1999999833242700e+00 -3.0203157117097000e-02 -5.7724637532986611e-01 +5.6434523972556981e-03
3.2500000000000000e+00 +8.5267081859419704e+00 +0.0000000000000000e+00 +3.2499999825298600e+00 -3.0204673963964906e-02 -5.7727158561162906e-01 +5.6427447557613778e-03
3.2999999999999998e+00 +8.5266991347380099e+00 +0.0000000000000000e+00 +3.2999999817106000e+00 -3.0206211083795259e-02 -5.7729712666944111e-01 +5.6420447768255454e-03
3.3500000000000001e+00 +8.5266899452181004e+00 +0.0000000000000000e+00 +3.3499999808661101e+00 -3.0207768302455289e-02 -5.7732299608017690e-01 +5.6413525561292465e-03
3.3999999999999999e+00 +8.5266806173895002e+00 +0.0000000000000000e+00 +3.3999999799960099e+00 -3.0209345445807268e-02 -5.7734919142063434e-01 +5.6406681893537217e-03
3.4500000000000002e+00 +8.5266711512522306e+00 +0.0000000000000000e+00 +3.4499999790999101e+00 -3.0210942339716055e-02 -5.7737571026767098e-01 +5.6399917721817270e-03
3.5000000000000000e+00 +8.5266615468026394e+00 +0.0000000000000000e+00 +3.4999999781774398e+00 -3.0212558810047543e-02 -5.7740255019817754e-01 +5.6393234002973117e-03
3.5499999999999998e+00 +8.5266518040407409e+00 +0.0000000000000000e+00 +3.5499999772282100e+00 -3.0214194682665483e-02 -5.7742970878902100e-01 +5.6386631693852874e-03
3.6000000000000001e+00 +8.5266419229665207e+00 +0.0000000000000000e+00 +3.5999999762518402e+00 -3.0215849783433061e-02 -5.7745718361707321e-01 +5.6380111751315179e-03
3.6499999999999999e+00 +8.5266319035799807e+00 +0.0000000000000000e+00 +3.6499999752479400e+00 -3.0217523938212761e-02 -5.7748497225920936e-01 +5.6373675132229389e-03
3.6999999999999900e+00 +8.5266217458847695e+00 +0.0000000000000000e+00 +3.6999999742161398e+00 -3.0219216972864796e-02 -5.7751307229228133e-01 +5.6367322793473120e-03
3.7499999999999898e+00 +8.5266114498736005e+00 +0.0000000000000000e+00 +3.7499999731560498e+00 -3.0220928713253190e-02 -5.7754148129322680e-01 +5.6361055691942922e-03
3.7999999999999901e+00 +8.5266010155537497e+00 +0.0000000000000000e+00 +3.7999999720672801e+00 -3.0222658985234994e-02 -5.7757019683887578e-01 +5.6354874784536081e-03
3.8499999999999899e+00 +8.5265904429179500e+00 +0.0000000000000000e+00 +3.8499999709494599e+00 -3.0224407614672481e-02 -5.7759921650617152e-01 +5.6348781028171847e-03
3.8999999999999901e+00 +8.5265797319771099e+00 +0.0000000000000000e+00 +3.8999999698022001e+00 -3.0226174427419299e-02 -5.7762853787192181e-01 +5.6342775379767786e-03
3.9499999999999900e+00 +8.5265688827203103e+00 +0.0000000000000000e+00 +3.9499999686251202e+00 -3.0227959249337306e-02 -5.7765815851310265e-01 +5.6336858796269262e-03
3.9999999999999898e+00 +8.5265578951548395e+00 +0.0000000000000000e+00 +3.9999999674178399e+00 -3.0229761906279570e-02 -5.7768807600655225e-01 +5.6331032234620158e-03
4.0499999999999901e+00 +8.5265467692734092e+00 +0.0000000000000000e+00 +4.0499999661799704e+00 -3.0231582243292199e-02 -5.7771828781967105e-01 +5.6325296549031194e-03
4.0999999999999899e+00 +8.5265355050833005e+00 +0.0000000000000000e+00 +4.0999999649111301e+00 -3.0233420182166633e-02 -5.7774879098154608e-01 +5.6319652182687061e-03
4.1499999999999897e+00 +8.5265241025808791e+00 +0.0000000000000000e+00 +4.1499999636109504e+00 -3.0235275663887232e-02 -5.7777958241179395e-01 +5.6314099476028187e-03
4.1999999999999904e+00 +8.5265125617697795e+00 +0.0000000000000000e+00 +4.1999999622790298e+00 -3.0237148629435634e-02 -5.7781065902997641e-01 +5.6308638769493472e-03
4.2499999999999902e+00 +8.5265008826427202e+00 +0.0000000000000000e+00 +4.2499999609149901e+00 -3.0239039019798474e-02 -5.7784201775573718e-01 +5.6303270403533136e-03
4.2999999999999901e+00 +8.5264890652069898e+00 +0.0000000000000000e+00 +4.2999999595184599e+00 -3.0240946775956630e-02 -5.7787365550860659e-01 +5.6297994718590358e-03
4.3499999999999899e+00 +8.5264771094589396e+00 +0.0000000000000000e+00 +4.3499999580890396e+00 -3.0242871838895884e-02 -5.7790556920819769e-01 +5.6292812055119502e-03
4.3999999999999897e+00 +8.5264650153985695e+00 +0.0000000000000000e+00 +4.3999999566263703e+00 -3.0244814149600875e-02 -5.7793775577409234e-01 +5.6287722753575551e-03
4.4499999999999904e+00 +8.5264527830295300e+00 +0.0000000000000000e+00 +4.4499999551300400e+00 -3.0246773649055030e-02 -5.7797021212584299e-01 +5.6282727154414076e-03
4.4999999999999902e+00 +8.5264404123481707e+00 +0.0000000000000000e+00 +4.4999999535996897e+00 -3.0248750278245182e-02 -5.7800293518305401e-01 +5.6277825598098881e-03
4.5499999999999901e+00 +8.5264279033544899e+00 +0.0000000000000000e+00 +4.5499999520349199e+00 -3.0250743978156976e-02 -5.7803592186529917e-01 +5.6273018425094254e-03
4.5999999999999899e+00 +8.5264152560448601e+00 +0.0000000000000000e+00 +4.5999999504353601e+00 -3.0252754689777856e-02 -5.7806916909217632e-01 +5.6268305975869810e-03
4.6499999999999897e+00 +8.5264024704301793e+00 +0.0000000000000000e+00 +4.6499999488006196e+00 -3.0254782354089505e-02 -5.7810267378316837e-01 +5.6263688590887729e-03
4.6999999999999904e+00 +8.5263895464995603e+00 +0.0000000000000000e+00 +4.6999999471303298e+00 -3.0256826912083083e-02 -5.7813643285792027e-01 +5.6259166610628398e-03
4.7499999999999902e+00 +8.5263764842602505e+00 +0.0000000000000000e+00 +4.7499999454240900e+00 -3.0258888304742368e-02 -5.7817044323593325e-01 +5.6254740375561926e-03
4.7999999999999901e+00 +8.5263632837050007e+00 +0.0000000000000000e+00 +4.7999999436815299e+00 -3.0260966473057614e-02 -5.7820470183681560e-01 +5.6250410226171346e-03
4.8499999999999899e+00 +8.5263499448447000e+00 +0.0000000000000000e+00 +4.8499999419022597e+00 -3.0263061358011632e-02 -5.7823920558003061e-01 +5.6246176502929100e-03
4.8999999999999897e+00 +8.5263364676684397e+00 +0.0000000000000000e+00 +4.8999999400859000e+00 -3.0265172900596746e-02 -5.7827395138520232e-01 +5.6242039546325635e-03
4.9499999999999904e+00 +8.5263228521798702e+00 +0.0000000000000000e+00 +4.9499999382320699e+00 -3.0267301041799428e-02 -5.7830893617183798e-01 +5.6237999696843273e-03
4.9999999999999902e+00 +8.5263090983826295e+00 +0.0000000000000000e+00 +4.9999999363403900e+00 -3.0269445722606359e-02 -5.7834415685943907e-01 +5.6234057294966555e-03
5.0499999999999901e+00 +8.5262952059529198e+00 +0.0000000000000000e+00 +5.0499999344103799e+00 -3.0271606884142915e-02 -5.7837961036999941e-01 +5.6230212681416146e-03
5.0999999999999899e+00 +8.5262811745706095e+00 +0.0000000000000000e+00 +5.0999999324415599e+00 -3.0273784467533215e-02 -5.7841529362548094e-01 +5.6226466196911814e-03
5.1499999999999897e+00 +8.5262670042357094e+00 +0.0000000000000000e+00 +5.1499999304335597e+00 -3.0275978413766516e-02 -5.7845120354539548e-01 +5.6222818181946342e-03
5.1999999999999904e+00 +8.5262526949518396e+00 +0.0000000000000000e+00 +5.1999999283859903e+00 -3.0278188663830762e-02 -5.7848733704921751e-01 +5.6219268977011757e-03
5.2499999999999902e+00 +8.5262382467153692e+00 +0.0000000000000000e+00 +5.2499999262984600e+00 -3.0280415158717176e-02 -5.7852369105647017e-01 +5.6215818922607051e-03
5.2999999999999901e+00 +8.5262236595299292e+00 +0.0000000000000000e+00 +5.2999999241705797e+00 -3.0282657839414126e-02 -5.7856026248661174e-01 +5.6212468359227727e-03
5.3499999999999899e+00 +8.5262089333882596e+00 +0.0000000000000000e+00 +5.3499999220019703e+00 -3.0284916646914836e-02 -5.7859704825917591e-01 +5.6209217627378712e-03
5.3999999999999897e+00 +8.5261940682976292e+00 +0.0000000000000000e+00 +5.3999999197922497e+00 -3.0287191522206599e-02 -5.7863404529357476e-01 +5.6206067067555961e-03
5.4499999999999904e+00 +8.5261790642507496e+00 +0.0000000000000000e+00 +5.4499999175410201e+00 -3.0289482406283017e-02 -5.7867125050932344e-01 +5.6203017020267313e-03
5.4999999999999902e+00 +8.5261639212585596e+00 +0.0000000000000000e+00 +5.4999999152479004e+00 -3.0291789240130228e-02 -5.7870866082578731e-01 +5.6200067826008985e-03
5.5499999999999901e+00 +8.5261486393137602e+00 +0.0000000000000000e+00 +5.5499999129125097e+00 -3.0294111964742260e-02 -5.7874627316246086e-01 +5.6197219825291373e-03
5.5999999999999899e+00 +8.5261332184127205e+00 +0.0000000000000000e+00 +5.5999999105344500e+00 -3.0296450521111774e-02 -5.7878408443880014e-01 +5.6194473358623489e-03
5.6499999999999897e+00 +8.5261176585627307e+00 +0.0000000000000000e+00 +5.6499999081133403e+00 -3.0298804850226967e-02 -5.7882209157416653e-01 +5.6191828766507497e-03
5.6999999999999904e+00 +8.5261019597637606e+00 +0.0000000000000000e+00 +5.6999999056488004e+00 -3.0301174893079312e-02 -5.7886029148796625e-01 +5.6189286389451958e-03
5.7499999999999902e+00 +8.5260861220122006e+00 +0.0000000000000000e+00 +5.7499999031404396e+00 -3.0303560590661971e-02 -5.7889868109962095e-01 +5.6186846567968692e-03
5.7999999999999901e+00 +8.5260701453080401e+00 +0.0000000000000000e+00 +5.7999999005878804e+00 -3.0305961883966736e-02 -5.7893725732851353e-01 +5.6184509642567913e-03
5.8499999999999899e+00 +8.5260540296512808e+00 +0.0000000000000000e+00 +5.8499998979907204e+00 -3.0308378713985513e-02 -5.7897601709401336e-01 +5.6182275953760418e-03
5.8999999999999897e+00 +8.5260377750455500e+00 +0.0000000000000000e+00 +5.8999998953485804e+00 -3.0310811021708836e-02 -5.7901495731545050e-01 +5.6180145842055149e-03
