# field on trajectory
# s[mm] rx[mm] ry[mm] rz[mm] bx[T] by[T] bz[T]
0.0000000000000000e+00 +8.5980000000000008e+00 +0.0000000000000000e+00 +0.0000000000000000e+00 -3.1281748834838016e-02 -5.7689074246221317e-01 +5.9628242033519050e-03
5.0000000000000003e-02 +8.5979999310318185e+00 +0.0000000000000000e+00 +4.9999999999936581e-02 -3.1280782853953415e-02 -5.7688237260701702e-01 +5.9602705153217620e-03
1.0000000000000001e-01 +8.5979997241285879e+00 +0.0000000000000000e+00 +9.9999999999492634e-02 -3.1279844632485135e-02 -5.7687441134818118e-01 +5.9577118020603557e-03
1.5000000000000002e-01 +8.5979993792922134e+00 +0.0000000000000000e+00 +1.4999999999828767e-01 -3.1278934256951045e-02 -5.7686685860383047e-01 +5.9551483451780983e-03
2.0000000000000001e-01 +8.5979988965244996e+00 +0.0000000000000000e+00 +1.9999999999594117e-01 -3.1278051813869952e-02 -5.7685971429210858e-01 +5.9525804262852743e-03
2.5000000000000000e-01 +8.5979982758271554e+00 +0.0000000000000000e+00 +2.4999999999207267e-01 -3.1277197389761577e-02 -5.7685297833117766e-01 +5.9500083269920711e-03
2.9999999999999999e-01 +8.5979975172017920e+00 +0.0000000000000000e+00 +2.9999999998630167e-01 -3.1276371071146690e-02 -5.7684665063921725e-01 +5.9474323289086129e-03
3.4999999999999998e-01 +8.5979966206499210e+00 +0.0000000000000000e+00 +3.4999999997824777e-01 -3.1275572944547164e-02 -5.7684073113442769e-01 +5.9448527136449813e-03
3.9999999999999997e-01 +8.5979955861729582e+00 +0.0000000000000000e+00 +3.9999999996753050e-01 -3.1274803096485976e-02 -5.7683521973502572e-01 +5.9422697628112500e-03
4.4999999999999996e-01 +8.5979944137722235e+00 +0.0000000000000000e+00 +4.4999999995376938e-01 -3.1274061613487295e-02 -5.7683011635924830e-01 +5.9396837580175180e-03
4.9999999999999994e-01 +8.5979931034489354e+00 +0.0000000000000000e+00 +4.9999999993658406e-01 -3.1273348582076581e-02 -5.7682542092534983e-01 +5.9370949808739294e-03
5.4999999999999993e-01 +8.5979916552042166e+00 +0.0000000000000000e+00 +5.4999999991559412e-01 -3.1272664088780600e-02 -5.7682113335160456e-01 +5.9345037129907123e-03
5.9999999999999998e-01 +8.5979900690390920e+00 +0.0000000000000000e+00 +5.9999999989041908e-01 -3.1272008220127469e-02 -5.7681725355630509e-01 +5.9319102359781930e-03
6.5000000000000002e-01 +8.5979883449544889e+00 +0.0000000000000000e+00 +6.4999999986067858e-01 -3.1271381062646764e-02 -5.7681378145776308e-01 +5.9293148314468530e-03
7.0000000000000007e-01 +8.5979864829512387e+00 +0.0000000000000000e+00 +6.9999999982599215e-01 -3.1270782702869551e-02 -5.7681071697430919e-01 +5.9267177810073237e-03
7.5000000000000011e-01 +8.5979844830300749e+00 +0.0000000000000000e+00 +7.4999999978597942e-01 -3.1270213227328446e-02 -5.7680806002429363e-01 +5.9241193662704422e-03
8.0000000000000016e-01 +8.5979823451916300e+00 +0.0000000000000000e+00 +7.9999999974026004e-01 -3.1269672722557672e-02 -5.7680581052608437e-01 +5.9215198688472711e-03
8.5000000000000020e-01 +8.5979800694364439e+00 +0.0000000000000000e+00 +8.4999999968845352e-01 -3.1269161275093132e-02 -5.7680396839807002e-01 +5.9189195703491220e-03
9.0000000000000024e-01 +8.5979776557649572e+00 +0.0000000000000000e+00 +8.9999999963017951e-01 -3.1268678971472418e-02 -5.7680253355865807e-01 +5.9163187523875943e-03
9.5000000000000029e-01 +8.5979751041775128e+00 +0.0000000000000000e+00 +9.4999999956505765e-01 -3.1268225898234976e-02 -5.7680150592627444e-01 +5.9137176965746016e-03
1.0000000000000002e+00 +8.5979724146743557e+00 +0.0000000000000000e+00 +9.9999999949270757e-01 -3.1267802141922062e-02 -5.7680088541936581e-01 +5.9111166845224015e-03
1.0500000000000003e+00 +8.5979695872556352e+00 +0.0000000000000000e+00 +1.0499999994127487e+00 -3.1267407789076808e-02 -5.7680067195639717e-01 +5.9085159978436146e-03
1.1000000000000003e+00 +8.5979666219214010e+00 +0.0000000000000000e+00 +1.0999999993248009e+00 -3.1267042926244375e-02 -5.7680086545585374e-01 +5.9059159181512732e-03
1.1500000000000004e+00 +8.5979635186716088e+00 +0.0000000000000000e+00 +1.1499999992284835e+00 -3.1266707639971886e-02 -5.7680146583623992e-01 +5.9033167270588346e-03
1.2000000000000004e+00 +8.5979602775061146e+00 +0.0000000000000000e+00 +1.1999999991234160e+00 -3.1266402016808581e-02 -5.7680247301607956e-01 +5.9007187061802151e-03
1.2500000000000004e+00 +8.5979568984246768e+00 +0.0000000000000000e+00 +1.2499999990092183e+00 -3.1266126143305852e-02 -5.7680388691391704e-01 +5.8981221371298210e-03
1.3000000000000005e+00 +8.5979533814269562e+00 +0.0000000000000000e+00 +1.2999999988855098e+00 -3.1265880106017253e-02 -5.7680570744831561e-01 +5.8955273015225754e-03
1.3500000000000005e+00 +8.5979497265125193e+00 +0.0000000000000000e+00 +1.3499999987519100e+00 -3.1265663991498646e-02 -5.7680793453785906e-01 +5.8929344809739541e-03
1.4000000000000006e+00 +8.5979459336808333e+00 +0.0000000000000000e+00 +1.3999999986080385e+00 -3.1265477886308131e-02 -5.7681056810115017e-01 +5.8903439571000001e-03
1.4500000000000006e+00 +8.5979420029312692e+00 +0.0000000000000000e+00 +1.4499999984535148e+00 -3.1265321877006272e-02 -5.7681360805681237e-01 +5.8877560115173705e-03
1.5000000000000007e+00 +8.5979379342630988e+00 +0.0000000000000000e+00 +1.4999999982879584e+00 -3.1265196050156048e-02 -5.7681705432348929e-01 +5.8851709258433520e-03
1.5500000000000007e+00 +8.5979337276754997e+00 +0.0000000000000000e+00 +1.5499999981109887e+00 -3.1265100492322867e-02 -5.7682090681984355e-01 +5.8825889816958949e-03
1.6000000000000008e+00 +8.5979293831675498e+00 +0.0000000000000000e+00 +1.5999999979222252e+00 -3.1265035290074787e-02 -5.7682516546455975e-01 +5.8800104606936531e-03
1.6500000000000008e+00 +8.5979249007382297e+00 +0.0000000000000000e+00 +1.6499999977212876e+00 -3.1265000529982427e-02 -5.7682983017634049e-01 +5.8774356444559906e-03
1.7000000000000008e+00 +8.5979202803864254e+00 +0.0000000000000000e+00 +1.6999999975077953e+00 -3.1264996298619063e-02 -5.7683490087391021e-01 +5.8748648146030244e-03
1.7500000000000009e+00 +8.5979155221109256e+00 +0.0000000000000000e+00 +1.7499999972813676e+00 -3.1265022682560747e-02 -5.7684037747601347e-01 +5.8722982527556677e-03
1.8000000000000009e+00 +8.5979106259104192e+00 +0.0000000000000000e+00 +1.7999999970416238e+00 -3.1265079768386272e-02 -5.7684625990141480e-01 +5.8697362405356231e-03
1.8500000000000010e+00 +8.5979055917834994e+00 +0.0000000000000000e+00 +1.8499999967881837e+00 -3.1265167642677338e-02 -5.7685254806889930e-01 +5.8671790595654491e-03
1.9000000000000010e+00 +8.5979004197286635e+00 +0.0000000000000000e+00 +1.8999999965206664e+00 -3.1265286392018476e-02 -5.7685924189727267e-01 +5.8646269914685639e-03
1.9500000000000011e+00 +8.5978951097443126e+00 +0.0000000000000000e+00 +1.9499999962386911e+00 -3.1265436102997257e-02 -5.7686634130536096e-01 +5.8620803178692886e-03
2.0000000000000009e+00 +8.5978896618287468e+00 +0.0000000000000000e+00 +1.9999999959418775e+00 -3.1265616862204235e-02 -5.7687384621201176e-01 +5.8595393203928724e-03
2.0500000000000007e+00 +8.5978840759801720e+00 +0.0000000000000000e+00 +2.0499999956298445e+00 -3.1265828720280234e-02 -5.7688175630631267e-01 +5.8570042666429871e-03
2.1000000000000005e+00 +8.5978783521966982e+00 +0.0000000000000000e+00 +2.0999999953022117e+00 -3.1266071584057212e-02 -5.7689007035825379e-01 +5.8544753681340498e-03
2.1500000000000004e+00 +8.5978724904763375e+00 +0.0000000000000000e+00 +2.1499999949585984e+00 -3.1266345324415787e-02 -5.7689878690806240e-01 +5.8519528223586366e-03
2.2000000000000002e+00 +8.5978664908170046e+00 +0.0000000000000000e+00 +2.1999999945986235e+00 -3.1266649812237812e-02 -5.7690790449598373e-01 +5.8494368268100175e-03
2.2500000000000000e+00 +8.5978603532165199e+00 +0.0000000000000000e+00 +2.2499999942219064e+00 -3.1266984918406411e-02 -5.7691742166227855e-01 +5.8469275789821470e-03
2.2999999999999998e+00 +8.5978540776726078e+00 +0.0000000000000000e+00 +2.2999999938280662e+00 -3.1267350513805865e-02 -5.7692733694722564e-01 +5.8444252763696792e-03
2.3499999999999996e+00 +8.5978476641828987e+00 +0.0000000000000000e+00 +2.3499999934167217e+00 -3.1267746469321581e-02 -5.7693764889111965e-01 +5.8419301164679928e-03
2.3999999999999995e+00 +8.5978411127449252e+00 +0.0000000000000000e+00 +2.3999999929874924e+00 -3.1268172655840067e-02 -5.7694835603427130e-01 +5.8394422967731723e-03
2.4499999999999993e+00 +8.5978344233561295e+00 +0.0000000000000000e+00 +2.4499999925399973e+00 -3.1268628944248818e-02 -5.7695945691700856e-01 +5.8369620147820395e-03
2.4999999999999991e+00 +8.5978275960138557e+00 +0.0000000000000000e+00 +2.4999999920738554e+00 -3.1269115205436321e-02 -5.7697095007967458e-01 +5.8344894679921563e-03
2.5499999999999989e+00 +8.5978206307153560e+00 +0.0000000000000000e+00 +2.5499999915886855e+00 -3.1269631310291993e-02 -5.7698283406262896e-01 +5.8320248539018302e-03
2.5999999999999988e+00 +8.5978135274577898e+00 +0.0000000000000000e+00 +2.5999999910841072e+00 -3.1270177129706117e-02 -5.7699510740624693e-01 +5.8295683700101235e-03
2.6499999999999986e+00 +8.5978062862382210e+00 +0.0000000000000000e+00 +2.6499999905597389e+00 -3.1270752534569783e-02 -5.7700776865091885e-01 +5.8271202138168703e-03
2.6999999999999984e+00 +8.5977989070536243e+00 +0.0000000000000000e+00 +2.6999999900151992e+00 -3.1271357395774885e-02 -5.7702081633705149e-01 +5.8246805828226778e-03
2.7499999999999982e+00 +8.5977913899008787e+00 +0.0000000000000000e+00 +2.7499999894501075e+00 -3.1271991584214009e-02 -5.7703424900506639e-01 +5.8222496745289377e-03
2.7999999999999980e+00 +8.5977837347767725e+00 +0.0000000000000000e+00 +2.7999999888640823e+00 -3.1272654970780377e-02 -5.7704806519540031e-01 +5.8198276864378368e-03
2.8499999999999979e+00 +8.5977759416780035e+00 +0.0000000000000000e+00 +2.8499999882567426e+00 -3.1273347426367920e-02 -5.7706226344850509e-01 +5.8174148160523697e-03
2.8999999999999977e+00 +8.5977680106011753e+00 +0.0000000000000000e+00 +2.8999999876277069e+00 -3.1274068821871018e-02 -5.7707684230484724e-01 +5.8150112608763328e-03
2.9499999999999975e+00 +8.5977599415428028e+00 +0.0000000000000000e+00 +2.9499999869765938e+00 -3.1274819028184665e-02 -5.7709180030490836e-01 +5.8126172184143560e-03
2.9999999999999973e+00 +8.5977517344993100e+00 +0.0000000000000000e+00 +2.9999999863030222e+00 -3.1275597916204254e-02 -5.7710713598918362e-01 +5.8102328861718913e-03
3.0499999999999972e+00 +8.5977433894670305e+00 +0.0000000000000000e+00 +3.0499999856066107e+00 -3.1276405356825597e-02 -5.7712284789818413e-01 +5.8078584616552392e-03
3.0999999999999970e+00 +8.5977349064422057e+00 +0.0000000000000000e+00 +3.0999999848869777e+00 -3.1277241220944899e-02 -5.7713893457243393e-01 +5.8054941423715395e-03
3.1499999999999968e+00 +8.5977262854209915e+00 +0.0000000000000000e+00 +3.1499999841437418e+00 -3.1278105379458639e-02 -5.7715539455247200e-01 +5.8031401258288066e-03
3.1999999999999966e+00 +8.5977175263994514e+00 +0.0000000000000000e+00 +3.1999999833765216e+00 -3.1278997703263582e-02 -5.7717222637885046e-01 +5.8007966095359074e-03
3.2499999999999964e+00 +8.5977086293735603e+00 +0.0000000000000000e+00 +3.2499999825849351e+00 -3.1279918063256688e-02 -5.7718942859213607e-01 +5.7984637910025883e-03
3.2999999999999963e+00 +8.5976995943392058e+00 +0.0000000000000000e+00 +3.2999999817686008e+00 -3.1280866330335062e-02 -5.7720699973290845e-01 +5.7961418677394934e-03
3.3499999999999961e+00 +8.5976904212921870e+00 +0.0000000000000000e+00 +3.3499999809271368e+00 -3.1281842375395906e-02 -5.7722493834176092e-01 +5.7938310372581516e-03
3.3999999999999959e+00 +8.5976811102282138e+00 +0.0000000000000000e+00 +3.3999999800601617e+00 -3.1282846069336533e-02 -5.7724324295930041e-01 +5.7915314970710015e-03
3.4499999999999957e+00 +8.5976716611429111e+00 +0.0000000000000000e+00 +3.4499999791672935e+00 -3.1283877283054186e-02 -5.7726191212614686e-01 +5.7892434446913926e-03
3.4999999999999956e+00 +8.5976620740318133e+00 +0.0000000000000000e+00 +3.4999999782481508e+00 -3.1284935887446089e-02 -5.7728094438293276e-01 +5.7869670776336032e-03
3.5499999999999954e+00 +8.5976523488903709e+00 +0.0000000000000000e+00 +3.5499999773023512e+00 -3.1286021753409367e-02 -5.7730033827030414e-01 +5.7847025934128372e-03
3.5999999999999952e+00 +8.5976424857139477e+00 +0.0000000000000000e+00 +3.5999999763295127e+00 -3.1287134751841000e-02 -5.7732009232891945e-01 +5.7824501895452499e-03
3.6499999999999950e+00 +8.5976324844978187e+00 +0.0000000000000000e+00 +3.6499999753292536e+00 -3.1288274753637754e-02 -5.7734020509944939e-01 +5.7802100635479360e-03
3.6999999999999948e+00 +8.5976223452371769e+00 +0.0000000000000000e+00 +3.6999999743011918e+00 -3.1289441629696157e-02 -5.7736067512257772e-01 +5.7779824129389609e-03
3.7499999999999947e+00 +8.5976120679271268e+00 +0.0000000000000000e+00 +3.7499999732449449e+00 -3.1290635250912420e-02 -5.7738150093899976e-01 +5.7757674352373611e-03
3.7999999999999945e+00 +8.5976016525626893e+00 +0.0000000000000000e+00 +3.7999999721601307e+00 -3.1291855488182398e-02 -5.7740268108942328e-01 +5.7735653279631389e-03
3.8499999999999943e+00 +8.5975910991387998e+00 +0.0000000000000000e+00 +3.8499999710463673e+00 -3.1293102212401530e-02 -5.7742421411456790e-01 +5.7713762886372963e-03
3.8999999999999941e+00 +8.5975804076503088e+00 +0.0000000000000000e+00 +3.8999999699032721e+00 -3.1294375294464799e-02 -5.7744609855516493e-01 +5.7692005147818295e-03
3.9499999999999940e+00 +8.5975695780919850e+00 +0.0000000000000000e+00 +3.9499999687304630e+00 -3.1295674605266714e-02 -5.7746833295195787e-01 +5.7670382039197426e-03
3.9999999999999938e+00 +8.5975586104585116e+00 +0.0000000000000000e+00 +3.9999999675275575e+00 -3.1297000015701196e-02 -5.7749091584570023e-01 +5.7648895535750543e-03
4.0499999999999936e+00 +8.5975475047444903e+00 +0.0000000000000000e+00 +4.0499999662941724e+00 -3.1298351380961181e-02 -5.7751384555828988e-01 +5.7627547488221112e-03
4.0999999999999934e+00 +8.5975362609444375e+00 +0.0000000000000000e+00 +4.0999999650299257e+00 -3.1299728493437658e-02 -5.7753711953615650e-01 +5.7606339249334495e-03
4.1499999999999932e+00 +8.5975248790527896e+00 +0.0000000000000000e+00 +4.1499999637344356e+00 -3.1301131129820574e-02 -5.7756073500686556e-01 +5.7585272047320103e-03
4.1999999999999931e+00 +8.5975133590638979e+00 +0.0000000000000000e+00 +4.1999999624073183e+00 -3.1302559066799587e-02 -5.7758468919798744e-01 +5.7564347110419497e-03
4.2499999999999929e+00 +8.5975017009720371e+00 +0.0000000000000000e+00 +4.2499999610481911e+00 -3.1304012081063780e-02 -5.7760897933709598e-01 +5.7543565666886070e-03
4.2999999999999927e+00 +8.5974899047713986e+00 +0.0000000000000000e+00 +4.2999999596566720e+00 -3.1305489949301636e-02 -5.7763360265176944e-01 +5.7522928944985533e-03
4.3499999999999925e+00 +8.5974779704560955e+00 +0.0000000000000000e+00 +4.3499999582323774e+00 -3.1306992448201135e-02 -5.7765855636958885e-01 +5.7502438172995808e-03
4.3999999999999924e+00 +8.5974658980201610e+00 +0.0000000000000000e+00 +4.3999999567749244e+00 -3.1308519354449560e-02 -5.7768383771813880e-01 +5.7482094579207315e-03
4.4499999999999922e+00 +8.5974536874575502e+00 +0.0000000000000000e+00 +4.4499999552839302e+00 -3.1310070444733530e-02 -5.7770944392500689e-01 +5.7461899391923043e-03
4.4999999999999920e+00 +8.5974413387621418e+00 +0.0000000000000000e+00 +4.4999999537590112e+00 -3.1311645495738970e-02 -5.7773537221778204e-01 +5.7441853839458688e-03
4.5499999999999918e+00 +8.5974288519277344e+00 +0.0000000000000000e+00 +4.5499999521997854e+00 -3.1313244284151005e-02 -5.7776161982405605e-01 +5.7421959150142790e-03
4.5999999999999917e+00 +8.5974162269480541e+00 +0.0000000000000000e+00 +4.5999999506058682e+00 -3.1314866586653958e-02 -5.7778818397142251e-01 +5.7402216552316851e-03
4.6499999999999915e+00 +8.5974034638167485e+00 +0.0000000000000000e+00 +4.6499999489768769e+00 -3.1316512179931311e-02 -5.7781506188747578e-01 +5.7382627274335475e-03
4.6999999999999913e+00 +8.5973905625273925e+00 +0.0000000000000000e+00 +4.6999999473124285e+00 -3.1318180840665677e-02 -5.7784225079981155e-01 +5.7363192544566599e-03
4.7499999999999911e+00 +8.5973775230734830e+00 +0.0000000000000000e+00 +4.7499999456121387e+00 -3.1319872345538680e-02 -5.7786974793602630e-01 +5.7343913591391413e-03
4.7999999999999909e+00 +8.5973643454484474e+00 +0.0000000000000000e+00 +4.7999999438756245e+00 -3.1321586471231032e-02 -5.7789755052371650e-01 +5.7324791643204700e-03
4.8499999999999908e+00 +8.5973510296456368e+00 +0.0000000000000000e+00 +4.8499999421025022e+00 -3.1323322994422392e-02 -5.7792565579047894e-01 +5.7305827928414857e-03
4.8999999999999906e+00 +8.5973375756583312e+00 +0.0000000000000000e+00 +4.8999999402923882e+00 -3.1325081691791351e-02 -5.7795406096390944e-01 +5.7287023675444025e-03
4.9499999999999904e+00 +8.5973239834797397e+00 +0.0000000000000000e+00 +4.9499999384448987e+00 -3.1326862340015429e-02 -5.7798276327160414e-01 +5.7268380112728331e-03
4.9999999999999902e+00 +8.5973102531030001e+00 +0.0000000000000000e+00 +4.9999999365596501e+00 -3.1328664715770956e-02 -5.7801175994115717e-01 +5.7249898468717877e-03
5.0499999999999901e+00 +8.5972963845211794e+00 +0.0000000000000000e+00 +5.0499999346362587e+00 -3.1330488595733091e-02 -5.7804104820016133e-01 +5.7231579971876983e-03
5.0999999999999899e+00 +8.5972823777272733e+00 +0.0000000000000000e+00 +5.0999999326743399e+00 -3.1332333756575792e-02 -5.7807062527620856e-01 +5.7213425850684311e-03
5.1499999999999897e+00 +8.5972682327142120e+00 +0.0000000000000000e+00 +5.1499999306735100e+00 -3.1334199974971687e-02 -5.7810048839688766e-01 +5.7195437333632864e-03
5.1999999999999895e+00 +8.5972539494748528e+00 +0.0000000000000000e+00 +5.1999999286333844e+00 -3.1336087027592149e-02 -5.7813063478978510e-01 +5.7177615649230329e-03
5.2499999999999893e+00 +8.5972395280019889e+00 +0.0000000000000000e+00 +5.2499999265535795e+00 -3.1337994691107124e-02 -5.7816106168248560e-01 +5.7159962025999040e-03
5.2999999999999892e+00 +8.5972249682883461e+00 +0.0000000000000000e+00 +5.2999999244337106e+00 -3.1339922742185208e-02 -5.7819176630256974e-01 +5.7142477692476235e-03
5.3499999999999890e+00 +8.5972102703265829e+00 +0.0000000000000000e+00 +5.3499999222733940e+00 -3.1341870957493558e-02 -5.7822274587761469e-01 +5.7125163877214070e-03
5.3999999999999888e+00 +8.5971954341092900e+00 +0.0000000000000000e+00 +5.3999999200722444e+00 -3.1343839113697793e-02 -5.7825399763519436e-01 +5.7108021808779897e-03
5.4499999999999886e+00 +8.5971804596289978e+00 +0.0000000000000000e+00 +5.4499999178298779e+00 -3.1345826987462029e-02 -5.7828551880287760e-01 +5.7091052715756204e-03
5.4999999999999885e+00 +8.5971653468781675e+00 +0.0000000000000000e+00 +5.4999999155459092e+00 -3.1347834355448842e-02 -5.7831730660822989e-01 +5.7074257826740943e-03
5.5499999999999883e+00 +8.5971500958491998e+00 +0.0000000000000000e+00 +5.5499999132199545e+00 -3.1349860994319127e-02 -5.7834935827881095e-01 +5.7057638370347557e-03
5.5999999999999881e+00 +8.5971347065344315e+00 +0.0000000000000000e+00 +5.5999999108516283e+00 -3.1351906680732199e-02 -5.7838167104217597e-01 +5.7041195575205181e-03
5.6499999999999879e+00 +8.5971191789261354e+00 +0.0000000000000000e+00 +5.6499999084405461e+00 -3.1353971191345580e-02 -5.7841424212587389e-01 +5.7024930669958640e-03
5.6999999999999877e+00 +8.5971035130165241e+00 +0.0000000000000000e+00 +5.6999999059863233e+00 -3.1356054302815163e-02 -5.7844706875744800e-01 +5.7008844883268779e-03
5.7499999999999876e+00 +8.5970877087977495e+00 +0.0000000000000000e+00 +5.7499999034885736e+00 -3.1358155791794948e-02 -5.7848014816443583e-01 +5.6992939443812462e-03
5.7999999999999874e+00 +8.5970717662619016e+00 +0.0000000000000000e+00 +5.7999999009469132e+00 -3.1360275434937170e-02 -5.7851347757436800e-01 +5.6977215580282662e-03
5.8499999999999872e+00 +8.5970556854010134e+00 +0.0000000000000000e+00 +5.8499998983609567e+00 -3.1362413008892170e-02 -5.7854705421476782e-01 +5.6961674521388778e-03
5.8999999999999870e+00 +8.5970394662070539e+00 +0.0000000000000000e+00 +5.8999998957303186e+00 -3.1364568290308391e-02 -5.7858087531315194e-01 +5.6946317495856630e-03
