# multipoles
# s[mm] polynom_b[n=0][T/m^n] polynom_b[n=1][T/m^n] polynom_b[n=2][T/m^n] polynom_b[n=3][T/m^n] polynom_b[n=4][T/m^n] polynom_b[n=5][T/m^n] polynom_b[n=6][T/m^n] 
+0.0000000000000000e+00 -5.7925843439865898e-01 +7.5749901012249010e+00 +7.2003154276626811e+00 -1.4189149896888006e+02 -2.2688405837642731e+04 +6.2130975925289735e+05 +1.4959948485786602e+08 
-5.0000000000000003e-02 -5.7925930784216317e-01 +7.5750169990137994e+00 +7.2037663754898666e+00 -1.4215799079718187e+02 -2.2782602517381903e+04 +6.2453433779409702e+05 +1.5007038560040545e+08 
-1.0000000000000001e-01 -5.7926058214479148e-01 +7.5750655964457350e+00 +7.2061824701196997e+00 -1.4242354102026317e+02 -2.2864001688783090e+04 +6.2781939026975166e+05 +1.5046506252791226e+08 
-1.5000000000000002e-01 -5.7926225643622264e-01 +7.5751358156947504e+00 +7.2075821101818942e+00 -1.4268691114978677e+02 -2.2933034135963626e+04 +6.3115313905115204e+05 +1.5078628257253629e+08 
-2.0000000000000001e-01 -5.7926432984615417e-01 +7.5752275789436103e+00 +7.2079836942390019e+00 -1.4294686304370418e+02 -2.2990130637585247e+04 +6.3452380941996642e+05 +1.5103681261074939e+08 
-2.5000000000000000e-01 -5.7926680150429855e-01 +7.5753408083698748e+00 +7.2074056202477017e+00 -1.4320215830554343e+02 -2.3035721959237988e+04 +6.3791962452251231e+05 +1.5121941944307104e+08 
-2.9999999999999999e-01 -5.7926967054038259e-01 +7.5754754261547195e+00 +7.2058662854734195e+00 -1.4345155865905576e+02 -2.3070238848626715e+04 +6.4132880848097592e+05 +1.5133686975152332e+08 
-3.4999999999999998e-01 -5.7927293608416319e-01 +7.5756313544807288e+00 +7.2033840891429399e+00 -1.4369382586128023e+02 -2.3094112104589316e+04 +6.4473958570980583e+05 +1.5139193055353567e+08 
-3.9999999999999997e-01 -5.7927659726539515e-01 +7.5758085155323585e+00 +7.1999774269990597e+00 -1.4392772171273839e+02 -2.3107772432860191e+04 +6.4814018095862039e+05 +1.5138736823888719e+08 
-4.4999999999999996e-01 -5.7928065321387834e-01 +7.5760068314947473e+00 +7.1956646993422915e+00 -1.4415200801098047e+02 -2.3111650663771128e+04 +6.5151881892866117e+05 +1.5132595004859716e+08 
-4.9999999999999994e-01 -5.7928510305940506e-01 +7.5762262245522018e+00 +7.1904643020036234e+00 -1.4436544649493214e+02 -2.3106177505511849e+04 +6.5486372385659104e+05 +1.5121044238691702e+08 
-5.4999999999999993e-01 -5.7928994593180916e-01 +7.5764666168934944e+00 +7.1843946352051020e+00 -1.4456679904607850e+02 -2.3091783789924808e+04 +6.5816312109046045e+05 +1.5104361251701659e+08 
-5.9999999999999998e-01 -5.7929518096091670e-01 +7.5767279307069559e+00 +7.1774740942205923e+00 -1.4475482750746980e+02 -2.3068900209780935e+04 +6.6140523568488087e+05 +1.5082822673821545e+08 
-6.5000000000000002e-01 -5.7930080727659983e-01 +7.5770100881805647e+00 +7.1697210791756900e+00 -1.4492829367673943e+02 -2.3037957590669506e+04 +6.6457829230631643e+05 +1.5056705225708541e+08 
-7.0000000000000007e-01 -5.7930682400871325e-01 +7.5773130115062877e+00 +7.1611539844795757e+00 -1.4508595948289121e+02 -2.2999386608444376e+04 +6.6767051667355304e+05 +1.5026285528353235e+08 
-7.5000000000000011e-01 -5.7931323028715864e-01 +7.5776366228742189e+00 +7.1517912092783940e+00 -1.4522658675292763e+02 -2.2953618063239443e+04 +6.7067013366174814e+05 +1.4991840285667869e+08 
-8.0000000000000016e-01 -5.7932002524185278e-01 +7.5779808444781569e+00 +7.1416511523749113e+00 -1.4534893742207657e+02 -2.2901082749297817e+04 +6.7356536897224165e+05 +1.4953646198849866e+08 
-8.5000000000000020e-01 -5.7932720800270232e-01 +7.5783455985095154e+00 +7.1307522078565313e+00 -1.4545177330936338e+02 -2.2842211333650837e+04 +6.7634444737100822e+05 +1.4911979883229399e+08 
-9.0000000000000024e-01 -5.7933477769965591e-01 +7.5787308071645594e+00 +7.1191127739497722e+00 -1.4553385640953690e+02 -2.2777434595559243e+04 +6.7899559507815633e+05 +1.4867118030220404e+08 
-9.5000000000000029e-01 -5.7934273346268683e-01 +7.5791363926364932e+00 +7.1067512497126160e+00 -1.4559394853984310e+02 -2.2707183335473179e+04 +6.8150703674463520e+05 +1.4819337345739770e+08 
-1.0000000000000002e+00 -5.7935107442174938e-01 +7.5795622771204565e+00 +7.0936860283374097e+00 -1.4563081158809410e+02 -2.2631888197010383e+04 +6.8386699765799171e+05 +1.4768914429739389e+08 
-1.0500000000000003e+00 -5.7935979970685159e-01 +7.5800083828161799e+00 +7.0799355093290650e+00 -1.4564320758370300e+02 -2.2551979999275503e+04 +6.8606370418778993e+05 +1.4716126003571010e+08 
-1.1000000000000003e+00 -5.7936890844799460e-01 +7.5804746319167098e+00 +7.0655180877805712e+00 -1.4562989826213021e+02 -2.2467889437954487e+04 +6.8808538030088355e+05 +1.4661248703367031e+08 
-1.1500000000000004e+00 -5.7937839977520467e-01 +7.5809609466232395e+00 +7.0504521603639088e+00 -1.4558964565892532e+02 -2.2380047254853969e+04 +6.8992025238497544e+05 +1.4604559198072848e+08 
-1.2000000000000004e+00 -5.7938827281853156e-01 +7.5814672491340103e+00 +7.0347561246428354e+00 -1.4552121166219268e+02 -2.2288884217565683e+04 +6.9155654560759163e+05 +1.4546334175392652e+08 
-1.2500000000000004e+00 -5.7939852670801495e-01 +7.5819934616484188e+00 +7.0184483734637135e+00 -1.4542335816726947e+02 -2.2194830963488581e+04 +6.9298248512748932e+05 +1.4486850233669522e+08 
-1.3000000000000005e+00 -5.7940916057373848e-01 +7.5825395063641032e+00 +7.0015473042797955e+00 -1.4529484697955311e+02 -2.2098318257798874e+04 +6.9418629538383614e+05 +1.4426384059801111e+08 
-1.3500000000000005e+00 -5.7942017354579711e-01 +7.5831053054851205e+00 +6.9840713138842636e+00 -1.4513444011982799e+02 -2.1999776848818841e+04 +6.9515620248098380e+05 +1.4365212329550350e+08 
-1.4000000000000006e+00 -5.7943156475427615e-01 +7.5836907812100058e+00 +6.9660387943288011e+00 -1.4494089937138554e+02 -2.1899637360028395e+04 +6.9588043062822241e+05 +1.4303611636241150e+08 
-1.4500000000000006e+00 -5.7944333332930775e-01 +7.5842958557409759e+00 +6.9474681425837908e+00 -1.4471298662381366e+02 -2.1798330544763241e+04 +6.9634720480640233e+05 +1.4241858660293779e+08 
-1.5000000000000007e+00 -5.7945547840103950e-01 +7.5849204512791424e+00 +6.9283777558198976e+00 -1.4444946369902928e+02 -2.1696287164225854e+04 +6.9654474943961063e+05 +1.4180230088450706e+08 
-1.5500000000000007e+00 -5.7946799909960678e-01 +7.5855644900302250e+00 +6.9087860259142513e+00 -1.4414909256858201e+02 -2.1593937839987902e+04 +6.9646129011994274e+05 +1.4119002515214255e+08 
-1.6000000000000008e+00 -5.7948089455517882e-01 +7.5862278941936507e+00 +6.8887113479040520e+00 -1.4381063492326001e+02 -2.1491713277662398e+04 +6.9608505011983414e+05 +1.4058452591564587e+08 
-1.6500000000000008e+00 -5.7949416389793995e-01 +7.5869105859761827e+00 +6.8681721163574796e+00 -1.4343285272162100e+02 -2.1390044172693102e+04 +6.9540425486638222e+05 +1.3998856963467106e+08 
-1.7000000000000008e+00 -5.7950780625808285e-01 +7.5876124875768252e+00 +6.8471867245210856e+00 -1.4301450757085382e+02 -2.1289361183722878e+04 +6.9440712684697332e+05 +1.3940492251712728e+08 
-1.7500000000000009e+00 -5.7952182076581982e-01 +7.5883335212041443e+00 +6.8257735663225620e+00 -1.4255436143582392e+02 -2.1190094991715621e+04 +6.9308189143648581e+05 +1.3883635094465232e+08 
-1.8000000000000009e+00 -5.7953620655137361e-01 +7.5890736090603754e+00 +6.8039510345948022e+00 -1.4205117599959479e+02 -2.1092676249140495e+04 +6.9141677169470943e+05 +1.3828562111649343e+08 
-1.8500000000000010e+00 -5.7955096274499340e-01 +7.5898326733487007e+00 +6.7817375240837352e+00 -1.4150371295345371e+02 -2.0997535662165719e+04 +6.8939999068879616e+05 +1.3775549960805258e+08 
-1.9000000000000010e+00 -5.7956608847692281e-01 +7.5906106362754171e+00 +6.7591514253768743e+00 -1.4091073407170822e+02 -2.0905103822290890e+04 +6.8701977208512079e+05 +1.3724875221805876e+08 
-1.9500000000000011e+00 -5.7958158287744865e-01 +7.5914074200457256e+00 +6.7362111340568163e+00 -1.4027100106803482e+02 -2.0815811460278979e+04 +6.8426433906399400e+05 +1.3676814570841014e+08 
-2.0000000000000009e+00 -5.7959744507683775e-01 +7.5922229468616402e+00 +6.7129350393723364e+00 -1.3958327547960391e+02 -2.0730089137197057e+04 +6.8112191325021139e+05 +1.3631644570850042e+08 
-2.0500000000000007e+00 -5.7961367400143560e-01 +7.5930571332897800e+00 +6.6893387833025670e+00 -1.3884692068711854e+02 -2.0648266249828554e+04 +6.7758573767076270e+05 +1.3589572370683911e+08 
-2.1000000000000005e+00 -5.7963026776227389e-01 +7.5939098696332055e+00 +6.6654272655767359e+00 -1.3806378374539753e+02 -2.0570253720548157e+04 +6.7366956404313014e+05 +1.3550515687004113e+08 
-2.1500000000000004e+00 -5.7964722426665072e-01 +7.5947810387324957e+00 +6.6412027654070425e+00 -1.3723635431826335e+02 -2.0495854196173179e+04 +6.6939239216390974e+05 +1.3514316814573219e+08 
-2.2000000000000002e+00 -5.7966454142188917e-01 +7.5956705234285309e+00 +6.6166675638684751e+00 -1.3636712208757336e+02 -2.0424870370958288e+04 +6.6477322203892225e+05 +1.3480818079441184e+08 
-2.2500000000000000e+00 -5.7968221713531476e-01 +7.5965782065615786e+00 +6.5918239405386911e+00 -1.3545857669479491e+02 -2.0357104900336333e+04 +6.5983105333753163e+05 +1.3449861781891826e+08 
-2.2999999999999998e+00 -5.7970024931427810e-01 +7.5975039709728032e+00 +6.5666741766514036e+00 -1.3451320780163547e+02 -2.0292360475717578e+04 +6.5458488587870449e+05 +1.3421290243000498e+08 
-2.3499999999999996e+00 -5.7971863586613537e-01 +7.5984476995036729e+00 +6.5412205533156369e+00 -1.3353350507577676e+02 -2.0230439795519513e+04 +6.4905371956660144e+05 +1.3394945792463848e+08 
-2.3999999999999995e+00 -5.7973737469825171e-01 +7.5994092749951703e+00 +6.5154653498009418e+00 -1.3252195817059001e+02 -2.0171145496862355e+04 +6.4325655425918382e+05 +1.3370670714303124e+08 
-2.4499999999999993e+00 -5.7975646371802669e-01 +7.6003885802890139e+00 +6.4894108503967391e+00 -1.3148105675662586e+02 -2.0114280356286574e+04 +6.3721238995205099e+05 +1.3348307387685287e+08 
-2.4999999999999991e+00 -5.7977590083284092e-01 +7.6013854982301110e+00 +6.4630593336987872e+00 -1.3041329062560294e+02 -2.0059646995107811e+04 +6.3094022765184101e+05 +1.3327698086322685e+08 
-2.5499999999999989e+00 -5.7979568395010717e-01 +7.6023999116557182e+00 +6.4364130817042504e+00 -1.2932114927003633e+02 -2.0007048123164361e+04 +6.2445906600351003e+05 +1.3308685142496526e+08 
-2.5999999999999988e+00 -5.7981581097724066e-01 +7.6034317034119736e+00 +6.4094743754394514e+00 -1.2820712252292850e+02 -1.9956286423105510e+04 +6.1778790640685416e+05 +1.3291110869060104e+08 
-2.6499999999999986e+00 -5.7983627982168717e-01 +7.6044807563411050e+00 +6.3822454989436714e+00 -1.2707370008359129e+02 -1.9907164657507961e+04 +6.1094574931614846e+05 +1.3274817632541388e+08 
-2.6999999999999984e+00 -5.7985708839088024e-01 +7.6055469532843869e+00 +6.3547287325980770e+00 -1.2592337158387281e+02 -1.9859485488380062e+04 +6.0395159454364586e+05 +1.3259647730404451e+08 
-2.7499999999999982e+00 -5.7987823459227417e-01 +7.6066301770842797e+00 +6.3269263586267508e+00 -1.2475862672997390e+02 -1.9813051628301029e+04 +5.9682444267640356e+05 +1.3245443494383188e+08 
-2.7999999999999980e+00 -5.7989971633333437e-01 +7.6077303105869243e+00 +6.2988406587126642e+00 -1.2358195536554032e+02 -1.9767665762415683e+04 +5.8958329539760319e+05 +1.3232047232295500e+08 
-2.8499999999999979e+00 -5.7992153152156112e-01 +7.6088472366342028e+00 +6.2704739200561219e+00 -1.2239584716839090e+02 -1.9723130737468928e+04 +5.8224715310339490e+05 +1.3219301366004287e+08 
-2.8999999999999977e+00 -5.7994367806441971e-01 +7.6099808380680765e+00 +6.2418284212026647e+00 -1.2120279183329069e+02 -1.9679249154534042e+04 +5.7483501642359025e+05 +1.3207048146215735e+08 
-2.9499999999999975e+00 -5.7996615386942463e-01 +7.6111309977335937e+00 +6.2129064480031317e+00 -1.2000527917320362e+02 -1.9635823811740876e+04 +5.6736588694899064e+05 +1.3195129956330472e+08 
-2.9999999999999973e+00 -5.7998895684408891e-01 +7.6122975984723498e+00 +6.1837102846282859e+00 -1.1880579888060127e+02 -1.9592657462640324e+04 +5.5985876540545328e+05 +1.3183389149785733e+08 
-3.0499999999999972e+00 -5.8001208489593559e-01 +7.6134805231292839e+00 +6.1542422148296216e+00 -1.1760684078727053e+02 -1.9549552839983080e+04 +5.5233265369274002e+05 +1.3171668061771883e+08 
-3.0999999999999970e+00 -5.8003553593248691e-01 +7.6146796545487696e+00 +6.1245045215232574e+00 -1.1641089470769711e+02 -1.9506312660401181e+04 +5.4480655362347502e+05 +1.3159809018630590e+08 
-3.1499999999999968e+00 -5.8005930786130855e-01 +7.6158948755718097e+00 +6.0944994928989864e+00 -1.1522045033696166e+02 -1.9462739769288448e+04 +5.3729946612173389e+05 +1.3147654428154881e+08 
-3.1999999999999966e+00 -5.8008339858993530e-01 +7.6171260690450833e+00 +6.0642294111188537e+00 -1.1403799761037990e+02 -1.9418636857621354e+04 +5.2983039415024326e+05 +1.3135046596491572e+08 
-3.2499999999999964e+00 -5.8010780602595124e-01 +7.6183731178091980e+00 +6.0336965649283041e+00 -1.1286602623077560e+02 -1.9373806783220338e+04 +5.2241833883827756e+05 +1.3121827937861179e+08 
-3.2999999999999963e+00 -5.8013252807692839e-01 +7.6196359047082813e+00 +6.0029032402027163e+00 -1.1170702605635577e+02 -1.9328052327639642e+04 +5.1508230266019230e+05 +1.3107840814940827e+08 
-3.3499999999999961e+00 -5.8015756265043550e-01 +7.6209143125873489e+00 +5.9718517201834747e+00 -1.1056348699466149e+02 -1.9281176194370826e+04 +5.0784128856204578e+05 +1.3092927534517759e+08 
-3.3999999999999959e+00 -5.8018290765408509e-01 +7.6222082242904499e+00 +5.9405442951509677e+00 -1.0943789893579941e+02 -1.9232981276340979e+04 +5.0071429945738771e+05 +1.3076930530530301e+08 
-3.4499999999999957e+00 -5.8020856099548634e-01 +7.6235175226578793e+00 +5.9089832534653759e+00 -1.0833275162933833e+02 -1.9183270411934929e+04 +4.9372033716492425e+05 +1.3059692198564509e+08 
-3.4999999999999956e+00 -5.8023452058223413e-01 +7.6248420905348988e+00 +5.8771708795022342e+00 -1.0725053504984054e+02 -1.9131846326754960e+04 +4.8687840545484622e+05 +1.3041054855345392e+08 
-3.5499999999999954e+00 -5.8026078432197647e-01 +7.6261818107650052e+00 +5.8451094660338567e+00 -1.0619373911814048e+02 -1.9078511968656167e+04 +4.8020750773826760e+05 +1.3020860965586817e+08 
-3.5999999999999952e+00 -5.8028735012233412e-01 +7.6275365661902352e+00 +5.8128012998537812e+00 -1.0516485371547189e+02 -1.9023070123065871e+04 +4.7372664718874963e+05 +1.2998952883137739e+08 
-3.6499999999999950e+00 -5.8031421589094789e-01 +7.6289062396539711e+00 +5.7802486702585822e+00 -1.0416636880361661e+02 -1.8965323637322417e+04 +4.6745482774879719e+05 +1.2975173000932011e+08 
-3.6999999999999948e+00 -5.8034137953547238e-01 +7.6302907139980078e+00 +5.7474538678690674e+00 -1.0320077429369570e+02 -1.8905075390277234e+04 +4.6141105301132065e+05 +1.2949363730812305e+08 
-3.7499999999999947e+00 -5.8036883896358005e-01 +7.6316898720662705e+00 +5.7144191855507511e+00 -1.0227056023071040e+02 -1.8842128318860807e+04 +4.5561432786032406e+05 +1.2921367522369254e+08 
-3.7999999999999945e+00 -5.8039659208292627e-01 +7.6331035967006988e+00 +5.6811469121722444e+00 -1.0137821657187152e+02 -1.8776285248492146e+04 +4.5008365642378043e+05 +1.2891026747773103e+08 
-3.8499999999999943e+00 -5.8042463680119993e-01 +7.6345317707440001e+00 +5.6476393415364621e+00 -1.0052623335871490e+02 -1.8707349130779141e+04 +4.4483804374010948e+05 +1.2858183860888606e+08 
-3.8999999999999941e+00 -5.8045297102607651e-01 +7.6359742770369898e+00 +5.6138987642192104e+00 -9.9717100564009925e+01 -1.8635122827836447e+04 +4.3989649431788153e+05 +1.2822681253537574e+08 
-3.9499999999999940e+00 -5.8048159266525445e-01 +7.6374309984223894e+00 +5.5799274741989073e+00 -9.8953308291367023e+01 -1.8559409290462219e+04 +4.3527801393568848e+05 +1.2784361375555302e+08 
-3.9999999999999938e+00 -5.8051049962644341e-01 +7.6389018177403027e+00 +5.5457277664466176e+00 -9.8237346535200999e+01 -1.8480011488150463e+04 +4.3100160752153781e+05 +1.2743066685779427e+08 
-4.0499999999999936e+00 -5.8053968964434166e-01 +7.6403866019091682e+00 +5.5113028016232901e+00 -9.7571197394687530e+01 -1.8396791042729848e+04 +4.2708255337379908e+05 +1.2698684531357758e+08 
-4.0999999999999934e+00 -5.8056915976101109e-01 +7.6418851426375554e+00 +5.4766600090791560e+00 -9.6954662402312522e+01 -1.8309868765023119e+04 +4.2352028068978735e+05 +1.2651299851012418e+08 
-4.1499999999999932e+00 -5.8059890684519266e-01 +7.6433972098962393e+00 +5.4418081228460995e+00 -9.6386958886437313e+01 -1.8219436863202336e+04 +4.2031000305383775e+05 +1.2601051782535525e+08 
-4.1999999999999931e+00 -5.8062892776562669e-01 +7.6449225736534743e+00 +5.4067558769805260e+00 -9.5867304083592899e+01 -1.8125687548412694e+04 +4.1744693326034705e+05 +1.2548079467158538e+08 
-4.2499999999999929e+00 -5.8065921939108289e-01 +7.6464610038806722e+00 +5.3715120100059428e+00 -9.5394915351613690e+01 -1.8028813148024230e+04 +4.1492628505929490e+05 +1.2492522122832289e+08 
-4.2999999999999927e+00 -5.8068977859030668e-01 +7.6480122705469284e+00 +5.3360852564716064e+00 -9.4969009958434171e+01 -1.7929005886305204e+04 +4.1274327146451100e+05 +1.2434518899229021e+08 
-4.3499999999999925e+00 -5.8072060223205113e-01 +7.6495761436196377e+00 +5.3004843519515656e+00 -9.4588805089296002e+01 -1.7826458012946197e+04 +4.1089310475567239e+05 +1.2374208962080561e+08 
-4.3999999999999924e+00 -5.8075168718507308e-01 +7.6511523930713183e+00 +5.2647180325961411e+00 -9.4253518140574840e+01 -1.7721361792621057e+04 +4.0937099893232452e+05 +1.2311731486902912e+08 
-4.4499999999999922e+00 -5.8078303031811740e-01 +7.6527407888677654e+00 +5.2287950329227986e+00 -9.3962366229939548e+01 -1.7613909451267198e+04 +4.0817216567681648e+05 +1.2247225624928099e+08 
-4.4999999999999920e+00 -5.8081462849994603e-01 +7.6543411009779314e+00 +5.1927240906809322e+00 -9.3714566595383246e+01 -1.7504293302141130e+04 +4.0729181760598178e+05 +1.2180830586084750e+08 
-4.5499999999999918e+00 -5.8084647859930139e-01 +7.6559530993694320e+00 +5.1565139394734025e+00 -9.3509336434411637e+01 -1.7392705542522210e+04 +4.0672516703992384e+05 +1.2112685500603627e+08 
-4.5999999999999917e+00 -5.8087857748494154e-01 +7.6575765540112455e+00 +5.1201733166084740e+00 -9.3345892965106941e+01 -1.7279338473305401e+04 +4.0646742631011474e+05 +1.2042929569426599e+08 
-4.6499999999999915e+00 -5.8091092202561756e-01 +7.6592112348697219e+00 +5.0837109584486884e+00 -9.3223453330552857e+01 -1.7164384374111276e+04 +4.0651380723893468e+05 +1.1971701980973886e+08 
-4.6999999999999913e+00 -5.8094350909007064e-01 +7.6608569119101766e+00 +5.0471355991136067e+00 -9.3141234605475205e+01 -1.7048035455499568e+04 +4.0685952095087955e+05 +1.1899141873310156e+08 
-4.7499999999999911e+00 -5.8097633554704342e-01 +7.6625133551006988e+00 +5.0104559748950814e+00 -9.3098453980756176e+01 -1.6930484002359524e+04 +4.0749977952400618e+05 +1.1825388440691997e+08 
-4.7999999999999909e+00 -5.8100939826529108e-01 +7.6641803344089015e+00 +4.9736808230653411e+00 -9.3094328622193174e+01 -1.6811922311160008e+04 +4.0842979476058815e+05 +1.1750580879207122e+08 
-4.8499999999999908e+00 -5.8104269411354492e-01 +7.6658576197977224e+00 +4.9368188781291149e+00 -9.3128075513711110e+01 -1.6692542614685204e+04 +4.0964477699558786e+05 +1.1674858346096294e+08 
-4.8999999999999906e+00 -5.8107621996054837e-01 +7.6675449812329814e+00 +4.8998788771643156e+00 -9.3198911733497695e+01 -1.6572537213477015e+04 +4.1113993720074598e+05 +1.1598360043318266e+08 
-4.9499999999999904e+00 -5.8110997267503206e-01 +7.6692421886795445e+00 +4.8628695553141608e+00 -9.3306054329418117e+01 -1.6452098357360788e+04 +4.1291048610724555e+05 +1.1521225139324625e+08 
-4.9999999999999902e+00 -5.8114394912572620e-01 +7.6709490121024020e+00 +4.8257996484985748e+00 -9.3448720353487261e+01 -1.6331418316245250e+04 +4.1495163443464221e+05 +1.1443592815224847e+08 
-5.0499999999999901e+00 -5.8117814618135233e-01 +7.6726652214646753e+00 +4.7886778918575041e+00 -9.3626126772019461e+01 -1.6210689345172073e+04 +4.1725859213401511e+05 +1.1365602244559161e+08 
