# field on trajectory
# s[mm] rx[mm] ry[mm] rz[mm] bx[T] by[T] bz[T]
0.0000000000000000e+00 +8.5389999999999997e+00 +0.0000000000000000e+00 +0.0000000000000000e+00 -2.9933388571685225e-02 -5.5268606333392434e-01 +5.7073552253661059e-03
5.0000000000000003e-02 +8.5389999310387807e+00 +0.0000000000000000e+00 +4.9999999999936581e-02 -2.9932515052522608e-02 -5.5267815071645598e-01 +5.7049147270626264e-03
1.0000000000000001e-01 +8.5389997241564242e+00 +0.0000000000000000e+00 +9.9999999999492717e-02 -2.9931669672566434e-02 -5.5267062595639338e-01 +5.7024692678726476e-03
1.5000000000000002e-01 +8.5389993793548058e+00 +0.0000000000000000e+00 +1.4999999999828798e-01 -2.9930852382426487e-02 -5.5266348908602014e-01 +5.7000191174718384e-03
2.0000000000000001e-01 +8.5389988966357091e+00 +0.0000000000000000e+00 +1.9999999999594195e-01 -2.9930063132713451e-02 -5.5265674013763999e-01 +5.6975645455356041e-03
2.5000000000000000e-01 +8.5389982760008163e+00 +0.0000000000000000e+00 +2.4999999999207423e-01 -2.9929301874038937e-02 -5.5265037914357518e-01 +5.6951058217391158e-03
2.9999999999999999e-01 +8.5389975174517172e+00 +0.0000000000000000e+00 +2.9999999998630439e-01 -2.9928568557015551e-02 -5.5264440613616661e-01 +5.6926432157573259e-03
3.4999999999999998e-01 +8.5389966209899004e+00 +0.0000000000000000e+00 +3.4999999997825210e-01 -2.9927863132256923e-02 -5.5263882114777430e-01 +5.6901769972649979e-03
3.9999999999999997e-01 +8.5389955866167604e+00 +0.0000000000000000e+00 +3.9999999996753699e-01 -2.9927185550377745e-02 -5.5263362421077789e-01 +5.6877074359367279e-03
4.4999999999999996e-01 +8.5389944143335939e+00 +0.0000000000000000e+00 +4.4999999995377865e-01 -2.9926535761993812e-02 -5.5262881535757558e-01 +5.6852348014469686e-03
4.9999999999999994e-01 +8.5389931041415998e+00 +0.0000000000000000e+00 +4.9999999993659677e-01 -2.9925913717722064e-02 -5.5262439462058444e-01 +5.6827593634700422e-03
5.4999999999999993e-01 +8.5389916560418833e+00 +0.0000000000000000e+00 +5.4999999991561099e-01 -2.9925319368180592e-02 -5.5262036203224019e-01 +5.6802813916801828e-03
5.9999999999999998e-01 +8.5389900700354495e+00 +0.0000000000000000e+00 +5.9999999989044095e-01 -2.9924752663988741e-02 -5.5261671762499820e-01 +5.6778011557515407e-03
6.5000000000000002e-01 +8.5389883461232081e+00 +0.0000000000000000e+00 +6.4999999986070633e-01 -2.9924213555767108e-02 -5.5261346143133216e-01 +5.6753189253582201e-03
7.0000000000000007e-01 +8.5389864843059726e+00 +0.0000000000000000e+00 +6.9999999982602690e-01 -2.9923701994137589e-02 -5.5261059348373520e-01 +5.6728349701742897e-03
7.5000000000000011e-01 +8.5389844845844571e+00 +0.0000000000000000e+00 +7.4999999978602216e-01 -2.9923217929723411e-02 -5.5260811381471875e-01 +5.6703495598738121e-03
8.0000000000000016e-01 +8.5389823469592816e+00 +0.0000000000000000e+00 +7.9999999974031188e-01 -2.9922761313149155e-02 -5.5260602245681367e-01 +5.6678629641308724e-03
8.5000000000000020e-01 +8.5389800714309683e+00 +0.0000000000000000e+00 +8.4999999968851569e-01 -2.9922332095040877e-02 -5.5260431944256916e-01 +5.6653754526195896e-03
9.0000000000000024e-01 +8.5389776579999417e+00 +0.0000000000000000e+00 +8.9999999963025334e-01 -2.9921930226026048e-02 -5.5260300480455382e-01 +5.6628872950141461e-03
9.5000000000000029e-01 +8.5389751066665305e+00 +0.0000000000000000e+00 +9.4999999956514447e-01 -2.9921555656733653e-02 -5.5260207857535515e-01 +5.6603987609888141e-03
1.0000000000000002e+00 +8.5389724174309638e+00 +0.0000000000000000e+00 +9.9999999949280871e-01 -2.9921208337794190e-02 -5.5260154078757862e-01 +5.6579101202179705e-03
1.0500000000000003e+00 +8.5389695902933784e+00 +0.0000000000000000e+00 +1.0499999994128657e+00 -2.9920888219839757e-02 -5.5260139147384946e-01 +5.6554216423761235e-03
1.1000000000000003e+00 +8.5389666252538099e+00 +0.0000000000000000e+00 +1.0999999993249352e+00 -2.9920595253504049e-02 -5.5260163066681156e-01 +5.6529335971379395e-03
1.1500000000000004e+00 +8.5389635223121996e+00 +0.0000000000000000e+00 +1.1499999992286369e+00 -2.9920329389422427e-02 -5.5260225839912680e-01 +5.6504462541782634e-03
1.2000000000000004e+00 +8.5389602814683894e+00 +0.0000000000000000e+00 +1.1999999991235903e+00 -2.9920090578231931e-02 -5.5260327470347748e-01 +5.6479598831721380e-03
1.2500000000000004e+00 +8.5389569027221270e+00 +0.0000000000000000e+00 +1.2499999990094153e+00 -2.9919878770571361e-02 -5.5260467961256299e-01 +5.6454747537948375e-03
1.3000000000000005e+00 +8.5389533860730609e+00 +0.0000000000000000e+00 +1.2999999988857311e+00 -2.9919693917081252e-02 -5.5260647315910227e-01 +5.6429911357218721e-03
1.3500000000000005e+00 +8.5389497315207450e+00 +0.0000000000000000e+00 +1.3499999987521578e+00 -2.9919535968403983e-02 -5.5260865537583348e-01 +5.6405092986290305e-03
1.4000000000000006e+00 +8.5389459390646341e+00 +0.0000000000000000e+00 +1.3999999986083147e+00 -2.9919404875183762e-02 -5.5261122629551274e-01 +5.6380295121923980e-03
1.4500000000000006e+00 +8.5389420087040868e+00 +0.0000000000000000e+00 +1.4499999984538214e+00 -2.9919300588066709e-02 -5.5261418595091527e-01 +5.6355520460883660e-03
1.5000000000000007e+00 +8.5389379404383643e+00 +0.0000000000000000e+00 +1.4999999982882977e+00 -2.9919223057700839e-02 -5.5261753437483507e-01 +5.6330771699936739e-03
1.5500000000000007e+00 +8.5389337342666298e+00 +0.0000000000000000e+00 +1.5499999981113630e+00 -2.9919172234736179e-02 -5.5262127160008467e-01 +5.6306051535854251e-03
1.6000000000000008e+00 +8.5389293901879526e+00 +0.0000000000000000e+00 +1.5999999979226369e+00 -2.9919148069824750e-02 -5.5262539765949559e-01 +5.6281362665411032e-03
1.6500000000000008e+00 +8.5389249082013023e+00 +0.0000000000000000e+00 +1.6499999977217390e+00 -2.9919150513620603e-02 -5.5262991258591743e-01 +5.6256707785386035e-03
1.7000000000000008e+00 +8.5389202883055528e+00 +0.0000000000000000e+00 +1.6999999975082889e+00 -2.9919179516779897e-02 -5.5263481641221968e-01 +5.6232089592562554e-03
1.7500000000000009e+00 +8.5389155304994784e+00 +0.0000000000000000e+00 +1.7499999972819058e+00 -2.9919235029960915e-02 -5.5264010917128936e-01 +5.6207510783728397e-03
1.8000000000000009e+00 +8.5389106347817609e+00 +0.0000000000000000e+00 +1.7999999970422094e+00 -2.9919317003824105e-02 -5.5264579089603261e-01 +5.6182974055676189e-03
1.8500000000000010e+00 +8.5389056011509812e+00 +0.0000000000000000e+00 +1.8499999967888192e+00 -2.9919425389032105e-02 -5.5265186161937407e-01 +5.6158482105203543e-03
1.9000000000000010e+00 +8.5389004296056239e+00 +0.0000000000000000e+00 +1.8999999965213545e+00 -2.9919560136249839e-02 -5.5265832137425752e-01 +5.6134037629113334e-03
1.9500000000000011e+00 +8.5388951201440779e+00 +0.0000000000000000e+00 +1.9499999962394348e+00 -2.9919721196144472e-02 -5.5266517019364458e-01 +5.6109643324213938e-03
2.0000000000000009e+00 +8.5388896727646344e+00 +0.0000000000000000e+00 +1.9999999959426795e+00 -2.9919908519385540e-02 -5.5267240811051677e-01 +5.6085301887319377e-03
2.0500000000000007e+00 +8.5388840874654868e+00 +0.0000000000000000e+00 +2.0499999956307078e+00 -2.9920122063802342e-02 -5.5268003490064099e-01 +5.6061015892130313e-03
2.1000000000000005e+00 +8.5388783642447308e+00 +0.0000000000000000e+00 +2.0999999953031394e+00 -2.9920361815855834e-02 -5.5268804931087556e-01 +5.6036787419876336e-03
2.1500000000000004e+00 +8.5388725031003680e+00 +0.0000000000000000e+00 +2.1499999949595936e+00 -2.9920627769165379e-02 -5.5269644983086219e-01 +5.6012618428675246e-03
2.2000000000000002e+00 +8.5388665040303007e+00 +0.0000000000000000e+00 +2.1999999945996893e+00 -2.9920919917351119e-02 -5.5270523495025625e-01 +5.5988510876652789e-03
2.2500000000000000e+00 +8.5388603670323384e+00 +0.0000000000000000e+00 +2.2499999942230460e+00 -2.9921238254033904e-02 -5.5271440315872844e-01 +5.5964466721943051e-03
2.2999999999999998e+00 +8.5388540921041916e+00 +0.0000000000000000e+00 +2.2999999938292830e+00 -2.9921582772835267e-02 -5.5272395294596255e-01 +5.5940487922688650e-03
2.3499999999999996e+00 +8.5388476792434780e+00 +0.0000000000000000e+00 +2.3499999934180194e+00 -2.9921953467377332e-02 -5.5273388280165647e-01 +5.5916576437041177e-03
2.3999999999999995e+00 +8.5388411284477197e+00 +0.0000000000000000e+00 +2.3999999929888745e+00 -2.9922350331282800e-02 -5.5274419121552176e-01 +5.5892734223161340e-03
2.4499999999999993e+00 +8.5388344397143445e+00 +0.0000000000000000e+00 +2.4499999925414673e+00 -2.9922773358174868e-02 -5.5275487667728285e-01 +5.5868963239219457e-03
2.4999999999999991e+00 +8.5388276130406862e+00 +0.0000000000000000e+00 +2.4999999920754168e+00 -2.9923222541677150e-02 -5.5276593767667770e-01 +5.5845265443395641e-03
2.5499999999999989e+00 +8.5388206484239841e+00 +0.0000000000000000e+00 +2.5499999915903420e+00 -2.9923697875413692e-02 -5.5277737270345662e-01 +5.5821642793880124e-03
2.5999999999999988e+00 +8.5388135458613839e+00 +0.0000000000000000e+00 +2.5999999910858622e+00 -2.9924199353008857e-02 -5.5278918024738299e-01 +5.5798097248873583e-03
2.6499999999999986e+00 +8.5388063053499401e+00 +0.0000000000000000e+00 +2.6499999905615965e+00 -2.9924726968087269e-02 -5.5280135879823178e-01 +5.5774630766587388e-03
2.6999999999999984e+00 +8.5387989268866136e+00 +0.0000000000000000e+00 +2.6999999900171634e+00 -2.9925280714273798e-02 -5.5281390684579068e-01 +5.5751245305244021e-03
2.7499999999999982e+00 +8.5387914104682725e+00 +0.0000000000000000e+00 +2.7499999894521823e+00 -2.9925860585193476e-02 -5.5282682287985907e-01 +5.5727942823077300e-03
2.7999999999999980e+00 +8.5387837560916946e+00 +0.0000000000000000e+00 +2.7999999888662717e+00 -2.9926466574471431e-02 -5.5284010539024742e-01 +5.5704725278332666e-03
2.8499999999999979e+00 +8.5387759637535652e+00 +0.0000000000000000e+00 +2.8499999882590505e+00 -2.9927098675732892e-02 -5.5285375286677851e-01 +5.5681594629267590e-03
2.8999999999999977e+00 +8.5387680334504772e+00 +0.0000000000000000e+00 +2.8999999876301374e+00 -2.9927756882603046e-02 -5.5286776379928537e-01 +5.5658552834151748e-03
2.9499999999999975e+00 +8.5387599651789365e+00 +0.0000000000000000e+00 +2.9499999869791513e+00 -2.9928441188707033e-02 -5.5288213667761177e-01 +5.5635601851267433e-03
2.9999999999999973e+00 +8.5387517589353550e+00 +0.0000000000000000e+00 +2.9999999863057112e+00 -2.9929151587669910e-02 -5.5289686999161347e-01 +5.5612743638909830e-03
3.0499999999999972e+00 +8.5387434147160555e+00 +0.0000000000000000e+00 +3.0499999856094355e+00 -2.9929888073116549e-02 -5.5291196223115491e-01 +5.5589980155387282e-03
3.0999999999999970e+00 +8.5387349325172721e+00 +0.0000000000000000e+00 +3.0999999848899429e+00 -2.9930650638671587e-02 -5.5292741188611183e-01 +5.5567313359021634e-03
3.1499999999999968e+00 +8.5387263123351502e+00 +0.0000000000000000e+00 +3.1499999841468518e+00 -2.9931439277959444e-02 -5.5294321744636943e-01 +5.5544745208148593e-03
3.1999999999999966e+00 +8.5387175541657463e+00 +0.0000000000000000e+00 +3.1999999833797808e+00 -2.9932253984604130e-02 -5.5295937740182255e-01 +5.5522277661117884e-03
3.2499999999999964e+00 +8.5387086580050262e+00 +0.0000000000000000e+00 +3.2499999825883483e+00 -2.9933094752229321e-02 -5.5297589024237548e-01 +5.5499912676293664e-03
3.2999999999999963e+00 +8.5386996238488706e+00 +0.0000000000000000e+00 +3.2999999817721726e+00 -2.9933961574458247e-02 -5.5299275445794205e-01 +5.5477652212054919e-03
3.3499999999999961e+00 +8.5386904516930695e+00 +0.0000000000000000e+00 +3.3499999809308725e+00 -2.9934854444913641e-02 -5.5300996853844453e-01 +5.5455498226795567e-03
3.3999999999999959e+00 +8.5386811415333295e+00 +0.0000000000000000e+00 +3.3999999800640657e+00 -2.9935773357217674e-02 -5.5302753097381396e-01 +5.5433452678924867e-03
3.4499999999999957e+00 +8.5386716933652664e+00 +0.0000000000000000e+00 +3.4499999791713711e+00 -2.9936718304991901e-02 -5.5304544025399027e-01 +5.5411517526867743e-03
3.4999999999999956e+00 +8.5386621071844111e+00 +0.0000000000000000e+00 +3.4999999782524065e+00 -2.9937689281857235e-02 -5.5306369486892160e-01 +5.5389694729065051e-03
3.5499999999999954e+00 +8.5386523829862089e+00 +0.0000000000000000e+00 +3.5499999773067903e+00 -2.9938686281433875e-02 -5.5308229330856307e-01 +5.5367986243973939e-03
3.5999999999999952e+00 +8.5386425207660182e+00 +0.0000000000000000e+00 +3.5999999763341406e+00 -2.9939709297341216e-02 -5.5310123406287870e-01 +5.5346394030068085e-03
3.6499999999999950e+00 +8.5386325205191120e+00 +0.0000000000000000e+00 +3.6499999753340755e+00 -2.9940758323197845e-02 -5.5312051562183939e-01 +5.5324920045838003e-03
3.6999999999999948e+00 +8.5386223822406784e+00 +0.0000000000000000e+00 +3.6999999743062126e+00 -2.9941833352621468e-02 -5.5314013647542359e-01 +5.5303566249791511e-03
3.7499999999999947e+00 +8.5386121059258215e+00 +0.0000000000000000e+00 +3.7499999732501701e+00 -2.9942934379228844e-02 -5.5316009511361663e-01 +5.5282334600453738e-03
3.7999999999999945e+00 +8.5386016915695606e+00 +0.0000000000000000e+00 +3.7999999721655660e+00 -2.9944061396635736e-02 -5.5318039002641106e-01 +5.5261227056367752e-03
3.8499999999999943e+00 +8.5385911391668330e+00 +0.0000000000000000e+00 +3.8499999710520179e+00 -2.9945214398456849e-02 -5.5320101970380486e-01 +5.5240245576094601e-03
3.8999999999999941e+00 +8.5385804487124890e+00 +0.0000000000000000e+00 +3.8999999699091439e+00 -2.9946393378305802e-02 -5.5322198263580336e-01 +5.5219392118213825e-03
3.9499999999999940e+00 +8.5385696202012973e+00 +0.0000000000000000e+00 +3.9499999687365612e+00 -2.9947598329795044e-02 -5.5324327731241785e-01 +5.5198668641323629e-03
3.9999999999999938e+00 +8.5385586536279448e+00 +0.0000000000000000e+00 +3.9999999675338880e+00 -2.9948829246535795e-02 -5.5326490222366465e-01 +5.5178077104041231e-03
4.0499999999999936e+00 +8.5385475489870348e+00 +0.0000000000000000e+00 +4.0499999663007413e+00 -2.9950086081067955e-02 -5.5328685571185310e-01 +5.5157619317214909e-03
4.0999999999999934e+00 +8.5385363062730875e+00 +0.0000000000000000e+00 +4.0999999650367389e+00 -2.9951368621650140e-02 -5.5330913552844463e-01 +5.5137296500555148e-03
4.1499999999999932e+00 +8.5385249254805444e+00 +0.0000000000000000e+00 +4.1499999637414984e+00 -2.9952676615470967e-02 -5.5333173927719514e-01 +5.5117109725994328e-03
4.1999999999999931e+00 +8.5385134066037658e+00 +0.0000000000000000e+00 +4.1999999624146369e+00 -2.9954009809719517e-02 -5.5335466456186855e-01 +5.5097060065474992e-03
4.2499999999999929e+00 +8.5385017496370299e+00 +0.0000000000000000e+00 +4.2499999610557726e+00 -2.9955367951585241e-02 -5.5337790898623673e-01 +5.5077148590949631e-03
4.2999999999999927e+00 +8.5384899545745352e+00 +0.0000000000000000e+00 +4.2999999596645218e+00 -2.9956750788258019e-02 -5.5340147015407937e-01 +5.5057376374380920e-03
4.3499999999999925e+00 +8.5384780214104037e+00 +0.0000000000000000e+00 +4.3499999582405016e+00 -2.9958158066928118e-02 -5.5342534566918433e-01 +5.5037744487741527e-03
4.3999999999999924e+00 +8.5384659501386757e+00 +0.0000000000000000e+00 +4.3999999567833292e+00 -2.9959589534786214e-02 -5.5344953313534728e-01 +5.5018254003014232e-03
4.4499999999999922e+00 +8.5384537407533170e+00 +0.0000000000000000e+00 +4.4499999552926228e+00 -2.9961044939023410e-02 -5.5347403015637076e-01 +5.4998905992191911e-03
4.4999999999999920e+00 +8.5384413932482133e+00 +0.0000000000000000e+00 +4.4999999537679978e+00 -2.9962524026831180e-02 -5.5349883433606517e-01 +5.4979701527277536e-03
4.5499999999999918e+00 +8.5384289076171758e+00 +0.0000000000000000e+00 +4.5499999522090722e+00 -2.9964026545401392e-02 -5.5352394327824805e-01 +5.4960641680284117e-03
4.5999999999999917e+00 +8.5384162838539392e+00 +0.0000000000000000e+00 +4.5999999506154623e+00 -2.9965552241926346e-02 -5.5354935458674337e-01 +5.4941727523234868e-03
4.6499999999999915e+00 +8.5384035219521603e+00 +0.0000000000000000e+00 +4.6499999489867854e+00 -2.9967100863598720e-02 -5.5357506586538341e-01 +5.4922960128163103e-03
4.6999999999999913e+00 +8.5383906219054246e+00 +0.0000000000000000e+00 +4.6999999473226577e+00 -2.9968672157611606e-02 -5.5360107471800613e-01 +5.4904340567112232e-03
4.7499999999999911e+00 +8.5383775837072413e+00 +0.0000000000000000e+00 +4.7499999456226956e+00 -2.9970265871158475e-02 -5.5362737874845591e-01 +5.4885869912135749e-03
4.7999999999999909e+00 +8.5383644073510467e+00 +0.0000000000000000e+00 +4.7999999438865162e+00 -2.9971881751433182e-02 -5.5365397556058471e-01 +5.4867549235297405e-03
4.8499999999999908e+00 +8.5383510928302027e+00 +0.0000000000000000e+00 +4.8499999421137359e+00 -2.9973519545630021e-02 -5.5368086275825013e-01 +5.4849379608671051e-03
4.8999999999999906e+00 +8.5383376401379998e+00 +0.0000000000000000e+00 +4.8999999403039709e+00 -2.9975179000943642e-02 -5.5370803794531620e-01 +5.4831362104340638e-03
4.9499999999999904e+00 +8.5383240492676578e+00 +0.0000000000000000e+00 +4.9499999384568376e+00 -2.9976859864569081e-02 -5.5373549872565286e-01 +5.4813497794400333e-03
4.9999999999999902e+00 +8.5383103202123234e+00 +0.0000000000000000e+00 +4.9999999365719523e+00 -2.9978561883701800e-02 -5.5376324270313615e-01 +5.4795787750954415e-03
5.0499999999999901e+00 +8.5382964529650724e+00 +0.0000000000000000e+00 +5.0499999346489313e+00 -2.9980284805537615e-02 -5.5379126748164798e-01 +5.4778233046117470e-03
5.0999999999999899e+00 +8.5382824475189114e+00 +0.0000000000000000e+00 +5.0999999326873899e+00 -2.9982028377272745e-02 -5.5381957066507548e-01 +5.4760834752014100e-03
5.1499999999999897e+00 +8.5382683038667793e+00 +0.0000000000000000e+00 +5.1499999306869446e+00 -2.9983792346103814e-02 -5.5384814985731146e-01 +5.4743593940779212e-03
5.1999999999999895e+00 +8.5382540220015422e+00 +0.0000000000000000e+00 +5.1999999286472116e+00 -2.9985576459227798e-02 -5.5387700266225459e-01 +5.4726511684557852e-03
5.2499999999999893e+00 +8.5382396019160005e+00 +0.0000000000000000e+00 +5.2499999265678072e+00 -2.9987380463842073e-02 -5.5390612668380812e-01 +5.4709589055505293e-03
5.2999999999999892e+00 +8.5382250436028873e+00 +0.0000000000000000e+00 +5.2999999244483469e+00 -2.9989204107144413e-02 -5.5393551952588060e-01 +5.4692827125787059e-03
5.3499999999999890e+00 +8.5382103470548678e+00 +0.0000000000000000e+00 +5.3499999222884460e+00 -2.9991047136332948e-02 -5.5396517879238560e-01 +5.4676226967578824e-03
5.3999999999999888e+00 +8.5381955122645401e+00 +0.0000000000000000e+00 +5.3999999200877200e+00 -2.9992909298606225e-02 -5.5399510208724134e-01 +5.4659789653066539e-03
5.4499999999999886e+00 +8.5381805392244363e+00 +0.0000000000000000e+00 +5.4499999178457843e+00 -2.9994790341163136e-02 -5.5402528701437048e-01 +5.4643516254446354e-03
5.4999999999999885e+00 +8.5381654279270247e+00 +0.0000000000000000e+00 +5.4999999155622552e+00 -2.9996690011202955e-02 -5.5405573117770068e-01 +5.4627407843924692e-03
5.5499999999999883e+00 +8.5381501783647096e+00 +0.0000000000000000e+00 +5.5499999132367481e+00 -2.9998608055925368e-02 -5.5408643218116382e-01 +5.4611465493718250e-03
5.5999999999999881e+00 +8.5381347905298277e+00 +0.0000000000000000e+00 +5.5999999108688776e+00 -3.0000544222530404e-02 -5.5411738762869556e-01 +5.4595690276053876e-03
5.6499999999999879e+00 +8.5381192644146537e+00 +0.0000000000000000e+00 +5.6499999084582591e+00 -3.0002498258218494e-02 -5.5414859512423598e-01 +5.4580083263168818e-03
5.6999999999999877e+00 +8.5381036000114019e+00 +0.0000000000000000e+00 +5.6999999060045079e+00 -3.0004469910190412e-02 -5.5418005227172917e-01 +5.4564645527310496e-03
5.7499999999999876e+00 +8.5380877973122207e+00 +0.0000000000000000e+00 +5.7499999035072387e+00 -3.0006458925647329e-02 -5.5421175667512268e-01 +5.4549378140736704e-03
5.7999999999999874e+00 +8.5380718563092000e+00 +0.0000000000000000e+00 +5.7999999009660668e+00 -3.0008465051790806e-02 -5.5424370593836791e-01 +5.4534282175715404e-03
5.8499999999999872e+00 +8.5380557769943657e+00 +0.0000000000000000e+00 +5.8499998983806067e+00 -3.0010488035822725e-02 -5.5427589766541985e-01 +5.4519358704524954e-03
5.8999999999999870e+00 +8.5380395593596852e+00 +0.0000000000000000e+00 +5.8999998957504740e+00 -3.0012527624945377e-02 -5.5430832946023689e-01 +5.4504608799454020e-03
