# multipoles
# s[mm] polynom_b[n=0][T/m^n] polynom_b[n=1][T/m^n] polynom_b[n=2][T/m^n] polynom_b[n=3][T/m^n] polynom_b[n=4][T/m^n] polynom_b[n=5][T/m^n] polynom_b[n=6][T/m^n] 
+0.0000000000000000e+00 -5.5566544703355147e-01 +7.2811917263308139e+00 +5.3318673571807897e+00 -2.7602375023806477e+01 -1.2239461757770783e+04 -2.0104881758679659e+05 +8.5155927379318044e+07 
+5.0000000000000003e-02 -5.5566486308268181e-01 +7.2811162199064672e+00 +5.3321579088292328e+00 -2.6909642938290411e+01 -1.2209717906102100e+04 -2.0569503362403667e+05 +8.4986624593794644e+07 
+1.0000000000000001e-01 -5.5566464082115341e-01 +7.2810597510513144e+00 +5.3317601234291097e+00 -2.6193600808314599e+01 -1.2172432335465888e+04 -2.1049524398878773e+05 +8.4768066827043444e+07 
+1.5000000000000002e-01 -5.5566477964497651e-01 +7.2810223252884683e+00 +5.3306871947222811e+00 -2.5456083152387883e+01 -1.2127962915494063e+04 -2.1543638505094175e+05 +8.4502609474088684e+07 
+2.0000000000000001e-01 -5.5566527895018869e-01 +7.2810039481415130e+00 +5.3289523180379783e+00 -2.4698924490954539e+01 -1.2076667554556707e+04 -2.2050539312909383e+05 +8.4192608173789755e+07 
+2.5000000000000000e-01 -5.5566613813283516e-01 +7.2810046251329252e+00 +5.3265686872237632e+00 -2.3923959269750398e+01 -1.2018904124105507e+04 -2.2568920517012628e+05 +8.3840418328194484e+07 
+2.9999999999999999e-01 -5.5566735658899935e-01 +7.2810243617900454e+00 +5.3235494998078554e+00 -2.3133022117241165e+01 -1.1955030593382829e+04 -2.3097475658285423e+05 +8.3448395994935736e+07 
+3.4999999999999998e-01 -5.5566893371475223e-01 +7.2810631636374028e+00 +5.3199079479341940e+00 -2.2327947512487675e+01 -1.1885404783597527e+04 -2.3634898403763404e+05 +8.3018896219350621e+07 
+3.9999999999999997e-01 -5.5567086890619899e-01 +7.2811210362017391e+00 +5.3156572275638903e+00 -2.1510570014190122e+01 -1.1810384627747153e+04 -2.4179882348594951e+05 +8.2554274837087646e+07 
+4.4999999999999996e-01 -5.5567316155946367e-01 +7.2811979850127457e+00 +5.3108105342914591e+00 -2.0682724269012358e+01 -1.1730328038869988e+04 -2.4731121019443890e+05 +8.2056887507692203e+07 
+4.9999999999999994e-01 -5.5567581107067354e-01 +7.2812940155963215e+00 +5.3053810617322066e+00 -1.9846244739799072e+01 -1.1645592882242046e+04 -2.5287308094337475e+05 +8.1529089591381073e+07 
+5.4999999999999993e-01 -5.5567881683597709e-01 +7.2814091334820885e+00 +5.2993820045606457e+00 -1.9002966037684185e+01 -1.1556537052761696e+04 -2.5847137121629665e+05 +8.0973236651329398e+07 
+5.9999999999999998e-01 -5.5568217825154365e-01 +7.2815433442002826e+00 +5.2928265576252000e+00 -1.8154722749769821e+01 -1.1463518444372865e+04 -2.6409301678206102e+05 +8.0391684221723929e+07 
+6.5000000000000002e-01 -5.5568589471356344e-01 +7.2816966532801199e+00 +5.2857279171970664e+00 -1.7303349406500978e+01 -1.1366894994693608e+04 -2.6972495383520692e+05 +7.9786788151946813e+07 
+7.0000000000000007e-01 -5.5568996561822392e-01 +7.2818690662541981e+00 +5.2780992757160163e+00 -1.6450680654457333e+01 -1.1267024533358706e+04 -2.7535411760760378e+05 +7.9160903543739915e+07 
+7.5000000000000011e-01 -5.5569439036175738e-01 +7.2820605886520182e+00 +5.2699538309781708e+00 -1.5598550981691195e+01 -1.1164265037404117e+04 -2.8096744465423375e+05 +7.8516386504697829e+07 
+8.0000000000000016e-01 -5.5569916834038835e-01 +7.2822712260079978e+00 +5.2613047762623788e+00 -1.4748795054005368e+01 -1.1058974358636970e+04 -2.8655187006273266e+05 +7.7855592283262625e+07 
+8.5000000000000020e-01 -5.5570429895036666e-01 +7.2825009838556856e+00 +5.2521653066449412e+00 -1.3903247483611407e+01 -1.0951510399464301e+04 -2.9209432933610253e+05 +7.7180876477397501e+07 
+9.0000000000000024e-01 -5.5570978158795759e-01 +7.2827498677257907e+00 +5.2425486173092493e+00 -1.3063742721298579e+01 -1.0842231064305655e+04 -2.9758175938113540e+05 +7.6494594692396745e+07 
+9.5000000000000029e-01 -5.5571561564945393e-01 +7.2830178831539625e+00 +5.2324679046309308e+00 -1.2232115408627173e+01 -1.0731494283996153e+04 -3.0300109548386408e+05 +7.5799102692446232e+07 
+1.0000000000000002e+00 -5.5572180053114373e-01 +7.2833050356749434e+00 +5.2219363623012232e+00 -1.1410200122541777e+01 -1.0619657924766969e+04 -3.0833927347263420e+05 +7.5096755832123026e+07 
+1.0500000000000003e+00 -5.5572833562935431e-01 +7.2836113308219739e+00 +5.2109671874518204e+00 -1.0599831345102350e+01 -1.0507079937776813e+04 -3.1358322998017218e+05 +7.4389910008957744e+07 
+1.1000000000000003e+00 -5.5573522034041167e-01 +7.2839367741342009e+00 +5.1995735745347647e+00 -9.8028437795596375e+00 -1.0394118204558879e+04 -3.1871989981845993e+05 +7.3680920660306871e+07 
+1.1500000000000004e+00 -5.5574245406067591e-01 +7.2842813711437886e+00 +5.1877687209116221e+00 -9.0210718030477768e+00 -1.0281130682200637e+04 -3.2373622053210740e+05 +7.2972143719213009e+07 
+1.2000000000000004e+00 -5.5575003618650376e-01 +7.2846451273920314e+00 +5.1755658207080799e+00 -8.2563501561788630e+00 -1.0168475240025815e+04 -3.2861912662184931e+05 +7.2265934525091872e+07 
+1.2500000000000004e+00 -5.5575796611429440e-01 +7.2850280484107843e+00 +5.1629780729655064e+00 -7.5105131584690232e+00 -1.0056509882437282e+04 -3.3335555608652596e+05 +7.1564649339256868e+07 
+1.3000000000000005e+00 -5.5576624324043444e-01 +7.2854301397387600e+00 +5.1500186710340712e+00 -6.7853953639853728e+00 -9.9455924504229624e+03 -3.3793244509071513e+05 +7.0870643277057931e+07 
+1.3500000000000005e+00 -5.5577486696134681e-01 +7.2858514069167866e+00 +5.1367008128404645e+00 -6.0828314144044118e+00 -9.8360809175092199e+03 -3.4233672896846390e+05 +7.0186272384035453e+07 
+1.4000000000000006e+00 -5.5578383667347131e-01 +7.2862918554798757e+00 +5.1230376957168815e+00 -5.4046556697999666e+00 -9.7283332315434982e+03 -3.4655534545085602e+05 +6.9513892494534925e+07 
+1.4500000000000006e+00 -5.5579315177324951e-01 +7.2867514909687756e+00 +5.1090425147760419e+00 -4.7527026903155463e+00 -9.6227072826442072e+03 -3.5057523065949470e+05 +6.8855859059660882e+07 
+1.5000000000000007e+00 -5.5580281165716239e-01 +7.2872303189190522e+00 +5.0947284697683601e+00 -4.1288067997510556e+00 -9.5195610869298107e+03 -3.5438332266031433e+05 +6.8214528382799298e+07 
+1.5500000000000007e+00 -5.5581281572170382e-01 +7.2877283448722130e+00 +5.0801087593276222e+00 -3.5348025450835032e+00 -9.4192526237912698e+03 -3.5796655766789685e+05 +6.7592256493725717e+07 
+1.6000000000000008e+00 -5.5582316336335258e-01 +7.2882455743682684e+00 +5.0651965769769101e+00 -2.9725243714315677e+00 -9.3221397359516905e+03 -3.6131187279922195e+05 +6.6991398501474798e+07 
+1.6500000000000008e+00 -5.5583385397864460e-01 +7.2887820129448260e+00 +5.0500051238002559e+00 -2.4438065956862358e+00 -9.2285804693834107e+03 -3.6440620624472603e+05 +6.6414310883481748e+07 
+1.7000000000000008e+00 -5.5584488696411727e-01 +7.2893376661437932e+00 +5.0345475980098184e+00 -1.9504836762515165e+00 -9.1389327879459252e+03 -3.6723649507724727e+05 +6.5863349543941230e+07 
+1.7500000000000009e+00 -5.5585626171632418e-01 +7.2899125395033204e+00 +5.0188371982601732e+00 -1.4943899057634202e+00 -9.0535546680234547e+03 -3.6978967768065556e+05 +6.5340870471378602e+07 
+1.8000000000000009e+00 -5.5586797763183771e-01 +7.2905066385659874e+00 +5.0028871237087982e+00 -1.0773597054015152e+00 -8.9728040974825126e+03 -3.7205269149532338e+05 +6.4849229723814532e+07 
+1.8500000000000010e+00 -5.5588003410724374e-01 +7.2911199688699639e+00 +4.9867105730066639e+00 -7.0122730032574765e-01 -8.8970390438589075e+03 -3.7401247554217960e+05 +6.4390783191242345e+07 
+1.9000000000000010e+00 -5.5589243053915427e-01 +7.2917525359584934e+00 +4.9703207472646413e+00 -3.6782708751515314e-01 -8.8266175480313959e+03 -3.7565596747737890e+05 +6.3967887288263693e+07 
+1.9500000000000011e+00 -5.5590516632418929e-01 +7.2924043453707776e+00 +4.9537308458401430e+00 -7.8993258045127843e-02 -8.7618975945397378e+03 -3.7697010670969856e+05 +6.3582898009608388e+07 
+2.0000000000000009e+00 -5.5591824085898933e-01 +7.2930754026465738e+00 +4.9369540690274611e+00 +1.6343999602602835e-01 -8.7032371908985824e+03 -3.7794183262847480e+05 +6.3238171496184327e+07 
+2.0500000000000007e+00 -5.5593165332836292e-01 +7.2937656805585664e+00 +4.9200017307598767e+00 +3.5824948591772604e-01 -8.6509148795338242e+03 -3.7856235128271778e+05 +6.2935520897370793e+07 
+2.1000000000000005e+00 -5.5594540206884047e-01 +7.2944750164652232e+00 +4.9028783016202215e+00 +5.0659191053523112e-01 -8.6049021108116794e+03 -3.7883963286694617e+05 +6.2674662930784419e+07 
+2.1500000000000004e+00 -5.5595948520471439e-01 +7.2952032127811757e+00 +4.8855867337081182e+00 +6.1020236788780580e-01 -8.5650964170404459e+03 -3.7878576345130935e+05 +6.2454810444092482e+07 
+2.2000000000000002e+00 -5.5597390086028642e-01 +7.2959500719208803e+00 +4.8681299785056780e+00 +6.7081596815020050e-01 -8.5313953132828992e+03 -3.7841282918694412e+05 +6.2275176171973966e+07 
+2.2500000000000000e+00 -5.5598864715984897e-01 +7.2967153962990512e+00 +4.8505109833406523e+00 +6.9016783756095568e-01 -8.5036961977374776e+03 -3.7773291639781819e+05 +6.2134972038821399e+07 
+2.2999999999999998e+00 -5.5600372222772054e-01 +7.2974989883305437e+00 +4.8327326993547874e+00 +6.6999309544103069e-01 -8.4818965827118482e+03 -3.7675811128670326e+05 +6.2033410781509332e+07 
+2.3499999999999996e+00 -5.5601912418823807e-01 +7.2983006504308197e+00 +4.8147980774070014e+00 +6.1202686199639700e-01 -8.4658939569364193e+03 -3.7550050011637824e+05 +6.1969704916935295e+07 
+2.3999999999999995e+00 -5.5603485116573159e-01 +7.2991201850146261e+00 +4.7967100665826869e+00 +5.1800429387111946e-01 -8.4555857782717230e+03 -3.7397216941658920e+05 +6.1943066818980969e+07 
+2.4499999999999993e+00 -5.5605090128455814e-01 +7.2999573944965901e+00 +4.7784716183016425e+00 +3.8966056089485485e-01 -8.4508695596927992e+03 -3.7218520580261922e+05 +6.1952709202211104e+07 
+2.4999999999999991e+00 -5.5606727266905787e-01 +7.3008120812926105e+00 +4.7600856789544084e+00 +2.2873079148888936e-01 -8.4516426791581562e+03 -3.7015169554791675e+05 +6.1997843873466685e+07 
+2.5499999999999989e+00 -5.5608396344361699e-01 +7.3016840478185889e+00 +4.7415552017578255e+00 +3.6950124221627974e-02 -8.4578027029756668e+03 -3.6788372498955508e+05 +6.2077683925446622e+07 
+2.5999999999999988e+00 -5.5610097173260142e-01 +7.3025730964895930e+00 +4.7228831340644284e+00 -1.8394625190820721e-01 -8.4692470351959564e+03 -3.6539338090940285e+05 +6.2191441339896828e+07 
+2.6499999999999986e+00 -5.5611829566040238e-01 +7.3034790297200667e+00 +4.7040724266554594e+00 -4.3222312451386363e-01 -8.4858731801376998e+03 -3.6269275021530455e+05 +6.2338328805372544e+07 
+2.6999999999999984e+00 -5.5613593335141343e-01 +7.3044016499267075e+00 +4.6851260284230989e+00 -7.0614536303105757e-01 -8.5075785858905947e+03 -3.5979391914674855e+05 +6.2517558611189172e+07 
+2.7499999999999982e+00 -5.5615388293004009e-01 +7.3053407595249595e+00 +4.6660468891829909e+00 -1.0039777792776583e+00 -8.5342607302454107e+03 -3.5670897439745214e+05 +6.2728343264394380e+07 
+2.7999999999999980e+00 -5.5617214252069380e-01 +7.3062961609297190e+00 +4.6468379577715968e+00 -1.3239851527596955e+00 -8.5658170628016451e+03 -3.5345000293063337e+05 +6.2969895075956486e+07 
+2.8499999999999979e+00 -5.5619071024779554e-01 +7.3072676565574852e+00 +4.6275021834708774e+00 -1.6644323295383525e+00 -8.6021450488481569e+03 -3.5002909111755586e+05 +6.3241426476359449e+07 
+2.8999999999999977e+00 -5.5620958423576550e-01 +7.3082550488237077e+00 +4.6080425143215429e+00 -2.0235841021538263e+00 -8.6431421239555584e+03 -3.4645832577382278e+05 +6.3542149708703272e+07 
+2.9499999999999975e+00 -5.5622876260904786e-01 +7.3092581401423882e+00 +4.5884618999835718e+00 -2.3997052074899399e+00 -8.6887057607661518e+03 -3.4274979412873136e+05 +6.3871277244342446e+07 
+2.9999999999999973e+00 -5.5624824349207780e-01 +7.3102767329311078e+00 +4.5687632881783342e+00 -2.7910605218013256e+00 -8.7387333891484614e+03 -3.3891558226001391e+05 +6.4228021299014598e+07 
+3.0499999999999972e+00 -5.5626802500930772e-01 +7.3113106296045531e+00 +4.5489496276715773e+00 -3.1959148040998131e+00 -8.7931224639964639e+03 -3.3496777717619669e+05 +6.4611594247868910e+07 
+3.0999999999999970e+00 -5.5628810528518957e-01 +7.3123596325760829e+00 +4.5290238660120350e+00 -3.6125327457672132e+00 -8.8517704106804176e+03 -3.3091846645911888e+05 +6.5021208278497539e+07 
+3.1499999999999968e+00 -5.5630848244418429e-01 +7.3134235442624487e+00 +4.5089889514014247e+00 -4.0391791965391537e+00 -8.9145746762264334e+03 -3.2677973629632330e+05 +6.5456075739913426e+07 
+3.1999999999999966e+00 -5.5632915461076515e-01 +7.3145021670800840e+00 +4.4888478320578447e+00 -4.4741189829457939e+00 -8.9814327040953467e+03 -3.2256367307666020e+05 +6.5915408944733068e+07 
+3.2499999999999964e+00 -5.5635011990939542e-01 +7.3155953034420653e+00 +4.4686034539745663e+00 -4.9156167830996242e+00 -9.0522418848688321e+03 -3.1828236443273304e+05 +6.6398419872732908e+07 
+3.2999999999999963e+00 -5.5637137646455159e-01 +7.3167027557649620e+00 +4.4482587640167148e+00 -5.3619374454960411e+00 -9.1268996325571352e+03 -3.1394789646557043e+05 +6.6904320663708784e+07 
+3.3499999999999961e+00 -5.5639292240073412e-01 +7.3178243264615537e+00 +4.4278167121554066e+00 -5.8113456500423837e+00 -9.2053034469214108e+03 -3.0957235669853358e+05 +6.7432324044243157e+07 
+3.3999999999999959e+00 -5.5641475584241284e-01 +7.3189598179482660e+00 +4.4072802417182144e+00 -6.2621062260954492e+00 -9.2873506506189533e+03 -3.0516783141165029e+05 +6.7981641554412559e+07 
+3.4499999999999957e+00 -5.5643687491408722e-01 +7.3201090326386691e+00 +4.3866523004963600e+00 -6.7124838968114187e+00 -9.3729386905142528e+03 -3.0074640769624867e+05 +6.8551485586854920e+07 
+3.4999999999999956e+00 -5.5645927774024773e-01 +7.3212717729466794e+00 +4.3659358333999432e+00 -7.1607434094789557e+00 -9.4619649357923790e+03 -2.9632017239972751e+05 +6.9141068010542065e+07 
+3.5499999999999954e+00 -5.5648196244539849e-01 +7.3224478412879996e+00 +4.3451337867506021e+00 -7.6051495740664707e+00 -9.5543267951236303e+03 -2.9190121187847405e+05 +6.9749600966862917e+07 
+3.5999999999999952e+00 -5.5650492715404398e-01 +7.3236370400748054e+00 +4.3242491063148751e+00 -8.0439670861205279e+00 -9.6499216703829752e+03 -2.8750161330836063e+05 +7.0376296584635809e+07 
+3.6499999999999950e+00 -5.5652816999068933e-01 +7.3248391717197530e+00 +4.3032847366001850e+00 -8.4754606403633428e+00 -9.7486469259662663e+03 -2.8313346395009744e+05 +7.1020366726565346e+07 
+3.6999999999999948e+00 -5.5655168907984498e-01 +7.3260540386404518e+00 +4.2822436225562299e+00 -8.8978951635069183e+00 -9.8503999415342714e+03 -2.7880884902399470e+05 +7.1681023368349105e+07 
+3.7499999999999947e+00 -5.5657548254601941e-01 +7.3272814432449529e+00 +4.2611287080338682e+00 -9.3095351934044110e+00 -9.9550780762189679e+03 -2.7453985694834270e+05 +7.2357478388549015e+07 
+3.7999999999999945e+00 -5.5659954851373472e-01 +7.3285211879490788e+00 +4.2399429377475650e+00 -9.7086455880556706e+00 -1.0062578703114186e+04 -2.7033857349565078e+05 +7.3048943720375836e+07 
+3.8499999999999943e+00 -5.5662388510750904e-01 +7.3297730751652628e+00 +4.2186892560227234e+00 -1.0093491089104660e+01 -1.0172799200603053e+04 -2.6621708531004330e+05 +7.3754631397296235e+07 
+3.8999999999999941e+00 -5.5664849045184106e-01 +7.3310369073057000e+00 +4.1973706021678661e+00 -1.0462336432110673e+01 -1.0285636805115144e+04 -2.6218747907530994e+05 +7.4473752467422158e+07 
+3.9499999999999940e+00 -5.5667336267127687e-01 +7.3323124867815581e+00 +4.1759899239444342e+00 -1.0813446320210531e+01 -1.0400988990660568e+04 -2.5826184169921360e+05 +7.5205519621045217e+07 
+3.9999999999999938e+00 -5.5669849989032250e-01 +7.3335996160055110e+00 +4.1545501605668713e+00 -1.1145085527130913e+01 -1.0518752996075506e+04 -2.5445225946201108e+05 +7.5949143947931096e+07 
+4.0499999999999936e+00 -5.5672390008598749e-01 +7.3348981050700441e+00 +4.1330532429078284e+00 -1.1455881987127773e+01 -1.0638813787820982e+04 -2.5076840890887019e+05 +7.6703792431619659e+07 
+4.0999999999999934e+00 -5.5674956064588765e-01 +7.3362077872504754e+00 +4.1114968300049135e+00 -1.1745885610490069e+01 -1.0760991543199618e+04 -2.4721057144535505e+05 +7.7468352962410599e+07 
+4.1499999999999932e+00 -5.5677547881043910e-01 +7.3375284997615955e+00 +4.0898774790594432e+00 -1.2015495977350676e+01 -1.0885086458529391e+04 -2.4377673697619911e+05 +7.8241619159273043e+07 
+4.1999999999999931e+00 -5.5680165182005048e-01 +7.3388600798164463e+00 +4.0681917444292282e+00 -1.2265112622440810e+01 -1.1010898640299964e+04 -2.4046489580006833e+05 +7.9022383994174138e+07 
+4.2499999999999929e+00 -5.5682807691515568e-01 +7.3402023646313364e+00 +4.0464361858184423e+00 -1.2495135216860684e+01 -1.1138228352303437e+04 -2.3727303710087165e+05 +7.9809441551747561e+07 
+4.2999999999999927e+00 -5.5685475133616791e-01 +7.3415551914223576e+00 +4.0246073583658708e+00 -1.2705963441714703e+01 -1.1266875727235401e+04 -2.3419914994012230e+05 +8.0601585000506312e+07 
+4.3499999999999925e+00 -5.5688167232351737e-01 +7.3429183974050636e+00 +4.0027018198737014e+00 -1.2897996955919220e+01 -1.1396640971012685e+04 -2.3124122357526919e+05 +8.1397608011385232e+07 
+4.3999999999999924e+00 -5.5690883711762895e-01 +7.3442918197932121e+00 +3.9807161268673346e+00 -1.3071635355773550e+01 -1.1527324252704142e+04 -2.2839724778043039e+05 +8.2196303996623382e+07 
+4.4499999999999922e+00 -5.5693624295892208e-01 +7.3456752958050702e+00 +3.9586468353500539e+00 -1.3227278443471780e+01 -1.1658725733074394e+04 -2.2566521057379755e+05 +8.2996466334734067e+07 
+4.4999999999999920e+00 -5.5696388708782785e-01 +7.3470686626565582e+00 +3.9364905025261709e+00 -1.3365325928341814e+01 -1.1790645597601675e+04 -2.2304310076058016e+05 +8.3796888542150363e+07 
+4.5499999999999918e+00 -5.5699176674477702e-01 +7.3484717575635141e+00 +3.9142436859811220e+00 -1.3486177533772649e+01 -1.1922884047925381e+04 -2.2052890699714460e+05 +8.4596364268786773e+07 
+4.5999999999999917e+00 -5.5701987917019602e-01 +7.3498844177441764e+00 +3.8919029420435880e+00 -1.3590233088235628e+01 -1.2055241245681660e+04 -2.1812061709254308e+05 +8.5393686870249301e+07 
+4.6499999999999915e+00 -5.5704822160451017e-01 +7.3513064804153743e+00 +3.8694648270622589e+00 -1.3677892381715385e+01 -1.2187517357763692e+04 -2.1581621912774106e+05 +8.6187649758458942e+07 
+4.6999999999999913e+00 -5.5707679128815024e-01 +7.3527377827938114e+00 +3.8469258982085606e+00 -1.3749555210269296e+01 -1.2319512568416952e+04 -2.1361370113907126e+05 +8.6977046442331418e+07 
+4.7499999999999911e+00 -5.5710558546154565e-01 +7.3541781620989646e+00 +3.8242827123583161e+00 -1.3805621503189654e+01 -1.2451027053467404e+04 -2.1151105003028060e+05 +8.7760670374421924e+07 
+4.7999999999999909e+00 -5.5713460136512494e-01 +7.3556274555468484e+00 +3.8015318270281560e+00 -1.3846491052463042e+01 -1.2581861011669755e+04 -2.0950625385835295e+05 +8.8537315183123380e+07 
+4.8499999999999908e+00 -5.5716383623930699e-01 +7.3570855003574076e+00 +3.7786697974227113e+00 -1.3872563838842471e+01 -1.2711814572598034e+04 -2.0759729908267237e+05 +8.9305774006224439e+07 
+4.8999999999999906e+00 -5.5719328732453022e-01 +7.3585521337495985e+00 +3.7556931824653081e+00 -1.3884239813776956e+01 -1.2840687965482075e+04 -2.0578217239779865e+05 +9.0064840651550233e+07 
+4.9499999999999904e+00 -5.5722295186120263e-01 +7.3600271929411152e+00 +3.7325985362457286e+00 -1.3881918891329406e+01 -1.2968281291785146e+04 -2.0405886079961099e+05 +9.0813308075594202e+07 
+4.9999999999999902e+00 -5.5725282708976354e-01 +7.3615105151515383e+00 +3.7093824185613689e+00 -1.3866001085505856e+01 -1.3094394804381489e+04 -2.0242535044116416e+05 +9.1549970246667072e+07 
+5.0499999999999901e+00 -5.5728291025061993e-01 +7.3630019376011600e+00 +3.6860413839398056e+00 -1.3836886457725713e+01 -1.3218828616668286e+04 -2.0087962706174029e+05 +9.2273620204585180e+07 
