# multipoles
# s[mm] polynom_b[n=0][T/m^n] polynom_b[n=1][T/m^n] polynom_b[n=2][T/m^n] polynom_b[n=3][T/m^n] polynom_b[n=4][T/m^n] polynom_b[n=5][T/m^n] polynom_b[n=6][T/m^n] 
+0.0000000000000000e+00 -5.7709450576981380e-01 +7.5546415316376754e+00 +5.1294296214321831e+00 -1.0097131037145584e+01 +2.5025332808408602e+04 -5.3648938891064376e+05 -1.4649137363307157e+08 
+5.0000000000000003e-02 -5.7709309915996254e-01 +7.5546336657126707e+00 +5.1309323639743241e+00 -1.0057094508274387e+01 +2.5013990510958061e+04 -5.3733849323672988e+05 -1.4654902592355233e+08 
+1.0000000000000001e-01 -5.7709210158227908e-01 +7.5546483888161617e+00 +5.1318439337624699e+00 -1.0029865677697250e+01 +2.5004897708386005e+04 -5.3803939948216989e+05 -1.4661904303245044e+08 
+1.4999999999999999e-01 -5.7709151216043630e-01 +7.5546856066151262e+00 +5.1321736145587238e+00 -1.0014752535862508e+01 +2.4997869503551610e+04 -5.3859663774721057e+05 -1.4670031924785528e+08 
+2.0000000000000001e-01 -5.7709133001815938e-01 +7.5547452247790998e+00 +5.1319306932904993e+00 -1.0011063113939832e+01 +2.4992720914664966e+04 -5.3901473793223035e+05 -1.4679174829195413e+08 
+2.5000000000000000e-01 -5.7709155427920544e-01 +7.5548271489786174e+00 +5.1311244550878667e+00 -1.0018105464198731e+01 +2.4989267004890658e+04 -5.3929822971723042e+05 -1.4689222417901421e+08 
+2.9999999999999999e-01 -5.7709218406732332e-01 +7.5549312848835264e+00 +5.1297641845954205e+00 -1.0035187588301095e+01 +2.4987322855182600e+04 -5.3945164315416606e+05 -1.4700064106350851e+08 
+3.4999999999999998e-01 -5.7709321850623774e-01 +7.5550575381684721e+00 +5.1278591694934450e+00 -1.0061617642499355e+01 +2.4986703458208933e+04 -5.3947950704715308e+05 -1.4711589248337969e+08 
+4.0000000000000002e-01 -5.7709465671980709e-01 +7.5552058145032204e+00 +5.1254186925304746e+00 -1.0096703550858949e+01 +2.4987223949273117e+04 -5.3938635215958685e+05 -1.4723687297680676e+08 
+4.5000000000000001e-01 -5.7709649783176020e-01 +7.5553760195618223e+00 +5.1224520406699616e+00 -1.0139753382729172e+01 +2.4988699339340954e+04 -5.3917670799327805e+05 -1.4736247620617783e+08 
+5.0000000000000000e-01 -5.7709874096597669e-01 +7.5555680590174372e+00 +5.1189684996661793e+00 -1.0190075134907932e+01 +2.4990944676272982e+04 -5.3885510471807898e+05 -1.4749159610001478e+08 
+5.5000000000000004e-01 -5.7710138524627352e-01 +7.5557818385482651e+00 +5.1149773553446893e+00 -1.0246976981859746e+01 +2.4993775007566033e+04 -5.3842607100172411e+05 -1.4762312659349084e+08 
+5.9999999999999998e-01 -5.7710442979655252e-01 +7.5560172638287355e+00 +5.1104878913746141e+00 -1.0309766925275019e+01 +2.4997005436365198e+04 -5.3789413690775447e+05 -1.4775596199059629e+08 
+6.5000000000000002e-01 -5.7710787374062211e-01 +7.5562742405331909e+00 +5.1055093959921738e+00 -1.0377752897380788e+01 +2.5000450940005911e+04 -5.3726383316654095e+05 -1.4788899573621494e+08 
+6.9999999999999996e-01 -5.7711171620242807e-01 +7.5565526743428713e+00 +5.1000511540179581e+00 -1.0450243113027939e+01 +2.5003926594622048e+04 -5.3653968810770451e+05 -1.4802112197341892e+08 
+7.5000000000000000e-01 -5.7711595630584422e-01 +7.5568524709322427e+00 +5.0941224497606141e+00 -1.0526545464920650e+01 +2.5007247480492304e+04 -5.3572623273145664e+05 -1.4815123483643049e+08 
+8.0000000000000004e-01 -5.7712059317481190e-01 +7.5571735359834511e+00 +5.0877325710195604e+00 -1.0605968121633589e+01 +2.5010228589628980e+04 -5.3482799582549336e+05 -1.4827822788777724e+08 
+8.4999999999999998e-01 -5.7712562593329775e-01 +7.5575157751722690e+00 +5.0808908027027684e+00 -1.0687818990824940e+01 +2.5012684987346638e+04 -5.3384950818448816e+05 -1.4840099517010379e+08 
+9.0000000000000002e-01 -5.7713105370526352e-01 +7.5578790941825638e+00 +5.0736064302243182e+00 -1.0771406239161102e+01 +2.5014431729824300e+04 -5.3279529865903093e+05 -1.4851843068455338e+08 
+9.4999999999999996e-01 -5.7713687561465987e-01 +7.5582633986912047e+00 +5.0658887394884289e+00 -1.0856037733120186e+01 +2.5015283854859244e+04 -5.3166989847915946e+05 -1.4862942829104272e+08 
+1.0000000000000000e+00 -5.7714309078548143e-01 +7.5586685943811505e+00 +5.0577470159892783e+00 -1.0941021572379141e+01 +2.5015056411555448e+04 -5.3047783690861822e+05 -1.4873288192640498e+08 
+1.0500000000000000e+00 -5.7714969834177166e-01 +7.5590945869337887e+00 +5.0491905462039490e+00 -1.1025665740711865e+01 +2.5013564423156862e+04 -5.2922364426901226e+05 -1.4882768535927662e+08 
+1.1000000000000001e+00 -5.7715669740750186e-01 +7.5595412820337939e+00 +5.0402286157317837e+00 -1.1109278328846337e+01 +2.5010622934245021e+04 -5.2791184995684121e+05 -1.4891273249670249e+08 
+1.1499999999999999e+00 -5.7716408710679512e-01 +7.5600085853605563e+00 +5.0308705093949229e+00 -1.1191167191199039e+01 +2.5006047012269326e+04 -5.2654698532618035e+05 -1.4898691740691417e+08 
+1.2000000000000000e+00 -5.7717186656365937e-01 +7.5604964026004478e+00 +5.0211255134807669e+00 -1.1270640426601014e+01 +2.4999651681451785e+04 -5.2513357971650164e+05 -1.4904913385624716e+08 
+1.2500000000000000e+00 -5.7718003490217129e-01 +7.5610046394366295e+00 +5.0110029140530559e+00 -1.1347005985336414e+01 +2.4991251971154055e+04 -5.2367616365805728e+05 -1.4909827564519587e+08 
+1.3000000000000000e+00 -5.7718859124645439e-01 +7.5615332015526997e+00 +5.0005119973257193e+00 -1.1419571780615595e+01 +2.4980662906203284e+04 -5.2217926811071811e+05 -1.4913323653972659e+08 
+1.3500000000000001e+00 -5.7719753472060342e-01 +7.5620819946337692e+00 +4.9896620469341766e+00 -1.1487645788907582e+01 +2.4967699579875502e+04 -5.2064742335751856e+05 -1.4915291077160808e+08 
+1.3999999999999999e+00 -5.7720686444869485e-01 +7.5626509243651245e+00 +4.9784623496186002e+00 -1.1550535934468394e+01 +2.4952177005372498e+04 -5.1908516024049610e+05 -1.4915619204347861e+08 
+1.4500000000000000e+00 -5.7721657955492467e-01 +7.5632398964347276e+00 +4.9669221917421806e+00 -1.1607550245421287e+01 +2.4933910197578440e+04 -5.1749700867778412e+05 -1.4914197404122859e+08 
+1.5000000000000000e+00 -5.7722667916343717e-01 +7.5638488165258480e+00 +4.9550508571987821e+00 -1.1657996513635396e+01 +2.4912714240291960e+04 -5.1588750056910532e+05 -1.4910915092581627e+08 
+1.5500000000000000e+00 -5.7723716239837841e-01 +7.5644775903262405e+00 +4.9428576323570006e+00 -1.1701182682520079e+01 +2.4888404150528473e+04 -5.1426116658328654e+05 -1.4905661641066167e+08 
+1.6000000000000001e+00 -5.7724802838393130e-01 +7.5651261235226421e+00 +4.9303518025633704e+00 -1.1736416634795576e+01 +2.4860794970342096e+04 -5.1262253785121179e+05 -1.4898326436918026e+08 
+1.6499999999999999e+00 -5.7725927624432327e-01 +7.5657943218024926e+00 +4.9175426536611226e+00 -1.1763006253231637e+01 +2.4829701725477509e+04 -5.1097614552446589e+05 -1.4888798855504388e+08 
+1.7000000000000000e+00 -5.7727090510373635e-01 +7.5664820908549011e+00 +4.9044394702576737e+00 -1.1780259444915727e+01 +2.4794939479016990e+04 -5.0932652058685711e+05 -1.4876968299421799e+08 
+1.7500000000000000e+00 -5.7728291408642052e-01 +7.5671893363645744e+00 +4.8910515367005365e+00 -1.1787483925925162e+01 +2.4756323295327715e+04 -5.0767819554444717e+05 -1.4862724169768128e+08 
+1.8000000000000000e+00 -5.7729530231660653e-01 +7.5679159640213420e+00 +4.8773881417393872e+00 -1.1783987571104102e+01 +2.4713668116480399e+04 -5.0603570167868788e+05 -1.4845955784376654e+08 
+1.8500000000000001e+00 -5.7730806891853059e-01 +7.5686618795120513e+00 +4.8634585661955159e+00 -1.1769078128833707e+01 +2.4666789105161319e+04 -5.0440357122282888e+05 -1.4826552612100336e+08 
+1.8999999999999999e+00 -5.7732121301650652e-01 +7.5694269885281162e+00 +4.8492720986500686e+00 -1.1742063486065065e+01 +2.4615501204618482e+04 -5.0278633535333129e+05 -1.4804403970626685e+08 
+1.9500000000000000e+00 -5.7733473373478106e-01 +7.5702111967566914e+00 +4.8348380221376877e+00 -1.1702251331744264e+01 +2.4559619512108005e+04 -5.0118852685781266e+05 -1.4779399283167219e+08 
+2.0000000000000000e+00 -5.7734863019768412e-01 +7.5710144098868328e+00 +4.8201656222808227e+00 -1.1648949416302679e+01 +2.4498959052510130e+04 -4.9961467796540720e+05 -1.4751427923281869e+08 
+2.0499999999999998e+00 -5.7736290127345213e-01 +7.5718365313135889e+00 +4.8052603102751972e+00 -1.1581675297998133e+01 +2.4433425028763886e+04 -4.9806851803994586e+05 -1.4720429501814741e+08 
+2.1000000000000001e+00 -5.7737754480275005e-01 +7.5726774567193953e+00 +4.7901116093373153e+00 -1.1500779384263508e+01 +2.4363289794750584e+04 -4.9655071384578169e+05 -1.4686547403845915e+08 
+2.1499999999999999e+00 -5.7739255836853376e-01 +7.5735370767683454e+00 +4.7747051726354428e+00 -1.1406823284082451e+01 +2.4288919392451622e+04 -4.9506121067237109e+05 -1.4649976784455377e+08 
+2.2000000000000002e+00 -5.7740793955385672e-01 +7.5744152821333000e+00 +4.7590266588941086e+00 -1.1300368918910275e+01 +2.4210679714233174e+04 -4.9359995139673533e+05 -1.4610912697564882e+08 
+2.2500000000000000e+00 -5.7742368594168392e-01 +7.5753119634778407e+00 +4.7430617232550194e+00 -1.1181977832222985e+01 +2.4128936752193007e+04 -4.9216688190733053e+05 -1.4569550265575379e+08 
+2.2999999999999998e+00 -5.7743979511501575e-01 +7.5762270114767016e+00 +4.7267960203327224e+00 -1.1052211960867524e+01 +2.4044056507335590e+04 -4.9076194505610049e+05 -1.4526084614369169e+08 
+2.3500000000000001e+00 -5.7745626465685362e-01 +7.5771603167983894e+00 +4.7102152072475674e+00 -1.0911632998995398e+01 +2.3956404921240686e+04 -4.8938508556888916e+05 -1.4480710832973027e+08 
+2.3999999999999999e+00 -5.7747309215025378e-01 +7.5781117701154184e+00 +4.6933049392414343e+00 -1.0760802751272211e+01 +2.3866347979287781e+04 -4.8803624743975484e+05 -1.4433624036883727e+08 
+2.4500000000000002e+00 -5.7749027517823504e-01 +7.5790812621044141e+00 +4.6760508722214773e+00 -1.0600283183848855e+01 +2.3774251654856598e+04 -4.8671537328546558e+05 -1.4385019335506445e+08 
+2.5000000000000000e+00 -5.7750781132391871e-01 +7.5800686834357736e+00 +4.6584386635437447e+00 -1.0430635979260710e+01 +2.3680481882894059e+04 -4.8542240813883150e+05 -1.4335091812445965e+08 
+2.5499999999999998e+00 -5.7752569817027977e-01 +7.5810739247887584e+00 +4.6404539672449880e+00 -1.0252423156426087e+01 +2.3585404685199923e+04 -4.8415729428608785e+05 -1.4284036608561575e+08 
+2.6000000000000001e+00 -5.7754393330048348e-01 +7.5820968768377179e+00 +4.6220824394202804e+00 -1.0066206511256942e+01 +2.3489386031635120e+04 -4.8291997593433945e+05 -1.4232048830657676e+08 
+2.6499999999999999e+00 -5.7756251429760075e-01 +7.5831374302651824e+00 +4.6033097369440670e+00 -9.8725481487760653e+00 +2.3392791871695707e+04 -4.8171039476772962e+05 -1.4179323571661004e+08 
+2.7000000000000002e+00 -5.7758143874472900e-01 +7.5841954757481727e+00 +4.5841215144588565e+00 -9.6720099297075617e+00 +2.3295988219728541e+04 -4.8052849453217734e+05 -1.4126055969997349e+08 
+2.7500000000000000e+00 -5.7760070422499421e-01 +7.5852709039685537e+00 +4.5645034298692480e+00 -9.4651538806046922e+00 +2.3199340996371538e+04 -4.7937421768824104e+05 -1.4072441097802454e+08 
+2.7999999999999998e+00 -5.7762030832147682e-01 +7.5863636056111714e+00 +4.5444411361320300e+00 -9.2525421361377500e+00 +2.3103216258398988e+04 -4.7824750582559506e+05 -1.4018674120134535e+08 
+2.8500000000000001e+00 -5.7764024861736141e-01 +7.5874734713577316e+00 +4.5239202922011508e+00 -9.0347366836473650e+00 +2.3007979909182719e+04 -4.7714830180211068e+05 -1.3964950101109377e+08 
+2.8999999999999999e+00 -5.7766052269578028e-01 +7.5886003918940457e+00 +4.5029265513984864e+00 -8.8122996430105562e+00 +2.2913997999763000e+04 -4.7607654747922323e+05 -1.3911464202561346e+08 
+2.9500000000000002e+00 -5.7768112813989569e-01 +7.5897442579091079e+00 +4.4814455703745510e+00 -8.5857932473382164e+00 +2.2821636493216876e+04 -4.7503218383389094e+05 -1.3858411527123648e+08 
+3.0000000000000000e+00 -5.7770206253288547e-01 +7.5909049600899250e+00 +4.4594630065762599e+00 -8.3557796308518544e+00 +2.2731261332905480e+04 -4.7401515269542311e+05 -1.3805987164305881e+08 
+3.0499999999999998e+00 -5.7772332345788635e-01 +7.5920823891270128e+00 +4.4369645134470899e+00 -8.1228210481402012e+00 +2.2643238571729140e+04 -4.7302539497686719e+05 -1.3754386277728614e+08 
+3.1000000000000001e+00 -5.7774490849812388e-01 +7.5932764357120810e+00 +4.4139357482901849e+00 -7.8874797772042209e+00 +2.2557934162350270e+04 -4.7206285147438210e+05 -1.3703803964209133e+08 
+3.1499999999999999e+00 -5.7776681523680218e-01 +7.5944869905406494e+00 +4.3903623679353805e+00 -7.6503182415588240e+00 +2.2475714070979386e+04 -4.7112746181774605e+05 -1.3654435329707384e+08 
+3.2000000000000002e+00 -5.7778904125712116e-01 +7.5957139443040758e+00 +4.3662300268245984e+00 -7.4118986569632810e+00 +2.2396944328320056e+04 -4.7021916747458675e+05 -1.3606475522937515e+08 
+3.2500000000000000e+00 -5.7781158414227218e-01 +7.5969571877018804e+00 +4.3415243808338539e+00 -7.1727835674453884e+00 +2.2321990931239219e+04 -4.6933790721801238e+05 -1.3560119671167558e+08 
+3.2999999999999998e+00 -5.7783444147550955e-01 +7.5982166114323801e+00 +4.3162310859121487e+00 -6.9335354365339317e+00 +2.2251219873241444e+04 -4.6848362060993374e+05 -1.3515562898260507e+08 
+3.3500000000000001e+00 -5.7785761084010512e-01 +7.5994921061953109e+00 +4.2903357991170674e+00 -6.6947167793081057e+00 +2.2184997123255373e+04 -4.6765624680515536e+05 -1.3473000312955284e+08 
+3.3999999999999999e+00 -5.7788108981924546e-01 +7.6007835626921478e+00 +4.2638241754445163e+00 -6.4568901444760165e+00 +2.2123688708166395e+04 -4.6685572480694717e+05 -1.3432627063278449e+08 
+3.4500000000000002e+00 -5.7790487599619189e-01 +7.6020908716279321e+00 +4.2366818723614124e+00 -6.2206182192416035e+00 +2.2067660585717589e+04 -4.6608199253116077e+05 -1.3394638249130881e+08 
+3.5000000000000000e+00 -5.7792896695422147e-01 +7.6034139237059186e+00 +4.2088945426925841e+00 -5.9864635990476742e+00 +2.2017278848623464e+04 -4.6533498871172336e+05 -1.3359229064349483e+08 
+3.5499999999999998e+00 -5.7795336027661659e-01 +7.6047526096355051e+00 +4.1804478445779782e+00 -5.7549891078331381e+00 +2.1972909441715587e+04 -4.6461465030038421e+05 -1.3326594600831746e+08 
+3.6000000000000001e+00 -5.7797805354665954e-01 +7.6061068201266515e+00 +4.1513274340325008e+00 -5.5267575707785221e+00 +2.1934918372769975e+04 -4.6392091433624062e+05 -1.3296929994084267e+08 
+3.6499999999999999e+00 -5.7800304434764405e-01 +7.6074764458890440e+00 +4.1215189675022064e+00 -5.3023317899482851e+00 +2.1903671644099413e+04 -4.6325371809611074e+05 -1.3270430377749936e+08 
+3.6999999999999900e+00 -5.7802833026283063e-01 +7.6088613776363605e+00 +4.0910080997673113e+00 -5.0822747080350128e+00 +2.1879535297961647e+04 -4.6261299779922119e+05 -1.3247290909926543e+08 
+3.7499999999999898e+00 -5.7805390887558905e-01 +7.6102615060842815e+00 +4.0597804879641286e+00 -4.8671493396189609e+00 +2.1862875321630476e+04 -4.6199868914781843e+05 -1.3227706713552420e+08 
+3.7999999999999901e+00 -5.7807977776917030e-01 +7.6116767219511710e+00 +4.0278217871350748e+00 -4.6575187683399966e+00 +2.1854057758678486e+04 -4.6141072743431304e+05 -1.3211872949301310e+08 
+3.8499999999999899e+00 -5.7810593452695758e-01 +7.6131069159530034e+00 +3.9951176542506674e+00 -4.4539459909338568e+00 +2.1853448605633374e+04 -4.6084904864881898e+05 -1.3199984746773455e+08 
+3.8999999999999901e+00 -5.7813237673218998e-01 +7.6145519788138554e+00 +3.9616537441239461e+00 -4.2569943024509493e+00 +2.1861413920315637e+04 -4.6031358647811925e+05 -1.3192237277630328e+08 
+3.9499999999999900e+00 -5.7815910196829889e-01 +7.6160118012590416e+00 +3.9274157154084550e+00 -4.0672270345255042e+00 +2.1878319654357936e+04 -4.5980427440162154e+05 -1.3188825639701131e+08 
+3.9999999999999898e+00 -5.7818610781856195e-01 +7.6174862740087859e+00 +3.8923892218528606e+00 -3.8852073036999935e+00 +2.1904531904296964e+04 -4.5932104768644954e+05 -1.3189945032505435e+08 
+4.0499999999999901e+00 -5.7821339184687992e-01 +7.6189752685977350e+00 +3.8565665990682594e+00 -3.7114340439739562e+00 +2.1940303849031436e+04 -4.5886319160513126e+05 -1.3195733401927863e+08 
+4.0999999999999899e+00 -5.7824095153989630e-01 +7.6204785759484537e+00 +3.8199681226084614e+00 -3.5462687648170004e+00 +2.1985429515491567e+04 -4.5842646831939201e+05 -1.3206100311500952e+08 
+4.1499999999999897e+00 -5.7826878436535911e-01 +7.6219959658805960e+00 +3.7826213868099958e+00 -3.3900732282606816e+00 +2.2039586196902554e+04 -4.5800549645109818e+05 -1.3220898373324941e+08 
+4.1999999999999904e+00 -5.7829688779093591e-01 +7.6235272082149059e+00 +3.7445539820220062e+00 -3.2432092751255297e+00 +2.2102451293960570e+04 -4.5759489397731924e+05 -1.3239980271514684e+08 
+4.2499999999999902e+00 -5.7832525928438150e-01 +7.6250720727679129e+00 +3.7057934990160488e+00 -3.1060386156767108e+00 +2.2173702194579182e+04 -4.5718927983846318e+05 -1.3263198681063184e+08 
+4.2999999999999901e+00 -5.7835389631334033e-01 +7.6266303293570017e+00 +3.6663675286504058e+00 -2.9789230035651522e+00 +2.2253016287182338e+04 -4.5678327259919199e+05 -1.3290406278999825e+08 
+4.3499999999999899e+00 -5.7838279634556156e-01 +7.6282017477977524e+00 +3.6263036658021623e+00 -2.8622241508614623e+00 +2.2340070848760133e+04 -4.5637149109480571e+05 -1.3321455666164193e+08 
+4.3999999999999897e+00 -5.7841195684874069e-01 +7.6297860979026035e+00 +3.5856295003298788e+00 -2.7563036824453762e+00 +2.2434543298482680e+04 -4.5594855473992875e+05 -1.3356199542549302e+08 
+4.4499999999999904e+00 -5.7844137529055939e-01 +7.6313831494858757e+00 +3.5443726257545074e+00 -2.6615233140881309e+00 +2.2536110945984005e+04 -4.5550908219690109e+05 -1.3394490530379035e+08 
+4.4999999999999902e+00 -5.7847104913875314e-01 +7.6329926723563339e+00 +3.5025606346020166e+00 -2.5782445914726559e+00 +2.2644451136666114e+04 -4.5504769335710310e+05 -1.3436181279897788e+08 
+4.5499999999999901e+00 -5.7850097586102445e-01 +7.6346144363244521e+00 +3.4602211190049683e+00 -2.5068291390493687e+00 +2.2759241225179456e+04 -4.5455900745800760e+05 -1.3481124447515830e+08 
+4.5999999999999899e+00 -5.7853115292509649e-01 +7.6362482111973797e+00 +3.4173816703769733e+00 -2.4476385031241694e+00 +2.2880158581941530e+04 -4.5403764422338252e+05 -1.3529172699264246e+08 
+4.6499999999999897e+00 -5.7856157779859962e-01 +7.6378937667794444e+00 +3.3740698835580778e+00 -2.4010341299280857e+00 +2.3006880488502808e+04 -4.5347822416517924e+05 -1.3580178643185183e+08 
+4.6999999999999904e+00 -5.7859224794931685e-01 +7.6395508728747972e+00 +3.3303133515036651e+00 -2.3673775188314266e+00 +2.3139084276570182e+04 -4.5287536719372967e+05 -1.3633994921410751e+08 
+4.7499999999999902e+00 -5.7862316084488841e-01 +7.6412192992873935e+00 +3.2861396669573009e+00 -2.3470301832758178e+00 +2.3276447281528199e+04 -4.5222369307466038e+05 -1.3690474178068060e+08 
+4.7999999999999901e+00 -5.7865431395306965e-01 +7.6428988158122850e+00 +3.2415764237240570e+00 -2.3403533252664599e+00 +2.3418646814435411e+04 -4.5151782398811367e+05 -1.3749469043259907e+08 
+4.8499999999999899e+00 -5.7868570474147829e-01 +7.6445891922500397e+00 +3.1966512169808987e+00 -2.3477084131643697e+00 +2.3565360143313275e+04 -4.5075237980187248e+05 -1.3810832116167843e+08 
+4.8999999999999897e+00 -5.7871733067786590e-01 +7.6462901983958753e+00 +3.1513916364825878e+00 -2.3694567424266033e+00 +2.3716264686105362e+04 -4.4992198172571341e+05 -1.3874416099228325e+08 
+4.9499999999999904e+00 -5.7874918922991980e-01 +7.6480016040418946e+00 +3.1058252807587245e+00 -2.4059595193721219e+00 +2.3871037625505822e+04 -4.4902125159506575e+05 -1.3940073537059444e+08 
+4.9999999999999902e+00 -5.7878127786528588e-01 +7.6497231789798246e+00 +3.0599797424389084e+00 -2.4575779903670156e+00 +2.4029356299751791e+04 -4.4804481076734618e+05 -1.4007657078741968e+08 
+5.0499999999999901e+00 -5.7881359405412058e-01 +7.6514546846750493e+00 +3.0138830605094835e+00 -2.5246836775427495e+00 +2.4190897993456332e+04 -4.4698727024093567e+05 -1.4077019321704563e+08 
