# field on trajectory
# s[mm] rx[mm] ry[mm] rz[mm] bx[T] by[T] bz[T]
0.0000000000000000e+00 +8.5269999999999992e+00 +0.0000000000000000e+00 +0.0000000000000000e+00 -3.0749003525652161e-02 -5.5192395963363738e-01 +5.6494812503769922e-03
-5.0000000000000003e-02 +8.5269999311445979e+00 +0.0000000000000000e+00 -4.9999999999936789e-02 -3.0749359709324350e-02 -5.5192585350469658e-01 +5.6506658743915679e-03
-1.0000000000000001e-01 +8.5269997245780633e+00 +0.0000000000000000e+00 -9.9999999999494285e-02 -3.0749735623497615e-02 -5.5192814949328561e-01 +5.6518478904888248e-03
-1.5000000000000002e-01 +8.5269993802998236e+00 +0.0000000000000000e+00 -1.4999999999829319e-01 -3.0750131475337249e-02 -5.5193084685950000e-01 +5.6530271395128749e-03
-2.0000000000000001e-01 +8.5269988983092038e+00 +0.0000000000000000e+00 -1.9999999999595425e-01 -3.0750547472009979e-02 -5.5193394486345315e-01 +5.6542034623076999e-03
-2.5000000000000000e-01 +8.5269982786054328e+00 +0.0000000000000000e+00 -2.4999999999209810e-01 -3.0750983820683874e-02 -5.5193744276527745e-01 +5.6553766997171238e-03
-2.9999999999999999e-01 +8.5269975211876368e+00 +0.0000000000000000e+00 -2.9999999998634547e-01 -3.0751440728528368e-02 -5.5194133982512217e-01 +5.6565466925847874e-03
-3.4999999999999998e-01 +8.5269966260548440e+00 +0.0000000000000000e+00 -3.4999999997831704e-01 -3.0751918402714146e-02 -5.5194563530315455e-01 +5.6577132817541157e-03
-3.9999999999999997e-01 +8.5269955932059815e+00 +0.0000000000000000e+00 -3.9999999996763347e-01 -3.0752417050413268e-02 -5.5195032845956005e-01 +5.6588763080682933e-03
-4.4999999999999996e-01 +8.5269944226398788e+00 +0.0000000000000000e+00 -4.4999999995391543e-01 -3.0752936878798955e-02 -5.5195541855454200e-01 +5.6600356123702377e-03
-4.9999999999999994e-01 +8.5269931143552657e+00 +0.0000000000000000e+00 -4.9999999993678351e-01 -3.0753478095045760e-02 -5.5196090484832028e-01 +5.6611910355025673e-03
-5.4999999999999993e-01 +8.5269916683507745e+00 +0.0000000000000000e+00 -5.4999999991585846e-01 -3.0754040906329352e-02 -5.5196678660113330e-01 +5.6623424183075820e-03
-5.9999999999999998e-01 +8.5269900846249378e+00 +0.0000000000000000e+00 -5.9999999989076080e-01 -3.0754625519826637e-02 -5.5197306307323668e-01 +5.6634896016272297e-03
-6.5000000000000002e-01 +8.5269883631761871e+00 +0.0000000000000000e+00 -6.4999999986111112e-01 -3.0755232142715642e-02 -5.5197973352490304e-01 +5.6646324263030755e-03
-7.0000000000000007e-01 +8.5269865040028598e+00 +0.0000000000000000e+00 -6.9999999982653005e-01 -3.0755860982175528e-02 -5.5198679721642296e-01 +5.6657707331762832e-03
-7.5000000000000011e-01 +8.5269845071031938e+00 +0.0000000000000000e+00 -7.4999999978663812e-01 -3.0756512245386558e-02 -5.5199425340810349e-01 +5.6669043630875812e-03
-8.0000000000000016e-01 +8.5269823724753291e+00 +0.0000000000000000e+00 -7.9999999974105596e-01 -3.0757186139530039e-02 -5.5200210136026928e-01 +5.6680331568772302e-03
-8.5000000000000020e-01 +8.5269801001173064e+00 +0.0000000000000000e+00 -8.4999999968940398e-01 -3.0757882871788367e-02 -5.5201034033326235e-01 +5.6691569553850192e-03
-9.0000000000000024e-01 +8.5269776900270706e+00 +0.0000000000000000e+00 -8.9999999963130284e-01 -3.0758602649344911e-02 -5.5201896958744068e-01 +5.6702755994502037e-03
-9.5000000000000029e-01 +8.5269751422024687e+00 +0.0000000000000000e+00 -9.4999999956637293e-01 -3.0759345679384056e-02 -5.5202798838318068e-01 +5.6713889299115031e-03
-1.0000000000000002e+00 +8.5269724566412499e+00 +0.0000000000000000e+00 -9.9999999949423468e-01 -3.0760112169091136e-02 -5.5203739598087387e-01 +5.6724967876070594e-03
-1.0500000000000003e+00 +8.5269696333410678e+00 +0.0000000000000000e+00 -1.0499999994145086e+00 -3.0760902325652435e-02 -5.5204719164093041e-01 +5.6735990133744245e-03
-1.1000000000000003e+00 +8.5269666722994781e+00 +0.0000000000000000e+00 -1.0999999993268150e+00 -3.0761716356255145e-02 -5.5205737462377547e-01 +5.6746954480505173e-03
-1.1500000000000004e+00 +8.5269635735139389e+00 +0.0000000000000000e+00 -1.1499999992307746e+00 -3.0762554468087306e-02 -5.5206794418985172e-01 +5.6757859324716034e-03
-1.2000000000000004e+00 +8.5269603369818139e+00 +0.0000000000000000e+00 -1.1999999991260073e+00 -3.0763416868337858e-02 -5.5207889959961898e-01 +5.6768703074732653e-03
-1.2500000000000004e+00 +8.5269569627003694e+00 +0.0000000000000000e+00 -1.2499999990121338e+00 -3.0764303764196550e-02 -5.5209024011355157e-01 +5.6779484138903781e-03
-1.3000000000000005e+00 +8.5269534506667775e+00 +0.0000000000000000e+00 -1.2999999988887740e+00 -3.0765215362853936e-02 -5.5210196499214226e-01 +5.6790200925570808e-03
-1.3500000000000005e+00 +8.5269498008781106e+00 +0.0000000000000000e+00 -1.3499999987555487e+00 -3.0766151871501349e-02 -5.5211407349589892e-01 +5.6800851843067449e-03
-1.4000000000000006e+00 +8.5269460133313491e+00 +0.0000000000000000e+00 -1.3999999986120777e+00 -3.0767113497330852e-02 -5.5212656488534628e-01 +5.6811435299719496e-03
-1.4500000000000006e+00 +8.5269420880233753e+00 +0.0000000000000000e+00 -1.4499999984579814e+00 -3.0768100447535238e-02 -5.5213943842102498e-01 +5.6821949703844575e-03
-1.5000000000000007e+00 +8.5269380249509776e+00 +0.0000000000000000e+00 -1.4999999982928800e+00 -3.0769112929308000e-02 -5.5215269336349182e-01 +5.6832393463751808e-03
-1.5500000000000007e+00 +8.5269338241108485e+00 +0.0000000000000000e+00 -1.5499999981163937e+00 -3.0770151149843314e-02 -5.5216632897331919e-01 +5.6842764987741594e-03
-1.6000000000000008e+00 +8.5269294854995863e+00 +0.0000000000000000e+00 -1.5999999979281423e+00 -3.0771215316335948e-02 -5.5218034451109621e-01 +5.6853062684105241e-03
-1.6500000000000008e+00 +8.5269250091136932e+00 +0.0000000000000000e+00 -1.6499999977277462e+00 -3.0772305635981333e-02 -5.5219473923742768e-01 +5.6863284961124819e-03
-1.7000000000000008e+00 +8.5269203949495775e+00 +0.0000000000000000e+00 -1.6999999975148252e+00 -3.0773422315975449e-02 -5.5220951241293315e-01 +5.6873430227072771e-03
-1.7500000000000009e+00 +8.5269156430035551e+00 +0.0000000000000000e+00 -1.7499999972889995e+00 -3.0774565563514870e-02 -5.5222466329824926e-01 +5.6883496890211757e-03
-1.8000000000000009e+00 +8.5269107532718440e+00 +0.0000000000000000e+00 -1.7999999970498888e+00 -3.0775735585796694e-02 -5.5224019115402800e-01 +5.6893483358794253e-03
-1.8500000000000010e+00 +8.5269057257505700e+00 +0.0000000000000000e+00 -1.8499999967971132e+00 -3.0776932590018482e-02 -5.5225609524093622e-01 +5.6903388041062309e-03
-1.9000000000000010e+00 +8.5269005604357648e+00 +0.0000000000000000e+00 -1.8999999965302927e+00 -3.0778156783378339e-02 -5.5227237481965674e-01 +5.6913209345247351e-03
-1.9500000000000011e+00 +8.5268952573233676e+00 +0.0000000000000000e+00 -1.9499999962490469e+00 -3.0779408373074774e-02 -5.5228902915088807e-01 +5.6922945679569771e-03
-2.0000000000000009e+00 +8.5268898164092217e+00 +0.0000000000000000e+00 -1.9999999959529955e+00 -3.0780687566306756e-02 -5.5230605749534345e-01 +5.6932595452238782e-03
-2.0500000000000007e+00 +8.5268842376890799e+00 +0.0000000000000000e+00 -2.0499999956417585e+00 -3.0781994478589481e-02 -5.5232345887018486e-01 +5.6942157210326753e-03
-2.1000000000000005e+00 +8.5268785211585989e+00 +0.0000000000000000e+00 -2.0999999953149553e+00 -3.0783328858702007e-02 -5.5234123131831947e-01 +5.6951630056394503e-03
-2.1500000000000004e+00 +8.5268726668133468e+00 +0.0000000000000000e+00 -2.1499999949722057e+00 -3.0784690363739840e-02 -5.5235937263910295e-01 +5.6961013231869150e-03
-2.2000000000000002e+00 +8.5268666746487956e+00 +0.0000000000000000e+00 -2.1999999946131297e+00 -3.0786078650799010e-02 -5.5237788063190307e-01 +5.6970305978169657e-03
-2.2500000000000000e+00 +8.5268605446603267e+00 +0.0000000000000000e+00 -2.2499999942373461e+00 -3.0787493376976182e-02 -5.5239675309610126e-01 +5.6979507536706756e-03
-2.2999999999999998e+00 +8.5268542768432329e+00 +0.0000000000000000e+00 -2.2999999938444748e+00 -3.0788934199368623e-02 -5.5241598783109302e-01 +5.6988617148882956e-03
-2.3499999999999996e+00 +8.5268478711927145e+00 +0.0000000000000000e+00 -2.3499999934341353e+00 -3.0790400775074146e-02 -5.5243558263628667e-01 +5.6997634056092442e-03
-2.3999999999999995e+00 +8.5268413277038810e+00 +0.0000000000000000e+00 -2.3999999930059470e+00 -3.0791892761191087e-02 -5.5245553531110292e-01 +5.7006557499721016e-03
-2.4499999999999993e+00 +8.5268346463717553e+00 +0.0000000000000000e+00 -2.4499999925595293e+00 -3.0793409814818391e-02 -5.5247584365497704e-01 +5.7015386721146182e-03
-2.4999999999999991e+00 +8.5268278271912710e+00 +0.0000000000000000e+00 -2.4999999920945011e+00 -3.0794951593055495e-02 -5.5249650546735485e-01 +5.7024120961736875e-03
-2.5499999999999989e+00 +8.5268208701572714e+00 +0.0000000000000000e+00 -2.5499999916104819e+00 -3.0796517753002375e-02 -5.5251751854769693e-01 +5.7032759462853659e-03
-2.5999999999999988e+00 +8.5268137752645146e+00 +0.0000000000000000e+00 -2.5999999911070910e+00 -3.0798107951759527e-02 -5.5253888069547441e-01 +5.7041301465848519e-03
-2.6499999999999986e+00 +8.5268065425076713e+00 +0.0000000000000000e+00 -2.6499999905839475e+00 -3.0799721846427913e-02 -5.5256058971017208e-01 +5.7049746212064888e-03
-2.6999999999999984e+00 +8.5267991718813239e+00 +0.0000000000000000e+00 -2.6999999900406704e+00 -3.0801359094109044e-02 -5.5258264339128582e-01 +5.7058092942837554e-03
-2.7499999999999982e+00 +8.5267916633799707e+00 +0.0000000000000000e+00 -2.7499999894768785e+00 -3.0803019351904850e-02 -5.5260503953832418e-01 +5.7066340899492680e-03
-2.7999999999999980e+00 +8.5267840169980236e+00 +0.0000000000000000e+00 -2.7999999888921909e+00 -3.0804702276917784e-02 -5.5262777595080737e-01 +5.7074489323347679e-03
-2.8499999999999979e+00 +8.5267762327298087e+00 +0.0000000000000000e+00 -2.8499999882862266e+00 -3.0806407526250700e-02 -5.5265085042826700e-01 +5.7082537455711256e-03
-2.8999999999999977e+00 +8.5267683105695689e+00 +0.0000000000000000e+00 -2.8999999876586045e+00 -3.0808134757006934e-02 -5.5267426077024628e-01 +5.7090484537883285e-03
-2.9499999999999975e+00 +8.5267602505114635e+00 +0.0000000000000000e+00 -2.9499999870089431e+00 -3.0809883626290269e-02 -5.5269800477629993e-01 +5.7098329811154829e-03
-2.9999999999999973e+00 +8.5267520525495684e+00 +0.0000000000000000e+00 -2.9999999863368614e+00 -3.0811653791204843e-02 -5.5272208024599367e-01 +5.7106072516808033e-03
-3.0499999999999972e+00 +8.5267437166778777e+00 +0.0000000000000000e+00 -3.0499999856419779e+00 -3.0813444908855289e-02 -5.5274648497890455e-01 +5.7113711896116118e-03
-3.0999999999999970e+00 +8.5267352428903003e+00 +0.0000000000000000e+00 -3.0999999849239113e+00 -3.0815256636346600e-02 -5.5277121677461960e-01 +5.7121247190343319e-03
-3.1499999999999968e+00 +8.5267266311806669e+00 +0.0000000000000000e+00 -3.1499999841822799e+00 -3.0817088630784147e-02 -5.5279627343273818e-01 +5.7128677640744920e-03
-3.1999999999999966e+00 +8.5267178815427247e+00 +0.0000000000000000e+00 -3.1999999834167023e+00 -3.0818940549273713e-02 -5.5282165275286876e-01 +5.7136002488567062e-03
-3.2499999999999964e+00 +8.5267089939701428e+00 +0.0000000000000000e+00 -3.2499999826267971e+00 -3.0820812048921419e-02 -5.5284735253463102e-01 +5.7143220975046762e-03
-3.2999999999999963e+00 +8.5266999684565086e+00 +0.0000000000000000e+00 -3.2999999818121823e+00 -3.0822702786833755e-02 -5.5287337057765418e-01 +5.7150332341411947e-03
-3.3499999999999961e+00 +8.5266908049953294e+00 +0.0000000000000000e+00 -3.3499999809724761e+00 -3.0824612420117553e-02 -5.5289970468157845e-01 +5.7157335828881307e-03
-3.3999999999999959e+00 +8.5266815035800363e+00 +0.0000000000000000e+00 -3.3999999801072969e+00 -3.0826540605879967e-02 -5.5292635264605328e-01 +5.7164230678664243e-03
-3.4499999999999957e+00 +8.5266720642039786e+00 +0.0000000000000000e+00 -3.4499999792162628e+00 -3.0828487001228495e-02 -5.5295331227073874e-01 +5.7171016131960968e-03
-3.4999999999999956e+00 +8.5266624868604310e+00 +0.0000000000000000e+00 -3.4999999782989919e+00 -3.0830451263270948e-02 -5.5298058135530370e-01 +5.7177691429962244e-03
-3.5499999999999954e+00 +8.5266527715425884e+00 +0.0000000000000000e+00 -3.5499999773551019e+00 -3.0832433049115412e-02 -5.5300815769942713e-01 +5.7184255813849559e-03
-3.5999999999999952e+00 +8.5266429182435726e+00 +0.0000000000000000e+00 -3.5999999763842108e+00 -3.0834432015870265e-02 -5.5303603910279631e-01 +5.7190708524794851e-03
-3.6499999999999950e+00 +8.5266329269564256e+00 +0.0000000000000000e+00 -3.6499999753859367e+00 -3.0836447820644194e-02 -5.5306422336510941e-01 +5.7197048803960676e-03
-3.6999999999999948e+00 +8.5266227976741149e+00 +0.0000000000000000e+00 -3.6999999743598972e+00 -3.0838480120546127e-02 -5.5309270828607227e-01 +5.7203275892500089e-03
-3.7499999999999947e+00 +8.5266125303895333e+00 +0.0000000000000000e+00 -3.7499999733057101e+00 -3.0840528572685239e-02 -5.5312149166539992e-01 +5.7209389031556502e-03
-3.7999999999999945e+00 +8.5266021250954989e+00 +0.0000000000000000e+00 -3.7999999722229929e+00 -3.0842592834170960e-02 -5.5315057130281653e-01 +5.7215387462263767e-03
-3.8499999999999943e+00 +8.5265915817847571e+00 +0.0000000000000000e+00 -3.8499999711113628e+00 -3.0844672562112974e-02 -5.5317994499805434e-01 +5.7221270425746066e-03
-3.8999999999999941e+00 +8.5265809004499786e+00 +0.0000000000000000e+00 -3.8999999699704380e+00 -3.0846767413621148e-02 -5.5320961055085427e-01 +5.7227037163117885e-03
-3.9499999999999940e+00 +8.5265700810837632e+00 +0.0000000000000000e+00 -3.9499999687998351e+00 -3.0848877045805582e-02 -5.5323956576096522e-01 +5.7232686915483985e-03
-3.9999999999999938e+00 +8.5265591236786360e+00 +0.0000000000000000e+00 -3.9999999675991718e+00 -3.0851001115776582e-02 -5.5326980842814455e-01 +5.7238218923939309e-03
-4.0499999999999936e+00 +8.5265480282270492e+00 +0.0000000000000000e+00 -4.0499999663680653e+00 -3.0853139314006097e-02 -5.5330033621043995e-01 +5.7243632587754712e-03
-4.0999999999999934e+00 +8.5265367947213875e+00 +0.0000000000000000e+00 -4.0999999651061332e+00 -3.0855291464412540e-02 -5.5333114619903379e-01 +5.7248927938936753e-03
-4.1499999999999932e+00 +8.5265254231539647e+00 +0.0000000000000000e+00 -4.1499999638129914e+00 -3.0857457424276365e-02 -5.5336223534339135e-01 +5.7254105167673063e-03
-4.1999999999999931e+00 +8.5265139135170234e+00 +0.0000000000000000e+00 -4.1999999624882580e+00 -3.0859637050878533e-02 -5.5339360059297982e-01 +5.7259164464146337e-03
-4.2499999999999929e+00 +8.5265022658027370e+00 +0.0000000000000000e+00 -4.2499999611315493e+00 -3.0861830201500417e-02 -5.5342523889726547e-01 +5.7264106018534563e-03
-4.2999999999999927e+00 +8.5264904800032113e+00 +0.0000000000000000e+00 -4.2999999597424825e+00 -3.0864036733423906e-02 -5.5345714720571537e-01 +5.7268930021011060e-03
-4.3499999999999925e+00 +8.5264785561104866e+00 +0.0000000000000000e+00 -4.3499999583206748e+00 -3.0866256503931291e-02 -5.5348932246779614e-01 +5.7273636661744655e-03
-4.3999999999999924e+00 +8.5264664941165336e+00 +0.0000000000000000e+00 -4.3999999568657415e+00 -3.0868489370305417e-02 -5.5352176163297329e-01 +5.7278226130899638e-03
-4.4499999999999922e+00 +8.5264542940132593e+00 +0.0000000000000000e+00 -4.4499999553773000e+00 -3.0870735189829527e-02 -5.5355446165071198e-01 +5.7282698618636137e-03
-4.4999999999999920e+00 +8.5264419557925031e+00 +0.0000000000000000e+00 -4.4999999538549673e+00 -3.0872993819787291e-02 -5.5358741947047518e-01 +5.7287054315109864e-03
-4.5499999999999918e+00 +8.5264294794460440e+00 +0.0000000000000000e+00 -4.5499999522983590e+00 -3.0875265117462927e-02 -5.5362063204172440e-01 +5.7291293410472576e-03
-4.5999999999999917e+00 +8.5264168649655954e+00 +0.0000000000000000e+00 -4.5999999507070921e+00 -3.0877548940141029e-02 -5.5365409631391915e-01 +5.7295416094871919e-03
-4.6499999999999915e+00 +8.5264041123428065e+00 +0.0000000000000000e+00 -4.6499999490807822e+00 -3.0879845145106694e-02 -5.5368780923651639e-01 +5.7299422558451715e-03
-4.6999999999999913e+00 +8.5263912215692663e+00 +0.0000000000000000e+00 -4.6999999474190455e+00 -3.0882153589645432e-02 -5.5372176775897008e-01 +5.7303312991351879e-03
-4.7499999999999911e+00 +8.5263781926365017e+00 +0.0000000000000000e+00 -4.7499999457214983e+00 -3.0884474131043203e-02 -5.5375596883073119e-01 +5.7307087583708715e-03
-4.7999999999999909e+00 +8.5263650255359789e+00 +0.0000000000000000e+00 -4.7999999439877570e+00 -3.0886806626586459e-02 -5.5379040940124702e-01 +5.7310746525654913e-03
-4.8499999999999908e+00 +8.5263517202591057e+00 +0.0000000000000000e+00 -4.8499999422174369e+00 -3.0889150933562034e-02 -5.5382508641996075e-01 +5.7314290007319645e-03
-4.8999999999999906e+00 +8.5263382767972296e+00 +0.0000000000000000e+00 -4.8999999404101544e+00 -3.0891506909257242e-02 -5.5385999683631204e-01 +5.7317718218828743e-03
-4.9499999999999904e+00 +8.5263246951416409e+00 +0.0000000000000000e+00 -4.9499999385655249e+00 -3.0893874410959844e-02 -5.5389513759973485e-01 +5.7321031350304787e-03
-4.9999999999999902e+00 +8.5263109752835700e+00 +0.0000000000000000e+00 -4.9999999366831638e+00 -3.0896253295957996e-02 -5.5393050565965907e-01 +5.7324229591867093e-03
-5.0499999999999901e+00 +8.5262971172141935e+00 +0.0000000000000000e+00 -5.0499999347626874e+00 -3.0898643421540344e-02 -5.5396609796550900e-01 +5.7327313133631996e-03
-5.0999999999999899e+00 +8.5262831209246315e+00 +0.0000000000000000e+00 -5.0999999328037102e+00 -3.0901044644995917e-02 -5.5400191146670263e-01 +5.7330282165712855e-03
-5.1499999999999897e+00 +8.5262689864059489e+00 +0.0000000000000000e+00 -5.1499999308058477e+00 -3.0903456823614232e-02 -5.5403794311265298e-01 +5.7333136878220158e-03
-5.1999999999999895e+00 +8.5262547136491538e+00 +0.0000000000000000e+00 -5.1999999287687162e+00 -3.0905879814685171e-02 -5.5407418985276591e-01 +5.7335877461261644e-03
-5.2499999999999893e+00 +8.5262403026452027e+00 +0.0000000000000000e+00 -5.2499999266919302e+00 -3.0908313475499102e-02 -5.5411064863644077e-01 +5.7338504104942432e-03
-5.2999999999999892e+00 +8.5262257533850008e+00 +0.0000000000000000e+00 -5.2999999245751042e+00 -3.0910757663346805e-02 -5.5414731641306969e-01 +5.7341016999365039e-03
-5.3499999999999890e+00 +8.5262110658593979e+00 +0.0000000000000000e+00 -5.3499999224178545e+00 -3.0913212235519440e-02 -5.5418419013203757e-01 +5.7343416334629674e-03
-5.3999999999999888e+00 +8.5261962400591926e+00 +0.0000000000000000e+00 -5.3999999202197948e+00 -3.0915677049308650e-02 -5.5422126674272121e-01 +5.7345702300834077e-03
-5.4499999999999886e+00 +8.5261812759751354e+00 +0.0000000000000000e+00 -5.4499999179805405e+00 -3.0918151962006472e-02 -5.5425854319448919e-01 +5.7347875088073867e-03
-5.4999999999999885e+00 +8.5261661735979253e+00 +0.0000000000000000e+00 -5.4999999156997061e+00 -3.0920636830905353e-02 -5.5429601643670234e-01 +5.7349934886442491e-03
-5.5499999999999883e+00 +8.5261509329182132e+00 +0.0000000000000000e+00 -5.5499999133769071e+00 -3.0923131513298167e-02 -5.5433368341871092e-01 +5.7351881886031405e-03
-5.5999999999999881e+00 +8.5261355539266006e+00 +0.0000000000000000e+00 -5.5999999110117571e+00 -3.0925635866478195e-02 -5.5437154108985787e-01 +5.7353716276930160e-03
-5.6499999999999879e+00 +8.5261200366136425e+00 +0.0000000000000000e+00 -5.6499999086038715e+00 -3.0928149747739143e-02 -5.5440958639947513e-01 +5.7355438249226502e-03
-5.6999999999999877e+00 +8.5261043809698460e+00 +0.0000000000000000e+00 -5.6999999061528639e+00 -3.0930673014375104e-02 -5.5444781629688544e-01 +5.7357047993006494e-03
-5.7499999999999876e+00 +8.5260885869856722e+00 +0.0000000000000000e+00 -5.7499999036583489e+00 -3.0933205523680615e-02 -5.5448622773140077e-01 +5.7358545698354543e-03
-5.7999999999999874e+00 +8.5260726546515357e+00 +0.0000000000000000e+00 -5.7999999011199401e+00 -3.0935747132950588e-02 -5.5452481765232287e-01 +5.7359931555353719e-03
-5.8499999999999872e+00 +8.5260565839578106e+00 +0.0000000000000000e+00 -5.8499998985372521e+00 -3.0938297699480345e-02 -5.5456358300894204e-01 +5.7361205754085541e-03
