# field on trajectory
# s[mm] rx[mm] ry[mm] rz[mm] bx[T] by[T] bz[T]
-0.0000000000000000e+00 +8.5270000000000206e+00 +0.0000000000000000e+00 -0.0000000000000000e+00 -3.0242761179315146e-02 -5.8015721782223917e-01 +5.2772147302870206e-03
-5.0000000000000003e-02 +8.5269999273587000e+00 +0.0000000000000000e+00 -5.1282051281982703e-02 -3.0241997142204439e-02 -5.8016103970813426e-01 +5.2781300552756953e-03
-1.0000000000000001e-01 +8.5269997094401297e+00 +0.0000000000000000e+00 -1.0256410256355400e-01 -3.0241253503330220e-02 -5.8016522375378499e-01 +5.2790539448688625e-03
-1.4999999999999999e-01 +8.5269993462388793e+00 +0.0000000000000000e+00 -1.5384615384430200e-01 -3.0240530325693623e-02 -5.8016976917950558e-01 +5.2799863397747964e-03
-2.0000000000000001e-01 +8.5269988377622195e+00 +0.0000000000000000e+00 -2.0512820512381499e-01 -3.0239827672291868e-02 -5.8017467520552890e-01 +5.2809271807013440e-03
-2.5000000000000000e-01 +8.5269981840028795e+00 +0.0000000000000000e+00 -2.5641025640168202e-01 -3.0239145606129329e-02 -5.8017994105221693e-01 +5.2818764083575184e-03
-2.9999999999999999e-01 +8.5269973849644902e+00 +0.0000000000000000e+00 -3.0769230767749101e-01 -3.0238484190207131e-02 -5.8018556593986426e-01 +5.2828339634519994e-03
-3.4999999999999998e-01 +8.5269964406470500e+00 +0.0000000000000000e+00 -3.5897435895083102e-01 -3.0237843487529174e-02 -5.8019154908881010e-01 +5.2837997866939917e-03
-4.0000000000000002e-01 +8.5269953510505694e+00 +0.0000000000000000e+00 -4.1025641022129000e-01 -3.0237223561100611e-02 -5.8019788971941000e-01 +5.2847738187929982e-03
-4.5000000000000001e-01 +8.5269941161714105e+00 +0.0000000000000000e+00 -4.6153846148845601e-01 -3.0236624473929295e-02 -5.8020458705206379e-01 +5.2857560004590468e-03
-5.0000000000000000e-01 +8.5269927360132005e+00 +0.0000000000000000e+00 -5.1282051275191798e-01 -3.0236046289021472e-02 -5.8021164030713146e-01 +5.2867462724020256e-03
-5.5000000000000004e-01 +8.5269912105795793e+00 +0.0000000000000000e+00 -5.6410256401126402e-01 -3.0235489069384620e-02 -5.8021904870499019e-01 +5.2877445753321244e-03
-5.9999999999999998e-01 +8.5269895398632798e+00 +0.0000000000000000e+00 -6.1538461526608301e-01 -3.0234952878031938e-02 -5.8022681146611554e-01 +5.2887508499604692e-03
-6.5000000000000002e-01 +8.5269877238679292e+00 +0.0000000000000000e+00 -6.6666666651596296e-01 -3.0234437777973504e-02 -5.8023492781091646e-01 +5.2897650369978294e-03
-6.9999999999999996e-01 +8.5269857625899004e+00 +0.0000000000000000e+00 -7.1794871776049296e-01 -3.0233943832223689e-02 -5.8024339695987259e-01 +5.2907870771557002e-03
-7.5000000000000000e-01 +8.5269836560364602e+00 +0.0000000000000000e+00 -7.6923076899926102e-01 -3.0233471103793721e-02 -5.8025221813339645e-01 +5.2918169111452057e-03
-8.0000000000000004e-01 +8.5269814042003400e+00 +0.0000000000000000e+00 -8.2051282023185501e-01 -3.0233019655702038e-02 -5.8026139055202741e-01 +5.2928544796786168e-03
-8.4999999999999998e-01 +8.5269790070851705e+00 +0.0000000000000000e+00 -8.7179487145786405e-01 -3.0232589550964056e-02 -5.8027091343623671e-01 +5.2938997234678441e-03
-9.0000000000000002e-01 +8.5269764646909607e+00 +0.0000000000000000e+00 -9.2307692267687602e-01 -3.0232180852597934e-02 -5.8028078600653910e-01 +5.2949525832252826e-03
-9.4999999999999996e-01 +8.5269737770140601e+00 +0.0000000000000000e+00 -9.7435897388848103e-01 -3.0231793623624707e-02 -5.8029100748349227e-01 +5.2960129996638223e-03
-1.0000000000000000e+00 +8.5269709440617607e+00 +0.0000000000000000e+00 -1.0256410250922601e+00 -3.0231427927062345e-02 -5.8030157708758578e-01 +5.2970809134959673e-03
-1.0500000000000000e+00 +8.5269679658304103e+00 +0.0000000000000000e+00 -1.0769230762878199e+00 -3.0231083825934580e-02 -5.8031249403940799e-01 +5.2981562654351513e-03
-1.1000000000000001e+00 +8.5269648423163709e+00 +0.0000000000000000e+00 -1.1282051274747300e+00 -3.0230761383266577e-02 -5.8032375755956211e-01 +5.2992389961950661e-03
-1.1499999999999999e+00 +8.5269615735232893e+00 +0.0000000000000000e+00 -1.1794871786525800e+00 -3.0230460662081876e-02 -5.8033536686861076e-01 +5.3003290464892355e-03
-1.2000000000000000e+00 +8.5269581594511692e+00 +0.0000000000000000e+00 -1.2307692298209700e+00 -3.0230181725406941e-02 -5.8034732118715915e-01 +5.3014263570316574e-03
-1.2500000000000000e+00 +8.5269546000999998e+00 +0.0000000000000000e+00 -1.2820512809794800e+00 -3.0229924636269605e-02 -5.8035961973582684e-01 +5.3025308685365931e-03
-1.3000000000000000e+00 +8.5269508954661397e+00 +0.0000000000000000e+00 -1.3333333321277101e+00 -3.0229689457700624e-02 -5.8037226173527678e-01 +5.3036425217187644e-03
-1.3500000000000001e+00 +8.5269470455568808e+00 +0.0000000000000000e+00 -1.3846153832652299e+00 -3.0229476252727729e-02 -5.8038524640610256e-01 +5.3047612572925101e-03
-1.3999999999999999e+00 +8.5269430503649293e+00 +0.0000000000000000e+00 -1.4358974343916400e+00 -3.0229285084385986e-02 -5.8039857296902297e-01 +5.3058870159732700e-03
-1.4500000000000000e+00 +8.5269389098939392e+00 +0.0000000000000000e+00 -1.4871794855065199e+00 -3.0229116015707467e-02 -5.8041224064468844e-01 +5.3070197384760881e-03
-1.5000000000000000e+00 +8.5269346241439106e+00 +0.0000000000000000e+00 -1.5384615366094700e+00 -3.0228969109727194e-02 -5.8042624865379111e-01 +5.3081593655164658e-03
-1.5500000000000000e+00 +8.5269301931148203e+00 +0.0000000000000000e+00 -1.5897435877000701e+00 -3.0228844429481632e-02 -5.8044059621703714e-01 +5.3093058378101497e-03
-1.6000000000000001e+00 +8.5269256168030605e+00 +0.0000000000000000e+00 -1.6410256387779201e+00 -3.0228742038010174e-02 -5.8045528255517509e-01 +5.3104590960733403e-03
-1.6499999999999999e+00 +8.5269208952158806e+00 +0.0000000000000000e+00 -1.6923076898425899e+00 -3.0228661998349296e-02 -5.8047030688888335e-01 +5.3116190810218135e-03
-1.7000000000000000e+00 +8.5269160283460206e+00 +0.0000000000000000e+00 -1.7435897408936800e+00 -3.0228604373542828e-02 -5.8048566843896565e-01 +5.3127857333724578e-03
-1.7500000000000000e+00 +8.5269110161934805e+00 +0.0000000000000000e+00 -1.7948717919307799e+00 -3.0228569226633143e-02 -5.8050136642618422e-01 +5.3139589938419503e-03
-1.8000000000000000e+00 +8.5269058587655309e+00 +0.0000000000000000e+00 -1.8461538429534701e+00 -3.0228556620661200e-02 -5.8051740007125840e-01 +5.3151388031467649e-03
-1.8500000000000001e+00 +8.5269005560585391e+00 +0.0000000000000000e+00 -1.8974358939613500e+00 -3.0228566618673857e-02 -5.8053376859500583e-01 +5.3163251020042473e-03
-1.8999999999999999e+00 +8.5268951080688602e+00 +0.0000000000000000e+00 -1.9487179449540000e+00 -3.0228599283719498e-02 -5.8055047121825598e-01 +5.3175178311319644e-03
-1.9500000000000000e+00 +8.5268895148037700e+00 +0.0000000000000000e+00 -1.9999999959310100e+00 -3.0228654678843638e-02 -5.8056750716176975e-01 +5.3187169312470571e-03
-2.0000000000000000e+00 +8.5268838253941794e+00 +0.0000000000000000e+00 -2.0508474532398102e+00 -3.0228732060651971e-02 -5.8058472677028872e-01 +5.3199120930994782e-03
-2.0499999999999998e+00 +8.5268779929429002e+00 +0.0000000000000000e+00 -2.1016949105324101e+00 -3.0228831624820450e-02 -5.8060227080105320e-01 +5.3211133527522551e-03
-2.1000000000000001e+00 +8.5268720174499304e+00 +0.0000000000000000e+00 -2.1525423678083899e+00 -3.0228953145179916e-02 -5.8062013674596336e-01 +5.3223206028123367e-03
-2.1499999999999999e+00 +8.5268658989189099e+00 +0.0000000000000000e+00 -2.2033898250673700e+00 -3.0229096395559856e-02 -5.8063832209690391e-01 +5.3235337358866304e-03
-2.2000000000000002e+00 +8.5268596373498404e+00 +0.0000000000000000e+00 -2.2542372823089400e+00 -3.0229261149791190e-02 -5.8065682434579635e-01 +5.3247526445824337e-03
-2.2500000000000000e+00 +8.5268532327390893e+00 +0.0000000000000000e+00 -2.3050847395326799e+00 -3.0229447181706295e-02 -5.8067564098460089e-01 +5.3259772215074330e-03
-2.2999999999999998e+00 +8.5268466850902804e+00 +0.0000000000000000e+00 -2.3559321967382099e+00 -3.0229654265134475e-02 -5.8069476950523280e-01 +5.3272073592690438e-03
-2.3500000000000001e+00 +8.5268399943961395e+00 +0.0000000000000000e+00 -2.4067796539251201e+00 -3.0229882173909147e-02 -5.8071420739969992e-01 +5.3284429504754875e-03
-2.3999999999999999e+00 +8.5268331606675893e+00 +0.0000000000000000e+00 -2.4576271110930099e+00 -3.0230130681856170e-02 -5.8073395215988033e-01 +5.3296838877340521e-03
-2.4500000000000002e+00 +8.5268261838973594e+00 +0.0000000000000000e+00 -2.5084745682414700e+00 -3.0230399562808381e-02 -5.8075400127780175e-01 +5.3309300636532747e-03
-2.5000000000000000e+00 +8.5268190640890698e+00 +0.0000000000000000e+00 -2.5593220253701001e+00 -3.0230688590593746e-02 -5.8077435224541663e-01 +5.3321813708411790e-03
-2.5499999999999998e+00 +8.5268118012427294e+00 +0.0000000000000000e+00 -2.6101694824785100e+00 -3.0230997539041231e-02 -5.8079500255471539e-01 +5.3334377019061520e-03
-2.6000000000000001e+00 +8.5268043953510606e+00 +0.0000000000000000e+00 -2.6610169395662799e+00 -3.0231326181982179e-02 -5.8081594969775219e-01 +5.3346989494571636e-03
-2.6499999999999999e+00 +8.5267968464213499e+00 +0.0000000000000000e+00 -2.7118643966330200e+00 -3.0231674293241362e-02 -5.8083719116647847e-01 +5.3359650061024335e-03
-2.7000000000000002e+00 +8.5267891544535797e+00 +0.0000000000000000e+00 -2.7627118536783102e+00 -3.0232041646645794e-02 -5.8085872445291054e-01 +5.3372357644507536e-03
-2.7500000000000000e+00 +8.5267813194441295e+00 +0.0000000000000000e+00 -2.8135593107017698e+00 -3.0232428016023157e-02 -5.8088054704910030e-01 +5.3385111171112649e-03
-2.7999999999999998e+00 +8.5267733413966198e+00 +0.0000000000000000e+00 -2.8644067677029899e+00 -3.0232833175197340e-02 -5.8090265644705175e-01 +5.3397909566927889e-03
-2.8500000000000001e+00 +8.5267652203074196e+00 +0.0000000000000000e+00 -2.9152542246815600e+00 -3.0233256897994235e-02 -5.8092505013883355e-01 +5.3410751758047144e-03
-2.8999999999999999e+00 +8.5267569561765395e+00 +0.0000000000000000e+00 -2.9661016816370900e+00 -3.0233698958237239e-02 -5.8094772561649277e-01 +5.3423636670563131e-03
-2.9500000000000002e+00 +8.5267485490112396e+00 +0.0000000000000000e+00 -3.0169491385691698e+00 -3.0234159129745725e-02 -5.8097068037202881e-01 +5.3436563230565247e-03
-3.0000000000000000e+00 +8.5267399988042598e+00 +0.0000000000000000e+00 -3.0677965954773900e+00 -3.0234637186343807e-02 -5.8099391189756056e-01 +5.3449530364152965e-03
-3.0499999999999998e+00 +8.5267313055555896e+00 +0.0000000000000000e+00 -3.1186440523613599e+00 -3.0235132901851411e-02 -5.8101741768515702e-01 +5.3462536997422195e-03
-3.1000000000000001e+00 +8.5267224692688597e+00 +0.0000000000000000e+00 -3.1694915092206801e+00 -3.0235646050085704e-02 -5.8104119522686670e-01 +5.3475582056467692e-03
-3.1499999999999999e+00 +8.5267134899368102e+00 +0.0000000000000000e+00 -3.2203389660549400e+00 -3.0236176404866911e-02 -5.8106524201482912e-01 +5.3488664467391854e-03
-3.2000000000000002e+00 +8.5267043675703498e+00 +0.0000000000000000e+00 -3.2711864228637300e+00 -3.0236723740006386e-02 -5.8108955554104891e-01 +5.3501783156286687e-03
-3.2500000000000000e+00 +8.5266951021658297e+00 +0.0000000000000000e+00 -3.3220338796466700e+00 -3.0237287829319913e-02 -5.8111413329765083e-01 +5.3514937049254146e-03
-3.2999999999999998e+00 +8.5266856937196298e+00 +0.0000000000000000e+00 -3.3728813364033301e+00 -3.0237868446621678e-02 -5.8113897277676418e-01 +5.3528125072396958e-03
-3.3500000000000001e+00 +8.5266761422317394e+00 +0.0000000000000000e+00 -3.4237287931333298e+00 -3.0238465365722705e-02 -5.8116407147049653e-01 +5.3541346151816417e-03
-3.3999999999999999e+00 +8.5266664477057894e+00 +0.0000000000000000e+00 -3.4745762498362600e+00 -3.0239078360430827e-02 -5.8118942687093378e-01 +5.3554599213612233e-03
-3.4500000000000002e+00 +8.5266566101381596e+00 +0.0000000000000000e+00 -3.5254237065117100e+00 -3.0239707204554996e-02 -5.8121503647022210e-01 +5.3567883183889440e-03
-3.5000000000000000e+00 +8.5266466295324808e+00 +0.0000000000000000e+00 -3.5762711631592898e+00 -3.0240351671899361e-02 -5.8124089776045818e-01 +5.3581196988749073e-03
-3.5499999999999998e+00 +8.5266365058887494e+00 +0.0000000000000000e+00 -3.6271186197785901e+00 -3.0241011536267560e-02 -5.8126700823377064e-01 +5.3594539554295178e-03
-3.6000000000000001e+00 +8.5266262391996896e+00 +0.0000000000000000e+00 -3.6779660763692101e+00 -3.0241686571464182e-02 -5.8129336538234955e-01 +5.3607909806636829e-03
-3.6499999999999999e+00 +8.5266158294762100e+00 +0.0000000000000000e+00 -3.7288135329307499e+00 -3.0242376551284325e-02 -5.8131996669825003e-01 +5.3621306671872340e-03
-3.6999999999999900e+00 +8.5266052767074108e+00 +0.0000000000000000e+00 -3.7796609894627999e+00 -3.0243081249529759e-02 -5.8134680967369834e-01 +5.3634729076114133e-03
-3.7499999999999898e+00 +8.5265945809042005e+00 +0.0000000000000000e+00 -3.8305084459649699e+00 -3.0243800439991156e-02 -5.8137389180075849e-01 +5.3648175945461432e-03
-3.7999999999999901e+00 +8.5265837420592998e+00 +0.0000000000000000e+00 -3.8813559024368498e+00 -3.0244533896464278e-02 -5.8140121057163763e-01 +5.3661646206025239e-03
-3.8499999999999899e+00 +8.5265727601727104e+00 +0.0000000000000000e+00 -3.9322033588780299e+00 -3.0245281392739506e-02 -5.8142876347849126e-01 +5.3675138783912469e-03
-3.8999999999999901e+00 +8.5265616352480702e+00 +0.0000000000000000e+00 -3.9830508152881201e+00 -3.0246042702603317e-02 -5.8145654801344981e-01 +5.3688652605227991e-03
-3.9499999999999900e+00 +8.5265503672853793e+00 +0.0000000000000000e+00 -4.0338982716667102e+00 -3.0246817600240814e-02 -5.8148456165740670e-01 +5.3702186619495754e-03
-3.9999999999999898e+00 +8.5265389562773599e+00 +0.0000000000000000e+00 -4.0847457280134103e+00 -3.0247605864485091e-02 -5.8151280176031162e-01 +5.3715740048461960e-03
-4.0499999999999901e+00 +8.5265274022313005e+00 +0.0000000000000000e+00 -4.1355931843278002e+00 -3.0248407277161753e-02 -5.8154126558748354e-01 +5.3729312289488547e-03
-4.0999999999999899e+00 +8.5265157051508105e+00 +0.0000000000000000e+00 -4.1864406406094901e+00 -3.0249221620149050e-02 -5.8156995040286075e-01 +5.3742902742867655e-03
-4.1499999999999897e+00 +8.5265038650250098e+00 +0.0000000000000000e+00 -4.2372880968580704e+00 -3.0250048675332427e-02 -5.8159885347049245e-01 +5.3756510808901066e-03
-4.1999999999999904e+00 +8.5264918818611495e+00 +0.0000000000000000e+00 -4.2881355530731398e+00 -3.0250888224591214e-02 -5.8162797205428551e-01 +5.3770135887879853e-03
-4.2499999999999902e+00 +8.5264797556556005e+00 +0.0000000000000000e+00 -4.3389830092543002e+00 -3.0251740049810565e-02 -5.8165730341822974e-01 +5.3783777380102442e-03
-4.2999999999999901e+00 +8.5264674864120007e+00 +0.0000000000000000e+00 -4.3898304654011504e+00 -3.0252603932874066e-02 -5.8168684482625699e-01 +5.3797434685863357e-03
-4.3499999999999899e+00 +8.5264550741303502e+00 +0.0000000000000000e+00 -4.4406779215132799e+00 -3.0253479655668231e-02 -5.8171659354232452e-01 +5.3811107205459889e-03
-4.3999999999999897e+00 +8.5264425188070199e+00 +0.0000000000000000e+00 -4.4915253775902899e+00 -3.0254367000082560e-02 -5.8174654683041505e-01 +5.3824794339192182e-03
-4.4499999999999904e+00 +8.5264298204419902e+00 +0.0000000000000000e+00 -4.5423728336317897e+00 -3.0255265748006615e-02 -5.8177670195447972e-01 +5.3838495487358532e-03
-4.4999999999999902e+00 +8.5264169790425495e+00 +0.0000000000000000e+00 -4.5932202896373502e+00 -3.0256175681328587e-02 -5.8180705617841100e-01 +5.3852210050253152e-03
-4.5499999999999901e+00 +8.5264039945941494e+00 +0.0000000000000000e+00 -4.6440677456066002e+00 -3.0257096581947203e-02 -5.8183760676626572e-01 +5.3865937428184520e-03
-4.5999999999999899e+00 +8.5263908671149693e+00 +0.0000000000000000e+00 -4.6949152015391098e+00 -3.0258028231749536e-02 -5.8186835098184442e-01 +5.3879677021440699e-03
-4.6499999999999897e+00 +8.5263775965941004e+00 +0.0000000000000000e+00 -4.7457626574344998e+00 -3.0258970412636244e-02 -5.8189928608916730e-01 +5.3893428230328702e-03
-4.6999999999999904e+00 +8.5263641830315500e+00 +0.0000000000000000e+00 -4.7966101132923500e+00 -3.0259922906505331e-02 -5.8193040935216678e-01 +5.3907190455148917e-03
-4.7499999999999902e+00 +8.5263506264309399e+00 +0.0000000000000000e+00 -4.8474575691122697e+00 -3.0260885495255154e-02 -5.8196171803474150e-01 +5.3920963096199832e-03
-4.7999999999999901e+00 +8.5263369267886393e+00 +0.0000000000000000e+00 -4.8983050248938502e+00 -3.0261857960788886e-02 -5.8199320940084154e-01 +5.3934745553784781e-03
-4.8499999999999899e+00 +8.5263230841010191e+00 +0.0000000000000000e+00 -4.9491524806366902e+00 -3.0262840085011646e-02 -5.8202488071441150e-01 +5.3948537228207492e-03
-4.8999999999999897e+00 +8.5263090983826295e+00 +0.0000000000000000e+00 -4.9999999363403900e+00 -3.0263831649823103e-02 -5.8205672923924934e-01 +5.3962337519760234e-03
-4.9499999999999904e+00 +8.5262950649157592e+00 +0.0000000000000000e+00 -5.0505049848957304e+00 -3.0264825667602108e-02 -5.8208853602136024e-01 +5.3976052818236380e-03
-4.9999999999999902e+00 +8.5262808896768494e+00 +0.0000000000000000e+00 -5.1010100334114901e+00 -3.0265828570642302e-02 -5.8212051226063521e-01 +5.3989775439289801e-03
-5.0499999999999901e+00 +8.5262665726659197e+00 +0.0000000000000000e+00 -5.1515150818872497e+00 -3.0266840145231736e-02 -5.8215265527587146e-01 +5.4003504795257758e-03
-5.0999999999999899e+00 +8.5262521138793108e+00 +0.0000000000000000e+00 -5.2020201303226203e+00 -3.0267860177662118e-02 -5.8218496238588868e-01 +5.4017240298480087e-03
-5.1499999999999897e+00 +8.5262375133206696e+00 +0.0000000000000000e+00 -5.2525251787172103e+00 -3.0268888454224312e-02 -5.8221743090944278e-01 +5.4030981361292011e-03
-5.1999999999999904e+00 +8.5262227709863492e+00 +0.0000000000000000e+00 -5.3030302270706198e+00 -3.0269924761214324e-02 -5.8225005816533837e-01 +5.4044727396033651e-03
-5.2499999999999902e+00 +8.5262078868836397e+00 +0.0000000000000000e+00 -5.3535352753824403e+00 -3.0270968884925972e-02 -5.8228284147228793e-01 +5.4058477815038045e-03
-5.2999999999999901e+00 +8.5261928610125306e+00 +0.0000000000000000e+00 -5.4040403236522803e+00 -3.0272020611658321e-02 -5.8231577814905233e-01 +5.4072232030643059e-03
-5.3499999999999899e+00 +8.5261776933584805e+00 +0.0000000000000000e+00 -5.4545453718797399e+00 -3.0273079727718696e-02 -5.8234886551449594e-01 +5.4085989455195990e-03
-5.3999999999999897e+00 +8.5261623839360308e+00 +0.0000000000000000e+00 -5.5050504200644301e+00 -3.0274146019404955e-02 -5.8238210088725095e-01 +5.4099749501025389e-03
-5.4499999999999904e+00 +8.5261469327415398e+00 +0.0000000000000000e+00 -5.5555554682059496e+00 -3.0275219273024772e-02 -5.8241548158607981e-01 +5.4113511580471500e-03
-5.4999999999999902e+00 +8.5261313397750200e+00 +0.0000000000000000e+00 -5.6060605163038897e+00 -3.0276299274886825e-02 -5.8244900492970797e-01 +5.4127275105872201e-03
-5.5499999999999901e+00 +8.5261156050328299e+00 +0.0000000000000000e+00 -5.6565655643578596e+00 -3.0277385811303782e-02 -5.8248266823687933e-01 +5.4141039489567673e-03
-5.5999999999999899e+00 +8.5260997285186004e+00 +0.0000000000000000e+00 -5.7070706123674597e+00 -3.0278478668587915e-02 -5.8251646882627273e-01 +5.4154804143893348e-03
-5.6499999999999897e+00 +8.5260837102287006e+00 +0.0000000000000000e+00 -5.7575756603323001e+00 -3.0279577633057057e-02 -5.8255040401661162e-01 +5.4168568481189157e-03
-5.6999999999999904e+00 +8.5260675501704100e+00 +0.0000000000000000e+00 -5.8080807082519703e+00 -3.0280682491027239e-02 -5.8258447112652512e-01 +5.4182331913787893e-03
-5.7499999999999902e+00 +8.5260512483400799e+00 +0.0000000000000000e+00 -5.8585857561260797e+00 -3.0281793028821686e-02 -5.8261866747471702e-01 +5.4196093854029289e-03
-5.7999999999999901e+00 +8.5260348047340795e+00 +0.0000000000000000e+00 -5.9090908039542303e+00 -3.0282909032766321e-02 -5.8265299037987794e-01 +5.4209853714252895e-03
-5.8499999999999899e+00 +8.5260182193524106e+00 +0.0000000000000000e+00 -5.9595958517360303e+00 -3.0284030289188392e-02 -5.8268743716066085e-01 +5.4223610906795677e-03
