# multipoles
# s[mm] polynom_b[n=0][T/m^n] polynom_b[n=1][T/m^n] polynom_b[n=2][T/m^n] polynom_b[n=3][T/m^n] polynom_b[n=4][T/m^n] polynom_b[n=5][T/m^n] polynom_b[n=6][T/m^n] 
-0.0000000000000000e+00 -5.8015838952629950e-01 +7.6364255288941241e+00 +4.4285561713276458e+00 -6.5044203991096978e+01 +1.1743918757421639e+04 -8.5032181835773750e+04 -7.4209128171475321e+07 
-5.0000000000000003e-02 -5.8016211331172540e-01 +7.6365614088885394e+00 +4.4237260862133612e+00 -6.4687169267160357e+01 +1.1769540489493987e+04 -8.7066185079827832e+04 -7.4318294133005649e+07 
-1.0000000000000001e-01 -5.8016618160153333e-01 +7.6367159767841022e+00 +4.4182957104500966e+00 -6.4323578438435234e+01 +1.1797904078015634e+04 -8.9145742156431821e+04 -7.4440085901545420e+07 
-1.4999999999999999e-01 -5.8017059366041146e-01 +7.6368891585644008e+00 +4.4122802015362970e+00 -6.3953534967095443e+01 +1.1828812501555785e+04 -9.1269043765325492e+04 -7.4573588674427465e+07 
-2.0000000000000001e-01 -5.8017534875312515e-01 +7.6370808802039551e+00 +4.4056947161658044e+00 -6.3577141920353753e+01 +1.1862068753755813e+04 -9.3434283836439587e+04 -7.4717887724575967e+07 
-2.5000000000000000e-01 -5.8018044614434205e-01 +7.6372910676884089e+00 +4.3985544105000676e+00 -6.3194502779653334e+01 +1.1897475843467882e+04 -9.5639652944319867e+04 -7.4872068429927856e+07 
-2.9999999999999999e-01 -5.8018588509882207e-01 +7.6375196469960285e+00 +4.3908744390247740e+00 -6.2805720695163501e+01 +1.1934836831927083e+04 -9.7883344393179388e+04 -7.5035216553213254e+07 
-3.4999999999999998e-01 -5.8019166488134688e-01 +7.6377665441115026e+00 +4.3826699580290800e+00 -6.2410899049424764e+01 +1.1973954723443139e+04 -1.0016354960411420e+05 -7.5206417437295228e+07 
-4.0000000000000002e-01 -5.8019778475662975e-01 +7.6380316850180545e+00 +4.3739561236965834e+00 -6.2010141153076731e+01 +1.2014632526912139e+04 -1.0247846051024341e+05 -7.5384756466544986e+07 
-4.5000000000000001e-01 -5.8020424398948789e-01 +7.6383149956998846e+00 +4.3647480927813351e+00 -6.1603550304905397e+01 +1.2056673239796697e+04 -1.0482626925397707e+05 -7.5569318963291943e+07 
-5.0000000000000000e-01 -5.8021104184471184e-01 +7.6386164021400953e+00 +4.3550610201908615e+00 -6.1191229747984778e+01 +1.2099879902151839e+04 -1.0720516836823538e+05 -7.5759190507220134e+07 
-5.5000000000000004e-01 -5.8021817758708305e-01 +7.6389358303249928e+00 +4.3449100611162761e+00 -6.0773282827437832e+01 +1.2144055552748721e+04 -1.0961334956218310e+05 -7.5953456699138239e+07 
-5.9999999999999998e-01 -5.8022565048148533e-01 +7.6392732062412998e+00 +4.3343103718758149e+00 -6.0349812866315141e+01 +1.2189003195105359e+04 -1.1204900478893891e+05 -7.6151202881030425e+07 
-6.5000000000000002e-01 -5.8023345979274354e-01 +7.6396284558757372e+00 +4.3232771099030458e+00 -5.9920923187376232e+01 +1.2234525807359581e+04 -1.1451032588159000e+05 -7.6351514242181450e+07 
-6.9999999999999996e-01 -5.8024160478567355e-01 +7.6400015052137906e+00 +4.3118254295117842e+00 -5.9486717015633488e+01 +1.2280426443938741e+04 -1.1699550557152448e+05 -7.6553476458478704e+07 
-7.5000000000000000e-01 -5.8025008472517059e-01 +7.6403922802439483e+00 +4.2999704854362166e+00 -5.9047297684080121e+01 +1.2326508157855575e+04 -1.1950273566379790e+05 -7.6756175235644862e+07 
-8.0000000000000004e-01 -5.8025889887613102e-01 +7.6408007069526649e+00 +4.2877274363555395e+00 -5.8602768423640129e+01 +1.2372573883044104e+04 -1.2203020877894547e+05 -7.6958695425305352e+07 
-8.4999999999999998e-01 -5.8026804650343444e-01 +7.6412267113303241e+00 +4.2751114341333292e+00 -5.8153232592577375e+01 +1.2418426751696659e+04 -1.2457611652238722e+05 -7.7160123277451977e+07 
-9.0000000000000002e-01 -5.8027752687201339e-01 +7.6416702193659196e+00 +4.2621376385390937e+00 -5.7698793491349754e+01 +1.2463869669839754e+04 -1.2713865087679923e+05 -7.7359543462303191e+07 
-9.4999999999999996e-01 -5.8028733924675036e-01 +7.6421311570472081e+00 +4.2488212027707117e+00 -5.7239554316656310e+01 +1.2508705725737173e+04 -1.2971600479261781e+05 -7.7556041906314939e+07 
-1.0000000000000000e+00 -5.8029748289264060e-01 +7.6426094503640325e+00 +4.2351772823451892e+00 -5.6775618361851421e+01 +1.2552737945990117e+04 -1.3230637029672292e+05 -7.7748704118267730e+07 
-1.0500000000000000e+00 -5.8030795707461924e-01 +7.6431050253061255e+00 +4.2212210348502275e+00 -5.6307088878960045e+01 +1.2595769298168960e+04 -1.3490793979010786e+05 -7.7936615200491175e+07 
-1.1000000000000001e+00 -5.8031876105761571e-01 +7.6436178078631523e+00 +4.2069676144919326e+00 -5.5834069105743012e+01 +1.2637602841527912e+04 -1.3751890573900350e+05 -7.8118860876655608e+07 
-1.1499999999999999e+00 -5.8032989410664193e-01 +7.6441477240263547e+00 +4.1924321774240552e+00 -5.5356662316421975e+01 +1.2678041585856377e+04 -1.4013746035177386e+05 -7.8294526549633071e+07 
-1.2000000000000000e+00 -5.8034135548669041e-01 +7.6446946997835870e+00 +4.1776298797067284e+00 -5.4874971637563895e+01 +1.2716888535652548e+04 -1.4276179697087427e+05 -7.8462697557644561e+07 
-1.2500000000000000e+00 -5.8035314446276709e-01 +7.6452586611273858e+00 +4.1625758766331904e+00 -5.4389100374447644e+01 +1.2753946722686631e+04 -1.4539010744286206e+05 -7.8622459449470773e+07 
-1.3000000000000000e+00 -5.8036526029989366e-01 +7.6458395340453480e+00 +4.1472853244529766e+00 -5.3899151599094274e+01 +1.2789019150539969e+04 -1.4802058555658790e+05 -7.8772897577336013e+07 
-1.3500000000000001e+00 -5.8037770226309582e-01 +7.6464372445328204e+00 +4.1317733775480407e+00 -5.3405228704460946e+01 +1.2821908870826983e+04 -1.5065142235621807e+05 -7.8913097607380152e+07 
-1.3999999999999999e+00 -5.8039046961740703e-01 +7.6470517185750015e+00 +4.1160551945557504e+00 -5.2907434631148355e+01 +1.2852418822611340e+04 -1.5328081266222781e+05 -7.9042144458475068e+07 
-1.4500000000000000e+00 -5.8040356162792917e-01 +7.6476828821651841e+00 +4.1001459292082894e+00 -5.2405872664870458e+01 +1.2880352073123131e+04 -1.5590694832468595e+05 -7.9159123900060520e+07 
-1.5000000000000000e+00 -5.8041697755967714e-01 +7.6483306612919177e+00 +4.0840607368173076e+00 -5.1900645854152863e+01 +1.2905511651871479e+04 -1.5852802321455456e+05 -7.9263121465286613e+07 
-1.5500000000000000e+00 -5.8043071667776902e-01 +7.6489949819469629e+00 +4.0678147745084043e+00 -5.1391857380641895e+01 +1.2927700535712142e+04 -1.6114223002302329e+05 -7.9353222322561577e+07 
-1.6000000000000001e+00 -5.8044477824729501e-01 +7.6496757701198153e+00 +4.0514231968237819e+00 -5.0879610329846905e+01 +1.2946721770520637e+04 -1.6374776215418236e+05 -7.9428512101324379e+07 
-1.6499999999999999e+00 -5.8045916153337607e-01 +7.6503729517989472e+00 +4.0349011619614545e+00 -5.0364007718642853e+01 +1.2962378301876170e+04 -1.6634281359660922e+05 -7.9488075752511173e+07 
-1.7000000000000000e+00 -5.8047386580111759e-01 +7.6510864529747797e+00 +4.0182638226848706e+00 -4.9845152646526032e+01 +1.2974473226729508e+04 -1.6892557757492125e+05 -7.9530999268088430e+07 
-1.7500000000000000e+00 -5.8048889031566586e-01 +7.6518161996376683e+00 +4.0015263371451111e+00 -4.9323148177711552e+01 +1.2982809490852034e+04 -1.7149424763328623e+05 -7.9556367598311216e+07 
-1.8000000000000000e+00 -5.8050423434213527e-01 +7.6525621177754495e+00 +3.9847038608054492e+00 -4.8798097293219215e+01 +1.2987190113435834e+04 -1.7404701784307955e+05 -7.9563266195717379e+07 
-1.8500000000000001e+00 -5.8051989714571006e-01 +7.6533241333766098e+00 +3.9678115490933510e+00 -4.8270102975161890e+01 +1.2987418115321683e+04 -1.7658208230176696e+05 -7.9550780526826635e+07 
-1.8999999999999999e+00 -5.8053587799158812e-01 +7.6541021724301608e+00 +3.9508645580326176e+00 -4.7739268222633271e+01 +1.2983296499879605e+04 -1.7909763488722141e+05 -7.9517995938507244e+07 
-1.9500000000000000e+00 -5.8055217614490318e-01 +7.6548961609234851e+00 +3.9338780450604283e+00 -4.7205695956873654e+01 +1.2974628230789081e+04 -1.8159187008364231e+05 -7.9463997504817590e+07 
-2.0000000000000000e+00 -5.8056879087086966e-01 +7.6557060248423161e+00 +3.9168671648542910e+00 -4.6669489034262888e+01 +1.2961216348454727e+04 -1.8406298281654870e+05 -7.9387870830110446e+07 
-2.0499999999999998e+00 -5.8058572116245033e-01 +7.6565316818391222e+00 +3.8998432397101395e+00 -4.6130843718901900e+01 +1.2942930530107638e+04 -1.8650898387486339e+05 -7.9289021357539698e+07 
-2.1000000000000001e+00 -5.8060296492035102e-01 +7.6573730182140292e+00 +3.8828020034245845e+00 -4.5590285120598864e+01 +1.2919910510278145e+04 -1.8892749724094762e+05 -7.9168146624788806e+07 
-2.1499999999999999e+00 -5.8062051977125173e-01 +7.6582299087620598e+00 +3.8657354418808505e+00 -4.5048414636460080e+01 +1.2892364515136185e+04 -1.9131613726372519e+05 -7.9026270596041039e+07 
-2.2000000000000002e+00 -5.8063838334194906e-01 +7.6591022282755068e+00 +3.8486355452724585e+00 -4.4505833566465348e+01 +1.2860500651548127e+04 -1.9367251902198288e+05 -7.8864416412306026e+07 
-2.2500000000000000e+00 -5.8065655325920196e-01 +7.6599898515479694e+00 +3.8314943004895521e+00 -4.3963143242984884e+01 +1.2824527116864992e+04 -1.9599425735728879e+05 -7.8683607835275203e+07 
-2.2999999999999998e+00 -5.8067502714980501e-01 +7.6608926533725725e+00 +3.8143036942300226e+00 -4.3420944965081688e+01 +1.2784652112512864e+04 -1.9827896739518936e+05 -7.8484868647777140e+07 
-2.3500000000000001e+00 -5.8069380264049253e-01 +7.6618105085457415e+00 +3.7970557153887912e+00 -4.2879840147025128e+01 +1.2741083784923487e+04 -2.0052426334034937e+05 -7.8269222277531803e+07 
-2.3999999999999999e+00 -5.8071287735808441e-01 +7.6627432918619709e+00 +3.7797423517319002e+00 -4.2340430133236453e+01 +1.2694030307571547e+04 -2.0272775990616530e+05 -7.8037692319526792e+07 
-2.4500000000000002e+00 -5.8073224892935049e-01 +7.6636908781159319e+00 +3.7623555904377017e+00 -4.1803316232043606e+01 +1.2643699875879814e+04 -2.0488707221538620e+05 -7.7791302543919086e+07 
-2.5000000000000000e+00 -5.8075191498116141e-01 +7.6646531421049291e+00 +3.7448874204025833e+00 -4.1269099877836084e+01 +1.2590300633314255e+04 -2.0699981427340361e+05 -7.7531076343592077e+07 
-2.5499999999999998e+00 -5.8077187314030565e-01 +7.6656299586257841e+00 +3.7273298289436525e+00 -4.0738382454635186e+01 +1.2534040772213761e+04 -2.0906360055606664e+05 -7.7258037468305409e+07 
-2.6000000000000001e+00 -5.8079212103358890e-01 +7.6666212024741593e+00 +3.7096748054080102e+00 -4.0211765299935379e+01 +1.2475128428133787e+04 -2.1107604589382146e+05 -7.6973209276412234e+07 
-2.6499999999999999e+00 -5.8081265628789813e-01 +7.6676267484488960e+00 +3.6919143365995741e+00 -3.9689849853468758e+01 +1.2413771809031683e+04 -2.1303476437117206e+05 -7.6677615623944268e+07 
-2.7000000000000002e+00 -5.8083347653002226e-01 +7.6686464713469160e+00 +3.6740404112956333e+00 -3.9173237482057928e+01 +1.2350179064622846e+04 -2.1493737059332171e+05 -7.6372279959864974e+07 
-2.7500000000000000e+00 -5.8085457938685259e-01 +7.6696802459675029e+00 +3.6560450192758691e+00 -3.8662529627459165e+01 +1.2284558327549656e+04 -2.1678147862989714e+05 -7.6058225652264252e+07 
-2.7999999999999998e+00 -5.8087596248526652e-01 +7.6707279471124084e+00 +3.6379201468427236e+00 -3.8158327833373619e+01 +1.2217117819956091e+04 -2.1856470168372084e+05 -7.5736476655084476e+07 
-2.8500000000000001e+00 -5.8089762345208018e-01 +7.6717894495777852e+00 +3.6196577833772206e+00 -3.7661233383118876e+01 +1.2148065681597800e+04 -2.2028465518395285e+05 -7.5408056370520324e+07 
-2.8999999999999999e+00 -5.8091955991420618e-01 +7.6728646281670336e+00 +3.6012499185989295e+00 -3.7171847870950280e+01 +1.2077610046935770e+04 -2.2193895193994913e+05 -7.5073988174660191e+07 
-2.9500000000000002e+00 -5.8094176949851517e-01 +7.6739533576821000e+00 +3.5826885390204124e+00 -3.6690772799454095e+01 +1.2005959137408559e+04 -2.2352520561722264e+05 -7.4735296036377802e+07 
-3.0000000000000000e+00 -5.8096424983190487e-01 +7.6750555129235662e+00 +3.5639656343655184e+00 -3.6218609625648419e+01 +1.1933321089767494e+04 -2.2504103020651010e+05 -7.4393003353727326e+07 
-3.0499999999999998e+00 -5.8098699854124691e-01 +7.6761709686941595e+00 +3.5450731941076499e+00 -3.5755959860361791e+01 +1.1859904043578710e+04 -2.2648403937340926e+05 -7.4048133530585185e+07 
-3.1000000000000001e+00 -5.8101001325349944e-01 +7.6772995997977960e+00 +3.5260032060360347e+00 -3.5303425073881684e+01 +1.1785916197465280e+04 -2.2785184623908487e+05 -7.3701710420686156e+07 
-3.1499999999999999e+00 -5.8103329159555450e-01 +7.6784412810390377e+00 +3.5067476610818993e+00 -3.4861606844747712e+01 +1.1711565654231938e+04 -2.2914206392892744e+05 -7.3354757185024604e+07 
-3.2000000000000002e+00 -5.8105683119431206e-01 +7.6795958872215779e+00 +3.4872985450042697e+00 -3.4431106707090557e+01 +1.1637060663776327e+04 -2.3035230594695918e+05 -7.3008298005581260e+07 
-3.2500000000000000e+00 -5.8108062967669283e-01 +7.6807632931536958e+00 +3.4676478509862099e+00 -3.4012526379903377e+01 +1.1562609278342232e+04 -2.3148018428895940e+05 -7.2663355738799781e+07 
-3.2999999999999998e+00 -5.8110468466964482e-01 +7.6819433736392710e+00 +3.4477875666990778e+00 -3.3606467378387180e+01 +1.1488419697072384e+04 -2.3252331272403969e+05 -7.2320954225192487e+07 
-3.3500000000000001e+00 -5.8112899380012861e-01 +7.6831360034870499e+00 +3.4277096803987819e+00 -3.3213531421734118e+01 +1.1414700108714604e+04 -2.3347930332992965e+05 -7.1982117251413003e+07 
-3.3999999999999999e+00 -5.8115355469503338e-01 +7.6843410575058888e+00 +3.4074061822857762e+00 -3.2834320216138394e+01 +1.1341658647303715e+04 -2.3434576834687323e+05 -7.1647868226569057e+07 
-3.4500000000000002e+00 -5.8117836498134434e-01 +7.6855584105014447e+00 +3.3868690633472980e+00 -3.2469435340516057e+01 +1.1269503431148640e+04 -2.3512032105505065e+05 -7.1319230470962226e+07 
-3.5000000000000000e+00 -5.8120342228600974e-01 +7.6867879372883561e+00 +3.3660903123989114e+00 -3.2119478712454679e+01 +1.1198442636071191e+04 -2.3580057208162046e+05 -7.0997227688652560e+07 
-3.5499999999999998e+00 -5.8122872423598637e-01 +7.6880295126746416e+00 +3.3450619186397286e+00 -3.1785051997860464e+01 +1.1128684432640595e+04 -2.3638413404550284e+05 -7.0682883564508319e+07 
-3.6000000000000001e+00 -5.8125426845826844e-01 +7.6892830114730142e+00 +3.3237758723436102e+00 -3.1466757015580924e+01 +1.1060436962648148e+04 -2.3686861848745839e+05 -7.0377221588305101e+07 
-3.6499999999999999e+00 -5.8128005257974580e-01 +7.6905483084942627e+00 +3.3022241643146324e+00 -3.1165195524662824e+01 +1.0993908355787677e+04 -2.3725163735195878e+05 -7.0081265173999161e+07 
-3.6999999999999900e+00 -5.8130607422747738e-01 +7.6918252785550383e+00 +3.2803987847239964e+00 -3.0880969498624719e+01 +1.0929306760893009e+04 -2.3753080096588068e+05 -6.9796037869320378e+07 
-3.7499999999999898e+00 -5.8133233102840332e-01 +7.6931137964659042e+00 +3.2582917220926597e+00 -3.0614680672531669e+01 +1.0866840373281530e+04 -2.3770372157970830e+05 -6.9522563543472499e+07 
-3.7999999999999901e+00 -5.8135882060949917e-01 +7.6944137370455818e+00 +3.2358949701475694e+00 -3.0366931083764374e+01 +1.0806717251024264e+04 -2.3776800909181169e+05 -6.9261865145963043e+07 
-3.8499999999999899e+00 -5.8138554059778680e-01 +7.6957249751096413e+00 +3.2132005156632175e+00 -3.0138322651537091e+01 +1.0749145642142581e+04 -2.3772127437479305e+05 -6.9014966918203264e+07 
-3.8999999999999901e+00 -5.8141248862022243e-01 +7.6970473854757167e+00 +3.1902003529608782e+00 -2.9929457371911429e+01 +1.0694333590318200e+04 -2.3756112770527243e+05 -6.8782891713381246e+07 
-3.9499999999999900e+00 -5.8143966230384614e-01 +7.6983808429598612e+00 +3.1668864705783903e+00 -2.9740937157389155e+01 +1.0642489302779903e+04 -2.3728518016148114e+05 -6.8566663517290130e+07 
-3.9999999999999898e+00 -5.8146705927560705e-01 +7.6997252223866335e+00 +3.1432508603487888e+00 -2.9573364277891734e+01 +1.0593820897296922e+04 -2.3689103982819917e+05 -6.8367305702641413e+07 
-4.0499999999999901e+00 -5.8149467712405523e-01 +7.7010803855960264e+00 +3.1192880602375403e+00 -2.9427086285572095e+01 +1.0548493928213367e+04 -2.3637769343983929e+05 -6.8185629484155297e+07 
-4.0999999999999899e+00 -5.8152251328385896e-01 +7.7024461394100090e+00 +3.0950035107108427e+00 -2.9301480123141136e+01 +1.0506490297446799e+04 -2.3574925337777284e+05 -6.8021525539565817e+07 
-4.1499999999999897e+00 -5.8155056515106718e-01 +7.7038222760863642e+00 +3.0704055601758888e+00 -2.9195691938604508e+01 +1.0467742987193058e+04 -2.3501101846095832e+05 -6.7874638905683666e+07 
-4.1999999999999904e+00 -5.8157883012192080e-01 +7.7052085878884888e+00 +3.0455025605743526e+00 -2.9108868134481071e+01 +1.0432184894331191e+04 -2.3416828541026055e+05 -6.7744614077692360e+07 
-4.2499999999999902e+00 -5.8160730559254525e-01 +7.7066048670726142e+00 +3.0203028641554863e+00 -2.9040154819471127e+01 +1.0399748897442207e+04 -2.3322635340387520e+05 -6.7631095388250262e+07 
-4.2999999999999901e+00 -5.8163598895908231e-01 +7.7080109059039357e+00 +2.9948148207464329e+00 -2.8988698479999250e+01 +1.0370367943821017e+04 -2.3219051850343298e+05 -6.7533727645705149e+07 
-4.3499999999999899e+00 -5.8166487761767172e-01 +7.7094264966376702e+00 +2.9690467799916069e+00 -2.8953645212521604e+01 +1.0343974986519621e+04 -2.3106607993583582e+05 -6.7452155700378910e+07 
-4.3999999999999897e+00 -5.8169396896444070e-01 +7.7108514315345564e+00 +2.9430070949651972e+00 -2.8934141336868247e+01 +1.0320502880882361e+04 -2.2985833515775716e+05 -6.7386023724227861e+07 
-4.4499999999999904e+00 -5.8172326039557909e-01 +7.7122855028523647e+00 +2.9167041148053707e+00 -2.8929333073755274e+01 +1.0299884589100786e+04 -2.2857258238550613e+05 -6.7334976609103769e+07 
-4.4999999999999902e+00 -5.8175274930719256e-01 +7.7137285028523266e+00 +2.8901461893212494e+00 -2.8938366800419676e+01 +1.0282053055104248e+04 -2.2721411853460930e+05 -6.7298659127313048e+07 
-4.5499999999999901e+00 -5.8178243309539523e-01 +7.7151802237889395e+00 +2.8633416701244134e+00 -2.8960388615478752e+01 +1.0266941168823227e+04 -2.2578824287337804e+05 -6.7276715660222247e+07 
-4.5999999999999899e+00 -5.8181230915634019e-01 +7.7166404579234724e+00 +2.8362989057507373e+00 -2.8994544920426385e+01 +1.0254481910601571e+04 -2.2430025212473390e+05 -6.7268791232247919e+07 
-4.6499999999999897e+00 -5.8184237488617241e-01 +7.7181089975114165e+00 +2.8090262495607634e+00 -2.9039981892544581e+01 +1.0244608120159714e+04 -2.2275544486086615e+05 -6.7274529874895960e+07 
-4.6999999999999904e+00 -5.8187262768102666e-01 +7.7195856348086718e+00 +2.7815320485327657e+00 -2.9095845741428558e+01 +1.0237252810099544e+04 -2.2115911938529639e+05 -6.7293576792159662e+07 
-4.7499999999999902e+00 -5.8190306493697264e-01 +7.7210701620740529e+00 +2.7538246528908075e+00 -2.9161282802947774e+01 +1.0232348909648113e+04 -2.1951657297193617e+05 -6.7325576638035014e+07 
-4.7999999999999901e+00 -5.8193368405015278e-01 +7.7225623715604259e+00 +2.7259124124448149e+00 -2.9235439192745904e+01 +1.0229829348630219e+04 -2.1783310468854907e+05 -6.7370174029495716e+07 
-4.8499999999999899e+00 -5.8196448241666154e-01 +7.7240620555252173e+00 +2.6978036781852137e+00 -2.9317461226449879e+01 +1.0229627034684660e+04 -2.1611401195782374e+05 -6.7427013473323300e+07 
-4.8999999999999897e+00 -5.8199545743267800e-01 +7.7255690062246751e+00 +2.6695067978757270e+00 -2.9406495189396928e+01 +1.0231674948079013e+04 -2.1436459245624483e+05 -6.7495739906957299e+07 
-4.9499999999999904e+00 -5.8202660649419358e-01 +7.7270830159096793e+00 +2.6410301205113060e+00 -2.9501687166838561e+01 +1.0235906049032619e+04 -2.1259014546315468e+05 -6.7575998186203092e+07 
-4.9999999999999902e+00 -5.8205792699739201e-01 +7.7286038768354430e+00 +2.6123819965019690e+00 -2.9602183438019186e+01 +1.0242253241046981e+04 -2.1079596869139295e+05 -6.7667432709823489e+07 
-5.0499999999999901e+00 -5.8208941634077205e-01 +7.7301313732145243e+00 +2.5835711629385227e+00 -2.9707137411926052e+01 +1.0250649506476106e+04 -2.0898736230014075e+05 -6.7769688174304590e+07 
