# trajectory
# s[mm] rx[mm] ry[mm] rz[mm] px[rad] py[rad] pz[rad]
0.0000000000000000e+00 +8.5389999999999997e+00 +0.0000000000000000e+00 +0.0000000000000000e+00 +0.0000000000000000e+00 +0.0000000000000000e+00 +1.0000000000000000e+00
-5.0000000000000003e-02 +8.5389999310390383e+00 +0.0000000000000000e+00 -4.9999999999936581e-02 +2.7584391688780796e-06 +0.0000000000000000e+00 +9.9999999999619549e-01
-1.0000000000000001e-01 +8.5389997241559978e+00 +0.0000000000000000e+00 -9.9999999999492717e-02 +5.5168834479313918e-06 +0.0000000000000000e+00 +9.9999999998478195e-01
-1.5000000000000002e-01 +8.5389993793505763e+00 +0.0000000000000000e+00 -1.4999999999828795e-01 +8.2753347194387381e-06 +0.0000000000000000e+00 +9.9999999996575939e-01
-2.0000000000000001e-01 +8.5389988966223775e+00 +0.0000000000000000e+00 -1.9999999999594184e-01 +1.1033794861790250e-05 +0.0000000000000000e+00 +9.9999999993912769e-01
-2.5000000000000000e-01 +8.5389982759709113e+00 +0.0000000000000000e+00 -2.4999999999207390e-01 +1.3792265749487479e-05 +0.0000000000000000e+00 +9.9999999990488675e-01
-2.9999999999999999e-01 +8.5389975173955932e+00 +0.0000000000000000e+00 -2.9999999998630367e-01 +1.6550749253143475e-05 +0.0000000000000000e+00 +9.9999999986303645e-01
-3.4999999999999998e-01 +8.5389966208957446e+00 +0.0000000000000000e+00 -3.4999999997825071e-01 +1.9309247239482879e-05 +0.0000000000000000e+00 +9.9999999981357657e-01
-3.9999999999999997e-01 +8.5389955864705964e+00 +0.0000000000000000e+00 -3.9999999996753449e-01 +2.2067761571341991e-05 +0.0000000000000000e+00 +9.9999999975650700e-01
-4.4999999999999996e-01 +8.5389944141192835e+00 +0.0000000000000000e+00 -4.4999999995377454e-01 +2.4826294107668865e-05 +0.0000000000000000e+00 +9.9999999969182762e-01
-4.9999999999999994e-01 +8.5389931038408502e+00 +0.0000000000000000e+00 -4.9999999993659039e-01 +2.7584846703523387e-05 +0.0000000000000000e+00 +9.9999999961953823e-01
-5.4999999999999993e-01 +8.5389916556342467e+00 +0.0000000000000000e+00 -5.4999999991560156e-01 +3.0343421210077360e-05 +0.0000000000000000e+00 +9.9999999953963847e-01
-5.9999999999999998e-01 +8.5389900694983325e+00 +0.0000000000000000e+00 -5.9999999989042740e-01 +3.3102019474614578e-05 +0.0000000000000000e+00 +9.9999999945212825e-01
-6.5000000000000002e-01 +8.5389883454318731e+00 +0.0000000000000000e+00 -6.4999999986068746e-01 +3.5860643340530919e-05 +0.0000000000000000e+00 +9.9999999935700723e-01
-7.0000000000000007e-01 +8.5389864834335416e+00 +0.0000000000000000e+00 -6.9999999982600125e-01 +3.8619294647334415e-05 +0.0000000000000000e+00 +9.9999999925427518e-01
-7.5000000000000011e-01 +8.5389844835019204e+00 +0.0000000000000000e+00 -7.4999999978598808e-01 +4.1377975230645344e-05 +0.0000000000000000e+00 +9.9999999914393167e-01
-8.0000000000000016e-01 +8.5389823456354996e+00 +0.0000000000000000e+00 -7.9999999974026748e-01 +4.4136686922196295e-05 +0.0000000000000000e+00 +9.9999999902597647e-01
-8.5000000000000020e-01 +8.5389800698326788e+00 +0.0000000000000000e+00 -8.4999999968845885e-01 +4.6895431549832257e-05 +0.0000000000000000e+00 +9.9999999890040925e-01
-9.0000000000000024e-01 +8.5389776560917650e+00 +0.0000000000000000e+00 -8.9999999963018151e-01 +4.9654210937510713e-05 +0.0000000000000000e+00 +9.9999999876722967e-01
-9.5000000000000029e-01 +8.5389751044109747e+00 +0.0000000000000000e+00 -9.4999999956505488e-01 +5.2413026905301684e-05 +0.0000000000000000e+00 +9.9999999862643729e-01
-1.0000000000000002e+00 +8.5389724147884341e+00 +0.0000000000000000e+00 -9.9999999949269835e-01 +5.5171881269387845e-05 +0.0000000000000000e+00 +9.9999999847803178e-01
-1.0500000000000003e+00 +8.5389695872221782e+00 +0.0000000000000000e+00 -1.0499999994127311e+00 +5.7930775842064580e-05 +0.0000000000000000e+00 +9.9999999832201258e-01
-1.1000000000000003e+00 +8.5389666217101503e+00 +0.0000000000000000e+00 -1.0999999993247727e+00 +6.0689712431740068e-05 +0.0000000000000000e+00 +9.9999999815837937e-01
-1.1500000000000004e+00 +8.5389635182502044e+00 +0.0000000000000000e+00 -1.1499999992284422e+00 +6.3448692842935360e-05 +0.0000000000000000e+00 +9.9999999798713168e-01
-1.2000000000000004e+00 +8.5389602768401058e+00 +0.0000000000000000e+00 -1.1999999991233590e+00 +6.6207718876284467e-05 +0.0000000000000000e+00 +9.9999999780826898e-01
-1.2500000000000004e+00 +8.5389568974775276e+00 +0.0000000000000000e+00 -1.2499999990091422e+00 +6.8966792328534424e-05 +0.0000000000000000e+00 +9.9999999762179081e-01
-1.3000000000000005e+00 +8.5389533801600539e+00 +0.0000000000000000e+00 -1.2999999988854112e+00 +7.1725914992545376e-05 +0.0000000000000000e+00 +9.9999999742769663e-01
-1.3500000000000005e+00 +8.5389497248851782e+00 +0.0000000000000000e+00 -1.3499999987517850e+00 +7.4485088657290632e-05 +0.0000000000000000e+00 +9.9999999722598587e-01
-1.4000000000000006e+00 +8.5389459316503071e+00 +0.0000000000000000e+00 -1.3999999986078828e+00 +7.7244315107856767e-05 +0.0000000000000000e+00 +9.9999999701665798e-01
-1.4500000000000006e+00 +8.5389420004527565e+00 +0.0000000000000000e+00 -1.4499999984533238e+00 +8.0003596125443713e-05 +0.0000000000000000e+00 +9.9999999679971241e-01
-1.5000000000000007e+00 +8.5389379312897553e+00 +0.0000000000000000e+00 -1.4999999982877270e+00 +8.2762933487364777e-05 +0.0000000000000000e+00 +9.9999999657514849e-01
-1.5500000000000007e+00 +8.5389337241584400e+00 +0.0000000000000000e+00 -1.5499999981107115e+00 +8.5522328967046771e-05 +0.0000000000000000e+00 +9.9999999634296566e-01
-1.6000000000000008e+00 +8.5389293790558600e+00 +0.0000000000000000e+00 -1.5999999979218966e+00 +8.8281784334030074e-05 +0.0000000000000000e+00 +9.9999999610316326e-01
-1.6500000000000008e+00 +8.5389248959789779e+00 +0.0000000000000000e+00 -1.6499999977209010e+00 +9.1041301353968687e-05 +0.0000000000000000e+00 +9.9999999585574073e-01
-1.7000000000000008e+00 +8.5389202749246671e+00 +0.0000000000000000e+00 -1.6999999975073437e+00 +9.3800881788630330e-05 +0.0000000000000000e+00 +9.9999999560069730e-01
-1.7500000000000009e+00 +8.5389155158897125e+00 +0.0000000000000000e+00 -1.7499999972808435e+00 +9.6560527395896497e-05 +0.0000000000000000e+00 +9.9999999533803230e-01
-1.8000000000000009e+00 +8.5389106188708119e+00 +0.0000000000000000e+00 -1.7999999970410197e+00 +9.9320239929762559e-05 +0.0000000000000000e+00 +9.9999999506774495e-01
-1.8500000000000010e+00 +8.5389055838645742e+00 +0.0000000000000000e+00 -1.8499999967874909e+00 +1.0208002114033780e-04 +0.0000000000000000e+00 +9.9999999478983459e-01
-1.9000000000000010e+00 +8.5389004108675230e+00 +0.0000000000000000e+00 -1.8999999965198762e+00 +1.0483987277384549e-04 +0.0000000000000000e+00 +9.9999999450430044e-01
-1.9500000000000011e+00 +8.5388950998760933e+00 +0.0000000000000000e+00 -1.9499999962377941e+00 +1.0759979657262305e-04 +0.0000000000000000e+00 +9.9999999421114183e-01
-2.0000000000000009e+00 +8.5388896508866328e+00 +0.0000000000000000e+00 -1.9999999959408634e+00 +1.1035979427512196e-04 +0.0000000000000000e+00 +9.9999999391035788e-01
-2.0500000000000007e+00 +8.5388840638954040e+00 +0.0000000000000000e+00 -2.0499999956287027e+00 +1.1311986761565484e-04 +0.0000000000000000e+00 +9.9999999360194780e-01
-2.1000000000000005e+00 +8.5388783388985807e+00 +0.0000000000000000e+00 -2.0999999953009310e+00 +1.1588001832161106e-04 +0.0000000000000000e+00 +9.9999999328591072e-01
-2.1500000000000004e+00 +8.5388724758922532e+00 +0.0000000000000000e+00 -2.1499999949571666e+00 +1.1864024811067230e-04 +0.0000000000000000e+00 +9.9999999296224584e-01
-2.2000000000000002e+00 +8.5388664748724228e+00 +0.0000000000000000e+00 -2.1999999945970283e+00 +1.2140055869055959e-04 +0.0000000000000000e+00 +9.9999999263095229e-01
-2.2500000000000000e+00 +8.5388603358350093e+00 +0.0000000000000000e+00 -2.2499999942201345e+00 +1.2416095175903332e-04 +0.0000000000000000e+00 +9.9999999229202918e-01
-2.2999999999999998e+00 +8.5388540587758452e+00 +0.0000000000000000e+00 -2.2999999938261038e+00 +1.2692142900389328e-04 +0.0000000000000000e+00 +9.9999999194547562e-01
-2.3499999999999996e+00 +8.5388476436906782e+00 +0.0000000000000000e+00 -2.3499999934145546e+00 +1.2968199210297874e-04 +0.0000000000000000e+00 +9.9999999159129060e-01
-2.3999999999999995e+00 +8.5388410905751755e+00 +0.0000000000000000e+00 -2.3999999929851055e+00 +1.3244264272416854e-04 +0.0000000000000000e+00 +9.9999999122947336e-01
-2.4499999999999993e+00 +8.5388343994249194e+00 +0.0000000000000000e+00 -2.4499999925373745e+00 +1.3520338252538108e-04 +0.0000000000000000e+00 +9.9999999086002289e-01
-2.4999999999999991e+00 +8.5388275702354086e+00 +0.0000000000000000e+00 -2.4999999920709803e+00 +1.3796421315457447e-04 +0.0000000000000000e+00 +9.9999999048293819e-01
-2.5499999999999989e+00 +8.5388206030020619e+00 +0.0000000000000000e+00 -2.5499999915855409e+00 +1.4072513624974650e-04 +0.0000000000000000e+00 +9.9999999009821827e-01
-2.5999999999999988e+00 +8.5388134977202146e+00 +0.0000000000000000e+00 -2.5999999910806748e+00 +1.4348615343893475e-04 +0.0000000000000000e+00 +9.9999998970586212e-01
-2.6499999999999986e+00 +8.5388062543851220e+00 +0.0000000000000000e+00 -2.6499999905560001e+00 +1.4624726634021663e-04 +0.0000000000000000e+00 +9.9999998930586875e-01
-2.6999999999999984e+00 +8.5387988729919577e+00 +0.0000000000000000e+00 -2.6999999900111344e+00 +1.4900847656170940e-04 +0.0000000000000000e+00 +9.9999998889823716e-01
-2.7499999999999982e+00 +8.5387913535358173e+00 +0.0000000000000000e+00 -2.7499999894456963e+00 +1.5176978570157030e-04 +0.0000000000000000e+00 +9.9999998848296623e-01
-2.7999999999999980e+00 +8.5387836960117127e+00 +0.0000000000000000e+00 -2.7999999888593039e+00 +1.5453119534799653e-04 +0.0000000000000000e+00 +9.9999998806005497e-01
-2.8499999999999979e+00 +8.5387759004145813e+00 +0.0000000000000000e+00 -2.8499999882515747e+00 +1.5729270707922531e-04 +0.0000000000000000e+00 +9.9999998762950226e-01
-2.8999999999999977e+00 +8.5387679667392771e+00 +0.0000000000000000e+00 -2.8999999876221270e+00 +1.6005432246353401e-04 +0.0000000000000000e+00 +9.9999998719130700e-01
-2.9499999999999975e+00 +8.5387598949805810e+00 +0.0000000000000000e+00 -2.9499999869705782e+00 +1.6281604305924007e-04 +0.0000000000000000e+00 +9.9999998674546808e-01
-2.9999999999999973e+00 +8.5387516851331924e+00 +0.0000000000000000e+00 -2.9999999862965465e+00 +1.6557787041470118e-04 +0.0000000000000000e+00 +9.9999998629198439e-01
-3.0499999999999972e+00 +8.5387433371917343e+00 +0.0000000000000000e+00 -3.0499999855996496e+00 +1.6833980606831525e-04 +0.0000000000000000e+00 +9.9999998583085481e-01
-3.0999999999999970e+00 +8.5387348511507550e+00 +0.0000000000000000e+00 -3.0999999848795046e+00 +1.7110185154852047e-04 +0.0000000000000000e+00 +9.9999998536207813e-01
-3.1499999999999968e+00 +8.5387262270047248e+00 +0.0000000000000000e+00 -3.1499999841357296e+00 +1.7386400837379536e-04 +0.0000000000000000e+00 +9.9999998488565323e-01
-3.1999999999999966e+00 +8.5387174647480375e+00 +0.0000000000000000e+00 -3.1999999833679422e+00 +1.7662627805265885e-04 +0.0000000000000000e+00 +9.9999998440157889e-01
-3.2499999999999964e+00 +8.5387085643750140e+00 +0.0000000000000000e+00 -3.2499999825757597e+00 +1.7938866208367022e-04 +0.0000000000000000e+00 +9.9999998390985390e-01
-3.2999999999999963e+00 +8.5386995258798990e+00 +0.0000000000000000e+00 -3.2999999817587997e+00 +1.8215116195542932e-04 +0.0000000000000000e+00 +9.9999998341047702e-01
-3.3499999999999961e+00 +8.5386903492568642e+00 +0.0000000000000000e+00 -3.3499999809166798e+00 +1.8491377914657645e-04 +0.0000000000000000e+00 +9.9999998290344705e-01
-3.3999999999999959e+00 +8.5386810345000050e+00 +0.0000000000000000e+00 -3.3999999800490168e+00 +1.8767651512579251e-04 +0.0000000000000000e+00 +9.9999998238876275e-01
-3.4499999999999957e+00 +8.5386715816033476e+00 +0.0000000000000000e+00 -3.4499999791554283e+00 +1.9043937135179896e-04 +0.0000000000000000e+00 +9.9999998186642280e-01
-3.4999999999999956e+00 +8.5386619905608416e+00 +0.0000000000000000e+00 -3.4999999782355316e+00 +1.9320234927335789e-04 +0.0000000000000000e+00 +9.9999998133642598e-01
-3.5499999999999954e+00 +8.5386522613663676e+00 +0.0000000000000000e+00 -3.5499999772889432e+00 +1.9596545032927212e-04 +0.0000000000000000e+00 +9.9999998079877095e-01
-3.5999999999999952e+00 +8.5386423940137330e+00 +0.0000000000000000e+00 -3.5999999763152810e+00 +1.9872867594838517e-04 +0.0000000000000000e+00 +9.9999998025345649e-01
-3.6499999999999950e+00 +8.5386323884966728e+00 +0.0000000000000000e+00 -3.6499999753141612e+00 +2.0149202754958127e-04 +0.0000000000000000e+00 +9.9999997970048127e-01
-3.6999999999999948e+00 +8.5386222448088542e+00 +0.0000000000000000e+00 -3.6999999742852014e+00 +2.0425550654178554e-04 +0.0000000000000000e+00 +9.9999997913984384e-01
-3.7499999999999947e+00 +8.5386119629438717e+00 +0.0000000000000000e+00 -3.7499999732280180e+00 +2.0701911432396386e-04 +0.0000000000000000e+00 +9.9999997857154299e-01
-3.7999999999999945e+00 +8.5386015428952522e+00 +0.0000000000000000e+00 -3.7999999721422282e+00 +2.0978285228512300e-04 +0.0000000000000000e+00 +9.9999997799557727e-01
-3.8499999999999943e+00 +8.5385909846564516e+00 +0.0000000000000000e+00 -3.8499999710274482e+00 +2.1254672180431064e-04 +0.0000000000000000e+00 +9.9999997741194535e-01
-3.8999999999999941e+00 +8.5385802882208566e+00 +0.0000000000000000e+00 -3.8999999698832948e+00 +2.1531072425061540e-04 +0.0000000000000000e+00 +9.9999997682064579e-01
-3.9499999999999940e+00 +8.5385694535817880e+00 +0.0000000000000000e+00 -3.9499999687093847e+00 +2.1807486098316688e-04 +0.0000000000000000e+00 +9.9999997622167724e-01
-3.9999999999999938e+00 +8.5385584807324975e+00 +0.0000000000000000e+00 -3.9999999675053344e+00 +2.2083913335113568e-04 +0.0000000000000000e+00 +9.9999997561503828e-01
-4.0499999999999936e+00 +8.5385473696661691e+00 +0.0000000000000000e+00 -4.0499999662707609e+00 +2.2360354269354064e-04 +0.0000000000000000e+00 +9.9999997500072757e-01
-4.0999999999999934e+00 +8.5385361203759231e+00 +0.0000000000000000e+00 -4.0999999650052796e+00 +2.2636809033712793e-04 +0.0000000000000000e+00 +9.9999997437874355e-01
-4.1499999999999932e+00 +8.5385247328548086e+00 +0.0000000000000000e+00 -4.1499999637085070e+00 +2.2913277759425017e-04 +0.0000000000000000e+00 +9.9999997374908478e-01
-4.1999999999999931e+00 +8.5385132070958143e+00 +0.0000000000000000e+00 -4.1999999623800601e+00 +2.3189760576267370e-04 +0.0000000000000000e+00 +9.9999997311174982e-01
-4.2499999999999929e+00 +8.5385015430918614e+00 +0.0000000000000000e+00 -4.2499999610195545e+00 +2.3466257612557846e-04 +0.0000000000000000e+00 +9.9999997246673722e-01
-4.2999999999999927e+00 +8.5384897408358107e+00 +0.0000000000000000e+00 -4.2999999596266063e+00 +2.3742768995155809e-04 +0.0000000000000000e+00 +9.9999997181404554e-01
-4.3499999999999925e+00 +8.5384778003204556e+00 +0.0000000000000000e+00 -4.3499999582008311e+00 +2.4019294849461992e-04 +0.0000000000000000e+00 +9.9999997115367323e-01
-4.3999999999999924e+00 +8.5384657215385289e+00 +0.0000000000000000e+00 -4.3999999567418451e+00 +2.4295835299418495e-04 +0.0000000000000000e+00 +9.9999997048561884e-01
-4.4499999999999922e+00 +8.5384535044827032e+00 +0.0000000000000000e+00 -4.4499999552492646e+00 +2.4572390467508787e-04 +0.0000000000000000e+00 +9.9999996980988082e-01
-4.4999999999999920e+00 +8.5384411491455889e+00 +0.0000000000000000e+00 -4.4999999537227051e+00 +2.4848960474757706e-04 +0.0000000000000000e+00 +9.9999996912645761e-01
-4.5499999999999918e+00 +8.5384286555197360e+00 +0.0000000000000000e+00 -4.5499999521617820e+00 +2.5125545440731454e-04 +0.0000000000000000e+00 +9.9999996843534777e-01
-4.5999999999999917e+00 +8.5384160235976356e+00 +0.0000000000000000e+00 -4.5999999505661116e+00 +2.5402145483537612e-04 +0.0000000000000000e+00 +9.9999996773654964e-01
-4.6499999999999915e+00 +8.5384032533717207e+00 +0.0000000000000000e+00 -4.6499999489353092e+00 +2.5678760719825117e-04 +0.0000000000000000e+00 +9.9999996703006178e-01
-4.6999999999999913e+00 +8.5383903448343652e+00 +0.0000000000000000e+00 -4.6999999472689895e+00 +2.5955391264784281e-04 +0.0000000000000000e+00 +9.9999996631588262e-01
-4.7499999999999911e+00 +8.5383772979778865e+00 +0.0000000000000000e+00 -4.7499999455667687e+00 +2.6232037232146779e-04 +0.0000000000000000e+00 +9.9999996559401050e-01
-4.7999999999999909e+00 +8.5383641127945449e+00 +0.0000000000000000e+00 -4.7999999438282623e+00 +2.6508698734185654e-04 +0.0000000000000000e+00 +9.9999996486444387e-01
-4.8499999999999908e+00 +8.5383507892765458e+00 +0.0000000000000000e+00 -4.8499999420530848e+00 +2.6785375881715318e-04 +0.0000000000000000e+00 +9.9999996412718117e-01
-4.8999999999999906e+00 +8.5383373274160377e+00 +0.0000000000000000e+00 -4.8999999402408516e+00 +2.7062068784091542e-04 +0.0000000000000000e+00 +9.9999996338222086e-01
-4.9499999999999904e+00 +8.5383237272051176e+00 +0.0000000000000000e+00 -4.9499999383911781e+00 +2.7338777549211458e-04 +0.0000000000000000e+00 +9.9999996262956126e-01
-4.9999999999999902e+00 +8.5383099886358274e+00 +0.0000000000000000e+00 -4.9999999365036789e+00 +2.7615502283513563e-04 +0.0000000000000000e+00 +9.9999996186920082e-01
-5.0499999999999901e+00 +8.5382961117001557e+00 +0.0000000000000000e+00 -5.0499999345779694e+00 +2.7892243091977721e-04 +0.0000000000000000e+00 +9.9999996110113787e-01
-5.0999999999999899e+00 +8.5382820963900397e+00 +0.0000000000000000e+00 -5.0999999326136640e+00 +2.8169000078125139e-04 +0.0000000000000000e+00 +9.9999996032537075e-01
-5.1499999999999897e+00 +8.5382679426973649e+00 +0.0000000000000000e+00 -5.1499999306103774e+00 +2.8445773344018397e-04 +0.0000000000000000e+00 +9.9999995954189791e-01
-5.1999999999999895e+00 +8.5382536506139655e+00 +0.0000000000000000e+00 -5.1999999285677250e+00 +2.8722562990261417e-04 +0.0000000000000000e+00 +9.9999995875071768e-01
-5.2499999999999893e+00 +8.5382392201316275e+00 +0.0000000000000000e+00 -5.2499999264853203e+00 +2.8999369115999485e-04 +0.0000000000000000e+00 +9.9999995795182839e-01
-5.2999999999999892e+00 +8.5382246512420856e+00 +0.0000000000000000e+00 -5.2999999243627789e+00 +2.9276191818919227e-04 +0.0000000000000000e+00 +9.9999995714522849e-01
-5.3499999999999890e+00 +8.5382099439370283e+00 +0.0000000000000000e+00 -5.3499999221997143e+00 +2.9553031195248626e-04 +0.0000000000000000e+00 +9.9999995633091621e-01
-5.3999999999999888e+00 +8.5381950982080959e+00 +0.0000000000000000e+00 -5.3999999199957420e+00 +2.9829887339757004e-04 +0.0000000000000000e+00 +9.9999995550888987e-01
-5.4499999999999886e+00 +8.5381801140468792e+00 +0.0000000000000000e+00 -5.4499999177504748e+00 +3.0106760345755034e-04 +0.0000000000000000e+00 +9.9999995467914782e-01
-5.4999999999999885e+00 +8.5381649914449245e+00 +0.0000000000000000e+00 -5.4999999154635280e+00 +3.0383650305094718e-04 +0.0000000000000000e+00 +9.9999995384168838e-01
-5.5499999999999883e+00 +8.5381497303937337e+00 +0.0000000000000000e+00 -5.5499999131345152e+00 +3.0660557308169407e-04 +0.0000000000000000e+00 +9.9999995299650990e-01
-5.5999999999999881e+00 +8.5381343308847608e+00 +0.0000000000000000e+00 -5.5999999107630503e+00 +3.0937481443913783e-04 +0.0000000000000000e+00 +9.9999995214361070e-01
-5.6499999999999879e+00 +8.5381187929094189e+00 +0.0000000000000000e+00 -5.6499999083487475e+00 +3.1214422799803851e-04 +0.0000000000000000e+00 +9.9999995128298902e-01
-5.6999999999999877e+00 +8.5381031164590766e+00 +0.0000000000000000e+00 -5.6999999058912207e+00 +3.1491381461856959e-04 +0.0000000000000000e+00 +9.9999995041464318e-01
-5.7499999999999876e+00 +8.5380873015250582e+00 +0.0000000000000000e+00 -5.7499999033900835e+00 +3.1768357514631764e-04 +0.0000000000000000e+00 +9.9999994953857152e-01
-5.7999999999999874e+00 +8.5380713480986490e+00 +0.0000000000000000e+00 -5.7999999008449494e+00 +3.2045351041228254e-04 +0.0000000000000000e+00 +9.9999994865477226e-01
-5.8499999999999872e+00 +8.5380552561710914e+00 +0.0000000000000000e+00 -5.8499998982554322e+00 +3.2322362123287729e-04 +0.0000000000000000e+00 +9.9999994776324375e-01
