# trajectory
# s[mm] rx[mm] ry[mm] rz[mm] px[rad] py[rad] pz[rad]
0.0000000000000000e+00 +8.3650000000000002e+00 +0.0000000000000000e+00 +0.0000000000000000e+00 +0.0000000000000000e+00 +0.0000000000000000e+00 +1.0000000000000000e+00
-5.0000000000000003e-02 +8.3649999311120151e+00 +0.0000000000000000e+00 -4.9999999999936734e-02 +2.7555203846537586e-06 +0.0000000000000000e+00 +9.9999999999620359e-01
-1.0000000000000001e-01 +8.3649997244478431e+00 +0.0000000000000000e+00 -9.9999999999493813e-02 +5.5110478590196447e-06 +0.0000000000000000e+00 +9.9999999998481426e-01
-1.5000000000000002e-01 +8.3649993800070774e+00 +0.0000000000000000e+00 -1.4999999999829161e-01 +8.2665844526030372e-06 +0.0000000000000000e+00 +9.9999999996583189e-01
-2.0000000000000001e-01 +8.3649988977892118e+00 +0.0000000000000000e+00 -1.9999999999595044e-01 +1.1022132190855037e-05 +0.0000000000000000e+00 +9.9999999993925637e-01
-2.5000000000000000e-01 +8.3649982777936387e+00 +0.0000000000000000e+00 -2.4999999999209069e-01 +1.3777693095172564e-05 +0.0000000000000000e+00 +9.9999999990508770e-01
-2.9999999999999999e-01 +8.3649975200196494e+00 +0.0000000000000000e+00 -2.9999999998633264e-01 +1.6533269182898437e-05 +0.0000000000000000e+00 +9.9999999986332566e-01
-3.4999999999999998e-01 +8.3649966244664338e+00 +0.0000000000000000e+00 -3.4999999997829667e-01 +1.9288862467321488e-05 +0.0000000000000000e+00 +9.9999999981397003e-01
-3.9999999999999997e-01 +8.3649955911330824e+00 +0.0000000000000000e+00 -3.9999999996760310e-01 +2.2044474957676630e-05 +0.0000000000000000e+00 +9.9999999975702070e-01
-4.4999999999999996e-01 +8.3649944200185846e+00 +0.0000000000000000e+00 -4.4999999995387219e-01 +2.4800108659144968e-05 +0.0000000000000000e+00 +9.9999999969247744e-01
-4.9999999999999994e-01 +8.3649931111218301e+00 +0.0000000000000000e+00 -4.9999999993672428e-01 +2.7555765572853883e-05 +0.0000000000000000e+00 +9.9999999962034003e-01
-5.4999999999999993e-01 +8.3649916644416074e+00 +0.0000000000000000e+00 -5.4999999991577964e-01 +3.0311447695877124e-05 +0.0000000000000000e+00 +9.9999999954060825e-01
-5.9999999999999998e-01 +8.3649900799766073e+00 +0.0000000000000000e+00 -5.9999999989065855e-01 +3.3067157021234902e-05 +0.0000000000000000e+00 +9.9999999945328177e-01
-6.5000000000000002e-01 +8.3649883577254194e+00 +0.0000000000000000e+00 -6.4999999986098123e-01 +3.5822895537893987e-05 +0.0000000000000000e+00 +9.9999999935836026e-01
-7.0000000000000007e-01 +8.3649864976865338e+00 +0.0000000000000000e+00 -6.9999999982636796e-01 +3.8578665230767772e-05 +0.0000000000000000e+00 +9.9999999925584349e-01
-7.5000000000000011e-01 +8.3649844998583429e+00 +0.0000000000000000e+00 -7.4999999978643894e-01 +4.1334468080716393e-05 +0.0000000000000000e+00 +9.9999999914573101e-01
-8.0000000000000016e-01 +8.3649823642391397e+00 +0.0000000000000000e+00 -7.9999999974081448e-01 +4.4090306064546814e-05 +0.0000000000000000e+00 +9.9999999902802261e-01
-8.5000000000000020e-01 +8.3649800908271175e+00 +0.0000000000000000e+00 -8.4999999968911466e-01 +4.6846181155012898e-05 +0.0000000000000000e+00 +9.9999999890271785e-01
-9.0000000000000024e-01 +8.3649776796203721e+00 +0.0000000000000000e+00 -8.9999999963095967e-01 +4.9602095320815515e-05 +0.0000000000000000e+00 +9.9999999876981627e-01
-9.5000000000000029e-01 +8.3649751306169016e+00 +0.0000000000000000e+00 -9.4999999956596970e-01 +5.2358050526602619e-05 +0.0000000000000000e+00 +9.9999999862931743e-01
-1.0000000000000002e+00 +8.3649724438146027e+00 +0.0000000000000000e+00 -9.9999999949376484e-01 +5.5114048732969348e-05 +0.0000000000000000e+00 +9.9999999848122101e-01
-1.0500000000000003e+00 +8.3649696192112781e+00 +0.0000000000000000e+00 -1.0499999994139653e+00 +5.7870091896458101e-05 +0.0000000000000000e+00 +9.9999999832552644e-01
-1.1000000000000003e+00 +8.3649666568046310e+00 +0.0000000000000000e+00 -1.0999999993261909e+00 +6.0626181969558635e-05 +0.0000000000000000e+00 +9.9999999816223328e-01
-1.1500000000000004e+00 +8.3649635565922669e+00 +0.0000000000000000e+00 -1.1499999992300618e+00 +6.3382320900708144e-05 +0.0000000000000000e+00 +9.9999999799134098e-01
-1.2000000000000004e+00 +8.3649603185716934e+00 +0.0000000000000000e+00 -1.1999999991251982e+00 +6.6138510634291357e-05 +0.0000000000000000e+00 +9.9999999781284898e-01
-1.2500000000000004e+00 +8.3649569427403243e+00 +0.0000000000000000e+00 -1.2499999990112201e+00 +6.8894753110640617e-05 +0.0000000000000000e+00 +9.9999999762675673e-01
-1.3000000000000005e+00 +8.3649534290954719e+00 +0.0000000000000000e+00 -1.2999999988877473e+00 +7.1651050266035972e-05 +0.0000000000000000e+00 +9.9999999743306378e-01
-1.3500000000000005e+00 +8.3649497776343544e+00 +0.0000000000000000e+00 -1.3499999987543998e+00 +7.4407404032705236e-05 +0.0000000000000000e+00 +9.9999999723176936e-01
-1.4000000000000006e+00 +8.3649459883540924e+00 +0.0000000000000000e+00 -1.3999999986107976e+00 +7.7163816338824128e-05 +0.0000000000000000e+00 +9.9999999702287301e-01
-1.4500000000000006e+00 +8.3649420612517122e+00 +0.0000000000000000e+00 -1.4499999984565604e+00 +7.9920289108516323e-05 +0.0000000000000000e+00 +9.9999999680637397e-01
-1.5000000000000007e+00 +8.3649379963241426e+00 +0.0000000000000000e+00 -1.4999999982913081e+00 +8.2676824261853520e-05 +0.0000000000000000e+00 +9.9999999658227168e-01
-1.5500000000000007e+00 +8.3649337935682144e+00 +0.0000000000000000e+00 -1.5499999981146608e+00 +8.5433423714855554e-05 +0.0000000000000000e+00 +9.9999999635056536e-01
-1.6000000000000008e+00 +8.3649294529806664e+00 +0.0000000000000000e+00 -1.5999999979262380e+00 +8.8190089379490497e-05 +0.0000000000000000e+00 +9.9999999611125434e-01
-1.6500000000000008e+00 +8.3649249745581411e+00 +0.0000000000000000e+00 -1.6499999977256596e+00 +9.0946823163674695e-05 +0.0000000000000000e+00 +9.9999999586433796e-01
-1.7000000000000008e+00 +8.3649203582971836e+00 +0.0000000000000000e+00 -1.6999999975125453e+00 +9.3703626971272880e-05 +0.0000000000000000e+00 +9.9999999560981545e-01
-1.7500000000000009e+00 +8.3649156041942447e+00 +0.0000000000000000e+00 -1.7499999972865146e+00 +9.6460502702098259e-05 +0.0000000000000000e+00 +9.9999999534768602e-01
-1.8000000000000009e+00 +8.3649107122456829e+00 +0.0000000000000000e+00 -1.7999999970471872e+00 +9.9217452251912591e-05 +0.0000000000000000e+00 +9.9999999507794890e-01
-1.8500000000000010e+00 +8.3649056824477590e+00 +0.0000000000000000e+00 -1.8499999967941827e+00 +1.0197447751242626e-04 +0.0000000000000000e+00 +9.9999999480060331e-01
-1.9000000000000010e+00 +8.3649005147966395e+00 +0.0000000000000000e+00 -1.8999999965271206e+00 +1.0473158037129837e-04 +0.0000000000000000e+00 +9.9999999451564836e-01
-1.9500000000000011e+00 +8.3648952092883970e+00 +0.0000000000000000e+00 -1.9499999962456207e+00 +1.0748876271213681e-04 +0.0000000000000000e+00 +9.9999999422308328e-01
-2.0000000000000009e+00 +8.3648897659190116e+00 +0.0000000000000000e+00 -1.9999999959493022e+00 +1.1024602641449838e-04 +0.0000000000000000e+00 +9.9999999392290717e-01
-2.0500000000000007e+00 +8.3648841846843673e+00 +0.0000000000000000e+00 -2.0499999956377848e+00 +1.1300337335359896e-04 +0.0000000000000000e+00 +9.9999999361511915e-01
-2.1000000000000005e+00 +8.3648784655802579e+00 +0.0000000000000000e+00 -2.0999999953106876e+00 +1.1576080539712539e-04 +0.0000000000000000e+00 +9.9999999329971834e-01
-2.1500000000000004e+00 +8.3648726086023792e+00 +0.0000000000000000e+00 -2.1499999949676298e+00 +1.1851832440204726e-04 +0.0000000000000000e+00 +9.9999999297670372e-01
-2.2000000000000002e+00 +8.3648666137463383e+00 +0.0000000000000000e+00 -2.1999999946082309e+00 +1.2127593221432711e-04 +0.0000000000000000e+00 +9.9999999264607442e-01
-2.2500000000000000e+00 +8.3648604810076481e+00 +0.0000000000000000e+00 -2.2499999942321103e+00 +1.2403363066892053e-04 +0.0000000000000000e+00 +9.9999999230782954e-01
-2.2999999999999998e+00 +8.3648542103817309e+00 +0.0000000000000000e+00 -2.2999999938388869e+00 +1.2679142158977620e-04 +0.0000000000000000e+00 +9.9999999196196798e-01
-2.3499999999999996e+00 +8.3648478018639185e+00 +0.0000000000000000e+00 -2.3499999934281801e+00 +1.2954930678983601e-04 +0.0000000000000000e+00 +9.9999999160848885e-01
-2.3999999999999995e+00 +8.3648412554494502e+00 +0.0000000000000000e+00 -2.3999999929996090e+00 +1.3230728807103501e-04 +0.0000000000000000e+00 +9.9999999124739103e-01
-2.4499999999999993e+00 +8.3648345711334802e+00 +0.0000000000000000e+00 -2.4499999925527924e+00 +1.3506536722430161e-04 +0.0000000000000000e+00 +9.9999999087867353e-01
-2.4999999999999991e+00 +8.3648277489110683e+00 +0.0000000000000000e+00 -2.4999999920873495e+00 +1.3782354602955750e-04 +0.0000000000000000e+00 +9.9999999050233535e-01
-2.5499999999999989e+00 +8.3648207887771875e+00 +0.0000000000000000e+00 -2.5499999916028990e+00 +1.4058182625571784e-04 +0.0000000000000000e+00 +9.9999999011837537e-01
-2.5999999999999988e+00 +8.3648136907267236e+00 +0.0000000000000000e+00 -2.5999999910990601e+00 +1.4334020966069123e-04 +0.0000000000000000e+00 +9.9999998972679249e-01
-2.6499999999999986e+00 +8.3648064547544738e+00 +0.0000000000000000e+00 -2.6499999905754512e+00 +1.4609869799137978e-04 +0.0000000000000000e+00 +9.9999998932758560e-01
-2.6999999999999984e+00 +8.3647990808551480e+00 +0.0000000000000000e+00 -2.6999999900316913e+00 +1.4885729298367922e-04 +0.0000000000000000e+00 +9.9999998892075359e-01
-2.7499999999999982e+00 +8.3647915690233692e+00 +0.0000000000000000e+00 -2.7499999894673994e+00 +1.5161599636247890e-04 +0.0000000000000000e+00 +9.9999998850629523e-01
-2.7999999999999980e+00 +8.3647839192536768e+00 +0.0000000000000000e+00 -2.7999999888821940e+00 +1.5437480984166184e-04 +0.0000000000000000e+00 +9.9999998808420942e-01
-2.8499999999999979e+00 +8.3647761315405216e+00 +0.0000000000000000e+00 -2.8499999882756932e+00 +1.5713373512410485e-04 +0.0000000000000000e+00 +9.9999998765449505e-01
-2.8999999999999977e+00 +8.3647682058782724e+00 +0.0000000000000000e+00 -2.8999999876475160e+00 +1.5989277390167849e-04 +0.0000000000000000e+00 +9.9999998721715078e-01
-2.9499999999999975e+00 +8.3647601422612112e+00 +0.0000000000000000e+00 -2.9499999869972808e+00 +1.6265192785524718e-04 +0.0000000000000000e+00 +9.9999998677217550e-01
-2.9999999999999973e+00 +8.3647519406835382e+00 +0.0000000000000000e+00 -2.9999999863246063e+00 +1.6541119865466923e-04 +0.0000000000000000e+00 +9.9999998631956799e-01
-3.0499999999999972e+00 +8.3647436011393701e+00 +0.0000000000000000e+00 -3.0499999856291105e+00 +1.6817058795879689e-04 +0.0000000000000000e+00 +9.9999998585932692e-01
-3.0999999999999970e+00 +8.3647351236227401e+00 +0.0000000000000000e+00 -3.0999999849104118e+00 +1.7093009741547642e-04 +0.0000000000000000e+00 +9.9999998539145118e-01
-3.1499999999999968e+00 +8.3647265081275997e+00 +0.0000000000000000e+00 -3.1499999841681285e+00 +1.7368972866154810e-04 +0.0000000000000000e+00 +9.9999998491593933e-01
-3.1999999999999966e+00 +8.3647177546478169e+00 +0.0000000000000000e+00 -3.1999999834018786e+00 +1.7644948332284631e-04 +0.0000000000000000e+00 +9.9999998443279015e-01
-3.2499999999999964e+00 +8.3647088631771833e+00 +0.0000000000000000e+00 -3.2499999826112802e+00 +1.7920936301419951e-04 +0.0000000000000000e+00 +9.9999998394200229e-01
-3.2999999999999963e+00 +8.3646998337094054e+00 +0.0000000000000000e+00 -3.2999999817959513e+00 +1.8196936933943038e-04 +0.0000000000000000e+00 +9.9999998344357444e-01
-3.3499999999999961e+00 +8.3646906662381131e+00 +0.0000000000000000e+00 -3.3499999809555101e+00 +1.8472950389135576e-04 +0.0000000000000000e+00 +9.9999998293750536e-01
-3.3999999999999959e+00 +8.3646813607568529e+00 +0.0000000000000000e+00 -3.3999999800895746e+00 +1.8748976825178678e-04 +0.0000000000000000e+00 +9.9999998242379351e-01
-3.4499999999999957e+00 +8.3646719172590966e+00 +0.0000000000000000e+00 -3.4499999791977620e+00 +1.9025016399152884e-04 +0.0000000000000000e+00 +9.9999998190243766e-01
-3.4999999999999956e+00 +8.3646623357382364e+00 +0.0000000000000000e+00 -3.4999999782796909e+00 +1.9301069267038169e-04 +0.0000000000000000e+00 +9.9999998137343638e-01
-3.5499999999999954e+00 +8.3646526161875876e+00 +0.0000000000000000e+00 -3.5499999773349784e+00 +1.9577135583713940e-04 +0.0000000000000000e+00 +9.9999998083678820e-01
-3.5999999999999952e+00 +8.3646427586003860e+00 +0.0000000000000000e+00 -3.5999999763632422e+00 +1.9853215502959045e-04 +0.0000000000000000e+00 +9.9999998029249182e-01
-3.6499999999999950e+00 +8.3646327629697925e+00 +0.0000000000000000e+00 -3.6499999753640999e+00 +2.0129309177451779e-04 +0.0000000000000000e+00 +9.9999997974054566e-01
-3.6999999999999948e+00 +8.3646226292888919e+00 +0.0000000000000000e+00 -3.6999999743371692e+00 +2.0405416758769883e-04 +0.0000000000000000e+00 +9.9999997918094841e-01
-3.7499999999999947e+00 +8.3646123575506923e+00 +0.0000000000000000e+00 -3.7499999732820672e+00 +2.0681538397390546e-04 +0.0000000000000000e+00 +9.9999997861369849e-01
-3.7999999999999945e+00 +8.3646019477481275e+00 +0.0000000000000000e+00 -3.7999999721984117e+00 +2.0957674242690411e-04 +0.0000000000000000e+00 +9.9999997803879448e-01
-3.8499999999999943e+00 +8.3645913998740564e+00 +0.0000000000000000e+00 -3.8499999710858193e+00 +2.1233824442945577e-04 +0.0000000000000000e+00 +9.9999997745623492e-01
-3.8999999999999941e+00 +8.3645807139212671e+00 +0.0000000000000000e+00 -3.8999999699439076e+00 +2.1509989145331607e-04 +0.0000000000000000e+00 +9.9999997686601827e-01
-3.9499999999999940e+00 +8.3645698898824694e+00 +0.0000000000000000e+00 -3.9499999687722935e+00 +2.1786168495923518e-04 +0.0000000000000000e+00 +9.9999997626814308e-01
-3.9999999999999938e+00 +8.3645589277503056e+00 +0.0000000000000000e+00 -3.9999999675705942e+00 +2.2062362639695799e-04 +0.0000000000000000e+00 +9.9999997566260768e-01
-4.0499999999999936e+00 +8.3645478275173417e+00 +0.0000000000000000e+00 -4.0499999663384267e+00 +2.2338571720504813e-04 +0.0000000000000000e+00 +9.9999997504941063e-01
-4.0999999999999934e+00 +8.3645365891760726e+00 +0.0000000000000000e+00 -4.0999999650754075e+00 +2.2614795880895338e-04 +0.0000000000000000e+00 +9.9999997442855026e-01
-4.1499999999999932e+00 +8.3645252127189238e+00 +0.0000000000000000e+00 -4.1499999637811538e+00 +2.2891035261907083e-04 +0.0000000000000000e+00 +9.9999997380002514e-01
-4.1999999999999931e+00 +8.3645136981382500e+00 +0.0000000000000000e+00 -4.1999999624552826e+00 +2.3167290003057108e-04 +0.0000000000000000e+00 +9.9999997316383360e-01
-4.2499999999999929e+00 +8.3645020454263364e+00 +0.0000000000000000e+00 -4.2499999610974095e+00 +2.3443560242339826e-04 +0.0000000000000000e+00 +9.9999997251997408e-01
-4.2999999999999927e+00 +8.3644902545754007e+00 +0.0000000000000000e+00 -4.2999999597071517e+00 +2.3719846116226998e-04 +0.0000000000000000e+00 +9.9999997186844491e-01
-4.3499999999999925e+00 +8.3644783255775916e+00 +0.0000000000000000e+00 -4.3499999582841262e+00 +2.3996147759667736e-04 +0.0000000000000000e+00 +9.9999997120924455e-01
-4.3999999999999924e+00 +8.3644662584249900e+00 +0.0000000000000000e+00 -4.3999999568279486e+00 +2.4272465306088501e-04 +0.0000000000000000e+00 +9.9999997054237133e-01
-4.4499999999999922e+00 +8.3644540531096130e+00 +0.0000000000000000e+00 -4.4499999553382352e+00 +2.4548798887393105e-04 +0.0000000000000000e+00 +9.9999996986782358e-01
-4.4999999999999920e+00 +8.3644417096234083e+00 +0.0000000000000000e+00 -4.4999999538146032e+00 +2.4825148633962705e-04 +0.0000000000000000e+00 +9.9999996918559964e-01
-4.5499999999999918e+00 +8.3644292279582633e+00 +0.0000000000000000e+00 -4.5499999522566679e+00 +2.5101514674655810e-04 +0.0000000000000000e+00 +9.9999996849569794e-01
-4.5999999999999917e+00 +8.3644166081059979e+00 +0.0000000000000000e+00 -4.5999999506640457e+00 +2.5377897136808278e-04 +0.0000000000000000e+00 +9.9999996779811673e-01
-4.6499999999999915e+00 +8.3644038500583697e+00 +0.0000000000000000e+00 -4.6499999490363519e+00 +2.5654296146233310e-04 +0.0000000000000000e+00 +9.9999996709285432e-01
-4.6999999999999913e+00 +8.3643909538070744e+00 +0.0000000000000000e+00 -4.6999999473732030e+00 +2.5930711827221458e-04 +0.0000000000000000e+00 +9.9999996637990907e-01
-4.7499999999999911e+00 +8.3643779193437435e+00 +0.0000000000000000e+00 -4.7499999456742144e+00 +2.6207144302540613e-04 +0.0000000000000000e+00 +9.9999996565927918e-01
-4.7999999999999909e+00 +8.3643647466599518e+00 +0.0000000000000000e+00 -4.7999999439390022e+00 +2.6483593693436006e-04 +0.0000000000000000e+00 +9.9999996493096299e-01
-4.8499999999999908e+00 +8.3643514357472100e+00 +0.0000000000000000e+00 -4.8499999421671820e+00 +2.6760060119630216e-04 +0.0000000000000000e+00 +9.9999996419495885e-01
-4.8999999999999906e+00 +8.3643379865969720e+00 +0.0000000000000000e+00 -4.8999999403583701e+00 +2.7036543699323159e-04 +0.0000000000000000e+00 +9.9999996345126496e-01
-4.9499999999999904e+00 +8.3643243992006315e+00 +0.0000000000000000e+00 -4.9499999385121809e+00 +2.7313044549192092e-04 +0.0000000000000000e+00 +9.9999996269987956e-01
-4.9999999999999902e+00 +8.3643106735495252e+00 +0.0000000000000000e+00 -4.9999999366282299e+00 +2.7589562784391598e-04 +0.0000000000000000e+00 +9.9999996194080099e-01
-5.0499999999999901e+00 +8.3642968096349311e+00 +0.0000000000000000e+00 -5.0499999347061326e+00 +2.7866098518553598e-04 +0.0000000000000000e+00 +9.9999996117402734e-01
-5.0999999999999899e+00 +8.3642828074480722e+00 +0.0000000000000000e+00 -5.0999999327455043e+00 +2.8142651863787341e-04 +0.0000000000000000e+00 +9.9999996039955696e-01
-5.1499999999999897e+00 +8.3642686669801147e+00 +0.0000000000000000e+00 -5.1499999307459596e+00 +2.8419222930679410e-04 +0.0000000000000000e+00 +9.9999995961738808e-01
-5.1999999999999895e+00 +8.3642543882221698e+00 +0.0000000000000000e+00 -5.1999999287071148e+00 +2.8695811828293707e-04 +0.0000000000000000e+00 +9.9999995882751880e-01
-5.2499999999999893e+00 +8.3642399711652970e+00 +0.0000000000000000e+00 -5.2499999266285835e+00 +2.8972418664171461e-04 +0.0000000000000000e+00 +9.9999995802994746e-01
-5.2999999999999892e+00 +8.3642254158004992e+00 +0.0000000000000000e+00 -5.2999999245099811e+00 +2.9249043544331212e-04 +0.0000000000000000e+00 +9.9999995722467216e-01
-5.3499999999999890e+00 +8.3642107221187274e+00 +0.0000000000000000e+00 -5.3499999223509223e+00 +2.9525686573268826e-04 +0.0000000000000000e+00 +9.9999995641169115e-01
-5.3999999999999888e+00 +8.3641958901108833e+00 +0.0000000000000000e+00 -5.3999999201510214e+00 +2.9802347853957474e-04 +0.0000000000000000e+00 +9.9999995559100263e-01
-5.4499999999999886e+00 +8.3641809197678150e+00 +0.0000000000000000e+00 -5.4499999179098939e+00 +3.0079027487847632e-04 +0.0000000000000000e+00 +9.9999995476260473e-01
-5.4999999999999885e+00 +8.3641658110803210e+00 +0.0000000000000000e+00 -5.4999999156271535e+00 +3.0355725574867092e-04 +0.0000000000000000e+00 +9.9999995392649565e-01
-5.5499999999999883e+00 +8.3641505640391483e+00 +0.0000000000000000e+00 -5.5499999133024147e+00 +3.0632442213420939e-04 +0.0000000000000000e+00 +9.9999995308267353e-01
-5.5999999999999881e+00 +8.3641351786349993e+00 +0.0000000000000000e+00 -5.5999999109352920e+00 +3.0909177500391553e-04 +0.0000000000000000e+00 +9.9999995223113658e-01
-5.6499999999999879e+00 +8.3641196548585253e+00 +0.0000000000000000e+00 -5.6499999085254000e+00 +3.1185931531138616e-04 +0.0000000000000000e+00 +9.9999995137188291e-01
-5.6999999999999877e+00 +8.3641039927003291e+00 +0.0000000000000000e+00 -5.6999999060723523e+00 +3.1462704399499086e-04 +0.0000000000000000e+00 +9.9999995050491075e-01
-5.7499999999999876e+00 +8.3640881921509713e+00 +0.0000000000000000e+00 -5.7499999035757625e+00 +3.1739496197787212e-04 +0.0000000000000000e+00 +9.9999994963021821e-01
-5.7999999999999874e+00 +8.3640722532009626e+00 +0.0000000000000000e+00 -5.7999999010352452e+00 +3.2016307016794518e-04 +0.0000000000000000e+00 +9.9999994874780340e-01
-5.8499999999999872e+00 +8.3640561758407692e+00 +0.0000000000000000e+00 -5.8499998984504140e+00 +3.2293136945789802e-04 +0.0000000000000000e+00 +9.9999994785766444e-01
