# trajectory
# s[mm] rx[mm] ry[mm] rz[mm] px[rad] py[rad] pz[rad]
0.0000000000000000e+00 +8.5980000000000008e+00 +0.0000000000000000e+00 +0.0000000000000000e+00 +0.0000000000000000e+00 +0.0000000000000000e+00 +1.0000000000000000e+00
5.0000000000000003e-02 +8.5979999307657842e+00 +0.0000000000000000e+00 +4.9999999999936082e-02 -2.7693692643676492e-06 +0.0000000000000000e+00 +9.9999999999616529e-01
1.0000000000000001e-01 +8.5979997230629994e+00 +0.0000000000000000e+00 +9.9999999999488692e-02 -5.5387429946755891e-06 +0.0000000000000000e+00 +9.9999999998466116e-01
1.5000000000000002e-01 +8.5979993768913818e+00 +0.0000000000000000e+00 +1.4999999999827435e-01 -8.3081228556354760e-06 +0.0000000000000000e+00 +9.9999999996548750e-01
2.0000000000000001e-01 +8.5979988922505832e+00 +0.0000000000000000e+00 +1.9999999999590962e-01 -1.1077510507358340e-05 +0.0000000000000000e+00 +9.9999999993864430e-01
2.5000000000000000e-01 +8.5979982691401737e+00 +0.0000000000000000e+00 +2.4999999999201097e-01 -1.3846907605354663e-05 +0.0000000000000000e+00 +9.9999999990413146e-01
2.9999999999999999e-01 +8.5979975075596382e+00 +0.0000000000000000e+00 +2.9999999998619492e-01 -1.6616315800534447e-05 +0.0000000000000000e+00 +9.9999999986194887e-01
3.4999999999999998e-01 +8.5979966075083816e+00 +0.0000000000000000e+00 +3.4999999997807801e-01 -1.9385736739207284e-05 +0.0000000000000000e+00 +9.9999999981209642e-01
3.9999999999999997e-01 +8.5979955689857253e+00 +0.0000000000000000e+00 +3.9999999996727675e-01 -2.2155172063082444e-05 +0.0000000000000000e+00 +9.9999999975457399e-01
4.4999999999999996e-01 +8.5979943919909090e+00 +0.0000000000000000e+00 +4.4999999995340761e-01 -2.4924623409268930e-05 +0.0000000000000000e+00 +9.9999999968938136e-01
4.9999999999999994e-01 +8.5979930765230907e+00 +0.0000000000000000e+00 +4.9999999993608707e-01 -2.7694092410275554e-05 +0.0000000000000000e+00 +9.9999999961651842e-01
5.4999999999999993e-01 +8.5979916225813469e+00 +0.0000000000000000e+00 +5.4999999991493165e-01 -3.0463580694011020e-05 +0.0000000000000000e+00 +9.9999999953598495e-01
5.9999999999999998e-01 +8.5979900301646737e+00 +0.0000000000000000e+00 +5.9999999988955777e-01 -3.3233089883783974e-05 +0.0000000000000000e+00 +9.9999999944778073e-01
6.5000000000000002e-01 +8.5979882992719840e+00 +0.0000000000000000e+00 +6.4999999985958190e-01 -3.6002621598303095e-05 +0.0000000000000000e+00 +9.9999999935190553e-01
7.0000000000000007e-01 +8.5979864299021109e+00 +0.0000000000000000e+00 +6.9999999982462047e-01 -3.8772177451677153e-05 +0.0000000000000000e+00 +9.9999999924835903e-01
7.5000000000000011e-01 +8.5979844220538091e+00 +0.0000000000000000e+00 +7.4999999978428988e-01 -4.1541759053415074e-05 +0.0000000000000000e+00 +9.9999999913714099e-01
8.0000000000000016e-01 +8.5979822757257498e+00 +0.0000000000000000e+00 +7.9999999973820668e-01 -4.4311368008426016e-05 +0.0000000000000000e+00 +9.9999999901825121e-01
8.5000000000000020e-01 +8.5979799909165262e+00 +0.0000000000000000e+00 +8.4999999968598716e-01 -4.7081005917019443e-05 +0.0000000000000000e+00 +9.9999999889168933e-01
9.0000000000000024e-01 +8.5979775676246497e+00 +0.0000000000000000e+00 +8.9999999962724775e-01 -4.9850674374905181e-05 +0.0000000000000000e+00 +9.9999999875745504e-01
9.5000000000000029e-01 +8.5979750058485536e+00 +0.0000000000000000e+00 +9.4999999956160475e-01 -5.2620374973193488e-05 +0.0000000000000000e+00 +9.9999999861554800e-01
1.0000000000000002e+00 +8.5979723055865911e+00 +0.0000000000000000e+00 +9.9999999948867457e-01 -5.5390109298395119e-05 +0.0000000000000000e+00 +9.9999999846596788e-01
1.0500000000000003e+00 +8.5979694668370357e+00 +0.0000000000000000e+00 +1.0499999994080735e+00 -5.8159878932421409e-05 +0.0000000000000000e+00 +9.9999999830871422e-01
1.1000000000000003e+00 +8.5979664895980825e+00 +0.0000000000000000e+00 +1.0999999993194181e+00 -6.0929685452584306e-05 +0.0000000000000000e+00 +9.9999999814378671e-01
1.1500000000000004e+00 +8.5979633738678487e+00 +0.0000000000000000e+00 +1.1499999992223242e+00 -6.3699530431596461e-05 +0.0000000000000000e+00 +9.9999999797118488e-01
1.2000000000000004e+00 +8.5979601196443713e+00 +0.0000000000000000e+00 +1.1999999991164085e+00 -6.6469415437571297e-05 +0.0000000000000000e+00 +9.9999999779090842e-01
1.2500000000000004e+00 +8.5979567269256112e+00 +0.0000000000000000e+00 +1.2499999990012871e+00 -6.9239342034023045e-05 +0.0000000000000000e+00 +9.9999999760295677e-01
1.3000000000000005e+00 +8.5979531957094490e+00 +0.0000000000000000e+00 +1.2999999988765762e+00 -7.2009311779866838e-05 +0.0000000000000000e+00 +9.9999999740732948e-01
1.3500000000000005e+00 +8.5979495259936876e+00 +0.0000000000000000e+00 +1.3499999987418920e+00 -7.4779326229418747e-05 +0.0000000000000000e+00 +9.9999999720402610e-01
1.4000000000000006e+00 +8.5979457177760548e+00 +0.0000000000000000e+00 +1.3999999985968508e+00 -7.7549386932395872e-05 +0.0000000000000000e+00 +9.9999999699304620e-01
1.4500000000000006e+00 +8.5979417710541988e+00 +0.0000000000000000e+00 +1.4499999984410685e+00 -8.0319495433916387e-05 +0.0000000000000000e+00 +9.9999999677438922e-01
1.5000000000000007e+00 +8.5979376858256895e+00 +0.0000000000000000e+00 +1.4999999982741616e+00 -8.3089653274499590e-05 +0.0000000000000000e+00 +9.9999999654805460e-01
1.5500000000000007e+00 +8.5979334620880223e+00 +0.0000000000000000e+00 +1.5499999980957460e+00 -8.5859861990066001e-05 +0.0000000000000000e+00 +9.9999999631404191e-01
1.6000000000000008e+00 +8.5979290998386162e+00 +0.0000000000000000e+00 +1.5999999979054378e+00 -8.8630123111937376e-05 +0.0000000000000000e+00 +9.9999999607235046e-01
1.6500000000000008e+00 +8.5979245990748119e+00 +0.0000000000000000e+00 +1.6499999977028530e+00 -9.1400438166836797e-05 +0.0000000000000000e+00 +9.9999999582297983e-01
1.7000000000000008e+00 +8.5979199597938756e+00 +0.0000000000000000e+00 +1.6999999974876077e+00 -9.4170808676888719e-05 +0.0000000000000000e+00 +9.9999999556592922e-01
1.7500000000000009e+00 +8.5979151819929953e+00 +0.0000000000000000e+00 +1.7499999972593179e+00 -9.6941236159619047e-05 +0.0000000000000000e+00 +9.9999999530119821e-01
1.8000000000000009e+00 +8.5979102656692845e+00 +0.0000000000000000e+00 +1.7999999970175995e+00 -9.9711722127955178e-05 +0.0000000000000000e+00 +9.9999999502878612e-01
1.8500000000000010e+00 +8.5979052108197820e+00 +0.0000000000000000e+00 +1.8499999967620684e+00 -1.0248226809022607e-04 +0.0000000000000000e+00 +9.9999999474869228e-01
1.9000000000000010e+00 +8.5979000174414502e+00 +0.0000000000000000e+00 +1.8999999964923406e+00 -1.0525287555016227e-04 +0.0000000000000000e+00 +9.9999999446091603e-01
1.9500000000000011e+00 +8.5978946855311769e+00 +0.0000000000000000e+00 +1.9499999962080319e+00 -1.0802354600689601e-04 +0.0000000000000000e+00 +9.9999999416545671e-01
2.0000000000000009e+00 +8.5978892150857753e+00 +0.0000000000000000e+00 +1.9999999959087582e+00 -1.1079428095496125e-04 +0.0000000000000000e+00 +9.9999999386231364e-01
2.0500000000000007e+00 +8.5978836061019823e+00 +0.0000000000000000e+00 +2.0499999955941353e+00 -1.1356508188408274e-04 +0.0000000000000000e+00 +9.9999999355148605e-01
2.1000000000000005e+00 +8.5978778585764619e+00 +0.0000000000000000e+00 +2.0999999952637789e+00 -1.1633595027685528e-04 +0.0000000000000000e+00 +9.9999999323297328e-01
2.1500000000000004e+00 +8.5978719725058053e+00 +0.0000000000000000e+00 +2.1499999949173048e+00 -1.1910688760642302e-04 +0.0000000000000000e+00 +9.9999999290677466e-01
2.2000000000000002e+00 +8.5978659478865289e+00 +0.0000000000000000e+00 +2.1999999945543283e+00 -1.2187789533626848e-04 +0.0000000000000000e+00 +9.9999999257288930e-01
2.2500000000000000e+00 +8.5978597847150748e+00 +0.0000000000000000e+00 +2.2499999941744653e+00 -1.2464897492021261e-04 +0.0000000000000000e+00 +9.9999999223131653e-01
2.2999999999999998e+00 +8.5978534829878157e+00 +0.0000000000000000e+00 +2.2999999937773317e+00 -1.2742012780241491e-04 +0.0000000000000000e+00 +9.9999999188205546e-01
2.3499999999999996e+00 +8.5978470427010496e+00 +0.0000000000000000e+00 +2.3499999933625428e+00 -1.3019135541737342e-04 +0.0000000000000000e+00 +9.9999999152510544e-01
2.3999999999999995e+00 +8.5978404638510053e+00 +0.0000000000000000e+00 +2.3999999929297142e+00 -1.3296265918992479e-04 +0.0000000000000000e+00 +9.9999999116046556e-01
2.4499999999999993e+00 +8.5978337464338388e+00 +0.0000000000000000e+00 +2.4499999924784612e+00 -1.3573404053524434e-04 +0.0000000000000000e+00 +9.9999999078813506e-01
2.4999999999999991e+00 +8.5978268904456367e+00 +0.0000000000000000e+00 +2.4999999920083993e+00 -1.3850550085884607e-04 +0.0000000000000000e+00 +9.9999999040811305e-01
2.5499999999999989e+00 +8.5978198958824148e+00 +0.0000000000000000e+00 +2.5499999915191442e+00 -1.4127704155658281e-04 +0.0000000000000000e+00 +9.9999999002039874e-01
2.5999999999999988e+00 +8.5978127627401193e+00 +0.0000000000000000e+00 +2.5999999910103111e+00 -1.4404866401464619e-04 +0.0000000000000000e+00 +9.9999998962499115e-01
2.6499999999999986e+00 +8.5978054910146273e+00 +0.0000000000000000e+00 +2.6499999904815152e+00 -1.4682036960956676e-04 +0.0000000000000000e+00 +9.9999998922188948e-01
2.6999999999999984e+00 +8.5977980807017484e+00 +0.0000000000000000e+00 +2.6999999899323717e+00 -1.4959215970821390e-04 +0.0000000000000000e+00 +9.9999998881109287e-01
2.7499999999999982e+00 +8.5977905317972247e+00 +0.0000000000000000e+00 +2.7499999893624962e+00 -1.5236403566779608e-04 +0.0000000000000000e+00 +9.9999998839260029e-01
2.7999999999999980e+00 +8.5977828442967290e+00 +0.0000000000000000e+00 +2.7999999887715035e+00 -1.5513599883586071e-04 +0.0000000000000000e+00 +9.9999998796641087e-01
2.8499999999999979e+00 +8.5977750181958665e+00 +0.0000000000000000e+00 +2.8499999881590088e+00 -1.5790805055029437e-04 +0.0000000000000000e+00 +9.9999998753252373e-01
2.8999999999999977e+00 +8.5977670534901769e+00 +0.0000000000000000e+00 +2.8999999875246276e+00 -1.6068019213932269e-04 +0.0000000000000000e+00 +9.9999998709093785e-01
2.9499999999999975e+00 +8.5977589501751339e+00 +0.0000000000000000e+00 +2.9499999868679745e+00 -1.6345242492151051e-04 +0.0000000000000000e+00 +9.9999998664165235e-01
2.9999999999999973e+00 +8.5977507082461440e+00 +0.0000000000000000e+00 +2.9999999861886644e+00 -1.6622475020576193e-04 +0.0000000000000000e+00 +9.9999998618466612e-01
3.0499999999999972e+00 +8.5977423276985494e+00 +0.0000000000000000e+00 +3.0499999854863127e+00 -1.6899716929132030e-04 +0.0000000000000000e+00 +9.9999998571997828e-01
3.0999999999999970e+00 +8.5977338085276287e+00 +0.0000000000000000e+00 +3.0999999847605340e+00 -1.7176968346776828e-04 +0.0000000000000000e+00 +9.9999998524758782e-01
3.1499999999999968e+00 +8.5977251507285963e+00 +0.0000000000000000e+00 +3.1499999840109432e+00 -1.7454229401502792e-04 +0.0000000000000000e+00 +9.9999998476749374e-01
3.1999999999999966e+00 +8.5977163542966011e+00 +0.0000000000000000e+00 +3.1999999832371548e+00 -1.7731500220336072e-04 +0.0000000000000000e+00 +9.9999998427969494e-01
3.2499999999999964e+00 +8.5977074192267278e+00 +0.0000000000000000e+00 +3.2499999824387840e+00 -1.8008780929336762e-04 +0.0000000000000000e+00 +9.9999998378419042e-01
3.2999999999999963e+00 +8.5976983455140026e+00 +0.0000000000000000e+00 +3.2999999816154455e+00 -1.8286071653598904e-04 +0.0000000000000000e+00 +9.9999998328097905e-01
3.3499999999999961e+00 +8.5976891331533842e+00 +0.0000000000000000e+00 +3.3499999807667535e+00 -1.8563372517250504e-04 +0.0000000000000000e+00 +9.9999998277005986e-01
3.3999999999999959e+00 +8.5976797821397746e+00 +0.0000000000000000e+00 +3.3999999798923231e+00 -1.8840683643453523e-04 +0.0000000000000000e+00 +9.9999998225143183e-01
3.4499999999999957e+00 +8.5976702924680097e+00 +0.0000000000000000e+00 +3.4499999789917681e+00 -1.9118005154403889e-04 +0.0000000000000000e+00 +9.9999998172509375e-01
3.4999999999999956e+00 +8.5976606641328690e+00 +0.0000000000000000e+00 +3.4999999780647038e+00 -1.9395337171331501e-04 +0.0000000000000000e+00 +9.9999998119104461e-01
3.5499999999999954e+00 +8.5976508971290677e+00 +0.0000000000000000e+00 +3.5499999771107440e+00 -1.9672679814500228e-04 +0.0000000000000000e+00 +9.9999998064928319e-01
3.5999999999999952e+00 +8.5976409914512644e+00 +0.0000000000000000e+00 +3.5999999761295034e+00 -1.9950033203207921e-04 +0.0000000000000000e+00 +9.9999998009980851e-01
3.6499999999999950e+00 +8.5976309470940553e+00 +0.0000000000000000e+00 +3.6499999751205960e+00 -2.0227397455786414e-04 +0.0000000000000000e+00 +9.9999997954261932e-01
3.6999999999999948e+00 +8.5976207640519782e+00 +0.0000000000000000e+00 +3.6999999740836365e+00 -2.0504772689601528e-04 +0.0000000000000000e+00 +9.9999997897771453e-01
3.7499999999999947e+00 +8.5976104423195157e+00 +0.0000000000000000e+00 +3.7499999730182387e+00 -2.0782159021053072e-04 +0.0000000000000000e+00 +9.9999997840509303e-01
3.7999999999999945e+00 +8.5975999818910882e+00 +0.0000000000000000e+00 +3.7999999719240170e+00 -2.1059556565574853e-04 +0.0000000000000000e+00 +9.9999997782475358e-01
3.8499999999999943e+00 +8.5975893827610612e+00 +0.0000000000000000e+00 +3.8499999708005852e+00 -2.1336965437634679e-04 +0.0000000000000000e+00 +9.9999997723669498e-01
3.8999999999999941e+00 +8.5975786449237432e+00 +0.0000000000000000e+00 +3.8999999696475576e+00 -2.1614385750734361e-04 +0.0000000000000000e+00 +9.9999997664091611e-01
3.9499999999999940e+00 +8.5975677683733842e+00 +0.0000000000000000e+00 +3.9499999684645482e+00 -2.1891817617409714e-04 +0.0000000000000000e+00 +9.9999997603741575e-01
3.9999999999999938e+00 +8.5975567531041808e+00 +0.0000000000000000e+00 +3.9999999672511706e+00 -2.2169261149230574e-04 +0.0000000000000000e+00 +9.9999997542619268e-01
4.0499999999999936e+00 +8.5975455991102727e+00 +0.0000000000000000e+00 +4.0499999660070385e+00 -2.2446716456789897e-04 +0.0000000000000000e+00 +9.9999997480724567e-01
4.0999999999999934e+00 +8.5975343063857430e+00 +0.0000000000000000e+00 +4.0999999647317660e+00 -2.2724183649584017e-04 +0.0000000000000000e+00 +9.9999997418057351e-01
4.1499999999999932e+00 +8.5975228749246231e+00 +0.0000000000000000e+00 +4.1499999634249667e+00 -2.3001662835892871e-04 +0.0000000000000000e+00 +9.9999997354617498e-01
4.1999999999999931e+00 +8.5975113047208893e+00 +0.0000000000000000e+00 +4.1999999620862543e+00 -2.3279154122769121e-04 +0.0000000000000000e+00 +9.9999997290404874e-01
4.2499999999999929e+00 +8.5974995957684648e+00 +0.0000000000000000e+00 +4.2499999607152423e+00 -2.3556657616038149e-04 +0.0000000000000000e+00 +9.9999997225419368e-01
4.2999999999999927e+00 +8.5974877480612211e+00 +0.0000000000000000e+00 +4.2999999593115446e+00 -2.3834173420298052e-04 +0.0000000000000000e+00 +9.9999997159660847e-01
4.3499999999999925e+00 +8.5974757615929764e+00 +0.0000000000000000e+00 +4.3499999578747746e+00 -2.4111701638919643e-04 +0.0000000000000000e+00 +9.9999997093129178e-01
4.3999999999999924e+00 +8.5974636363574977e+00 +0.0000000000000000e+00 +4.3999999564045451e+00 -2.4389242374046443e-04 +0.0000000000000000e+00 +9.9999997025824239e-01
4.4499999999999922e+00 +8.5974513723485000e+00 +0.0000000000000000e+00 +4.4499999549004698e+00 -2.4666795726594690e-04 +0.0000000000000000e+00 +9.9999996957745896e-01
4.4999999999999920e+00 +8.5974389695596507e+00 +0.0000000000000000e+00 +4.4999999533621624e+00 -2.4944361796253321e-04 +0.0000000000000000e+00 +9.9999996888894027e-01
4.5499999999999918e+00 +8.5974264279845674e+00 +0.0000000000000000e+00 +4.5499999517892356e+00 -2.5221940681483982e-04 +0.0000000000000000e+00 +9.9999996819268488e-01
4.5999999999999917e+00 +8.5974137476168178e+00 +0.0000000000000000e+00 +4.5999999501813020e+00 -2.5499532479521020e-04 +0.0000000000000000e+00 +9.9999996748869158e-01
4.6499999999999915e+00 +8.5974009284499200e+00 +0.0000000000000000e+00 +4.6499999485379755e+00 -2.5777137286371469e-04 +0.0000000000000000e+00 +9.9999996677695902e-01
4.6999999999999913e+00 +8.5973879704773477e+00 +0.0000000000000000e+00 +4.6999999468588687e+00 -2.6054755196815068e-04 +0.0000000000000000e+00 +9.9999996605748587e-01
4.7499999999999911e+00 +8.5973748736925248e+00 +0.0000000000000000e+00 +4.7499999451435952e+00 -2.6332386304404236e-04 +0.0000000000000000e+00 +9.9999996533027080e-01
4.7999999999999909e+00 +8.5973616380888291e+00 +0.0000000000000000e+00 +4.7999999433917671e+00 -2.6610030701464083e-04 +0.0000000000000000e+00 +9.9999996459531248e-01
4.8499999999999908e+00 +8.5973482636595939e+00 +0.0000000000000000e+00 +4.8499999416029977e+00 -2.6887688479092399e-04 +0.0000000000000000e+00 +9.9999996385260959e-01
4.8999999999999906e+00 +8.5973347503981064e+00 +0.0000000000000000e+00 +4.8999999397768992e+00 -2.7165359727159645e-04 +0.0000000000000000e+00 +9.9999996310216066e-01
4.9499999999999904e+00 +8.5973210982976074e+00 +0.0000000000000000e+00 +4.9499999379130850e+00 -2.7443044534308954e-04 +0.0000000000000000e+00 +9.9999996234396438e-01
4.9999999999999902e+00 +8.5973073073512971e+00 +0.0000000000000000e+00 +4.9999999360111671e+00 -2.7720742987956127e-04 +0.0000000000000000e+00 +9.9999996157801940e-01
5.0499999999999901e+00 +8.5972933775523313e+00 +0.0000000000000000e+00 +5.0499999340707582e+00 -2.7998455174289627e-04 +0.0000000000000000e+00 +9.9999996080432441e-01
5.0999999999999899e+00 +8.5972793088938211e+00 +0.0000000000000000e+00 +5.0999999320914702e+00 -2.8276181178270564e-04 +0.0000000000000000e+00 +9.9999996002287783e-01
5.1499999999999897e+00 +8.5972651013688370e+00 +0.0000000000000000e+00 +5.1499999300729167e+00 -2.8553921083632715e-04 +0.0000000000000000e+00 +9.9999995923367846e-01
5.1999999999999895e+00 +8.5972507549704069e+00 +0.0000000000000000e+00 +5.1999999280147087e+00 -2.8831674972882481e-04 +0.0000000000000000e+00 +9.9999995843672485e-01
5.2499999999999893e+00 +8.5972362696915194e+00 +0.0000000000000000e+00 +5.2499999259164598e+00 -2.9109442927298916e-04 +0.0000000000000000e+00 +9.9999995763201555e-01
5.2999999999999892e+00 +8.5972216455251225e+00 +0.0000000000000000e+00 +5.2999999237777811e+00 -2.9387225026933697e-04 +0.0000000000000000e+00 +9.9999995681954912e-01
5.3499999999999890e+00 +8.5972068824641230e+00 +0.0000000000000000e+00 +5.3499999215982852e+00 -2.9665021350611131e-04 +0.0000000000000000e+00 +9.9999995599932423e-01
5.3999999999999888e+00 +8.5971919805013890e+00 +0.0000000000000000e+00 +5.3999999193775841e+00 -2.9942831975928141e-04 +0.0000000000000000e+00 +9.9999995517133944e-01
5.4499999999999886e+00 +8.5971769396297510e+00 +0.0000000000000000e+00 +5.4499999171152895e+00 -3.0220656979254259e-04 +0.0000000000000000e+00 +9.9999995433559330e-01
5.4999999999999885e+00 +8.5971617598420007e+00 +0.0000000000000000e+00 +5.4999999148110135e+00 -3.0498496435731628e-04 +0.0000000000000000e+00 +9.9999995349208448e-01
5.5499999999999883e+00 +8.5971464411308940e+00 +0.0000000000000000e+00 +5.5499999124643686e+00 -3.0776350419274979e-04 +0.0000000000000000e+00 +9.9999995264081143e-01
5.5999999999999881e+00 +8.5971309834891478e+00 +0.0000000000000000e+00 +5.5999999100749660e+00 -3.1054219002571643e-04 +0.0000000000000000e+00 +9.9999995178177270e-01
5.6499999999999879e+00 +8.5971153869094454e+00 +0.0000000000000000e+00 +5.6499999076424166e+00 -3.1332102257081531e-04 +0.0000000000000000e+00 +9.9999995091496696e-01
5.6999999999999877e+00 +8.5970996513844344e+00 +0.0000000000000000e+00 +5.6999999051663330e+00 -3.1610000253037119e-04 +0.0000000000000000e+00 +9.9999995004039266e-01
5.7499999999999876e+00 +8.5970837769067252e+00 +0.0000000000000000e+00 +5.7499999026463264e+00 -3.1887913059443457e-04 +0.0000000000000000e+00 +9.9999994915804846e-01
5.7999999999999874e+00 +8.5970677634688961e+00 +0.0000000000000000e+00 +5.7999999000820086e+00 -3.2165840744078153e-04 +0.0000000000000000e+00 +9.9999994826793281e-01
5.8499999999999872e+00 +8.5970516110634900e+00 +0.0000000000000000e+00 +5.8499998974729905e+00 -3.2443783373491358e-04 +0.0000000000000000e+00 +9.9999994737004427e-01
5.8999999999999870e+00 +8.5970353196830196e+00 +0.0000000000000000e+00 +5.8999998948188832e+00 -3.2721741013005772e-04 +0.0000000000000000e+00 +9.9999994646438151e-01
