# field on trajectory
# s[mm] rx[mm] ry[mm] rz[mm] bx[T] by[T] bz[T]
0.0000000000000000e+00 +8.5269999999999904e+00 +0.0000000000000000e+00 +0.0000000000000000e+00 -2.7921811230915580e-02 -5.2381291265631746e-01 +5.0963850220197985e-03
5.0000000000000003e-02 +8.5269999309457507e+00 +0.0000000000000000e+00 +4.9999999999936401e-02 -2.7922012368768241e-02 -5.2381278347594584e-01 +5.0965883905828725e-03
1.0000000000000001e-01 +8.5269997237883199e+00 +0.0000000000000000e+00 +9.9999999999491399e-02 -2.7922232294175675e-02 -5.2381301284762583e-01 +5.0967939097500319e-03
1.4999999999999999e-01 +8.5269993785295792e+00 +0.0000000000000000e+00 +1.4999999999828301e-01 -2.7922470967750579e-02 -5.2381360000732524e-01 +5.0970015995376551e-03
2.0000000000000001e-01 +8.5269988951622508e+00 +0.0000000000000000e+00 +1.9999999999593099e-01 -2.7922728350110101e-02 -5.2381454419109097e-01 +5.0972114799628957e-03
2.5000000000000000e-01 +8.5269982736936107e+00 +0.0000000000000000e+00 +2.4999999999205300e-01 -2.7923004401867107e-02 -5.2381584463488517e-01 +5.0974235710421556e-03
2.9999999999999999e-01 +8.5269975141200103e+00 +0.0000000000000000e+00 +2.9999999998626797e-01 -2.7923299083639518e-02 -5.2381750057476106e-01 +5.0976378927927325e-03
3.4999999999999998e-01 +8.5269966164378292e+00 +0.0000000000000000e+00 +3.4999999997819298e-01 -2.7923612356046162e-02 -5.2381951124678727e-01 +5.0978544652321199e-03
4.0000000000000002e-01 +8.5269955806543294e+00 +0.0000000000000000e+00 +3.9999999996744900e-01 -2.7923944179702856e-02 -5.2382187588697304e-01 +5.0980733083772975e-03
4.5000000000000001e-01 +8.5269944067658798e+00 +0.0000000000000000e+00 +4.4999999995365297e-01 -2.7924294515230215e-02 -5.2382459373141832e-01 +5.0982944422461544e-03
5.0000000000000000e-01 +8.5269930947724806e+00 +0.0000000000000000e+00 +4.9999999993642402e-01 -2.7924663323248364e-02 -5.2382766401621317e-01 +5.0985178868565443e-03
5.5000000000000004e-01 +8.5269916446777607e+00 +0.0000000000000000e+00 +5.4999999991537996e-01 -2.7925050564376896e-02 -5.2383108597743844e-01 +5.0987436622262896e-03
5.9999999999999998e-01 +8.5269900564744603e+00 +0.0000000000000000e+00 +5.9999999989013997e-01 -2.7925456199240060e-02 -5.2383485885126480e-01 +5.0989717883741263e-03
6.5000000000000002e-01 +8.5269883301661995e+00 +0.0000000000000000e+00 +6.4999999986032297e-01 -2.7925880188458815e-02 -5.2383898187380384e-01 +5.0992022853182922e-03
6.9999999999999996e-01 +8.5269864657566394e+00 +0.0000000000000000e+00 +6.9999999982554695e-01 -2.7926322492654716e-02 -5.2384345428118195e-01 +5.0994351730772377e-03
7.5000000000000000e-01 +8.5269844632421208e+00 +0.0000000000000000e+00 +7.4999999978543097e-01 -2.7926783072452565e-02 -5.2384827530959077e-01 +5.0996704716701029e-03
8.0000000000000004e-01 +8.5269823226226400e+00 +0.0000000000000000e+00 +7.9999999973959202e-01 -2.7927261888476371e-02 -5.2385344419521307e-01 +5.0999082011160077e-03
8.4999999999999998e-01 +8.5269800438982202e+00 +0.0000000000000000e+00 +8.4999999968765005e-01 -2.7927758901350536e-02 -5.2385896017424438e-01 +5.1001483814342849e-03
9.0000000000000002e-01 +8.5269776270688507e+00 +0.0000000000000000e+00 +8.9999999962922395e-01 -2.7928274071699965e-02 -5.2386482248289756e-01 +5.1003910326445009e-03
9.4999999999999996e-01 +8.5269750721381605e+00 +0.0000000000000000e+00 +9.4999999956393100e-01 -2.7928807360148574e-02 -5.2387103035737481e-01 +5.1006361747662089e-03
1.0000000000000000e+00 +8.5269723790988792e+00 +0.0000000000000000e+00 +9.9999999949139096e-01 -2.7929358727324573e-02 -5.2387758303396792e-01 +5.1008838278198939e-03
1.0500000000000000e+00 +8.5269695479546499e+00 +0.0000000000000000e+00 +1.0499999994112199e+00 -2.7929928133852457e-02 -5.2388447974890839e-01 +5.1011340118255633e-03
1.1000000000000001e+00 +8.5269665787091107e+00 +0.0000000000000000e+00 +1.0999999993230400e+00 -2.7930515540356970e-02 -5.2389171973844340e-01 +5.1013867468034640e-03
1.1499999999999999e+00 +8.5269634713586093e+00 +0.0000000000000000e+00 +1.1499999992264700e+00 -2.7931120907465645e-02 -5.2389930223888415e-01 +5.1016420527745443e-03
1.2000000000000000e+00 +8.5269602259031707e+00 +0.0000000000000000e+00 +1.1999999991211201e+00 -2.7931744195804822e-02 -5.2390722648653154e-01 +5.1018999497597622e-03
1.2500000000000000e+00 +8.5269568423427700e+00 +0.0000000000000000e+00 +1.2499999990066200e+00 -2.7932385366000925e-02 -5.2391549171770213e-01 +5.1021604577803081e-03
1.3000000000000000e+00 +8.5269533206774195e+00 +0.0000000000000000e+00 +1.2999999988825901e+00 -2.7933044378680390e-02 -5.2392409716872579e-01 +5.1024235968576224e-03
1.3500000000000001e+00 +8.5269496609071194e+00 +0.0000000000000000e+00 +1.3499999987486300e+00 -2.7933721194469636e-02 -5.2393304207594815e-01 +5.1026893870133941e-03
1.3999999999999999e+00 +8.5269458630355093e+00 +0.0000000000000000e+00 +1.3999999986043801e+00 -2.7934415773993634e-02 -5.2394232567570342e-01 +5.1029578482693167e-03
1.4500000000000000e+00 +8.5269419270553009e+00 +0.0000000000000000e+00 +1.4499999984494401e+00 -2.7935128077881288e-02 -5.2395194720441607e-01 +5.1032290006480510e-03
1.5000000000000000e+00 +8.5269378529737896e+00 +0.0000000000000000e+00 +1.4999999982834400e+00 -2.7935858066755932e-02 -5.2396190589842395e-01 +5.1035028641715644e-03
1.5500000000000000e+00 +8.5269336407873197e+00 +0.0000000000000000e+00 +1.5499999981060000e+00 -2.7936605701244701e-02 -5.2397220099415531e-01 +5.1037794588627934e-03
1.6000000000000001e+00 +8.5269292904959002e+00 +0.0000000000000000e+00 +1.5999999979167401e+00 -2.7937370941973128e-02 -5.2398283172802740e-01 +5.1040588047446952e-03
1.6499999999999999e+00 +8.5269248020995292e+00 +0.0000000000000000e+00 +1.6499999977152600e+00 -2.7938153749566406e-02 -5.2399379733647156e-01 +5.1043409218404874e-03
1.7000000000000000e+00 +8.5269201755982102e+00 +0.0000000000000000e+00 +1.6999999975011999e+00 -2.7938954084649366e-02 -5.2400509705593334e-01 +5.1046258301736544e-03
1.7500000000000000e+00 +8.5269154109919292e+00 +0.0000000000000000e+00 +1.7499999972741700e+00 -2.7939771907846390e-02 -5.2401673012287309e-01 +5.1049135497679525e-03
1.8000000000000000e+00 +8.5269105082843506e+00 +0.0000000000000000e+00 +1.7999999970337901e+00 -2.7940607179780051e-02 -5.2402869577373845e-01 +5.1052041006471628e-03
1.8500000000000001e+00 +8.5269054674718099e+00 +0.0000000000000000e+00 +1.8499999967796801e+00 -2.7941459861075130e-02 -5.2404099324504383e-01 +5.1054975028358273e-03
1.8999999999999999e+00 +8.5269002885506797e+00 +0.0000000000000000e+00 +1.8999999965114500e+00 -2.7942329912355738e-02 -5.2405362177331527e-01 +5.1057937763587411e-03
1.9500000000000000e+00 +8.5268949715282396e+00 +0.0000000000000000e+00 +1.9499999962287300e+00 -2.7943217294241422e-02 -5.2406658059501932e-01 +5.1060929412402910e-03
2.0000000000000000e+00 +8.5268895164008391e+00 +0.0000000000000000e+00 +1.9999999959311201e+00 -2.7944121967355035e-02 -5.2407986894671033e-01 +5.1063950175058385e-03
2.0499999999999998e+00 +8.5268839230666291e+00 +0.0000000000000000e+00 +2.0499999956182600e+00 -2.7945043889923186e-02 -5.2409348585641102e-01 +5.1067000267782025e-03
2.1000000000000001e+00 +8.5268781914164702e+00 +0.0000000000000000e+00 +2.0999999952897199e+00 -2.7945983010448355e-02 -5.2410742951531275e-01 +5.1070079970442729e-03
2.1499999999999999e+00 +8.5268723214576294e+00 +0.0000000000000000e+00 +2.1499999949451398e+00 -2.7946939274959524e-02 -5.2412169790459207e-01 +5.1073189578745379e-03
2.2000000000000002e+00 +8.5268663131864706e+00 +0.0000000000000000e+00 +2.1999999945841302e+00 -2.7947912629490857e-02 -5.2413628900550990e-01 +5.1076329388404325e-03
2.2500000000000000e+00 +8.5268601666030008e+00 +0.0000000000000000e+00 +2.2499999942063100e+00 -2.7948903020076507e-02 -5.2415120079931365e-01 +5.1079499695134032e-03
2.2999999999999998e+00 +8.5268538817035697e+00 +0.0000000000000000e+00 +2.2999999938113000e+00 -2.7949910392753279e-02 -5.2416643126728535e-01 +5.1082700794653907e-03
2.3500000000000001e+00 +8.5268474584954692e+00 +0.0000000000000000e+00 +2.3499999933987001e+00 -2.7950934693555383e-02 -5.2418197839064140e-01 +5.1085932982678824e-03
2.3999999999999999e+00 +8.5268408969750507e+00 +0.0000000000000000e+00 +2.3999999929681501e+00 -2.7951975868522511e-02 -5.2419784015068316e-01 +5.1089196554933132e-03
2.4500000000000002e+00 +8.5268341971459396e+00 +0.0000000000000000e+00 +2.4499999925192602e+00 -2.7953033863693241e-02 -5.2421401452867178e-01 +5.1092491807139115e-03
2.5000000000000000e+00 +8.5268273590008903e+00 +0.0000000000000000e+00 +2.4999999920516398e+00 -2.7954108625111770e-02 -5.2423049950595257e-01 +5.1095819035028561e-03
2.5499999999999998e+00 +8.5268203825435194e+00 +0.0000000000000000e+00 +2.5499999915649201e+00 -2.7955200098819927e-02 -5.2424729306380335e-01 +5.1099178534328759e-03
2.6000000000000001e+00 +8.5268132677774702e+00 +0.0000000000000000e+00 +2.5999999910586999e+00 -2.7956308230861336e-02 -5.2426439318351259e-01 +5.1102570600769556e-03
2.6499999999999999e+00 +8.5268060146954703e+00 +0.0000000000000000e+00 +2.6499999905326099e+00 -2.7957432967285374e-02 -5.2428179784645113e-01 +5.1105995530090339e-03
2.7000000000000002e+00 +8.5267986233047797e+00 +0.0000000000000000e+00 +2.6999999899862699e+00 -2.7958574254137995e-02 -5.2429950503389811e-01 +5.1109453618023680e-03
2.7500000000000000e+00 +8.5267910936017905e+00 +0.0000000000000000e+00 +2.7499999894192899e+00 -2.7959732037471093e-02 -5.2431751272721550e-01 +5.1112945160311741e-03
2.7999999999999998e+00 +8.5267834255828294e+00 +0.0000000000000000e+00 +2.7999999888312899e+00 -2.7960906263338567e-02 -5.2433581890777414e-01 +5.1116470452699150e-03
2.8500000000000001e+00 +8.5267756192552007e+00 +0.0000000000000000e+00 +2.8499999882218900e+00 -2.7962096877792348e-02 -5.2435442155687606e-01 +5.1120029790926160e-03
2.8999999999999999e+00 +8.5267676746152592e+00 +0.0000000000000000e+00 +2.8999999875907001e+00 -2.7963303826890547e-02 -5.2437331865590597e-01 +5.1123623470742561e-03
2.9500000000000002e+00 +8.5267595916629908e+00 +0.0000000000000000e+00 +2.9499999869373399e+00 -2.7964527056692161e-02 -5.2439250818623162e-01 +5.1127251787898339e-03
3.0000000000000000e+00 +8.5267513703984203e+00 +0.0000000000000000e+00 +2.9999999862614302e+00 -2.7965766513258418e-02 -5.2441198812922607e-01 +5.1130915038146091e-03
3.0499999999999998e+00 +8.5267430108251592e+00 +0.0000000000000000e+00 +3.0499999855625899e+00 -2.7967022142651548e-02 -5.2443175646624518e-01 +5.1134613517238572e-03
3.1000000000000001e+00 +8.5267345129359509e+00 +0.0000000000000000e+00 +3.0999999848404300e+00 -2.7968293890940219e-02 -5.2445181117872575e-01 +5.1138347520938172e-03
3.1499999999999999e+00 +8.5267258767344192e+00 +0.0000000000000000e+00 +3.1499999840945798e+00 -2.7969581704191553e-02 -5.2447215024803584e-01 +5.1142117345002857e-03
3.2000000000000002e+00 +8.5267171022205694e+00 +0.0000000000000000e+00 +3.1999999833246400e+00 -2.7970885528476541e-02 -5.2449277165557473e-01 +5.1145923285195408e-03
3.2500000000000000e+00 +8.5267081893980503e+00 +0.0000000000000000e+00 +3.2499999825302401e+00 -2.7972205309867403e-02 -5.2451367338272170e-01 +5.1149765637278979e-03
3.2999999999999998e+00 +8.5266991382632096e+00 +0.0000000000000000e+00 +3.2999999817109900e+00 -2.7973540994441781e-02 -5.2453485341091188e-01 +5.1153644697023853e-03
3.3500000000000001e+00 +8.5266899488124199e+00 +0.0000000000000000e+00 +3.3499999808665200e+00 -2.7974892528279977e-02 -5.2455630972158607e-01 +5.1157560760202994e-03
3.3999999999999999e+00 +8.5266806210529502e+00 +0.0000000000000000e+00 +3.3999999799964300e+00 -2.7976259857461099e-02 -5.2457804029611443e-01 +5.1161514122584932e-03
3.4500000000000002e+00 +8.5266711549811607e+00 +0.0000000000000000e+00 +3.4499999791003502e+00 -2.7977642928071166e-02 -5.2460004311594732e-01 +5.1165505079947713e-03
3.5000000000000000e+00 +8.5266615505970496e+00 +0.0000000000000000e+00 +3.4999999781778901e+00 -2.7979041686197755e-02 -5.2462231616251476e-01 +5.1169533928069732e-03
3.5499999999999998e+00 +8.5266518079006293e+00 +0.0000000000000000e+00 +3.5499999772286701e+00 -2.7980456077931457e-02 -5.2464485741725064e-01 +5.1173600962731948e-03
3.6000000000000001e+00 +8.5266419268882601e+00 +0.0000000000000000e+00 +3.5999999762523198e+00 -2.7981886049367275e-02 -5.2466766486161864e-01 +5.1177706479720317e-03
3.6499999999999999e+00 +8.5266319075708505e+00 +0.0000000000000000e+00 +3.6499999752484298e+00 -2.7983331546597962e-02 -5.2469073647698483e-01 +5.1181850774813893e-03
3.6999999999999900e+00 +8.5266217499374797e+00 +0.0000000000000000e+00 +3.6999999742166398e+00 -2.7984792515727525e-02 -5.2471407024487116e-01 +5.1186034143808554e-03
3.7499999999999898e+00 +8.5266114539917908e+00 +0.0000000000000000e+00 +3.7499999731565601e+00 -2.7986268902857877e-02 -5.2473766414670142e-01 +5.1190256882493344e-03
3.7999999999999901e+00 +8.5266010197374307e+00 +0.0000000000000000e+00 +3.7999999720678099e+00 -2.7987760654094234e-02 -5.2476151616390254e-01 +5.1194519286659919e-03
3.8499999999999899e+00 +8.5265904471671092e+00 +0.0000000000000000e+00 +3.8499999709499999e+00 -2.7989267715549267e-02 -5.2478562427798037e-01 +5.1198821652109578e-03
3.8999999999999901e+00 +8.5265797362881095e+00 +0.0000000000000000e+00 +3.8999999698027499e+00 -2.7990790033333726e-02 -5.2480998647034283e-01 +5.1203164274636944e-03
3.9499999999999900e+00 +8.5265688870931609e+00 +0.0000000000000000e+00 +3.9499999686256899e+00 -2.7992327553567245e-02 -5.2483460072250077e-01 +5.1207547450048477e-03
3.9999999999999898e+00 +8.5265578995895304e+00 +0.0000000000000000e+00 +3.9999999674184199e+00 -2.7993880222367706e-02 -5.2485946501586644e-01 +5.1211971474144097e-03
4.0499999999999901e+00 +8.5265467737735907e+00 +0.0000000000000000e+00 +4.0499999661805601e+00 -2.7995447975121664e-02 -5.2488457722944704e-01 +5.1216436533186903e-03
4.0999999999999899e+00 +8.5265355096416897e+00 +0.0000000000000000e+00 +4.0999999649117402e+00 -2.7997030704261957e-02 -5.2490993483231663e-01 +5.1220942375256543e-03
4.1499999999999897e+00 +8.5265241072047502e+00 +0.0000000000000000e+00 +4.1499999636115703e+00 -2.7998628291477000e-02 -5.2493553519096781e-01 +5.1225488638879189e-03
4.1999999999999904e+00 +8.5265125664518600e+00 +0.0000000000000000e+00 +4.1999999622796604e+00 -2.8000240618462811e-02 -5.2496137567204537e-01 +5.1230074962597544e-03
4.2499999999999902e+00 +8.5265008873866499e+00 +0.0000000000000000e+00 +4.2499999609156403e+00 -2.8001867566909543e-02 -5.2498745364209642e-01 +5.1234700984947659e-03
4.2999999999999901e+00 +8.5264890700091200e+00 +0.0000000000000000e+00 +4.2999999595191198e+00 -2.8003509018508132e-02 -5.2501376646769438e-01 +5.1239366344470495e-03
4.3499999999999899e+00 +8.5264771143192792e+00 +0.0000000000000000e+00 +4.3499999580897200e+00 -2.8005164854948906e-02 -5.2504031151541375e-01 +5.1244070679709597e-03
4.3999999999999897e+00 +8.5264650203207601e+00 +0.0000000000000000e+00 +4.3999999566270596e+00 -2.8006834957920185e-02 -5.2506708615180575e-01 +5.1248813629208786e-03
4.4499999999999904e+00 +8.5264527880062797e+00 +0.0000000000000000e+00 +4.4499999551307496e+00 -2.8008519209113583e-02 -5.2509408774349775e-01 +5.1253594831521523e-03
4.4999999999999902e+00 +8.5264404173794901e+00 +0.0000000000000000e+00 +4.4999999536004101e+00 -2.8010217490215861e-02 -5.2512131365704262e-01 +5.1258413925196868e-03
4.5499999999999901e+00 +8.5264279084440204e+00 +0.0000000000000000e+00 +4.5499999520356598e+00 -2.8011929682912939e-02 -5.2514876125899379e-01 +5.1263270548786476e-03
4.5999999999999899e+00 +8.5264152611962292e+00 +0.0000000000000000e+00 +4.5999999504361098e+00 -2.8013655668892540e-02 -5.2517642791595553e-01 +5.1268164340849314e-03
4.6499999999999897e+00 +8.5264024756361305e+00 +0.0000000000000000e+00 +4.6499999488013897e+00 -2.8015395329840008e-02 -5.2520431099450682e-01 +5.1273094939944643e-03
4.6999999999999904e+00 +8.5263895517600794e+00 +0.0000000000000000e+00 +4.6999999471311096e+00 -2.8017148547441053e-02 -5.2523240786125247e-01 +5.1278061984636643e-03
4.7499999999999902e+00 +8.5263764895753393e+00 +0.0000000000000000e+00 +4.7499999454248902e+00 -2.8018915203376207e-02 -5.2526071588272072e-01 +5.1283065113485122e-03
4.7999999999999901e+00 +8.5263632890782901e+00 +0.0000000000000000e+00 +4.7999999436823400e+00 -2.8020695179328904e-02 -5.2528923242551573e-01 +5.1288103965059523e-03
4.8499999999999899e+00 +8.5263499502725608e+00 +0.0000000000000000e+00 +4.8499999419030901e+00 -2.8022488356978677e-02 -5.2531795485618982e-01 +5.1293178177927263e-03
4.8999999999999897e+00 +8.5263364731472393e+00 +0.0000000000000000e+00 +4.8999999400867402e+00 -2.8024294618009152e-02 -5.2534688054139633e-01 +5.1298287390667769e-03
4.9499999999999904e+00 +8.5263228577168793e+00 +0.0000000000000000e+00 +4.9499999382329296e+00 -2.8026113844093203e-02 -5.2537600684760999e-01 +5.1303431241846598e-03
4.9999999999999902e+00 +8.5263091039705596e+00 +0.0000000000000000e+00 +4.9999999363412497e+00 -2.8027945916911712e-02 -5.2540533114148202e-01 +5.1308609370048488e-03
5.0499999999999901e+00 +8.5262952115954196e+00 +0.0000000000000000e+00 +5.0499999344112600e+00 -2.8029790718256464e-02 -5.2543485079176555e-01 +5.1313821414055534e-03
5.0999999999999899e+00 +8.5262811802713294e+00 +0.0000000000000000e+00 +5.0999999324424596e+00 -2.8031648129920539e-02 -5.2546456316726553e-01 +5.1319067012657368e-03
5.1499999999999897e+00 +8.5262670100019005e+00 +0.0000000000000000e+00 +5.1499999304344799e+00 -2.8033518033575108e-02 -5.2549446563452951e-01 +5.1324345804437382e-03
5.1999999999999904e+00 +8.5262527007798798e+00 +0.0000000000000000e+00 +5.1999999283869203e+00 -2.8035400310893740e-02 -5.2552455556017863e-01 +5.1329657427988708e-03
5.2499999999999902e+00 +8.5262382526088896e+00 +0.0000000000000000e+00 +5.2499999262994104e+00 -2.8037294843544273e-02 -5.2555483031075600e-01 +5.1335001521900089e-03
5.2999999999999901e+00 +8.5262236654925800e+00 +0.0000000000000000e+00 +5.2999999241715603e+00 -2.8039201513192787e-02 -5.2558528725280285e-01 +5.1340377724762905e-03
5.3499999999999899e+00 +8.5262089394273097e+00 +0.0000000000000000e+00 +5.3499999220029704e+00 -2.8041120201506228e-02 -5.2561592375290711e-01 +5.1345785675175892e-03
5.3999999999999897e+00 +8.5261940744130698e+00 +0.0000000000000000e+00 +5.3999999197932702e+00 -2.8043050790148325e-02 -5.2564673717762977e-01 +5.1351225011738123e-03
5.4499999999999904e+00 +8.5261790704498708e+00 +0.0000000000000000e+00 +5.4499999175420601e+00 -2.8044993160780903e-02 -5.2567772489352815e-01 +5.1356695373051351e-03
5.4999999999999902e+00 +8.5261639275377092e+00 +0.0000000000000000e+00 +5.4999999152489698e+00 -2.8046947195063732e-02 -5.2570888426715590e-01 +5.1362196397720002e-03
5.5499999999999901e+00 +8.5261486456802196e+00 +0.0000000000000000e+00 +5.5499999129136004e+00 -2.8048912774653205e-02 -5.2574021266503879e-01 +5.1367727724348786e-03
5.5999999999999899e+00 +8.5261332248737691e+00 +0.0000000000000000e+00 +5.5999999105355700e+00 -2.8050889781206293e-02 -5.2577170745374846e-01 +5.1373288991549779e-03
5.6499999999999897e+00 +8.5261176651147306e+00 +0.0000000000000000e+00 +5.6499999081144896e+00 -2.8052878096377791e-02 -5.2580336599985344e-01 +5.1378879837937824e-03
5.6999999999999904e+00 +8.5261019664103497e+00 +0.0000000000000000e+00 +5.6999999056499897e+00 -2.8054877601816203e-02 -5.2583518566984189e-01 +5.1384499902123329e-03
5.7499999999999902e+00 +8.5260861287570204e+00 +0.0000000000000000e+00 +5.7499999031416600e+00 -2.8056888179171759e-02 -5.2586716383027321e-01 +5.1390148822726403e-03
5.7999999999999901e+00 +8.5260701521547198e+00 +0.0000000000000000e+00 +5.7999999005891203e+00 -2.8058909710091014e-02 -5.2589929784767775e-01 +5.1395826238367559e-03
5.8499999999999899e+00 +8.5260540366070892e+00 +0.0000000000000000e+00 +5.8499998979920003e+00 -2.8060942076216733e-02 -5.2593158508855475e-01 +5.1401531787667615e-03
5.8999999999999897e+00 +8.5260377821068705e+00 +0.0000000000000000e+00 +5.8999998953498896e+00 -2.8062985159193247e-02 -5.2596402291947530e-01 +5.1407265109257123e-03
