# trajectory
# s[mm] rx[mm] ry[mm] rz[mm] px[rad] py[rad] pz[rad]
0.0000000000000000e+00 +8.2850000000000001e+00 +0.0000000000000000e+00 +0.0000000000000000e+00 +0.0000000000000000e+00 +0.0000000000000000e+00 +1.0000000000000000e+00
5.0000000000000003e-02 +8.2849999306095388e+00 +0.0000000000000000e+00 +4.9999999999935797e-02 -2.7756198842461976e-06 +0.0000000000000000e+00 +9.9999999999614797e-01
1.0000000000000001e-01 +8.2849997224378491e+00 +0.0000000000000000e+00 +9.9999999999486389e-02 -5.5512494772797954e-06 +0.0000000000000000e+00 +9.9999999998459177e-01
1.5000000000000002e-01 +8.2849993754843982e+00 +0.0000000000000000e+00 +1.4999999999826658e-01 -8.3268906223053748e-06 +0.0000000000000000e+00 +9.9999999996533140e-01
2.0000000000000001e-01 +8.2849988897485627e+00 +0.0000000000000000e+00 +1.9999999999589113e-01 -1.1102545157236900e-05 +0.0000000000000000e+00 +9.9999999993836675e-01
2.5000000000000000e-01 +8.2849982652296283e+00 +0.0000000000000000e+00 +2.4999999999197484e-01 -1.3878214914697805e-05 +0.0000000000000000e+00 +9.9999999990369759e-01
2.9999999999999999e-01 +8.2849975019267870e+00 +0.0000000000000000e+00 +2.9999999998613247e-01 -1.6653901722021082e-05 +0.0000000000000000e+00 +9.9999999986132382e-01
3.4999999999999998e-01 +8.2849965998391415e+00 +0.0000000000000000e+00 +3.4999999997797882e-01 -1.9429607401249360e-05 +0.0000000000000000e+00 +9.9999999981124521e-01
3.9999999999999997e-01 +8.2849955589657025e+00 +0.0000000000000000e+00 +3.9999999996712859e-01 -2.2205333769134999e-05 +0.0000000000000000e+00 +9.9999999975346165e-01
4.4999999999999996e-01 +8.2849943793053900e+00 +0.0000000000000000e+00 +4.4999999995319656e-01 -2.4981082637140170e-05 +0.0000000000000000e+00 +9.9999999968797282e-01
4.9999999999999994e-01 +8.2849930608570332e+00 +0.0000000000000000e+00 +4.9999999993579747e-01 -2.7756855811436932e-05 +0.0000000000000000e+00 +9.9999999961477859e-01
5.4999999999999993e-01 +8.2849916036193729e+00 +0.0000000000000000e+00 +5.4999999991454596e-01 -3.0532655092907321e-05 +0.0000000000000000e+00 +9.9999999953387864e-01
5.9999999999999998e-01 +8.2849900075910590e+00 +0.0000000000000000e+00 +5.9999999988905683e-01 -3.3308482277143433e-05 +0.0000000000000000e+00 +9.9999999944527262e-01
6.5000000000000002e-01 +8.2849882727706508e+00 +0.0000000000000000e+00 +6.4999999985894474e-01 -3.6084339154447503e-05 +0.0000000000000000e+00 +9.9999999934896033e-01
7.0000000000000007e-01 +8.2849863991566188e+00 +0.0000000000000000e+00 +6.9999999982382444e-01 -3.8860227509831975e-05 +0.0000000000000000e+00 +9.9999999924494143e-01
7.5000000000000011e-01 +8.2849843867473449e+00 +0.0000000000000000e+00 +7.4999999978331044e-01 -4.1636149123019603e-05 +0.0000000000000000e+00 +9.9999999913321558e-01
8.0000000000000016e-01 +8.2849822355411220e+00 +0.0000000000000000e+00 +7.9999999973701752e-01 -4.4412105768443504e-05 +0.0000000000000000e+00 +9.9999999901378245e-01
8.5000000000000020e-01 +8.2849799455361541e+00 +0.0000000000000000e+00 +8.4999999968456019e-01 -4.7188099215247247e-05 +0.0000000000000000e+00 +9.9999999888664171e-01
9.0000000000000024e-01 +8.2849775167305566e+00 +0.0000000000000000e+00 +8.9999999962555322e-01 -4.9964131227284943e-05 +0.0000000000000000e+00 +9.9999999875179291e-01
9.5000000000000029e-01 +8.2849749491223577e+00 +0.0000000000000000e+00 +9.4999999955961101e-01 -5.2740203563121288e-05 +0.0000000000000000e+00 +9.9999999860923561e-01
1.0000000000000002e+00 +8.2849722427094985e+00 +0.0000000000000000e+00 +9.9999999948634821e-01 -5.5516317976031676e-05 +0.0000000000000000e+00 +9.9999999845896936e-01
1.0500000000000003e+00 +8.2849693974898297e+00 +0.0000000000000000e+00 +1.0499999994053795e+00 -5.8292476214002236e-05 +0.0000000000000000e+00 +9.9999999830099373e-01
1.1000000000000003e+00 +8.2849664134611167e+00 +0.0000000000000000e+00 +1.0999999993163192e+00 -6.1068680019729944e-05 +0.0000000000000000e+00 +9.9999999813530827e-01
1.1500000000000004e+00 +8.2849632906210395e+00 +0.0000000000000000e+00 +1.1499999992187819e+00 -6.3844931130622659e-05 +0.0000000000000000e+00 +9.9999999796191252e-01
1.2000000000000004e+00 +8.2849600289671876e+00 +0.0000000000000000e+00 +1.1999999991123820e+00 -6.6621231278799211e-05 +0.0000000000000000e+00 +9.9999999778080595e-01
1.2500000000000004e+00 +8.2849566284970653e+00 +0.0000000000000000e+00 +1.2499999989967339e+00 -6.9397582191089473e-05 +0.0000000000000000e+00 +9.9999999759198799e-01
1.3000000000000005e+00 +8.2849530892080931e+00 +0.0000000000000000e+00 +1.2999999988714521e+00 -7.2173985589034446e-05 +0.0000000000000000e+00 +9.9999999739545808e-01
1.3500000000000005e+00 +8.2849494110976032e+00 +0.0000000000000000e+00 +1.3499999987361511e+00 -7.4950443188886285e-05 +0.0000000000000000e+00 +9.9999999719121568e-01
1.4000000000000006e+00 +8.2849455941628420e+00 +0.0000000000000000e+00 +1.3999999985904450e+00 -7.7726956701608404e-05 +0.0000000000000000e+00 +9.9999999697926023e-01
1.4500000000000006e+00 +8.2849416384009729e+00 +0.0000000000000000e+00 +1.4499999984339484e+00 -8.0503527832875550e-05 +0.0000000000000000e+00 +9.9999999675959117e-01
1.5000000000000007e+00 +8.2849375438090700e+00 +0.0000000000000000e+00 +1.4999999982662755e+00 -8.3280158283073825e-05 +0.0000000000000000e+00 +9.9999999653220784e-01
1.5500000000000007e+00 +8.2849333103841278e+00 +0.0000000000000000e+00 +1.5499999980870407e+00 -8.6056849747300794e-05 +0.0000000000000000e+00 +9.9999999629710956e-01
1.6000000000000008e+00 +8.2849289381230502e+00 +0.0000000000000000e+00 +1.5999999978958579e+00 -8.8833603915365532e-05 +0.0000000000000000e+00 +9.9999999605429568e-01
1.6500000000000008e+00 +8.2849244270226627e+00 +0.0000000000000000e+00 +1.6499999976923416e+00 -9.1610422471788712e-05 +0.0000000000000000e+00 +9.9999999580376553e-01
1.7000000000000008e+00 +8.2849197770797023e+00 +0.0000000000000000e+00 +1.6999999974761060e+00 -9.4387307095802621e-05 +0.0000000000000000e+00 +9.9999999554551844e-01
1.7500000000000009e+00 +8.2849149882908240e+00 +0.0000000000000000e+00 +1.7499999972467650e+00 -9.7164259461351255e-05 +0.0000000000000000e+00 +9.9999999527955363e-01
1.8000000000000009e+00 +8.2849100606525994e+00 +0.0000000000000000e+00 +1.7999999970039329e+00 -9.9941281237090390e-05 +0.0000000000000000e+00 +9.9999999500587045e-01
1.8500000000000010e+00 +8.2849049941615167e+00 +0.0000000000000000e+00 +1.8499999967472236e+00 -1.0271837408638761e-04 +0.0000000000000000e+00 +9.9999999472446810e-01
1.9000000000000010e+00 +8.2848997888139788e+00 +0.0000000000000000e+00 +1.8999999964762511e+00 -1.0549553966732241e-04 +0.0000000000000000e+00 +9.9999999443534582e-01
1.9500000000000011e+00 +8.2848944446063104e+00 +0.0000000000000000e+00 +1.9499999961906294e+00 -1.0827277963268621e-04 +0.0000000000000000e+00 +9.9999999413850282e-01
2.0000000000000009e+00 +8.2848889615347492e+00 +0.0000000000000000e+00 +1.9999999958899726e+00 -1.1105009562998244e-04 +0.0000000000000000e+00 +9.9999999383393834e-01
2.0500000000000007e+00 +8.2848833395954529e+00 +0.0000000000000000e+00 +2.0499999955738946e+00 -1.1382748930120084e-04 +0.0000000000000000e+00 +9.9999999352165159e-01
2.1000000000000005e+00 +8.2848775787844975e+00 +0.0000000000000000e+00 +2.0999999952420092e+00 -1.1660496228033422e-04 +0.0000000000000000e+00 +9.9999999320164168e-01
2.1500000000000004e+00 +8.2848716790978756e+00 +0.0000000000000000e+00 +2.1499999948939301e+00 -1.1938251619089513e-04 +0.0000000000000000e+00 +9.9999999287390773e-01
2.2000000000000002e+00 +8.2848656405315015e+00 +0.0000000000000000e+00 +2.1999999945292714e+00 -1.2216015264569026e-04 +0.0000000000000000e+00 +9.9999999253844885e-01
2.2500000000000000e+00 +8.2848594630812080e+00 +0.0000000000000000e+00 +2.2499999941476463e+00 -1.2493787324682044e-04 +0.0000000000000000e+00 +9.9999999219526425e-01
2.2999999999999998e+00 +8.2848531467427478e+00 +0.0000000000000000e+00 +2.2999999937486688e+00 -1.2771567958568070e-04 +0.0000000000000000e+00 +9.9999999184435295e-01
2.3499999999999996e+00 +8.2848466915117935e+00 +0.0000000000000000e+00 +2.3499999933319526e+00 -1.3049357324296034e-04 +0.0000000000000000e+00 +9.9999999148571406e-01
2.3999999999999995e+00 +8.2848400973839418e+00 +0.0000000000000000e+00 +2.3999999928971114e+00 -1.3327155578864294e-04 +0.0000000000000000e+00 +9.9999999111934657e-01
2.4499999999999993e+00 +8.2848333643547072e+00 +0.0000000000000000e+00 +2.4499999924437583e+00 -1.3604962878200643e-04 +0.0000000000000000e+00 +9.9999999074524959e-01
2.4999999999999991e+00 +8.2848264924195298e+00 +0.0000000000000000e+00 +2.4999999919715075e+00 -1.3882779377162322e-04 +0.0000000000000000e+00 +9.9999999036342213e-01
2.5499999999999989e+00 +8.2848194815737717e+00 +0.0000000000000000e+00 +2.5499999914799720e+00 -1.4160605229536014e-04 +0.0000000000000000e+00 +9.9999998997386330e-01
2.5999999999999988e+00 +8.2848123318127165e+00 +0.0000000000000000e+00 +2.5999999909687652e+00 -1.4438440588037855e-04 +0.0000000000000000e+00 +9.9999998957657199e-01
2.6499999999999986e+00 +8.2848050431315734e+00 +0.0000000000000000e+00 +2.6499999904375002e+00 -1.4716285604313435e-04 +0.0000000000000000e+00 +9.9999998917154720e-01
2.6999999999999984e+00 +8.2847976155254770e+00 +0.0000000000000000e+00 +2.6999999898857907e+00 -1.4994140428937808e-04 +0.0000000000000000e+00 +9.9999998875878793e-01
2.7499999999999982e+00 +8.2847900489894855e+00 +0.0000000000000000e+00 +2.7499999893132498e+00 -1.5272005211415491e-04 +0.0000000000000000e+00 +9.9999998833829318e-01
2.7999999999999980e+00 +8.2847823435185823e+00 +0.0000000000000000e+00 +2.7999999887194909e+00 -1.5549880100180477e-04 +0.0000000000000000e+00 +9.9999998791006173e-01
2.8499999999999979e+00 +8.2847744991076766e+00 +0.0000000000000000e+00 +2.8499999881041269e+00 -1.5827765242596228e-04 +0.0000000000000000e+00 +9.9999998747409269e-01
2.8999999999999977e+00 +8.2847665157516062e+00 +0.0000000000000000e+00 +2.8999999874667712e+00 -1.6105660784955693e-04 +0.0000000000000000e+00 +9.9999998703038484e-01
2.9499999999999975e+00 +8.2847583934451343e+00 +0.0000000000000000e+00 +2.9499999868070366e+00 -1.6383566872481297e-04 +0.0000000000000000e+00 +9.9999998657893707e-01
2.9999999999999973e+00 +8.2847501321829515e+00 +0.0000000000000000e+00 +2.9999999861245361e+00 -1.6661483649324960e-04 +0.0000000000000000e+00 +9.9999998611974839e-01
3.0499999999999972e+00 +8.2847417319596790e+00 +0.0000000000000000e+00 +3.0499999854188826e+00 -1.6939411258568092e-04 +0.0000000000000000e+00 +9.9999998565281756e-01
3.0999999999999970e+00 +8.2847331927698633e+00 +0.0000000000000000e+00 +3.0999999846896888e+00 -1.7217349842221601e-04 +0.0000000000000000e+00 +9.9999998517814348e-01
3.1499999999999968e+00 +8.2847245146079835e+00 +0.0000000000000000e+00 +3.1499999839365680e+00 -1.7495299541225897e-04 +0.0000000000000000e+00 +9.9999998469572493e-01
3.1999999999999966e+00 +8.2847156974684459e+00 +0.0000000000000000e+00 +3.1999999831591324e+00 -1.7773260495450893e-04 +0.0000000000000000e+00 +9.9999998420556080e-01
3.2499999999999964e+00 +8.2847067413455893e+00 +0.0000000000000000e+00 +3.2499999823569947e+00 -1.8051232843696016e-04 +0.0000000000000000e+00 +9.9999998370764986e-01
3.2999999999999963e+00 +8.2846976462336812e+00 +0.0000000000000000e+00 +3.2999999815297678e+00 -1.8329216723690203e-04 +0.0000000000000000e+00 +9.9999998320199091e-01
3.3499999999999961e+00 +8.2846884121269220e+00 +0.0000000000000000e+00 +3.3499999806770644e+00 -1.8607212272091906e-04 +0.0000000000000000e+00 +9.9999998268858270e-01
3.3999999999999959e+00 +8.2846790390194425e+00 +0.0000000000000000e+00 +3.3999999797984968e+00 -1.8885219624489104e-04 +0.0000000000000000e+00 +9.9999998216742414e-01
3.4499999999999957e+00 +8.2846695269053079e+00 +0.0000000000000000e+00 +3.4499999788936777e+00 -1.9163238915399295e-04 +0.0000000000000000e+00 +9.9999998163851389e-01
3.4999999999999956e+00 +8.2846598757785159e+00 +0.0000000000000000e+00 +3.4999999779622191e+00 -1.9441270278269511e-04 +0.0000000000000000e+00 +9.9999998110185062e-01
3.5499999999999954e+00 +8.2846500856329968e+00 +0.0000000000000000e+00 +3.5499999770037336e+00 -1.9719313845476308e-04 +0.0000000000000000e+00 +9.9999998055743322e-01
3.5999999999999952e+00 +8.2846401564626149e+00 +0.0000000000000000e+00 +3.5999999760178332e+00 -1.9997369748325785e-04 +0.0000000000000000e+00 +9.9999998000526025e-01
3.6499999999999950e+00 +8.2846300882611708e+00 +0.0000000000000000e+00 +3.6499999750041301e+00 -2.0275438117053576e-04 +0.0000000000000000e+00 +9.9999997944533059e-01
3.6999999999999948e+00 +8.2846198810223992e+00 +0.0000000000000000e+00 +3.6999999739622367e+00 -2.0553519080824853e-04 +0.0000000000000000e+00 +9.9999997887764280e-01
3.7499999999999947e+00 +8.2846095347399693e+00 +0.0000000000000000e+00 +3.7499999728917648e+00 -2.0831612767734342e-04 +0.0000000000000000e+00 +9.9999997830219556e-01
3.7999999999999945e+00 +8.2845990494074897e+00 +0.0000000000000000e+00 +3.7999999717923267e+00 -2.1109719304806309e-04 +0.0000000000000000e+00 +9.9999997771898763e-01
3.8499999999999943e+00 +8.2845884250185016e+00 +0.0000000000000000e+00 +3.8499999706635344e+00 -2.1387838817994576e-04 +0.0000000000000000e+00 +9.9999997712801758e-01
3.8999999999999941e+00 +8.2845776615664874e+00 +0.0000000000000000e+00 +3.8999999695049992e+00 -2.1665971432182517e-04 +0.0000000000000000e+00 +9.9999997652928407e-01
3.9499999999999940e+00 +8.2845667590448659e+00 +0.0000000000000000e+00 +3.9499999683163334e+00 -2.1944117271183067e-04 +0.0000000000000000e+00 +9.9999997592278578e-01
3.9999999999999938e+00 +8.2845557174469917e+00 +0.0000000000000000e+00 +3.9999999670971484e+00 -2.2222276457738713e-04 +0.0000000000000000e+00 +9.9999997530852136e-01
4.0499999999999936e+00 +8.2845445367661625e+00 +0.0000000000000000e+00 +4.0499999658470562e+00 -2.2500449113504469e-04 +0.0000000000000000e+00 +9.9999997468648938e-01
4.0999999999999934e+00 +8.2845332169956123e+00 +0.0000000000000000e+00 +4.0999999645656677e+00 -2.2778635358860366e-04 +0.0000000000000000e+00 +9.9999997405668839e-01
4.1499999999999932e+00 +8.2845217581285180e+00 +0.0000000000000000e+00 +4.1499999632525952e+00 -2.3056835312723961e-04 +0.0000000000000000e+00 +9.9999997341911706e-01
4.1999999999999931e+00 +8.2845101601579945e+00 +0.0000000000000000e+00 +4.1999999619074497e+00 -2.3335049092533292e-04 +0.0000000000000000e+00 +9.9999997277377395e-01
4.2499999999999929e+00 +8.2844984230771015e+00 +0.0000000000000000e+00 +4.2499999605298431e+00 -2.3613276814246869e-04 +0.0000000000000000e+00 +9.9999997212065761e-01
4.2999999999999927e+00 +8.2844865468788385e+00 +0.0000000000000000e+00 +4.2999999591193863e+00 -2.3891518592343683e-04 +0.0000000000000000e+00 +9.9999997145976660e-01
4.3499999999999925e+00 +8.2844745315561479e+00 +0.0000000000000000e+00 +4.3499999576756903e+00 -2.4169774539823194e-04 +0.0000000000000000e+00 +9.9999997079109959e-01
4.3999999999999924e+00 +8.2844623771019190e+00 +0.0000000000000000e+00 +4.3999999561983669e+00 -2.4448044768205337e-04 +0.0000000000000000e+00 +9.9999997011465502e-01
4.4499999999999922e+00 +8.2844500835089825e+00 +0.0000000000000000e+00 +4.4499999546870264e+00 -2.4726329387530512e-04 +0.0000000000000000e+00 +9.9999996943043146e-01
4.4999999999999920e+00 +8.2844376507701156e+00 +0.0000000000000000e+00 +4.4999999531412804e+00 -2.5004628506359596e-04 +0.0000000000000000e+00 +9.9999996873842734e-01
4.5499999999999918e+00 +8.2844250788780425e+00 +0.0000000000000000e+00 +4.5499999515607392e+00 -2.5282942231773914e-04 +0.0000000000000000e+00 +9.9999996803864122e-01
4.5999999999999917e+00 +8.2844123678254320e+00 +0.0000000000000000e+00 +4.5999999499450146e+00 -2.5561270669375268e-04 +0.0000000000000000e+00 +9.9999996733107166e-01
4.6499999999999915e+00 +8.2843995176049035e+00 +0.0000000000000000e+00 +4.6499999482937167e+00 -2.5839613923285906e-04 +0.0000000000000000e+00 +9.9999996661571722e-01
4.6999999999999913e+00 +8.2843865282090228e+00 +0.0000000000000000e+00 +4.6999999466064564e+00 -2.6117972096148539e-04 +0.0000000000000000e+00 +9.9999996589257623e-01
4.7499999999999911e+00 +8.2843733996303044e+00 +0.0000000000000000e+00 +4.7499999448828447e+00 -2.6396345289126326e-04 +0.0000000000000000e+00 +9.9999996516164724e-01
4.7999999999999909e+00 +8.2843601318612130e+00 +0.0000000000000000e+00 +4.7999999431224918e+00 -2.6674733601902875e-04 +0.0000000000000000e+00 +9.9999996442292882e-01
4.8499999999999908e+00 +8.2843467248941653e+00 +0.0000000000000000e+00 +4.8499999413250077e+00 -2.6953137132682236e-04 +0.0000000000000000e+00 +9.9999996367641941e-01
4.8999999999999906e+00 +8.2843331787215284e+00 +0.0000000000000000e+00 +4.8999999394900033e+00 -2.7231555978188900e-04 +0.0000000000000000e+00 +9.9999996292211735e-01
4.9499999999999904e+00 +8.2843194933356195e+00 +0.0000000000000000e+00 +4.9499999376170889e+00 -2.7509990233667798e-04 +0.0000000000000000e+00 +9.9999996216002118e-01
4.9999999999999902e+00 +8.2843056687287113e+00 +0.0000000000000000e+00 +4.9999999357058753e+00 -2.7788439992884286e-04 +0.0000000000000000e+00 +9.9999996139012948e-01
5.0499999999999901e+00 +8.2842917048930271e+00 +0.0000000000000000e+00 +5.0499999337559718e+00 -2.8066905348124151e-04 +0.0000000000000000e+00 +9.9999996061244056e-01
5.0999999999999899e+00 +8.2842776018207473e+00 +0.0000000000000000e+00 +5.0999999317669893e+00 -2.8345386390193602e-04 +0.0000000000000000e+00 +9.9999995982695289e-01
5.1499999999999897e+00 +8.2842633595040063e+00 +0.0000000000000000e+00 +5.1499999297385370e+00 -2.8623883208419264e-04 +0.0000000000000000e+00 +9.9999995903366479e-01
5.1999999999999895e+00 +8.2842489779348938e+00 +0.0000000000000000e+00 +5.1999999276702251e+00 -2.8902395890648174e-04 +0.0000000000000000e+00 +9.9999995823257481e-01
5.2499999999999893e+00 +8.2842344571054571e+00 +0.0000000000000000e+00 +5.2499999255616636e+00 -2.9180924523247774e-04 +0.0000000000000000e+00 +9.9999995742368142e-01
5.2999999999999892e+00 +8.2842197970076992e+00 +0.0000000000000000e+00 +5.2999999234124626e+00 -2.9459469191105912e-04 +0.0000000000000000e+00 +9.9999995660698293e-01
5.3499999999999890e+00 +8.2842049976335801e+00 +0.0000000000000000e+00 +5.3499999212222313e+00 -2.9738029977630830e-04 +0.0000000000000000e+00 +9.9999995578247780e-01
5.3999999999999888e+00 +8.2841900589750210e+00 +0.0000000000000000e+00 +5.3999999189905799e+00 -3.0016606964751154e-04 +0.0000000000000000e+00 +9.9999995495016447e-01
5.4499999999999886e+00 +8.2841749810239023e+00 +0.0000000000000000e+00 +5.4499999167171174e+00 -3.0295200232915900e-04 +0.0000000000000000e+00 +9.9999995411004128e-01
5.4999999999999885e+00 +8.2841597637720614e+00 +0.0000000000000000e+00 +5.4999999144014540e+00 -3.0573809861094456e-04 +0.0000000000000000e+00 +9.9999995326210667e-01
5.5499999999999883e+00 +8.2841444072113006e+00 +0.0000000000000000e+00 +5.5499999120431980e+00 -3.0852435926776584e-04 +0.0000000000000000e+00 +9.9999995240635897e-01
5.5999999999999881e+00 +8.2841289113333829e+00 +0.0000000000000000e+00 +5.5999999096419595e+00 -3.1131078505972407e-04 +0.0000000000000000e+00 +9.9999995154279664e-01
5.6499999999999879e+00 +8.2841132761300305e+00 +0.0000000000000000e+00 +5.6499999071973477e+00 -3.1409737673212406e-04 +0.0000000000000000e+00 +9.9999995067141800e-01
5.6999999999999877e+00 +8.2840975015929317e+00 +0.0000000000000000e+00 +5.6999999047089709e+00 -3.1688413501547419e-04 +0.0000000000000000e+00 +9.9999994979222151e-01
5.7499999999999876e+00 +8.2840815877137395e+00 +0.0000000000000000e+00 +5.7499999021764392e+00 -3.1967106062548613e-04 +0.0000000000000000e+00 +9.9999994890520549e-01
5.7999999999999874e+00 +8.2840655344840695e+00 +0.0000000000000000e+00 +5.7999998995993609e+00 -3.2245815426307494e-04 +0.0000000000000000e+00 +9.9999994801036829e-01
5.8499999999999872e+00 +8.2840493418955017e+00 +0.0000000000000000e+00 +5.8499998969773452e+00 -3.2524541661435905e-04 +0.0000000000000000e+00 +9.9999994710770834e-01
5.8999999999999870e+00 +8.2840330099395842e+00 +0.0000000000000000e+00 +5.8999998943100014e+00 -3.2803284835065998e-04 +0.0000000000000000e+00 +9.9999994619722399e-01
