# multipoles
# s[mm] polynom_b[n=0][T/m^n] polynom_b[n=1][T/m^n] polynom_b[n=2][T/m^n] polynom_b[n=3][T/m^n] polynom_b[n=4][T/m^n] polynom_b[n=5][T/m^n] polynom_b[n=6][T/m^n] 
+0.0000000000000000e+00 -5.5142602998271839e-01 +7.1919113911946129e+00 +5.5070303535925778e+00 -6.3496524453364110e+01 -5.5060343901261376e+03 +6.4912574106450018e+04 +5.7326539951005451e+07 
+5.0000000000000003e-02 -5.5142288214381074e-01 +7.1917509261603021e+00 +5.5123895847643611e+00 -6.3120436488343159e+01 -5.5936148444170421e+03 +6.3184192592784864e+04 +5.7895987696725555e+07 
+1.0000000000000001e-01 -5.5142013342561058e-01 +7.1916111644610181e+00 +5.5173216738184205e+00 -6.2712325571939516e+01 -5.6818804707222571e+03 +6.1274571447861199e+04 +5.8467106666727349e+07 
+1.5000000000000002e-01 -5.5141778316816348e-01 +7.1914921127907103e+00 +5.5218179806401944e+00 -6.2273422572239170e+01 -5.7706020557886486e+03 +5.9190687736770349e+04 +5.9038571401180841e+07 
+2.0000000000000001e-01 -5.5141583071151190e-01 +7.1913937778406414e+00 +5.5258698624976637e+00 -6.1804958236952338e+01 -5.8595503271819425e+03 +5.6939517611647883e+04 +5.9609056080460459e+07 
+2.5000000000000000e-01 -5.5141427539575172e-01 +7.1913161663063985e+00 +5.5294686815171348e+00 -6.1308163450250319e+01 -5.9484961348280713e+03 +5.4528038301305416e+04 +6.0177235684603058e+07 
+2.9999999999999999e-01 -5.5141311656096037e-01 +7.1912592848819621e+00 +5.5326057947170737e+00 -6.0784269003331836e+01 -6.0372102007594203e+03 +5.1963226291409883e+04 +6.0741784359645300e+07 
+3.4999999999999998e-01 -5.5141235354725227e-01 +7.1912231402634648e+00 +5.5352725613154599e+00 -6.0234505764994331e+01 -6.1254632995087386e+03 +4.9252058778243096e+04 +6.1301376584387295e+07 
+3.9999999999999997e-01 -5.5141198569474925e-01 +7.1912077391466127e+00 +5.5374603388928483e+00 -5.9660104533566454e+01 -6.2130261635121096e+03 +4.6401512280917312e+04 +6.1854686559276886e+07 
+4.4999999999999996e-01 -5.5141201234361015e-01 +7.1912130882280243e+00 +5.5391604886954013e+00 -5.9062296134449952e+01 -6.2996696295237862e+03 +4.3418563624108094e+04 +6.2400389211555734e+07 
+4.9999999999999994e-01 -5.5141243283398522e-01 +7.1912391942063190e+00 +5.5403643670954761e+00 -5.8442311431596124e+01 -6.3851643987547423e+03 +4.0310189878747478e+04 +6.2937158533146173e+07 
+5.4999999999999993e-01 -5.5141324650605916e-01 +7.1912860637816225e+00 +5.5410633330347441e+00 -5.7801381351247237e+01 -6.4692812425287066e+03 +3.7083368766533997e+04 +6.3463668996842399e+07 
+5.9999999999999998e-01 -5.5141445270003575e-01 +7.1913537036513286e+00 +5.5412487457507842e+00 -5.7140736650288090e+01 -6.5517909405974324e+03 +3.3745076479651194e+04 +6.3978595131857306e+07 
+6.5000000000000002e-01 -5.5141605075613009e-01 +7.1914421205133490e+00 +5.5409119636381048e+00 -5.6461608095499550e+01 -6.6324642528382792e+03 +3.0302289377382076e+04 +6.4480611342720531e+07 
+7.0000000000000007e-01 -5.5141804001458505e-01 +7.1915513210737547e+00 +5.5400443462754287e+00 -5.5765226759730957e+01 -6.7110719674219681e+03 +2.6761986322560973e+04 +6.4968392214016952e+07 
+7.5000000000000011e-01 -5.5142041981564138e-01 +7.1916813120308731e+00 +5.5386372499527221e+00 -5.5052823372401839e+01 -6.7873847866530004e+03 +2.3131143363223709e+04 +6.5440611758989200e+07 
+8.0000000000000016e-01 -5.5142318949957803e-01 +7.1918321000890320e+00 +5.5366820343924976e+00 -5.4325628874083584e+01 -6.8611735023881729e+03 +1.9416738259822941e+04 +6.5895944583705842e+07 
+8.5000000000000020e-01 -5.5142634840667903e-01 +7.1920036919504877e+00 +5.5341700571428722e+00 -5.3584874105242072e+01 -6.9322088514860588e+03 +1.5625747997040473e+04 +6.6333064938608073e+07 
+9.0000000000000024e-01 -5.5142989587726388e-01 +7.1921960943209111e+00 +5.5310926787667478e+00 -5.2831790016473754e+01 -7.0002616509371410e+03 +1.1765150449452916e+04 +6.6750647611270092e+07 
+9.5000000000000029e-01 -5.5143383125163725e-01 +7.1924093139063308e+00 +5.5274412541735609e+00 -5.2067607545239923e+01 -7.0651025645870386e+03 +7.8419233854072227e+03 +6.7147366349633947e+07 
+1.0000000000000002e+00 -5.5143815387016515e-01 +7.1926433574114883e+00 +5.5232071454569258e+00 -5.1293557551222200e+01 -7.1265024467502553e+03 +3.8630439371354109e+03 +6.7521896177854955e+07 
+1.0500000000000003e+00 -5.5144286307319479e-01 +7.1928982315446897e+00 +5.5183817087286382e+00 -5.0510871013292018e+01 -7.1842319945899217e+03 -1.6450978601061053e+02 +6.7872911074021563e+07 
+1.1000000000000003e+00 -5.5144795820110937e-01 +7.1931739430131740e+00 +5.5129563029190312e+00 -4.9720778843624757e+01 -7.2380619779820126e+03 -4.2337602086904171e+03 +6.8199085496817321e+07 
+1.1500000000000004e+00 -5.5145343859429663e-01 +7.1934704985290470e+00 +5.5069222853768691e+00 -4.8924512124111956e+01 -7.2877631288422872e+03 -8.3377283733858021e+03 +6.8499093662368447e+07 
+1.2000000000000004e+00 -5.5145930359319217e-01 +7.1937879047993443e+00 +5.5002710172836995e+00 -4.8123301709345178e+01 -7.3331062703344442e+03 -1.2469437173058672e+04 +6.8771610362479493e+07 
+1.2500000000000004e+00 -5.5146555253822060e-01 +7.1941261685384275e+00 +5.4929938560404459e+00 -4.7318378729625316e+01 -7.3738621352010805e+03 -1.6621907221935355e+04 +6.9015309819546551e+07 
+1.3000000000000005e+00 -5.5147218476982640e-01 +7.1944852964568549e+00 +5.4850821589267262e+00 -4.6510974127473496e+01 -7.4098014468214187e+03 -2.0788160714059199e+04 +6.9228866170688689e+07 
+1.3500000000000005e+00 -5.5147919962848591e-01 +7.1948652952684347e+00 +5.4765272856763518e+00 -4.5702318955472855e+01 -7.4406949928566064e+03 -2.4961218925435864e+04 +6.9410953978657231e+07 
+1.4000000000000006e+00 -5.5148659645469000e-01 +7.1952661716872823e+00 +5.4673205953277435e+00 -4.4893644259097982e+01 -7.4663135425052669e+03 -2.9134103174628144e+04 +6.9560247686790481e+07 
+1.4500000000000006e+00 -5.5149437458893902e-01 +7.1956879324299692e+00 +5.4574534458457276e+00 -4.4086181161570096e+01 -7.4864278363743351e+03 -3.3299834130002397e+04 +6.9675421543596774e+07 
+1.5000000000000007e+00 -5.5150253337175503e-01 +7.1961305842130239e+00 +5.4469171953335032e+00 -4.3281160750859343e+01 -7.5008086152453980e+03 -3.7451432791892301e+04 +6.9755149789174244e+07 
+1.5500000000000007e+00 -5.5151107214369255e-01 +7.1965941337529236e+00 +5.4357032050099310e+00 -4.2479814091668025e+01 -7.5092267041271007e+03 -4.1581920336278010e+04 +6.9798107229640722e+07 
+1.6000000000000008e+00 -5.5151999024529763e-01 +7.1970785877722792e+00 +5.4238028314478948e+00 -4.1683372481980889e+01 -7.5114528037443160e+03 -4.5684316006775065e+04 +6.9802967839903399e+07 
+1.6500000000000008e+00 -5.5152928701716120e-01 +7.1975839529875127e+00 +5.4112074353267703e+00 -4.0893066940000303e+01 -7.5072577174121061e+03 -4.9751641345560391e+04 +6.9768406256299183e+07 
+1.7000000000000008e+00 -5.5153896179987261e-01 +7.1981102361215434e+00 +5.3979083747979377e+00 -4.0110128726377994e+01 -7.4964121862934389e+03 -5.3776915919083840e+04 +6.9693096718528599e+07 
+1.7500000000000009e+00 -5.5154901393405420e-01 +7.1986574438982007e+00 +5.3838970103863701e+00 -3.9335789108862976e+01 -7.4786870114881394e+03 -5.7753159247109768e+04 +6.9575713856206834e+07 
+1.8000000000000009e+00 -5.5155944276032642e-01 +7.1992255830401115e+00 +5.3691646989093549e+00 -3.8571279296539224e+01 -7.4538528902362405e+03 -6.1673391296583126e+04 +6.9414931585536346e+07 
+1.8500000000000010e+00 -5.5157024761935458e-01 +7.1998146602715547e+00 +5.3537028023478026e+00 -3.7817830522892670e+01 -7.4216806601658063e+03 -6.5530631901441084e+04 +6.9209424772789046e+07 
+1.9000000000000010e+00 -5.5158142785179975e-01 +7.2004246823213034e+00 +5.3375026786306714e+00 -3.7076674208048708e+01 -7.3819410462307587e+03 -6.9317899270683411e+04 +6.8957867514769018e+07 
+1.9500000000000011e+00 -5.5159298279836144e-01 +7.2010556559146277e+00 +5.3205556894922497e+00 -3.6349041581484400e+01 -7.3344048752989693e+03 -7.3028213284562982e+04 +6.8658934592452452e+07 
+2.0000000000000009e+00 -5.5160491179974014e-01 +7.2017075877812466e+00 +5.3028531937790655e+00 -3.5636164047239838e+01 -7.2788428957306651e+03 -7.6654592315799804e+04 +6.8311300255884320e+07 
+2.0500000000000007e+00 -5.5161721400447439e-01 +7.2023804587105431e+00 +5.2843924398344031e+00 -3.4939084448549941e+01 -7.2151461986280528e+03 -8.0190987090922397e+04 +6.7914331367097348e+07 
+2.1000000000000005e+00 -5.5162988779258371e-01 +7.2030741389305710e+00 +5.2651949824839459e+00 -3.4258103121022231e+01 -7.1436932913317869e+03 -8.3634973664296180e+04 +6.7470197261421889e+07 
+2.1500000000000004e+00 -5.5164293135200204e-01 +7.2037884693218501e+00 +5.2452886489796757e+00 -3.3593338402706706e+01 -7.0649859449505129e+03 -8.6985008640698245e+04 +6.6981775136108033e+07 
+2.2000000000000002e+00 -5.5165634287066023e-01 +7.2045232907679484e+00 +5.2247012637072547e+00 -3.2944908756768989e+01 -6.9795258547926815e+03 -9.0239547542727130e+04 +6.6451941685422868e+07 
+2.2500000000000000e+00 -5.5167012053651943e-01 +7.2052784441488811e+00 +5.2034606542019839e+00 -3.2312932480759642e+01 -6.8878148016833493e+03 -9.3397047266922498e+04 +6.5883574183200873e+07 
+2.2999999999999998e+00 -5.5168426253754543e-01 +7.2060537703476522e+00 +5.1815946465697875e+00 -3.1697527977249383e+01 -6.7903545275888346e+03 -9.6455963836847484e+04 +6.5279549638246953e+07 
+2.3499999999999996e+00 -5.5169876706172827e-01 +7.2068491102446073e+00 +5.1591310682207618e+00 -3.1098813537563096e+01 -6.6876468035274174e+03 -9.9414754130765126e+04 +6.4642745232464701e+07 
+2.3999999999999995e+00 -5.5171363229706283e-01 +7.2076643047225071e+00 +5.1360977456624424e+00 -3.0516907531824987e+01 -6.5801933817398403e+03 -1.0227187438627781e+05 +6.3976038043925002e+07 
+2.4499999999999993e+00 -5.5172885643155312e-01 +7.2084991946606367e+00 +5.1125225046313156e+00 -2.9951928180573233e+01 -6.4684959894884187e+03 -1.0502578202803130e+05 +6.3282304962125257e+07 
+2.4999999999999991e+00 -5.5174443765322800e-01 +7.2093536209388773e+00 +5.0884331733666928e+00 -2.9403993717432542e+01 -6.3530564271245266e+03 -1.0767493435457788e+05 +6.2564423393819191e+07 
+2.5499999999999989e+00 -5.5176037415011514e-01 +7.2102274244387781e+00 +5.0638575772095153e+00 -2.8873222427532351e+01 -6.2343764068057508e+03 -1.1021778823831976e+05 +6.1825270108970106e+07 
+2.5999999999999988e+00 -5.5177666411027315e-01 +7.2111204460402361e+00 +5.0388235454654069e+00 -2.8359732524170166e+01 -6.1129577566026510e+03 -1.1265280109182186e+05 +6.1067722695952818e+07 
+2.6499999999999986e+00 -5.5179330572175322e-01 +7.2120325266182013e+00 +5.0133589031502437e+00 -2.7863642012472759e+01 -5.9893021794241477e+03 -1.1497843199498474e+05 +6.0294657861592397e+07 
+2.6999999999999984e+00 -5.5181029717262553e-01 +7.2129635070541731e+00 +4.9874914776279686e+00 -2.7385069151099422e+01 -5.8639114490161228e+03 -1.1719313794988264e+05 +5.9508952817352898e+07 
+2.7499999999999982e+00 -5.5182763665098911e-01 +7.2139132282233591e+00 +4.9612490985882118e+00 -2.6924131925953290e+01 -5.7372873959435537e+03 -1.1929537818065393e+05 +5.8713485136373967e+07 
+2.7999999999999980e+00 -5.5184532234492789e-01 +7.2148815310055605e+00 +4.9346595915613296e+00 -2.6480948525711089e+01 -5.6099317416943777e+03 -1.2128361014264105e+05 +5.7911131666551881e+07 
+2.8499999999999979e+00 -5.5186335244255069e-01 +7.2158682562726755e+00 +4.9077507845749349e+00 -2.6055636786668039e+01 -5.4823462745324041e+03 -1.2315629423791826e+05 +5.7104769702778615e+07 
+2.8999999999999977e+00 -5.5188172513197675e-01 +7.2168732449024251e+00 +4.8805505050105973e+00 -2.5648314784327304e+01 -5.3550327591580071e+03 -1.2491188883113858e+05 +5.6297276357157208e+07 
+2.9499999999999975e+00 -5.5190043860133631e-01 +7.2178963377670691e+00 +4.8530865812430770e+00 -2.5259100369883175e+01 -5.2284929958084185e+03 -1.2654885409649389e+05 +5.5491529015782051e+07 
+2.9999999999999973e+00 -5.5191949103875992e-01 +7.2189373757396726e+00 +4.8253868391878729e+00 -2.4888111420683305e+01 -5.1032287113957655e+03 -1.2806564994770783e+05 +5.4690404540262133e+07 
+3.0499999999999972e+00 -5.5193888063241270e-01 +7.2199961996928099e+00 +4.7974791095549687e+00 -2.4535465779772519e+01 -4.9797417641933180e+03 -1.2946073659696239e+05 +5.3896780686268054e+07 
+3.0999999999999970e+00 -5.5195860557045728e-01 +7.2210726504964633e+00 +4.7693912206151010e+00 -2.4201281190979298e+01 -4.8585339444062884e+03 -1.3073257497385729e+05 +5.3113534741300099e+07 
+3.1499999999999968e+00 -5.5197866404104057e-01 +7.2221665690185137e+00 +4.7411509962462928e+00 -2.3885675302204152e+01 -4.7401069268000183e+03 -1.3187962680698186e+05 +5.2343543225514129e+07 
+3.1999999999999966e+00 -5.5199905423236928e-01 +7.2232777961298380e+00 +4.7127862694830398e+00 -2.3588765887426135e+01 -4.6249626291517588e+03 -1.3290035271502665e+05 +5.1589684278898634e+07 
+3.2499999999999964e+00 -5.5201977433262328e-01 +7.2244061726964279e+00 +4.6843248668667119e+00 -2.3310670510493836e+01 -4.5136027966756292e+03 -1.3379321502538290e+05 +5.0854834889505610e+07 
+3.2999999999999963e+00 -5.5204082253000675e-01 +7.2255515395818533e+00 +4.6557946174725764e+00 -2.3051506642204181e+01 -4.4065292402896757e+03 -1.3455667677630886e+05 +5.0141872477837019e+07 
+3.3499999999999961e+00 -5.5206219701272152e-01 +7.2267137376529922e+00 +4.6272233487525511e+00 -2.2811391880572330e+01 -4.3042437277491535e+03 -1.3518919994128976e+05 +4.9453674172028452e+07 
+3.3999999999999959e+00 -5.5208389596899554e-01 +7.2278926077694114e+00 +4.5986388912885534e+00 -2.2590443533518101e+01 -4.2072481127482615e+03 -1.3568924878728273e+05 +4.8793117686784349e+07 
+3.4499999999999957e+00 -5.5210591758704464e-01 +7.2290879907939640e+00 +4.5700690720274064e+00 -2.2388779028225194e+01 -4.1160441484201147e+03 -1.3605528663475596e+05 +4.8163080045730434e+07 
+3.4999999999999956e+00 -5.5212826005511562e-01 +7.2302997275854617e+00 +4.5415417217071692e+00 -2.2206515645121836e+01 -4.0311336881327675e+03 -1.3628577788405481e+05 +4.7566438941980571e+07 
+3.5499999999999954e+00 -5.5215092156145251e-01 +7.2315276590012187e+00 +4.5130846695984417e+00 -2.2043770582922111e+01 -3.9530185500175903e+03 -1.3637918764858291e+05 +4.7006071846538395e+07 
+3.5999999999999952e+00 -5.5217390029429281e-01 +7.2327716258964054e+00 +4.4847257426576981e+00 -2.1900660981403497e+01 -3.8822004884273179e+03 -1.3633398137717630e+05 +4.6484855790947467e+07 
+3.6499999999999950e+00 -5.5219719444191262e-01 +7.2340314691269496e+00 +4.4564927727775387e+00 -2.1777303984534161e+01 -3.8191813869061853e+03 -1.3614862454769225e+05 +4.6005668664428525e+07 
+3.6999999999999948e+00 -5.5222080219257463e-01 +7.2353070295419544e+00 +4.4284135886210043e+00 -2.1673816486455344e+01 -3.7644630447974350e+03 -1.3582158454450185e+05 +4.5571387798460841e+07 
+3.7499999999999947e+00 -5.5224472173455241e-01 +7.2365981479949202e+00 +4.4005160196939759e+00 -2.1590315545985938e+01 -3.7185472840298662e+03 -1.3535132741652094e+05 +4.5184890672029793e+07 
+3.7999999999999945e+00 -5.5226895125613440e-01 +7.2379046653315946e+00 +4.3728278967099685e+00 -2.1526917917719381e+01 -3.6819359577418604e+03 -1.3473632162684161e+05 +4.4849054972540386e+07 
+3.8499999999999943e+00 -5.5229348894559704e-01 +7.2392264223970955e+00 +4.3453770474789657e+00 -2.1483740329944009e+01 -3.6551308413756647e+03 -1.3397503583610413e+05 +4.4566757858466692e+07 
+3.8999999999999941e+00 -5.5231833299125632e-01 +7.2405632600379164e+00 +4.3181913052377352e+00 -2.1460899579418598e+01 -3.6386338552433181e+03 -1.3306593805342028e+05 +4.4340877464415431e+07 
+3.9499999999999940e+00 -5.5234348158140500e-01 +7.2419150190954635e+00 +4.2912984986521874e+00 -2.1458512256756030e+01 -3.6329467990497305e+03 -1.3200749794035495e+05 +4.4174291116677165e+07 
+3.9999999999999938e+00 -5.5236893290434963e-01 +7.2432815404084998e+00 +4.2647264574622543e+00 -2.1476694841352860e+01 -3.6385714983594639e+03 -1.3079818602559516e+05 +4.4069876307766311e+07 
+4.0499999999999936e+00 -5.5239468495226218e-01 +7.2446626582062486e+00 +4.2384956951339712e+00 -2.1515464914684415e+01 -3.6558637848315079e+03 -1.2943729483179012e+05 +4.4029722862257443e+07 
+4.0999999999999934e+00 -5.5242073493209087e-01 +7.2460581737087537e+00 +4.2125977214334256e+00 -2.1574389969060910e+01 -3.6845972963585054e+03 -1.2792812761352083e+05 +4.4052791605372936e+07 
+4.1499999999999932e+00 -5.5244707985424846e-01 +7.2474678782220874e+00 +4.1870168692333660e+00 -2.1652911329199515e+01 -3.7244003734927437e+03 -1.2627518104278146e+05 +4.4137266303891912e+07 
+4.1999999999999931e+00 -5.5247371672917023e-01 +7.2488915630553619e+00 +4.1617374758221146e+00 -2.1750470433345424e+01 -3.7749014834126165e+03 -1.2448295102793879e+05 +4.4281331617908753e+07 
+4.2499999999999929e+00 -5.5250064256729259e-01 +7.2503290195192909e+00 +4.1367438770358369e+00 -2.1866508797529633e+01 -3.8357290460776467e+03 -1.2255593284372742e+05 +4.4483171862690791e+07 
+4.2999999999999927e+00 -5.5252785437904783e-01 +7.2517800389260980e+00 +4.1120204082429197e+00 -2.2000467973460154e+01 -3.9065114714144925e+03 -1.2049862160840539e+05 +4.4740971292000391e+07 
+4.3499999999999925e+00 -5.5255534917487636e-01 +7.2532444125855271e+00 +4.0875514057838807e+00 -2.2151789408980580e+01 -3.9868771994726494e+03 -1.1831551336495571e+05 +4.5052914382854067e+07 
+4.3999999999999924e+00 -5.5258312396520859e-01 +7.2547219318142675e+00 +4.0633212037309754e+00 -2.2319914834848010e+01 -4.0764546065320528e+03 -1.1601110187480939e+05 +4.5417185171888106e+07 
+4.4499999999999922e+00 -5.5261117576049557e-01 +7.2562123879250766e+00 +4.0393141391769607e+00 -2.2504285809386019e+01 -4.1748721469085986e+03 -1.1358988243509117e+05 +4.5831968211226776e+07 
+4.4999999999999920e+00 -5.5263950157116226e-01 +7.2577155722325140e+00 +4.0155145451806815e+00 -2.2704343960750048e+01 -4.2817581756528589e+03 -1.1105634982757343e+05 +4.6295447419717722e+07 
+4.5499999999999918e+00 -5.5266809840766129e-01 +7.2592312760542708e+00 +3.9919067587585402e+00 -2.2919531030514147e+01 -4.3967411460869362e+03 -1.0841499802570880e+05 +4.6805807349217460e+07 
+4.5999999999999917e+00 -5.5269696328043549e-01 +7.2607592907071927e+00 +3.9684751153205378e+00 -2.3149288735074826e+01 -4.5194494732342991e+03 -1.0567032124065736e+05 +4.7361232314867944e+07 
+4.6499999999999915e+00 -5.5272609319992350e-01 +7.2622994075088441e+00 +3.9452039494990472e+00 -2.3393058799255279e+01 -4.6495115519826559e+03 -1.0282681375982414e+05 +4.7959906499230988e+07 
+4.6999999999999913e+00 -5.5275548517657092e-01 +7.2638514177834743e+00 +3.9220775968137853e+00 -2.3650283227783301e+01 -4.7865557968775729e+03 -9.9888967622550976e+04 +4.8600014202456772e+07 
+4.7499999999999911e+00 -5.5278513622080239e-01 +7.2654151128491549e+00 +3.8990803897526529e+00 -2.3920403754037650e+01 -4.9302105486501077e+03 -9.6861277245463556e+04 +4.9279739258341834e+07 
+4.7999999999999909e+00 -5.5281504334308273e-01 +7.2669902840301397e+00 +3.8761966668067407e+00 -2.4202862363078196e+01 -5.0801043022453341e+03 -9.3748235053428201e+04 +4.9997266517257944e+07 
+4.8499999999999908e+00 -5.5284520355384070e-01 +7.2685767226493869e+00 +3.8534107613243713e+00 -2.4497100984642938e+01 -5.2358654203727410e+03 -9.0554334022409384e+04 +5.0750779958894812e+07 
+4.8999999999999906e+00 -5.5287561386350859e-01 +7.2701742200334172e+00 +3.8307070067843032e+00 -2.4802561692101104e+01 -5.3971222677967698e+03 -8.7284066034806063e+04 +5.1538463575713627e+07 
+4.9499999999999904e+00 -5.5290627128253422e-01 +7.2717825675100425e+00 +3.8080697399164016e+00 -2.5118686588561378e+01 -5.5635032989361989e+03 -8.3941922916630690e+04 +5.2358501974561833e+07 
+4.9999999999999902e+00 -5.5293717282133636e-01 +7.2734015564060348e+00 +3.7854832921995221e+00 -2.5444917749906196e+01 -5.7346368226184268e+03 -8.0532396736550509e+04 +5.3209078763389319e+07 
+5.0499999999999901e+00 -5.5296831549037961e-01 +7.2750309780524631e+00 +3.7629320037930918e+00 -2.5780697411992232e+01 -5.9101513880925695e+03 -7.7059978411899021e+04 +5.4088379204462983e+07 
