# multipoles
# s[mm] polynom_b[n=0][T/m^n] polynom_b[n=1][T/m^n] polynom_b[n=2][T/m^n] polynom_b[n=3][T/m^n] polynom_b[n=4][T/m^n] polynom_b[n=5][T/m^n] polynom_b[n=6][T/m^n] 
-0.0000000000000000e+00 -5.5146702989136342e-01 +7.2496822827895970e+00 +4.1803050787155982e+00 +3.6792976039175777e+01 +1.5463635114240573e+04 -5.7067446974430175e+05 -8.5040553095276281e+07 
-5.0000000000000003e-02 -5.5146793857399690e-01 +7.2497502540688119e+00 +4.1790623347415279e+00 +3.6833003132305464e+01 +1.5468572322897808e+04 -5.7039039334632526e+05 -8.5166270242762342e+07 
-1.0000000000000001e-01 -5.5146920007850586e-01 +7.2498380590443050e+00 +4.1770065746305010e+00 +3.6859416190130666e+01 +1.5480872018026657e+04 -5.6997508632773964e+05 -8.5330510392835826e+07 
-1.4999999999999999e-01 -5.5147081364305095e-01 +7.2499456295859677e+00 +4.1741489256215702e+00 +3.6872313338484432e+01 +1.5500367758955050e+04 -5.6943059847323864e+05 -8.5532416989983097e+07 
-2.0000000000000001e-01 -5.5147277850580156e-01 +7.2500728975556985e+00 +4.1705005105958630e+00 +3.6871793053718392e+01 +1.5526893227397512e+04 -5.6875898243315239e+05 -8.5771134324221730e+07 
-2.5000000000000000e-01 -5.5147509390496652e-01 +7.2502197948253819e+00 +4.1660724526544382e+00 +3.6857953437392773e+01 +1.5560282094725351e+04 -5.6796228780619253e+05 -8.6045806600612015e+07 
-2.9999999999999999e-01 -5.5147775907877361e-01 +7.2503862532617385e+00 +4.1608758794890353e+00 +3.6830892828420481e+01 +1.5600367912146878e+04 -5.6704256614408281e+05 -8.6355577228689969e+07 
-3.4999999999999998e-01 -5.5148077326538159e-01 +7.2505722047361720e+00 +4.1549219136160529e+00 +3.6790709409114989e+01 +1.5646984367074012e+04 -5.6600186773004569e+05 -8.6699590524819463e+07 
-4.0000000000000002e-01 -5.5148413570311050e-01 +7.2507775811212598e+00 +4.1482216797032754e+00 +3.6737501345505166e+01 +1.5699965091926464e+04 -5.6484224276553153e+05 -8.7076990449284360e+07 
-4.5000000000000001e-01 -5.5148784563014341e-01 +7.2510023142894786e+00 +4.1407863034203514e+00 +3.6671366835013096e+01 +1.5759143690934692e+04 -5.6356574167556060e+05 -8.7486920766793445e+07 
-5.0000000000000000e-01 -5.5149190228478751e-01 +7.2512463361133905e+00 +4.1326269063674328e+00 +3.6592404099196976e+01 +1.5824353880395118e+04 -5.6217441512742371e+05 -8.7928526009902522e+07 
-5.5000000000000004e-01 -5.5149630490533474e-01 +7.2515095784682888e+00 +4.1237546188581229e+00 +3.6500711281810851e+01 +1.5895429137720725e+04 -5.6067031316222728e+05 -8.8400949083848849e+07 
-5.9999999999999998e-01 -5.5150105273011030e-01 +7.2517919732300724e+00 +4.1141805601166128e+00 +3.6396386520572101e+01 +1.5972203245033630e+04 -5.5905548576154374e+05 -8.8903334974839464e+07 
-6.5000000000000002e-01 -5.5150614499737349e-01 +7.2520934522759202e+00 +4.1039158583165021e+00 +3.6279527937002221e+01 +1.6054509738959237e+04 -5.5733198278875265e+05 -8.9434826993318751e+07 
-6.9999999999999996e-01 -5.5151158094550334e-01 +7.2524139474835225e+00 +4.0929716370269729e+00 +3.6150233660610937e+01 +1.6142182283650160e+04 -5.5550185421144264e+05 -8.9994569328934059e+07 
-7.5000000000000000e-01 -5.5151735981282501e-01 +7.2527533907307689e+00 +4.0813590213572182e+00 +3.6008601832070610e+01 +1.6235054501954271e+04 -5.5356715006702789e+05 -9.0581705892386138e+07 
-8.0000000000000004e-01 -5.5152348083769354e-01 +7.2531117138970194e+00 +4.0690891346405502e+00 +3.5854730569752860e+01 +1.6332960061864645e+04 -5.5152992024334182e+05 -9.1195380887240574e+07 
-8.4999999999999998e-01 -5.5152994325853000e-01 +7.2534888488635376e+00 +4.0561731045147260e+00 +3.5688717926434407e+01 +1.6435732518418790e+04 -5.4939221406480554e+05 -9.1834737770031869e+07 
-9.0000000000000002e-01 -5.5153674631372329e-01 +7.2538847275109424e+00 +4.0426220548168352e+00 +3.5510662024446731e+01 +1.6543205527949027e+04 -5.4715608148542827e+05 -9.2498920674621463e+07 
-9.4999999999999996e-01 -5.5154388924164766e-01 +7.2542992817211385e+00 +4.0284471087829896e+00 +3.5320660943812925e+01 +1.6655212767647503e+04 -5.4482357206400880e+05 -9.3187073895873129e+07 
-1.0000000000000000e+00 -5.5155137128074061e-01 +7.2547324433780496e+00 +4.0136593937681173e+00 +3.5118812718010282e+01 +1.6771587799329267e+04 -5.4239673501219088e+05 -9.3898340932253301e+07 
-1.0500000000000000e+00 -5.5155919166946410e-01 +7.2551841443634499e+00 +3.9982700345644520e+00 +3.4905215493576861e+01 +1.6892164251324073e+04 -5.3987762049728306e+05 -9.4631865721330196e+07 
-1.1000000000000001e+00 -5.5156734964621879e-01 +7.2556543165630325e+00 +3.9822901558150714e+00 +3.4679967268747276e+01 +1.7016775764699127e+04 -5.3726827739565377e+05 -9.5386792321063265e+07 
-1.1499999999999999e+00 -5.5157584444955077e-01 +7.2561428918610416e+00 +3.9657308824513957e+00 +3.4443166136500210e+01 +1.7145255970203314e+04 -5.3457075544599839e+05 -9.6162264711744800e+07 
-1.2000000000000000e+00 -5.5158467531788336e-01 +7.2566498021434498e+00 +3.9486033382870218e+00 +3.4194910140444129e+01 +1.7277438527087059e+04 -5.3178710393020930e+05 -9.6957427055611432e+07 
-1.2500000000000000e+00 -5.5159384148972901e-01 +7.2571749792961375e+00 +3.9309186513526244e+00 +3.3935297352386563e+01 +1.7413156981179232e+04 -5.2891937239641359e+05 -9.7771422753451109e+07 
-1.3000000000000000e+00 -5.5160334220361529e-01 +7.2577183552057773e+00 +3.9126879450292025e+00 +3.3664425838048004e+01 +1.7552245005774439e+04 -5.2596961035389779e+05 -9.8603396072567344e+07 
-1.3500000000000001e+00 -5.5161317669806575e-01 +7.2582798617610633e+00 +3.8939223438325086e+00 +3.3382393589572196e+01 +1.7694536246471769e+04 -5.2293986664184718e+05 -9.9452491105921656e+07 
-1.3999999999999999e+00 -5.5162334421157777e-01 +7.2588594308502907e+00 +3.8746329751904502e+00 +3.3089298653498517e+01 +1.7839864264494641e+04 -5.1983219060792984e+05 -1.0031785135244226e+08 
-1.4500000000000000e+00 -5.5163384398275139e-01 +7.2594569943606810e+00 +3.8548309631944724e+00 +3.2785239134987435e+01 +1.7988062715687593e+04 -5.1664863206520793e+05 -1.0119862096802495e+08 
-1.5000000000000000e+00 -5.5164467525014937e-01 +7.2600724841799957e+00 +3.8345274320331062e+00 +3.2470313140230502e+01 +1.8138965255112485e+04 -5.1339124082631752e+05 -1.0209394410922392e+08 
-1.5500000000000000e+00 -5.5165583725234157e-01 +7.2607058322010740e+00 +3.8137335098206702e+00 +3.2144618588562622e+01 +1.8292405429475697e+04 -5.1006206516835646e+05 -1.0300296419203724e+08 
-1.6000000000000001e+00 -5.5166732922789696e-01 +7.2613569703116418e+00 +3.7924603172034708e+00 +3.1808253621625170e+01 +1.8448216988555250e+04 -5.0666315515397582e+05 -1.0392482600827178e+08 
-1.6499999999999999e+00 -5.5167915041547388e-01 +7.2620258304018446e+00 +3.7707189835476158e+00 +3.1461316321278321e+01 +1.8606233448067844e+04 -5.0319656043383369e+05 -1.0485867277262568e+08 
-1.7000000000000000e+00 -5.5169130005365596e-01 +7.2627123443650428e+00 +3.7485206320729794e+00 +3.1103904638294239e+01 +1.8766288489996365e+04 -4.9966432949038537e+05 -1.0580364882382719e+08 
-1.7500000000000000e+00 -5.5170377738110832e-01 +7.2634164440883637e+00 +3.7258763889700295e+00 +3.0736116810176068e+01 +1.8928215713228150e+04 -4.9606851321258955e+05 -1.0675889792766356e+08 
-1.8000000000000000e+00 -5.5171658163645443e-01 +7.2641380614668511e+00 +3.7027973795186315e+00 +3.0358050766454127e+01 +1.9091848747606553e+04 -4.9241115992130322e+05 -1.0772356408195166e+08 
-1.8500000000000001e+00 -5.5172971205835908e-01 +7.2648771283905544e+00 +3.6792947297040408e+00 +2.9969804654864632e+01 +1.9257021200485262e+04 -4.8869431971470470e+05 -1.0869679111677025e+08 
-1.8999999999999999e+00 -5.5174316788550859e-01 +7.2656335767518589e+00 +3.6553795621325187e+00 +2.9571476556403717e+01 +1.9423566773419901e+04 -4.8492004217517405e+05 -1.0967772351169340e+08 
-1.9500000000000000e+00 -5.5175694835658340e-01 +7.2664073384420877e+00 +3.6310630055537807e+00 +2.9163164603716975e+01 +1.9591319002085813e+04 -4.8109037725164136e+05 -1.1066550462288466e+08 
-2.0000000000000000e+00 -5.5177105271030191e-01 +7.2671983453558244e+00 +3.6063561840962772e+00 +2.8744966818329111e+01 +1.9760111543336134e+04 -4.7720737398701714e+05 -1.1165927860906908e+08 
-2.0499999999999998e+00 -5.5178548000573957e-01 +7.2680065117102561e+00 +3.5812710991745771e+00 +2.8317113407062138e+01 +1.9929767803895767e+04 -4.7327366260290350e+05 -1.1265812011494184e+08 
-2.1000000000000001e+00 -5.5180022858056332e-01 +7.2688316832488180e+00 +3.5558233349276338e+00 +2.7880363112158140e+01 +2.0100066295239056e+04 -4.6929422761772119e+05 -1.1366080791750371e+08 
-2.1499999999999999e+00 -5.5181529659138617e-01 +7.2696736856119619e+00 +3.5300295899126515e+00 +2.7435602365572194e+01 +2.0270773382346979e+04 -4.6527465077012713e+05 -1.1466604234979263e+08 
-2.2000000000000002e+00 -5.5183068219489506e-01 +7.2705323444414311e+00 +3.5039065645107872e+00 +2.6983717548791844e+01 +2.0441655379162614e+04 -4.6122051336971921e+05 -1.1567252338920280e+08 
-2.2500000000000000e+00 -5.5184638354768456e-01 +7.2714074853818760e+00 +3.4774709549348550e+00 +2.6525594935258727e+01 +2.0612478715424430e+04 -4.5713739582624566e+05 -1.1667895180938098e+08 
-2.2999999999999998e+00 -5.5186239880642340e-01 +7.2722989340705171e+00 +3.4507394640094624e+00 +2.6062121112584986e+01 +2.0783009639299595e+04 -4.5303088111086987e+05 -1.1768402714152713e+08 
-2.3500000000000001e+00 -5.5187872612771494e-01 +7.2732065161505508e+00 +3.4237287864946180e+00 +2.5594182438049209e+01 +2.0953014613888674e+04 -4.4890655032071529e+05 -1.1868645036074942e+08 
-2.3999999999999999e+00 -5.5189536366827485e-01 +7.2741300572624308e+00 +3.3964556253447853e+00 +2.5122665380153830e+01 +2.1122259885346670e+04 -4.4476998541671189e+05 -1.1968492099141142e+08 
-2.4500000000000002e+00 -5.5191230958472659e-01 +7.2750693830469695e+00 +3.3689366754100871e+00 +2.4648456395339945e+01 +2.1290511914084516e+04 -4.4062676823575463e+05 -1.2067813998791505e+08 
-2.5000000000000000e+00 -5.5192956203381371e-01 +7.2760243191443035e+00 +3.3411886370122894e+00 +2.4172441995445624e+01 +2.1457537012945566e+04 -4.3648248113521497e+05 -1.2166480730678391e+08 
-2.5499999999999998e+00 -5.5194711917214812e-01 +7.2769946911935683e+00 +3.3132282089001941e+00 +2.3695508714818882e+01 +2.1623101537312465e+04 -4.3234270653595764e+05 -1.2264362319101769e+08 
-2.6000000000000001e+00 -5.5196497915650533e-01 +7.2779803248347745e+00 +3.2850720896642840e+00 +2.3218543071507000e+01 +2.1786971842482966e+04 -4.2821302678369649e+05 -1.2361328786830634e+08 
-2.6499999999999999e+00 -5.5198314014355676e-01 +7.2789810457076598e+00 +3.2567369765107474e+00 +2.2742431594768373e+01 +2.1948914322626992e+04 -4.2409902427410602e+05 -1.2457250183244699e+08 
-2.7000000000000002e+00 -5.5200160029002709e-01 +7.2799966794468594e+00 +3.2282395694520236e+00 +2.2268061023013008e+01 +2.2108695297931437e+04 -4.2000628309046518e+05 -1.2551996508224198e+08 
-2.7500000000000000e+00 -5.5202035775262992e-01 +7.2810270516943039e+00 +3.1995965659957100e+00 +2.1796317809767341e+01 +2.2266081147827037e+04 -4.1594038499727257e+05 -1.2645437798482254e+08 
-2.7999999999999998e+00 -5.5203941068805873e-01 +7.2820719880856020e+00 +3.1708246629762487e+00 +2.1328088657177833e+01 +2.2420838275917631e+04 -4.1190691373882029e+05 -1.2737444109639584e+08 
-2.8500000000000001e+00 -5.5205875725308717e-01 +7.2831313142560807e+00 +3.1419405609730688e+00 +2.0864260288572066e+01 +2.2572732977305379e+04 -4.0791145324582921e+05 -1.2827885420510943e+08 
-2.8999999999999999e+00 -5.5207839560444028e-01 +7.2842048558442789e+00 +3.1129609550496413e+00 +2.0405719291017316e+01 +2.2721531700113890e+04 -4.0395958628956450e+05 -1.2916631815314832e+08 
-2.9500000000000002e+00 -5.5209832389887370e-01 +7.2852924384837454e+00 +3.0839025449040030e+00 +1.9953352461687395e+01 +2.2867000761192430e+04 -4.0005689735992678e+05 -1.3003553286784776e+08 
-3.0000000000000000e+00 -5.5211854029313845e-01 +7.2863938878092505e+00 +3.0547820278831650e+00 +1.9508046542272989e+01 +2.3008906543002453e+04 -3.9620897046193719e+05 -1.3088519873023783e+08 
-3.0499999999999998e+00 -5.5213904294396665e-01 +7.2875090294527620e+00 +3.0256161013359293e+00 +1.9070688393658966e+01 +2.3147015427774575e+04 -3.9242139057608374e+05 -1.3171401611513849e+08 
-3.1000000000000001e+00 -5.5215983000814028e-01 +7.2886376890504243e+00 +2.9964214617768081e+00 +1.8642164695065372e+01 +2.3281093810903134e+04 -3.8869974113028729e+05 -1.3252068545109539e+08 
-3.1499999999999999e+00 -5.5218089964242978e-01 +7.2897796922315781e+00 +2.9672148065192201e+00 +1.8223362408507622e+01 +2.3410908073357587e+04 -3.8504960788286338e+05 -1.3330390709809913e+08 
-3.2000000000000002e+00 -5.5220225000361300e-01 +7.2909348646264096e+00 +2.9380128337559719e+00 +1.7815168459656629e+01 +2.3536224563412852e+04 -3.8147657628624741e+05 -1.3406238115675436e+08 
-3.2500000000000000e+00 -5.5222387924845284e-01 +7.2921030318676427e+00 +2.9088322421533208e+00 +1.7418469659215017e+01 +2.3656809621434364e+04 -3.7798623077432264e+05 -1.3479480769363400e+08 
-3.2999999999999998e+00 -5.5224578553373238e-01 +7.2932840195835915e+00 +2.8796897237767620e+00 +1.7034152998651145e+01 +2.3772429762405140e+04 -3.7458415727932681e+05 -1.3549988794050699e+08 
-3.3500000000000001e+00 -5.5226796701628211e-01 +7.2944776534011346e+00 +2.8506019784964556e+00 +1.6663105516023652e+01 +2.3882851284762586e+04 -3.7127594206244318e+05 -1.3617632164152580e+08 
-3.3999999999999999e+00 -5.5229042185283617e-01 +7.2956837589476553e+00 +2.8215857022464026e+00 +1.6306214237223514e+01 +2.3987840593822071e+04 -3.6806717130469391e+05 -1.3682280926659146e+08 
-3.4500000000000002e+00 -5.5231314820019950e-01 +7.2969021618485570e+00 +2.7926575929281237e+00 +1.5964366242915213e+01 +2.4087164042924676e+04 -3.6496343153996143e+05 -1.3743805093720353e+08 
-3.5000000000000000e+00 -5.5233614421518129e-01 +7.2981326877284198e+00 +2.7638343441378983e+00 +1.5638448665091325e+01 +2.4180588092901224e+04 -3.6197030980112491e+05 -1.3802074746466860e+08 
-3.5499999999999998e+00 -5.5235940805459405e-01 +7.2993751622127938e+00 +2.7351326535121654e+00 +1.5329348556328039e+01 +2.4267879101755490e+04 -3.5909339231030608e+05 -1.3856959899113512e+08 
-3.6000000000000001e+00 -5.5238293787523540e-01 +7.3006294109203349e+00 +2.7065692158439072e+00 +1.5037953268988929e+01 +2.4348803494902822e+04 -3.5633826783464005e+05 -1.3908330607610291e+08 
-3.6499999999999999e+00 -5.5240673183391731e-01 +7.3018952594745308e+00 +2.6781607274807402e+00 +1.4765149931461927e+01 +2.4423127657504785e+04 -3.5371052319430828e+05 -1.3956056901403546e+08 
-3.6999999999999900e+00 -5.5243078808742319e-01 +7.3031725334949344e+00 +2.6499238840318355e+00 +1.4511825838689647e+01 +2.4490617990036419e+04 -3.5121574662109360e+05 -1.4000008818274549e+08 
-3.7499999999999898e+00 -5.5245510479262272e-01 +7.3044610585975596e+00 +2.6218753813631714e+00 +1.4278868396001867e+01 +2.4551040886594055e+04 -3.4885952713071223e+05 -1.4040056391832936e+08 
-3.7999999999999901e+00 -5.5247968010627624e-01 +7.3057606604003293e+00 +2.5940319143769686e+00 +1.4067164948951337e+01 +2.4604162761926684e+04 -3.4664745332523284e+05 -1.4076069667474362e+08 
-3.8499999999999899e+00 -5.5250451218523944e-01 +7.3070711645219841e+00 +2.5664101754876731e+00 +1.3877602774660241e+01 +2.4649750099242374e+04 -3.4458511313863727e+05 -1.4107918737378418e+08 
-3.8999999999999901e+00 -5.5252959918626832e-01 +7.3083923965713611e+00 +2.5390268626872903e+00 +1.3711069545288394e+01 +2.4687569223942824e+04 -3.4267809770364402e+05 -1.4135473584037131e+08 
-3.9499999999999900e+00 -5.5255493926625976e-01 +7.3097241821604557e+00 +2.5118986704093968e+00 +1.3568452799577686e+01 +2.4717386555319703e+04 -3.4093199709571304e+05 -1.4158604252693564e+08 
-3.9999999999999898e+00 -5.5258053058197354e-01 +7.3110663469048420e+00 +2.4850422908691612e+00 +1.3450639904855361e+01 +2.4738968578724245e+04 -3.3935239985915000e+05 -1.4177180834923533e+08 
-4.0499999999999901e+00 -5.5260637111737609e-01 +7.3124187200074617e+00 +2.4584691529400136e+00 +1.3358232253174991e+01 +2.4752179365824901e+04 -3.3794290180912911e+05 -1.4191126894877771e+08 
-4.0999999999999899e+00 -5.5263245816466755e-01 +7.3137811385580331e+00 +2.4321694705978754e+00 +1.3290734659376021e+01 +2.4757288640322753e+04 -3.3669950121313467e+05 -1.4200590533633080e+08 
-4.1499999999999897e+00 -5.5265878884315756e-01 +7.3151534400245444e+00 +2.4061281282270159e+00 +1.3247387674552911e+01 +2.4754671394262161e+04 -3.3561638509535813e+05 -1.4205778646878383e+08 
-4.1999999999999904e+00 -5.5268536027212212e-01 +7.3165354618775229e+00 +2.3803300126906684e+00 +1.3227431742512147e+01 +2.4744702563555689e+04 -3.3468773969229480e+05 -1.4206898095774731e+08 
-4.2499999999999902e+00 -5.5271216957091396e-01 +7.3179270415867474e+00 +2.3547600110401170e+00 +1.3230107337267603e+01 +2.4727757069335294e+04 -3.3390775152817566e+05 -1.4204155727978104e+08 
-4.2999999999999901e+00 -5.5273921385877023e-01 +7.3193280166210881e+00 +2.3294030088149467e+00 +1.3254654967166863e+01 +2.4704209876165376e+04 -3.3327060741243488e+05 -1.4197758421838757e+08 
-4.3499999999999899e+00 -5.5276649025501978e-01 +7.3207382244552690e+00 +2.3042438927619262e+00 +1.3300314904077355e+01 +2.4674435923082565e+04 -3.3277049226646568e+05 -1.4187913041198412e+08 
-4.3999999999999897e+00 -5.5279399587896050e-01 +7.3221575025603354e+00 +2.2792675498185040e+00 +1.3366327556305736e+01 +2.4638810136859520e+04 -3.3240159209744481e+05 -1.4174826439207909e+08 
-4.4499999999999904e+00 -5.5282172784985628e-01 +7.3235856884099100e+00 +2.2544588655051543e+00 +1.3451933238023670e+01 +2.4597707484394461e+04 -3.3215809222363075e+05 -1.4158705496958736e+08 
-4.4999999999999902e+00 -5.5284968328703787e-01 +7.3250226194798245e+00 +2.2298027276221744e+00 +1.3556372165400321e+01 +2.4551502875774971e+04 -3.3203417717010877e+05 -1.4139757059282243e+08 
-4.5499999999999901e+00 -5.5287785930979383e-01 +7.3264681332431945e+00 +2.2052840219334309e+00 +1.3678884660625979e+01 +2.4500571270308028e+04 -3.3202403234693169e+05 -1.4118188002261856e+08 
-4.5999999999999899e+00 -5.5290625303745333e-01 +7.3279220671789869e+00 +2.1808876365727903e+00 +1.3818710812401820e+01 +2.4445287567798678e+04 -3.3212184131705225e+05 -1.4094205163649127e+08 
-4.6499999999999897e+00 -5.5293486158923011e-01 +7.3293842587641977e+00 +2.1565984581671325e+00 +1.3975090773188038e+01 +2.4386026710864138e+04 -3.3232178811414127e+05 -1.4068015411204726e+08 
-4.6999999999999904e+00 -5.5296368208448909e-01 +7.3308545454779450e+00 +2.1324013731806959e+00 +1.4147264612385955e+01 +2.4323163639748109e+04 -3.3261805618837068e+05 -1.4039825608963156e+08 
-4.7499999999999902e+00 -5.5299271164247932e-01 +7.3323327647964653e+00 +2.1082812700754743e+00 +1.4334472523523818e+01 +2.4257073253026483e+04 -3.3300483005513571e+05 -1.4009842597488442e+08 
-4.7999999999999901e+00 -5.5302194738253463e-01 +7.3338187542073445e+00 +2.0842230350375357e+00 +1.4535954211347152e+01 +2.4188130500026804e+04 -3.3347629018158693e+05 -1.3978273247779810e+08 
-4.8499999999999899e+00 -5.5305138642386720e-01 +7.3353123511896010e+00 +2.0602115560831717e+00 +1.4750949749048498e+01 +2.4116710289404582e+04 -3.3402662015360751e+05 -1.3945324407197395e+08 
-4.8999999999999897e+00 -5.5308102588584218e-01 +7.3368133932261594e+00 +2.0362317211428911e+00 +1.4978699030001049e+01 +2.4043187526407110e+04 -3.3465000209306437e+05 -1.3911202918756145e+08 
-4.9499999999999904e+00 -5.5311086288771538e-01 +7.3383217178009339e+00 +2.0122684175413825e+00 +1.5218441914118650e+01 +2.3967937140509355e+04 -3.3534061790076253e+05 -1.3876115645127785e+08 
-4.9999999999999902e+00 -5.5314089454874449e-01 +7.3398371624037031e+00 +1.9883065339621129e+00 +1.5469418006779067e+01 +2.3891334019800524e+04 -3.3609264738851297e+05 -1.3840269419511941e+08 
-5.0499999999999901e+00 -5.5317111799057761e-01 +7.3413595567646661e+00 +1.9643313484289409e+00 +1.5730860178536920e+01 +2.3813753170583364e+04 -3.3690027606204897e+05 -1.3803871131153852e+08 
