# field on trajectory
# s[mm] rx[mm] ry[mm] rz[mm] bx[T] by[T] bz[T]
0.0000000000000000e+00 +8.5980000000000008e+00 +0.0000000000000000e+00 +0.0000000000000000e+00 -2.6531106299183621e-02 -5.2278958209793824e-01 +5.2101917536703166e-03
-5.0000000000000003e-02 +8.5979999310338755e+00 +0.0000000000000000e+00 -4.9999999999936581e-02 -2.6531049389830759e-02 -5.2279017954860785e-01 +5.2099859709761687e-03
-1.0000000000000001e-01 +8.5979997241353789e+00 +0.0000000000000000e+00 -9.9999999999492661e-02 -2.6531010484092510e-02 -5.2279114510774194e-01 +5.2097827127598360e-03
-1.5000000000000002e-01 +8.5979993793042571e+00 +0.0000000000000000e+00 -1.4999999999828773e-01 -2.6530989541879373e-02 -5.2279247795634509e-01 +5.2095820038224995e-03
-2.0000000000000001e-01 +8.5979988965401581e+00 +0.0000000000000000e+00 -1.9999999999594126e-01 -2.6530986523102880e-02 -5.2279417727543831e-01 +5.2093838689654011e-03
-2.5000000000000000e-01 +8.5979982758426345e+00 +0.0000000000000000e+00 -2.4999999999207273e-01 -2.6531001387675571e-02 -5.2279624224606047e-01 +5.2091883329898831e-03
-2.9999999999999999e-01 +8.5979975172111391e+00 +0.0000000000000000e+00 -2.9999999998630167e-01 -2.6531034095510990e-02 -5.2279867204926656e-01 +5.2089954206973963e-03
-3.4999999999999998e-01 +8.5979966206450325e+00 +0.0000000000000000e+00 -3.4999999997824749e-01 -2.6531084606523599e-02 -5.2280146586612963e-01 +5.2088051568895148e-03
-3.9999999999999997e-01 +8.5979955861435773e+00 +0.0000000000000000e+00 -3.9999999996752972e-01 -2.6531152880628774e-02 -5.2280462287773855e-01 +5.2086175663679634e-03
-4.4999999999999996e-01 +8.5979944137059405e+00 +0.0000000000000000e+00 -4.4999999995376777e-01 -2.6531238877742735e-02 -5.2280814226519912e-01 +5.2084326739346258e-03
-4.9999999999999994e-01 +8.5979931033311932e+00 +0.0000000000000000e+00 -4.9999999993658112e-01 -2.6531342557782535e-02 -5.2281202320963394e-01 +5.2082505043915704e-03
-5.4999999999999993e-01 +8.5979916550183120e+00 +0.0000000000000000e+00 -5.4999999991558912e-01 -2.6531463880666042e-02 -5.2281626489218236e-01 +5.2080710825410685e-03
-5.9999999999999998e-01 +8.5979900687661779e+00 +0.0000000000000000e+00 -5.9999999989041131e-01 -2.6531602806311803e-02 -5.2282086649399961e-01 +5.2078944331856065e-03
-6.5000000000000002e-01 +8.5979883445735776e+00 +0.0000000000000000e+00 -6.4999999986066703e-01 -2.6531759294639117e-02 -5.2282582719625781e-01 +5.2077205811279113e-03
-7.0000000000000007e-01 +8.5979864824392003e+00 +0.0000000000000000e+00 -6.9999999982597572e-01 -2.6531933305567940e-02 -5.2283114618014492e-01 +5.2075495511709601e-03
-7.5000000000000011e-01 +8.5979844823616443e+00 +0.0000000000000000e+00 -7.4999999978595677e-01 -2.6532124799018852e-02 -5.2283682262686570e-01 +5.2073813681180105e-03
-8.0000000000000016e-01 +8.5979823443394121e+00 +0.0000000000000000e+00 -7.9999999974022951e-01 -2.6532333734913035e-02 -5.2284285571763989e-01 +5.2072160567726063e-03
-8.5000000000000020e-01 +8.5979800683709104e+00 +0.0000000000000000e+00 -8.4999999968841333e-01 -2.6532560073172212e-02 -5.2284924463370430e-01 +5.2070536419386044e-03
-9.0000000000000024e-01 +8.5979776544544553e+00 +0.0000000000000000e+00 -8.9999999963012756e-01 -2.6532803773718593e-02 -5.2285598855631110e-01 +5.2068941484201877e-03
-9.5000000000000029e-01 +8.5979751025882667e+00 +0.0000000000000000e+00 -9.4999999956499148e-01 -2.6533064796474909e-02 -5.2286308666672854e-01 +5.2067376010218915e-03
-1.0000000000000002e+00 +8.5979724127704724e+00 +0.0000000000000000e+00 -9.9999999949262441e-01 -2.6533343101364293e-02 -5.2287053814624007e-01 +5.2065840245486064e-03
-1.0500000000000003e+00 +8.5979695849991060e+00 +0.0000000000000000e+00 -1.0499999994126457e+00 -2.6533638648310282e-02 -5.2287834217614537e-01 +5.2064334438056180e-03
-1.1000000000000003e+00 +8.5979666192721069e+00 +0.0000000000000000e+00 -1.0999999993246745e+00 -2.6533951397236775e-02 -5.2288649793775976e-01 +5.2062858835986037e-03
-1.1500000000000004e+00 +8.5979635155873257e+00 +0.0000000000000000e+00 -1.1499999992283301e+00 -2.6534281308067977e-02 -5.2289500461241278e-01 +5.2061413687336643e-03
-1.2000000000000004e+00 +8.5979602739425172e+00 +0.0000000000000000e+00 -1.1999999991232315e+00 -2.6534628340728367e-02 -5.2290386138145084e-01 +5.2059999240173429e-03
-1.2500000000000004e+00 +8.5979568943353453e+00 +0.0000000000000000e+00 -1.2499999990089983e+00 -2.6534992455142688e-02 -5.2291306742623467e-01 +5.2058615742566284e-03
-1.3000000000000005e+00 +8.5979533767633800e+00 +0.0000000000000000e+00 -1.2999999988852493e+00 -2.6535373611235865e-02 -5.2292262192814098e-01 +5.2057263442589971e-03
-1.3500000000000005e+00 +8.5979497212241007e+00 +0.0000000000000000e+00 -1.3499999987516038e+00 -2.6535771768932990e-02 -5.2293252406856006e-01 +5.2055942588324095e-03
-1.4000000000000006e+00 +8.5979459277148962e+00 +0.0000000000000000e+00 -1.3999999986076808e+00 -2.6536186888159268e-02 -5.2294277302889880e-01 +5.2054653427853412e-03
-1.4500000000000006e+00 +8.5979419962330610e+00 +0.0000000000000000e+00 -1.4499999984530993e+00 -2.6536618928840003e-02 -5.2295336799057812e-01 +5.2053396209267907e-03
-1.5000000000000007e+00 +8.5979379267758009e+00 +0.0000000000000000e+00 -1.4999999982874788e+00 -2.6537067850900535e-02 -5.2296430813503403e-01 +5.2052171180663161e-03
-1.5500000000000007e+00 +8.5979337193402294e+00 +0.0000000000000000e+00 -1.5499999981104378e+00 -2.6537533614266213e-02 -5.2297559264371674e-01 +5.2050978590140332e-03
-1.6000000000000008e+00 +8.5979293739233675e+00 +0.0000000000000000e+00 -1.5999999979215955e+00 -2.6538016178862381e-02 -5.2298722069809234e-01 +5.2049818685806441e-03
-1.6500000000000008e+00 +8.5979248905221493e+00 +0.0000000000000000e+00 -1.6499999977205708e+00 -2.6538515504614248e-02 -5.2299919147963980e-01 +5.2048691715774493e-03
-1.7000000000000008e+00 +8.5979202691334162e+00 +0.0000000000000000e+00 -1.6999999975069826e+00 -2.6539031551446976e-02 -5.2301150416985365e-01 +5.2047597928163800e-03
-1.7500000000000009e+00 +8.5979155097539195e+00 +0.0000000000000000e+00 -1.7499999972804499e+00 -2.6539564279285527e-02 -5.2302415795024226e-01 +5.2046537571099980e-03
-1.8000000000000009e+00 +8.5979106123803195e+00 +0.0000000000000000e+00 -1.7999999970405913e+00 -2.6540113648054739e-02 -5.2303715200232870e-01 +5.2045510892715285e-03
-1.8500000000000010e+00 +8.5979055770091897e+00 +0.0000000000000000e+00 -1.8499999967870258e+00 -2.6540679617679159e-02 -5.2305048550764988e-01 +5.2044518141148646e-03
-1.9000000000000010e+00 +8.5979004036370110e+00 +0.0000000000000000e+00 -1.8999999965193721e+00 -2.6541262148083111e-02 -5.2306415764775671e-01 +5.2043559564546012e-03
-1.9500000000000011e+00 +8.5978950922601776e+00 +0.0000000000000000e+00 -1.9499999962372490e+00 -2.6541861199190574e-02 -5.2307816760421411e-01 +5.2042635411060434e-03
-2.0000000000000009e+00 +8.5978896428749909e+00 +0.0000000000000000e+00 -1.9999999959402752e+00 -2.6542476730925257e-02 -5.2309251455860128e-01 +5.2041745928852259e-03
-2.0500000000000007e+00 +8.5978840554776674e+00 +0.0000000000000000e+00 -2.0499999956280694e+00 -2.6543108700932416e-02 -5.2310719749309964e-01 +5.2040891279086674e-03
-2.1000000000000005e+00 +8.5978783300643329e+00 +0.0000000000000000e+00 -2.0999999953002502e+00 -2.6543757057745632e-02 -5.2312221459225983e-01 +5.2040071274924169e-03
-2.1500000000000004e+00 +8.5978724666310260e+00 +0.0000000000000000e+00 -2.1499999949564357e+00 -2.6544421747621255e-02 -5.2313756384123289e-01 +5.2039285642524694e-03
-2.2000000000000002e+00 +8.5978664651736967e+00 +0.0000000000000000e+00 -2.1999999945962450e+00 -2.6545102716816642e-02 -5.2315324322518264e-01 +5.2038534108049990e-03
-2.2500000000000000e+00 +8.5978603256882078e+00 +0.0000000000000000e+00 -2.2499999942192961e+00 -2.6545799911590173e-02 -5.2316925072928411e-01 +5.2037816397663148e-03
-2.2999999999999998e+00 +8.5978540481703352e+00 +0.0000000000000000e+00 -2.2999999938252080e+00 -2.6546513278201279e-02 -5.2318558433872364e-01 +5.2037132237528578e-03
-2.3499999999999996e+00 +8.5978476326157711e+00 +0.0000000000000000e+00 -2.3499999934135989e+00 -2.6547242762910480e-02 -5.2320224203869925e-01 +5.2036481353811819e-03
-2.3999999999999995e+00 +8.5978410790201210e+00 +0.0000000000000000e+00 -2.3999999929840867e+00 -2.6547988311979479e-02 -5.2321922181442015e-01 +5.2035863472679345e-03
-2.4499999999999993e+00 +8.5978343873789029e+00 +0.0000000000000000e+00 -2.4499999925362901e+00 -2.6548749871671141e-02 -5.2323652165110635e-01 +5.2035278320298377e-03
-2.4999999999999991e+00 +8.5978275576875536e+00 +0.0000000000000000e+00 -2.4999999920698275e+00 -2.6549527388249564e-02 -5.2325413953398847e-01 +5.2034725622836786e-03
-2.5499999999999989e+00 +8.5978205899414260e+00 +0.0000000000000000e+00 -2.5499999915843166e+00 -2.6550320807980123e-02 -5.2327207344830851e-01 +5.2034205106462773e-03
-2.5999999999999988e+00 +8.5978134841357878e+00 +0.0000000000000000e+00 -2.5999999910793758e+00 -2.6551130077129521e-02 -5.2329032137931797e-01 +5.2033716497344876e-03
-2.6499999999999986e+00 +8.5978062402658235e+00 +0.0000000000000000e+00 -2.6499999905546234e+00 -2.6551955141965806e-02 -5.2330888131227937e-01 +5.2033259521651687e-03
-2.6999999999999984e+00 +8.5977988583266374e+00 +0.0000000000000000e+00 -2.6999999900096774e+00 -2.6552795948758427e-02 -5.2332775123246411e-01 +5.2032833905551598e-03
-2.7499999999999982e+00 +8.5977913383132520e+00 +0.0000000000000000e+00 -2.7499999894441554e+00 -2.6553652443778310e-02 -5.2334692912515512e-01 +5.2032439375212878e-03
-2.7999999999999980e+00 +8.5977836802206067e+00 +0.0000000000000000e+00 -2.7999999888576754e+00 -2.6554524573297818e-02 -5.2336641297564357e-01 +5.2032075656803286e-03
-2.8499999999999979e+00 +8.5977758840435605e+00 +0.0000000000000000e+00 -2.8499999882498557e+00 -2.6555412283590894e-02 -5.2338620076923070e-01 +5.2031742476489921e-03
-2.8999999999999977e+00 +8.5977679497768928e+00 +0.0000000000000000e+00 -2.8999999876203137e+00 -2.6556315520933030e-02 -5.2340629049122778e-01 +5.2031439560439163e-03
-2.9499999999999975e+00 +8.5977598774153030e+00 +0.0000000000000000e+00 -2.9499999869686677e+00 -2.6557234231601348e-02 -5.2342668012695370e-01 +5.2031166634816366e-03
-2.9999999999999973e+00 +8.5977516669534122e+00 +0.0000000000000000e+00 -2.9999999862945348e+00 -2.6558168361874628e-02 -5.2344736766173761e-01 +5.2030923425785821e-03
-3.0499999999999972e+00 +8.5977433183857617e+00 +0.0000000000000000e+00 -3.0499999855975330e+00 -2.6559117858033339e-02 -5.2346835108091649e-01 +5.2030709659510437e-03
-3.0999999999999970e+00 +8.5977348317068163e+00 +0.0000000000000000e+00 -3.0999999848772801e+00 -2.6560082666359706e-02 -5.2348962836983681e-01 +5.2030525062151632e-03
-3.1499999999999968e+00 +8.5977262069109610e+00 +0.0000000000000000e+00 -3.1499999841333932e+00 -2.6561062733137755e-02 -5.2351119751385267e-01 +5.2030369359869245e-03
-3.1999999999999966e+00 +8.5977174439925061e+00 +0.0000000000000000e+00 -3.1999999833654900e+00 -2.6562058004653326e-02 -5.2353305649832715e-01 +5.2030242278821208e-03
-3.2499999999999964e+00 +8.5977085429456857e+00 +0.0000000000000000e+00 -3.2499999825731876e+00 -2.6563068427194150e-02 -5.2355520330863037e-01 +5.2030143545163474e-03
-3.2999999999999963e+00 +8.5976995037646553e+00 +0.0000000000000000e+00 -3.2999999817561037e+00 -2.6564093947049866e-02 -5.2357763593014128e-01 +5.2030072885049803e-03
-3.3499999999999961e+00 +8.5976903264434963e+00 +0.0000000000000000e+00 -3.3499999809138554e+00 -2.6565134510512071e-02 -5.2360035234824587e-01 +5.2030030024631689e-03
-3.3999999999999959e+00 +8.5976810109762152e+00 +0.0000000000000000e+00 -3.3999999800460601e+00 -2.6566190063874378e-02 -5.2362335054833764e-01 +5.2030014690057974e-03
-3.4499999999999957e+00 +8.5976715573567439e+00 +0.0000000000000000e+00 -3.4499999791523348e+00 -2.6567260553432420e-02 -5.2364662851581789e-01 +5.2030026607474827e-03
-3.4999999999999956e+00 +8.5976619655789417e+00 +0.0000000000000000e+00 -3.4999999782322968e+00 -2.6568345925483971e-02 -5.2367018423609479e-01 +5.2030065503025705e-03
-3.5499999999999954e+00 +8.5976522356365948e+00 +0.0000000000000000e+00 -3.5499999772855633e+00 -2.6569446126328878e-02 -5.2369401569458329e-01 +5.2030131102850773e-03
-3.5999999999999952e+00 +8.5976423675234130e+00 +0.0000000000000000e+00 -3.5999999763117509e+00 -2.6570561102269200e-02 -5.2371812087670488e-01 +5.2030223133087148e-03
-3.6499999999999950e+00 +8.5976323612330390e+00 +0.0000000000000000e+00 -3.6499999753104766e+00 -2.6571690799609211e-02 -5.2374249776788850e-01 +5.2030341319868533e-03
-3.6999999999999948e+00 +8.5976222167590404e+00 +0.0000000000000000e+00 -3.6999999742813570e+00 -2.6572835164655424e-02 -5.2376714435356819e-01 +5.2030485389325020e-03
-3.7499999999999947e+00 +8.5976119340949140e+00 +0.0000000000000000e+00 -3.7499999732240092e+00 -2.6573994143716688e-02 -5.2379205861918543e-01 +5.2030655067582974e-03
-3.7999999999999945e+00 +8.5976015132340873e+00 +0.0000000000000000e+00 -3.7999999721380497e+00 -2.6575167683104178e-02 -5.2381723855018680e-01 +5.2030850080764897e-03
-3.8499999999999943e+00 +8.5975909541699167e+00 +0.0000000000000000e+00 -3.8499999710230957e+00 -2.6576355729131470e-02 -5.2384268213202545e-01 +5.2031070154989166e-03
-3.8999999999999941e+00 +8.5975802568956912e+00 +0.0000000000000000e+00 -3.8999999698787629e+00 -2.6577558228114549e-02 -5.2386838735015939e-01 +5.2031315016369869e-03
-3.9499999999999940e+00 +8.5975694214046268e+00 +0.0000000000000000e+00 -3.9499999687046681e+00 -2.6578775126371912e-02 -5.2389435219005298e-01 +5.2031584391016720e-03
-3.9999999999999938e+00 +8.5975584476898739e+00 +0.0000000000000000e+00 -3.9999999675004281e+00 -2.6580006370224549e-02 -5.2392057463717501e-01 +5.2031878005034810e-03
-4.0499999999999936e+00 +8.5975473357445136e+00 +0.0000000000000000e+00 -4.0499999662656592e+00 -2.6581251880077747e-02 -5.2394705256532736e-01 +5.2032195641216498e-03
-4.0999999999999934e+00 +8.5975360855615595e+00 +0.0000000000000000e+00 -4.0999999649999772e+00 -2.6582511472665018e-02 -5.2397378340162482e-01 +5.2032537309119851e-03
-4.1499999999999932e+00 +8.5975246971339594e+00 +0.0000000000000000e+00 -4.1499999637029985e+00 -2.6583784938801119e-02 -5.2400076446150889e-01 +5.2032903074995538e-03
-4.1999999999999931e+00 +8.5975131704545955e+00 +0.0000000000000000e+00 -4.1999999623743394e+00 -2.6585072069300126e-02 -5.2402799306042114e-01 +5.2033293005095240e-03
-4.2499999999999929e+00 +8.5975015055162842e+00 +0.0000000000000000e+00 -4.2499999610136152e+00 -2.6586372654975383e-02 -5.2405546651380386e-01 +5.2033707165671525e-03
-4.2999999999999927e+00 +8.5974897023117762e+00 +0.0000000000000000e+00 -4.2999999596204432e+00 -2.6587686486639409e-02 -5.2408318213709826e-01 +5.2034145622977951e-03
-4.3499999999999925e+00 +8.5974777608337600e+00 +0.0000000000000000e+00 -4.3499999581944380e+00 -2.6589013355103875e-02 -5.2411113724574376e-01 +5.2034608443269001e-03
-4.3999999999999924e+00 +8.5974656810748602e+00 +0.0000000000000000e+00 -4.3999999567352166e+00 -2.6590353051179540e-02 -5.2413932915517947e-01 +5.2035095692800140e-03
-4.4499999999999922e+00 +8.5974534630276374e+00 +0.0000000000000000e+00 -4.4499999552423937e+00 -2.6591705365676205e-02 -5.2416775518084247e-01 +5.2035607437827761e-03
-4.4999999999999920e+00 +8.5974411066845935e+00 +0.0000000000000000e+00 -4.4999999537155855e+00 -2.6593070089402621e-02 -5.2419641263816807e-01 +5.2036143744609324e-03
-4.5499999999999918e+00 +8.5974286120381667e+00 +0.0000000000000000e+00 -4.5499999521544074e+00 -2.6594447013166468e-02 -5.2422529884258950e-01 +5.2036704679403242e-03
-4.5999999999999917e+00 +8.5974159790807363e+00 +0.0000000000000000e+00 -4.5999999505584750e+00 -2.6595835927774258e-02 -5.2425441110953674e-01 +5.2037290308468865e-03
-4.6499999999999915e+00 +8.5974032078046214e+00 +0.0000000000000000e+00 -4.6499999489274044e+00 -2.6597236624031368e-02 -5.2428374675443778e-01 +5.2037900698066698e-03
-4.6999999999999913e+00 +8.5973902982020824e+00 +0.0000000000000000e+00 -4.6999999472608103e+00 -2.6598648892741848e-02 -5.2431330309271684e-01 +5.2038535914458129e-03
-4.7499999999999911e+00 +8.5973772502653212e+00 +0.0000000000000000e+00 -4.7499999455583080e+00 -2.6600072524708487e-02 -5.2434307743979469e-01 +5.2039196023905710e-03
-4.7999999999999909e+00 +8.5973640639864826e+00 +0.0000000000000000e+00 -4.7999999438195129e+00 -2.6601507310732690e-02 -5.2437306711108866e-01 +5.2039881092672919e-03
-4.8499999999999908e+00 +8.5973507393576547e+00 +0.0000000000000000e+00 -4.8499999420440396e+00 -2.6602953041614443e-02 -5.2440326942201132e-01 +5.2040591187024338e-03
-4.8999999999999906e+00 +8.5973372763708671e+00 +0.0000000000000000e+00 -4.8999999402315035e+00 -2.6604409508152235e-02 -5.2443368168797100e-01 +5.2041326373225638e-03
-4.9499999999999904e+00 +8.5973236750180977e+00 +0.0000000000000000e+00 -4.9499999383815192e+00 -2.6605876501143041e-02 -5.2446430122437149e-01 +5.2042086717543536e-03
-4.9999999999999902e+00 +8.5973099352912676e+00 +0.0000000000000000e+00 -4.9999999364937020e+00 -2.6607353811382236e-02 -5.2449512534661125e-01 +5.2042872286245812e-03
-5.0499999999999901e+00 +8.5972960571822448e+00 +0.0000000000000000e+00 -5.0499999345676665e+00 -2.6608841229663529e-02 -5.2452615137008340e-01 +5.2043683145601375e-03
-5.0999999999999899e+00 +8.5972820406828436e+00 +0.0000000000000000e+00 -5.0999999326030281e+00 -2.6610338546778956e-02 -5.2455737661017532e-01 +5.2044519361880209e-03
-5.1499999999999897e+00 +8.5972678857848255e+00 +0.0000000000000000e+00 -5.1499999305994004e+00 -2.6611845553518750e-02 -5.2458879838226791e-01 +5.2045381001353409e-03
-5.1999999999999895e+00 +8.5972535924799001e+00 +0.0000000000000000e+00 -5.1999999285563989e+00 -2.6613362040671346e-02 -5.2462041400173609e-01 +5.2046268130293248e-03
-5.2499999999999893e+00 +8.5972391607597274e+00 +0.0000000000000000e+00 -5.2499999264736372e+00 -2.6614887799023303e-02 -5.2465222078394824e-01 +5.2047180814973060e-03
-5.2999999999999892e+00 +8.5972245906159142e+00 +0.0000000000000000e+00 -5.2999999243507308e+00 -2.6616422619359242e-02 -5.2468421604426496e-01 +5.2048119121667312e-03
-5.3499999999999890e+00 +8.5972098820400191e+00 +0.0000000000000000e+00 -5.3499999221872923e+00 -2.6617966292461791e-02 -5.2471639709804052e-01 +5.2049083116651705e-03
-5.3999999999999888e+00 +8.5971950350235531e+00 +0.0000000000000000e+00 -5.3999999199829372e+00 -2.6619518609111562e-02 -5.2474876126062076e-01 +5.2050072866203024e-03
-5.4499999999999886e+00 +8.5971800495579753e+00 +0.0000000000000000e+00 -5.4499999177372791e+00 -2.6621079360086994e-02 -5.2478130584734362e-01 +5.2051088436599257e-03
-5.4999999999999885e+00 +8.5971649256347007e+00 +0.0000000000000000e+00 -5.4999999154499326e+00 -2.6622648336164439e-02 -5.2481402817353895e-01 +5.2052129894119611e-03
-5.5499999999999883e+00 +8.5971496632450961e+00 +0.0000000000000000e+00 -5.5499999131205113e+00 -2.6624225328118003e-02 -5.2484692555452817e-01 +5.2053197305044338e-03
-5.5999999999999881e+00 +8.5971342623804823e+00 +0.0000000000000000e+00 -5.5999999107486289e+00 -2.6625810126719513e-02 -5.2487999530562301e-01 +5.2054290735655097e-03
-5.6499999999999879e+00 +8.5971187230321338e+00 +0.0000000000000000e+00 -5.6499999083338990e+00 -2.6627402522738468e-02 -5.2491323474212670e-01 +5.2055410252234598e-03
-5.6999999999999877e+00 +8.5971030451912807e+00 +0.0000000000000000e+00 -5.6999999058759361e+00 -2.6629002306941998e-02 -5.2494664117933254e-01 +5.2056555921066840e-03
-5.7499999999999876e+00 +8.5970872288491087e+00 +0.0000000000000000e+00 -5.7499999033743530e+00 -2.6630609270094766e-02 -5.2498021193252342e-01 +5.2057727808437031e-03
-5.7999999999999874e+00 +8.5970712739967627e+00 +0.0000000000000000e+00 -5.7999999008287642e+00 -2.6632223202958959e-02 -5.2501394431697312e-01 +5.2058925980631634e-03
-5.8499999999999872e+00 +8.5970551806253415e+00 +0.0000000000000000e+00 -5.8499998982387824e+00 -2.6633843896294196e-02 -5.2504783564794399e-01 +5.2060150503938328e-03
