# field on trajectory
# s[mm] rx[mm] ry[mm] rz[mm] bx[T] by[T] bz[T]
0.0000000000000000e+00 +8.5980000000000008e+00 +0.0000000000000000e+00 +0.0000000000000000e+00 -2.8899129229292643e-02 -5.5134187221014519e-01 +5.5639140976707028e-03
5.0000000000000003e-02 +8.5979999308460719e+00 +0.0000000000000000e+00 +4.9999999999936227e-02 -2.8898761573216847e-02 -5.5134217254941742e-01 +5.5637445181940673e-03
1.0000000000000001e-01 +8.5979997233842216e+00 +0.0000000000000000e+00 +9.9999999999489886e-02 -2.8898414153295530e-02 -5.5134282070455654e-01 +5.5635788636014781e-03
1.5000000000000002e-01 +8.5979993776142880e+00 +0.0000000000000000e+00 +1.4999999999827837e-01 -2.8898086886595342e-02 -5.5134381600595916e-01 +5.5634171065036490e-03
2.0000000000000001e-01 +8.5979988935360208e+00 +0.0000000000000000e+00 +1.9999999999591911e-01 -2.8897779690183648e-02 -5.5134515778403959e-01 +5.5632592195116451e-03
2.5000000000000000e-01 +8.5979982711490841e+00 +0.0000000000000000e+00 +2.4999999999202951e-01 -2.8897492481128422e-02 -5.5134684536922707e-01 +5.5631051752368411e-03
2.9999999999999999e-01 +8.5979975104530535e+00 +0.0000000000000000e+00 +2.9999999998622701e-01 -2.8897225176498231e-02 -5.5134887809196764e-01 +5.5629549462909416e-03
3.4999999999999998e-01 +8.5979966114474191e+00 +0.0000000000000000e+00 +3.4999999997812897e-01 -2.8896977693362278e-02 -5.5135125528272355e-01 +5.5628085052859561e-03
3.9999999999999997e-01 +8.5979955741315841e+00 +0.0000000000000000e+00 +3.9999999996735280e-01 -2.8896749948790195e-02 -5.5135397627197247e-01 +5.5626658248341711e-03
4.4999999999999996e-01 +8.5979943985048681e+00 +0.0000000000000000e+00 +4.4999999995351586e-01 -2.8896541859852163e-02 -5.5135704039020872e-01 +5.5625268775481573e-03
4.9999999999999994e-01 +8.5979930845665002e+00 +0.0000000000000000e+00 +4.9999999993623556e-01 -2.8896353343618751e-02 -5.5136044696794173e-01 +5.5623916360407477e-03
5.4999999999999993e-01 +8.5979916323156278e+00 +0.0000000000000000e+00 +5.4999999991512927e-01 -2.8896184317160952e-02 -5.5136419533569736e-01 +5.5622600729250101e-03
5.9999999999999998e-01 +8.5979900417513093e+00 +0.0000000000000000e+00 +5.9999999988981434e-01 -2.8896034697550154e-02 -5.5136828482401690e-01 +5.5621321608142664e-03
6.5000000000000002e-01 +8.5979883128725199e+00 +0.0000000000000000e+00 +6.4999999985990820e-01 -2.8895904401857977e-02 -5.5137271476345739e-01 +5.5620078723220426e-03
7.0000000000000007e-01 +8.5979864456781474e+00 +0.0000000000000000e+00 +6.9999999982502814e-01 -2.8895793347156369e-02 -5.5137748448459079e-01 +5.5618871800620770e-03
7.5000000000000011e-01 +8.5979844401669947e+00 +0.0000000000000000e+00 +7.4999999978479148e-01 -2.8895701450517525e-02 -5.5138259331800499e-01 +5.5617700566483004e-03
8.0000000000000016e-01 +8.5979822963377810e+00 +0.0000000000000000e+00 +7.9999999973881553e-01 -2.8895628629013785e-02 -5.5138804059430346e-01 +5.5616564746948302e-03
8.5000000000000020e-01 +8.5979800141891403e+00 +0.0000000000000000e+00 +8.4999999968671758e-01 -2.8895574799717692e-02 -5.5139382564410455e-01 +5.5615464068159348e-03
9.0000000000000024e-01 +8.5979775937196212e+00 +0.0000000000000000e+00 +8.9999999962811494e-01 -2.8895539879701858e-02 -5.5139994779804136e-01 +5.5614398256260489e-03
9.5000000000000029e-01 +8.5979750349276873e+00 +0.0000000000000000e+00 +9.4999999956262482e-01 -2.8895523786038997e-02 -5.5140640638676286e-01 +5.5613367037397323e-03
1.0000000000000002e+00 +8.5979723378117185e+00 +0.0000000000000000e+00 +9.9999999948986451e-01 -2.8895526435801823e-02 -5.5141320074093259e-01 +5.5612370137716888e-03
1.0500000000000003e+00 +8.5979695023700113e+00 +0.0000000000000000e+00 +1.0499999994094513e+00 -2.8895547746063070e-02 -5.5142033019122960e-01 +5.5611407283367113e-03
1.1000000000000003e+00 +8.5979665286007769e+00 +0.0000000000000000e+00 +1.0999999993210023e+00 -2.8895587633895391e-02 -5.5142779406834674e-01 +5.5610478200497056e-03
1.1500000000000004e+00 +8.5979634165021430e+00 +0.0000000000000000e+00 +1.1499999992241348e+00 -2.8895646016371356e-02 -5.5143559170299261e-01 +5.5609582615256548e-03
1.2000000000000004e+00 +8.5979601660721539e+00 +0.0000000000000000e+00 +1.1999999991184658e+00 -2.8895722810563410e-02 -5.5144372242588935e-01 +5.5608720253796130e-03
1.2500000000000004e+00 +8.5979567773087702e+00 +0.0000000000000000e+00 +1.2499999990036126e+00 -2.8895817933543812e-02 -5.5145218556777498e-01 +5.5607890842266951e-03
1.3000000000000005e+00 +8.5979532502098674e+00 +0.0000000000000000e+00 +1.2999999988791924e+00 -2.8895931302384603e-02 -5.5146098045940173e-01 +5.5607094106820548e-03
1.3500000000000005e+00 +8.5979495847732395e+00 +0.0000000000000000e+00 +1.3499999987448221e+00 -2.8896062834157570e-02 -5.5147010643153527e-01 +5.5606329773608722e-03
1.4000000000000006e+00 +8.5979457809965982e+00 +0.0000000000000000e+00 +1.3999999986001190e+00 -2.8896212445934193e-02 -5.5147956281495669e-01 +5.5605597568783496e-03
1.4500000000000006e+00 +8.5979418388775706e+00 +0.0000000000000000e+00 +1.4499999984447001e+00 -2.8896380054785627e-02 -5.5148934894046053e-01 +5.5604897218496851e-03
1.5000000000000007e+00 +8.5979377584137033e+00 +0.0000000000000000e+00 +1.4999999982781822e+00 -2.8896565577782637e-02 -5.5149946413885642e-01 +5.5604228448900735e-03
1.5500000000000007e+00 +8.5979335396024581e+00 +0.0000000000000000e+00 +1.5499999981001826e+00 -2.8896768931995560e-02 -5.5150990774096709e-01 +5.5603590986146745e-03
1.6000000000000008e+00 +8.5979291824412147e+00 +0.0000000000000000e+00 +1.5999999979103181e+00 -2.8896990034494297e-02 -5.5152067907762992e-01 +5.5602984556386128e-03
1.6500000000000008e+00 +8.5979246869272714e+00 +0.0000000000000000e+00 +1.6499999977082056e+00 -2.8897228802348199e-02 -5.5153177747969595e-01 +5.5602408885769639e-03
1.7000000000000008e+00 +8.5979200530578428e+00 +0.0000000000000000e+00 +1.6999999974934621e+00 -2.8897485152626124e-02 -5.5154320227803022e-01 +5.5601863700447318e-03
1.7500000000000009e+00 +8.5979152808300654e+00 +0.0000000000000000e+00 +1.7499999972657045e+00 -2.8897759002396290e-02 -5.5155495280351119e-01 +5.5601348726568413e-03
1.8000000000000009e+00 +8.5979103702409905e+00 +0.0000000000000000e+00 +1.7999999970245497e+00 -2.8898050268726341e-02 -5.5156702838703109e-01 +5.5600863690281280e-03
1.8500000000000010e+00 +8.5979053212875876e+00 +0.0000000000000000e+00 +1.8499999967696144e+00 -2.8898358868683229e-02 -5.5157942835949625e-01 +5.5600408317733156e-03
1.9000000000000010e+00 +8.5979001339667480e+00 +0.0000000000000000e+00 +1.8999999965005154e+00 -2.8898684719333191e-02 -5.5159215205182577e-01 +5.5599982335070098e-03
1.9500000000000011e+00 +8.5978948082752797e+00 +0.0000000000000000e+00 +1.9499999962168695e+00 -2.8899027737741712e-02 -5.5160519879495251e-01 +5.5599585468436774e-03
2.0000000000000009e+00 +8.5978893442099089e+00 +0.0000000000000000e+00 +1.9999999959182935e+00 -2.8899387840973501e-02 -5.5161856791982289e-01 +5.5599217443976388e-03
2.0500000000000007e+00 +8.5978837417672818e+00 +0.0000000000000000e+00 +2.0499999956044039e+00 -2.8899764939981434e-02 -5.5163225854079179e-01 +5.5598878030387513e-03
2.1000000000000005e+00 +8.5978780009439646e+00 +0.0000000000000000e+00 +2.0999999952748176e+00 -2.8900158921274118e-02 -5.5164626890581159e-01 +5.5598567166595470e-03
2.1500000000000004e+00 +8.5978721217364438e+00 +0.0000000000000000e+00 +2.1499999949291508e+00 -2.8900569665250054e-02 -5.5166059704624104e-01 +5.5598284834082823e-03
2.2000000000000002e+00 +8.5978661041411240e+00 +0.0000000000000000e+00 +2.1999999945670203e+00 -2.8900997052308853e-02 -5.5167524099344933e-01 +5.5598031014332571e-03
2.2500000000000000e+00 +8.5978599481543316e+00 +0.0000000000000000e+00 +2.2499999941880424e+00 -2.8901440962851292e-02 -5.5169019877881609e-01 +5.5597805688828144e-03
2.2999999999999998e+00 +8.5978536537723151e+00 +0.0000000000000000e+00 +2.2999999937918338e+00 -2.8901901277279457e-02 -5.5170546843373114e-01 +5.5597608839053443e-03
2.3499999999999996e+00 +8.5978472209912447e+00 +0.0000000000000000e+00 +2.3499999933780114e+00 -2.8902377875996706e-02 -5.5172104798959387e-01 +5.5597440446492879e-03
2.3999999999999995e+00 +8.5978406498072104e+00 +0.0000000000000000e+00 +2.3999999929461908e+00 -2.8902870639407861e-02 -5.5173693547781355e-01 +5.5597300492631211e-03
2.4499999999999993e+00 +8.5978339402162280e+00 +0.0000000000000000e+00 +2.4499999924959885e+00 -2.8903379447919195e-02 -5.5175312892980866e-01 +5.5597188958953700e-03
2.4999999999999991e+00 +8.5978270922142368e+00 +0.0000000000000000e+00 +2.4999999920270213e+00 -2.8903904181938531e-02 -5.5176962637700733e-01 +5.5597105826946068e-03
2.5499999999999989e+00 +8.5978201057970960e+00 +0.0000000000000000e+00 +2.5499999915389049e+00 -2.8904444721875335e-02 -5.5178642585084603e-01 +5.5597051078094461e-03
2.5999999999999988e+00 +8.5978129809605921e+00 +0.0000000000000000e+00 +2.5999999910312561e+00 -2.8905000948140792e-02 -5.5180352538277033e-01 +5.5597024693885520e-03
2.6499999999999986e+00 +8.5978057177004352e+00 +0.0000000000000000e+00 +2.6499999905036908e+00 -2.8905572741147828e-02 -5.5182092300423413e-01 +5.5597026655806320e-03
2.6999999999999984e+00 +8.5977983160122626e+00 +0.0000000000000000e+00 +2.6999999899558249e+00 -2.8906159981311245e-02 -5.5183861674670009e-01 +5.5597056945344411e-03
2.7499999999999982e+00 +8.5977907758916352e+00 +0.0000000000000000e+00 +2.7499999893872746e+00 -2.8906762549047761e-02 -5.5185660464163822e-01 +5.5597115543987745e-03
2.7999999999999980e+00 +8.5977830973340392e+00 +0.0000000000000000e+00 +2.7999999887976563e+00 -2.8907380324776084e-02 -5.5187488472052693e-01 +5.5597202433224765e-03
2.8499999999999979e+00 +8.5977752803348917e+00 +0.0000000000000000e+00 +2.8499999881865854e+00 -2.8908013188917017e-02 -5.5189345501485210e-01 +5.5597317594544456e-03
2.8999999999999977e+00 +8.5977673248895314e+00 +0.0000000000000000e+00 +2.8999999875536782e+00 -2.8908661021893486e-02 -5.5191231355610693e-01 +5.5597461009436067e-03
2.9499999999999975e+00 +8.5977592309932298e+00 +0.0000000000000000e+00 +2.9499999868985505e+00 -2.8909323704130650e-02 -5.5193145837579205e-01 +5.5597632659389520e-03
2.9999999999999973e+00 +8.5977509986411835e+00 +0.0000000000000000e+00 +2.9999999862208182e+00 -2.8910001116055965e-02 -5.5195088750541488e-01 +5.5597832525895053e-03
3.0499999999999972e+00 +8.5977426278285183e+00 +0.0000000000000000e+00 +3.0499999855200972e+00 -2.8910693138099228e-02 -5.5197059897648915e-01 +5.5598060590443454e-03
3.0999999999999970e+00 +8.5977341185502905e+00 +0.0000000000000000e+00 +3.0999999847960029e+00 -2.8911399650692709e-02 -5.5199059082053592e-01 +5.5598316834525917e-03
3.1499999999999968e+00 +8.5977254708014854e+00 +0.0000000000000000e+00 +3.1499999840481512e+00 -2.8912120534271172e-02 -5.5201086106908193e-01 +5.5598601239634123e-03
3.1999999999999966e+00 +8.5977166845770174e+00 +0.0000000000000000e+00 +3.1999999832761579e+00 -2.8912855669271993e-02 -5.5203140775366044e-01 +5.5598913787260201e-03
3.2499999999999964e+00 +8.5977077598717315e+00 +0.0000000000000000e+00 +3.2499999824796384e+00 -2.8913604936135193e-02 -5.5205222890581040e-01 +5.5599254458896805e-03
3.2999999999999963e+00 +8.5976986966804052e+00 +0.0000000000000000e+00 +3.2999999816582082e+00 -2.8914368215303521e-02 -5.5207332255707575e-01 +5.5599623236036941e-03
3.3499999999999961e+00 +8.5976894949977485e+00 +0.0000000000000000e+00 +3.3499999808114826e+00 -2.8915145387222563e-02 -5.5209468673900708e-01 +5.5600020100174223e-03
3.3999999999999959e+00 +8.5976801548184003e+00 +0.0000000000000000e+00 +3.3999999799390772e+00 -2.8915936332340766e-02 -5.5211631948315876e-01 +5.5600445032802587e-03
3.4499999999999957e+00 +8.5976706761369357e+00 +0.0000000000000000e+00 +3.4499999790406073e+00 -2.8916740931109530e-02 -5.5213821882109115e-01 +5.5600898015416575e-03
3.4999999999999956e+00 +8.5976610589478604e+00 +0.0000000000000000e+00 +3.4999999781156879e+00 -2.8917559063983338e-02 -5.5216038278436919e-01 +5.5601379029511086e-03
3.5499999999999954e+00 +8.5976513032456143e+00 +0.0000000000000000e+00 +3.5499999771639348e+00 -2.8918390611419723e-02 -5.5218280940456177e-01 +5.5601888056581563e-03
3.5999999999999952e+00 +8.5976414090245719e+00 +0.0000000000000000e+00 +3.5999999761849626e+00 -2.8919235453879411e-02 -5.5220549671324271e-01 +5.5602425078123911e-03
3.6499999999999950e+00 +8.5976313762790415e+00 +0.0000000000000000e+00 +3.6499999751783867e+00 -2.8920093471826405e-02 -5.5222844274198923e-01 +5.5602990075634441e-03
3.6999999999999948e+00 +8.5976212050032679e+00 +0.0000000000000000e+00 +3.6999999741438221e+00 -2.8920964545728008e-02 -5.5225164552238348e-01 +5.5603583030610021e-03
3.7499999999999947e+00 +8.5976108951914298e+00 +0.0000000000000000e+00 +3.7499999730808837e+00 -2.8921848556054942e-02 -5.5227510308600980e-01 +5.5604203924547943e-03
3.7999999999999945e+00 +8.5976004468376441e+00 +0.0000000000000000e+00 +3.7999999719891866e+00 -2.8922745383281396e-02 -5.5229881346445697e-01 +5.5604852738946001e-03
3.8499999999999943e+00 +8.5975898599359617e+00 +0.0000000000000000e+00 +3.8499999708683457e+00 -2.8923654907885118e-02 -5.5232277468931645e-01 +5.5605529455302399e-03
3.8999999999999941e+00 +8.5975791344803731e+00 +0.0000000000000000e+00 +3.8999999697179755e+00 -2.8924577010347480e-02 -5.5234698479218303e-01 +5.5606234055115954e-03
3.9499999999999940e+00 +8.5975682704648051e+00 +0.0000000000000000e+00 +3.9499999685376910e+00 -2.8925511571153521e-02 -5.5237144180465370e-01 +5.5606966519885764e-03
3.9999999999999938e+00 +8.5975572678831202e+00 +0.0000000000000000e+00 +3.9999999673271067e+00 -2.8926458470792105e-02 -5.5239614375832846e-01 +5.5607726831111573e-03
4.0499999999999936e+00 +8.5975461267291244e+00 +0.0000000000000000e+00 +4.0499999660858377e+00 -2.8927417615802229e-02 -5.5242108859398598e-01 +5.5608514897697685e-03
4.0999999999999934e+00 +8.5975348469965596e+00 +0.0000000000000000e+00 +4.0999999648134979e+00 -2.8928389016910833e-02 -5.5244627388911594e-01 +5.5609330338164450e-03
4.1499999999999932e+00 +8.5975234286791089e+00 +0.0000000000000000e+00 +4.1499999635097025e+00 -2.8929372710891119e-02 -5.5247169713038702e-01 +5.5610172698435534e-03
4.1999999999999931e+00 +8.5975118717703936e+00 +0.0000000000000000e+00 +4.1999999621740649e+00 -2.8930368734515634e-02 -5.5249735580447101e-01 +5.5611041524433946e-03
4.2499999999999929e+00 +8.5975001762639778e+00 +0.0000000000000000e+00 +4.2499999608061998e+00 -2.8931377124556203e-02 -5.5252324739804259e-01 +5.5611936362081936e-03
4.2999999999999927e+00 +8.5974883421533654e+00 +0.0000000000000000e+00 +4.2999999594057217e+00 -2.8932397917783910e-02 -5.5254936939777932e-01 +5.5612856757300986e-03
4.3499999999999925e+00 +8.5974763694320053e+00 +0.0000000000000000e+00 +4.3499999579722450e+00 -2.8933431150969018e-02 -5.5257571929036164e-01 +5.5613802256011882e-03
4.3999999999999924e+00 +8.5974642580932858e+00 +0.0000000000000000e+00 +4.3999999565053836e+00 -2.8934476860880853e-02 -5.5260229456247090e-01 +5.5614772404134396e-03
4.4499999999999922e+00 +8.5974520081305421e+00 +0.0000000000000000e+00 +4.4499999550047518e+00 -2.8935535084287822e-02 -5.5262909270079241e-01 +5.5615766747587623e-03
4.4999999999999920e+00 +8.5974396195370506e+00 +0.0000000000000000e+00 +4.4999999534699633e+00 -2.8936605857957275e-02 -5.5265611119201186e-01 +5.5616784832289668e-03
4.5499999999999918e+00 +8.5974270923060345e+00 +0.0000000000000000e+00 +4.5499999519006318e+00 -2.8937689218655516e-02 -5.5268334752281778e-01 +5.5617826204157816e-03
4.5999999999999917e+00 +8.5974144264306620e+00 +0.0000000000000000e+00 +4.5999999502963718e+00 -2.8938785203147629e-02 -5.5271079917989996e-01 +5.5618890409108220e-03
4.6499999999999915e+00 +8.5974016219040461e+00 +0.0000000000000000e+00 +4.6499999486567969e+00 -2.8939893848197552e-02 -5.5273846364994950e-01 +5.5619976993056229e-03
4.6999999999999913e+00 +8.5973886787192466e+00 +0.0000000000000000e+00 +4.6999999469815208e+00 -2.8941015190567885e-02 -5.5276633841965817e-01 +5.5621085501916011e-03
4.7499999999999911e+00 +8.5973755968692718e+00 +0.0000000000000000e+00 +4.7499999452701571e+00 -2.8942149267019910e-02 -5.5279442097572029e-01 +5.5622215481600764e-03
4.7999999999999909e+00 +8.5973623763470766e+00 +0.0000000000000000e+00 +4.7999999435223186e+00 -2.8943296114313483e-02 -5.5282270880482987e-01 +5.5623366478022591e-03
4.8499999999999908e+00 +8.5973490171455662e+00 +0.0000000000000000e+00 +4.8499999417376198e+00 -2.8944455769206987e-02 -5.5285119939368155e-01 +5.5624538037092400e-03
4.8999999999999906e+00 +8.5973355192575927e+00 +0.0000000000000000e+00 +4.8999999399156744e+00 -2.8945628268457275e-02 -5.5287989022897133e-01 +5.5625729704720022e-03
4.9499999999999904e+00 +8.5973218826759599e+00 +0.0000000000000000e+00 +4.9499999380560951e+00 -2.8946813648819555e-02 -5.5290877879739442e-01 +5.5626941026814033e-03
4.9999999999999902e+00 +8.5973081073934203e+00 +0.0000000000000000e+00 +4.9999999361584946e+00 -2.8948011947047408e-02 -5.5293786258564737e-01 +5.5628171549281799e-03
5.0499999999999901e+00 +8.5972941934026785e+00 +0.0000000000000000e+00 +5.0499999342224875e+00 -2.8949223199892647e-02 -5.5296713908042550e-01 +5.5629420818029424e-03
5.0999999999999899e+00 +8.5972801406963892e+00 +0.0000000000000000e+00 +5.0999999322476857e+00 -2.8950447444105309e-02 -5.5299660576842469e-01 +5.5630688378961726e-03
5.1499999999999897e+00 +8.5972659492671610e+00 +0.0000000000000000e+00 +5.1499999302337027e+00 -2.8951684716433546e-02 -5.5302626013634004e-01 +5.5631973777982213e-03
5.1999999999999895e+00 +8.5972516191075563e+00 +0.0000000000000000e+00 +5.1999999281801523e+00 -2.8952935053623591e-02 -5.5305609967086666e-01 +5.5633276560992945e-03
5.2499999999999893e+00 +8.5972371502100895e+00 +0.0000000000000000e+00 +5.2499999260866463e+00 -2.8954198492419665e-02 -5.5308612185869788e-01 +5.5634596273894674e-03
5.2999999999999892e+00 +8.5972225425672288e+00 +0.0000000000000000e+00 +5.2999999239527984e+00 -2.8955475069563950e-02 -5.5311632418652668e-01 +5.5635932462586666e-03
5.3499999999999890e+00 +8.5972077961713982e+00 +0.0000000000000000e+00 +5.3499999217782204e+00 -2.8956764821796505e-02 -5.5314670414104539e-01 +5.5637284672966783e-03
5.3999999999999888e+00 +8.5971929110149770e+00 +0.0000000000000000e+00 +5.3999999195625259e+00 -2.8958067785855173e-02 -5.5317725920894367e-01 +5.5638652450931310e-03
5.4499999999999886e+00 +8.5971778870903002e+00 +0.0000000000000000e+00 +5.4499999173053268e+00 -2.8959383998475571e-02 -5.5320798687691108e-01 +5.5640035342375098e-03
5.4999999999999885e+00 +8.5971627243896602e+00 +0.0000000000000000e+00 +5.4999999150062360e+00 -2.8960713496390973e-02 -5.5323888463163473e-01 +5.5641432893191326e-03
5.5499999999999883e+00 +8.5971474229053069e+00 +0.0000000000000000e+00 +5.5499999126648660e+00 -2.8962056316332294e-02 -5.5326994995979983e-01 +5.5642844649271637e-03
5.5999999999999881e+00 +8.5971319826294454e+00 +0.0000000000000000e+00 +5.5999999102808289e+00 -2.8963412495027967e-02 -5.5330118034808984e-01 +5.5644270156506035e-03
5.6499999999999879e+00 +8.5971164035542422e+00 +0.0000000000000000e+00 +5.6499999078537373e+00 -2.8964782069203963e-02 -5.5333257328318608e-01 +5.5645708960782875e-03
5.6999999999999877e+00 +8.5971006856718244e+00 +0.0000000000000000e+00 +5.6999999053832031e+00 -2.8966165075583621e-02 -5.5336412625176679e-01 +5.5647160607988719e-03
5.7499999999999876e+00 +8.5970848289742747e+00 +0.0000000000000000e+00 +5.7499999028688382e+00 -2.8967561550887665e-02 -5.5339583674050863e-01 +5.5648624644008540e-03
5.7999999999999874e+00 +8.5970688334536387e+00 +0.0000000000000000e+00 +5.7999999003102554e+00 -2.8968971531834097e-02 -5.5342770223608440e-01 +5.5650100614725419e-03
5.8499999999999872e+00 +8.5970526991019245e+00 +0.0000000000000000e+00 +5.8499998977070664e+00 -2.8970395055138182e-02 -5.5345972022516488e-01 +5.5651588066020705e-03
5.8999999999999870e+00 +8.5970364259110976e+00 +0.0000000000000000e+00 +5.8999998950588832e+00 -2.8971832157512287e-02 -5.5349188819441719e-01 +5.5653086543773905e-03
