# field on trajectory
# s[mm] rx[mm] ry[mm] rz[mm] bx[T] by[T] bz[T]
0.0000000000000000e+00 +8.5270000000000206e+00 +0.0000000000000000e+00 +0.0000000000000000e+00 -2.8781202721672314e-02 -5.5300226107345185e-01 +5.0251324501119623e-03
5.0000000000000003e-02 +8.5269999309457507e+00 +0.0000000000000000e+00 +4.9999999999936401e-02 -2.8781919707938808e-02 -5.5299899237725980e-01 +5.0243031392431178e-03
1.0000000000000001e-01 +8.5269997237846802e+00 +0.0000000000000000e+00 +9.9999999999491399e-02 -2.8782658975636661e-02 -5.5299605000207130e-01 +5.0234821954968454e-03
1.4999999999999999e-01 +8.5269993785186706e+00 +0.0000000000000000e+00 +1.4999999999828301e-01 -2.8783420308518184e-02 -5.5299343366049236e-01 +5.0226696717078625e-03
2.0000000000000001e-01 +8.5269988951477007e+00 +0.0000000000000000e+00 +1.9999999999593099e-01 -2.8784203490337144e-02 -5.5299114306515629e-01 +5.0218656207115407e-03
2.5000000000000000e-01 +8.5269982736681396e+00 +0.0000000000000000e+00 +2.4999999999205300e-01 -2.8785008304849365e-02 -5.5298917792873703e-01 +5.0210700953439878e-03
2.9999999999999999e-01 +8.5269975140799907e+00 +0.0000000000000000e+00 +2.9999999998626697e-01 -2.8785834535809896e-02 -5.5298753796389588e-01 +5.0202831484416413e-03
3.4999999999999998e-01 +8.5269966163905302e+00 +0.0000000000000000e+00 +3.4999999997819298e-01 -2.8786681966971643e-02 -5.5298622288325594e-01 +5.0195048328410836e-03
4.0000000000000002e-01 +8.5269955805888493e+00 +0.0000000000000000e+00 +3.9999999996744801e-01 -2.8787550382095076e-02 -5.5298523239958641e-01 +5.0187352013804278e-03
4.5000000000000001e-01 +8.5269944066858407e+00 +0.0000000000000000e+00 +4.4999999995365197e-01 -2.8788439564932784e-02 -5.5298456622551251e-01 +5.0179743068971046e-03
5.0000000000000000e-01 +8.5269930946742498e+00 +0.0000000000000000e+00 +4.9999999993642202e-01 -2.8789349299244895e-02 -5.5298422407380443e-01 +5.0172222022300799e-03
5.5000000000000004e-01 +8.5269916445577092e+00 +0.0000000000000000e+00 +5.4999999991537796e-01 -2.8790279368787784e-02 -5.5298420565716833e-01 +5.0164789402182353e-03
5.9999999999999998e-01 +8.5269900563289394e+00 +0.0000000000000000e+00 +5.9999999989013697e-01 -2.8791229557322537e-02 -5.5298451068840315e-01 +5.0157445737015697e-03
6.5000000000000002e-01 +8.5269883299988596e+00 +0.0000000000000000e+00 +6.4999999986031898e-01 -2.8792199648603564e-02 -5.5298513888018952e-01 +5.0150191555196032e-03
6.9999999999999996e-01 +8.5269864655601904e+00 +0.0000000000000000e+00 +6.9999999982554195e-01 -2.8793189426392682e-02 -5.5298608994535337e-01 +5.0143027385133546e-03
7.5000000000000000e-01 +8.5269844630165608e+00 +0.0000000000000000e+00 +7.4999999978542398e-01 -2.8794198674447883e-02 -5.5298736359665712e-01 +5.0135953755237684e-03
8.0000000000000004e-01 +8.5269823223679904e+00 +0.0000000000000000e+00 +7.9999999973958402e-01 -2.8795227176528791e-02 -5.5298895954690097e-01 +5.0128971193924782e-03
8.4999999999999998e-01 +8.5269800436108198e+00 +0.0000000000000000e+00 +8.4999999968764095e-01 -2.8796274716396786e-02 -5.5299087750892750e-01 +5.0122080229618275e-03
9.0000000000000002e-01 +8.5269776267450705e+00 +0.0000000000000000e+00 +8.9999999962921295e-01 -2.8797341077812059e-02 -5.5299311719556521e-01 +5.0115281390744598e-03
9.4999999999999996e-01 +8.5269750717743609e+00 +0.0000000000000000e+00 +9.4999999956391801e-01 -2.8798426044533563e-02 -5.5299567831962948e-01 +5.0108575205733011e-03
1.0000000000000000e+00 +8.5269723786986997e+00 +0.0000000000000000e+00 +9.9999999949137597e-01 -2.8799529400321870e-02 -5.5299856059397756e-01 +5.0101962203019882e-03
1.0500000000000000e+00 +8.5269695475144491e+00 +0.0000000000000000e+00 +1.0499999994111999e+00 -2.8800650928939058e-02 -5.5300176373150423e-01 +5.0095442911048324e-03
1.1000000000000001e+00 +8.5269665782288904e+00 +0.0000000000000000e+00 +1.0999999993230201e+00 -2.8801790414143155e-02 -5.5300528744504063e-01 +5.0089017858260323e-03
1.1499999999999999e+00 +8.5269634708311095e+00 +0.0000000000000000e+00 +1.1499999992264500e+00 -2.8802947639699206e-02 -5.5300913144756236e-01 +5.0082687573112768e-03
1.2000000000000000e+00 +8.5269602253283701e+00 +0.0000000000000000e+00 +1.1999999991210999e+00 -2.8804122389365326e-02 -5.5301329545192657e-01 +5.0076452584057237e-03
1.2500000000000000e+00 +8.5269568417206791e+00 +0.0000000000000000e+00 +1.2499999990065900e+00 -2.8805314446902403e-02 -5.5301777917105654e-01 +5.0070313419554148e-03
1.3000000000000000e+00 +8.5269533200044005e+00 +0.0000000000000000e+00 +1.2999999988825499e+00 -2.8806523596072730e-02 -5.5302258231791590e-01 +5.0064270608070546e-03
1.3500000000000001e+00 +8.5269496601795307e+00 +0.0000000000000000e+00 +1.3499999987485900e+00 -2.8807749620637122e-02 -5.5302770460545458e-01 +5.0058324678076277e-03
1.3999999999999999e+00 +8.5269458622533403e+00 +0.0000000000000000e+00 +1.3999999986043401e+00 -2.8808992304353454e-02 -5.5303314574658269e-01 +5.0052476158041819e-03
1.4500000000000000e+00 +8.5269419262185693e+00 +0.0000000000000000e+00 +1.4499999984494001e+00 -2.8810251430985100e-02 -5.5303890545432921e-01 +5.0046725576450152e-03
1.5000000000000000e+00 +8.5269378520752106e+00 +0.0000000000000000e+00 +1.4999999982833900e+00 -2.8811526784292482e-02 -5.5304498344168485e-01 +5.0041073461785024e-03
1.5500000000000000e+00 +8.5269336398268898e+00 +0.0000000000000000e+00 +1.5499999981059500e+00 -2.8812818148034398e-02 -5.5305137942162574e-01 +5.0035520342532657e-03
1.6000000000000001e+00 +8.5269292894736299e+00 +0.0000000000000000e+00 +1.5999999979166799e+00 -2.8814125305970797e-02 -5.5305809310716680e-01 +5.0030066747185813e-03
1.6499999999999999e+00 +8.5269248010117700e+00 +0.0000000000000000e+00 +1.6499999977152000e+00 -2.8815448041862805e-02 -5.5306512421136422e-01 +5.0024713204243742e-03
1.7000000000000000e+00 +8.5269201744449692e+00 +0.0000000000000000e+00 +1.6999999975011300e+00 -2.8816786139468364e-02 -5.5307247244723301e-01 +5.0019460242206144e-03
1.7500000000000000e+00 +8.5269154097695701e+00 +0.0000000000000000e+00 +1.7499999972740901e+00 -2.8818139382547982e-02 -5.5308013752785479e-01 +5.0014308389581237e-03
1.8000000000000000e+00 +8.5269105069892195e+00 +0.0000000000000000e+00 +1.7999999970336999e+00 -2.8819507554858924e-02 -5.5308811916627043e-01 +5.0009258174877518e-03
1.8500000000000001e+00 +8.5269054661039299e+00 +0.0000000000000000e+00 +1.8499999967795799e+00 -2.8820890440159435e-02 -5.5309641707556045e-01 +5.0004310126609899e-03
1.8999999999999999e+00 +8.5269002871100401e+00 +0.0000000000000000e+00 +1.8999999965113501e+00 -2.8822287822208807e-02 -5.5310503096884522e-01 +4.9999464773299697e-03
1.9500000000000000e+00 +8.5268949700112007e+00 +0.0000000000000000e+00 +1.9499999962286201e+00 -2.8823699484762960e-02 -5.5311396055920392e-01 +4.9994722643468426e-03
2.0000000000000000e+00 +8.5268895148037700e+00 +0.0000000000000000e+00 +1.9999999959310100e+00 -2.8825125211580201e-02 -5.5312320555978223e-01 +4.9990084265645902e-03
2.0499999999999998e+00 +8.5268839213858900e+00 +0.0000000000000000e+00 +2.0499999956181298e+00 -2.8826564833369796e-02 -5.5313276545980983e-01 +4.9985550168139868e-03
2.1000000000000001e+00 +8.5268781896593300e+00 +0.0000000000000000e+00 +2.0999999952895898e+00 -2.8828018368493691e-02 -5.5314263884992532e-01 +4.9981120878140606e-03
2.1499999999999999e+00 +8.5268723196240899e+00 +0.0000000000000000e+00 +2.1499999949449999e+00 -2.8829485882190135e-02 -5.5315282409541600e-01 +4.9976796922509481e-03
2.2000000000000002e+00 +8.5268663112729008e+00 +0.0000000000000000e+00 +2.1999999945839801e+00 -2.8830967439701372e-02 -5.5316331956163467e-01 +4.9972578828116915e-03
2.2500000000000000e+00 +8.5268601646093902e+00 +0.0000000000000000e+00 +2.2499999942061502e+00 -2.8832463106266602e-02 -5.5317412361386520e-01 +4.9968467121832517e-03
2.2999999999999998e+00 +8.5268538796335598e+00 +0.0000000000000000e+00 +2.2999999938111202e+00 -2.8833972947127719e-02 -5.5318523461742863e-01 +4.9964462330532797e-03
2.3500000000000001e+00 +8.5268474563490599e+00 +0.0000000000000000e+00 +2.3499999933985198e+00 -2.8835497027526472e-02 -5.5319665093763037e-01 +4.9960564981097492e-03
2.3999999999999999e+00 +8.5268408947522403e+00 +0.0000000000000000e+00 +2.3999999929679601e+00 -2.8837035412708937e-02 -5.5320837093983977e-01 +4.9956775600415431e-03
2.4500000000000002e+00 +8.5268341948467405e+00 +0.0000000000000000e+00 +2.4499999925190501e+00 -2.8838588167919760e-02 -5.5322039298938375e-01 +4.9953094715376569e-03
2.5000000000000000e+00 +8.5268273566252901e+00 +0.0000000000000000e+00 +2.4999999920514302e+00 -2.8840155358409340e-02 -5.5323271545167862e-01 +4.9949522852881963e-03
2.5499999999999998e+00 +8.5268203800987994e+00 +0.0000000000000000e+00 +2.5499999915646900e+00 -2.8841737049422663e-02 -5.5324533669201892e-01 +4.9946060539827917e-03
2.6000000000000001e+00 +8.5268132652563509e+00 +0.0000000000000000e+00 +2.5999999910584699e+00 -2.8843333306214816e-02 -5.5325825507586868e-01 +4.9942708303127858e-03
2.6499999999999999e+00 +8.5268060121015896e+00 +0.0000000000000000e+00 +2.6499999905323701e+00 -2.8844944194036951e-02 -5.5327146896859547e-01 +4.9939466669692524e-03
2.7000000000000002e+00 +8.5267986206345103e+00 +0.0000000000000000e+00 +2.6999999899860101e+00 -2.8846569778143427e-02 -5.5328497673560284e-01 +4.9936336166439702e-03
2.7500000000000000e+00 +8.5267910908551094e+00 +0.0000000000000000e+00 +2.7499999894190199e+00 -2.8848210123790487e-02 -5.5329877674230610e-01 +4.9933317320292568e-03
2.7999999999999998e+00 +8.5267834227670392e+00 +0.0000000000000000e+00 +2.7999999888310101e+00 -2.8849865296234810e-02 -5.5331286735410123e-01 +4.9930410658177472e-03
2.8500000000000001e+00 +8.5267756163666508e+00 +0.0000000000000000e+00 +2.8499999882215898e+00 -2.8851535360737961e-02 -5.5332724693644852e-01 +4.9927616707030106e-03
2.8999999999999999e+00 +8.5267676716539391e+00 +0.0000000000000000e+00 +2.8999999875903901e+00 -2.8853220382562095e-02 -5.5334191385479070e-01 +4.9924935993789369e-03
2.9500000000000002e+00 +8.5267595886289200e+00 +0.0000000000000000e+00 +2.9499999869370299e+00 -2.8854920426971478e-02 -5.5335686647457971e-01 +4.9922369045399557e-03
3.0000000000000000e+00 +8.5267513672915793e+00 +0.0000000000000000e+00 +2.9999999862611100e+00 -2.8856635559232593e-02 -5.5337210316127694e-01 +4.9919916388810204e-03
3.0499999999999998e+00 +8.5267430076455604e+00 +0.0000000000000000e+00 +3.0499999855622502e+00 -2.8858365844612703e-02 -5.5338762228032601e-01 +4.9917578550974281e-03
3.1000000000000001e+00 +8.5267345096872305e+00 +0.0000000000000000e+00 +3.0999999848400801e+00 -2.8860111348384229e-02 -5.5340342219723271e-01 +4.9915356058854053e-03
3.1499999999999999e+00 +8.5267258734165807e+00 +0.0000000000000000e+00 +3.1499999840942201e+00 -2.8861872135820567e-02 -5.5341950127748529e-01 +4.9913249439415153e-03
3.2000000000000002e+00 +8.5267170988336094e+00 +0.0000000000000000e+00 +3.1999999833242700e+00 -2.8863648272197541e-02 -5.5343585788658101e-01 +4.9911259219628714e-03
3.2500000000000000e+00 +8.5267081859419704e+00 +0.0000000000000000e+00 +3.2499999825298600e+00 -2.8865439822792043e-02 -5.5345249038999800e-01 +4.9909385926469171e-03
3.2999999999999998e+00 +8.5266991347380099e+00 +0.0000000000000000e+00 +3.2999999817106000e+00 -2.8867246852886389e-02 -5.5346939715327770e-01 +4.9907630086920432e-03
3.3500000000000001e+00 +8.5266899452181004e+00 +0.0000000000000000e+00 +3.3499999808661101e+00 -2.8869069427765515e-02 -5.5348657654196820e-01 +4.9905992227971844e-03
3.3999999999999999e+00 +8.5266806173895002e+00 +0.0000000000000000e+00 +3.3999999799960099e+00 -2.8870907612712823e-02 -5.5350402692154721e-01 +4.9904472876612259e-03
3.4500000000000002e+00 +8.5266711512522306e+00 +0.0000000000000000e+00 +3.4499999790999101e+00 -2.8872761473017289e-02 -5.5352174665755327e-01 +4.9903072559839990e-03
3.5000000000000000e+00 +8.5266615468026394e+00 +0.0000000000000000e+00 +3.4999999781774398e+00 -2.8874631073972153e-02 -5.5353973411555957e-01 +4.9901791804660839e-03
3.5499999999999998e+00 +8.5266518040407409e+00 +0.0000000000000000e+00 +3.5499999772282100e+00 -2.8876516480872111e-02 -5.5355798766112074e-01 +4.9900631138084153e-03
3.6000000000000001e+00 +8.5266419229665207e+00 +0.0000000000000000e+00 +3.5999999762518402e+00 -2.8878417759014844e-02 -5.5357650565979888e-01 +4.9899591087124787e-03
3.6499999999999999e+00 +8.5266319035799807e+00 +0.0000000000000000e+00 +3.6499999752479400e+00 -2.8880334973701034e-02 -5.5359528647716416e-01 +4.9898672178803147e-03
3.6999999999999900e+00 +8.5266217458847695e+00 +0.0000000000000000e+00 +3.6999999742161398e+00 -2.8882268190233026e-02 -5.5361432847876657e-01 +4.9897874940143258e-03
3.7499999999999898e+00 +8.5266114498736005e+00 +0.0000000000000000e+00 +3.7499999731560498e+00 -2.8884217473920618e-02 -5.5363363003024491e-01 +4.9897199898180714e-03
3.7999999999999901e+00 +8.5266010155537497e+00 +0.0000000000000000e+00 +3.7999999720672801e+00 -2.8886182890071107e-02 -5.5365318949713738e-01 +4.9896647579948687e-03
3.8499999999999899e+00 +8.5265904429179500e+00 +0.0000000000000000e+00 +3.8499999709494599e+00 -2.8888164504000748e-02 -5.5367300524509688e-01 +4.9896218512494013e-03
3.8999999999999901e+00 +8.5265797319771099e+00 +0.0000000000000000e+00 +3.8999999698022001e+00 -2.8890162381022072e-02 -5.5369307563964876e-01 +4.9895913222859148e-03
3.9499999999999900e+00 +8.5265688827203103e+00 +0.0000000000000000e+00 +3.9499999686251202e+00 -2.8892176586459553e-02 -5.5371339904648698e-01 +4.9895732238104231e-03
3.9999999999999898e+00 +8.5265578951548395e+00 +0.0000000000000000e+00 +3.9999999674178399e+00 -2.8894207185633985e-02 -5.5373397383117717e-01 +4.9895676085285031e-03
4.0499999999999901e+00 +8.5265467692734092e+00 +0.0000000000000000e+00 +4.0499999661799704e+00 -2.8896254194503087e-02 -5.5375479822052998e-01 +4.9895745180398680e-03
4.0999999999999899e+00 +8.5265355050833005e+00 +0.0000000000000000e+00 +4.0999999649111301e+00 -2.8898317431531411e-02 -5.5377586988577543e-01 +4.9895939495149828e-03
4.1499999999999897e+00 +8.5265241025808791e+00 +0.0000000000000000e+00 +4.1499999636109504e+00 -2.8900396665815137e-02 -5.5379718635935382e-01 +4.9896258890182567e-03
4.1999999999999904e+00 +8.5265125617697795e+00 +0.0000000000000000e+00 +4.1999999622790298e+00 -2.8902491666447188e-02 -5.5381874517365381e-01 +4.9896703226143327e-03
4.2499999999999902e+00 +8.5265008826427202e+00 +0.0000000000000000e+00 +4.2499999609149901e+00 -2.8904602202524231e-02 -5.5384054386114379e-01 +4.9897272363690938e-03
4.2999999999999901e+00 +8.5264890652069898e+00 +0.0000000000000000e+00 +4.2999999595184599e+00 -2.8906728043136692e-02 -5.5386257995418609e-01 +4.9897966163482601e-03
4.3499999999999899e+00 +8.5264771094589396e+00 +0.0000000000000000e+00 +4.3499999580890396e+00 -2.8908868957378604e-02 -5.5388485098522178e-01 +4.9898784486187998e-03
4.3999999999999897e+00 +8.5264650153985695e+00 +0.0000000000000000e+00 +4.3999999566263703e+00 -2.8911024714341964e-02 -5.5390735448666550e-01 +4.9899727192481268e-03
4.4499999999999904e+00 +8.5264527830295300e+00 +0.0000000000000000e+00 +4.4499999551300400e+00 -2.8913195083116537e-02 -5.5393008799090382e-01 +4.9900794143041124e-03
4.4999999999999902e+00 +8.5264404123481707e+00 +0.0000000000000000e+00 +4.4999999535996897e+00 -2.8915379832794200e-02 -5.5395304903037634e-01 +4.9901985198556754e-03
4.5499999999999901e+00 +8.5264279033544899e+00 +0.0000000000000000e+00 +4.5499999520349199e+00 -2.8917578732464498e-02 -5.5397623513749328e-01 +4.9903300219721978e-03
4.5999999999999899e+00 +8.5264152560448601e+00 +0.0000000000000000e+00 +4.5999999504353601e+00 -2.8919791551217520e-02 -5.5399964384469091e-01 +4.9904739067239230e-03
4.6499999999999897e+00 +8.5264024704301793e+00 +0.0000000000000000e+00 +4.6499999488006196e+00 -2.8922018058136684e-02 -5.5402327268429641e-01 +4.9906301601809616e-03
4.6999999999999904e+00 +8.5263895464995603e+00 +0.0000000000000000e+00 +4.6999999471303298e+00 -2.8924258022312889e-02 -5.5404711918879423e-01 +4.9907987684152900e-03
4.7499999999999902e+00 +8.5263764842602505e+00 +0.0000000000000000e+00 +4.7499999454240900e+00 -2.8926511212828892e-02 -5.5407118089053375e-01 +4.9909797174985575e-03
4.7999999999999901e+00 +8.5263632837050007e+00 +0.0000000000000000e+00 +4.7999999436815299e+00 -2.8928777398771945e-02 -5.5409545532196758e-01 +4.9911729935038958e-03
4.8499999999999899e+00 +8.5263499448447000e+00 +0.0000000000000000e+00 +4.8499999419022597e+00 -2.8931056349220996e-02 -5.5411994001541176e-01 +4.9913785825041095e-03
4.8999999999999897e+00 +8.5263364676684397e+00 +0.0000000000000000e+00 +4.8999999400859000e+00 -2.8933347833262266e-02 -5.5414463250333867e-01 +4.9915964705738898e-03
4.9499999999999904e+00 +8.5263228521798702e+00 +0.0000000000000000e+00 +4.9499999382320699e+00 -2.8935651619974977e-02 -5.5416953031811134e-01 +4.9918266437878117e-03
4.9999999999999902e+00 +8.5263090983826295e+00 +0.0000000000000000e+00 +4.9999999363403900e+00 -2.8937967478436948e-02 -5.5419463099208766e-01 +4.9920690882211405e-03
5.0499999999999901e+00 +8.5262952059529198e+00 +0.0000000000000000e+00 +5.0499999344103799e+00 -2.8940295177852925e-02 -5.5421993206002951e-01 +4.9923237899678974e-03
5.0999999999999899e+00 +8.5262811745706095e+00 +0.0000000000000000e+00 +5.0999999324415599e+00 -2.8942634487424835e-02 -5.5424543105666957e-01 +4.9925907351226293e-03
5.1499999999999897e+00 +8.5262670042357094e+00 +0.0000000000000000e+00 +5.1499999304335597e+00 -2.8944985176227671e-02 -5.5427112551438129e-01 +4.9928699097629443e-03
5.1999999999999904e+00 +8.5262526949518396e+00 +0.0000000000000000e+00 +5.1999999283859903e+00 -2.8947347013333381e-02 -5.5429701296550660e-01 +4.9931612999669656e-03
5.2499999999999902e+00 +8.5262382467153692e+00 +0.0000000000000000e+00 +5.2499999262984600e+00 -2.8949719767815109e-02 -5.5432309094243537e-01 +4.9934648918139191e-03
5.2999999999999901e+00 +8.5262236595299292e+00 +0.0000000000000000e+00 +5.2999999241705797e+00 -2.8952103208741406e-02 -5.5434935697749788e-01 +4.9937806713833471e-03
5.3499999999999899e+00 +8.5262089333882596e+00 +0.0000000000000000e+00 +5.3499999220019703e+00 -2.8954497105183330e-02 -5.5437580860309865e-01 +4.9941086247561103e-03
5.3999999999999897e+00 +8.5261940682976292e+00 +0.0000000000000000e+00 +5.3999999197922497e+00 -2.8956901226204392e-02 -5.5440244335152944e-01 +4.9944487380129870e-03
5.4499999999999904e+00 +8.5261790642507496e+00 +0.0000000000000000e+00 +5.4499999175410201e+00 -2.8959315340871906e-02 -5.5442925875518156e-01 +4.9948009972362838e-03
5.4999999999999902e+00 +8.5261639212585596e+00 +0.0000000000000000e+00 +5.4999999152479004e+00 -2.8961739218244104e-02 -5.5445625234630613e-01 +4.9951653885080280e-03
5.5499999999999901e+00 +8.5261486393137602e+00 +0.0000000000000000e+00 +5.5499999129125097e+00 -2.8964172627384314e-02 -5.5448342165728071e-01 +4.9955418979119835e-03
5.5999999999999899e+00 +8.5261332184127205e+00 +0.0000000000000000e+00 +5.5999999105344500e+00 -2.8966615337352397e-02 -5.5451076422044920e-01 +4.9959305115324561e-03
5.6499999999999897e+00 +8.5261176585627307e+00 +0.0000000000000000e+00 +5.6499999081133403e+00 -2.8969067117201760e-02 -5.5453827756806606e-01 +4.9963312154538740e-03
5.6999999999999904e+00 +8.5261019597637606e+00 +0.0000000000000000e+00 +5.6999999056488004e+00 -2.8971527735986508e-02 -5.5456595923243235e-01 +4.9967439957618173e-03
5.7499999999999902e+00 +8.5260861220122006e+00 +0.0000000000000000e+00 +5.7499999031404396e+00 -2.8973996962759891e-02 -5.5459380674586667e-01 +4.9971688385428061e-03
5.7999999999999901e+00 +8.5260701453080401e+00 +0.0000000000000000e+00 +5.7999999005878804e+00 -2.8976474566571462e-02 -5.5462181764065333e-01 +4.9976057298839176e-03
5.8499999999999899e+00 +8.5260540296512808e+00 +0.0000000000000000e+00 +5.8499998979907204e+00 -2.8978960316468384e-02 -5.5464998944906674e-01 +4.9980546558729732e-03
5.8999999999999897e+00 +8.5260377750455500e+00 +0.0000000000000000e+00 +5.8999998953485804e+00 -2.8981453981493953e-02 -5.5467831970334536e-01 +4.9985156025983534e-03
