# trajectory
# s[mm] rx[mm] ry[mm] rz[mm] px[rad] py[rad] pz[rad]
0.0000000000000000e+00 +8.2850000000000001e+00 +0.0000000000000000e+00 +0.0000000000000000e+00 +0.0000000000000000e+00 +0.0000000000000000e+00 +1.0000000000000000e+00
5.0000000000000003e-02 +8.2849999310400406e+00 +0.0000000000000000e+00 +4.9999999999936595e-02 -2.7583982043607136e-06 +0.0000000000000000e+00 +9.9999999999619560e-01
1.0000000000000001e-01 +8.2849997241601798e+00 +0.0000000000000000e+00 +9.9999999999492745e-02 -5.5167963505199291e-06 +0.0000000000000000e+00 +9.9999999998478251e-01
1.5000000000000002e-01 +8.2849993793603733e+00 +0.0000000000000000e+00 +1.4999999999828803e-01 -8.2751964106997274e-06 +0.0000000000000000e+00 +9.9999999996576061e-01
2.0000000000000001e-01 +8.2849988966404737e+00 +0.0000000000000000e+00 +1.9999999999594198e-01 -1.1033600352870332e-05 +0.0000000000000000e+00 +9.9999999993912991e-01
2.5000000000000000e-01 +8.2849982760002394e+00 +0.0000000000000000e+00 +2.4999999999207417e-01 -1.3792010140750198e-05 +0.0000000000000000e+00 +9.9999999990489030e-01
2.9999999999999999e-01 +8.2849975174393293e+00 +0.0000000000000000e+00 +2.9999999998630417e-01 -1.6550427733806093e-05 +0.0000000000000000e+00 +9.9999999986304178e-01
3.4999999999999998e-01 +8.2849966209573029e+00 +0.0000000000000000e+00 +3.4999999997825154e-01 -1.9308855087253190e-05 +0.0000000000000000e+00 +9.9999999981358412e-01
3.9999999999999997e-01 +8.2849955865536256e+00 +0.0000000000000000e+00 +3.9999999996753577e-01 -2.2067294152055145e-05 +0.0000000000000000e+00 +9.9999999975651732e-01
4.4999999999999996e-01 +8.2849944142276613e+00 +0.0000000000000000e+00 +4.4999999995377643e-01 -2.4825746874924181e-05 +0.0000000000000000e+00 +9.9999999969184117e-01
4.9999999999999994e-01 +8.2849931039786782e+00 +0.0000000000000000e+00 +4.9999999993659305e-01 -2.7584215198321181e-05 +0.0000000000000000e+00 +9.9999999961955555e-01
5.4999999999999993e-01 +8.2849916558058485e+00 +0.0000000000000000e+00 +5.4999999991560511e-01 -3.0342701060455763e-05 +0.0000000000000000e+00 +9.9999999953966023e-01
5.9999999999999998e-01 +8.2849900697082468e+00 +0.0000000000000000e+00 +5.9999999989043218e-01 -3.3101206395286374e-05 +0.0000000000000000e+00 +9.9999999945215501e-01
6.5000000000000002e-01 +8.2849883456848517e+00 +0.0000000000000000e+00 +6.4999999986069379e-01 -3.5859733132520360e-05 +0.0000000000000000e+00 +9.9999999935703976e-01
7.0000000000000007e-01 +8.2849864837345439e+00 +0.0000000000000000e+00 +6.9999999982600936e-01 -3.8618283197614070e-05 +0.0000000000000000e+00 +9.9999999925431404e-01
7.5000000000000011e-01 +8.2849844838561104e+00 +0.0000000000000000e+00 +7.4999999978599841e-01 -4.1376858511772928e-05 +0.0000000000000000e+00 +9.9999999914397775e-01
8.0000000000000016e-01 +8.2849823460482401e+00 +0.0000000000000000e+00 +7.9999999974028035e-01 -4.4135460991951518e-05 +0.0000000000000000e+00 +9.9999999902603054e-01
8.5000000000000020e-01 +8.2849800703095262e+00 +0.0000000000000000e+00 +8.4999999968847462e-01 -4.6894092550853661e-05 +0.0000000000000000e+00 +9.9999999890047209e-01
9.0000000000000024e-01 +8.2849776566384676e+00 +0.0000000000000000e+00 +8.9999999963020072e-01 -4.9652755096932516e-05 +0.0000000000000000e+00 +9.9999999876730195e-01
9.5000000000000029e-01 +8.2849751050334675e+00 +0.0000000000000000e+00 +9.4999999956507797e-01 -5.2411450534390648e-05 +0.0000000000000000e+00 +9.9999999862651989e-01
1.0000000000000002e+00 +8.2849724154928346e+00 +0.0000000000000000e+00 +9.9999999949272578e-01 -5.5170180763180115e-05 +0.0000000000000000e+00 +9.9999999847812560e-01
1.0500000000000003e+00 +8.2849695880147802e+00 +0.0000000000000000e+00 +1.0499999994127636e+00 -5.7928947679002551e-05 +0.0000000000000000e+00 +9.9999999832211850e-01
1.1000000000000003e+00 +8.2849666225974232e+00 +0.0000000000000000e+00 +1.0999999993248106e+00 -6.0687753173309260e-05 +0.0000000000000000e+00 +9.9999999815849827e-01
1.1500000000000004e+00 +8.2849635192387883e+00 +0.0000000000000000e+00 +1.1499999992284864e+00 -6.3446599133301282e-05 +0.0000000000000000e+00 +9.9999999798726447e-01
1.2000000000000004e+00 +8.2849602779368041e+00 +0.0000000000000000e+00 +1.1999999991234100e+00 -6.6205487441929492e-05 +0.0000000000000000e+00 +9.9999999780841664e-01
1.2500000000000004e+00 +8.2849568986893072e+00 +0.0000000000000000e+00 +1.2499999990092010e+00 -6.8964419977894664e-05 +0.0000000000000000e+00 +9.9999999762195435e-01
1.3000000000000005e+00 +8.2849533814940379e+00 +0.0000000000000000e+00 +1.2999999988854785e+00 -7.1723398615647561e-05 +0.0000000000000000e+00 +9.9999999742787704e-01
1.3500000000000005e+00 +8.2849497263486462e+00 +0.0000000000000000e+00 +1.3499999987518616e+00 -7.4482425225389035e-05 +0.0000000000000000e+00 +9.9999999722618416e-01
1.4000000000000006e+00 +8.2849459332506861e+00 +0.0000000000000000e+00 +1.3999999986079699e+00 -7.7241501673070071e-05 +0.0000000000000000e+00 +9.9999999701687525e-01
1.4500000000000006e+00 +8.2849420021976172e+00 +0.0000000000000000e+00 +1.4499999984534222e+00 -8.0000629820391918e-05 +0.0000000000000000e+00 +9.9999999679994966e-01
1.5000000000000007e+00 +8.2849379331868107e+00 +0.0000000000000000e+00 +1.4999999982878378e+00 -8.2759811524806134e-05 +0.0000000000000000e+00 +9.9999999657540684e-01
1.5500000000000007e+00 +8.2849337262155416e+00 +0.0000000000000000e+00 +1.5499999981108359e+00 -8.5519048639514676e-05 +0.0000000000000000e+00 +9.9999999634324621e-01
1.6000000000000008e+00 +8.2849293812809925e+00 +0.0000000000000000e+00 +1.5999999979220354e+00 -8.8278343013469974e-05 +0.0000000000000000e+00 +9.9999999610346713e-01
1.6500000000000008e+00 +8.2849248983802557e+00 +0.0000000000000000e+00 +1.6499999977210555e+00 -9.1037696491375048e-05 +0.0000000000000000e+00 +9.9999999585606891e-01
1.7000000000000008e+00 +8.2849202775103290e+00 +0.0000000000000000e+00 +1.6999999975075153e+00 -9.3797110913683535e-05 +0.0000000000000000e+00 +9.9999999560105102e-01
1.7500000000000009e+00 +8.2849155186681180e+00 +0.0000000000000000e+00 +1.7499999972810336e+00 -9.6556588116599828e-05 +0.0000000000000000e+00 +9.9999999533841266e-01
1.8000000000000009e+00 +8.2849106218504396e+00 +0.0000000000000000e+00 +1.7999999970412295e+00 -9.9316129932079103e-05 +0.0000000000000000e+00 +9.9999999506815318e-01
1.8500000000000010e+00 +8.2849055870540180e+00 +0.0000000000000000e+00 +1.8499999967877219e+00 -1.0207573818782745e-04 +0.0000000000000000e+00 +9.9999999479027180e-01
1.9000000000000010e+00 +8.2849004142754836e+00 +0.0000000000000000e+00 +1.8999999965201295e+00 -1.0483541470730190e-04 +0.0000000000000000e+00 +9.9999999450476784e-01
1.9500000000000011e+00 +8.2848951035113796e+00 +0.0000000000000000e+00 +1.9499999962380714e+00 -1.0759516130971056e-04 +0.0000000000000000e+00 +9.9999999421164054e-01
2.0000000000000009e+00 +8.2848896547581550e+00 +0.0000000000000000e+00 +1.9999999959411665e+00 -1.1035497981001266e-04 +0.0000000000000000e+00 +9.9999999391088912e-01
2.0500000000000007e+00 +8.2848840680121700e+00 +0.0000000000000000e+00 +2.0499999956290331e+00 -1.1311487201866225e-04 +0.0000000000000000e+00 +9.9999999360251279e-01
2.1000000000000005e+00 +8.2848783432696944e+00 +0.0000000000000000e+00 +2.0999999953012907e+00 -1.1587483973878816e-04 +0.0000000000000000e+00 +9.9999999328651068e-01
2.1500000000000004e+00 +8.2848724805269072e+00 +0.0000000000000000e+00 +2.1499999949575574e+00 -1.1863488476337388e-04 +0.0000000000000000e+00 +9.9999999296288200e-01
2.2000000000000002e+00 +8.2848664797799003e+00 +0.0000000000000000e+00 +2.1999999945974520e+00 -1.2139500887500128e-04 +0.0000000000000000e+00 +9.9999999263162587e-01
2.2500000000000000e+00 +8.2848603410246735e+00 +0.0000000000000000e+00 +2.2499999942205928e+00 -1.2415521384585062e-04 +0.0000000000000000e+00 +9.9999999229274139e-01
2.2999999999999998e+00 +8.2848540642571393e+00 +0.0000000000000000e+00 +2.2999999938265989e+00 -1.2691550143770073e-04 +0.0000000000000000e+00 +9.9999999194622768e-01
2.3499999999999996e+00 +8.2848476494731234e+00 +0.0000000000000000e+00 +2.3499999934150884e+00 -1.2967587340192893e-04 +0.0000000000000000e+00 +9.9999999159208386e-01
2.3999999999999995e+00 +8.2848410966683641e+00 +0.0000000000000000e+00 +2.3999999929856801e+00 -1.3243633147951115e-04 +0.0000000000000000e+00 +9.9999999123030903e-01
2.4499999999999993e+00 +8.2848344058385113e+00 +0.0000000000000000e+00 +2.4499999925379923e+00 -1.3519687740102206e-04 +0.0000000000000000e+00 +9.9999999086090219e-01
2.4999999999999991e+00 +8.2848275769791311e+00 +0.0000000000000000e+00 +2.4999999920716434e+00 -1.3795751288663504e-04 +0.0000000000000000e+00 +9.9999999048386234e-01
2.5499999999999989e+00 +8.2848206100857009e+00 +0.0000000000000000e+00 +2.5499999915862515e+00 -1.4071823964612227e-04 +0.0000000000000000e+00 +9.9999999009918850e-01
2.5999999999999988e+00 +8.2848135051536165e+00 +0.0000000000000000e+00 +2.5999999910814351e+00 -1.4347905937885479e-04 +0.0000000000000000e+00 +9.9999998970687975e-01
2.6499999999999986e+00 +8.2848062621781864e+00 +0.0000000000000000e+00 +2.6499999905568123e+00 -1.4623997377380255e-04 +0.0000000000000000e+00 +9.9999998930693501e-01
2.6999999999999984e+00 +8.2847988811546340e+00 +0.0000000000000000e+00 +2.6999999900120013e+00 -1.4900098450953449e-04 +0.0000000000000000e+00 +9.9999998889935326e-01
2.7499999999999982e+00 +8.2847913620781011e+00 +0.0000000000000000e+00 +2.7499999894466205e+00 -1.5176209325421856e-04 +0.0000000000000000e+00 +9.9999998848413352e-01
2.7999999999999980e+00 +8.2847837049436475e+00 +0.0000000000000000e+00 +2.7999999888602876e+00 -1.5452330166562181e-04 +0.0000000000000000e+00 +9.9999998806127466e-01
2.8499999999999979e+00 +8.2847759097462461e+00 +0.0000000000000000e+00 +2.8499999882526206e+00 -1.5728461139111042e-04 +0.0000000000000000e+00 +9.9999998763077558e-01
2.8999999999999977e+00 +8.2847679764807918e+00 +0.0000000000000000e+00 +2.8999999876232376e+00 -1.6004602406764976e-04 +0.0000000000000000e+00 +9.9999998719263516e-01
2.9499999999999975e+00 +8.2847599051420957e+00 +0.0000000000000000e+00 +2.9499999869717568e+00 -1.6280754132180447e-04 +0.0000000000000000e+00 +9.9999998674685231e-01
2.9999999999999973e+00 +8.2847516957248892e+00 +0.0000000000000000e+00 +2.9999999862977957e+00 -1.6556916476973842e-04 +0.0000000000000000e+00 +9.9999998629342590e-01
3.0499999999999972e+00 +8.2847433482238220e+00 +0.0000000000000000e+00 +3.0499999856009721e+00 -1.6833089601721489e-04 +0.0000000000000000e+00 +9.9999998583235483e-01
3.0999999999999970e+00 +8.2847348626334636e+00 +0.0000000000000000e+00 +3.0999999848809039e+00 -1.7109273665959652e-04 +0.0000000000000000e+00 +9.9999998536363788e-01
3.1499999999999968e+00 +8.2847262389483056e+00 +0.0000000000000000e+00 +3.1499999841372084e+00 -1.7385468828184537e-04 +0.0000000000000000e+00 +9.9999998488727382e-01
3.1999999999999966e+00 +8.2847174771627596e+00 +0.0000000000000000e+00 +3.1999999833695036e+00 -1.7661675245852305e-04 +0.0000000000000000e+00 +9.9999998440326154e-01
3.2499999999999964e+00 +8.2847085772711573e+00 +0.0000000000000000e+00 +3.2499999825774069e+00 -1.7937893075379067e-04 +0.0000000000000000e+00 +9.9999998391159972e-01
3.2999999999999963e+00 +8.2846995392677556e+00 +0.0000000000000000e+00 +3.2999999817605361e+00 -1.8214122472140891e-04 +0.0000000000000000e+00 +9.9999998341228724e-01
3.3499999999999961e+00 +8.2846903631467317e+00 +0.0000000000000000e+00 +3.3499999809185081e+00 -1.8490363590473809e-04 +0.0000000000000000e+00 +9.9999998290532277e-01
3.3999999999999959e+00 +8.2846810489021863e+00 +0.0000000000000000e+00 +3.3999999800509406e+00 -1.8766616583673818e-04 +0.0000000000000000e+00 +9.9999998239070520e-01
3.4499999999999957e+00 +8.2846715965281437e+00 +0.0000000000000000e+00 +3.4499999791574512e+00 -1.9042881603996892e-04 +0.0000000000000000e+00 +9.9999998186843309e-01
3.4999999999999956e+00 +8.2846620060185518e+00 +0.0000000000000000e+00 +3.4999999782376565e+00 -1.9319158802658969e-04 +0.0000000000000000e+00 +9.9999998133850521e-01
3.5499999999999954e+00 +8.2846522773672859e+00 +0.0000000000000000e+00 +3.5499999772911739e+00 -1.9595448329835978e-04 +0.0000000000000000e+00 +9.9999998080092023e-01
3.5999999999999952e+00 +8.2846424105681429e+00 +0.0000000000000000e+00 +3.5999999763176209e+00 -1.9871750334663824e-04 +0.0000000000000000e+00 +9.9999998025567693e-01
3.6499999999999950e+00 +8.2846324056148468e+00 +0.0000000000000000e+00 +3.6499999753166139e+00 -2.0148064965238403e-04 +0.0000000000000000e+00 +9.9999997970277388e-01
3.6999999999999948e+00 +8.2846222625010491e+00 +0.0000000000000000e+00 +3.6999999742877705e+00 -2.0424392368615599e-04 +0.0000000000000000e+00 +9.9999997914220973e-01
3.7499999999999947e+00 +8.2846119812203263e+00 +0.0000000000000000e+00 +3.7499999732307074e+00 -2.0700732690811296e-04 +0.0000000000000000e+00 +9.9999997857398315e-01
3.7999999999999945e+00 +8.2846015617661823e+00 +0.0000000000000000e+00 +3.7999999721450415e+00 -2.0977086076801369e-04 +0.0000000000000000e+00 +9.9999997799809281e-01
3.8499999999999943e+00 +8.2845910041320483e+00 +0.0000000000000000e+00 +3.8499999710303894e+00 -2.1253452670521699e-04 +0.0000000000000000e+00 +9.9999997741453728e-01
3.8999999999999941e+00 +8.2845803083112859e+00 +0.0000000000000000e+00 +3.8999999698863674e+00 -2.1529832614868171e-04 +0.0000000000000000e+00 +9.9999997682331521e-01
3.9499999999999940e+00 +8.2845694742971840e+00 +0.0000000000000000e+00 +3.9499999687125928e+00 -2.1806226051696679e-04 +0.0000000000000000e+00 +9.9999997622442505e-01
3.9999999999999938e+00 +8.2845585020829624e+00 +0.0000000000000000e+00 +3.9999999675086819e+00 -2.2082633121823131e-04 +0.0000000000000000e+00 +9.9999997561786547e-01
4.0499999999999936e+00 +8.2845473916617678e+00 +0.0000000000000000e+00 +4.0499999662742514e+00 -2.2359053965008156e-04 +0.0000000000000000e+00 +9.9999997500363502e-01
4.0999999999999934e+00 +8.2845361430266795e+00 +0.0000000000000000e+00 +4.0999999650089176e+00 -2.2635488719788922e-04 +0.0000000000000000e+00 +9.9999997438173227e-01
4.1499999999999932e+00 +8.2845247561707076e+00 +0.0000000000000000e+00 +4.1499999637122968e+00 -2.2911937523310954e-04 +0.0000000000000000e+00 +9.9999997375215566e-01
4.1999999999999931e+00 +8.2845132310867928e+00 +0.0000000000000000e+00 +4.1999999623840054e+00 -2.3188400511312839e-04 +0.0000000000000000e+00 +9.9999997311490374e-01
4.2499999999999929e+00 +8.2845015677678102e+00 +0.0000000000000000e+00 +4.2499999610236596e+00 -2.3464877818126230e-04 +0.0000000000000000e+00 +9.9999997246997507e-01
4.2999999999999927e+00 +8.2844897662065673e+00 +0.0000000000000000e+00 +4.2999999596308749e+00 -2.3741369576675846e-04 +0.0000000000000000e+00 +9.9999997181736811e-01
4.3499999999999925e+00 +8.2844778263958041e+00 +0.0000000000000000e+00 +4.3499999582052684e+00 -2.4017875918479469e-04 +0.0000000000000000e+00 +9.9999997115708139e-01
4.3999999999999924e+00 +8.2844657483281967e+00 +0.0000000000000000e+00 +4.3999999567464556e+00 -2.4294396973647959e-04 +0.0000000000000000e+00 +9.9999997048911338e-01
4.4499999999999922e+00 +8.2844535319963573e+00 +0.0000000000000000e+00 +4.4499999552540519e+00 -2.4570932870885239e-04 +0.0000000000000000e+00 +9.9999996981346251e-01
4.4999999999999920e+00 +8.2844411773928321e+00 +0.0000000000000000e+00 +4.4999999537276736e+00 -2.4847483737488302e-04 +0.0000000000000000e+00 +9.9999996913012723e-01
4.5499999999999918e+00 +8.2844286845101038e+00 +0.0000000000000000e+00 +4.5499999521669361e+00 -2.5124049699347211e-04 +0.0000000000000000e+00 +9.9999996843910599e-01
4.5999999999999917e+00 +8.2844160533405962e+00 +0.0000000000000000e+00 +4.5999999505714557e+00 -2.5400630880945097e-04 +0.0000000000000000e+00 +9.9999996774039712e-01
4.6499999999999915e+00 +8.2844032838766672e+00 +0.0000000000000000e+00 +4.6499999489408479e+00 -2.5677227405358164e-04 +0.0000000000000000e+00 +9.9999996703399918e-01
4.6999999999999913e+00 +8.2843903761106148e+00 +0.0000000000000000e+00 +4.6999999472747280e+00 -2.5953839394255687e-04 +0.0000000000000000e+00 +9.9999996631991050e-01
4.7499999999999911e+00 +8.2843773300346761e+00 +0.0000000000000000e+00 +4.7499999455727107e+00 -2.6230466967900007e-04 +0.0000000000000000e+00 +9.9999996559812954e-01
4.7999999999999909e+00 +8.2843641456410300e+00 +0.0000000000000000e+00 +4.7999999438344121e+00 -2.6507110245146541e-04 +0.0000000000000000e+00 +9.9999996486865472e-01
4.8499999999999908e+00 +8.2843508229217946e+00 +0.0000000000000000e+00 +4.8499999420594477e+00 -2.6783769343443774e-04 +0.0000000000000000e+00 +9.9999996413148440e-01
4.8999999999999906e+00 +8.2843373618690297e+00 +0.0000000000000000e+00 +4.8999999402474321e+00 -2.7060444378833255e-04 +0.0000000000000000e+00 +9.9999996338661690e-01
4.9499999999999904e+00 +8.2843237624747399e+00 +0.0000000000000000e+00 +4.9499999383979807e+00 -2.7337135465949606e-04 +0.0000000000000000e+00 +9.9999996263405055e-01
4.9999999999999902e+00 +8.2843100247308694e+00 +0.0000000000000000e+00 +4.9999999365107088e+00 -2.7613842718020515e-04 +0.0000000000000000e+00 +9.9999996187378382e-01
5.0499999999999901e+00 +8.2842961486293092e+00 +0.0000000000000000e+00 +5.0499999345852311e+00 -2.7890566246866735e-04 +0.0000000000000000e+00 +9.9999996110581502e-01
5.0999999999999899e+00 +8.2842821341618915e+00 +0.0000000000000000e+00 +5.0999999326211620e+00 -2.8167306162902087e-04 +0.0000000000000000e+00 +9.9999996033014249e-01
5.1499999999999897e+00 +8.2842679813203972e+00 +0.0000000000000000e+00 +5.1499999306181170e+00 -2.8444062575133449e-04 +0.0000000000000000e+00 +9.9999995954676446e-01
5.1999999999999895e+00 +8.2842536900965502e+00 +0.0000000000000000e+00 +5.1999999285757106e+00 -2.8720835591160770e-04 +0.0000000000000000e+00 +9.9999995875567937e-01
5.2499999999999893e+00 +8.2842392604820212e+00 +0.0000000000000000e+00 +5.2499999264935564e+00 -2.8997625317177055e-04 +0.0000000000000000e+00 +9.9999995795688545e-01
5.2999999999999892e+00 +8.2842246924684311e+00 +0.0000000000000000e+00 +5.2999999243712699e+00 -2.9274431857968369e-04 +0.0000000000000000e+00 +9.9999995715038115e-01
5.3499999999999890e+00 +8.2842099860473439e+00 +0.0000000000000000e+00 +5.3499999222084655e+00 -2.9551255316913837e-04 +0.0000000000000000e+00 +9.9999995633616456e-01
5.3999999999999888e+00 +8.2841951412102777e+00 +0.0000000000000000e+00 +5.3999999200047579e+00 -2.9828095795985635e-04 +0.0000000000000000e+00 +9.9999995551423415e-01
5.4499999999999886e+00 +8.2841801579486951e+00 +0.0000000000000000e+00 +5.4499999177597607e+00 -3.0104953395749000e-04 +0.0000000000000000e+00 +9.9999995468458813e-01
5.4999999999999885e+00 +8.2841650362540111e+00 +0.0000000000000000e+00 +5.4999999154730883e+00 -3.0381828215362211e-04 +0.0000000000000000e+00 +9.9999995384722473e-01
5.5499999999999883e+00 +8.2841497761175926e+00 +0.0000000000000000e+00 +5.5499999131443545e+00 -3.0658720352576599e-04 +0.0000000000000000e+00 +9.9999995300214228e-01
5.5999999999999881e+00 +8.2841343775307568e+00 +0.0000000000000000e+00 +5.5999999107731737e+00 -3.0935629903736545e-04 +0.0000000000000000e+00 +9.9999995214933901e-01
5.6499999999999879e+00 +8.2841188404847710e+00 +0.0000000000000000e+00 +5.6499999083591597e+00 -3.1212556963779474e-04 +0.0000000000000000e+00 +9.9999995128881325e-01
5.6999999999999877e+00 +8.2841031649708583e+00 +0.0000000000000000e+00 +5.6999999059019260e+00 -3.1489501626235842e-04 +0.0000000000000000e+00 +9.9999995042056322e-01
5.7499999999999876e+00 +8.2840873509801956e+00 +0.0000000000000000e+00 +5.7499999034010871e+00 -3.1766463983229153e-04 +0.0000000000000000e+00 +9.9999994954458715e-01
5.7999999999999874e+00 +8.2840713985039116e+00 +0.0000000000000000e+00 +5.7999999008562559e+00 -3.2043444125475943e-04 +0.0000000000000000e+00 +9.9999994866088326e-01
5.8499999999999872e+00 +8.2840553075330909e+00 +0.0000000000000000e+00 +5.8499998982670469e+00 -3.2320442142285777e-04 +0.0000000000000000e+00 +9.9999994776944978e-01
5.8999999999999870e+00 +8.2840390780587754e+00 +0.0000000000000000e+00 +5.8999998956330728e+00 -3.2597458121561246e-04 +0.0000000000000000e+00 +9.9999994687028493e-01
