# multipoles
# s[mm] polynom_b[n=0][T/m^n] polynom_b[n=1][T/m^n] polynom_b[n=2][T/m^n] polynom_b[n=3][T/m^n] polynom_b[n=4][T/m^n] polynom_b[n=5][T/m^n] polynom_b[n=6][T/m^n] 
+0.0000000000000000e+00 -5.5123991638998482e-01 +7.1824004178687781e+00 +6.0637151935419045e+00 -2.6335881903556391e+01 +2.3269811018798200e+03 -1.5213757779839603e+05 -4.5979217329725651e+06 
+5.0000000000000003e-02 -5.5124010152107894e-01 +7.1824477867185754e+00 +6.0655391338502076e+00 -2.6154816299563336e+01 +2.2680915957752377e+03 -1.5371656055022511e+05 -4.3062427095200019e+06 
+1.0000000000000001e-01 -5.5124070387197288e-01 +7.1825175238974355e+00 +6.0669185179853127e+00 -2.5976331915069117e+01 +2.2116252666387659e+03 -1.5522706558416365e+05 -4.0395357403135053e+06 
+1.5000000000000002e-01 -5.5124172226793666e-01 +7.1826095516580954e+00 +6.0678478767535164e+00 -2.5800422411449517e+01 +2.1575892427539725e+03 -1.5666889529841483e+05 -3.7972876811271082e+06 
+2.0000000000000001e-01 -5.5124315553422754e-01 +7.1827237922516760e+00 +6.0683217353735808e+00 -2.5627081386148209e+01 +2.1059908030532379e+03 -1.5804185249071280e+05 -3.5789864064843892e+06 
+2.5000000000000000e-01 -5.5124500249616437e-01 +7.1828601679292916e+00 +6.0683346261046145e+00 -2.5456302384273823e+01 +2.0568370397139429e+03 -1.5934574046729560e+05 -3.3841185420097029e+06 
+2.9999999999999999e-01 -5.5124726197904073e-01 +7.1830186009456476e+00 +6.0678810740812272e+00 -2.5288079100129043e+01 +2.0101352308050677e+03 -1.6058036118594103e+05 -3.2121719471123600e+06 
+3.4999999999999998e-01 -5.5124993280820245e-01 +7.1831990135519703e+00 +6.0669556098436770e+00 -2.5122405053315170e+01 +1.9658925149952390e+03 -1.6174551805484015e+05 -3.0626335674678329e+06 
+3.9999999999999997e-01 -5.5125301380899672e-01 +7.1834013280050213e+00 +6.0655527612718734e+00 -2.4959273965376642e+01 +1.9241160982659389e+03 -1.6284101279574301e+05 -2.9349907873004517e+06 
+4.4999999999999996e-01 -5.5125650380679136e-01 +7.1836254665566734e+00 +6.0636670560570121e+00 -2.4798679326594520e+01 +1.8848131957555233e+03 -1.6386664904539587e+05 -2.8287310685928436e+06 
+4.9999999999999994e-01 -5.5126040162698819e-01 +7.1838713514649308e+00 +6.0612930255443809e+00 -2.4640614866471577e+01 +1.8479909170195108e+03 -1.6482222840892087e+05 -2.7433411378144170e+06 
+5.4999999999999993e-01 -5.5126470609497980e-01 +7.1841389049856827e+00 +6.0584251954389519e+00 -2.4485074198378229e+01 +1.8136565314928343e+03 -1.6570755345493538e+05 -2.6783088326821146e+06 
+5.9999999999999998e-01 -5.5126941603619495e-01 +7.1844280493724071e+00 +6.0550580949759372e+00 -2.4332050803412962e+01 +1.7818172069470045e+03 -1.6652242785692203e+05 -2.6331212779612360e+06 
+6.5000000000000002e-01 -5.5127453027607798e-01 +7.1847387068856507e+00 +6.0511862529159446e+00 -2.4181538436296066e+01 +1.7524801276890532e+03 -1.6726665299885269e+05 -2.6072657304696660e+06 
+7.0000000000000007e-01 -5.5128004764009586e-01 +7.1850707997841630e+00 +6.0468041985743648e+00 -2.4033530751749872e+01 +1.7256524628260142e+03 -1.6794003108433355e+05 -2.6002293425783403e+06 
+7.5000000000000011e-01 -5.5128596695372711e-01 +7.1854242503266148e+00 +6.0419064605604085e+00 -2.3888021358209720e+01 +1.7013413984885149e+03 -1.6854236477091297e+05 -2.6114993771708566e+06 
+8.0000000000000016e-01 -5.5129228704247069e-01 +7.1857989807735621e+00 +6.0364875678585301e+00 -2.3745003935589285e+01 +1.6795541109671540e+03 -1.6907345603028615e+05 -2.6405630339630423e+06 
+8.5000000000000020e-01 -5.5129900673183785e-01 +7.1861949133850533e+00 +6.0305420484130403e+00 -2.3604472090380320e+01 +1.6602978038697911e+03 -1.6953310756798813e+05 -2.6869076940583764e+06 
+9.0000000000000024e-01 -5.5130612484735586e-01 +7.1866119704239315e+00 +6.0240644299055131e+00 -2.3466419548949542e+01 +1.6435796907620359e+03 -1.6992112097048413e+05 -2.7500208219170175e+06 
+9.5000000000000029e-01 -5.5131364021459062e-01 +7.1870500741517374e+00 +6.0170492440380556e+00 -2.3330839917869433e+01 +1.6294068708031318e+03 -1.7023729897641760e+05 -2.8293890852204738e+06 
+1.0000000000000002e+00 -5.5132155165910091e-01 +7.1875091468348575e+00 +6.0094910175306309e+00 -2.3197726997457583e+01 +1.6177865864109906e+03 -1.7048144265611723e+05 -2.9245001577741760e+06 
+1.0500000000000003e+00 -5.5132985800646606e-01 +7.1879891107346756e+00 +6.0013842785594598e+00 -2.3067074345744125e+01 +1.6087260294116547e+03 -1.7065335512185137e+05 -3.0348413273186008e+06 
+1.1000000000000003e+00 -5.5133855808229792e-01 +7.1884898881208272e+00 +5.9927235573533730e+00 -2.2938875822898044e+01 +1.6022323460354344e+03 -1.7075283706092904e+05 -3.1598996171504236e+06 
+1.1500000000000004e+00 -5.5134765071221825e-01 +7.1890114012572344e+00 +5.9835033833469442e+00 -2.2813125035503507e+01 +1.5983126963194475e+03 -1.7077969121696358e+05 -3.2991621122860075e+06 
+1.2000000000000004e+00 -5.5135713472186099e-01 +7.1895535724122119e+00 +5.9737182848559067e+00 -2.2689815726724827e+01 +1.5969742745262326e+03 -1.7073371930572751e+05 -3.4521161489492767e+06 
+1.2500000000000004e+00 -5.5136700893687418e-01 +7.1901163238559471e+00 +5.9633627900189019e+00 -2.2568941692250444e+01 +1.5982242771311815e+03 -1.7061472261229987e+05 -3.6182490695775938e+06 
+1.3000000000000005e+00 -5.5137727218293309e-01 +7.1906995778573748e+00 +5.9524314285663520e+00 -2.2450496646056404e+01 +1.6020698585156217e+03 -1.7042250313564771e+05 -3.7970479372912166e+06 
+1.3500000000000005e+00 -5.5138792328572361e-01 +7.1913032566874362e+00 +5.9409187291322869e+00 -2.2334474342681016e+01 +1.6085182045515546e+03 -1.7015686260863251e+05 -3.9880000382852261e+06 
+1.4000000000000006e+00 -5.5139896107094988e-01 +7.1919272826181642e+00 +5.9288192210397259e+00 -2.2220868549929076e+01 +1.6175764778008793e+03 -1.6981760271253035e+05 -4.1905924833147074e+06 
+1.4500000000000006e+00 -5.5141038436433221e-01 +7.1925715779244079e+00 +5.9161274333597049e+00 -2.2109673124504241e+01 +1.6292518495062454e+03 -1.6940452440445957e+05 -4.4043124525379427e+06 
+1.5000000000000007e+00 -5.5142219199160758e-01 +7.1932360648785378e+00 +5.9028378951769032e+00 -2.2000881778919609e+01 +1.6435514919886657e+03 -1.6891742992921121e+05 -4.6286471402124660e+06 
+1.5500000000000007e+00 -5.5143438277852785e-01 +7.1939206657583226e+00 +5.8889451358154421e+00 -2.1894488417670846e+01 +1.6604825649075622e+03 -1.6835611998574724e+05 -4.8630836339729829e+06 
+1.6000000000000008e+00 -5.5144695555086320e-01 +7.1946253028401506e+00 +5.8744436843100694e+00 -2.1790486850489749e+01 +1.6800522439387180e+03 -1.6772039612707586e+05 -5.1071091625671703e+06 
+1.6500000000000008e+00 -5.5145990913439435e-01 +7.1953498984018491e+00 +5.8593280690576899e+00 -2.1688870911495570e+01 +1.7022677161387321e+03 -1.6701005976740670e+05 -5.3602110093073398e+06 
+1.7000000000000008e+00 -5.5147324235492579e-01 +7.1960943747228461e+00 +5.8435928203991399e+00 -2.1589634461259532e+01 +1.7271361138948162e+03 -1.6622491218382795e+05 -5.6218760858996408e+06 
+1.7500000000000009e+00 -5.5148695403827486e-01 +7.1968586540827273e+00 +5.8272324672394147e+00 -2.1492771339255956e+01 +1.7546646149192593e+03 -1.6536475487462501e+05 -5.8915916337388819e+06 
+1.8000000000000009e+00 -5.5150104301027081e-01 +7.1976426587655133e+00 +5.8102415384434209e+00 -2.1398275513538962e+01 +1.7848603933837212e+03 -1.6442938840948514e+05 -6.1688448574962756e+06 
+1.8500000000000010e+00 -5.5151550809676642e-01 +7.1984463110564869e+00 +5.7926145645248166e+00 -2.1306140980504185e+01 +1.8177305744281382e+03 -1.6341861315063576e+05 -6.4531226120104380e+06 
+1.9000000000000010e+00 -5.5153034812362167e-01 +7.1992695332357375e+00 +5.7743460739010963e+00 -2.1216361482266546e+01 +1.8532823481483699e+03 -1.6233223165442568e+05 -6.7439122277088482e+06 
+1.9500000000000011e+00 -5.5154556191672000e-01 +7.2001122475930188e+00 +5.7554305966397559e+00 -2.1128931110679531e+01 +1.8915228554190553e+03 -1.6117004371461557e+05 -7.0407006848992100e+06 
+2.0000000000000009e+00 -5.5156114830194480e-01 +7.2009743764147540e+00 +5.7358626605237850e+00 -2.1043843792065633e+01 +1.9324592973156239e+03 -1.5993185053367724e+05 -7.3429753678493518e+06 
+2.0500000000000007e+00 -5.5157710594973486e-01 +7.2018558307641012e+00 +5.7156394886536646e+00 -2.0961018277003348e+01 +1.9760893358938824e+03 -1.5861844026234833e+05 -7.6503242848317726e+06 
+2.1000000000000005e+00 -5.5159343290828045e-01 +7.2027564729352891e+00 +5.6947693139846409e+00 -2.0880165497195652e+01 +2.0223730990584675e+03 -1.5723385599324177e+05 -7.9627301375915939e+06 
+2.1500000000000004e+00 -5.5161012707016077e-01 +7.2036761520567971e+00 +5.6732631937221472e+00 -2.0800967822287220e+01 +2.0712614170489414e+03 -1.5578278562732096e+05 -8.2802719786174856e+06 
+2.2000000000000002e+00 -5.5162718632797003e-01 +7.2046147172620749e+00 +5.6511321852907130e+00 -2.0723107794798374e+01 +2.1227051155814456e+03 -1.5426991571196800e+05 -8.6030288330639042e+06 
+2.2500000000000000e+00 -5.5164460857431075e-01 +7.2055720176810576e+00 +5.6283873454320776e+00 -2.0646267816699119e+01 +2.1766550371979092e+03 -1.5269993388444500e+05 -8.9310798311073277e+06 
+2.2999999999999998e+00 -5.5166239170180853e-01 +7.2065479024463075e+00 +5.6050397329080139e+00 -2.0570130365823903e+01 +2.2330619689116088e+03 -1.5107752720547310e+05 -9.2645037253175918e+06 
+2.3499999999999996e+00 -5.5168053360308300e-01 +7.2075422206900361e+00 +5.5811004027150410e+00 -2.0494377889736072e+01 +2.2918768030352308e+03 -1.4940738299701514e+05 -9.6033799891053569e+06 
+2.3999999999999995e+00 -5.5169903217077854e-01 +7.2085548215456878e+00 +5.5565804127058298e+00 -2.0418692888315825e+01 +2.3530503489289454e+03 -1.4769418806508096e+05 -9.9477875148059167e+06 
+2.4499999999999993e+00 -5.5171788529754606e-01 +7.2095855541469085e+00 +5.5314908191372529e+00 -2.0342757838388508e+01 +2.4165334668804217e+03 -1.4594262947907214e+05 -1.0297805566861918e+07 
+2.4999999999999991e+00 -5.5173709087606282e-01 +7.2106342676258883e+00 +5.5058426810207042e+00 -2.0266255156027796e+01 +2.4822769383399755e+03 -1.4415739474478812e+05 -1.0653512857660731e+07 
+2.5499999999999989e+00 -5.5175664679899095e-01 +7.2117008111165131e+00 +5.4796470527830001e+00 -2.0188867310852704e+01 +2.5502316670068981e+03 -1.4234317093362045e+05 -1.1014988916694582e+07 
+2.5999999999999988e+00 -5.5177655095902689e-01 +7.2127850337535762e+00 +5.4529149931530663e+00 -2.0110276806711354e+01 +2.6203484410993701e+03 -1.4050464478871386e+05 -1.1382312498218007e+07 
+2.6499999999999986e+00 -5.5179680124886354e-01 +7.2138867846697012e+00 +5.4256575573071304e+00 -2.0030166035412559e+01 +2.6925781504369334e+03 -1.3864650400516120e+05 -1.1755563057237273e+07 
+2.6999999999999984e+00 -5.5181739556121001e-01 +7.2150059130008346e+00 +5.3978858024269352e+00 -1.9948217526985193e+01 +2.7668716226147039e+03 -1.3677343507723455e+05 -1.2134819599805787e+07 
+2.7499999999999982e+00 -5.5183833178878050e-01 +7.2161422678800582e+00 +5.3696107838922753e+00 -1.9864113683164152e+01 +2.8431797391589889e+03 -1.3489012554534519e+05 -1.2520161511169754e+07 
+2.7999999999999980e+00 -5.5185960782431920e-01 +7.2172956984407213e+00 +5.3408435606291222e+00 -1.9777536904645100e+01 +2.9214532864353578e+03 -1.3300126294616816e+05 -1.2911667534662282e+07 
+2.8499999999999979e+00 -5.5188122156055652e-01 +7.2184660538188252e+00 +5.3115951877984857e+00 -1.9688169702095063e+01 +3.0016431477143783e+03 -1.3111153386109244e+05 -1.3309417048294129e+07 
+2.8999999999999977e+00 -5.5190317089024532e-01 +7.2196531831488597e+00 +5.2818767220926253e+00 -1.9595694520407481e+01 +3.0837001689007157e+03 -1.2922562536124482e+05 -1.3713489187564969e+07 
+2.9499999999999975e+00 -5.5192545370613899e-01 +7.2208569355648304e+00 +5.2516992189986400e+00 -1.9499793767178819e+01 +3.1675752267052326e+03 -1.2734822485548793e+05 -1.4123963290016580e+07 
+2.9999999999999973e+00 -5.5194806790101236e-01 +7.2220771601997455e+00 +5.2210737352478915e+00 -1.9400149813476769e+01 +3.2532191705996197e+03 -1.2548401998240320e+05 -1.4540918528049668e+07 
+3.0499999999999972e+00 -5.5197101136763982e-01 +7.2233137061901393e+00 +5.1900113269708177e+00 -1.9296445173676897e+01 +3.3405828540878151e+03 -1.2363769715373173e+05 -1.4964434051191363e+07 
+3.0999999999999970e+00 -5.5199428199881140e-01 +7.2245664226677428e+00 +5.1585230505215343e+00 -1.9188362165092425e+01 +3.4296171366912126e+03 -1.2181394435637454e+05 -1.5394589095433453e+07 
+3.1499999999999968e+00 -5.5201787768731148e-01 +7.2258351587692538e+00 +5.1266199596320492e+00 -1.9075583293945272e+01 +3.5202729433201089e+03 -1.2001744803840877e+05 -1.5831463309178302e+07 
+3.1999999999999966e+00 -5.5204179632595873e-01 +7.2271197636258204e+00 +5.0943131130750858e+00 -1.8957790859087080e+01 +3.6125010624167103e+03 -1.1825289622047429e+05 -1.6275135418966385e+07 
+3.2499999999999964e+00 -5.5206603580755809e-01 +7.2284200863718207e+00 +5.0616135647312523e+00 -1.8834667270589030e+01 +3.7062524201980750e+03 -1.1652497605775141e+05 -1.6725685096444143e+07 
+3.2999999999999963e+00 -5.5209059402492577e-01 +7.2297359761410807e+00 +5.0285323700901641e+00 -1.8705894940182478e+01 +3.8014778902733888e+03 -1.1483837454071680e+05 -1.7183191620819706e+07 
+3.3499999999999961e+00 -5.5211546887089535e-01 +7.2310672820656601e+00 +4.9950805850870070e+00 -1.8571156190778982e+01 +3.8981283445889053e+03 -1.1319777941628281e+05 -1.7647734295298342e+07 
+3.3999999999999959e+00 -5.5214065823829905e-01 +7.2324138532783309e+00 +4.9612692649337946e+00 -1.8430133381501090e+01 +3.9961546657687481e+03 -1.1160787807085524e+05 -1.8119392456981450e+07 
+3.4499999999999957e+00 -5.5216616001998609e-01 +7.2337755389118126e+00 +4.9271094653848237e+00 -1.8282508880350562e+01 +4.0955077312579119e+03 -1.1007335772910749e+05 -1.8598245439009532e+07 
+3.4999999999999956e+00 -5.5219197210879811e-01 +7.2351521880974499e+00 +4.8926122404809869e+00 -1.8127964997669551e+01 +4.1961384559119797e+03 -1.0859890605255472e+05 -1.9084372789822076e+07 
+3.5499999999999954e+00 -5.5221809239759700e-01 +7.2365436499679738e+00 +4.8577886455390145e+00 -1.7966184108285976e+01 +4.2979977290500947e+03 -1.0718921010743234e+05 -1.9577853914190196e+07 
+3.5999999999999952e+00 -5.5224451877925496e-01 +7.2379497736525629e+00 +4.8226497374939497e+00 -1.7796848449505774e+01 +4.4010363863005177e+03 -1.0584895802380575e+05 -2.0078767810807955e+07 
+3.6499999999999950e+00 -5.5227124914661863e-01 +7.2393704082811050e+00 +4.7872065662850183e+00 -1.7619640290827210e+01 +4.5052054641308005e+03 -1.0458283761340851e+05 -2.0587194877805125e+07 
+3.6999999999999948e+00 -5.5229828139258419e-01 +7.2408054029854600e+00 +4.7514701899201031e+00 -1.7434241990486594e+01 +4.6104557752141100e+03 -1.0339553589759400e+05 -2.1103213970786128e+07 
+3.7499999999999947e+00 -5.5232561341003383e-01 +7.2422546068950773e+00 +4.7154516630150107e+00 -1.7240335825655585e+01 +4.7167382224066787e+03 -1.0229174045391915e+05 -2.1626904546089698e+07 
+3.7999999999999945e+00 -5.5235324309184464e-01 +7.2437178691369981e+00 +4.6791620374892879e+00 -1.7037603975470791e+01 +4.8240037858893511e+03 -1.0127613963987293e+05 -2.2158346592894070e+07 
+3.8499999999999943e+00 -5.5238116833092121e-01 +7.2451950388401691e+00 +4.6426123696104282e+00 -1.6825728712763517e+01 +4.9322033246853680e+03 -1.0035342094274280e+05 -2.2697619262829177e+07 
+3.8999999999999941e+00 -5.5240938702015496e-01 +7.2466859651304381e+00 +4.6058137115188513e+00 -1.6604392192035700e+01 +5.0412878141955462e+03 -9.9528272756999577e+04 -2.3244802505712017e+07 
+3.9499999999999940e+00 -5.5243789705245727e-01 +7.2481904971381272e+00 +4.5687771182182768e+00 -1.6373276761559040e+01 +5.1512081514875117e+03 -9.8805381818727576e+04 -2.3799975734478511e+07 
+3.9999999999999938e+00 -5.5246669632073830e-01 +7.2497084839867441e+00 +4.5315136436364982e+00 -1.6132064515684494e+01 +5.2619152597963921e+03 -9.8189436782078628e+04 -2.4363218517088294e+07 
+4.0499999999999936e+00 -5.5249578256291443e-01 +7.2512397666203912e+00 +4.4940343476965641e+00 -1.5880562445991664e+01 +5.3733435289205818e+03 -9.7683680862089212e+04 -2.4934440609351944e+07 
+4.0999999999999934e+00 -5.5252515289756721e-01 +7.2527841442630114e+00 +4.4563509446713052e+00 -1.5619012250519065e+01 +5.4853634090261103e+03 -9.7286178402602629e+04 -2.5512916893321171e+07 
+4.1499999999999932e+00 -5.5255480428860937e-01 +7.2543414034749985e+00 +4.4184754967999265e+00 -1.5347751485079273e+01 +5.5978298133170601e+03 -9.6993832387007016e+04 -2.6097773489057127e+07 
+4.1999999999999931e+00 -5.5258473369996464e-01 +7.2559113308126255e+00 +4.3804200687782560e+00 -1.5067117558200438e+01 +5.7105975820276471e+03 -9.6803547085089827e+04 -2.6688135986902509e+07 
+4.2499999999999929e+00 -5.5261493809554862e-01 +7.2574937128356032e+00 +4.3421967238275005e+00 -1.4777448022810400e+01 +5.8235215942151517e+03 -9.6712225565054090e+04 -2.7283130235359270e+07 
+4.2999999999999927e+00 -5.5264541443928450e-01 +7.2590883360994756e+00 +4.3038175257671378e+00 -1.4479080274224236e+01 +5.9364567196446505e+03 -9.6716772170629774e+04 -2.7881882048976768e+07 
+4.3499999999999925e+00 -5.5267615969510586e-01 +7.2606949871611413e+00 +4.2652945406218468e+00 -1.4172351769345052e+01 +6.0492577636488550e+03 -9.6814090729278483e+04 -2.8483516787662506e+07 
+4.3999999999999924e+00 -5.5270717082691789e-01 +7.2623134525765840e+00 +4.2266398290769072e+00 -1.3857599934772741e+01 +6.1617796768687149e+03 -9.7001085316458659e+04 -2.9087160796043567e+07 
+4.4499999999999922e+00 -5.5273844479865497e-01 +7.2639435188992314e+00 +4.1878654572473089e+00 -1.3535162111133104e+01 +6.2738772647124815e+03 -9.7274660663528775e+04 -2.9691939447795924e+07 
+4.4999999999999920e+00 -5.5276997857424004e-01 +7.2655849726840360e+00 +4.1489834891210977e+00 -1.3205375704745222e+01 +6.3854053873803296e+03 -9.7631720978997429e+04 -3.0296978472808082e+07 
+4.5499999999999918e+00 -5.5280176911758838e-01 +7.2672376004839254e+00 +4.1100059877071722e+00 -1.2868578058186749e+01 +6.4962189332899925e+03 -9.8069170949545587e+04 -3.0901403802871522e+07 
+4.5999999999999917e+00 -5.5283381339263238e-01 +7.2689011888519364e+00 +4.0709450187955820e+00 -1.2525106517161607e+01 +6.6061727170949353e+03 -9.8583915276370142e+04 -3.1504340874777004e+07 
+4.6499999999999915e+00 -5.5286610836328354e-01 +7.2705755243392298e+00 +4.0318126450713159e+00 -1.2175298373695277e+01 +6.7151216362752857e+03 -9.9172859040446128e+04 -3.2104915683191318e+07 
+4.6999999999999913e+00 -5.5289865099345648e-01 +7.2722603934963548e+00 +3.9926209300879001e+00 -1.1819490913676594e+01 +6.8229205625653985e+03 -9.9832907340889127e+04 -3.2702254040612116e+07 
+4.7499999999999911e+00 -5.5293143824708757e-01 +7.2739555828702942e+00 +3.9533819413760898e+00 -1.1458021276628319e+01 +6.9294242642067929e+03 -1.0056096651728607e+05 -3.3295481076098446e+07 
+4.7999999999999909e+00 -5.5296446708808122e-01 +7.2756608790155859e+00 +3.9141077412386931e+00 -1.1091226939264109e+01 +7.0344876493819538e+03 -1.0135394007034726e+05 -3.3883722860622168e+07 
+4.8499999999999908e+00 -5.5299773448035061e-01 +7.2773760684743793e+00 +3.8748103941999976e+00 -1.0719444875378972e+01 +7.1379655654359194e+03 -1.0220873566724658e+05 -3.4466105052754499e+07 
+4.8999999999999906e+00 -5.5303123738780424e-01 +7.2791009377974758e+00 +3.8355019644054198e+00 -1.0343012434387406e+01 +7.2397128699890500e+03 -1.0312225784036062e+05 -3.5041753380830482e+07 
+4.9499999999999904e+00 -5.5306497277436129e-01 +7.2808352735286270e+00 +3.7961945180930172e+00 -9.9622666959771795e+00 +7.3395843672964011e+03 -1.0409141331891547e+05 -3.5609793224805862e+07 
+4.9999999999999902e+00 -5.5309893760392259e-01 +7.2825788622132510e+00 +3.7569001195823111e+00 -9.5775448176441849e+00 +7.4374349075412320e+03 -1.0511310820760891e+05 -3.6169350255861051e+07 
+5.0499999999999901e+00 -5.5313312884038546e-01 +7.2843314903941634e+00 +3.7176308325970484e+00 -9.1891838739561802e+00 +7.5331193638767918e+03 -1.0618424924844256e+05 -3.6719550327922039e+07 
