# multipoles
# s[mm] polynom_b[n=0][T/m^n] polynom_b[n=1][T/m^n] polynom_b[n=2][T/m^n] polynom_b[n=3][T/m^n] polynom_b[n=4][T/m^n] polynom_b[n=5][T/m^n] polynom_b[n=6][T/m^n] 
+0.0000000000000000e+00 -5.7804460976508898e-01 +7.5863297670853207e+00 +5.3719953106752847e+00 -7.8209857321638182e+01 +1.9551414817575442e+04 +2.4527501226987035e+05 -1.2343273331883261e+08 
+5.0000000000000003e-02 -5.7804326346091972e-01 +7.5862664948445566e+00 +5.3655854071132891e+00 -7.8134251179652949e+01 +1.9706337290232914e+04 +2.4446213177483747e+05 -1.2430497301729299e+08 
+1.0000000000000001e-01 -5.7804230434393178e-01 +7.5862255352684214e+00 +5.3593566587642680e+00 -7.8096497414985322e+01 +1.9845678345425225e+04 +2.4394903481622707e+05 -1.2508569334122619e+08 
+1.5000000000000002e-01 -5.7804173190337460e-01 +7.5862067975187060e+00 +5.3533013696841003e+00 -7.8095256939790431e+01 +1.9969736369111524e+04 +2.4372619276071509e+05 -1.2577681716309439e+08 
+2.0000000000000001e-01 -5.7804154562856302e-01 +7.5862101907579378e+00 +5.3474118521253038e+00 -7.8129190684160008e+01 +2.0078809524421304e+04 +2.4378407722476363e+05 -1.2638026584090959e+08 
+2.5000000000000000e-01 -5.7804174500879257e-01 +7.5862356241470907e+00 +5.3416804117874710e+00 -7.8196959464252672e+01 +2.0173196151654880e+04 +2.4411315880420187e+05 -1.2689796193289958e+08 
+2.9999999999999999e-01 -5.7804232953340351e-01 +7.5862830068480323e+00 +5.3360993591929047e+00 -7.8297224105242691e+01 +2.0253194461881329e+04 +2.4470390820030047e+05 -1.2733182713124140e+08 
+3.4999999999999998e-01 -5.7804329869174009e-01 +7.5863522480231413e+00 +5.3306610020554412e+00 -7.8428645443199386e+01 +2.0319102743266791e+04 +2.4554679629424773e+05 -1.2768378365230428e+08 
+3.9999999999999997e-01 -5.7804465197317434e-01 +7.5864432568348450e+00 +5.3253576501033111e+00 -7.8589884267893652e+01 +2.0371219229094830e+04 +2.4663229351826190e+05 -1.2795575334188038e+08 
+4.4999999999999996e-01 -5.7804638886709503e-01 +7.5865559424429652e+00 +5.3201816125628438e+00 -7.8779601245729324e+01 +2.0409842166847804e+04 +2.4795086935066301e+05 -1.2814965814375721e+08 
+4.9999999999999994e-01 -5.7804850886289416e-01 +7.5866902140117096e+00 +5.3151251965732840e+00 -7.8996457176568043e+01 +2.0435269859500338e+04 +2.4949299431047149e+05 -1.2826742037760104e+08 
+5.4999999999999993e-01 -5.7805101145001414e-01 +7.5868459807015141e+00 +5.3101807142115867e+00 -7.9239112703437087e+01 +2.0447800480611662e+04 +2.5124913774505974e+05 -1.2831096149924202e+08 
+5.9999999999999998e-01 -5.7805389611788449e-01 +7.5870231516752904e+00 +5.3053404730958329e+00 -7.9506228525078086e+01 +2.0447732318965998e+04 +2.5320976939148587e+05 -1.2828220372991768e+08 
+6.5000000000000002e-01 -5.7805716235597371e-01 +7.5872216360940525e+00 +5.3005967839618569e+00 -7.9796465245146749e+01 +2.0435363584523715e+04 +2.5536535826520252e+05 -1.2818306877599856e+08 
+7.0000000000000007e-01 -5.7806080965375295e-01 +7.5874413431195897e+00 +5.2959419551671107e+00 -8.0108483473329073e+01 +2.0410992547804741e+04 +2.5770637344367665e+05 -1.2801547874063921e+08 
+7.5000000000000011e-01 -5.7806483750072468e-01 +7.5876821819139586e+00 +5.2913682974572547e+00 -8.0440943801123311e+01 +2.0374917417544853e+04 +2.6022328385806264e+05 -1.2778135532225819e+08 
+8.0000000000000016e-01 -5.7806924538638937e-01 +7.5879440616414202e+00 +5.2868681184191626e+00 -8.0792506895630666e+01 +2.0327436483560119e+04 +2.6290655912366521e+05 -1.2748262074924667e+08 
+8.5000000000000020e-01 -5.7807403280028935e-01 +7.5882268914609403e+00 +5.2824337292581580e+00 -8.1161833162531394e+01 +2.0268847945602654e+04 +2.6574666663235915e+05 -1.2712119667192188e+08 
+9.0000000000000024e-01 -5.7807919923197615e-01 +7.5885305805354353e+00 +5.2780574410160241e+00 -8.1547583172805702e+01 +2.0199449998331886e+04 +2.6873407527992607e+05 -1.2669900467482206e+08 
+9.5000000000000029e-01 -5.7808474417100775e-01 +7.5888550380289415e+00 +5.2737315612522577e+00 -8.1948417507651456e+01 +2.0119540940567284e+04 +2.7185925399680174e+05 -1.2621796707878458e+08 
+1.0000000000000002e+00 -5.7809066710696921e-01 +7.5892001731031451e+00 +5.2694484006590381e+00 -8.2362996620995503e+01 +2.0029418976420231e+04 +2.7511267067016725e+05 -1.2568000553137451e+08 
+1.0500000000000003e+00 -5.7809696752945527e-01 +7.5895658949204625e+00 +5.2652002680130598e+00 -8.2789980994821008e+01 +1.9929382369565410e+04 +2.7848479351221002e+05 -1.2508704211423784e+08 
+1.1000000000000003e+00 -5.7810364492808441e-01 +7.5899521126448368e+00 +5.2609794737177245e+00 -8.3228031132457048e+01 +1.9819729331700732e+04 +2.8196609085366759e+05 -1.2444099852400392e+08 
+1.1500000000000004e+00 -5.7811069879249832e-01 +7.5903587354378654e+00 +5.2567783287387657e+00 -8.3675807437011102e+01 +1.9700758066883875e+04 +2.8554703029752302e+05 -1.2374379643735187e+08 
+1.2000000000000004e+00 -5.7811812861234080e-01 +7.5907856724613545e+00 +5.2525891418204784e+00 -8.4131970291434669e+01 +1.9572766834366616e+04 +2.8921807926238794e+05 -1.2299735788593394e+08 
+1.2500000000000004e+00 -5.7812593387726652e-01 +7.5912328328803467e+00 +5.2484042209989186e+00 -8.4595180197719714e+01 +1.9436053910635488e+04 +2.9296970620524499e+05 -1.2220360501234879e+08 
+1.3000000000000005e+00 -5.7813411407697124e-01 +7.5917001258583685e+00 +5.2442158780886761e+00 -8.5064097561012105e+01 +1.9290917473581703e+04 +2.9679237873816048e+05 -1.2136445930411820e+08 
+1.3500000000000005e+00 -5.7814266870115005e-01 +7.5921874605572564e+00 +5.2400164218378862e+00 -8.5537382726505726e+01 +1.9137655784786068e+04 +3.0067656413156947e+05 -1.2048184282076623e+08 
+1.4000000000000006e+00 -5.7815159723951814e-01 +7.5926947461420458e+00 +5.2357981625383463e+00 -8.6013696134468333e+01 +1.8976567055701482e+04 +3.0461273038247909e+05 -1.1955767725015223e+08 
+1.4500000000000006e+00 -5.7816089918180280e-01 +7.5932218917762810e+00 +5.2315534087787441e+00 -8.6491698147322964e+01 +1.8807949550753910e+04 +3.0859134487826482e+05 -1.1859388466544209e+08 
+1.5000000000000007e+00 -5.7817057401774508e-01 +7.5937688066230136e+00 +5.2272744692142616e+00 -8.6970049099022532e+01 +1.8632101528958530e+04 +3.1260287485181988e+05 -1.1759238709007032e+08 
+1.5500000000000007e+00 -5.7818062123710989e-01 +7.5943353998490366e+00 +5.2229536538534527e+00 -8.7447409453862520e+01 +1.8449321211482598e+04 +3.1663778858712321e+05 -1.1655510628846705e+08 
+1.6000000000000008e+00 -5.7819104032967272e-01 +7.5949215806161128e+00 +5.2185832718095115e+00 -8.7922439457829981e+01 +1.8259906842915716e+04 +3.2068655263304902e+05 -1.1548396417890662e+08 
+1.6500000000000008e+00 -5.7820183078523280e-01 +7.5955272580906357e+00 +5.2141556332863734e+00 -8.8393799526575876e+01 +1.8064156639927729e+04 +3.2473963494217058e+05 -1.1438088249817131e+08 
+1.7000000000000008e+00 -5.7821299209357857e-01 +7.5961523414360190e+00 +5.2096630439796670e+00 -8.8860149952335547e+01 +1.7862368937701958e+04 +3.2878750253302825e+05 -1.1324778377120766e+08 
+1.7500000000000009e+00 -5.7822452374455380e-01 +7.5967967398186644e+00 +5.2050978165844786e+00 -8.9320151121322866e+01 +1.7654841884047008e+04 +3.3282062317764887e+05 -1.1208658926622905e+08 
+1.8000000000000009e+00 -5.7823642522797236e-01 +7.5974603624044832e+00 +5.2004522559960096e+00 -8.9772463402346958e+01 +1.7441873831538025e+04 +3.3682946460313100e+05 -1.1089922161158025e+08 
+1.8500000000000010e+00 -5.7824869603370088e-01 +7.5981431183576253e+00 +5.1957186730889742e+00 -9.0215747059291942e+01 +1.7223762975816931e+04 +3.4080449362469593e+05 -1.0968760239002039e+08 
+1.9000000000000010e+00 -5.7826133565159255e-01 +7.5988449168460264e+00 +5.1908893741789770e+00 -9.0648662522386331e+01 +1.7000807631673571e+04 +3.4473617855524534e+05 -1.0845365397843531e+08 
+1.9500000000000011e+00 -5.7827434357153851e-01 +7.5995656670335849e+00 +5.1859566695318202e+00 -9.1069870023998305e+01 +1.6773306005343038e+04 +3.4861498603692389e+05 -1.0719929801329692e+08 
+2.0000000000000009e+00 -5.7828771928342404e-01 +7.6003052780909428e+00 +5.1809128653197600e+00 -9.1478030074032176e+01 +1.6541556415289244e+04 +3.5243138508660841e+05 -1.0592645689289279e+08 
+2.0500000000000007e+00 -5.7830146198625731e-01 +7.6010636488205074e+00 +5.1757491233440245e+00 -9.1871936194422247e+01 +1.6305860097219935e+04 +3.5617668741069094e+05 -1.0463699065968052e+08 
+2.1000000000000005e+00 -5.7831556971570308e-01 +7.6018406287301232e+00 +5.1704523729308249e+00 -9.2250873549586956e+01 +1.6066532075483956e+04 +3.5984523287150572e+05 -1.0333252211454865e+08 
+2.1500000000000004e+00 -5.7833004021665979e-01 +7.6026360530378962e+00 +5.1650085860957251e+00 -9.2614240344790602e+01 +1.5823891240625100e+04 +3.6343202833168651e+05 -1.0201461692042197e+08 
+2.2000000000000002e+00 -5.7834487123405254e-01 +7.6034497569602806e+00 +5.1594037363056895e+00 -9.2961434691514611e+01 +1.5578256449991688e+04 +3.6693207982008951e+05 -1.0068484053325054e+08 
+2.2500000000000000e+00 -5.7836006051279898e-01 +7.6042815757192503e+00 +5.1536237945758296e+00 -9.3291854912349862e+01 +1.5329946619352406e+04 +3.7034039509537013e+05 -9.9344758776707664e+07 
+2.2999999999999998e+00 -5.7837560579786063e-01 +7.6051313445341808e+00 +5.1476547370297485e+00 -9.3604899197711561e+01 +1.5079280528023359e+04 +3.7365198077158275e+05 -9.7995936554186672e+07 
+2.3499999999999996e+00 -5.7839150483418167e-01 +7.6059988986261597e+00 +5.1414825348953537e+00 -9.3899965813574042e+01 +1.4826577085170264e+04 +3.7686184416514658e+05 -9.6639939640494362e+07 
+2.3999999999999995e+00 -5.7840775536671996e-01 +7.6068840732159959e+00 +5.1350931589445432e+00 -9.4176452960650650e+01 +1.4572155216892079e+04 +3.7996499189166003e+05 -9.5278333938038111e+07 
+2.4499999999999993e+00 -5.7842435514045176e-01 +7.6077867035293885e+00 +5.1284725821987056e+00 -9.4433759060556255e+01 +1.4316333779429106e+04 +3.8295643250666774e+05 -9.3912684844255760e+07 
+2.4999999999999991e+00 -5.7844130190035870e-01 +7.6087066247863016e+00 +5.1216067759429631e+00 -9.4671282243434703e+01 +1.4059431680490490e+04 +3.8583117198998597e+05 -9.2544558120766997e+07 
+2.5499999999999989e+00 -5.7845859339145000e-01 +7.6096436722161052e+00 +5.1144817145781012e+00 -9.4888421039169600e+01 +1.3801767740787351e+04 +3.8858421970512316e+05 -9.1175518928656459e+07 
+2.5999999999999988e+00 -5.7847622735871795e-01 +7.6105976810420071e+00 +5.1070833673075526e+00 -9.5084573687015819e+01 +1.3543660922855599e+04 +3.9121058251724561e+05 -8.9807133392620042e+07 
+2.6499999999999986e+00 -5.7849420154718245e-01 +7.6115684864906195e+00 +5.0993977068908070e+00 -9.5259138557519279e+01 +1.3285430087174627e+04 +3.9370526837611629e+05 -8.8440966924226537e+07 
+2.6999999999999984e+00 -5.7851251370186674e-01 +7.6125559237928728e+00 +5.0914107042403307e+00 -9.5411514177907918e+01 +1.3027394148142177e+04 +3.9606328646606114e+05 -8.7078585313167363e+07 
+2.7499999999999982e+00 -5.7853116156780937e-01 +7.6135598281748704e+00 +5.0831083315808332e+00 -9.5541098856346096e+01 +1.2769871978924666e+04 +3.9827964412332594e+05 -8.5721554047831386e+07 
+2.7999999999999980e+00 -5.7855014289004381e-01 +7.6145800348701069e+00 +5.0744765577244708e+00 -9.5647291190924733e+01 +1.2513182551040176e+04 +4.0034935104716307e+05 -8.4371439302481651e+07 
+2.8499999999999979e+00 -5.7856945541362570e-01 +7.6156163791088449e+00 +5.0655013548981440e+00 -9.5729489620349554e+01 +1.2257644731771021e+04 +4.0226741554295184e+05 -8.3029806501801267e+07 
+2.8999999999999977e+00 -5.7858909688362581e-01 +7.6166686961235976e+00 +5.0561686949263240e+00 -9.5787092670186126e+01 +1.2003577409981401e+04 +4.0402884663114097e+05 -8.1698221254737794e+07 
+2.9499999999999975e+00 -5.7860906504510068e-01 +7.6177368211501264e+00 +5.0464645464129587e+00 -9.5819498976244716e+01 +1.1751299552018612e+04 +4.0562865417488647e+05 -8.0378249656971812e+07 
+2.9999999999999973e+00 -5.7862935764313306e-01 +7.6188205894210652e+00 +5.0363748804540833e+00 -9.5826107021006877e+01 +1.1501130058059760e+04 +4.0706184669472580e+05 -7.9071457358298257e+07 
+3.0499999999999972e+00 -5.7864997242280358e-01 +7.6199198361769946e+00 +5.0258856662948954e+00 -9.5806315604133189e+01 +1.1253387879897338e+04 +4.0832343530609709e+05 -7.7779410364583418e+07 
+3.0999999999999970e+00 -5.7867090712921643e-01 +7.6210343966522833e+00 +5.0149828758785944e+00 -9.5759523251726321e+01 +1.1008391891743217e+04 +4.0940842880843522e+05 -7.6503674136830464e+07 
+3.1499999999999968e+00 -5.7869215950745723e-01 +7.6221641060906453e+00 +5.0036524763105836e+00 -9.5685128858653087e+01 +1.0766461098927082e+04 +4.1031183898911433e+05 -7.5245815022824004e+07 
+3.1999999999999966e+00 -5.7871372730264037e-01 +7.6233087997315963e+00 +4.9918804381947997e+00 -9.5582531111025190e+01 +1.0527914409059204e+04 +4.1102867578483647e+05 -7.4007398693378747e+07 
+3.2499999999999964e+00 -5.7873560825988191e-01 +7.6244683128174167e+00 +4.9796527312073007e+00 -9.5451128817044221e+01 +1.0293070754421155e+04 +4.1155395018760895e+05 -7.2789990986421913e+07 
+3.2999999999999963e+00 -5.7875780012430478e-01 +7.6256424805931484e+00 +4.9669553244779943e+00 -9.5290320859040136e+01 +1.0062249084174198e+04 +4.1188267363273707e+05 -7.1595157859506294e+07 
+3.3499999999999961e+00 -5.7878030064102548e-01 +7.6268311383036469e+00 +4.9537741846738781e+00 -9.5099506111231321e+01 +9.8357684100572151e+03 +4.1200985750180495e+05 -7.0424465674828023e+07 
+3.3999999999999959e+00 -5.7880310755519426e-01 +7.6280341211950597e+00 +4.9400952835464009e+00 -9.4878083471361776e+01 +9.6139476019035465e+03 +4.1193051324609178e+05 -6.9279479816675305e+07 
+3.4499999999999957e+00 -5.7882621861193106e-01 +7.6292512645192705e+00 +4.9259045859312414e+00 -9.4625452048487915e+01 +9.3971057178238898e+03 +4.1163965396306867e+05 -6.8161766947092861e+07 
+3.4999999999999956e+00 -5.7884963155640301e-01 +7.6304824035245735e+00 +4.9111880632404894e+00 -9.4341010809236849e+01 +9.1855616414824926e+03 +4.1113229158585327e+05 -6.7072892556955032e+07 
+3.5499999999999954e+00 -5.7887334413374436e-01 +7.6317273734638249e+00 +4.8959316805665036e+00 -9.4024158869061282e+01 +8.9796344189452248e+03 +4.1040343912327668e+05 -6.6014423203363054e+07 
+3.5999999999999952e+00 -5.7889735408912579e-01 +7.6329860095932736e+00 +4.8801214079221618e+00 -9.3674295480837003e+01 +8.7796429662174323e+03 +4.0944811068940262e+05 -6.4987924572065189e+07 
+3.6499999999999950e+00 -5.7892165916770300e-01 +7.6342581471640401e+00 +4.8637432117854340e+00 -9.3290819656367617e+01 +8.5859062875047639e+03 +4.0826131827976642e+05 -6.3994962913425997e+07 
+3.6999999999999948e+00 -5.7894625711463210e-01 +7.6355436214370807e+00 +4.8467830570974497e+00 -9.2873130801463972e+01 +8.3987434363075390e+03 +4.0683807708907267e+05 -6.3037104842175089e+07 
+3.7499999999999947e+00 -5.7897114567510222e-01 +7.6368422676707270e+00 +4.8292269140497890e+00 -9.2420628187915227e+01 +8.2184733150354768e+03 +4.0517340107886924e+05 -6.2115915911050610e+07 
+3.7999999999999945e+00 -5.7899632259427536e-01 +7.6381539211273708e+00 +4.8110607465341797e+00 -9.1932711255208432e+01 +8.0454150000458076e+03 +4.0326230557552044e+05 -6.1232962860767916e+07 
+3.8499999999999943e+00 -5.7902178561733642e-01 +7.6394784170682772e+00 +4.7922705222493400e+00 -9.1408779357385939e+01 +7.8798874571685401e+03 +4.0109980503179017e+05 -6.0389811655578665e+07 
+3.8999999999999941e+00 -5.7904753248947038e-01 +7.6408155907595319e+00 +4.7728422070563425e+00 -9.0848232042525240e+01 +7.7222097078109464e+03 +3.9868091544956248e+05 -5.9588028652892321e+07 
+3.9499999999999940e+00 -5.7907356095585627e-01 +7.6421652774679565e+00 +4.7527617653092680e+00 -9.0250468872037203e+01 +7.5727008077798582e+03 +3.9600065285499452e+05 -5.8829180418280385e+07 
+3.9999999999999938e+00 -5.7909986876169472e-01 +7.6435273124606740e+00 +4.7320151646448041e+00 -8.9614889381443973e+01 +7.4316797221608003e+03 +3.9305403290534695e+05 -5.8114832889890768e+07 
+4.0499999999999936e+00 -5.7912645356029890e-01 +7.6449015369282529e+00 +4.7105931161930457e+00 -8.8941308236181271e+01 +7.2993734486168269e+03 +3.8983908200481202e+05 -5.7446065868198335e+07 
+4.0999999999999934e+00 -5.7915331263877179e-01 +7.6462878085456980e+00 +4.6885053148542841e+00 -8.8231251084552767e+01 +7.1756555694434974e+03 +3.8636642008985451e+05 -5.6822122552236944e+07 
+4.1499999999999932e+00 -5.7918044319299478e-01 +7.6476859873588126e+00 +4.6657662251425629e+00 -8.7486687629690323e+01 +7.0603151642525036e+03 +3.8264997133245168e+05 -5.6241816228117920e+07 
+4.1999999999999931e+00 -5.7920784241888668e-01 +7.6490959334133777e+00 +4.6423903177456465e+00 -8.6709587572983054e+01 +6.9531411486411071e+03 +3.7870365977381385e+05 -5.5703959074473903e+07 
+4.2499999999999929e+00 -5.7923550751235664e-01 +7.6505175067546460e+00 +4.6183920612784037e+00 -8.5901920611666881e+01 +6.8539224975065190e+03 +3.7454140946843947e+05 -5.5207363688504137e+07 
+4.2999999999999927e+00 -5.7926343566931593e-01 +7.6519505674270967e+00 +4.5937859240416605e+00 -8.5065656385633176e+01 +6.7624481964538218e+03 +3.7017714390401955e+05 -5.4750842745226391e+07 
+4.3499999999999925e+00 -5.7929162408566848e-01 +7.6533949754760915e+00 +4.5685863725144484e+00 -8.4202764603178196e+01 +6.6785072846564035e+03 +3.6562478724709654e+05 -5.4333209303542167e+07 
+4.3999999999999924e+00 -5.7932006995735130e-01 +7.6548505909459283e+00 +4.5428078791630728e+00 -8.3315214901191922e+01 +6.6018886378532270e+03 +3.6089826294855704e+05 -5.3953275311873056e+07 
+4.4499999999999922e+00 -5.7934877048027211e-01 +7.6563172738797478e+00 +4.5164649108730490e+00 -8.2404976888106503e+01 +6.5323812843452170e+03 +3.5601149429984094e+05 -5.3609853758795887e+07 
+4.4999999999999920e+00 -5.7937772285037026e-01 +7.6577948843221346e+00 +4.4895719395860167e+00 -8.1474020236989475e+01 +6.4697741224827796e+03 +3.5097840512641997e+05 -5.3301756782166332e+07 
+4.5499999999999918e+00 -5.7940692426356566e-01 +7.6592832823197670e+00 +4.4621434340439148e+00 -8.0524314694780529e+01 +6.4138561367472312e+03 +3.4581291980218282e+05 -5.3027797105233975e+07 
+4.5999999999999917e+00 -5.7943637191578656e-01 +7.6607823279098524e+00 +4.4341938638247793e+00 -7.9557829644634253e+01 +6.3644162925828778e+03 +3.4052895978379657e+05 -5.2786787333892167e+07 
+4.6499999999999915e+00 -5.7946606300299208e-01 +7.6622918811410843e+00 +4.4057377044508073e+00 -7.8576534929388501e+01 +6.3212433945213779e+03 +3.3514045025655947e+05 -5.2577538990748249e+07 
+4.6999999999999913e+00 -5.7949599472109670e-01 +7.6638118020523045e+00 +4.3767894228507744e+00 -7.7582399993952521e+01 +6.2841264879614673e+03 +3.2966131312469946e+05 -5.2398865261362337e+07 
+4.7499999999999911e+00 -5.7952616426605097e-01 +7.6653419506871430e+00 +4.3473634930036624e+00 -7.6577394490196596e+01 +6.2528544219079658e+03 +3.2410547203388147e+05 -5.2249577982500464e+07 
+4.7999999999999909e+00 -5.7955656883379270e-01 +7.6668821870870012e+00 +4.3174743860452676e+00 -7.5563487990176014e+01 +6.2272161323398350e+03 +3.1848684998290782e+05 -5.2128489620782591e+07 
+4.8499999999999908e+00 -5.7958720562027699e-01 +7.6684323712920532e+00 +4.2871365766214513e+00 -7.4542650009496853e+01 +6.2070004617594104e+03 +3.1281936945964460e+05 -5.2034412020782858e+07 
+4.8999999999999906e+00 -5.7961807182144565e-01 +7.6699923633437281e+00 +4.2563645370052487e+00 -7.3516850134334106e+01 +6.1919963180726600e+03 +3.0711695358773420e+05 -5.1966157474219471e+07 
+4.9499999999999904e+00 -5.7964916463324490e-01 +7.6715620232806279e+00 +4.2251727401908221e+00 -7.2488057826768184e+01 +6.1819925959750171e+03 +3.0139352441235312e+05 -5.1922538210663423e+07 
+4.9999999999999902e+00 -5.7968048125163107e-01 +7.6731412111429274e+00 +4.1935756620372269e+00 -7.1458242637613040e+01 +6.1767781089128675e+03 +2.9566300477070984e+05 -5.1902365899592638e+07 
+5.0499999999999901e+00 -5.7971201887254498e-01 +7.6747297869685562e+00 +4.1615877746352226e+00 -7.0429374031837682e+01 +6.1761417844648859e+03 +2.8993931679113820e+05 -5.1904453029752076e+07 
