# field on trajectory
# s[mm] rx[mm] ry[mm] rz[mm] bx[T] by[T] bz[T]
-0.0000000000000000e+00 +8.5270000000000206e+00 +0.0000000000000000e+00 -0.0000000000000000e+00 -2.7496323154851589e-02 -5.2298328860061050e-01 +5.0917917851530520e-03
-5.0000000000000003e-02 +8.5269999273587000e+00 +0.0000000000000000e+00 -5.1282051281982703e-02 -2.7496683487378274e-02 -5.2299167587022344e-01 +5.0915727330821618e-03
-1.0000000000000001e-01 +8.5269997094401297e+00 +0.0000000000000000e+00 -1.0256410256355400e-01 -2.7497063837866563e-02 -5.2300044417365144e-01 +5.0913601915659216e-03
-1.4999999999999999e-01 +8.5269993462388793e+00 +0.0000000000000000e+00 -1.5384615384430200e-01 -2.7497464155699029e-02 -5.2300959190316887e-01 +5.0911541220171061e-03
-2.0000000000000001e-01 +8.5269988377622195e+00 +0.0000000000000000e+00 -2.0512820512381499e-01 -2.7497884390254419e-02 -5.2301911745098140e-01 +5.0909544858477873e-03
-2.5000000000000000e-01 +8.5269981840028795e+00 +0.0000000000000000e+00 -2.5641025640168202e-01 -2.7498324490917180e-02 -5.2302901920941425e-01 +5.0907612444711699e-03
-2.9999999999999999e-01 +8.5269973849644902e+00 +0.0000000000000000e+00 -3.0769230767749101e-01 -2.7498784407068412e-02 -5.2303929557073525e-01 +5.0905743592998976e-03
-3.4999999999999998e-01 +8.5269964406470500e+00 +0.0000000000000000e+00 -3.5897435895083102e-01 -2.7499264088091037e-02 -5.2304994492725609e-01 +5.0903937917470355e-03
-4.0000000000000002e-01 +8.5269953510505694e+00 +0.0000000000000000e+00 -4.1025641022129000e-01 -2.7499763483368477e-02 -5.2306096567130667e-01 +5.0902195032258360e-03
-4.5000000000000001e-01 +8.5269941161714105e+00 +0.0000000000000000e+00 -4.6153846148845601e-01 -2.7500282542285839e-02 -5.2307235619525894e-01 +5.0900514551499932e-03
-5.0000000000000000e-01 +8.5269927360132005e+00 +0.0000000000000000e+00 -5.1282051275191798e-01 -2.7500821214226128e-02 -5.2308411489145401e-01 +5.0898896089329225e-03
-5.5000000000000004e-01 +8.5269912105795793e+00 +0.0000000000000000e+00 -5.6410256401126402e-01 -2.7501379448572713e-02 -5.2309624015224854e-01 +5.0897339259882513e-03
-5.9999999999999998e-01 +8.5269895398632798e+00 +0.0000000000000000e+00 -6.1538461526608301e-01 -2.7501957194713197e-02 -5.2310873037009309e-01 +5.0895843677305711e-03
-6.5000000000000002e-01 +8.5269877238679292e+00 +0.0000000000000000e+00 -6.6666666651596296e-01 -2.7502554402031618e-02 -5.2312158393737851e-01 +5.0894408955739767e-03
-6.9999999999999996e-01 +8.5269857625899004e+00 +0.0000000000000000e+00 -7.1794871776049296e-01 -2.7503171019914972e-02 -5.2313479924656414e-01 +5.0893034709333001e-03
-7.5000000000000000e-01 +8.5269836560364602e+00 +0.0000000000000000e+00 -7.6923076899926102e-01 -2.7503806997746561e-02 -5.2314837469004905e-01 +5.0891720552228856e-03
-8.0000000000000004e-01 +8.5269814042003400e+00 +0.0000000000000000e+00 -8.2051282023185501e-01 -2.7504462284915127e-02 -5.2316230866034952e-01 +5.0890466098583312e-03
-8.4999999999999998e-01 +8.5269790070851705e+00 +0.0000000000000000e+00 -8.7179487145786405e-01 -2.7505136830805774e-02 -5.2317659954992279e-01 +5.0889270962547724e-03
-9.0000000000000002e-01 +8.5269764646909607e+00 +0.0000000000000000e+00 -9.2307692267687602e-01 -2.7505830584805040e-02 -5.2319124575126674e-01 +5.0888134758278712e-03
-9.4999999999999996e-01 +8.5269737770140601e+00 +0.0000000000000000e+00 -9.7435897388848103e-01 -2.7506543496300918e-02 -5.2320624565691964e-01 +5.0887057099938370e-03
-1.0000000000000000e+00 +8.5269709440617607e+00 +0.0000000000000000e+00 -1.0256410250922601e+00 -2.7507275514677652e-02 -5.2322159765936027e-01 +5.0886037601684418e-03
-1.0500000000000000e+00 +8.5269679658304103e+00 +0.0000000000000000e+00 -1.0769230762878199e+00 -2.7508026589323432e-02 -5.2323730015115733e-01 +5.0885075877685074e-03
-1.1000000000000001e+00 +8.5269648423163709e+00 +0.0000000000000000e+00 -1.1282051274747300e+00 -2.7508796669626513e-02 -5.2325335152489449e-01 +5.0884171542111816e-03
-1.1499999999999999e+00 +8.5269615735232893e+00 +0.0000000000000000e+00 -1.1794871786525800e+00 -2.7509585704972622e-02 -5.2326975017312027e-01 +5.0883324209134552e-03
-1.2000000000000000e+00 +8.5269581594511692e+00 +0.0000000000000000e+00 -1.2307692298209700e+00 -2.7510393644748724e-02 -5.2328649448842202e-01 +5.0882533492929019e-03
-1.2500000000000000e+00 +8.5269546000999998e+00 +0.0000000000000000e+00 -1.2820512809794800e+00 -2.7511220438341782e-02 -5.2330358286340140e-01 +5.0881799007674528e-03
-1.3000000000000000e+00 +8.5269508954661397e+00 +0.0000000000000000e+00 -1.3333333321277101e+00 -2.7512066035139997e-02 -5.2332101369069939e-01 +5.0881120367556451e-03
-1.3500000000000001e+00 +8.5269470455568808e+00 +0.0000000000000000e+00 -1.3846153832652299e+00 -2.7512930384527613e-02 -5.2333878536289535e-01 +5.0880497186756588e-03
-1.3999999999999999e+00 +8.5269430503649293e+00 +0.0000000000000000e+00 -1.4358974343916400e+00 -2.7513813435893864e-02 -5.2335689627268200e-01 +5.0879929079470235e-03
-1.4500000000000000e+00 +8.5269389098939392e+00 +0.0000000000000000e+00 -1.4871794855065199e+00 -2.7514715138623993e-02 -5.2337534481269044e-01 +5.0879415659889314e-03
-1.5000000000000000e+00 +8.5269346241439106e+00 +0.0000000000000000e+00 -1.5384615366094700e+00 -2.7515635442104346e-02 -5.2339412937558949e-01 +5.0878956542212243e-03
-1.5500000000000000e+00 +8.5269301931148203e+00 +0.0000000000000000e+00 -1.5897435877000701e+00 -2.7516574295721078e-02 -5.2341324835406133e-01 +5.0878551340641483e-03
-1.6000000000000001e+00 +8.5269256168030605e+00 +0.0000000000000000e+00 -1.6410256387779201e+00 -2.7517531648861348e-02 -5.2343270014082521e-01 +5.0878199669386181e-03
-1.6499999999999999e+00 +8.5269208952158806e+00 +0.0000000000000000e+00 -1.6923076898425899e+00 -2.7518507450908222e-02 -5.2345248312853776e-01 +5.0877901142652483e-03
-1.7000000000000000e+00 +8.5269160283460206e+00 +0.0000000000000000e+00 -1.7435897408936800e+00 -2.7519501651249563e-02 -5.2347259570996740e-01 +5.0877655374660597e-03
-1.7500000000000000e+00 +8.5269110161934805e+00 +0.0000000000000000e+00 -1.7948717919307799e+00 -2.7520514199270367e-02 -5.2349303627784483e-01 +5.0877461979630476e-03
-1.8000000000000000e+00 +8.5269058587655309e+00 +0.0000000000000000e+00 -1.8461538429534701e+00 -2.7521545044352662e-02 -5.2351380322486230e-01 +5.0877320571781669e-03
-1.8500000000000001e+00 +8.5269005560585391e+00 +0.0000000000000000e+00 -1.8974358939613500e+00 -2.7522594135881970e-02 -5.2353489494379801e-01 +5.0877230765345805e-03
-1.8999999999999999e+00 +8.5268951080688602e+00 +0.0000000000000000e+00 -1.9487179449540000e+00 -2.7523661423243365e-02 -5.2355630982744183e-01 +5.0877192174559275e-03
-1.9500000000000000e+00 +8.5268895148037700e+00 +0.0000000000000000e+00 -1.9999999959310100e+00 -2.7524746855817635e-02 -5.2357804626851923e-01 +5.0877204413656051e-03
-2.0000000000000000e+00 +8.5268838253941794e+00 +0.0000000000000000e+00 -2.0508474532398102e+00 -2.7525840935395337e-02 -5.2359991423152885e-01 +5.0877266404979141e-03
-2.0499999999999998e+00 +8.5268779929429002e+00 +0.0000000000000000e+00 -2.1016949105324101e+00 -2.7526952635963772e-02 -5.2362209415526628e-01 +5.0877377913769112e-03
-2.1000000000000001e+00 +8.5268720174499304e+00 +0.0000000000000000e+00 -2.1525423678083899e+00 -2.7528081789229795e-02 -5.2364458344865183e-01 +5.0877538864583637e-03
-2.1499999999999999e+00 +8.5268658989189099e+00 +0.0000000000000000e+00 -2.2033898250673700e+00 -2.7529228226899856e-02 -5.2366737952058862e-01 +5.0877749181980139e-03
-2.2000000000000002e+00 +8.5268596373498404e+00 +0.0000000000000000e+00 -2.2542372823089400e+00 -2.7530391780682551e-02 -5.2369047978001226e-01 +5.0878008790520499e-03
-2.2500000000000000e+00 +8.5268532327390893e+00 +0.0000000000000000e+00 -2.3050847395326799e+00 -2.7531572282288724e-02 -5.2371388163589072e-01 +5.0878317614771185e-03
-2.2999999999999998e+00 +8.5268466850902804e+00 +0.0000000000000000e+00 -2.3559321967382099e+00 -2.7532769563427713e-02 -5.2373758249715052e-01 +5.0878675579295665e-03
-2.3500000000000001e+00 +8.5268399943961395e+00 +0.0000000000000000e+00 -2.4067796539251201e+00 -2.7533983455813694e-02 -5.2376157977279814e-01 +5.0879082608666594e-03
-2.3999999999999999e+00 +8.5268331606675893e+00 +0.0000000000000000e+00 -2.4576271110930099e+00 -2.7535213791155509e-02 -5.2378587087172246e-01 +5.0879538627446241e-03
-2.4500000000000002e+00 +8.5268261838973594e+00 +0.0000000000000000e+00 -2.5084745682414700e+00 -2.7536460401169638e-02 -5.2381045320294306e-01 +5.0880043560210799e-03
-2.5000000000000000e+00 +8.5268190640890698e+00 +0.0000000000000000e+00 -2.5593220253701001e+00 -2.7537723117569867e-02 -5.2383532417541123e-01 +5.0880597331530849e-03
-2.5499999999999998e+00 +8.5268118012427294e+00 +0.0000000000000000e+00 -2.6101694824785100e+00 -2.7539001772072538e-02 -5.2386048119810780e-01 +5.0881199865980943e-03
-2.6000000000000001e+00 +8.5268043953510606e+00 +0.0000000000000000e+00 -2.6610169395662799e+00 -2.7540296196397890e-02 -5.2388592168007042e-01 +5.0881851088142097e-03
-2.6499999999999999e+00 +8.5267968464213499e+00 +0.0000000000000000e+00 -2.7118643966330200e+00 -2.7541606222262319e-02 -5.2391164303023929e-01 +5.0882550922586910e-03
-2.7000000000000002e+00 +8.5267891544535797e+00 +0.0000000000000000e+00 -2.7627118536783102e+00 -2.7542931681386239e-02 -5.2393764265761089e-01 +5.0883299293894291e-03
-2.7500000000000000e+00 +8.5267813194441295e+00 +0.0000000000000000e+00 -2.8135593107017698e+00 -2.7544272405492794e-02 -5.2396391797121111e-01 +5.0884096126646893e-03
-2.7999999999999998e+00 +8.5267733413966198e+00 +0.0000000000000000e+00 -2.8644067677029899e+00 -2.7545628226304065e-02 -5.2399046638001900e-01 +5.0884941345423675e-03
-2.8500000000000001e+00 +8.5267652203074196e+00 +0.0000000000000000e+00 -2.9152542246815600e+00 -2.7546998975546268e-02 -5.2401728529306757e-01 +5.0885834874809695e-03
-2.8999999999999999e+00 +8.5267569561765395e+00 +0.0000000000000000e+00 -2.9661016816370900e+00 -2.7548384484945922e-02 -5.2404437211936883e-01 +5.0886776639388603e-03
-2.9500000000000002e+00 +8.5267485490112396e+00 +0.0000000000000000e+00 -3.0169491385691698e+00 -2.7549784586228622e-02 -5.2407172426788640e-01 +5.0887766563740104e-03
-3.0000000000000000e+00 +8.5267399988042598e+00 +0.0000000000000000e+00 -3.0677965954773900e+00 -2.7551199111126863e-02 -5.2409933914768780e-01 +5.0888804572454763e-03
-3.0499999999999998e+00 +8.5267313055555896e+00 +0.0000000000000000e+00 -3.1186440523613599e+00 -2.7552627891372295e-02 -5.2412721416779295e-01 +5.0889890590119008e-03
-3.1000000000000001e+00 +8.5267224692688597e+00 +0.0000000000000000e+00 -3.1694915092206801e+00 -2.7554070758697074e-02 -5.2415534673719832e-01 +5.0891024541317633e-03
-3.1499999999999999e+00 +8.5267134899368102e+00 +0.0000000000000000e+00 -3.2203389660549400e+00 -2.7555527544839128e-02 -5.2418373426497811e-01 +5.0892206350643555e-03
-3.2000000000000002e+00 +8.5267043675703498e+00 +0.0000000000000000e+00 -3.2711864228637300e+00 -2.7556998081531781e-02 -5.2421237416008137e-01 +5.0893435942677952e-03
-3.2500000000000000e+00 +8.5266951021658297e+00 +0.0000000000000000e+00 -3.3220338796466700e+00 -2.7558482200515523e-02 -5.2424126383155945e-01 +5.0894713242012526e-03
-3.2999999999999998e+00 +8.5266856937196298e+00 +0.0000000000000000e+00 -3.3728813364033301e+00 -2.7559979733532854e-02 -5.2427040068846475e-01 +5.0896038173239375e-03
-3.3500000000000001e+00 +8.5266761422317394e+00 +0.0000000000000000e+00 -3.4237287931333298e+00 -2.7561490512327029e-02 -5.2429978213982509e-01 +5.0897410660948649e-03
-3.3999999999999999e+00 +8.5266664477057894e+00 +0.0000000000000000e+00 -3.4745762498362600e+00 -2.7563014368642134e-02 -5.2432940559464303e-01 +5.0898830629728317e-03
-3.4500000000000002e+00 +8.5266566101381596e+00 +0.0000000000000000e+00 -3.5254237065117100e+00 -2.7564551134226973e-02 -5.2435926846197101e-01 +5.0900298004171590e-03
-3.5000000000000000e+00 +8.5266466295324808e+00 +0.0000000000000000e+00 -3.5762711631592898e+00 -2.7566100640830014e-02 -5.2438936815081194e-01 +5.0901812708866994e-03
-3.5499999999999998e+00 +8.5266365058887494e+00 +0.0000000000000000e+00 -3.6271186197785901e+00 -2.7567662720203241e-02 -5.2441970207019151e-01 +5.0903374668405587e-03
-3.6000000000000001e+00 +8.5266262391996896e+00 +0.0000000000000000e+00 -3.6779660763692101e+00 -2.7569237204103599e-02 -5.2445026762918645e-01 +5.0904983807383486e-03
-3.6499999999999999e+00 +8.5266158294762100e+00 +0.0000000000000000e+00 -3.7288135329307499e+00 -2.7570823924283845e-02 -5.2448106223674551e-01 +5.0906640050384462e-03
-3.6999999999999900e+00 +8.5266052767074108e+00 +0.0000000000000000e+00 -3.7796609894627999e+00 -2.7572422712506990e-02 -5.2451208330196630e-01 +5.0908343322006921e-03
-3.7499999999999898e+00 +8.5265945809042005e+00 +0.0000000000000000e+00 -3.8305084459649699e+00 -2.7574033400530683e-02 -5.2454332823379413e-01 +5.0910093546834420e-03
-3.7999999999999901e+00 +8.5265837420592998e+00 +0.0000000000000000e+00 -3.8813559024368498e+00 -2.7575655820121593e-02 -5.2457479444129795e-01 +5.0911890649462570e-03
-3.8499999999999899e+00 +8.5265727601727104e+00 +0.0000000000000000e+00 -3.9322033588780299e+00 -2.7577289803046367e-02 -5.2460647933349358e-01 +5.0913734554481806e-03
-3.8999999999999901e+00 +8.5265616352480702e+00 +0.0000000000000000e+00 -3.9830508152881201e+00 -2.7578935181072968e-02 -5.2463838031936849e-01 +5.0915625186479666e-03
-3.9499999999999900e+00 +8.5265503672853793e+00 +0.0000000000000000e+00 -4.0338982716667102e+00 -2.7580591781955651e-02 -5.2467049479335681e-01 +5.0917562459277706e-03
-3.9999999999999898e+00 +8.5265389562773599e+00 +0.0000000000000000e+00 -4.0847457280134103e+00 -2.7582259386748267e-02 -5.2470281998049884e-01 +5.0919546161523844e-03
-4.0499999999999901e+00 +8.5265274022313005e+00 +0.0000000000000000e+00 -4.1355931843278002e+00 -2.7583937746366981e-02 -5.2473535299641638e-01 +5.0921576001095445e-03
-4.0999999999999899e+00 +8.5265157051508105e+00 +0.0000000000000000e+00 -4.1864406406094901e+00 -2.7585626611226204e-02 -5.2476809095493515e-01 +5.0923651684525815e-03
-4.1499999999999897e+00 +8.5265038650250098e+00 +0.0000000000000000e+00 -4.2372880968580704e+00 -2.7587325731744598e-02 -5.2480103096998199e-01 +5.0925772918357631e-03
-4.1999999999999904e+00 +8.5264918818611495e+00 +0.0000000000000000e+00 -4.2881355530731398e+00 -2.7589034858333382e-02 -5.2483417015535727e-01 +5.0927939409120574e-03
-4.2499999999999902e+00 +8.5264797556556005e+00 +0.0000000000000000e+00 -4.3389830092543002e+00 -2.7590753741406598e-02 -5.2486750562493711e-01 +5.0930150863351077e-03
-4.2999999999999901e+00 +8.5264674864120007e+00 +0.0000000000000000e+00 -4.3898304654011504e+00 -2.7592482131374652e-02 -5.2490103449254710e-01 +5.0932406987579931e-03
-4.3499999999999899e+00 +8.5264550741303502e+00 +0.0000000000000000e+00 -4.4406779215132799e+00 -2.7594219778648035e-02 -5.2493475387203692e-01 +5.0934707488339524e-03
-4.3999999999999897e+00 +8.5264425188070199e+00 +0.0000000000000000e+00 -4.4915253775902899e+00 -2.7595966433637348e-02 -5.2496866087728189e-01 +5.0937052072163860e-03
-4.4499999999999904e+00 +8.5264298204419902e+00 +0.0000000000000000e+00 -4.5423728336317897e+00 -2.7597721846750602e-02 -5.2500275262213014e-01 +5.0939440445583540e-03
-4.4999999999999902e+00 +8.5264169790425495e+00 +0.0000000000000000e+00 -4.5932202896373502e+00 -2.7599485768391871e-02 -5.2503702622037884e-01 +5.0941872315123172e-03
-4.5499999999999901e+00 +8.5264039945941494e+00 +0.0000000000000000e+00 -4.6440677456066002e+00 -2.7601257948971638e-02 -5.2507147878597615e-01 +5.0944347387321164e-03
-4.5999999999999899e+00 +8.5263908671149693e+00 +0.0000000000000000e+00 -4.6949152015391098e+00 -2.7603038138887211e-02 -5.2510610743263986e-01 +5.0946865368692515e-03
-4.6499999999999897e+00 +8.5263775965941004e+00 +0.0000000000000000e+00 -4.7457626574344998e+00 -2.7604826088544782e-02 -5.2514090927428958e-01 +5.0949425965770758e-03
-4.6999999999999904e+00 +8.5263641830315500e+00 +0.0000000000000000e+00 -4.7966101132923500e+00 -2.7606621548345076e-02 -5.2517588142476734e-01 +5.0952028885080797e-03
-4.7499999999999902e+00 +8.5263506264309399e+00 +0.0000000000000000e+00 -4.8474575691122697e+00 -2.7608424268685854e-02 -5.2521102099788786e-01 +5.0954673833143640e-03
-4.7999999999999901e+00 +8.5263369267886393e+00 +0.0000000000000000e+00 -4.8983050248938502e+00 -2.7610233999965799e-02 -5.2524632510751401e-01 +5.0957360516483878e-03
-4.8499999999999899e+00 +8.5263230841010191e+00 +0.0000000000000000e+00 -4.9491524806366902e+00 -2.7612050492581825e-02 -5.2528179086750704e-01 +5.0960088641624612e-03
-4.8999999999999897e+00 +8.5263090983826295e+00 +0.0000000000000000e+00 -4.9999999363403900e+00 -2.7613873496922486e-02 -5.2531741539159826e-01 +5.0962857915075018e-03
-4.9499999999999904e+00 +8.5262950649157592e+00 +0.0000000000000000e+00 -5.0505049848957304e+00 -2.7615690424820732e-02 -5.2535295433562390e-01 +5.0965648984180644e-03
-4.9999999999999902e+00 +8.5262808896768494e+00 +0.0000000000000000e+00 -5.1010100334114901e+00 -2.7617513286417150e-02 -5.2538864424164122e-01 +5.0968480072587623e-03
-5.0499999999999901e+00 +8.5262665726659197e+00 +0.0000000000000000e+00 -5.1515150818872497e+00 -2.7619341837108652e-02 -5.2542448228139293e-01 +5.0971350892699474e-03
-5.0999999999999899e+00 +8.5262521138793108e+00 +0.0000000000000000e+00 -5.2020201303226203e+00 -2.7621175832291494e-02 -5.2546046562664439e-01 +5.0974261156920483e-03
-5.1499999999999897e+00 +8.5262375133206696e+00 +0.0000000000000000e+00 -5.2525251787172103e+00 -2.7623015027357253e-02 -5.2549659144910787e-01 +5.0977210577648176e-03
-5.1999999999999904e+00 +8.5262227709863492e+00 +0.0000000000000000e+00 -5.3030302270706198e+00 -2.7624859177697973e-02 -5.2553285692054152e-01 +5.0980198867283093e-03
-5.2499999999999902e+00 +8.5262078868836397e+00 +0.0000000000000000e+00 -5.3535352753824403e+00 -2.7626708038699613e-02 -5.2556925921262498e-01 +5.0983225738216393e-03
-5.2999999999999901e+00 +8.5261928610125306e+00 +0.0000000000000000e+00 -5.4040403236522803e+00 -2.7628561365748473e-02 -5.2560579549708408e-01 +5.0986290902842180e-03
-5.3499999999999899e+00 +8.5261776933584805e+00 +0.0000000000000000e+00 -5.4545453718797399e+00 -2.7630418914233821e-02 -5.2564246294574335e-01 +5.0989394073562358e-03
-5.3999999999999897e+00 +8.5261623839360308e+00 +0.0000000000000000e+00 -5.5050504200644301e+00 -2.7632280439532097e-02 -5.2567925873021937e-01 +5.0992534962756913e-03
-5.4499999999999904e+00 +8.5261469327415398e+00 +0.0000000000000000e+00 -5.5555554682059496e+00 -2.7634145697023844e-02 -5.2571618002225151e-01 +5.0995713282815935e-03
-5.4999999999999902e+00 +8.5261313397750200e+00 +0.0000000000000000e+00 -5.6060605163038897e+00 -2.7636014442085841e-02 -5.2575322399354996e-01 +5.0998928746124822e-03
-5.5499999999999901e+00 +8.5261156050328299e+00 +0.0000000000000000e+00 -5.6565655643578596e+00 -2.7637886430093631e-02 -5.2579038781584497e-01 +5.1002181065069041e-03
-5.5999999999999899e+00 +8.5260997285186004e+00 +0.0000000000000000e+00 -5.7070706123674597e+00 -2.7639761416417559e-02 -5.2582766866081188e-01 +5.1005469952026712e-03
-5.6499999999999897e+00 +8.5260837102287006e+00 +0.0000000000000000e+00 -5.7575756603323001e+00 -2.7641639156427908e-02 -5.2586506370017161e-01 +5.1008795119378480e-03
-5.6999999999999904e+00 +8.5260675501704100e+00 +0.0000000000000000e+00 -5.8080807082519703e+00 -2.7643519405488350e-02 -5.2590257010556374e-01 +5.1012156279494920e-03
-5.7499999999999902e+00 +8.5260512483400799e+00 +0.0000000000000000e+00 -5.8585857561260797e+00 -2.7645401918963718e-02 -5.2594018504869922e-01 +5.1015553144751515e-03
-5.7999999999999901e+00 +8.5260348047340795e+00 +0.0000000000000000e+00 -5.9090908039542303e+00 -2.7647286452215994e-02 -5.2597790570128333e-01 +5.1018985427521042e-03
-5.8499999999999899e+00 +8.5260182193524106e+00 +0.0000000000000000e+00 -5.9595958517360303e+00 -2.7649172760603018e-02 -5.2601572923499029e-01 +5.1022452840171085e-03
