# trajectory
# s[mm] rx[mm] ry[mm] rz[mm] px[rad] py[rad] pz[rad]
0.0000000000000000e+00 +8.5389999999999997e+00 +0.0000000000000000e+00 +0.0000000000000000e+00 +0.0000000000000000e+00 +0.0000000000000000e+00 +1.0000000000000000e+00
5.0000000000000003e-02 +8.5389999311444278e+00 +0.0000000000000000e+00 +4.9999999999936789e-02 -2.7542216373599584e-06 +0.0000000000000000e+00 +9.9999999999620715e-01
1.0000000000000001e-01 +8.5389997245779430e+00 +0.0000000000000000e+00 +9.9999999999494285e-02 -5.5084368358973242e-06 +0.0000000000000000e+00 +9.9999999998482858e-01
1.5000000000000002e-01 +8.5389993803008171e+00 +0.0000000000000000e+00 +1.4999999999829322e-01 -8.2626475997315881e-06 +0.0000000000000000e+00 +9.9999999996586431e-01
2.0000000000000001e-01 +8.5389988983132223e+00 +0.0000000000000000e+00 +1.9999999999595430e-01 -1.1016855929477179e-05 +0.0000000000000000e+00 +9.9999999993931443e-01
2.5000000000000000e-01 +8.5389982786152316e+00 +0.0000000000000000e+00 +2.4999999999209824e-01 -1.3771063822243552e-05 +0.0000000000000000e+00 +9.9999999990517885e-01
2.9999999999999999e-01 +8.5389975212068148e+00 +0.0000000000000000e+00 +2.9999999998634574e-01 -1.6525273271635279e-05 +0.0000000000000000e+00 +9.9999999986345767e-01
3.4999999999999998e-01 +8.5389966260878456e+00 +0.0000000000000000e+00 +3.4999999997831754e-01 -1.9279486267752138e-05 +0.0000000000000000e+00 +9.9999999981415066e-01
3.9999999999999997e-01 +8.5389955932580968e+00 +0.0000000000000000e+00 +3.9999999996763436e-01 -2.2033704797189205e-05 +0.0000000000000000e+00 +9.9999999975725784e-01
4.4999999999999996e-01 +8.5389944227172414e+00 +0.0000000000000000e+00 +4.4999999995391687e-01 -2.4787930843036943e-05 +0.0000000000000000e+00 +9.9999999969277920e-01
4.9999999999999994e-01 +8.5389931144648550e+00 +0.0000000000000000e+00 +4.9999999993678584e-01 -2.7542166384881294e-05 +0.0000000000000000e+00 +9.9999999962071451e-01
5.4999999999999993e-01 +8.5389916685004117e+00 +0.0000000000000000e+00 +5.4999999991586190e-01 -3.0296413398803765e-05 +0.0000000000000000e+00 +9.9999999954106367e-01
5.9999999999999998e-01 +8.5389900848232898e+00 +0.0000000000000000e+00 +5.9999999989076580e-01 -3.3050673857381519e-05 +0.0000000000000000e+00 +9.9999999945382645e-01
6.5000000000000002e-01 +8.5389883634327681e+00 +0.0000000000000000e+00 +6.4999999986111812e-01 -3.5804949729687477e-05 +0.0000000000000000e+00 +9.9999999935900274e-01
7.0000000000000007e-01 +8.5389865043280260e+00 +0.0000000000000000e+00 +6.9999999982653960e-01 -3.8559242981290376e-05 +0.0000000000000000e+00 +9.9999999925659233e-01
7.5000000000000011e-01 +8.5389845075081467e+00 +0.0000000000000000e+00 +7.4999999978665088e-01 -4.1313555574254898e-05 +0.0000000000000000e+00 +9.9999999914659499e-01
8.0000000000000016e-01 +8.5389823729721144e+00 +0.0000000000000000e+00 +7.9999999974107261e-01 -4.4067889467141722e-05 +0.0000000000000000e+00 +9.9999999902901049e-01
8.5000000000000020e-01 +8.5389801007188133e+00 +0.0000000000000000e+00 +8.4999999968942541e-01 -4.6822246615007651e-05 +0.0000000000000000e+00 +9.9999999890383851e-01
9.0000000000000024e-01 +8.5389776907470321e+00 +0.0000000000000000e+00 +8.9999999963132993e-01 -4.9576628969405666e-05 +0.0000000000000000e+00 +9.9999999877107881e-01
9.5000000000000029e-01 +8.5389751430554632e+00 +0.0000000000000000e+00 +9.4999999956640679e-01 -5.2331038478385040e-05 +0.0000000000000000e+00 +9.9999999863073108e-01
1.0000000000000002e+00 +8.5389724576427000e+00 +0.0000000000000000e+00 +9.9999999949427654e-01 -5.5085477086491412e-05 +0.0000000000000000e+00 +9.9999999848279497e-01
1.0500000000000003e+00 +8.5389696345072377e+00 +0.0000000000000000e+00 +1.0499999994145597e+00 -5.7839946734766883e-05 +0.0000000000000000e+00 +9.9999999832727016e-01
1.1000000000000003e+00 +8.5389666736474759e+00 +0.0000000000000000e+00 +1.0999999993268770e+00 -6.0594449360750110e-05 +0.0000000000000000e+00 +9.9999999816415619e-01
1.1500000000000004e+00 +8.5389635750617181e+00 +0.0000000000000000e+00 +1.1499999992308487e+00 -6.3348986898476383e-05 +0.0000000000000000e+00 +9.9999999799345274e-01
1.2000000000000004e+00 +8.5389603387481721e+00 +0.0000000000000000e+00 +1.1999999991260957e+00 -6.6103561278477716e-05 +0.0000000000000000e+00 +9.9999999781515936e-01
1.2500000000000004e+00 +8.5389569647049441e+00 +0.0000000000000000e+00 +1.2499999990122381e+00 -6.8858174427782951e-05 +0.0000000000000000e+00 +9.9999999762927572e-01
1.3000000000000005e+00 +8.5389534529300501e+00 +0.0000000000000000e+00 +1.2999999988888966e+00 -7.1612828269917813e-05 +0.0000000000000000e+00 +9.9999999743580126e-01
1.3500000000000005e+00 +8.5389498034214064e+00 +0.0000000000000000e+00 +1.3499999987556917e+00 -7.4367524724905035e-05 +0.0000000000000000e+00 +9.9999999723473543e-01
1.4000000000000006e+00 +8.5389460161768351e+00 +0.0000000000000000e+00 +1.3999999986122436e+00 -7.7122265709264430e-05 +0.0000000000000000e+00 +9.9999999702607789e-01
1.4500000000000006e+00 +8.5389420911940608e+00 +0.0000000000000000e+00 +1.4499999984581728e+00 -7.9877053136012986e-05 +0.0000000000000000e+00 +9.9999999680982798e-01
1.5000000000000007e+00 +8.5389380284707155e+00 +0.0000000000000000e+00 +1.4999999982930998e+00 -8.2631888914664928e-05 +0.0000000000000000e+00 +9.9999999658598526e-01
1.5500000000000007e+00 +8.5389338280043319e+00 +0.0000000000000000e+00 +1.5499999981166448e+00 -8.5386774951231846e-05 +0.0000000000000000e+00 +9.9999999635454917e-01
1.6000000000000008e+00 +8.5389294897923502e+00 +0.0000000000000000e+00 +1.5999999979284281e+00 -8.8141713148222762e-05 +0.0000000000000000e+00 +9.9999999611551904e-01
1.6500000000000008e+00 +8.5389250138321149e+00 +0.0000000000000000e+00 +1.6499999977280699e+00 -9.0896705404644207e-05 +0.0000000000000000e+00 +9.9999999586889432e-01
1.7000000000000008e+00 +8.5389204001208761e+00 +0.0000000000000000e+00 +1.6999999975151907e+00 -9.3651753616000335e-05 +0.0000000000000000e+00 +9.9999999561467434e-01
1.7500000000000009e+00 +8.5389156486557880e+00 +0.0000000000000000e+00 +1.7499999972894107e+00 -9.6406859674292973e-05 +0.0000000000000000e+00 +9.9999999535285855e-01
1.8000000000000009e+00 +8.5389107594339126e+00 +0.0000000000000000e+00 +1.7999999970503500e+00 -9.9162025468021758e-05 +0.0000000000000000e+00 +9.9999999508344617e-01
1.8500000000000010e+00 +8.5389057324522142e+00 +0.0000000000000000e+00 +1.8499999967976286e+00 -1.0191725288218419e-04 +0.0000000000000000e+00 +9.9999999480643664e-01
1.9000000000000010e+00 +8.5389005677075662e+00 +0.0000000000000000e+00 +1.8999999965308669e+00 -1.0467254379827574e-04 +0.0000000000000000e+00 +9.9999999452182919e-01
1.9500000000000011e+00 +8.5388952651967447e+00 +0.0000000000000000e+00 +1.9499999962496850e+00 -1.0742790009428990e-04 +0.0000000000000000e+00 +9.9999999422962305e-01
2.0000000000000009e+00 +8.5388898249164349e+00 +0.0000000000000000e+00 +1.9999999959537027e+00 -1.1018332364471831e-04 +0.0000000000000000e+00 +9.9999999392981753e-01
2.0500000000000007e+00 +8.5388842468632280e+00 +0.0000000000000000e+00 +2.0499999956425401e+00 -1.1293881632022735e-04 +0.0000000000000000e+00 +9.9999999362241176e-01
2.1000000000000005e+00 +8.5388785310336193e+00 +0.0000000000000000e+00 +2.0999999953158173e+00 -1.1569437998410006e-04 +0.0000000000000000e+00 +9.9999999330740508e-01
2.1500000000000004e+00 +8.5388726774240151e+00 +0.0000000000000000e+00 +2.1499999949731539e+00 -1.1845001648867800e-04 +0.0000000000000000e+00 +9.9999999298479669e-01
2.2000000000000002e+00 +8.5388666860307261e+00 +0.0000000000000000e+00 +2.1999999946141702e+00 -1.2120572767503784e-04 +0.0000000000000000e+00 +9.9999999265458572e-01
2.2500000000000000e+00 +8.5388605568499720e+00 +0.0000000000000000e+00 +2.2499999942384856e+00 -1.2396151537299142e-04 +0.0000000000000000e+00 +9.9999999231677128e-01
2.2999999999999998e+00 +8.5388542898778823e+00 +0.0000000000000000e+00 +2.2999999938457205e+00 -1.2671738140108588e-04 +0.0000000000000000e+00 +9.9999999197135259e-01
2.3499999999999996e+00 +8.5388478851104956e+00 +0.0000000000000000e+00 +2.3499999934354943e+00 -1.2947332756660360e-04 +0.0000000000000000e+00 +9.9999999161832864e-01
2.3999999999999995e+00 +8.5388413425437601e+00 +0.0000000000000000e+00 +2.3999999930074267e+00 -1.3222935566556233e-04 +0.0000000000000000e+00 +9.9999999125769867e-01
2.4499999999999993e+00 +8.5388346621735334e+00 +0.0000000000000000e+00 +2.4499999925611373e+00 -1.3498546748271531e-04 +0.0000000000000000e+00 +9.9999999088946168e-01
2.4999999999999991e+00 +8.5388278439955858e+00 +0.0000000000000000e+00 +2.4999999920962459e+00 -1.3774166479155116e-04 +0.0000000000000000e+00 +9.9999999051361677e-01
2.5499999999999989e+00 +8.5388208880055991e+00 +0.0000000000000000e+00 +2.5499999916123719e+00 -1.4049794935429413e-04 +0.0000000000000000e+00 +9.9999999013016294e-01
2.5999999999999988e+00 +8.5388137941991662e+00 +0.0000000000000000e+00 +2.5999999911091352e+00 -1.4325432292190403e-04 +0.0000000000000000e+00 +9.9999998973909932e-01
2.6499999999999986e+00 +8.5388065625717946e+00 +0.0000000000000000e+00 +2.6499999905861551e+00 -1.4601078723407626e-04 +0.0000000000000000e+00 +9.9999998934042489e-01
2.6999999999999984e+00 +8.5387991931189013e+00 +0.0000000000000000e+00 +2.6999999900430507e+00 -1.4876734401924200e-04 +0.0000000000000000e+00 +9.9999998893413855e-01
2.7499999999999982e+00 +8.5387916858358217e+00 +0.0000000000000000e+00 +2.7499999894794418e+00 -1.5152399499456813e-04 +0.0000000000000000e+00 +9.9999998852023930e-01
2.7999999999999980e+00 +8.5387840407178039e+00 +0.0000000000000000e+00 +2.7999999888949478e+00 -1.5428074186595736e-04 +0.0000000000000000e+00 +9.9999998809872614e-01
2.8499999999999979e+00 +8.5387762577600093e+00 +0.0000000000000000e+00 +2.8499999882891878e+00 -1.5703758632804819e-04 +0.0000000000000000e+00 +9.9999998766959808e-01
2.8999999999999977e+00 +8.5387683369575171e+00 +0.0000000000000000e+00 +2.8999999876617810e+00 -1.5979453006421506e-04 +0.0000000000000000e+00 +9.9999998723285388e-01
2.9499999999999975e+00 +8.5387602783053218e+00 +0.0000000000000000e+00 +2.9499999870123466e+00 -1.6255157474656833e-04 +0.0000000000000000e+00 +9.9999998678849256e-01
2.9999999999999973e+00 +8.5387520817983340e+00 +0.0000000000000000e+00 +2.9999999863405034e+00 -1.6530872203595430e-04 +0.0000000000000000e+00 +9.9999998633651299e-01
3.0499999999999972e+00 +8.5387437474313810e+00 +0.0000000000000000e+00 +3.0499999856458708e+00 -1.6806597358195535e-04 +0.0000000000000000e+00 +9.9999998587691408e-01
3.0999999999999970e+00 +8.5387352751992101e+00 +0.0000000000000000e+00 +3.0999999849280679e+00 -1.7082333102288991e-04 +0.0000000000000000e+00 +9.9999998540969459e-01
3.1499999999999968e+00 +8.5387266650964868e+00 +0.0000000000000000e+00 +3.1499999841867132e+00 -1.7358079598581248e-04 +0.0000000000000000e+00 +9.9999998493485343e-01
3.1999999999999966e+00 +8.5387179171177934e+00 +0.0000000000000000e+00 +3.1999999834214261e+00 -1.7633837008651371e-04 +0.0000000000000000e+00 +9.9999998445238936e-01
3.2499999999999964e+00 +8.5387090312576319e+00 +0.0000000000000000e+00 +3.2499999826318251e+00 -1.7909605492952047e-04 +0.0000000000000000e+00 +9.9999998396230128e-01
3.2999999999999963e+00 +8.5387000075104282e+00 +0.0000000000000000e+00 +3.2999999818175292e+00 -1.8185385210809580e-04 +0.0000000000000000e+00 +9.9999998346458796e-01
3.3499999999999961e+00 +8.5386908458705228e+00 +0.0000000000000000e+00 +3.3499999809781569e+00 -1.8461176320423901e-04 +0.0000000000000000e+00 +9.9999998295924819e-01
3.3999999999999959e+00 +8.5386815463321817e+00 +0.0000000000000000e+00 +3.3999999801133267e+00 -1.8736978978868568e-04 +0.0000000000000000e+00 +9.9999998244628063e-01
3.4499999999999957e+00 +8.5386721088895925e+00 +0.0000000000000000e+00 +3.4499999792226577e+00 -1.9012793342090768e-04 +0.0000000000000000e+00 +9.9999998192568418e-01
3.4999999999999956e+00 +8.5386625335368631e+00 +0.0000000000000000e+00 +3.4999999783057678e+00 -1.9288619564911328e-04 +0.0000000000000000e+00 +9.9999998139745749e-01
3.5499999999999954e+00 +8.5386528202680250e+00 +0.0000000000000000e+00 +3.5499999773622761e+00 -1.9564457801024706e-04 +0.0000000000000000e+00 +9.9999998086159925e-01
3.5999999999999952e+00 +8.5386429690770349e+00 +0.0000000000000000e+00 +3.5999999763918007e+00 -1.9840308202999005e-04 +0.0000000000000000e+00 +9.9999998031810822e-01
3.6499999999999950e+00 +8.5386329799577698e+00 +0.0000000000000000e+00 +3.6499999753939596e+00 -2.0116170922275967e-04 +0.0000000000000000e+00 +9.9999997976698307e-01
3.6999999999999948e+00 +8.5386228529040338e+00 +0.0000000000000000e+00 +3.6999999743683714e+00 -2.0392046109170980e-04 +0.0000000000000000e+00 +9.9999997920822248e-01
3.7499999999999947e+00 +8.5386125879095562e+00 +0.0000000000000000e+00 +3.7499999733146545e+00 -2.0667933912873083e-04 +0.0000000000000000e+00 +9.9999997864182510e-01
3.7999999999999945e+00 +8.5386021849679921e+00 +0.0000000000000000e+00 +3.7999999722324267e+00 -2.0943834481444961e-04 +0.0000000000000000e+00 +9.9999997806778962e-01
3.8499999999999943e+00 +8.5385916440729215e+00 +0.0000000000000000e+00 +3.8499999711213060e+00 -2.1219747961822951e-04 +0.0000000000000000e+00 +9.9999997748611458e-01
3.8999999999999941e+00 +8.5385809652178537e+00 +0.0000000000000000e+00 +3.8999999699809105e+00 -2.1495674499817045e-04 +0.0000000000000000e+00 +9.9999997689679865e-01
3.9499999999999940e+00 +8.5385701483962215e+00 +0.0000000000000000e+00 +3.9499999688108582e+00 -2.1771614240110888e-04 +0.0000000000000000e+00 +9.9999997629984039e-01
3.9999999999999938e+00 +8.5385591936013885e+00 +0.0000000000000000e+00 +3.9999999676107669e+00 -2.2047567326261786e-04 +0.0000000000000000e+00 +9.9999997569523846e-01
4.0499999999999936e+00 +8.5385481008266471e+00 +0.0000000000000000e+00 +4.0499999663802546e+00 -2.2323533900688543e-04 +0.0000000000000000e+00 +9.9999997508299143e-01
4.0999999999999934e+00 +8.5385368700652169e+00 +0.0000000000000000e+00 +4.0999999651189389e+00 -2.2599514104537681e-04 +0.0000000000000000e+00 +9.9999997446309785e-01
4.1499999999999932e+00 +8.5385255013102483e+00 +0.0000000000000000e+00 +4.1499999638264375e+00 -2.2875508077549678e-04 +0.0000000000000000e+00 +9.9999997383555628e-01
4.1999999999999931e+00 +8.5385139945548225e+00 +0.0000000000000000e+00 +4.1999999625023676e+00 -2.3151515958046802e-04 +0.0000000000000000e+00 +9.9999997320036516e-01
4.2499999999999929e+00 +8.5385023497919494e+00 +0.0000000000000000e+00 +4.2499999611463464e+00 -2.3427537882933109e-04 +0.0000000000000000e+00 +9.9999997255752315e-01
4.2999999999999927e+00 +8.5384905670145752e+00 +0.0000000000000000e+00 +4.2999999597579919e+00 -2.3703573987694454e-04 +0.0000000000000000e+00 +9.9999997190702872e-01
4.3499999999999925e+00 +8.5384786462155766e+00 +0.0000000000000000e+00 +4.3499999583369213e+00 -2.3979624406398478e-04 +0.0000000000000000e+00 +9.9999997124888040e-01
4.3999999999999924e+00 +8.5384665873877612e+00 +0.0000000000000000e+00 +4.3999999568827519e+00 -2.4255689271694626e-04 +0.0000000000000000e+00 +9.9999997058307666e-01
4.4499999999999922e+00 +8.5384543905238743e+00 +0.0000000000000000e+00 +4.4499999553951008e+00 -2.4531768714814139e-04 +0.0000000000000000e+00 +9.9999996990961593e-01
4.4999999999999920e+00 +8.5384420556165939e+00 +0.0000000000000000e+00 +4.4999999538735853e+00 -2.4807862865570046e-04 +0.0000000000000000e+00 +9.9999996922849677e-01
4.5499999999999918e+00 +8.5384295826585355e+00 +0.0000000000000000e+00 +4.5499999523178225e+00 -2.5083971852357185e-04 +0.0000000000000000e+00 +9.9999996853971751e-01
4.5999999999999917e+00 +8.5384169716422473e+00 +0.0000000000000000e+00 +4.5999999507274296e+00 -2.5360095802152191e-04 +0.0000000000000000e+00 +9.9999996784327672e-01
4.6499999999999915e+00 +8.5384042225602172e+00 +0.0000000000000000e+00 +4.6499999491020230e+00 -2.5636234840513493e-04 +0.0000000000000000e+00 +9.9999996713917283e-01
4.6999999999999913e+00 +8.5383913354048708e+00 +0.0000000000000000e+00 +4.6999999474412197e+00 -2.5912389091581317e-04 +0.0000000000000000e+00 +9.9999996642740419e-01
4.7499999999999911e+00 +8.5383783101685697e+00 +0.0000000000000000e+00 +4.7499999457446362e+00 -2.6188558678077702e-04 +0.0000000000000000e+00 +9.9999996570796934e-01
4.7999999999999909e+00 +8.5383651468436170e+00 +0.0000000000000000e+00 +4.7999999440118888e+00 -2.6464743721306470e-04 +0.0000000000000000e+00 +9.9999996498086663e-01
4.8499999999999908e+00 +8.5383518454222536e+00 +0.0000000000000000e+00 +4.8499999422425946e+00 -2.6740944341153256e-04 +0.0000000000000000e+00 +9.9999996424609439e-01
4.8999999999999906e+00 +8.5383384058966598e+00 +0.0000000000000000e+00 +4.8999999404363699e+00 -2.7017160656085491e-04 +0.0000000000000000e+00 +9.9999996350365106e-01
4.9499999999999904e+00 +8.5383248282589612e+00 +0.0000000000000000e+00 +4.9499999385928319e+00 -2.7293392783152407e-04 +0.0000000000000000e+00 +9.9999996275353509e-01
4.9999999999999902e+00 +8.5383111125012228e+00 +0.0000000000000000e+00 +4.9999999367115961e+00 -2.7569640837985025e-04 +0.0000000000000000e+00 +9.9999996199574470e-01
5.0499999999999901e+00 +8.5382972586154509e+00 +0.0000000000000000e+00 +5.0499999347922788e+00 -2.7845904934796175e-04 +0.0000000000000000e+00 +9.9999996123027834e-01
5.0999999999999899e+00 +8.5382832665935968e+00 +0.0000000000000000e+00 +5.0999999328344963e+00 -2.8122185186380482e-04 +0.0000000000000000e+00 +9.9999996045713446e-01
5.1499999999999897e+00 +8.5382691364275551e+00 +0.0000000000000000e+00 +5.1499999308378648e+00 -2.8398481704114371e-04 +0.0000000000000000e+00 +9.9999995967631128e-01
5.1999999999999895e+00 +8.5382548681091635e+00 +0.0000000000000000e+00 +5.1999999288019998e+00 -2.8674794597956059e-04 +0.0000000000000000e+00 +9.9999995888780713e-01
5.2499999999999893e+00 +8.5382404616302097e+00 +0.0000000000000000e+00 +5.2499999267265176e+00 -2.8951123976445558e-04 +0.0000000000000000e+00 +9.9999995809162034e-01
5.2999999999999892e+00 +8.5382259169824231e+00 +0.0000000000000000e+00 +5.2999999246110336e+00 -2.9227469946704676e-04 +0.0000000000000000e+00 +9.9999995728774926e-01
5.3499999999999890e+00 +8.5382112341574814e+00 +0.0000000000000000e+00 +5.3499999224551642e+00 -2.9503832614437015e-04 +0.0000000000000000e+00 +9.9999995647619222e-01
5.3999999999999888e+00 +8.5381964131470092e+00 +0.0000000000000000e+00 +5.3999999202585247e+00 -2.9780212083927972e-04 +0.0000000000000000e+00 +9.9999995565694755e-01
5.4499999999999886e+00 +8.5381814539425793e+00 +0.0000000000000000e+00 +5.4499999180207306e+00 -3.0056608458044724e-04 +0.0000000000000000e+00 +9.9999995483001347e-01
5.4999999999999885e+00 +8.5381663565357151e+00 +0.0000000000000000e+00 +5.4999999157413981e+00 -3.0333021838236242e-04 +0.0000000000000000e+00 +9.9999995399538832e-01
5.5499999999999883e+00 +8.5381511209178900e+00 +0.0000000000000000e+00 +5.5499999134201419e+00 -3.0609452324533283e-04 +0.0000000000000000e+00 +9.9999995315307044e-01
5.5999999999999881e+00 +8.5381357470805241e+00 +0.0000000000000000e+00 +5.5999999110565772e+00 -3.0885900015548395e-04 +0.0000000000000000e+00 +9.9999995230305805e-01
5.6499999999999879e+00 +8.5381202350149916e+00 +0.0000000000000000e+00 +5.6499999086503196e+00 -3.1162365008475899e-04 +0.0000000000000000e+00 +9.9999995144534937e-01
5.6999999999999877e+00 +8.5381045847126167e+00 +0.0000000000000000e+00 +5.6999999062009836e+00 -3.1438847399091908e-04 +0.0000000000000000e+00 +9.9999995057994273e-01
5.7499999999999876e+00 +8.5380887961646774e+00 +0.0000000000000000e+00 +5.7499999037081855e+00 -3.1715347281754302e-04 +0.0000000000000000e+00 +9.9999994970683637e-01
5.7999999999999874e+00 +8.5380728693624039e+00 +0.0000000000000000e+00 +5.7999999011715389e+00 -3.1991864749402740e-04 +0.0000000000000000e+00 +9.9999994882602850e-01
5.8499999999999872e+00 +8.5380568042969820e+00 +0.0000000000000000e+00 +5.8499998985906592e+00 -3.2268399893558663e-04 +0.0000000000000000e+00 +9.9999994793751734e-01
5.8999999999999870e+00 +8.5380406009595493e+00 +0.0000000000000000e+00 +5.8999998959651618e+00 -3.2544952804325279e-04 +0.0000000000000000e+00 +9.9999994704130124e-01
