# multipoles
# s[mm] polynom_b[n=0][T/m^n] polynom_b[n=1][T/m^n] polynom_b[n=2][T/m^n] polynom_b[n=3][T/m^n] polynom_b[n=4][T/m^n] polynom_b[n=5][T/m^n] polynom_b[n=6][T/m^n] 
+0.0000000000000000e+00 -5.2400978297008105e-01 +6.8948292840806085e+00 +4.2420586430195497e+00 -4.5976934380910492e+01 +8.0144837064417843e+03 +1.3699225884244870e+04 -3.1102956500813771e+07 
+5.0000000000000003e-02 -5.2400837251380727e-01 +6.8946945109250768e+00 +4.2498704657804964e+00 -4.6044284109841293e+01 +7.9663151524818677e+03 +1.3845759410874845e+04 -3.0931017295218322e+07 
+1.0000000000000001e-01 -5.2400732002630734e-01 +6.8945788499507090e+00 +4.2569859112171491e+00 -4.6084644428531675e+01 +7.9226646338979281e+03 +1.3809877358310590e+04 -3.0785361159330778e+07 
+1.4999999999999999e-01 -5.2400662511697382e-01 +6.8944822886904733e+00 +4.2634143949121555e+00 -4.6098921022364507e+01 +7.8833884762453472e+03 +1.3598363990844689e+04 -3.0665156189182259e+07 
+2.0000000000000001e-01 -5.2400628739508959e-01 +6.8944048146781194e+00 +4.2691653264654219e+00 -4.6088019560653116e+01 +7.8483431567679909e+03 +1.3218003402424603e+04 -3.0569571469665330e+07 
+2.5000000000000000e-01 -5.2400630647008384e-01 +6.8943464154519116e+00 +4.2742481196788420e+00 -4.6052845865259904e+01 +7.8173850467911607e+03 +1.2675580926571751e+04 -3.0497775396558624e+07 
+2.9999999999999999e-01 -5.2400668195131661e-01 +6.8943070785454932e+00 +4.2786721872410300e+00 -4.5994305538802486e+01 +7.7903705399101764e+03 +1.1977880123225284e+04 -3.0448936489166569e+07 
+3.4999999999999998e-01 -5.2400741344817603e-01 +6.8942867914966746e+00 +4.2824469388689153e+00 -4.5913304310284737e+01 +7.7671561143725539e+03 +1.1131685535574254e+04 -3.0422223854331180e+07 
+4.0000000000000002e-01 -5.2400850057009107e-01 +6.8942855418456315e+00 +4.2855817887192655e+00 -4.5810747991349352e+01 +7.7475981257735848e+03 +1.0143782463313277e+04 -3.0416805760425504e+07 
+4.5000000000000001e-01 -5.2400994292652670e-01 +6.8943033171308308e+00 +4.2880861496165501e+00 -4.5687542272629614e+01 +7.7315529677846725e+03 +9.0209551297026192e+03 -3.0431850741510995e+07 
+5.0000000000000000e-01 -5.2401174012690055e-01 +6.8943401048916897e+00 +4.2899694323478119e+00 -4.5544592853795038e+01 +7.7188770848509175e+03 +7.7699878551701977e+03 -3.0466527658751104e+07 
+5.5000000000000004e-01 -5.2401389178065672e-01 +6.8943958926715627e+00 +4.2912410490466080e+00 -4.5382805567822238e+01 +7.7094268871471195e+03 +6.3976660629282778e+03 -3.0520005150292411e+07 
+5.9999999999999998e-01 -5.2401639749733087e-01 +6.8944706680106442e+00 +4.2919104118829141e+00 -4.5203086083110051e+01 +7.7030587831824078e+03 +4.9107737993392038e+03 -3.0591451840183582e+07 
+6.5000000000000002e-01 -5.2401925688640072e-01 +6.8945644184540287e+00 +4.2919869330835052e+00 -4.5006340238702116e+01 +7.6996291800474137e+03 +3.3160965347341244e+03 -3.0680036345188674e+07 
+6.9999999999999996e-01 -5.2402246955739473e-01 +6.8946771315448956e+00 +4.2914800223501235e+00 -4.4793473762591027e+01 +7.6989945508647816e+03 +1.6204188044480522e+03 -3.0784927721136022e+07 
+7.5000000000000000e-01 -5.2402603511980883e-01 +6.8948087948274148e+00 +4.2903990934668395e+00 -4.4565392392828720e+01 +7.7010112593183567e+03 -1.6947475613095503e+02 -3.0905294284648433e+07 
+8.0000000000000004e-01 -5.2402995318324430e-01 +6.8949593958476809e+00 +4.2887535585360013e+00 -4.4323001914991714e+01 +7.7055357166414715e+03 -2.0467991433644925e+03 -3.1040304686850138e+07 
+8.4999999999999998e-01 -5.2403422335723271e-01 +6.8951289221518666e+00 +4.2865528277776646e+00 -4.4067208089362460e+01 +7.7124243783082466e+03 -4.0047695433103704e+03 -3.1189127850201964e+07 
+9.0000000000000002e-01 -5.2403884525135747e-01 +6.8953173612883063e+00 +4.2838063129514303e+00 -4.3798916729802791e+01 +7.7215336655419533e+03 -6.0366007216917151e+03 -3.1350932495895725e+07 
+9.4999999999999996e-01 -5.2404381847525172e-01 +6.8955247008051055e+00 +4.2805234274013797e+00 -4.3519033615822593e+01 +7.7327199528298970e+03 -8.1355077219858213e+03 -3.1524887015815016e+07 
+1.0000000000000000e+00 -5.2404914263846658e-01 +6.8957509282477547e+00 +4.2767135804517116e+00 -4.3228464393523694e+01 +7.7458397220071183e+03 -1.0294706649069154e+04 -3.1710160520913720e+07 
+1.0500000000000000e+00 -5.2405481735066872e-01 +6.8959960311694104e+00 +4.2723861855226026e+00 -4.2928114984885994e+01 +7.7607493479462883e+03 -1.2507411398617038e+04 -3.1905921417200997e+07 
+1.1000000000000001e+00 -5.2406084222152560e-01 +6.8962599971190182e+00 +4.2675506534090593e+00 -4.2618891120889238e+01 +7.7773052727280601e+03 -1.4766837392697054e+04 -3.2111338549761079e+07 
+1.1499999999999999e+00 -5.2406721686067703e-01 +6.8965428136468434e+00 +4.2622163961065507e+00 -4.2301698553731001e+01 +7.7953639067209051e+03 -1.7066199881843797e+04 -3.2325580554102883e+07 
+1.2000000000000000e+00 -5.2407394087780801e-01 +6.8968444683049048e+00 +4.2563928258988852e+00 -4.1977443080094041e+01 +7.8147816556172074e+03 -1.9398713769416652e+04 -3.2547816045485519e+07 
+1.2500000000000000e+00 -5.2408101388260597e-01 +6.8971649486442486e+00 +4.2500893531459907e+00 -4.1647030428934166e+01 +7.8354149730475538e+03 -2.1757594492358374e+04 -3.2777213951711424e+07 
+1.3000000000000000e+00 -5.2408843548481532e-01 +6.8975042422178285e+00 +4.2433153906414560e+00 -4.1311366383775457e+01 +7.8571202494891431e+03 -2.4136057050319676e+04 -3.3012942782505378e+07 
+1.3500000000000001e+00 -5.2409620529411893e-01 +6.8978623365794869e+00 +4.2360803510521672e+00 -4.0971356735159780e+01 +7.8797538770353713e+03 -2.6527316363146823e+04 -3.3254171053742081e+07 
+1.3999999999999999e+00 -5.2410432292030329e-01 +6.8982392192835951e+00 +4.2283936444410610e+00 -4.0627907268645487e+01 +7.9031723206997813e+03 -2.8924587419752170e+04 -3.3500067784403965e+07 
+1.4500000000000000e+00 -5.2411278797310901e-01 +6.8986348778827615e+00 +4.2202646835481943e+00 -4.0281923675756566e+01 +7.9272319733776840e+03 -3.1321085939354107e+04 -3.3749801510961287e+07 
+1.5000000000000000e+00 -5.2412160006231290e-01 +6.8990492999327930e+00 +4.2117028801419067e+00 -3.9934311749091393e+01 +7.9517892510080746e+03 -3.3710026840164952e+04 -3.4002540909646921e+07 
+1.5500000000000000e+00 -5.2413075879771376e-01 +6.8994824729897886e+00 +4.2027176470191874e+00 -3.9585977269088339e+01 +7.9767005450642673e+03 -3.6084625123872029e+04 -3.4257454509622753e+07 
+1.6000000000000001e+00 -5.2414026378914502e-01 +6.8999343846064649e+00 +4.1933183960714899e+00 -3.9237825863572532e+01 +8.0018222703306537e+03 -3.8438097005246767e+04 -3.4513710993391514e+07 
+1.6499999999999999e+00 -5.2415011464638184e-01 +6.9004050223427402e+00 +4.1835145389489270e+00 -3.8890763410012262e+01 +8.0270108517426606e+03 -4.0763656716381207e+04 -3.4770479127618000e+07 
+1.7000000000000000e+00 -5.2416031097931881e-01 +6.9008943737545509e+00 +4.1733154884635404e+00 -3.8545695621056652e+01 +8.0521226789140474e+03 -4.3054519766884849e+04 -3.5026927426557384e+07 
+1.7500000000000000e+00 -5.2417085239781636e-01 +6.9014024263966700e+00 +4.1627306573248593e+00 -3.8203528125590168e+01 +8.0770141442533259e+03 -4.5303902383543282e+04 -3.5282224425138921e+07 
+1.8000000000000000e+00 -5.2418173851169658e-01 +6.9019291678303203e+00 +4.1517694571019836e+00 -3.7865166793882651e+01 +8.1015416770790262e+03 -4.7505018803750965e+04 -3.5535538931647241e+07 
+1.8500000000000001e+00 -5.2419296893088707e-01 +6.9024745856101601e+00 +4.1404413025639224e+00 -3.7531517210304898e+01 +8.1255616149571497e+03 -4.9651085589882641e+04 -3.5786039117335625e+07 
+1.8999999999999999e+00 -5.2420454326530785e-01 +6.9030386672961415e+00 +4.1287556040242794e+00 -3.7203485151154709e+01 +8.1489304200058868e+03 -5.1735317735300086e+04 -3.6032894012748614e+07 
+1.9500000000000000e+00 -5.2421646112483322e-01 +6.9036214004465934e+00 +4.1167217744441080e+00 -3.6881976302771676e+01 +8.1715044802892608e+03 -5.3750930945508946e+04 -3.6275272138222300e+07 
+2.0000000000000000e+00 -5.2422861653976949e-01 +6.9042175760772455e+00 +4.1044540690950067e+00 -3.6570352820612719e+01 +8.1929873660588401e+03 -5.5676272386962475e+04 -3.6510485226710312e+07 
+2.0499999999999998e+00 -5.2424110752080533e-01 +6.9048319329250267e+00 +4.0918542986305795e+00 -3.6265871820741438e+01 +8.2135621343527637e+03 -5.7528410474224940e+04 -3.6740414815818310e+07 
+2.1000000000000001e+00 -5.2425393228857520e-01 +6.9054643249201098e+00 +4.0789236613674404e+00 -3.5968367385797464e+01 +8.2332416541192906e+03 -5.9308337692577603e+04 -3.6964984752199382e+07 
+2.1499999999999999e+00 -5.2426708906372377e-01 +6.9061146059967147e+00 +4.0656633599448257e+00 -3.5677673743965691e+01 +8.2520386776712458e+03 -6.1017045373327397e+04 -3.7184118093897350e+07 
+2.2000000000000002e+00 -5.2428057606690348e-01 +6.9067826300909889e+00 +4.0520745914562637e+00 -3.5393625173028667e+01 +8.2699661084087638e+03 -6.2655524484515379e+04 -3.7397738925307289e+07 
+2.2500000000000000e+00 -5.2429439151882662e-01 +6.9074682511344117e+00 +4.0381585574780630e+00 -3.5116055742708049e+01 +8.2870367259614140e+03 -6.4224767707051957e+04 -3.7605770485363036e+07 
+2.2999999999999998e+00 -5.2430853364014007e-01 +6.9081713230662949e+00 +4.0239164546239126e+00 -3.4844799824752798e+01 +8.3032634466025338e+03 -6.5725765250523982e+04 -3.7808136948562525e+07 
+2.3500000000000001e+00 -5.2432300065161142e-01 +6.9088916998190832e+00 +4.0093494856697953e+00 -3.4579691488961380e+01 +8.3186590184258675e+03 -6.7159509827293965e+04 -3.8004761344459221e+07 
+2.3999999999999999e+00 -5.2433779077386533e-01 +6.9096292353307209e+00 +3.9944588483311252e+00 -3.4320564993178834e+01 +8.3332363256031349e+03 -6.8526992680006908e+04 -3.8195567623328440e+07 
+2.4500000000000002e+00 -5.2435290222767061e-01 +6.9103837835388067e+00 +3.9792457417308476e+00 -3.4067254591001358e+01 +8.3470082161658756e+03 -6.9829204998279238e+04 -3.8380479498438895e+07 
+2.5000000000000000e+00 -5.2436833323374243e-01 +6.9111551983800261e+00 +3.9637113669189259e+00 -3.3819594446478824e+01 +8.3599874841692563e+03 -7.1067138853568016e+04 -3.8559420312408477e+07 
+2.5499999999999998e+00 -5.2438408201282083e-01 +6.9119433337927410e+00 +3.9478569232028549e+00 -3.3577418797226045e+01 +8.3721869703108423e+03 -7.2241785642259812e+04 -3.8732313721796729e+07 
+2.6000000000000001e+00 -5.2440014678571500e-01 +6.9127480437153306e+00 +3.9316836115162821e+00 -3.3340561846739341e+01 +8.3836194689949934e+03 -7.3354137134515535e+04 -3.8899083061486572e+07 
+2.6499999999999999e+00 -5.2441652577311670e-01 +6.9135691820865723e+00 +3.9151926276436897e+00 -3.3108857799503411e+01 +8.3942979202120532e+03 -7.4405185083542921e+04 -3.9059652679225817e+07 
+2.7000000000000002e+00 -5.2443321719581448e-01 +6.9144066028481088e+00 +3.8983851742749143e+00 -3.2882140958070082e+01 +8.4042350700562820e+03 -7.5395920475863124e+04 -3.9213945581353672e+07 
+2.7500000000000000e+00 -5.2445021927461155e-01 +6.9152601599380681e+00 +3.8812624503726143e+00 -3.2660245466448188e+01 +8.4134437680817609e+03 -7.6327335614483949e+04 -3.9361885486414328e+07 
+2.7999999999999998e+00 -5.2446753023027914e-01 +6.9161297072982366e+00 +3.8638256564312248e+00 -3.2443005584993820e+01 +8.4219368235910933e+03 -7.7200421927492134e+04 -3.9503395847440049e+07 
+2.8500000000000001e+00 -5.2448514828364001e-01 +6.9170150988704808e+00 +3.8460759917744380e+00 -3.2230255581020181e+01 +8.4297270738641491e+03 -7.8016170738339511e+04 -3.9638400291476622e+07 
+2.8999999999999999e+00 -5.2450307165549903e-01 +6.9179161885952531e+00 +3.8280146554783951e+00 -3.2021829627130920e+01 +8.4368273628774732e+03 -7.8775574246873934e+04 -3.9766822493834853e+07 
+2.9500000000000002e+00 -5.2452129856662877e-01 +6.9188328304146323e+00 +3.8096428478244642e+00 -3.1817561946477667e+01 +8.4432505051720891e+03 -7.9479624256995201e+04 -3.9888585942120753e+07 
+3.0000000000000000e+00 -5.2453982723790737e-01 +6.9197648782743606e+00 +3.7909617689527373e+00 -3.1617286911659512e+01 +8.4490093144807361e+03 -8.0129311328441850e+04 -4.0003614101824582e+07 
+3.0499999999999998e+00 -5.2455865589016981e-01 +6.9207121861148337e+00 +3.7719726184499529e+00 -3.1420838630963733e+01 +8.4541166222862830e+03 -8.0725628326715159e+04 -4.0111830571257316e+07 
+3.1000000000000001e+00 -5.2457778274422540e-01 +6.9216746078816742e+00 +3.7526765946911764e+00 -3.1228051430726868e+01 +8.4585852903293162e+03 -8.1269566275426754e+04 -4.0213159143655889e+07 
+3.1499999999999999e+00 -5.2459720602099058e-01 +6.9226519975181855e+00 +3.7330749001676713e+00 -3.1038759517279502e+01 +8.4624280681254295e+03 -8.1762117263455162e+04 -4.0307522850959919e+07 
+3.2000000000000002e+00 -5.2461692394123927e-01 +6.9236442089704511e+00 +3.7131687327082927e+00 -3.0852797191969511e+01 +8.4656578356954778e+03 -8.2204272629931613e+04 -4.0394845626213595e+07 
+3.2500000000000000e+00 -5.2463693472586714e-01 +6.9246510961836547e+00 +3.6929592931529034e+00 -3.0669998708738540e+01 +8.4682873835827431e+03 -8.2597024131078477e+04 -4.0475050765674673e+07 
+3.2999999999999998e+00 -5.2465723659576602e-01 +6.9256725131016861e+00 +3.6724477798987509e+00 -3.0490198243927214e+01 +8.4703295735711363e+03 -8.2941364232907596e+04 -4.0548062069010936e+07 
+3.3500000000000001e+00 -5.2467782777183258e-01 +6.9267083136756016e+00 +3.6516353956930172e+00 -3.0313230254729216e+01 +8.4717971474764017e+03 -8.3238283119856365e+04 -4.0613802518089905e+07 
+3.3999999999999999e+00 -5.2469870647491057e-01 +6.9277583518467551e+00 +3.6305233367407048e+00 -3.0138928793337772e+01 +8.4727030271238273e+03 -8.3488774314885217e+04 -4.0672196324070454e+07 
+3.4500000000000002e+00 -5.2471987092593020e-01 +6.9288224815673978e+00 +3.6091128053805241e+00 -2.9967128327315145e+01 +8.4730599570245176e+03 -8.3693828029859258e+04 -4.0723166453456111e+07 
+3.5000000000000000e+00 -5.2474131934577095e-01 +6.9299005567841441e+00 +3.5874050015382002e+00 -2.9797663086889060e+01 +8.4728807605095408e+03 -8.3854436437104407e+04 -4.0766636461284645e+07 
+3.5499999999999998e+00 -5.2476304995533019e-01 +6.9309924314435030e+00 +3.5654011236822423e+00 -2.9630367278204947e+01 +8.4721782906133576e+03 -8.3971591973570845e+04 -4.0802530067771018e+07 
+3.6000000000000001e+00 -5.2478506097557687e-01 +6.9320979594972050e+00 +3.5431023724565929e+00 -2.9465075317521130e+01 +8.4709653437901379e+03 -8.4046285360053502e+04 -4.0830770617089473e+07 
+3.6499999999999999e+00 -5.2480735062735817e-01 +6.9332169948931783e+00 +3.5205099486068070e+00 -2.9301621428437684e+01 +8.4692547123789063e+03 -8.4079509009270769e+04 -4.0851281424392290e+07 
+3.6999999999999900e+00 -5.2482991713166371e-01 +6.9343493915811409e+00 +3.4976250499235926e+00 -2.9139839920357382e+01 +8.4670592699087319e+03 -8.4072254607683848e+04 -4.0863986356909081e+07 
+3.7499999999999898e+00 -5.2485275870935788e-01 +6.9354950035132088e+00 +3.4744488781867773e+00 -2.8979565160546191e+01 +8.4643917793101173e+03 -8.4025513488513345e+04 -4.0868808526791960e+07 
+3.7999999999999901e+00 -5.2487587358142884e-01 +6.9366536846387126e+00 +3.4509826335556517e+00 -2.8820631408182773e+01 +8.4612650491612894e+03 -8.3940277867439203e+04 -4.0865671360843405e+07 
+3.8499999999999899e+00 -5.2489925996880937e-01 +6.9378252889109202e+00 +3.4272275145548918e+00 -2.8662873055004855e+01 +8.4576919283517600e+03 -8.3817538973651113e+04 -4.0854498543425344e+07 
+3.8999999999999901e+00 -5.2492291609242381e-01 +6.9390096702798809e+00 +3.4031847222666514e+00 -2.8506124357435091e+01 +8.4536851971733486e+03 -8.3658289160621047e+04 -4.0835213303883396e+07 
+3.9499999999999900e+00 -5.2494684013539261e-01 +6.9402066822777888e+00 +3.3788557530832910e+00 -2.8350219390351835e+01 +8.4492550187540437e+03 -8.3463558864054547e+04 -4.0807738233192429e+07 
+3.9999999999999898e+00 -5.2497102984099042e-01 +6.9414161665897618e+00 +3.3542456807553140e+00 -2.8195043433162297e+01 +8.4443818133545192e+03 -8.3234379667477129e+04 -4.0771987355578318e+07 
+4.0499999999999901e+00 -5.2499548266856921e-01 +6.9426379539523628e+00 +3.3293619875429821e+00 -2.8040541548874796e+01 +8.4390275147069133e+03 -8.2971574591092503e+04 -4.0727871573821142e+07 
+4.0999999999999899e+00 -5.2502019607273198e-01 +6.9438718747754438e+00 +3.3042121945847134e+00 -2.7886661267423662e+01 +8.4331540147826545e+03 -8.2675952495643549e+04 -4.0675303454060398e+07 
+4.1499999999999897e+00 -5.2504516750822161e-01 +6.9451177594662070e+00 +3.2788038296776425e+00 -2.7733350011730810e+01 +8.4267230238163829e+03 -8.2348323142973633e+04 -4.0614194326493904e+07 
+4.1999999999999904e+00 -5.2507039442963988e-01 +6.9463754384315255e+00 +3.2531444172772868e+00 -2.7580555191501610e+01 +8.4196963416268645e+03 -8.1989496367208209e+04 -4.0544456121973507e+07 
+4.2499999999999902e+00 -5.2509587429166416e-01 +6.9476447420783707e+00 +3.2272414817388984e+00 -2.7428224221534823e+01 +8.4120357719833355e+03 -8.1600281978940300e+04 -4.0466000805901207e+07 
+4.2999999999999901e+00 -5.2512160454893142e-01 +6.9489255008147293e+00 +3.2011025489675240e+00 -2.7276304565010584e+01 +8.4037030733556603e+03 -8.1181489348917123e+04 -4.0378740022270463e+07 
+4.3499999999999899e+00 -5.2514758265610917e-01 +6.9502175450473231e+00 +3.1747351447297691e+00 -2.7124743645644767e+01 +8.3946600156750592e+03 -8.0733928141729644e+04 -4.0282585521519527e+07 
+4.3999999999999897e+00 -5.2517380606787178e-01 +6.9515207051819967e+00 +3.1481467922709747e+00 -2.6973488833795457e+01 +8.3848684288228815e+03 -8.0258408533354872e+04 -4.0177449429105043e+07 
+4.4499999999999904e+00 -5.2520027223889110e-01 +6.9528348116255465e+00 +3.1213450184616880e+00 -2.6822487558226008e+01 +8.3742900447440134e+03 -7.9755740145809687e+04 -4.0063243207533404e+07 
+4.4999999999999902e+00 -5.2522697862378120e-01 +6.9541596947809721e+00 +3.0943373481995047e+00 -2.6671687107164185e+01 +8.3628866550124385e+03 -7.9226733696779818e+04 -3.9939878746468887e+07 
+4.5499999999999901e+00 -5.2525392267730098e-01 +6.9554951850566606e+00 +3.0671313056936254e+00 -2.6521034982126007e+01 +8.3506200631842821e+03 -7.8672198223015977e+04 -3.9807267990236312e+07 
+4.5999999999999899e+00 -5.2528110185399390e-01 +6.9568411128557379e+00 +3.0397344166527200e+00 -2.6370478481406096e+01 +8.3374520365246226e+03 -7.8092944345466458e+04 -3.9665322653741300e+07 
+4.6499999999999897e+00 -5.2530851360860187e-01 +6.9581973085825908e+00 +3.0121542066948495e+00 -2.6219964959942288e+01 +8.3233443422579257e+03 -7.7489782253600672e+04 -3.9513954444001764e+07 
+4.6999999999999904e+00 -5.2533615539579404e-01 +6.9595636026421426e+00 +2.9843982015731974e+00 -2.6069441808909485e+01 +8.3082587435622409e+03 -7.6863521787143167e+04 -3.9353075034074038e+07 
+4.7499999999999902e+00 -5.2536402467019938e-01 +6.9609398254365225e+00 +2.9564739246737424e+00 -2.5918856312376175e+01 +8.2921570684004764e+03 -7.6214973648009138e+04 -3.9182596542958558e+07 
+4.7999999999999901e+00 -5.2539211888651072e-01 +6.9623258073700232e+00 +2.9283889017858757e+00 -2.5768155853358124e+01 +8.2750010782906356e+03 -7.5544947709771077e+04 -3.9002430629651673e+07 
+4.8499999999999899e+00 -5.2542043549940953e-01 +6.9637213788428802e+00 +2.9001506567025648e+00 -2.5617287656267496e+01 +8.2567525916548566e+03 -7.4854255137657718e+04 -3.8812489351256810e+07 
+4.8999999999999897e+00 -5.2544897196347895e-01 +6.9651263702607134e+00 +2.8717667183770423e+00 -2.5466199178732040e+01 +8.2373732869289579e+03 -7.4143705137221055e+04 -3.8612683815534838e+07 
+4.9499999999999904e+00 -5.2547753138655684e-01 +6.9665310506117422e+00 +2.8434374833918459e+00 -2.5315865572212740e+01 +8.2169674341898517e+03 -7.3419080824064673e+04 -3.8404372171909086e+07 
+4.9999999999999902e+00 -5.2550630270896304e-01 +6.9679446908358615e+00 +2.8149793101795919e+00 -2.5165211035856512e+01 +8.1953708708666400e+03 -7.2676459852785847e+04 -3.8186155776073828e+07 
+5.0499999999999901e+00 -5.2553528343644207e-01 +6.9693671247381275e+00 +2.7863995740563703e+00 -2.5014183883719081e+01 +8.1725461111242275e+03 -7.1916636720687602e+04 -3.7957947973187782e+07 
