# field on trajectory
# s[mm] rx[mm] ry[mm] rz[mm] bx[T] by[T] bz[T]
0.0000000000000000e+00 +8.5980000000000008e+00 +0.0000000000000000e+00 +0.0000000000000000e+00 -2.9142381986751793e-02 -5.5441853977034572e-01 +5.6887814914777400e-03
-5.0000000000000003e-02 +8.5979999307658304e+00 +0.0000000000000000e+00 -4.9999999999936082e-02 -2.9142492638632389e-02 -5.5441814705646575e-01 +5.6888211762490953e-03
-1.0000000000000001e-01 +8.5979997230633725e+00 +0.0000000000000000e+00 -9.9999999999488692e-02 -2.9142616102211312e-02 -5.5441808846412932e-01 +5.6888615026610108e-03
-1.5000000000000002e-01 +8.5979993768926413e+00 +0.0000000000000000e+00 -1.4999999999827437e-01 -2.9142752614862474e-02 -5.5441836345911577e-01 +5.6889024373370720e-03
-2.0000000000000001e-01 +8.5979988922535675e+00 +0.0000000000000000e+00 -1.9999999999590964e-01 -2.9142902413959827e-02 -5.5441897150722075e-01 +5.6889439469009094e-03
-2.5000000000000000e-01 +8.5979982691460002e+00 +0.0000000000000000e+00 -2.4999999999201103e-01 -2.9143065736877416e-02 -5.5441991207425423e-01 +5.6889859979761953e-03
-2.9999999999999999e-01 +8.5979975075697030e+00 +0.0000000000000000e+00 -2.9999999998619509e-01 -2.9143242820989491e-02 -5.5442118462604184e-01 +5.6890285571866575e-03
-3.4999999999999998e-01 +8.5979966075243599e+00 +0.0000000000000000e+00 -3.4999999997807829e-01 -2.9143433903670579e-02 -5.5442278862842465e-01 +5.6890715911560733e-03
-3.9999999999999997e-01 +8.5979955690095693e+00 +0.0000000000000000e+00 -3.9999999996727720e-01 -2.9143639222295528e-02 -5.5442472354725814e-01 +5.6891150665082553e-03
-4.4999999999999996e-01 +8.5979943920248481e+00 +0.0000000000000000e+00 -4.4999999995340828e-01 -2.9143859014239618e-02 -5.5442698884841390e-01 +5.6891589498670857e-03
-4.9999999999999994e-01 +8.5979930765696295e+00 +0.0000000000000000e+00 -4.9999999993608807e-01 -2.9144093516878647e-02 -5.5442958399777909e-01 +5.6892032078564919e-03
-5.4999999999999993e-01 +8.5979916226432671e+00 +0.0000000000000000e+00 -5.4999999991493309e-01 -2.9144342967588957e-02 -5.5443250846125525e-01 +5.6892478071004443e-03
-5.9999999999999998e-01 +8.5979900302450289e+00 +0.0000000000000000e+00 -5.9999999988955977e-01 -2.9144607603747586e-02 -5.5443576170476006e-01 +5.6892927142229788e-03
-6.5000000000000002e-01 +8.5979882993741032e+00 +0.0000000000000000e+00 -6.4999999985958468e-01 -2.9144887662732231e-02 -5.5443934319422605e-01 +5.6893378958481804e-03
-7.0000000000000007e-01 +8.5979864300295965e+00 +0.0000000000000000e+00 -6.9999999982462424e-01 -2.9145183381921499e-02 -5.5444325239560188e-01 +5.6893833186001932e-03
-7.5000000000000011e-01 +8.5979844222105317e+00 +0.0000000000000000e+00 -7.4999999978429488e-01 -2.9145494998694808e-02 -5.5444748877485150e-01 +5.6894289491032186e-03
-8.0000000000000016e-01 +8.5979822759158502e+00 +0.0000000000000000e+00 -7.9999999973821312e-01 -2.9145822750432558e-02 -5.5445205179795343e-01 +5.6894747539815100e-03
-8.5000000000000020e-01 +8.5979799911444132e+00 +0.0000000000000000e+00 -8.4999999968599538e-01 -2.9146166874516193e-02 -5.5445694093090292e-01 +5.6895206998593840e-03
-9.0000000000000024e-01 +8.5979775678949988e+00 +0.0000000000000000e+00 -8.9999999962725807e-01 -2.9146527608328261e-02 -5.5446215563970991e-01 +5.6895667533612146e-03
-9.5000000000000029e-01 +8.5979750061663065e+00 +0.0000000000000000e+00 -9.4999999956161751e-01 -2.9146905189252531e-02 -5.5446769539040075e-01 +5.6896128811114374e-03
-1.0000000000000002e+00 +8.5979723059569508e+00 +0.0000000000000000e+00 -9.9999999948869023e-01 -2.9147299854674041e-02 -5.5447355964901635e-01 +5.6896590497345556e-03
-1.0500000000000003e+00 +8.5979694672654681e+00 +0.0000000000000000e+00 -1.0499999994080926e+00 -2.9147711841979135e-02 -5.5447974788161403e-01 +5.6897052258551243e-03
-1.1000000000000003e+00 +8.5979664900903128e+00 +0.0000000000000000e+00 -1.0999999993194409e+00 -2.9148141388555631e-02 -5.5448625955426611e-01 +5.6897513760977682e-03
-1.1500000000000004e+00 +8.5979633744298578e+00 +0.0000000000000000e+00 -1.1499999992223515e+00 -2.9148588731792831e-02 -5.5449309413306136e-01 +5.6897974670871770e-03
-1.2000000000000004e+00 +8.5979601202823961e+00 +0.0000000000000000e+00 -1.1999999991164407e+00 -2.9149054109081630e-02 -5.5450025108410372e-01 +5.6898434654481054e-03
-1.2500000000000004e+00 +8.5979567276461406e+00 +0.0000000000000000e+00 -1.2499999990013249e+00 -2.9149537757814550e-02 -5.5450772987351271e-01 +5.6898893378053731e-03
-1.3000000000000005e+00 +8.5979531965192244e+00 +0.0000000000000000e+00 -1.2999999988766202e+00 -2.9150039915385888e-02 -5.5451552996742404e-01 +5.6899350507838738e-03
-1.3500000000000005e+00 +8.5979495268996988e+00 +0.0000000000000000e+00 -1.3499999987419431e+00 -2.9150560819191731e-02 -5.5452365083198896e-01 +5.6899805710085563e-03
-1.4000000000000006e+00 +8.5979457187855353e+00 +0.0000000000000000e+00 -1.3999999985969098e+00 -2.9151100706630066e-02 -5.5453209193337405e-01 +5.6900258651044564e-03
-1.4500000000000006e+00 +8.5979417721746270e+00 +0.0000000000000000e+00 -1.4499999984411365e+00 -2.9151659815100827e-02 -5.5454085273776277e-01 +5.6900708996966663e-03
-1.5000000000000007e+00 +8.5979376870647837e+00 +0.0000000000000000e+00 -1.4999999982742394e+00 -2.9152238382006021e-02 -5.5454993271135333e-01 +5.6901156414103605e-03
-1.5500000000000007e+00 +8.5979334634537388e+00 +0.0000000000000000e+00 -1.5499999980958346e+00 -2.9152836644749752e-02 -5.5455933132036084e-01 +5.6901600568707803e-03
-1.6000000000000008e+00 +8.5979291013391457e+00 +0.0000000000000000e+00 -1.5999999979055382e+00 -2.9153454840738321e-02 -5.5456904803101514e-01 +5.6902041127032382e-03
-1.6500000000000008e+00 +8.5979246007185779e+00 +0.0000000000000000e+00 -1.6499999977029662e+00 -2.9154093207380348e-02 -5.5457908230956288e-01 +5.6902477755331280e-03
-1.7000000000000008e+00 +8.5979199615895272e+00 +0.0000000000000000e+00 -1.6999999974877351e+00 -2.9154751982086752e-02 -5.5458943362226654e-01 +5.6902910119859141e-03
-1.7500000000000009e+00 +8.5979151839494108e+00 +0.0000000000000000e+00 -1.7499999972594606e+00 -2.9155431402270910e-02 -5.5460010143540439e-01 +5.6903337886871413e-03
-1.8000000000000009e+00 +8.5979102677955623e+00 +0.0000000000000000e+00 -1.7999999970177589e+00 -2.9156131705348708e-02 -5.5461108521527069e-01 +5.6903760722624309e-03
-1.8500000000000010e+00 +8.5979052131252409e+00 +0.0000000000000000e+00 -1.8499999967622460e+00 -2.9156853128738607e-02 -5.5462238442817557e-01 +5.6904178293374838e-03
-1.9000000000000010e+00 +8.5979000199356221e+00 +0.0000000000000000e+00 -1.8999999964925378e+00 -2.9157595909861715e-02 -5.5463399854044571e-01 +5.6904590265380740e-03
-1.9500000000000011e+00 +8.5978946882238070e+00 +0.0000000000000000e+00 -1.9499999962082504e+00 -2.9158360286141934e-02 -5.5464592701842319e-01 +5.6904996304900663e-03
-2.0000000000000009e+00 +8.5978892179868165e+00 +0.0000000000000000e+00 -1.9999999959089996e+00 -2.9159146495005926e-02 -5.5465816932846679e-01 +5.6905396078194030e-03
-2.0500000000000007e+00 +8.5978836092215918e+00 +0.0000000000000000e+00 -2.0499999955944013e+00 -2.9159954688525017e-02 -5.5467072472174894e-01 +5.6905789326935101e-03
-2.1000000000000005e+00 +8.5978778619249976e+00 +0.0000000000000000e+00 -2.0999999952640711e+00 -2.9160784677339506e-02 -5.5468359158864566e-01 +5.6906176094455056e-03
-2.1500000000000004e+00 +8.5978719760938205e+00 +0.0000000000000000e+00 -2.1499999949176249e+00 -2.9161636186732173e-02 -5.5469676810434365e-01 +5.6906556499499014e-03
-2.2000000000000002e+00 +8.5978659517247706e+00 +0.0000000000000000e+00 -2.1999999945546787e+00 -2.9162508941986170e-02 -5.5471025244403949e-01 +5.6906930660811745e-03
-2.2500000000000000e+00 +8.5978597888144783e+00 +0.0000000000000000e+00 -2.2499999941748481e+00 -2.9163402668385054e-02 -5.5472404278294074e-01 +5.6907298697137709e-03
-2.2999999999999998e+00 +8.5978534873595009e+00 +0.0000000000000000e+00 -2.2999999937777487e+00 -2.9164317091212682e-02 -5.5473813729626620e-01 +5.6907660727220956e-03
-2.3499999999999996e+00 +8.5978470473563195e+00 +0.0000000000000000e+00 -2.3499999933629963e+00 -2.9165251935753169e-02 -5.5475253415924464e-01 +5.6908016869805103e-03
-2.3999999999999995e+00 +8.5978404688013370e+00 +0.0000000000000000e+00 -2.3999999929302063e+00 -2.9166206927290713e-02 -5.5476723154711494e-01 +5.6908367243633197e-03
-2.4499999999999993e+00 +8.5978337516908816e+00 +0.0000000000000000e+00 -2.4499999924789946e+00 -2.9167181791109664e-02 -5.5478222763512575e-01 +5.6908711967447803e-03
-2.4999999999999991e+00 +8.5978268960212105e+00 +0.0000000000000000e+00 -2.4999999920089766e+00 -2.9168176252494377e-02 -5.5479752059853571e-01 +5.6909051159990797e-03
-2.5499999999999989e+00 +8.5978199017885029e+00 +0.0000000000000000e+00 -2.5499999915197678e+00 -2.9169190036729107e-02 -5.5481310861261190e-01 +5.6909384940003367e-03
-2.5999999999999988e+00 +8.5978127689888648e+00 +0.0000000000000000e+00 -2.5999999910109834e+00 -2.9170222869098025e-02 -5.5482898985263129e-01 +5.6909713426226017e-03
-2.6499999999999986e+00 +8.5978054976183316e+00 +0.0000000000000000e+00 -2.6499999904822391e+00 -2.9171274474885090e-02 -5.5484516249387961e-01 +5.6910036737398513e-03
-2.6999999999999984e+00 +8.5977980876728637e+00 +0.0000000000000000e+00 -2.6999999899331502e+00 -2.9172344579373968e-02 -5.5486162471165079e-01 +5.6910354992259693e-03
-2.7499999999999982e+00 +8.5977905391483507e+00 +0.0000000000000000e+00 -2.7499999893633320e+00 -2.9173432907847990e-02 -5.5487837468124668e-01 +5.6910668309547528e-03
-2.7999999999999980e+00 +8.5977828520406074e+00 +0.0000000000000000e+00 -2.7999999887723996e+00 -2.9174539185590098e-02 -5.5489541057797831e-01 +5.6910976807999086e-03
-2.8499999999999979e+00 +8.5977750263453796e+00 +0.0000000000000000e+00 -2.8499999881599685e+00 -2.9175663137882685e-02 -5.5491273057716306e-01 +5.6911280606350397e-03
-2.8999999999999977e+00 +8.5977670620583417e+00 +0.0000000000000000e+00 -2.8999999875256539e+00 -2.9176804490007632e-02 -5.5493033285412696e-01 +5.6911579823336438e-03
-2.9499999999999975e+00 +8.5977589591750991e+00 +0.0000000000000000e+00 -2.9499999868690709e+00 -2.9177962967246181e-02 -5.5494821558420315e-01 +5.6911874577691094e-03
-2.9999999999999973e+00 +8.5977507176911843e+00 +0.0000000000000000e+00 -2.9999999861898345e+00 -2.9179138294878851e-02 -5.5496637694273121e-01 +5.6912164988147081e-03
-3.0499999999999972e+00 +8.5977423376020621e+00 +0.0000000000000000e+00 -3.0499999854875597e+00 -2.9180330198185396e-02 -5.5498481510505737e-01 +5.6912451173435907e-03
-3.0999999999999970e+00 +8.5977338189031265e+00 +0.0000000000000000e+00 -3.0999999847618613e+00 -2.9181538402444723e-02 -5.5500352824653543e-01 +5.6912733252287772e-03
-3.1499999999999968e+00 +8.5977251615897039e+00 +0.0000000000000000e+00 -3.1499999840123545e+00 -2.9182762632934796e-02 -5.5502251454252383e-01 +5.6913011343431600e-03
-3.1999999999999966e+00 +8.5977163656570532e+00 +0.0000000000000000e+00 -3.1999999832386541e+00 -2.9184002614932630e-02 -5.5504177216838868e-01 +5.6913285565594902e-03
-3.2499999999999964e+00 +8.5977074311003658e+00 +0.0000000000000000e+00 -3.2499999824403751e+00 -2.9185258073714162e-02 -5.5506129929950054e-01 +5.6913556037503791e-03
-3.2999999999999963e+00 +8.5976983579147639e+00 +0.0000000000000000e+00 -3.2999999816171321e+00 -2.9186528734554153e-02 -5.5508109411123563e-01 +5.6913822877882837e-03
-3.3499999999999961e+00 +8.5976891460953038e+00 +0.0000000000000000e+00 -3.3499999807685401e+00 -2.9187814322726210e-02 -5.5510115477897581e-01 +5.6914086205455110e-03
-3.3999999999999959e+00 +8.5976797956369744e+00 +0.0000000000000000e+00 -3.3999999798942135e+00 -2.9189114563502622e-02 -5.5512147947810730e-01 +5.6914346138942085e-03
-3.4499999999999957e+00 +8.5976703065347007e+00 +0.0000000000000000e+00 -3.4499999789937670e+00 -2.9190429182154358e-02 -5.5514206638402119e-01 +5.6914602797063533e-03
-3.4999999999999956e+00 +8.5976606787833401e+00 +0.0000000000000000e+00 -3.4999999780668150e+00 -2.9191757903950941e-02 -5.5516291367211357e-01 +5.6914856298537590e-03
-3.5499999999999954e+00 +8.5976509123776879e+00 +0.0000000000000000e+00 -3.5499999771129720e+00 -2.9193100454160410e-02 -5.5518401951778384e-01 +5.6915106762080630e-03
-3.5999999999999952e+00 +8.5976410073124718e+00 +0.0000000000000000e+00 -3.5999999761318526e+00 -2.9194456558049229e-02 -5.5520538209643566e-01 +5.6915354306407125e-03
-3.6499999999999950e+00 +8.5976309635823558e+00 +0.0000000000000000e+00 -3.6499999751230714e+00 -2.9195825940882214e-02 -5.5522699958347632e-01 +5.6915599050229755e-03
-3.6999999999999948e+00 +8.5976207811819414e+00 +0.0000000000000000e+00 -3.6999999740862428e+00 -2.9197208327922518e-02 -5.5524887015431657e-01 +5.6915841112259273e-03
-3.7499999999999947e+00 +8.5976104601057681e+00 +0.0000000000000000e+00 -3.7499999730209805e+00 -2.9198603444431450e-02 -5.5527099198436947e-01 +5.6916080611204402e-03
-3.7999999999999945e+00 +8.5976000003483097e+00 +0.0000000000000000e+00 -3.7999999719268991e+00 -2.9200011015668503e-02 -5.5529336324905243e-01 +5.6916317665771914e-03
-3.8499999999999943e+00 +8.5975894019039778e+00 +0.0000000000000000e+00 -3.8499999708036130e+00 -2.9201430766891221e-02 -5.5531598212378452e-01 +5.6916552394666404e-03
-3.8999999999999941e+00 +8.5975786647671253e+00 +0.0000000000000000e+00 -3.8999999696507359e+00 -2.9202862423355187e-02 -5.5533884678398726e-01 +5.6916784916590428e-03
-3.9499999999999940e+00 +8.5975677889320412e+00 +0.0000000000000000e+00 -3.9499999684678819e+00 -2.9204305710313835e-02 -5.5536195540508337e-01 +5.6917015350244227e-03
-3.9999999999999938e+00 +8.5975567743929542e+00 +0.0000000000000000e+00 -3.9999999672546651e+00 -2.9205760353018577e-02 -5.5538530616249993e-01 +5.6917243814325943e-03
-4.0499999999999936e+00 +8.5975456211440306e+00 +0.0000000000000000e+00 -4.0499999660106996e+00 -2.9207226100822836e-02 -5.5540889715291242e-01 +5.6917470343671814e-03
-4.0999999999999934e+00 +8.5975343291793820e+00 +0.0000000000000000e+00 -4.0999999647355985e+00 -2.9208702799496507e-02 -5.5543272615800110e-01 +5.6917694637678325e-03
-4.1499999999999932e+00 +8.5975228984930538e+00 +0.0000000000000000e+00 -4.1499999634289768e+00 -2.9210190318914798e-02 -5.5545679088069611e-01 +5.6917916311881840e-03
-4.1999999999999931e+00 +8.5975113290790386e+00 +0.0000000000000000e+00 -4.1999999620904473e+00 -2.9211688528954123e-02 -5.5548108902393034e-01 +5.6918134981818799e-03
-4.2499999999999929e+00 +8.5974996209312664e+00 +0.0000000000000000e+00 -4.2499999607196237e+00 -2.9213197299492163e-02 -5.5550561829063860e-01 +5.6918350263025601e-03
-4.2999999999999927e+00 +8.5974877740436106e+00 +0.0000000000000000e+00 -4.2999999593161204e+00 -2.9214716500407894e-02 -5.5553037638375702e-01 +5.6918561771038684e-03
-4.3499999999999925e+00 +8.5974757884098896e+00 +0.0000000000000000e+00 -4.3499999578795503e+00 -2.9216246001581601e-02 -5.5555536100622338e-01 +5.6918769121394501e-03
-4.3999999999999924e+00 +8.5974636640238629e+00 +0.0000000000000000e+00 -4.3999999564095269e+00 -2.9217785672894916e-02 -5.5558056986097559e-01 +5.6918971929629534e-03
-4.4499999999999922e+00 +8.5974514008792333e+00 +0.0000000000000000e+00 -4.4499999549056639e+00 -2.9219335384230896e-02 -5.5560600065095411e-01 +5.6919169811280408e-03
-4.4999999999999920e+00 +8.5974389989696522e+00 +0.0000000000000000e+00 -4.4999999533675741e+00 -2.9220895005474003e-02 -5.5563165107909851e-01 +5.6919362381883786e-03
-4.5499999999999918e+00 +8.5974264582887105e+00 +0.0000000000000000e+00 -4.5499999517948710e+00 -2.9222464406510183e-02 -5.5565751884834980e-01 +5.6919549256976435e-03
-4.5999999999999917e+00 +8.5974137788299494e+00 +0.0000000000000000e+00 -4.5999999501871685e+00 -2.9224043457226855e-02 -5.5568360166164887e-01 +5.6919730052095207e-03
-4.6499999999999915e+00 +8.5974009605868549e+00 +0.0000000000000000e+00 -4.6499999485440791e+00 -2.9225632027513007e-02 -5.5570989722193642e-01 +5.6919904382777189e-03
-4.6999999999999913e+00 +8.5973880035528598e+00 +0.0000000000000000e+00 -4.6999999468652156e+00 -2.9227229987259191e-02 -5.5573640323215323e-01 +5.6920071864559624e-03
-4.7499999999999911e+00 +8.5973749077213437e+00 +0.0000000000000000e+00 -4.7499999451501917e+00 -2.9228837206357532e-02 -5.5576311739523976e-01 +5.6920232112979774e-03
-4.7999999999999909e+00 +8.5973616730856346e+00 +0.0000000000000000e+00 -4.7999999433986202e+00 -2.9230453554701823e-02 -5.5579003741413491e-01 +5.6920384743575272e-03
-4.8499999999999908e+00 +8.5973482996390089e+00 +0.0000000000000000e+00 -4.8499999416101138e+00 -2.9232078902187562e-02 -5.5581716099177803e-01 +5.6920529371883881e-03
-4.8999999999999906e+00 +8.5973347873746935e+00 +0.0000000000000000e+00 -4.8999999397842853e+00 -2.9233713118711910e-02 -5.5584448583110646e-01 +5.6920665613443598e-03
-4.9499999999999904e+00 +8.5973211362858635e+00 +0.0000000000000000e+00 -4.9499999379207473e+00 -2.9235356074173800e-02 -5.5587200963505601e-01 +5.6920793083792666e-03
-4.9999999999999902e+00 +8.5973073463656444e+00 +0.0000000000000000e+00 -4.9999999360191119e+00 -2.9237007638473957e-02 -5.5589973010656191e-01 +5.6920911398469637e-03
-5.0499999999999901e+00 +8.5972934176071139e+00 +0.0000000000000000e+00 -5.0499999340789925e+00 -2.9238667681514896e-02 -5.5592764494855651e-01 +5.6921020173013271e-03
-5.0999999999999899e+00 +8.5972793500032996e+00 +0.0000000000000000e+00 -5.0999999321000020e+00 -2.9240336073201034e-02 -5.5595575186397050e-01 +5.6921119022962704e-03
-5.1499999999999897e+00 +8.5972651435471832e+00 +0.0000000000000000e+00 -5.1499999300817523e+00 -2.9242012683438623e-02 -5.5598404855573302e-01 +5.6921207563857285e-03
-5.1999999999999895e+00 +8.5972507982316966e+00 +0.0000000000000000e+00 -5.1999999280238551e+00 -2.9243697382135891e-02 -5.5601253272677020e-01 +5.6921285411236817e-03
-5.2499999999999893e+00 +8.5972363140497254e+00 +0.0000000000000000e+00 -5.2499999259259233e+00 -2.9245390039202998e-02 -5.5604120208000507e-01 +5.6921352180641397e-03
-5.2999999999999892e+00 +8.5972216909941110e+00 +0.0000000000000000e+00 -5.2999999237875697e+00 -2.9247090524552089e-02 -5.5607005431835776e-01 +5.6921407487611451e-03
-5.3499999999999890e+00 +8.5972069290576467e+00 +0.0000000000000000e+00 -5.3499999216084060e+00 -2.9248798708097389e-02 -5.5609908714474698e-01 +5.6921450947687909e-03
-5.3999999999999888e+00 +8.5971920282330814e+00 +0.0000000000000000e+00 -5.3999999193880441e+00 -2.9250514459755149e-02 -5.5612829826208543e-01 +5.6921482176411969e-03
-5.4499999999999886e+00 +8.5971769885131195e+00 +0.0000000000000000e+00 -5.4499999171260960e+00 -2.9252237649443732e-02 -5.5615768537328436e-01 +5.6921500789325384e-03
-5.4999999999999885e+00 +8.5971618098904212e+00 +0.0000000000000000e+00 -5.4999999148221743e+00 -2.9253968147083642e-02 -5.5618724618124993e-01 +5.6921506401970204e-03
-5.5499999999999883e+00 +8.5971464923576058e+00 +0.0000000000000000e+00 -5.5499999124758901e+00 -2.9255705822597570e-02 -5.5621697838888495e-01 +5.6921498629889083e-03
-5.5999999999999881e+00 +8.5971310359072461e+00 +0.0000000000000000e+00 -5.5999999100868552e+00 -2.9257450545910398e-02 -5.5624687969908815e-01 +5.6921477088625085e-03
-5.6499999999999879e+00 +8.5971154405318746e+00 +0.0000000000000000e+00 -5.6499999076546814e+00 -2.9259202186949256e-02 -5.5627694781475268e-01 +5.6921441393721706e-03
-5.6999999999999877e+00 +8.5970997062239825e+00 +0.0000000000000000e+00 -5.6999999051789807e+00 -2.9260960615643563e-02 -5.5630718043876826e-01 +5.6921391160723095e-03
-5.7499999999999876e+00 +8.5970838329760184e+00 +0.0000000000000000e+00 -5.7499999026593649e+00 -2.9262725701925056e-02 -5.5633757527401884e-01 +5.6921326005173797e-03
-5.7999999999999874e+00 +8.5970678207803903e+00 +0.0000000000000000e+00 -5.7999999000954450e+00 -2.9264497315727809e-02 -5.5636813002338370e-01 +5.6921245542618983e-03
-5.8499999999999872e+00 +8.5970516696294688e+00 +0.0000000000000000e+00 -5.8499998974868319e+00 -2.9266275326988292e-02 -5.5639884238973658e-01 +5.6921149388604380e-03
