# multipoles
# s[mm] polynom_b[n=0][T/m^n] polynom_b[n=1][T/m^n] polynom_b[n=2][T/m^n] polynom_b[n=3][T/m^n] polynom_b[n=4][T/m^n] polynom_b[n=5][T/m^n] polynom_b[n=6][T/m^n] 
+0.0000000000000000e+00 -5.5441892161302153e-01 +7.3133100732765488e+00 +4.3596007352129931e+00 -3.4709396980406680e+01 +2.0611082121741260e+03 -2.2440841559358843e+05 -8.9179567079507746e+06 
-5.0000000000000003e-02 -5.5441852906190858e-01 +7.3132163768532834e+00 +4.3605957226739438e+00 -3.4305150747668556e+01 +2.0705529197393093e+03 -2.2664989766492948e+05 -8.9121090263724271e+06 
-1.0000000000000001e-01 -5.5441847077210626e-01 +7.3131402621005401e+00 +4.3611770494822935e+00 -3.3886896677259777e+01 +2.0810070920963271e+03 -2.2895136104368506e+05 -8.9133667339859437e+06 
-1.5000000000000002e-01 -5.5441874619704812e-01 +7.3130817380740600e+00 +4.3613520539809096e+00 -3.3455550184269768e+01 +2.0923259545746878e+03 -2.3130812395781625e+05 -8.9209176136732418e+06 
-2.0000000000000001e-01 -5.5441935479017934e-01 +7.3130408138323704e+00 +4.3611280737598221e+00 -3.3012026786722330e+01 +2.1043647524291778e+03 -2.3371550375151722e+05 -8.9339495809573736e+06 
-2.5000000000000000e-01 -5.5442029600495424e-01 +7.3130174984292280e+00 +4.3605124454467390e+00 -3.2557241771422987e+01 +2.1169787570426988e+03 -2.3616881970302723e+05 -8.9516507321549542e+06 
-2.9999999999999999e-01 -5.5442156929484676e-01 +7.3130118009272351e+00 +4.3595125060401045e+00 -3.2092110782556944e+01 +2.1300232305465174e+03 -2.3866338808057667e+05 -8.9732091014089976e+06 
-3.4999999999999998e-01 -5.5442317411336584e-01 +7.3130237303828709e+00 +4.3581355961114649e+00 -3.1617549169564814e+01 +2.1433533393329585e+03 -2.4119452765318565e+05 -8.9978120805176124e+06 
-3.9999999999999997e-01 -5.5442510991400507e-01 +7.3130532958551839e+00 +4.3563890512185548e+00 -3.1134472380710761e+01 +2.1568243801970307e+03 -2.4375755631020188e+05 -9.0246479253399540e+06 
-4.4999999999999996e-01 -5.5442737615028104e-01 +7.3131005064040311e+00 +4.3542802077453100e+00 -3.0643795862312910e+01 +2.1702916321503085e+03 -2.4634779198813540e+05 -9.0529047881719489e+06 
-4.9999999999999994e-01 -5.5442997227573698e-01 +7.3131653710896591e+00 +4.3518164046665495e+00 -3.0146435065640503e+01 +2.1836102986635092e+03 -2.4896055254118794e+05 -9.0817702896048184e+06 
-5.4999999999999993e-01 -5.5443289774392301e-01 +7.3132478989734739e+00 +4.3490049788149001e+00 -2.9643305454166367e+01 +2.1966356483038853e+03 -2.5159115575830228e+05 -9.1104325191427357e+06 
-5.9999999999999998e-01 -5.5443615200841045e-01 +7.3133480991172632e+00 +4.3458532683227959e+00 -2.9135322498298937e+01 +2.2092229098855860e+03 -2.5423491931467567e+05 -9.1380792793063857e+06 
-6.5000000000000002e-01 -5.5443973452277973e-01 +7.3134659805786715e+00 +4.3423686101212855e+00 -2.8623401459507281e+01 +2.2212273482578908e+03 -2.5688716266086142e+05 -9.1638986312732603e+06 
-7.0000000000000007e-01 -5.5444364474062746e-01 +7.3136015524240303e+00 +4.3385583419663281e+00 -2.8108457952567175e+01 +2.2325041966205649e+03 -2.5954320225722945e+05 -9.1870783835843597e+06 
-7.5000000000000011e-01 -5.5444788211556539e-01 +7.3137548237130936e+00 +4.3344298004021757e+00 -2.7591407285309014e+01 +2.2429087366310164e+03 -2.6219835713101871e+05 -9.2068067379331645e+06 
-8.0000000000000016e-01 -5.5445244610122069e-01 +7.3139258035120882e+00 +4.3299903230144290e+00 -2.7073165009977505e+01 +2.2522962085140066e+03 -2.6484794429486716e+05 -9.2222715592195373e+06 
-8.5000000000000020e-01 -5.5445733615124893e-01 +7.3141145008786355e+00 +4.3252472493687444e+00 -2.6554646314079363e+01 +2.2605218045539345e+03 -2.6748728371049272e+05 -9.2326604128060602e+06 
-9.0000000000000024e-01 -5.5446255171930214e-01 +7.3143209248823569e+00 +4.3202079153667849e+00 -2.6036766845741102e+01 +2.2674408183833193e+03 -2.7011169157250418e+05 -9.2371615559824966e+06 
-9.5000000000000029e-01 -5.5446809225905402e-01 +7.3145450845827602e+00 +4.3148796586343341e+00 -2.5520441814750303e+01 +2.2729084936363556e+03 -2.7271648768475896e+05 -9.2349628961240537e+06 
-1.0000000000000002e+00 -5.5447395722420112e-01 +7.3147869890469632e+00 +4.3092698175322006e+00 -2.5006586732742203e+01 +2.2767800590368238e+03 -2.7529698930612515e+05 -9.2252522579915319e+06 
-1.0500000000000003e+00 -5.5448014606844509e-01 +7.3150466473374101e+00 +4.3033857293730504e+00 -2.4496116887193697e+01 +2.2789107660028817e+03 -2.7784851556709461e+05 -9.2072175978718977e+06 
-1.1000000000000003e+00 -5.5448665824550891e-01 +7.3153240685218286e+00 +4.2972347320068645e+00 -2.3989947761527059e+01 +2.2791558557584417e+03 -2.8036638398697402e+05 -9.1800468175703213e+06 
-1.1500000000000004e+00 -5.5449349320913122e-01 +7.3156192616608235e+00 +4.2908241633727577e+00 -2.3488994528986282e+01 +2.2773705697900868e+03 -2.8284591459355177e+05 -9.1429278329302147e+06 
-1.2000000000000004e+00 -5.5450065041305696e-01 +7.3159322358248930e+00 +4.2841613600107573e+00 -2.2994172747625839e+01 +2.2734101846660405e+03 -2.8528242424639070e+05 -9.0950487833331060e+06 
-1.2500000000000004e+00 -5.5450812931107085e-01 +7.3162630000764137e+00 +4.2772536629689499e+00 -2.2506397614934876e+01 +2.2671298557042924e+03 -2.8767123277570459e+05 -9.0355969913593549e+06 
-1.3000000000000005e+00 -5.5451592935694327e-01 +7.3166115634822493e+00 +4.2701084076015450e+00 -2.2026584502981027e+01 +2.2583848963517416e+03 -2.9000765851080237e+05 -8.9637608629060276e+06 
-1.3500000000000005e+00 -5.5452405000448435e-01 +7.3169779351093140e+00 +4.2627329339590663e+00 -2.1555648750646142e+01 +2.2470304924050761e+03 -2.9228702011463040e+05 -8.8787279380873740e+06 
-1.4000000000000006e+00 -5.5453249070749244e-01 +7.3173621240240667e+00 +4.2551345772952001e+00 -2.1094505657345611e+01 +2.2329219584977409e+03 -2.9450463654315320e+05 -8.7796866228831373e+06 
-1.4500000000000006e+00 -5.5454125091981810e-01 +7.3177641392911115e+00 +4.2473206796712795e+00 -2.0644070443520960e+01 +2.2159144259520854e+03 -2.9665582732097578e+05 -8.6658240876022745e+06 
-1.5000000000000007e+00 -5.5455033009529842e-01 +7.3181839899785279e+00 +4.2392985774706053e+00 -2.0205258428767941e+01 +2.1958631850552229e+03 -2.9873591122962302e+05 -8.5363285936775394e+06 
-1.5500000000000007e+00 -5.5455972768778672e-01 +7.3186216851538202e+00 +4.2310756076264751e+00 -1.9778984905219513e+01 +2.1726235087729401e+03 -3.0074020719559095e+05 -8.3903882762762252e+06 
-1.6000000000000008e+00 -5.5456944315118273e-01 +7.3190772338832240e+00 +4.2226591128465971e+00 -1.9366165078252632e+01 +2.1460505159850513e+03 -3.0266403490349505e+05 -8.2271902376502706e+06 
-1.6500000000000008e+00 -5.5457947593936485e-01 +7.3195506452348669e+00 +4.2140564290200366e+00 -1.8967714218752423e+01 +2.1159995102945063e+03 -3.0450271343894652e+05 -8.0459228239479493e+06 
-1.7000000000000008e+00 -5.5458982550624458e-01 +7.3200419282735814e+00 +4.2052748952807537e+00 -1.8584547445044709e+01 +2.0823257119803802e+03 -3.0625156312299345e+05 -7.8457738373096352e+06 
-1.7500000000000009e+00 -5.5460049130575595e-01 +7.3205510920698318e+00 +4.1963218524338446e+00 -1.8217580069474607e+01 +2.0448842923006030e+03 -3.0790590272093995e+05 -7.6259307306057895e+06 
-1.8000000000000009e+00 -5.5461147279182066e-01 +7.3210781456895662e+00 +4.1872046360685307e+00 -1.7867727218344680e+01 +2.0035305693728633e+03 -3.0946105244465359e+05 -7.3855819704844775e+06 
-1.8500000000000010e+00 -5.5462276941841493e-01 +7.3216230981990673e+00 +4.1779305887858325e+00 -1.7535903999815073e+01 +1.9581196724382201e+03 -3.1091233267136128e+05 -7.1239147467385242e+06 
-1.9000000000000010e+00 -5.5463438063950710e-01 +7.3221859586673608e+00 +4.1685070492470366e+00 -1.7223025614939033e+01 +1.9085068380236346e+03 -3.1225506300202658e+05 -6.8401169756793072e+06 
-1.9500000000000011e+00 -5.5464630590907660e-01 +7.3227667361617952e+00 +4.1589413556596790e+00 -1.6930007174844171e+01 +1.8545473137298231e+03 -3.1348456376299792e+05 -6.5333766433234168e+06 
-2.0000000000000009e+00 -5.5465854468113573e-01 +7.3233654397507220e+00 +4.1492408489569828e+00 -1.6657763822798625e+01 +1.7960962802631420e+03 -3.1459615494076564e+05 -6.2028813050977560e+06 
-2.0500000000000007e+00 -5.5467109619925437e-01 +7.3239820495129813e+00 +4.1394102806692050e+00 -1.6406926394037210e+01 +1.7330702902161327e+03 -3.1558658608911879e+05 -5.8481529680605996e+06 
-2.1000000000000005e+00 -5.5468395886490296e-01 +7.3246164247872825e+00 +4.1294447723054342e+00 -1.6176992519383163e+01 +1.6656255650884502e+03 -3.1645845257072698e+05 -5.4700252083142167e+06 
-2.1500000000000004e+00 -5.5469713086893235e-01 +7.3252683935293197e+00 +4.1193372217902029e+00 -1.5967178444067763e+01 +1.5939769629206983e+03 -3.1721584073092265e+05 -5.0696538721865630e+06 
-2.2000000000000002e+00 -5.5471061040220737e-01 +7.3259377836910495e+00 +4.1090805278206846e+00 -1.5776700251666908e+01 +1.5183393165767779e+03 -3.1786283822280529e+05 -4.6481946170873186e+06 
-2.2500000000000000e+00 -5.5472439565559362e-01 +7.3266244232271083e+00 +4.0986675872997784e+00 -1.5604774112721683e+01 +1.4389275091236227e+03 -3.1840353202744317e+05 -4.2068034492536765e+06 
-2.2999999999999998e+00 -5.5473848481998633e-01 +7.3273281400938766e+00 +4.0880913003752184e+00 -1.5450616253314125e+01 +1.3559563347916103e+03 -3.1884200866503414e+05 -3.7466357677287818e+06 
-2.3499999999999996e+00 -5.5475287608627832e-01 +7.3280487622467465e+00 +4.0773445649190716e+00 -1.5313442840990025e+01 +1.2696406524566969e+03 -3.1918235515593353e+05 -3.2688474251686772e+06 
-2.3999999999999995e+00 -5.5476756764536739e-01 +7.3287861176427977e+00 +4.0664202775764373e+00 -1.5192470111831884e+01 +1.1801953517469260e+03 -3.1942865789628559e+05 -2.7745944697656762e+06 
-2.4499999999999993e+00 -5.5478255768817752e-01 +7.3295400342372945e+00 +4.0553113383386217e+00 -1.5086914191063364e+01 +1.0878352293451194e+03 -3.1958500429585914e+05 -2.2650323135387953e+06 
-2.4999999999999991e+00 -5.5479784440563429e-01 +7.3303103399904597e+00 +4.0440106451089788e+00 -1.4995991410773783e+01 +9.9277514309331980e+02 -3.1965547998408828e+05 -1.7413168019767669e+06 
-2.5499999999999989e+00 -5.5481342598866368e-01 +7.3310968628579225e+00 +4.0325110947998768e+00 -1.4918917880066557e+01 +8.9522997209951018e+02 -3.1964417252039642e+05 -1.2046039047416525e+06 
-2.5999999999999988e+00 -5.5482930062821423e-01 +7.3318994308002230e+00 +4.0208055862864329e+00 -1.4854909910935163e+01 +7.9541454411925145e+02 -3.1955516774342314e+05 -6.5604924995680840e+05 
-2.6499999999999986e+00 -5.5484546651524047e-01 +7.3327178717764729e+00 +4.0088870179569884e+00 -1.4803183739645451e+01 +6.9354369924535365e+02 -3.1939255212463695e+05 -9.6808548821072254e+04 
-2.6999999999999984e+00 -5.5486192184070582e-01 +7.3335520137458783e+00 +3.9967482878580713e+00 -1.4762955587429293e+01 +5.8983228890673593e+02 -3.1916041230792954e+05 +4.7196240323233197e+05 
-2.7499999999999982e+00 -5.5487866479557901e-01 +7.3344016846701923e+00 +3.9843822938789168e+00 -1.4733441763401467e+01 +4.8449516426470717e+02 -3.1886283421923872e+05 +1.0491078263185935e+06 
-2.7999999999999980e+00 -5.5489569357082924e-01 +7.3352667125110358e+00 +3.9717819321581458e+00 -1.4713858571553248e+01 +3.7774722414662602e+02 -3.1850390379561775e+05 +1.6334716190232972e+06 
-2.8499999999999979e+00 -5.5491300635745533e-01 +7.3361469252314482e+00 +3.9589401030248634e+00 -1.4703422347347093e+01 +2.6980325439917272e+02 -3.1808770678283653e+05 +2.2238984352378575e+06 
-2.8999999999999977e+00 -5.5493060134644523e-01 +7.3370421507921009e+00 +3.9458497027571751e+00 -1.4701349321187081e+01 +1.6087814784747755e+02 -3.1761832978391420e+05 +2.8192322228144989e+06 
-2.9499999999999975e+00 -5.5494847672879666e-01 +7.3379522171592235e+00 +3.9325036285951942e+00 -1.4706855938641949e+01 +5.1186774021346700e+01 -3.1709985764479404e+05 +3.4183170641778009e+06 
-2.9999999999999973e+00 -5.5496663069552477e-01 +7.3388769522946689e+00 +3.9188947788690345e+00 -1.4719158447423260e+01 -5.9056030989817522e+01 -3.1653637688383867e+05 +4.0199972921268181e+06 
-3.0499999999999972e+00 -5.5498506143764814e-01 +7.3398161841670477e+00 +3.9050160518458110e+00 -1.4737473369916904e+01 -1.6963542896349961e+02 -3.1593197173859313e+05 +4.6231172133945832e+06 
-3.0999999999999970e+00 -5.5500376714618072e-01 +7.3407697407399937e+00 +3.8908603435026885e+00 -1.4761017008393301e+01 -2.8033652360658130e+02 -3.1529072828598390e+05 +5.2265207582757650e+06 
-3.1499999999999968e+00 -5.5502274601215740e-01 +7.3417374499807222e+00 +3.8764205517868087e+00 -1.4789005798534923e+01 -3.9094446807846253e+02 -3.1461673154319456e+05 +5.8290521772870822e+06 
-3.1999999999999966e+00 -5.5504199622660899e-01 +7.3427191398573850e+00 +3.8616895734566778e+00 -1.4820656202313184e+01 -5.0124438953150201e+02 -3.1391406632323889e+05 +6.4295555628271699e+06 
-3.2499999999999964e+00 -5.5506151598057507e-01 +7.3437146383382554e+00 +3.8466603048843986e+00 -1.4855184681717953e+01 -6.1102139832076455e+02 -3.1318681744657771e+05 +7.0268748668519817e+06 
-3.2999999999999963e+00 -5.5508130346511786e-01 +7.3447237733927917e+00 +3.8313256459579423e+00 -1.4891807726123742e+01 -7.2006071026672430e+02 -3.1243906955641479e+05 +7.6198547969149286e+06 
-3.3499999999999961e+00 -5.5510135687127038e-01 +7.3457463729915959e+00 +3.8156784901216931e+00 -1.4929741874367773e+01 -8.2814736350440080e+02 -3.1167490687722876e+05 +8.2073388394708848e+06 
-3.3999999999999959e+00 -5.5512167439009508e-01 +7.3467822651047916e+00 +3.7997117347840068e+00 -1.4968203623000758e+01 -9.3506650364897541e+02 -3.1089841403781652e+05 +8.7881712073167730e+06 
-3.4499999999999957e+00 -5.5514225421266827e-01 +7.3478312777066028e+00 +3.7834182788082171e+00 -1.5006409629237854e+01 -1.0406033183053189e+03 -3.1011367437533784e+05 +9.3611964071015064e+06 
-3.4999999999999956e+00 -5.5516309453004031e-01 +7.3488932387662924e+00 +3.7667910157568545e+00 -1.5043576343210795e+01 -1.1445428517781968e+03 -3.0932477291789278e+05 +9.9252579695311692e+06 
-3.5499999999999954e+00 -5.5518419353329895e-01 +7.3499679762630645e+00 +3.7498228446649087e+00 -1.5078920610084808e+01 -1.2466703016316292e+03 -3.0853579149319022e+05 +1.0479200486590233e+07 
-3.5999999999999952e+00 -5.5520554941350642e-01 +7.3510553181670995e+00 +3.7325066590563192e+00 -1.5111658887300928e+01 -1.3467707130074136e+03 -3.0775081516955298e+05 +1.1021867497293305e+07 
-3.6499999999999950e+00 -5.5522716036175235e-01 +7.3521550924547245e+00 +3.7148353568195787e+00 -1.5141007894807972e+01 -1.4446292542616179e+03 -3.0697392681548244e+05 +1.1552103393446265e+07 
-3.6999999999999948e+00 -5.5524902456911518e-01 +7.3532671271037495e+00 +3.6968018326956700e+00 -1.5166184381121555e+01 -1.5400310084468770e+03 -3.0620920918472973e+05 +1.2068751987734666e+07 
-3.7499999999999947e+00 -5.5527114022668800e-01 +7.3543912500928244e+00 +3.6783989832452959e+00 -1.5186405137081955e+01 -1.6327611091750414e+03 -3.0546074464245612e+05 +1.2570657435953164e+07 
-3.7999999999999945e+00 -5.5529350552555723e-01 +7.3555272893984487e+00 +3.6596197035020599e+00 -1.5200886851665299e+01 -1.7226046531427628e+03 -3.0473261645373539e+05 +1.3056663658090435e+07 
-3.8499999999999943e+00 -5.5531611865682551e-01 +7.3566750730022763e+00 +3.6404568899154852e+00 -1.5208846415915463e+01 -1.8093467714740468e+03 -3.0402890624852286e+05 +1.3525614790096479e+07 
-3.8999999999999941e+00 -5.5533897781157937e-01 +7.3578344288848143e+00 +3.6209034363445771e+00 -1.5209500673434096e+01 -1.8927725337912507e+03 -3.0335369605896337e+05 +1.3976354579819463e+07 
-3.9499999999999940e+00 -5.5536208118092634e-01 +7.3590051850264073e+00 +3.6009522388761184e+00 -1.5202066438747542e+01 -1.9726670657303403e+03 -3.0271106824674871e+05 +1.4407727137284594e+07 
-3.9999999999999938e+00 -5.5538542695595838e-01 +7.3601871694099916e+00 +3.5805961909237780e+00 -1.5185760638341202e+01 -2.0488154268711901e+03 -3.0210510418850998e+05 +1.4818576148275945e+07 
-4.0499999999999936e+00 -5.5540901324542524e-01 +7.3613802129797836e+00 +3.5598313365445597e+00 -1.5159935292973232e+01 -2.1210574834922877e+03 -3.0153927172184142e+05 +1.5208027106747849e+07 
-4.0999999999999934e+00 -5.5543283782903130e-01 +7.3625841527637919e+00 +3.5386662755266292e+00 -1.5124531127412956e+01 -2.1894469131722867e+03 -3.0101420973443519e+05 +1.5576312477995120e+07 
-4.1499999999999932e+00 -5.5545689840435331e-01 +7.3637988258806697e+00 +3.5171127615846642e+00 -1.5079648768155867e+01 -2.2540895367897369e+03 -3.0052976174256706e+05 +1.5923936556158992e+07 
-4.1999999999999931e+00 -5.5548119266896934e-01 +7.3650240694515636e+00 +3.4951825493524971e+00 -1.5025388935973895e+01 -2.3150912072673555e+03 -3.0008577063153265e+05 +1.6251403886723343e+07 
-4.2499999999999929e+00 -5.5550571832045448e-01 +7.3662597205965206e+00 +3.4728873913049223e+00 -1.4961852342258902e+01 -2.3725577103684650e+03 -2.9968207924224593e+05 +1.6559218530975051e+07 
-4.2999999999999927e+00 -5.5553047305638736e-01 +7.3675056164362429e+00 +3.4502390412836457e+00 -1.4889139725717225e+01 -2.4265948770364776e+03 -2.9931853020938992e+05 +1.6847884887023591e+07 
-4.3499999999999925e+00 -5.5555545457434774e-01 +7.3687615940866289e+00 +3.4272492529525271e+00 -1.4807351640150411e+01 -2.4773085303117446e+03 -2.9899496765850834e+05 +1.7117907283373348e+07 
-4.3999999999999924e+00 -5.5558066057192435e-01 +7.3700274906683729e+00 +3.4039297810160627e+00 -1.4716588847406022e+01 -2.5248045205920166e+03 -2.9871123399648769e+05 +1.7369790235832497e+07 
-4.4499999999999922e+00 -5.5560608874669914e-01 +7.3713031433001346e+00 +3.3802923788652448e+00 -1.4616952038545103e+01 -2.5691886624969684e+03 -2.9846717217659531e+05 +1.7604038016045544e+07 
-4.4999999999999920e+00 -5.5563173679624556e-01 +7.3725883890973245e+00 +3.3563487982449423e+00 -1.4508541798396569e+01 -2.6105667275104033e+03 -2.9826262595014897e+05 +1.7821154609608691e+07 
-4.5499999999999918e+00 -5.5565760241816886e-01 +7.3738830651778544e+00 +3.3321107966609951e+00 -1.4391458808900675e+01 -2.6490446422854370e+03 -2.9809743833281816e+05 +1.8021645049164936e+07 
-4.5999999999999917e+00 -5.5568368331002893e-01 +7.3751870086560185e+00 +3.3075901237606375e+00 -1.4265803635590579e+01 -2.6847281243123662e+03 -2.9797145319035620e+05 +1.8206012965024758e+07 
-4.6499999999999915e+00 -5.5570997716942749e-01 +7.3765000566491503e+00 +3.2827985359841514e+00 -1.4131676971350425e+01 -2.7177230698018875e+03 -2.9788451337837620e+05 +1.8374763179663781e+07 
-4.6999999999999913e+00 -5.5573648169393886e-01 +7.3778220462707225e+00 +3.2577477852411456e+00 -1.3989179386577600e+01 -2.7481352537188545e+03 -2.9783646264473238e+05 +1.8528399699278072e+07 
-4.7499999999999911e+00 -5.5576319458115331e-01 +7.3791528146346836e+00 +3.2324496265330924e+00 -1.3838411470973753e+01 -2.7760705378436642e+03 -2.9782714462615026e+05 +1.8667427130854007e+07 
-4.7999999999999909e+00 -5.5579011352864527e-01 +7.3804921988550989e+00 +3.2069158121293628e+00 -1.3679473843391541e+01 -2.8016347078537219e+03 -2.9785640266127011e+05 +1.8792349557455100e+07 
-4.8499999999999908e+00 -5.5581723623400392e-01 +7.3818400360452934e+00 +3.1811580968086832e+00 -1.3512467117505933e+01 -2.8249336176980796e+03 -2.9792408007749688e+05 +1.8903671529221904e+07 
-4.8999999999999906e+00 -5.5584456039480434e-01 +7.3831961633122001e+00 +3.1551882334530101e+00 -1.3337491661497591e+01 -2.8460730697001504e+03 -2.9803002219654951e+05 +1.9001897241137117e+07 
-4.9499999999999904e+00 -5.5587208370863017e-01 +7.3845604177702482e+00 +3.1290179764672312e+00 -1.3154648169736120e+01 -2.8651589081625352e+03 -2.9817407163731946e+05 +1.9087531180487789e+07 
-4.9999999999999902e+00 -5.5589980387305760e-01 +7.3859326365294677e+00 +3.1026590790609689e+00 -1.2964037183923795e+01 -2.8822969421663274e+03 -2.9835607220943010e+05 +1.9161077583068736e+07 
-5.0499999999999901e+00 -5.5592771858565826e-01 +7.3873126566973744e+00 +3.0761232943166434e+00 -1.2765759148871584e+01 -2.8975929819336166e+03 -2.9857586854921788e+05 +1.9223040712946199e+07 
