# field on trajectory
# s[mm] rx[mm] ry[mm] rz[mm] bx[T] by[T] bz[T]
0.0000000000000000e+00 +8.5389999999999997e+00 +0.0000000000000000e+00 +0.0000000000000000e+00 -2.9670640522796127e-02 -5.8052407572961628e-01 +5.7956046539329254e-03
5.0000000000000003e-02 +8.5389999306583260e+00 +0.0000000000000000e+00 +4.9999999999935887e-02 -2.9670624192337177e-02 -5.8052383167084620e-01 +5.7954857531592411e-03
1.0000000000000001e-01 +8.5389997226333278e+00 +0.0000000000000000e+00 +9.9999999999487110e-02 -2.9670624725055474e-02 -5.8052393135942815e-01 +5.7953712013560687e-03
1.5000000000000002e-01 +8.5389993759249823e+00 +0.0000000000000000e+00 +1.4999999999826902e-01 -2.9670642204582029e-02 -5.8052437409899393e-01 +5.7952609893587763e-03
2.0000000000000001e-01 +8.5389988905331826e+00 +0.0000000000000000e+00 +1.9999999999589696e-01 -2.9670676714548320e-02 -5.8052515919319059e-01 +5.7951551080027523e-03
2.5000000000000000e-01 +8.5389982664577424e+00 +0.0000000000000000e+00 +2.4999999999198624e-01 -2.9670728338586288e-02 -5.8052628594568301e-01 +5.7950535481233936e-03
2.9999999999999999e-01 +8.5389975036983916e+00 +0.0000000000000000e+00 +2.9999999998615218e-01 -2.9670797160328489e-02 -5.8052775366015141e-01 +5.7949563005561125e-03
3.4999999999999998e-01 +8.5389966022547803e+00 +0.0000000000000000e+00 +3.4999999997801012e-01 -2.9670883263408009e-02 -5.8052956164029235e-01 +5.7948633561363556e-03
3.9999999999999997e-01 +8.5389955621264768e+00 +0.0000000000000000e+00 +3.9999999996717545e-01 -2.9670986731458609e-02 -5.8053170918981789e-01 +5.7947747056995872e-03
4.4999999999999996e-01 +8.5389943833129678e+00 +0.0000000000000000e+00 +4.4999999995326340e-01 -2.9671107648114675e-02 -5.8053419561245712e-01 +5.7946903400813094e-03
4.9999999999999994e-01 +8.5389930658136599e+00 +0.0000000000000000e+00 +4.9999999993588934e-01 -2.9671246097011349e-02 -5.8053702021195386e-01 +5.7946102501170542e-03
5.4999999999999993e-01 +8.5389916096278782e+00 +0.0000000000000000e+00 +5.4999999991466852e-01 -2.9671402161784526e-02 -5.8054018229206816e-01 +5.7945344266423999e-03
5.9999999999999998e-01 +8.5389900147548659e+00 +0.0000000000000000e+00 +5.9999999988921626e-01 -2.9671575926070875e-02 -5.8054368115657506e-01 +5.7944628604929696e-03
6.5000000000000002e-01 +8.5389882811937881e+00 +0.0000000000000000e+00 +6.4999999985914791e-01 -2.9671767473507926e-02 -5.8054751610926614e-01 +5.7943955425044337e-03
7.0000000000000007e-01 +8.5389864089437282e+00 +0.0000000000000000e+00 +6.9999999982407868e-01 -2.9671976887734097e-02 -5.8055168645394650e-01 +5.7943324635125167e-03
7.5000000000000011e-01 +8.5389843980036915e+00 +0.0000000000000000e+00 +7.4999999978362386e-01 -2.9672204252388722e-02 -5.8055619149443793e-01 +5.7942736143529999e-03
8.0000000000000016e-01 +8.5389822483725997e+00 +0.0000000000000000e+00 +7.9999999973739866e-01 -2.9672449651112084e-02 -5.8056103053457597e-01 +5.7942189858617293e-03
8.5000000000000020e-01 +8.5389799600492982e+00 +0.0000000000000000e+00 +8.4999999968501838e-01 -2.9672713167545519e-02 -5.8056620287821281e-01 +5.7941685688746181e-03
9.0000000000000024e-01 +8.5389775330325524e+00 +0.0000000000000000e+00 +8.9999999962609822e-01 -2.9672994885331372e-02 -5.8057170782921308e-01 +5.7941223542276477e-03
9.5000000000000029e-01 +8.5389749673210442e+00 +0.0000000000000000e+00 +9.4999999956025349e-01 -2.9673294888113110e-02 -5.8057754469145784e-01 +5.7940803327568794e-03
1.0000000000000002e+00 +8.5389722629133811e+00 +0.0000000000000000e+00 +9.9999999948709928e-01 -2.9673613259535325e-02 -5.8058371276884213e-01 +5.7940424952984473e-03
1.0500000000000003e+00 +8.5389694198080903e+00 +0.0000000000000000e+00 +1.0499999994062508e+00 -2.9673950083243774e-02 -5.8059021136527500e-01 +5.7940088326885733e-03
1.1000000000000003e+00 +8.5389664380036194e+00 +0.0000000000000000e+00 +1.0999999993173231e+00 -2.9674305442885462e-02 -5.8059703978468091e-01 +5.7939793357635726e-03
1.1500000000000004e+00 +8.5389633174983359e+00 +0.0000000000000000e+00 +1.1499999992199315e+00 -2.9674679422108628e-02 -5.8060419733099666e-01 +5.7939539953598415e-03
1.2000000000000004e+00 +8.5389600582905292e+00 +0.0000000000000000e+00 +1.1999999991136912e+00 -2.9675072104562845e-02 -5.8061168330817503e-01 +5.7939328023138888e-03
1.2500000000000004e+00 +8.5389566603784122e+00 +0.0000000000000000e+00 +1.2499999989982171e+00 -2.9675483573898993e-02 -5.8061949702018145e-01 +5.7939157474623101e-03
1.3000000000000005e+00 +8.5389531237601197e+00 +0.0000000000000000e+00 +1.2999999988731243e+00 -2.9675913913769360e-02 -5.8062763777099524e-01 +5.7939028216418146e-03
1.3500000000000005e+00 +8.5389494484337050e+00 +0.0000000000000000e+00 +1.3499999987380280e+00 -2.9676363207827679e-02 -5.8063610486460981e-01 +5.7938940156892216e-03
1.4000000000000006e+00 +8.5389456343971464e+00 +0.0000000000000000e+00 +1.3999999985925433e+00 -2.9676831539729123e-02 -5.8064489760503191e-01 +5.7938893204414633e-03
1.4500000000000006e+00 +8.5389416816483426e+00 +0.0000000000000000e+00 +1.4499999984362850e+00 -2.9677318993130416e-02 -5.8065401529628147e-01 +5.7938887267355906e-03
1.5000000000000007e+00 +8.5389375901851157e+00 +0.0000000000000000e+00 +1.4999999982688683e+00 -2.9677825651689783e-02 -5.8066345724239210e-01 +5.7938922254087769e-03
1.5500000000000007e+00 +8.5389333600052097e+00 +0.0000000000000000e+00 +1.5499999980899080e+00 -2.9678351599067142e-02 -5.8067322274741051e-01 +5.7938998072983279e-03
1.6000000000000008e+00 +8.5389289911062924e+00 +0.0000000000000000e+00 +1.5999999978990191e+00 -2.9678896918923919e-02 -5.8068331111539584e-01 +5.7939114632416756e-03
1.6500000000000008e+00 +8.5389244834859532e+00 +0.0000000000000000e+00 +1.6499999976958166e+00 -2.9679461694923338e-02 -5.8069372165042088e-01 +5.7939271840763903e-03
1.7000000000000008e+00 +8.5389198371417070e+00 +0.0000000000000000e+00 +1.6999999974799154e+00 -2.9680046010730297e-02 -5.8070445365657086e-01 +5.7939469606401815e-03
1.7500000000000009e+00 +8.5389150520709887e+00 +0.0000000000000000e+00 +1.7499999972509304e+00 -2.9680649950011458e-02 -5.8071550643794412e-01 +5.7939707837709057e-03
1.8000000000000009e+00 +8.5389101282711568e+00 +0.0000000000000000e+00 +1.7999999970084763e+00 -2.9681273596435308e-02 -5.8072687929865074e-01 +5.7939986443065698e-03
1.8500000000000010e+00 +8.5389050657394954e+00 +0.0000000000000000e+00 +1.8499999967521681e+00 -2.9681917033672168e-02 -5.8073857154281361e-01 +5.7940305330853306e-03
1.9000000000000010e+00 +8.5388998644732119e+00 +0.0000000000000000e+00 +1.8999999964816203e+00 -2.9682580345394269e-02 -5.8075058247456834e-01 +5.7940664409455089e-03
1.9500000000000011e+00 +8.5388945244694376e+00 +0.0000000000000000e+00 +1.9499999961964478e+00 -2.9683263615275755e-02 -5.8076291139806202e-01 +5.7941063587255764e-03
2.0000000000000009e+00 +8.5388890457252256e+00 +0.0000000000000000e+00 +1.9999999958962653e+00 -2.9683966926992773e-02 -5.8077555761745414e-01 +5.7941502772641852e-03
2.0500000000000007e+00 +8.5388834282375559e+00 +0.0000000000000000e+00 +2.0499999955806878e+00 -2.9684690298255087e-02 -5.8078852024488981e-01 +5.7941981862474857e-03
2.1000000000000005e+00 +8.5388776720033306e+00 +0.0000000000000000e+00 +2.0999999952493296e+00 -2.9685433482900335e-02 -5.8080179762442075e-01 +5.7942500707510950e-03
2.1500000000000004e+00 +8.5388717770193789e+00 +0.0000000000000000e+00 +2.1499999949018052e+00 -2.9686196168797949e-02 -5.8081538790808318e-01 +5.7943059146980192e-03
2.2000000000000002e+00 +8.5388657432824555e+00 +0.0000000000000000e+00 +2.1999999945377291e+00 -2.9686978043817303e-02 -5.8082928924792676e-01 +5.7943657020112921e-03
2.2500000000000000e+00 +8.5388595707892367e+00 +0.0000000000000000e+00 +2.2499999941567164e+00 -2.9687778795827673e-02 -5.8084349979601047e-01 +5.7944294166139797e-03
2.2999999999999998e+00 +8.5388532595363298e+00 +0.0000000000000000e+00 +2.2999999937583810e+00 -2.9688598112698129e-02 -5.8085801770440648e-01 +5.7944970424291635e-03
2.3499999999999996e+00 +8.5388468095202672e+00 +0.0000000000000000e+00 +2.3499999933423381e+00 -2.9689435682297472e-02 -5.8087284112519744e-01 +5.7945685633799598e-03
2.3999999999999995e+00 +8.5388402207375069e+00 +0.0000000000000000e+00 +2.3999999929082017e+00 -2.9690291192494101e-02 -5.8088796821047695e-01 +5.7946439633894883e-03
2.4499999999999993e+00 +8.5388334931844341e+00 +0.0000000000000000e+00 +2.4499999924555858e+00 -2.9691164331156050e-02 -5.8090339711235028e-01 +5.7947232263808905e-03
2.4999999999999991e+00 +8.5388266268573645e+00 +0.0000000000000000e+00 +2.4999999919841054e+00 -2.9692054786150768e-02 -5.8091912598293327e-01 +5.7948063362773042e-03
2.5499999999999989e+00 +8.5388196217525394e+00 +0.0000000000000000e+00 +2.5499999914933742e+00 -2.9692962245345164e-02 -5.8093515297435283e-01 +5.7948932770018873e-03
2.5999999999999988e+00 +8.5388124778661307e+00 +0.0000000000000000e+00 +2.5999999909830072e+00 -2.9693886396605428e-02 -5.8095147623874566e-01 +5.7949840324777804e-03
2.6499999999999986e+00 +8.5388051951942394e+00 +0.0000000000000000e+00 +2.6499999904526179e+00 -2.9694826927797003e-02 -5.8096809392825965e-01 +5.7950785866281310e-03
2.6999999999999984e+00 +8.5387977737328953e+00 +0.0000000000000000e+00 +2.6999999899018210e+00 -2.9695783526784522e-02 -5.8098500419505383e-01 +5.7951769233760770e-03
2.7499999999999982e+00 +8.5387902134780589e+00 +0.0000000000000000e+00 +2.7499999893302305e+00 -2.9696755881431679e-02 -5.8100220519129631e-01 +5.7952790266447415e-03
2.7999999999999980e+00 +8.5387825144256215e+00 +0.0000000000000000e+00 +2.7999999887374605e+00 -2.9697743679601190e-02 -5.8101969506916595e-01 +5.7953848803572313e-03
2.8499999999999979e+00 +8.5387746765714052e+00 +0.0000000000000000e+00 +2.8499999881231250e+00 -2.9698746609154669e-02 -5.8103747198085187e-01 +5.7954944684366324e-03
2.8999999999999977e+00 +8.5387666999111627e+00 +0.0000000000000000e+00 +2.8999999874868378e+00 -2.9699764357952619e-02 -5.8105553407855270e-01 +5.7956077748060070e-03
2.9499999999999975e+00 +8.5387585844405791e+00 +0.0000000000000000e+00 +2.9499999868282130e+00 -2.9700796613854292e-02 -5.8107387951447731e-01 +5.7957247833883944e-03
2.9999999999999973e+00 +8.5387503301552723e+00 +0.0000000000000000e+00 +2.9999999861468645e+00 -2.9701843064717619e-02 -5.8109250644084343e-01 +5.7958454781067903e-03
3.0499999999999972e+00 +8.5387419370507924e+00 +0.0000000000000000e+00 +3.0499999854424065e+00 -2.9702903398399160e-02 -5.8111141300988001e-01 +5.7959698428841598e-03
3.0999999999999970e+00 +8.5387334051226222e+00 +0.0000000000000000e+00 +3.0999999847144526e+00 -2.9703977302753981e-02 -5.8113059737382411e-01 +5.7960978616434259e-03
3.1499999999999968e+00 +8.5387247343661787e+00 +0.0000000000000000e+00 +3.1499999839626165e+00 -2.9705064465635620e-02 -5.8115005768492223e-01 +5.7962295183074664e-03
3.1999999999999966e+00 +8.5387159247768150e+00 +0.0000000000000000e+00 +3.1999999831865118e+00 -2.9706164574895971e-02 -5.8116979209543052e-01 +5.7963647967991085e-03
3.2499999999999964e+00 +8.5387069763498147e+00 +0.0000000000000000e+00 +3.2499999823857522e+00 -2.9707277318385242e-02 -5.8118979875761412e-01 +5.7965036810411329e-03
3.2999999999999963e+00 +8.5386978890803995e+00 +0.0000000000000000e+00 +3.2999999815599512e+00 -2.9708402383951806e-02 -5.8121007582374717e-01 +5.7966461549562561e-03
3.3499999999999961e+00 +8.5386886629637253e+00 +0.0000000000000000e+00 +3.3499999807087231e+00 -2.9709539459442227e-02 -5.8123062144611271e-01 +5.7967922024671327e-03
3.3999999999999959e+00 +8.5386792979948840e+00 +0.0000000000000000e+00 +3.3999999798316805e+00 -2.9710688232701087e-02 -5.8125143377700250e-01 +5.7969418074963605e-03
3.4499999999999957e+00 +8.5386697941689036e+00 +0.0000000000000000e+00 +3.4499999789284375e+00 -2.9711848391570945e-02 -5.8127251096871646e-01 +5.7970949539664510e-03
3.4999999999999956e+00 +8.5386601514807481e+00 +0.0000000000000000e+00 +3.4999999779986068e+00 -2.9713019623892254e-02 -5.8129385117356414e-01 +5.7972516257998622e-03
3.5499999999999954e+00 +8.5386503699253211e+00 +0.0000000000000000e+00 +3.5499999770418027e+00 -2.9714201617503305e-02 -5.8131545254386241e-01 +5.7974118069189645e-03
3.5999999999999952e+00 +8.5386404494974606e+00 +0.0000000000000000e+00 +3.5999999760576378e+00 -2.9715394060240083e-02 -5.8133731323193660e-01 +5.7975754812460423e-03
3.6499999999999950e+00 +8.5386303901919458e+00 +0.0000000000000000e+00 +3.6499999750457253e+00 -2.9716596639936255e-02 -5.8135943139012025e-01 +5.7977426327033002e-03
3.6999999999999948e+00 +8.5386201920034939e+00 +0.0000000000000000e+00 +3.6999999740056788e+00 -2.9717809044423067e-02 -5.8138180517075566e-01 +5.7979132452128553e-03
3.7499999999999947e+00 +8.5386098549267579e+00 +0.0000000000000000e+00 +3.7499999729371112e+00 -2.9719030961529249e-02 -5.8140443272619147e-01 +5.7980873026967248e-03
3.7999999999999945e+00 +8.5385993789563326e+00 +0.0000000000000000e+00 +3.7999999718396356e+00 -2.9720262079080961e-02 -5.8142731220878585e-01 +5.7982647890768299e-03
3.8499999999999943e+00 +8.5385887640867537e+00 +0.0000000000000000e+00 +3.8499999707128647e+00 -2.9721502084901690e-02 -5.8145044177090344e-01 +5.7984456882749901e-03
3.8999999999999941e+00 +8.5385780103124951e+00 +0.0000000000000000e+00 +3.8999999695564118e+00 -2.9722750666812191e-02 -5.8147381956491673e-01 +5.7986299842129174e-03
3.9499999999999940e+00 +8.5385671176279718e+00 +0.0000000000000000e+00 +3.9499999683698901e+00 -2.9724007512630383e-02 -5.8149744374320578e-01 +5.7988176608122152e-03
3.9999999999999938e+00 +8.5385560860275405e+00 +0.0000000000000000e+00 +3.9999999671529118e+00 -2.9725272310171323e-02 -5.8152131245815808e-01 +5.7990087019943745e-03
4.0499999999999936e+00 +8.5385449155054989e+00 +0.0000000000000000e+00 +4.0499999659050898e+00 -2.9726544821959071e-02 -5.8154542375514195e-01 +5.7992030951080622e-03
4.0999999999999934e+00 +8.5385336060560881e+00 +0.0000000000000000e+00 +4.0999999646260372e+00 -2.9727825109365138e-02 -5.8156977525142983e-01 +5.7994008412111300e-03
4.1499999999999932e+00 +8.5385221576734907e+00 +0.0000000000000000e+00 +4.1499999633153664e+00 -2.9729113308474837e-02 -5.8159436445726831e-01 +5.7996019447888398e-03
4.1999999999999931e+00 +8.5385105703518320e+00 +0.0000000000000000e+00 +4.1999999619726900e+00 -2.9730409555375457e-02 -5.8161918888290631e-01 +5.7998064103265507e-03
4.2499999999999929e+00 +8.5384988440851810e+00 +0.0000000000000000e+00 +4.2499999605976209e+00 -2.9731713986156288e-02 -5.8164424603859211e-01 +5.8000142423097365e-03
4.2999999999999927e+00 +8.5384869788675530e+00 +0.0000000000000000e+00 +4.2999999591897708e+00 -2.9733026736908776e-02 -5.8166953343457395e-01 +5.8002254452239870e-03
4.3499999999999925e+00 +8.5384749746929067e+00 +0.0000000000000000e+00 +4.3499999577487527e+00 -2.9734347943726491e-02 -5.8169504858110044e-01 +5.8004400235550065e-03
4.3999999999999924e+00 +8.5384628315551474e+00 +0.0000000000000000e+00 +4.3999999562741783e+00 -2.9735677742705319e-02 -5.8172078898842017e-01 +5.8006579817886207e-03
4.4499999999999922e+00 +8.5384505494481253e+00 +0.0000000000000000e+00 +4.4499999547656603e+00 -2.9737016269943402e-02 -5.8174675216677985e-01 +5.8008793244107779e-03
4.4999999999999920e+00 +8.5384381283656392e+00 +0.0000000000000000e+00 +4.4999999532228117e+00 -2.9738363661541350e-02 -5.8177293562642607e-01 +5.8011040559075499e-03
4.5499999999999918e+00 +8.5384255683014327e+00 +0.0000000000000000e+00 +4.5499999516452432e+00 -2.9739720053602196e-02 -5.8179933687760355e-01 +5.8013321807651426e-03
4.5999999999999917e+00 +8.5384128692491998e+00 +0.0000000000000000e+00 +4.5999999500325677e+00 -2.9741085582231545e-02 -5.8182595343055543e-01 +5.8015637034698909e-03
4.6499999999999915e+00 +8.5384000312025812e+00 +0.0000000000000000e+00 +4.6499999483843970e+00 -2.9742460383537592e-02 -5.8185278279552255e-01 +5.8017986285082588e-03
4.6999999999999913e+00 +8.5383870541551694e+00 +0.0000000000000000e+00 +4.6999999467003430e+00 -2.9743844593631254e-02 -5.8187982248274417e-01 +5.8020369603668607e-03
4.7499999999999911e+00 +8.5383739381005039e+00 +0.0000000000000000e+00 +4.7499999449800177e+00 -2.9745238348626187e-02 -5.8190707000245723e-01 +5.8022787035324364e-03
4.7999999999999909e+00 +8.5383606830320762e+00 +0.0000000000000000e+00 +4.7999999432230327e+00 -2.9746641784638893e-02 -5.8193452286489422e-01 +5.8025238624918787e-03
4.8499999999999908e+00 +8.5383472889433278e+00 +0.0000000000000000e+00 +4.8499999414290000e+00 -2.9748055037788795e-02 -5.8196217858028598e-01 +5.8027724417322249e-03
4.8999999999999906e+00 +8.5383337558276509e+00 +0.0000000000000000e+00 +4.8999999395975316e+00 -2.9749478244198265e-02 -5.8199003465885923e-01 +5.8030244457406583e-03
4.9499999999999904e+00 +8.5383200836783928e+00 +0.0000000000000000e+00 +4.9499999377282391e+00 -2.9750911539992760e-02 -5.8201808861083704e-01 +5.8032798790045191e-03
4.9999999999999902e+00 +8.5383062724888497e+00 +0.0000000000000000e+00 +4.9999999358207337e+00 -2.9752355061300861e-02 -5.8204633794643856e-01 +5.8035387460112957e-03
5.0499999999999901e+00 +8.5382923222522749e+00 +0.0000000000000000e+00 +5.0499999338746262e+00 -2.9753808944254327e-02 -5.8207478017587821e-01 +5.8038010512486424e-03
5.0999999999999899e+00 +8.5382782329618738e+00 +0.0000000000000000e+00 +5.0999999318895286e+00 -2.9755273324988212e-02 -5.8210341280936606e-01 +5.8040667992043694e-03
5.1499999999999897e+00 +8.5382640046108058e+00 +0.0000000000000000e+00 +5.1499999298650527e+00 -2.9756748339640933e-02 -5.8213223335710684e-01 +5.8043359943664519e-03
5.1999999999999895e+00 +8.5382496371921874e+00 +0.0000000000000000e+00 +5.1999999278008096e+00 -2.9758234124354264e-02 -5.8216123932930042e-01 +5.8046086412230271e-03
5.2499999999999893e+00 +8.5382351306990873e+00 +0.0000000000000000e+00 +5.2499999256964101e+00 -2.9759730815273552e-02 -5.8219042823614076e-01 +5.8048847442624127e-03
5.2999999999999892e+00 +8.5382204851245334e+00 +0.0000000000000000e+00 +5.2999999235514652e+00 -2.9761238548547644e-02 -5.8221979758781628e-01 +5.8051643079730861e-03
5.3499999999999890e+00 +8.5382057004615106e+00 +0.0000000000000000e+00 +5.3499999213655860e+00 -2.9762757460329057e-02 -5.8224934489450886e-01 +5.8054473368437092e-03
5.3999999999999888e+00 +8.5381907767029599e+00 +0.0000000000000000e+00 +5.3999999191383843e+00 -2.9764287686774010e-02 -5.8227906766639403e-01 +5.8057338353631150e-03
5.4499999999999886e+00 +8.5381757138417811e+00 +0.0000000000000000e+00 +5.4499999168694702e+00 -2.9765829364042505e-02 -5.8230896341364047e-01 +5.8060238080203264e-03
5.4999999999999885e+00 +8.5381605118708315e+00 +0.0000000000000000e+00 +5.4999999145584546e+00 -2.9767382628298422e-02 -5.8233902964641027e-01 +5.8063172593045423e-03
5.5499999999999883e+00 +8.5381451707829292e+00 +0.0000000000000000e+00 +5.5499999122049486e+00 -2.9768947615709522e-02 -5.8236926387485699e-01 +5.8066141937051499e-03
5.5999999999999881e+00 +8.5381296905708517e+00 +0.0000000000000000e+00 +5.5999999098085631e+00 -2.9770524462447625e-02 -5.8239966360912765e-01 +5.8069146157117306e-03
5.6499999999999879e+00 +8.5381140712273371e+00 +0.0000000000000000e+00 +5.6499999073689082e+00 -2.9772113304688576e-02 -5.8243022635936093e-01 +5.8072185298140488e-03
5.6999999999999877e+00 +8.5380983127450847e+00 +0.0000000000000000e+00 +5.6999999048855940e+00 -2.9773714278612414e-02 -5.8246094963568695e-01 +5.8075259405020816e-03
5.7499999999999876e+00 +8.5380824151167545e+00 +0.0000000000000000e+00 +5.7499999023582316e+00 -2.9775327520403357e-02 -5.8249183094822721e-01 +5.8078368522659846e-03
5.7999999999999874e+00 +8.5380663783349693e+00 +0.0000000000000000e+00 +5.7999998997864317e+00 -2.9776953166249967e-02 -5.8252286780709506e-01 +5.8081512695961294e-03
5.8499999999999872e+00 +8.5380502023923146e+00 +0.0000000000000000e+00 +5.8499998971698046e+00 -2.9778591352345115e-02 -5.8255405772239355e-01 +5.8084691969830845e-03
5.8999999999999870e+00 +8.5380338872813386e+00 +0.0000000000000000e+00 +5.8999998945079604e+00 -2.9780242214886159e-02 -5.8258539820421718e-01 +5.8087906389176257e-03
