# multipoles
# s[mm] polynom_b[n=0][T/m^n] polynom_b[n=1][T/m^n] polynom_b[n=2][T/m^n] polynom_b[n=3][T/m^n] polynom_b[n=4][T/m^n] polynom_b[n=5][T/m^n] polynom_b[n=6][T/m^n] 
+0.0000000000000000e+00 -5.5615011320981078e-01 +7.2707298307510060e+00 +5.2869883255818593e+00 +4.5873533550160079e+00 -3.3335984548897864e+03 -2.8505343289249099e+05 +3.4028222740969874e+07 
+5.0000000000000003e-02 -5.5614742404006590e-01 +7.2707210314406856e+00 +5.2882649959453580e+00 +4.6977712654652537e+00 -3.4217936740384566e+03 -2.8575384706886124e+05 +3.4656333204935156e+07 
+1.0000000000000001e-01 -5.5614509862565531e-01 +7.2707333207499190e+00 +5.2891929155158870e+00 +4.7717275114655449e+00 -3.5118189364746409e+03 -2.8620365003428183e+05 +3.5298687080726296e+07 
+1.5000000000000002e-01 -5.5614313611847910e-01 +7.2707665841173696e+00 +5.2897721096748400e+00 +4.8108516993043420e+00 -3.6036513798163019e+03 -2.8641337564156362e+05 +3.5955004886343852e+07 
+2.0000000000000001e-01 -5.5614153567043434e-01 +7.2708207069833595e+00 +5.2900025995774973e+00 +4.8167733728312196e+00 -3.6972680215419746e+03 -2.8639355715317791e+05 +3.6625006307331391e+07 
+2.5000000000000000e-01 -5.5614029643345486e-01 +7.2708955747877493e+00 +5.2898844102631548e+00 +4.7911221373147219e+00 -3.7926459879258950e+03 -2.8615472841739608e+05 +3.7308411777403966e+07 
+2.9999999999999999e-01 -5.5613941755946028e-01 +7.2709910729685241e+00 +5.2894175612804926e+00 +4.7355276840130580e+00 -3.8897622553711863e+03 -2.8570742393176304e+05 +3.8004940710834466e+07 
+3.4999999999999998e-01 -5.5613889820043028e-01 +7.2711070869693595e+00 +5.2886020795229234e+00 +4.6516195151267485e+00 -3.9885939965242123e+03 -2.8506217671625334e+05 +3.8714313840695590e+07 
+3.9999999999999997e-01 -5.5613873750833209e-01 +7.2712435022291606e+00 +5.2874379863696479e+00 +4.5410273360474394e+00 -4.0891182312392393e+03 -2.8422952138745453e+05 +3.9436250852222428e+07 
+4.4999999999999996e-01 -5.5613893463514885e-01 +7.2714002041912442e+00 +5.2859253036882654e+00 +4.4053807115807286e+00 -4.1913119975497375e+03 -2.8321999148697814e+05 +4.0170471571501844e+07 
+4.9999999999999994e-01 -5.5613948873290941e-01 +7.2715770782970903e+00 +5.2840640580507356e+00 +4.2463093055679986e+00 -4.2951524565179107e+03 -2.8204412134835636e+05 +4.0916696640551880e+07 
+5.4999999999999993e-01 -5.5614039895363632e-01 +7.2717740099918435e+00 +5.2818542724620041e+00 +4.0654426465633042e+00 -4.4006166770238578e+03 -2.8071244416924665e+05 +4.1674646094893619e+07 
+5.9999999999999998e-01 -5.5614166444936231e-01 +7.2719908847151356e+00 +5.2792959680416427e+00 +3.8644105266355155e+00 -4.5076816693853016e+03 -2.7923549535663589e+05 +4.2444039542905740e+07 
+6.5000000000000002e-01 -5.5614328437215688e-01 +7.2722275879153910e+00 +5.2763891703110275e+00 +3.6448423995214969e+00 -4.6163245688229963e+03 -2.7762380752459296e+05 +4.3224597460014760e+07 
+7.0000000000000007e-01 -5.5614525787409286e-01 +7.2724840050348503e+00 +5.2731339019950108e+00 +3.4083679927270438e+00 -4.7265224321815804e+03 -2.7588791551627271e+05 +4.4016039782997049e+07 
+7.5000000000000011e-01 -5.5614758410726584e-01 +7.2727600215196944e+00 +5.2695301869718385e+00 +3.1566169113882481e+00 -4.8382523462950503e+03 -2.7403835323458171e+05 +4.4818086644465894e+07 
+8.0000000000000016e-01 -5.5615026222378305e-01 +7.2730555228159064e+00 +5.2655780488016708e+00 +2.8912187770018392e+00 -4.9514913924847824e+03 -2.7208565463274083e+05 +4.5630458149959177e+07 
+8.5000000000000020e-01 -5.5615329137577085e-01 +7.2733703943706995e+00 +5.2612775111340593e+00 +2.6138031977913747e+00 -5.0662166518431814e+03 -2.7004035361486336e+05 +4.6452874396848276e+07 
+9.0000000000000024e-01 -5.5615667071536901e-01 +7.2737045216285976e+00 +5.2566285975605558e+00 +2.3259999163452156e+00 -5.1824052067281864e+03 -2.6791298517666361e+05 +4.7285055497855410e+07 
+9.5000000000000029e-01 -5.5616039939473250e-01 +7.2740577900394783e+00 +5.2516313311908469e+00 +2.0294384733207904e+00 -5.3000341221441759e+03 -2.6571408262244932e+05 +4.8126721432099625e+07 
+1.0000000000000002e+00 -5.5616447656603030e-01 +7.2744300850508807e+00 +5.2462857351610204e+00 +1.7257485415926841e+00 -5.4190804691732674e+03 -2.6345418038373941e+05 +4.8977592242225647e+07 
+1.0500000000000003e+00 -5.5616890138145914e-01 +7.2748212921107589e+00 +5.2405918348004779e+00 +1.4165597991322820e+00 -5.5395213761980713e+03 -2.6114381291476946e+05 +4.9837388348062076e+07 
+1.1000000000000003e+00 -5.5617367299321652e-01 +7.2752312966672417e+00 +5.2345496528383810e+00 +1.1035019350831932e+00 -5.6613339033895245e+03 -2.5879351473545746e+05 +5.0705829716022760e+07 
+1.1500000000000004e+00 -5.5617879055351194e-01 +7.2756599841740890e+00 +5.2281592111865587e+00 +7.8820443557602626e-01 -5.7844950857924896e+03 -2.5641381869542951e+05 +5.1582636130576260e+07 
+1.2000000000000004e+00 -5.5618425321457687e-01 +7.2761072400792548e+00 +5.2214205330071790e+00 +4.7229706035239238e-01 -5.9089819948891818e+03 -2.5401525993879989e+05 +5.2467527634590335e+07 
+1.2500000000000004e+00 -5.5619006012866357e-01 +7.2765729498312259e+00 +5.2143336431416678e+00 +1.5740955920901864e-01 -6.0347717521799423e+03 -2.5160837346244522e+05 +5.3360224621968739e+07 
+1.3000000000000005e+00 -5.5619621044803391e-01 +7.2770569988844551e+00 +5.2068985644410208e+00 -1.5482853221425952e-01 -6.1618414188272336e+03 -2.4920369251568025e+05 +5.4260447058392853e+07 
+1.3500000000000005e+00 -5.5620270332494914e-01 +7.2775592726891425e+00 +5.1991153179983636e+00 -4.6278747828620093e-01 -6.2901680158423114e+03 -2.4681175198958427e+05 +5.5167914660922885e+07 
+1.4000000000000006e+00 -5.5620953791170791e-01 +7.2780796566988935e+00 +5.1909839283162125e+00 -7.6483766048714985e-01 -6.4197286538050776e+03 -2.4444308579064207e+05 +5.6082347745691180e+07 
+1.4500000000000006e+00 -5.5621671336061540e-01 +7.2786180363652075e+00 +5.1825044188530027e+00 -1.0593493471801281e+00 -6.5505004182784241e+03 -2.4210822875782731e+05 +5.7003466469476320e+07 
+1.5000000000000007e+00 -5.5622422882397238e-01 +7.2791742971418287e+00 +5.1736768093243617e+00 -1.3446928763531545e+00 -6.6824602922338509e+03 -2.3981771512949880e+05 +5.7930990290524393e+07 
+1.5500000000000007e+00 -5.5623208345412123e-01 +7.2797483244829602e+00 +5.1645011249134338e+00 -1.6192385719285853e+00 -6.8155854112489369e+03 -2.3758207929120737e+05 +5.8864639715641052e+07 
+1.6000000000000008e+00 -5.5624027640340179e-01 +7.2803400038431301e+00 +5.1549773871021349e+00 -1.8813567556723358e+00 -6.9498528078646850e+03 -2.3541185558874416e+05 +5.9804134545450032e+07 
+1.6500000000000008e+00 -5.5624880682416722e-01 +7.2809492206756472e+00 +5.1451056179006631e+00 -2.1294176735859338e+00 -7.0852395348714472e+03 -2.3331757898583403e+05 +6.0749194736269303e+07 
+1.7000000000000008e+00 -5.5625767386878355e-01 +7.2815758604380729e+00 +5.1348858387540437e+00 -2.3617917161132569e+00 -7.2217226286191917e+03 -2.3130978326199698e+05 +6.1699540131908603e+07 
+1.7500000000000009e+00 -5.5626687668962982e-01 +7.2822198085850172e+00 +5.1243180709851606e+00 -2.5768491352300402e+00 -7.3592791244579148e+03 -2.2939900329576409e+05 +6.2654890576852404e+07 
+1.8000000000000009e+00 -5.5627641443911713e-01 +7.2828809505739480e+00 +5.1134023392393786e+00 -2.7729602678049523e+00 -7.4978861477583487e+03 -2.2759577328864418e+05 +6.3614966523339272e+07 
+1.8500000000000010e+00 -5.5628628626963028e-01 +7.2835591718601274e+00 +5.1021386610718249e+00 -2.9484953394900426e+00 -7.6375206365527611e+03 -2.2591062830927045e+05 +6.4579487174733669e+07 
+1.9000000000000010e+00 -5.5629649133359338e-01 +7.2842543579031371e+00 +5.0905270588023601e+00 -3.1018247344615317e+00 -7.7781596593977883e+03 -2.2435410210150082e+05 +6.5548172621632852e+07 
+1.9500000000000011e+00 -5.5630702878344807e-01 +7.2849663941576344e+00 +5.0785675552410332e+00 -3.2313185945713188e+00 -7.9197802975903369e+03 -2.2293673043623858e+05 +6.6520743038443953e+07 
+2.0000000000000009e+00 -5.5631789777162433e-01 +7.2856951660839799e+00 +5.0662601686513415e+00 -3.3353472867096037e+00 -8.0623595120437058e+03 -2.2166904715110900e+05 +6.7496917796925932e+07 
+2.0500000000000007e+00 -5.5632909727722046e-01 +7.2864405614249090e+00 +5.0536046380224056e+00 -3.4127277547576251e+00 -8.2058523351203003e+03 -2.2055864038655371e+05 +6.8476307356883794e+07 
+2.1000000000000005e+00 -5.5634062558629782e-01 +7.2872024727524058e+00 +5.0405996045059096e+00 -3.4640814308691268e+00 -8.3501160351078015e+03 -2.1960140179015647e+05 +6.9458021736199409e+07 
+2.1500000000000004e+00 -5.5635248081173516e-01 +7.2879807927686260e+00 +5.0272434451541912e+00 -3.4904857614015001e+00 -8.4949808643955294e+03 -2.1879032380522887e+05 +7.0441029616639242e+07 
+2.2000000000000002e+00 -5.5636466106644356e-01 +7.2887754141821794e+00 +5.0135345401871172e+00 -3.4930184582442578e+00 -8.6402771547763568e+03 -2.1811839664755500e+05 +7.1424300194784418e+07 
+2.2500000000000000e+00 -5.5637716446333507e-01 +7.2895862297033469e+00 +4.9994712681773059e+00 -3.4727572778116378e+00 -8.7858351946948878e+03 -2.1757861020230479e+05 +7.2406802375083864e+07 
+2.2999999999999998e+00 -5.5638998911533954e-01 +7.2904131320349466e+00 +4.9850520087506816e+00 -3.4307796633236873e+00 -8.9314853015921690e+03 -2.1716395689329889e+05 +7.3387505263698384e+07 
+2.3499999999999996e+00 -5.5640313313538969e-01 +7.2912560138897353e+00 +4.9702751403668790e+00 -3.3681634529209066e+00 -9.0770577639915082e+03 -2.1686742589761532e+05 +7.4365377779359952e+07 
+2.3999999999999995e+00 -5.5641659463642901e-01 +7.2921147679758693e+00 +4.9551390411918455e+00 -3.2859862767143002e+00 -9.2223828566893517e+03 -2.1668200811760771e+05 +7.5339388721646681e+07 
+2.4499999999999993e+00 -5.5643037173142185e-01 +7.2929892870029667e+00 +4.9396420912134493e+00 -3.1853258312870865e+00 -9.3672909080539630e+03 -2.1660069382974127e+05 +7.6308507274044365e+07 
+2.4999999999999991e+00 -5.5644446253334190e-01 +7.2938794636810043e+00 +4.9237826702861547e+00 -3.0672598062537104e+00 -9.5116122384929004e+03 -2.1661647341014593e+05 +7.7271702543413058e+07 
+2.5499999999999989e+00 -5.5645886515516285e-01 +7.2947851907204404e+00 +4.9075591563164442e+00 -2.9328658982880982e+00 -9.6551771187851755e+03 -2.1672233717253472e+05 +7.8227943315705016e+07 
+2.5999999999999988e+00 -5.5647357770988526e-01 +7.2957063608341057e+00 +4.8909699302185237e+00 -2.7832219009289560e+00 -9.7978158962318394e+03 -2.1691127459314989e+05 +7.9176198872156456e+07 
+2.6499999999999986e+00 -5.5648859831049824e-01 +7.2966428667310641e+00 +4.8740133692025100e+00 -2.6194054450851034e+00 -9.9393588230957866e+03 -2.1717627647874982e+05 +8.0115437873298317e+07 
+2.6999999999999984e+00 -5.5650392507002855e-01 +7.2975946011255770e+00 +4.8566878551868555e+00 -2.4424943536419987e+00 -1.0079636272343445e+04 -2.1751033208777950e+05 +8.1044629767748624e+07 
+2.7499999999999982e+00 -5.5651955610149118e-01 +7.2985614567313242e+00 +4.8389917663996691e+00 -2.2535664431853371e+00 -1.0218478520827935e+04 -2.1790643062977685e+05 +8.1962743369344994e+07 
+2.7999999999999980e+00 -5.5653548951791232e-01 +7.2995433262594975e+00 +4.8209234813383448e+00 -2.0536993921887654e+00 -1.0355715847745918e+04 -2.1835756255980520e+05 +8.2868747484769940e+07 
+2.8499999999999979e+00 -5.5655172343234449e-01 +7.3005401024249696e+00 +4.8024813816937186e+00 -1.8439710565533549e+00 -1.0491178623250506e+04 -2.1885671673230434e+05 +8.3761611556336999e+07 
+2.8999999999999977e+00 -5.5656825595784409e-01 +7.3015516779419931e+00 +4.7836638480190246e+00 -1.6254592368270566e+00 -1.0624697180971458e+04 -2.1939688254040494e+05 +8.4640304753626168e+07 
+2.9499999999999975e+00 -5.5658508520746208e-01 +7.3025779455266022e+00 +4.7644692581821610e+00 -1.3992418102228177e+00 -1.0756101781367888e+04 -2.1997104870592311e+05 +8.5503795750277460e+07 
+2.9999999999999973e+00 -5.5660220929426474e-01 +7.3036187978919216e+00 +4.7448959916332827e+00 -1.1663965307111128e+00 -1.0885222731418840e+04 -2.2057220495589546e+05 +8.6351053548771843e+07 
+3.0499999999999972e+00 -5.5661962633134920e-01 +7.3046741277565319e+00 +4.7249424314131456e+00 -9.2800137741308575e-01 -1.1011890427536988e+04 -2.2119333913043799e+05 +8.7181047723234400e+07 
+3.0999999999999970e+00 -5.5663733443179031e-01 +7.3057438278356850e+00 +4.7046069555880639e+00 -6.8513418803314885e-01 -1.1135935137815412e+04 -2.2182744022699966e+05 +8.7992747004303977e+07 
+3.1499999999999968e+00 -5.5665533170870163e-01 +7.3068277908461390e+00 +4.6838879466958332e+00 -4.3887285587389141e-01 -1.1257187241540525e+04 -2.2246749680532893e+05 +8.8785120839179382e+07 
+3.1999999999999966e+00 -5.5667361627517864e-01 +7.3079259095078690e+00 +4.6627837835975727e+00 -1.9029540247349069e-01 -1.1375477023525318e+04 -2.2310649635503025e+05 +8.9557138049050763e+07 
+3.2499999999999964e+00 -5.5669218624433747e-01 +7.3090380765350726e+00 +4.6412928468895842e+00 +5.9520372011922514e-02 -1.1490634811480602e+04 -2.2373742810781611e+05 +9.0307767732928693e+07 
+3.2999999999999963e+00 -5.5671103972930991e-01 +7.3101641846496319e+00 +4.6194135190754864e+00 +3.0949636532310881e-01 -1.1602490988885744e+04 -2.2435327885553602e+05 +9.1035979381802663e+07 
+3.3499999999999961e+00 -5.5673017484323417e-01 +7.3113041265696639e+00 +4.5971441815904637e+00 +5.5855463075290079e-01 -1.1710875897205455e+04 -2.2494703666558643e+05 +9.1740742149413154e+07 
+3.3999999999999959e+00 -5.5674958969923216e-01 +7.3124577950149625e+00 +4.5744832127648030e+00 +8.0561714893444969e-01 -1.1815619806239596e+04 -2.2551168898202453e+05 +9.2421024752278984e+07 
+3.4499999999999957e+00 -5.5676928241047452e-01 +7.3136250827054834e+00 +4.5514289971229580e+00 +1.0496058814498381e+00 -1.1916553138372903e+04 -2.2604022303347799e+05 +9.3075796881146595e+07 
+3.4999999999999956e+00 -5.5678925109010713e-01 +7.3148058823620987e+00 +4.5279799148693156e+00 +1.2894427675181959e+00 -1.2013506212262833e+04 -2.2652562592465567e+05 +9.3704027573688611e+07 
+3.5499999999999954e+00 -5.5680949385129586e-01 +7.3160000867049293e+00 +4.5041343472603614e+00 +1.5240497566386040e+00 -1.2106309358549170e+04 -2.2696088476925960e+05 +9.4304685885147259e+07 
+3.5999999999999952e+00 -5.5683000880722211e-01 +7.3172075884594578e+00 +4.4798906781253711e+00 +1.7523485881711858e+00 -1.2194792986775770e+04 -2.2733898497559835e+05 +9.4876741438493565e+07 
+3.6499999999999950e+00 -5.5685079407106441e-01 +7.3184282803443992e+00 +4.4552472891610728e+00 +1.9732612701678929e+00 -1.2278787442636494e+04 -2.2765291415091360e+05 +9.5419163401530787e+07 
+3.6999999999999948e+00 -5.5687184775599685e-01 +7.3196620550839695e+00 +4.4302025600804056e+00 +2.1857095744453843e+00 -1.2358123015032959e+04 -2.2789565791341418e+05 +9.5930920543969214e+07 
+3.7499999999999947e+00 -5.5689316797524568e-01 +7.3209088054026452e+00 +4.4047548791767426e+00 +2.3886152697105945e+00 -1.2432630226571287e+04 -2.2806020188920639e+05 +9.6410983220802397e+07 
+3.7999999999999945e+00 -5.5691475284198133e-01 +7.3221684240227587e+00 +4.3789026233636648e+00 +2.5809001874747679e+00 -1.2502139287362803e+04 -2.2813953214408542e+05 +9.6858319656636074e+07 
+3.8499999999999943e+00 -5.5693660046943350e-01 +7.3234408036684107e+00 +4.3526441794281512e+00 +2.7614860895116329e+00 -1.2566480674473523e+04 -2.2812663418958749e+05 +9.7271899877793670e+07 
+3.8999999999999941e+00 -5.5695870897081090e-01 +7.3247258370656496e+00 +4.3259779291072471e+00 +2.9292946577707411e+00 -1.2625484724522803e+04 -2.2801449289453294e+05 +9.7650692946385533e+07 
+3.9499999999999940e+00 -5.5698107645934514e-01 +7.3260234169406235e+00 +4.2989022575810774e+00 +3.0832475551104226e+00 -1.2678981867851757e+04 -2.2779609292886878e+05 +9.7993668559994191e+07 
+3.9999999999999938e+00 -5.5700370104825836e-01 +7.3273334360187787e+00 +4.2714155470480311e+00 +3.2222664596851081e+00 -1.2726802447520011e+04 -2.2746441902736065e+05 +9.8299795800503671e+07 
+4.0499999999999936e+00 -5.5702658074779465e-01 +7.3286557752584818e+00 +4.2435188467998968e+00 +3.3454504100227389e+00 -1.2768832476235444e+04 -2.2701375017020365e+05 +9.8568367570556045e+07 
+4.0999999999999934e+00 -5.5704971315602070e-01 +7.3299902614549293e+00 +4.2152244968660302e+00 +3.4526022486973402e+00 -1.2805188571837514e+04 -2.2644349278062730e+05 +9.8800030253314823e+07 
+4.1499999999999932e+00 -5.5707309576791475e-01 +7.3313367060685906e+00 +4.1865478420556084e+00 +3.5436987391316688e+00 -1.2836047049596242e+04 -2.2575432916505053e+05 +9.8995783602323055e+07 
+4.1999999999999931e+00 -5.5709672607847072e-01 +7.3326949205610710e+00 +4.1575042310664516e+00 +3.6187165869611690e+00 -1.2861584339736490e+04 -2.2494694124519153e+05 +9.9156628195154279e+07 
+4.2499999999999929e+00 -5.5712060158268284e-01 +7.3340647163907473e+00 +4.1281090113162726e+00 +3.6776326049546975e+00 -1.2881976829592284e+04 -2.2402201179420526e+05 +9.9283564292548209e+07 
+4.2999999999999927e+00 -5.5714471977553104e-01 +7.3354459050178304e+00 +4.0983775281764405e+00 +3.7204235040586342e+00 -1.2897400853280105e+04 -2.2298022266794616e+05 +9.9377591800237909e+07 
+4.3499999999999925e+00 -5.5716907815201644e-01 +7.3368382979002638e+00 +4.0683251302789474e+00 +3.7470660939822045e+00 -1.2908032832915607e+04 -2.2182225662677092e+05 +9.9439711223332673e+07 
+4.3999999999999924e+00 -5.5719367420712640e-01 +7.3382417064927044e+00 +4.0379671638631578e+00 +3.7575372676581256e+00 -1.2914049122703404e+04 -2.2054879694665567e+05 +9.9470922592208371e+07 
+4.4499999999999922e+00 -5.5721850543585860e-01 +7.3396559422564769e+00 +4.0073189768021367e+00 +3.7518136371419279e+00 -1.2915626121276813e+04 -2.1916052463193572e+05 +9.9472226243484065e+07 
+4.4999999999999920e+00 -5.5724356933320629e-01 +7.3410808166427604e+00 +3.9763959163387055e+00 +3.7298722174954593e+00 -1.2912940211254869e+04 -2.1765812399817433e+05 +9.9444622409282744e+07 
+4.5499999999999918e+00 -5.5726886339416359e-01 +7.3425161411095816e+00 +3.9452133298877921e+00 +3.6916897067879346e+00 -1.2906167776841554e+04 -2.1604227668904615e+05 +9.9389111321036100e+07 
+4.5999999999999917e+00 -5.5729438511371321e-01 +7.3439617271078177e+00 +3.9137865628052411e+00 +3.6372430758932457e+00 -1.2895485147409408e+04 -2.1431366655042555e+05 +9.9306692846576422e+07 
+4.6499999999999915e+00 -5.5732013198687191e-01 +7.3454173860887986e+00 +3.8821309670602049e+00 +3.5665092542793198e+00 -1.2881068831327775e+04 -2.1247297708552782e+05 +9.9198368062000096e+07 
+4.6999999999999913e+00 -5.5734610150860842e-01 +7.3468829295080909e+00 +3.8502618852501804e+00 +3.4794649665360731e+00 -1.2863095075819243e+04 -2.1052089004700759e+05 +9.9065136253542095e+07 
+4.7499999999999911e+00 -5.5737229117393294e-01 +7.3483581688144399e+00 +3.8181946688423634e+00 +3.3760871988327761e+00 -1.2841740377823822e+04 -2.0845808934555194e+05 +9.8907998433808193e+07 
+4.7999999999999909e+00 -5.5739869847782531e-01 +7.3498429154556977e+00 +3.7859446633273879e+00 +3.2563529445211854e+00 -1.2817181063709995e+04 -2.0628525890377350e+05 +9.8727954426938012e+07 
+4.8499999999999908e+00 -5.5742532091527419e-01 +7.3513369808818396e+00 +3.7535272164810691e+00 +3.1202390768845807e+00 -1.2789593525734886e+04 -2.0400308160467734e+05 +9.8526004524405584e+07 
+4.8999999999999906e+00 -5.5745215598126585e-01 +7.3528401765391793e+00 +3.7209576757912184e+00 +2.9677225964751881e+00 -1.2759154143075693e+04 -2.0161224137535092e+05 +9.8303148905565485e+07 
+4.9499999999999904e+00 -5.5747920117079441e-01 +7.3543523138725888e+00 +3.6882513908403980e+00 +2.7987805312361544e+00 -1.2726039356927889e+04 -1.9911342231765733e+05 +9.8060388196358711e+07 
+4.9999999999999902e+00 -5.5750645397882970e-01 +7.3558732043267367e+00 +3.6554237071029760e+00 +2.6133898859630449e+00 -1.2690425488868646e+04 -1.9650730830814366e+05 +9.7798722177057147e+07 
+5.0499999999999901e+00 -5.5753391190036516e-01 +7.3574026593467901e+00 +3.6224899747698402e+00 +2.4115276170305009e+00 -1.2652488993414299e+04 -1.9379458280007227e+05 +9.7519151555890024e+07 
