# trajectory
# s[mm] rx[mm] ry[mm] rz[mm] px[rad] py[rad] pz[rad]
0.0000000000000000e+00 +8.2850000000000001e+00 +0.0000000000000000e+00 +0.0000000000000000e+00 +0.0000000000000000e+00 +0.0000000000000000e+00 +1.0000000000000000e+00
-5.0000000000000003e-02 +8.2849999307675688e+00 +0.0000000000000000e+00 -4.9999999999936096e-02 +2.7692975033505838e-06 +0.0000000000000000e+00 +9.9999999999616551e-01
-1.0000000000000001e-01 +8.2849997230702108e+00 +0.0000000000000000e+00 -9.9999999999488748e-02 +5.5385973366726910e-06 +0.0000000000000000e+00 +9.9999999998466194e-01
-1.5000000000000002e-01 +8.2849993769077628e+00 +0.0000000000000000e+00 -1.4999999999827449e-01 +8.3079014480591499e-06 +0.0000000000000000e+00 +9.9999999996548938e-01
-2.0000000000000001e-01 +8.2849988922799618e+00 +0.0000000000000000e+00 -1.9999999999590987e-01 +1.1077211782002873e-05 +0.0000000000000000e+00 +9.9999999993864763e-01
-2.5000000000000000e-01 +8.2849982691864490e+00 +0.0000000000000000e+00 -2.4999999999201145e-01 +1.3846530279396951e-05 +0.0000000000000000e+00 +9.9999999990413679e-01
-2.9999999999999999e-01 +8.2849975076267661e+00 +0.0000000000000000e+00 -2.9999999998619575e-01 +1.6615858877534739e-05 +0.0000000000000000e+00 +9.9999999986195665e-01
-3.4999999999999998e-01 +8.2849966076003607e+00 +0.0000000000000000e+00 -3.4999999997807929e-01 +1.9385199510109949e-05 +0.0000000000000000e+00 +9.9999999981210708e-01
-3.9999999999999997e-01 +8.2849955691065826e+00 +0.0000000000000000e+00 -3.9999999996727864e-01 +2.2154554107216733e-05 +0.0000000000000000e+00 +9.9999999975458798e-01
-4.4999999999999996e-01 +8.2849943921446858e+00 +0.0000000000000000e+00 -4.4999999995341028e-01 +2.4923924595349778e-05 +0.0000000000000000e+00 +9.9999999968939912e-01
-4.9999999999999994e-01 +8.2849930767138265e+00 +0.0000000000000000e+00 -4.9999999993609073e-01 +2.7693312897404398e-05 +0.0000000000000000e+00 +9.9999999961654029e-01
-5.4999999999999993e-01 +8.2849916228130667e+00 +0.0000000000000000e+00 -5.4999999991493653e-01 +3.0462720932676615e-05 +0.0000000000000000e+00 +9.9999999953601137e-01
-5.9999999999999998e-01 +8.2849900304413726e+00 +0.0000000000000000e+00 -5.9999999988956410e-01 +3.3232150616863257e-05 +0.0000000000000000e+00 +9.9999999944781215e-01
-6.5000000000000002e-01 +8.2849882995976127e+00 +0.0000000000000000e+00 -6.4999999985958989e-01 +3.6001603862062042e-05 +0.0000000000000000e+00 +9.9999999935194228e-01
-7.0000000000000007e-01 +8.2849864302805614e+00 +0.0000000000000000e+00 -6.9999999982463046e-01 +3.8771082576771666e-05 +0.0000000000000000e+00 +9.9999999924840155e-01
-7.5000000000000011e-01 +8.2849844224888987e+00 +0.0000000000000000e+00 -7.4999999978430221e-01 +4.1540588665891903e-05 +0.0000000000000000e+00 +9.9999999913718973e-01
-8.0000000000000016e-01 +8.2849822762212071e+00 +0.0000000000000000e+00 -7.9999999973822156e-01 +4.4310124030723681e-05 +0.0000000000000000e+00 +9.9999999901830638e-01
-8.5000000000000020e-01 +8.2849799914759767e+00 +0.0000000000000000e+00 -8.4999999968600493e-01 +4.7079690568969183e-05 +0.0000000000000000e+00 +9.9999999889175128e-01
-9.0000000000000024e-01 +8.2849775682516000e+00 +0.0000000000000000e+00 -8.9999999962726873e-01 +4.9849290174731930e-05 +0.0000000000000000e+00 +9.9999999875752410e-01
-9.5000000000000029e-01 +8.2849750065463770e+00 +0.0000000000000000e+00 -9.4999999956162939e-01 +5.2618924738516871e-05 +0.0000000000000000e+00 +9.9999999861562439e-01
-1.0000000000000002e+00 +8.2849723063585117e+00 +0.0000000000000000e+00 -9.9999999948870322e-01 +5.5388596147230484e-05 +0.0000000000000000e+00 +9.9999999846605170e-01
-1.0500000000000003e+00 +8.2849694676861159e+00 +0.0000000000000000e+00 -1.0499999994081066e+00 +5.8158306284180846e-05 +0.0000000000000000e+00 +9.9999999830880570e-01
-1.1000000000000003e+00 +8.2849664905272054e+00 +0.0000000000000000e+00 -1.0999999993194558e+00 +6.0928057029077739e-05 +0.0000000000000000e+00 +9.9999999814388596e-01
-1.1500000000000004e+00 +8.2849633748797036e+00 +0.0000000000000000e+00 -1.1499999992223673e+00 +6.3697850258032733e-05 +0.0000000000000000e+00 +9.9999999797129191e-01
-1.2000000000000004e+00 +8.2849601207414398e+00 +0.0000000000000000e+00 -1.1999999991164572e+00 +6.6467687843559277e-05 +0.0000000000000000e+00 +9.9999999779102322e-01
-1.2500000000000004e+00 +8.2849567281101493e+00 +0.0000000000000000e+00 -1.2499999990013417e+00 +6.9237571654572787e-05 +0.0000000000000000e+00 +9.9999999760307934e-01
-1.3000000000000005e+00 +8.2849531969834729e+00 +0.0000000000000000e+00 -1.2999999988766371e+00 +7.2007503556390748e-05 +0.0000000000000000e+00 +9.9999999740745971e-01
-1.3500000000000005e+00 +8.2849495273589611e+00 +0.0000000000000000e+00 -1.3499999987419598e+00 +7.4777485410732787e-05 +0.0000000000000000e+00 +9.9999999720416388e-01
-1.4000000000000006e+00 +8.2849457192340683e+00 +0.0000000000000000e+00 -1.3999999985969256e+00 +7.7547519075720755e-05 +0.0000000000000000e+00 +9.9999999699319120e-01
-1.4500000000000006e+00 +8.2849417726061585e+00 +0.0000000000000000e+00 -1.4499999984411509e+00 +8.0317606405878864e-05 +0.0000000000000000e+00 +9.9999999677454110e-01
-1.5000000000000007e+00 +8.2849376874725014e+00 +0.0000000000000000e+00 -1.4999999982742518e+00 +8.3087749252133724e-05 +0.0000000000000000e+00 +9.9999999654821303e-01
-1.5500000000000007e+00 +8.2849334638302761e+00 +0.0000000000000000e+00 -1.5499999980958443e+00 +8.5857949461814469e-05 +0.0000000000000000e+00 +9.9999999631420633e-01
-1.6000000000000008e+00 +8.2849291016765676e+00 +0.0000000000000000e+00 -1.5999999979055446e+00 +8.8628208878652811e-05 +0.0000000000000000e+00 +9.9999999607252033e-01
-1.6500000000000008e+00 +8.2849246010083704e+00 +0.0000000000000000e+00 -1.6499999977029685e+00 +9.1398529342783170e-05 +0.0000000000000000e+00 +9.9999999582315446e-01
-1.7000000000000008e+00 +8.2849199618225846e+00 +0.0000000000000000e+00 -1.6999999974877320e+00 +9.4168912690742749e-05 +0.0000000000000000e+00 +9.9999999556610797e-01
-1.7500000000000009e+00 +8.2849151841160218e+00 +0.0000000000000000e+00 -1.7499999972594513e+00 +9.6939360755471612e-05 +0.0000000000000000e+00 +9.9999999530138017e-01
-1.8000000000000009e+00 +8.2849102678853992e+00 +0.0000000000000000e+00 -1.7999999970177420e+00 +9.9709875366312792e-05 +0.0000000000000000e+00 +9.9999999502897041e-01
-1.8500000000000010e+00 +8.2849052131273453e+00 +0.0000000000000000e+00 -1.8499999967622203e+00 +1.0248045834901236e-04 +0.0000000000000000e+00 +9.9999999474887791e-01
-1.9000000000000010e+00 +8.2849000198383944e+00 +0.0000000000000000e+00 -1.8999999964925018e+00 +1.0525111152571955e-04 +0.0000000000000000e+00 +9.9999999446110188e-01
-1.9500000000000011e+00 +8.2848946880149921e+00 +0.0000000000000000e+00 -1.9499999962082024e+00 +1.0802183671498682e-04 +0.0000000000000000e+00 +9.9999999416564156e-01
-2.0000000000000009e+00 +8.2848892176534932e+00 +0.0000000000000000e+00 -1.9999999959089378e+00 +1.1079263573176993e-04 +0.0000000000000000e+00 +9.9999999386249605e-01
-2.0500000000000007e+00 +8.2848836087501585e+00 +0.0000000000000000e+00 -2.0499999955943240e+00 +1.1356351038711382e-04 +0.0000000000000000e+00 +9.9999999355166469e-01
-2.1000000000000005e+00 +8.2848778613011635e+00 +0.0000000000000000e+00 -2.0999999952639765e+00 +1.1633446248469575e-04 +0.0000000000000000e+00 +9.9999999323314659e-01
-2.1500000000000004e+00 +8.2848719753025897e+00 +0.0000000000000000e+00 -2.1499999949175108e+00 +1.1910549381736846e-04 +0.0000000000000000e+00 +9.9999999290694086e-01
-2.2000000000000002e+00 +8.2848659507504312e+00 +0.0000000000000000e+00 -2.1999999945545428e+00 +1.2187660616684599e-04 +0.0000000000000000e+00 +9.9999999257304661e-01
-2.2500000000000000e+00 +8.2848597876405936e+00 +0.0000000000000000e+00 -2.2499999941746873e+00 +1.2464780130370376e-04 +0.0000000000000000e+00 +9.9999999223146296e-01
-2.2999999999999998e+00 +8.2848534859688918e+00 +0.0000000000000000e+00 -2.2999999937775608e+00 +1.2741908098737857e-04 +0.0000000000000000e+00 +9.9999999188218902e-01
-2.3499999999999996e+00 +8.2848470457310555e+00 +0.0000000000000000e+00 -2.3499999933627782e+00 +1.3019044696616872e-04 +0.0000000000000000e+00 +9.9999999152522390e-01
-2.3999999999999995e+00 +8.2848404669227271e+00 +0.0000000000000000e+00 -2.3999999929299549e+00 +1.3296190097723405e-04 +0.0000000000000000e+00 +9.9999999116056659e-01
-2.4499999999999993e+00 +8.2848337495394624e+00 +0.0000000000000000e+00 -2.4499999924787064e+00 +1.3573344474659602e-04 +0.0000000000000000e+00 +9.9999999078821611e-01
-2.4999999999999991e+00 +8.2848268935767280e+00 +0.0000000000000000e+00 -2.4999999920086480e+00 +1.3850507998913771e-04 +0.0000000000000000e+00 +9.9999999040817156e-01
-2.5499999999999989e+00 +8.2848198990299107e+00 +0.0000000000000000e+00 -2.5499999915193952e+00 +1.4127680840860391e-04 +0.0000000000000000e+00 +9.9999999002043183e-01
-2.5999999999999988e+00 +8.2848127658943067e+00 +0.0000000000000000e+00 -2.5999999910105629e+00 +1.4404863169760121e-04 +0.0000000000000000e+00 +9.9999998962499592e-01
-2.6499999999999986e+00 +8.2848054941651323e+00 +0.0000000000000000e+00 -2.6499999904817666e+00 +1.4682055153759796e-04 +0.0000000000000000e+00 +9.9999998922186284e-01
-2.6999999999999984e+00 +8.2847980838375168e+00 +0.0000000000000000e+00 -2.6999999899326212e+00 +1.4959256959892444e-04 +0.0000000000000000e+00 +9.9999998881103158e-01
-2.7499999999999982e+00 +8.2847905349065076e+00 +0.0000000000000000e+00 -2.7499999893627418e+00 +1.5236468754077276e-04 +0.0000000000000000e+00 +9.9999998839250104e-01
-2.7999999999999980e+00 +8.2847828473670706e+00 +0.0000000000000000e+00 -2.7999999887717433e+00 +1.5513690701119708e-04 +0.0000000000000000e+00 +9.9999998796627010e-01
-2.8499999999999979e+00 +8.2847750212140880e+00 +0.0000000000000000e+00 -2.8499999881592406e+00 +1.5790922964711352e-04 +0.0000000000000000e+00 +9.9999998753233765e-01
-2.8999999999999977e+00 +8.2847670564423606e+00 +0.0000000000000000e+00 -2.8999999875248488e+00 +1.6068165707430025e-04 +0.0000000000000000e+00 +9.9999998709070259e-01
-2.9499999999999975e+00 +8.2847589530466070e+00 +0.0000000000000000e+00 -2.9499999868681823e+00 +1.6345419090739755e-04 +0.0000000000000000e+00 +9.9999998664136380e-01
-2.9999999999999973e+00 +8.2847507110214682e+00 +0.0000000000000000e+00 -2.9999999861888567e+00 +1.6622683274990785e-04 +0.0000000000000000e+00 +9.9999998618432007e-01
-3.0499999999999972e+00 +8.2847423303615049e+00 +0.0000000000000000e+00 -3.0499999854864859e+00 +1.6899958419419573e-04 +0.0000000000000000e+00 +9.9999998571957027e-01
-3.0999999999999970e+00 +8.2847338110611961e+00 +0.0000000000000000e+00 -3.0999999847606849e+00 +1.7177244682148801e-04 +0.0000000000000000e+00 +9.9999998524711320e-01
-3.1499999999999968e+00 +8.2847251531149428e+00 +0.0000000000000000e+00 -3.1499999840110684e+00 +1.7454542220187374e-04 +0.0000000000000000e+00 +9.9999998476694774e-01
-3.1999999999999966e+00 +8.2847163565170696e+00 +0.0000000000000000e+00 -3.1999999832372512e+00 +1.7731851189430430e-04 +0.0000000000000000e+00 +9.9999998427907255e-01
-3.2499999999999964e+00 +8.2847074212618228e+00 +0.0000000000000000e+00 -3.2499999824388475e+00 +1.8009171744659338e-04 +0.0000000000000000e+00 +9.9999998378348653e-01
-3.2999999999999963e+00 +8.2846983473433689e+00 +0.0000000000000000e+00 -3.2999999816154713e+00 +1.8286504039541704e-04 +0.0000000000000000e+00 +9.9999998328018835e-01
-3.3499999999999961e+00 +8.2846891347558014e+00 +0.0000000000000000e+00 -3.3499999807667376e+00 +1.8563848226631370e-04 +0.0000000000000000e+00 +9.9999998276917679e-01
-3.3999999999999959e+00 +8.2846797834931358e+00 +0.0000000000000000e+00 -3.3999999798922604e+00 +1.8841204457368423e-04 +0.0000000000000000e+00 +9.9999998225045050e-01
-3.4499999999999957e+00 +8.2846702935493113e+00 +0.0000000000000000e+00 -3.4499999789916540e+00 +1.9118572882079196e-04 +0.0000000000000000e+00 +9.9999998172400828e-01
-3.4999999999999956e+00 +8.2846606649181957e+00 +0.0000000000000000e+00 -3.4999999780645328e+00 +1.9395953649976267e-04 +0.0000000000000000e+00 +9.9999998118984879e-01
-3.5499999999999954e+00 +8.2846508975935791e+00 +0.0000000000000000e+00 -3.5499999771105104e+00 +1.9673346909158466e-04 +0.0000000000000000e+00 +9.9999998064797080e-01
-3.5999999999999952e+00 +8.2846409915691801e+00 +0.0000000000000000e+00 -3.5999999761292010e+00 +1.9950752806610874e-04 +0.0000000000000000e+00 +9.9999998009837288e-01
-3.6499999999999950e+00 +8.2846309468386412e+00 +0.0000000000000000e+00 -3.6499999751202190e+00 +2.0228171488204834e-04 +0.0000000000000000e+00 +9.9999997954105369e-01
-3.6999999999999948e+00 +8.2846207633955355e+00 +0.0000000000000000e+00 -3.6999999740831777e+00 +2.0505603098697940e-04 +0.0000000000000000e+00 +9.9999997897601189e-01
-3.7499999999999947e+00 +8.2846104412333634e+00 +0.0000000000000000e+00 -3.7499999730176912e+00 +2.0783047781734046e-04 +0.0000000000000000e+00 +9.9999997840324606e-01
-3.7999999999999945e+00 +8.2845999803455523e+00 +0.0000000000000000e+00 -3.7999999719233735e+00 +2.1060505679843268e-04 +0.0000000000000000e+00 +9.9999997782275485e-01
-3.8499999999999943e+00 +8.2845893807254587e+00 +0.0000000000000000e+00 -3.8499999707998378e+00 +2.1337976934441988e-04 +0.0000000000000000e+00 +9.9999997723453682e-01
-3.8999999999999941e+00 +8.2845786423663696e+00 +0.0000000000000000e+00 -3.8999999696466983e+00 +2.1615461685832850e-04 +0.0000000000000000e+00 +9.9999997663859064e-01
-3.9499999999999940e+00 +8.2845677652615013e+00 +0.0000000000000000e+00 -3.9499999684635680e+00 +2.1892960073204766e-04 +0.0000000000000000e+00 +9.9999997603491475e-01
-3.9999999999999938e+00 +8.2845567494040004e+00 +0.0000000000000000e+00 -3.9999999672500608e+00 +2.2170472234632913e-04 +0.0000000000000000e+00 +9.9999997542350783e-01
-4.0499999999999936e+00 +8.2845455947869482e+00 +0.0000000000000000e+00 -4.0499999660057897e+00 +2.2447998307064510e-04 +0.0000000000000000e+00 +9.9999997480436842e-01
-4.0999999999999934e+00 +8.2845343014033528e+00 +0.0000000000000000e+00 -4.0999999647303689e+00 +2.2725538426162295e-04 +0.0000000000000000e+00 +9.9999997417749498e-01
-4.1499999999999932e+00 +8.2845228692461585e+00 +0.0000000000000000e+00 -4.1499999634234106e+00 +2.3003092726148007e-04 +0.0000000000000000e+00 +9.9999997354288606e-01
-4.1999999999999931e+00 +8.2845112983082405e+00 +0.0000000000000000e+00 -4.1999999620845285e+00 +2.3280661339788162e-04 +0.0000000000000000e+00 +9.9999997290054021e-01
-4.2499999999999929e+00 +8.2844995885824098e+00 +0.0000000000000000e+00 -4.2499999607133354e+00 +2.3558244398394040e-04 +0.0000000000000000e+00 +9.9999997225045589e-01
-4.2999999999999927e+00 +8.2844877400614116e+00 +0.0000000000000000e+00 -4.2999999593094449e+00 +2.3835842031821693e-04 +0.0000000000000000e+00 +9.9999997159263154e-01
-4.3499999999999925e+00 +8.2844757527379276e+00 +0.0000000000000000e+00 -4.3499999578724697e+00 +2.4113454368471948e-04 +0.0000000000000000e+00 +9.9999997092706572e-01
-4.3999999999999924e+00 +8.2844636266045715e+00 +0.0000000000000000e+00 -4.3999999564020227e+00 +2.4391081535290394e-04 +0.0000000000000000e+00 +9.9999997025375686e-01
-4.4499999999999922e+00 +8.2844513616538986e+00 +0.0000000000000000e+00 -4.4499999548977165e+00 +2.4668723657767395e-04 +0.0000000000000000e+00 +9.9999996957270343e-01
-4.4999999999999920e+00 +8.2844389578784003e+00 +0.0000000000000000e+00 -4.4999999533591639e+00 +2.4946380859938076e-04 +0.0000000000000000e+00 +9.9999996888390386e-01
-4.5499999999999918e+00 +8.2844264152705058e+00 +0.0000000000000000e+00 -4.5499999517859777e+00 +2.5224053264382335e-04 +0.0000000000000000e+00 +9.9999996818735659e-01
-4.5999999999999917e+00 +8.2844137338225821e+00 +0.0000000000000000e+00 -4.5999999501777706e+00 +2.5501740992224823e-04 +0.0000000000000000e+00 +9.9999996748306008e-01
-4.6499999999999915e+00 +8.2844009135269392e+00 +0.0000000000000000e+00 -4.6499999485341545e+00 +2.5779444163134965e-04 +0.0000000000000000e+00 +9.9999996677101266e-01
-4.6999999999999913e+00 +8.2843879543758252e+00 +0.0000000000000000e+00 -4.6999999468547422e+00 +2.6057162895326937e-04 +0.0000000000000000e+00 +9.9999996605121277e-01
-4.7499999999999911e+00 +8.2843748563614312e+00 +0.0000000000000000e+00 -4.7499999451391464e+00 +2.6334897305559676e-04 +0.0000000000000000e+00 +9.9999996532365887e-01
-4.7999999999999909e+00 +8.2843616194758880e+00 +0.0000000000000000e+00 -4.7999999433869789e+00 +2.6612647509136880e-04 +0.0000000000000000e+00 +9.9999996458834928e-01
-4.8499999999999908e+00 +8.2843482437112712e+00 +0.0000000000000000e+00 -4.8499999415978516e+00 +2.6890413619906991e-04 +0.0000000000000000e+00 +9.9999996384528234e-01
-4.8999999999999906e+00 +8.2843347290595979e+00 +0.0000000000000000e+00 -4.8999999397713774e+00 +2.7168195750263210e-04 +0.0000000000000000e+00 +9.9999996309445649e-01
-4.9499999999999904e+00 +8.2843210755128318e+00 +0.0000000000000000e+00 -4.9499999379071680e+00 +2.7445994011143484e-04 +0.0000000000000000e+00 +9.9999996233587007e-01
-4.9999999999999902e+00 +8.2843072830628799e+00 +0.0000000000000000e+00 -4.9999999360048353e+00 +2.7723808512030503e-04 +0.0000000000000000e+00 +9.9999996156952153e-01
-5.0499999999999901e+00 +8.2842933517015958e+00 +0.0000000000000000e+00 -5.0499999340639912e+00 +2.8001639360951701e-04 +0.0000000000000000e+00 +9.9999996079540909e-01
-5.0999999999999899e+00 +8.2842792814207780e+00 +0.0000000000000000e+00 -5.0999999320842466e+00 +2.8279486664479245e-04 +0.0000000000000000e+00 +9.9999996001353109e-01
-5.1499999999999897e+00 +8.2842650722121718e+00 +0.0000000000000000e+00 -5.1499999300652144e+00 +2.8557350527730048e-04 +0.0000000000000000e+00 +9.9999995922388585e-01
-5.1999999999999895e+00 +8.2842507240674728e+00 +0.0000000000000000e+00 -5.1999999280065055e+00 +2.8835231054365749e-04 +0.0000000000000000e+00 +9.9999995842647182e-01
-5.2499999999999893e+00 +8.2842362369783231e+00 +0.0000000000000000e+00 -5.2499999259077317e+00 +2.9113128346592708e-04 +0.0000000000000000e+00 +9.9999995762128713e-01
-5.2999999999999892e+00 +8.2842216109363154e+00 +0.0000000000000000e+00 -5.2999999237685049e+00 +2.9391042505162019e-04 +0.0000000000000000e+00 +9.9999995680833020e-01
-5.3499999999999890e+00 +8.2842068459329905e+00 +0.0000000000000000e+00 -5.3499999215884353e+00 +2.9668973629369490e-04 +0.0000000000000000e+00 +9.9999995598759939e-01
-5.3999999999999888e+00 +8.2841919419598415e+00 +0.0000000000000000e+00 -5.3999999193671346e+00 +2.9946921817055651e-04 +0.0000000000000000e+00 +9.9999995515909279e-01
-5.4499999999999886e+00 +8.2841768990083136e+00 +0.0000000000000000e+00 -5.4499999171042148e+00 +3.0224887164605733e-04 +0.0000000000000000e+00 +9.9999995432280886e-01
-5.4999999999999885e+00 +8.2841617170698019e+00 +0.0000000000000000e+00 -5.4999999147992860e+00 +3.0502869766949677e-04 +0.0000000000000000e+00 +9.9999995347874582e-01
-5.5499999999999883e+00 +8.2841463961356556e+00 +0.0000000000000000e+00 -5.5499999124519599e+00 +3.0780869717562129e-04 +0.0000000000000000e+00 +9.9999995262690200e-01
-5.5999999999999881e+00 +8.2841309361971778e+00 +0.0000000000000000e+00 -5.5999999100618467e+00 +3.1058887108462429e-04 +0.0000000000000000e+00 +9.9999995176727552e-01
-5.6499999999999879e+00 +8.2841153372456251e+00 +0.0000000000000000e+00 -5.6499999076285574e+00 +3.1336922030214602e-04 +0.0000000000000000e+00 +9.9999995089986482e-01
-5.6999999999999877e+00 +8.2840995992722100e+00 +0.0000000000000000e+00 -5.6999999051517030e+00 +3.1614974571927371e-04 +0.0000000000000000e+00 +9.9999995002466802e-01
-5.7499999999999876e+00 +8.2840837222681021e+00 +0.0000000000000000e+00 -5.7499999026308943e+00 +3.1893044821254128e-04 +0.0000000000000000e+00 +9.9999994914168344e-01
-5.7999999999999874e+00 +8.2840677062244232e+00 +0.0000000000000000e+00 -5.7999999000657416e+00 +3.2171132864392942e-04 +0.0000000000000000e+00 +9.9999994825090932e-01
-5.8499999999999872e+00 +8.2840515511322579e+00 +0.0000000000000000e+00 -5.8499998974558558e+00 +3.2449238786086550e-04 +0.0000000000000000e+00 +9.9999994735234388e-01
