# multipoles
# s[mm] polynom_b[n=0][T/m^n] polynom_b[n=1][T/m^n] polynom_b[n=2][T/m^n] polynom_b[n=3][T/m^n] polynom_b[n=4][T/m^n] polynom_b[n=5][T/m^n] polynom_b[n=6][T/m^n] 
-0.0000000000000000e+00 -5.5007300982069274e-01 +7.2074840377851768e+00 +5.1929257270240710e+00 -1.0166179253155651e+02 +3.3129452270372990e+03 +1.6889187996227454e+05 -1.7986331716887165e+07 
-5.0000000000000003e-02 -5.5008086174984216e-01 +7.2079610060388006e+00 +5.1794938685494856e+00 -1.0154835171152227e+02 +3.3331059522013138e+03 +1.6847971506966802e+05 -1.8038273484247934e+07 
-1.0000000000000001e-01 -5.5008910904138686e-01 +7.2084598651503669e+00 +5.1655052490964879e+00 -1.0144555885351340e+02 +3.3530030982095936e+03 +1.6816603044851316e+05 -1.8082165845851541e+07 
-1.4999999999999999e-01 -5.5009775012488549e-01 +7.2089804537930879e+00 +5.1509702685126681e+00 -1.0135254047135383e+02 +3.3726355841240720e+03 +1.6794502788339506e+05 -1.8118421191102225e+07 
-2.0000000000000001e-01 -5.5010678342982089e-01 +7.2095226106442656e+00 +5.1358993264825257e+00 -1.0126842321115828e+02 +3.3920023295439373e+03 +1.6781091025632035e+05 -1.8147451900960892e+07 
-2.5000000000000000e-01 -5.5011620738580125e-01 +7.2100861743818809e+00 +5.1203028218944775e+00 -1.0119233370704805e+02 +3.4111022848793586e+03 +1.6775788029711269e+05 -1.8169670596539132e+07 
-2.9999999999999999e-01 -5.5012602042239600e-01 +7.2106709836836096e+00 +5.1041911588280708e+00 -1.0112339854567618e+02 +3.4299342511721607e+03 +1.6778014034416797e+05 -1.8185488862232421e+07 
-3.4999999999999998e-01 -5.5013622096918724e-01 +7.2112768772284008e+00 +5.0875747349334963e+00 -1.0106074433088700e+02 +3.4484972081582741e+03 +1.6787189286855282e+05 -1.8195319505873550e+07 
-4.0000000000000002e-01 -5.5014680745579692e-01 +7.2119036936936842e+00 +5.0704639518254346e+00 -1.0100349757261897e+02 +3.4667900280791405e+03 +1.6802733955804826e+05 -1.8199574608854212e+07 
-4.5000000000000001e-01 -5.5015777831187884e-01 +7.2125512717665394e+00 +5.0528692093336280e+00 -1.0095078513745325e+02 +3.4848116293971643e+03 +1.6824068498917506e+05 -1.8198666559018709e+07 
-5.0000000000000000e-01 -5.5016913196705919e-01 +7.2132194501220805e+00 +5.0348009084355976e+00 -1.0090173338076148e+02 +3.5025609012303244e+03 +1.6850612959278331e+05 -1.8193007555393592e+07 
-5.5000000000000004e-01 -5.5018086685097534e-01 +7.2139080674460114e+00 +5.0162694490840796e+00 -1.0085546904894777e+02 +3.5200367581191822e+03 +1.6881787695048595e+05 -1.8183009957604676e+07 
-5.9999999999999998e-01 -5.5019298139336403e-01 +7.2146169624207488e+00 +4.9972852318960683e+00 -1.0081111873980397e+02 +3.5372380971713224e+03 +1.6917012948043982e+05 -1.8169086013001364e+07 
-6.5000000000000002e-01 -5.5020547402389952e-01 +7.2153459737298054e+00 +4.9778586574331412e+00 -1.0076780905326828e+02 +3.5541638167203182e+03 +1.6955708956518106e+05 -1.8151647975913309e+07 
-6.9999999999999996e-01 -5.5021834317232310e-01 +7.2160949400566192e+00 +4.9580001255877617e+00 -1.0072466656897852e+02 +3.5708128359271127e+03 +1.6997295946247771e+05 -1.8131108254331559e+07 
-7.5000000000000000e-01 -5.5023158726831789e-01 +7.2168637000864404e+00 +4.9377200375402834e+00 -1.0068081791299886e+02 +3.5871840329198303e+03 +1.7041194182608434e+05 -1.8107878954801947e+07 
-8.0000000000000004e-01 -5.5024520474168193e-01 +7.2176520925044851e+00 +4.9170287929041132e+00 -1.0063538968315963e+02 +3.6032763332239892e+03 +1.7086823905843275e+05 -1.8082372526444852e+07 
-8.4999999999999998e-01 -5.5025919402214774e-01 +7.2184599559976705e+00 +4.8959367913983254e+00 -1.0058750853167780e+02 +3.6190886521333100e+03 +1.7133605407374041e+05 -1.8055001319431148e+07 
-9.0000000000000002e-01 -5.5027355353951357e-01 +7.2192871292499730e+00 +4.8744544361391089e+00 -1.0053630095632022e+02 +3.6346198225422277e+03 +1.7180958848128398e+05 -1.8026177168216571e+07 
-9.4999999999999996e-01 -5.5028828172357902e-01 +7.2201334509504651e+00 +4.8525921239537775e+00 -1.0048089364868535e+02 +3.6498688359539101e+03 +1.7228304552306051e+05 -1.7996312931883011e+07 
-1.0000000000000000e+00 -5.5030337700412446e-01 +7.2209987597863696e+00 +4.8303602586290468e+00 -1.0042041320532296e+02 +3.6648345042418841e+03 +1.7275062770457068e+05 -1.7965820290910818e+07 
-1.0500000000000000e+00 -5.5031883781098101e-01 +7.2218828944430964e+00 +4.8077692373724537e+00 -1.0035398612784091e+02 +3.6795158084685509e+03 +1.7320653675010407e+05 -1.7935112040138040e+07 
-1.1000000000000001e+00 -5.5033466257402530e-01 +7.2227856936107324e+00 +4.7848294614826372e+00 -1.0028073909849833e+02 +3.6939116289747362e+03 +1.7364497592948814e+05 -1.7904600327940859e+07 
-1.1499999999999999e+00 -5.5035084972307102e-01 +7.2237069959767375e+00 +4.7615513291581086e+00 -1.0019979866720878e+02 +3.7080209171706961e+03 +1.7406014743831992e+05 -1.7874697738875236e+07 
-1.2000000000000000e+00 -5.5036739768799947e-01 +7.2246466402297118e+00 +4.7379452427079993e+00 -1.0011029142116540e+02 +3.7218425185281876e+03 +1.7444625381654254e+05 -1.7845816160636291e+07 
-1.2500000000000000e+00 -5.5038430489868551e-01 +7.2256044650588800e+00 +4.7140216006452862e+00 -1.0001134394452298e+02 +3.7353753821244122e+03 +1.7479749758303346e+05 -1.7818368185991876e+07 
-1.3000000000000000e+00 -5.5040156978505828e-01 +7.2265803091512995e+00 +4.6897908041987932e+00 -9.9902082747396747e+01 +3.7486183801088032e+03 +1.7510808077695349e+05 -1.7792765876054462e+07 
-1.3500000000000001e+00 -5.5041919077696000e-01 +7.2275740111974205e+00 +4.6652632507741636e+00 -9.9781634440977797e+01 +3.7615704859183229e+03 +1.7537220623763758e+05 -1.7769421968721572e+07 
-1.3999999999999999e+00 -5.5043716630437600e-01 +7.2285854098873203e+00 +4.6404493421102613e+00 -9.9649125625176154e+01 +3.7742305564801941e+03 +1.7558407678343580e+05 -1.7748748419523612e+07 
-1.4500000000000000e+00 -5.5045549479720479e-01 +7.2296143439088034e+00 +4.6153594759278453e+00 -9.9503682789697521e+01 +3.7865975572377197e+03 +1.7573789437343637e+05 -1.7731157917022873e+07 
-1.5000000000000000e+00 -5.5047417468540061e-01 +7.2306606519514620e+00 +4.5900040530719322e+00 -9.9344432492783426e+01 +3.7986703655999281e+03 +1.7582786159177555e+05 -1.7717062541571293e+07 
-1.5500000000000000e+00 -5.5049320439892035e-01 +7.2317241727063122e+00 +4.5643934722320640e+00 -9.9170501346048539e+01 +3.8104479200856626e+03 +1.7584818152734774e+05 -1.7706874799533796e+07 
-1.6000000000000001e+00 -5.5051258236775014e-01 +7.2328047448591990e+00 +4.5385381308177948e+00 -9.8981015735827512e+01 +3.8219291880726255e+03 +1.7579305543594316e+05 -1.7701007370557100e+07 
-1.6499999999999999e+00 -5.5053230702183320e-01 +7.2339022071038555e+00 +4.5124484300888819e+00 -9.8775102376417308e+01 +3.8331130350702110e+03 +1.7565668739368822e+05 -1.7699872257054526e+07 
-1.7000000000000000e+00 -5.5055237679121527e-01 +7.2350163981265769e+00 +4.4861347687162132e+00 -9.8551887665952222e+01 +3.8439983935054797e+03 +1.7543327888801607e+05 -1.7703881900784392e+07 
-1.7500000000000000e+00 -5.5057279010589077e-01 +7.2361471566177240e+00 +4.4596075434992422e+00 -9.8310498170003967e+01 +3.8545842442803096e+03 +1.7511703287794988e+05 -1.7713449064061068e+07 
-1.8000000000000000e+00 -5.5059354539583849e-01 +7.2372943212653134e+00 +4.4328771556399573e+00 -9.8050060349984861e+01 +3.8648694516320998e+03 +1.7470215151947539e+05 -1.7728985733902477e+07 
-1.8500000000000001e+00 -5.5061464109110192e-01 +7.2384577307581583e+00 +4.4059540016140089e+00 -9.7769700707496668e+01 +3.8748530027784122e+03 +1.7418283738781526e+05 -1.7750904706793178e+07 
-1.8999999999999999e+00 -5.5063607562174433e-01 +7.2396372237870450e+00 +4.3788484796197968e+00 -9.7468545828754372e+01 +3.8845338379010791e+03 +1.7355329385027284e+05 -1.7779618464115839e+07 
-1.9500000000000000e+00 -5.5065784741776524e-01 +7.2408326390367410e+00 +4.3515709883559612e+00 -9.7145722040320479e+01 +3.8939108831837111e+03 +1.7280772217072343e+05 -1.7815539389619611e+07 
-2.0000000000000000e+00 -5.5067976592950496e-01 +7.2420334846062557e+00 +4.3243635925766917e+00 -9.6803714639339915e+01 +3.9029104845291681e+03 +1.7195023603023699e+05 -1.7858581616985787e+07 
-2.0499999999999998e+00 -5.5070201160521037e-01 +7.2432496689155004e+00 +4.2969978467810490e+00 -9.6440628016535115e+01 +3.9116336941630780e+03 +1.7097901663840830e+05 -1.7908976698316496e+07 
-2.1000000000000001e+00 -5.5072458157767634e-01 +7.2444810328424927e+00 +4.2694742849298697e+00 -9.6057514921493379e+01 +3.9201068720449280e+03 +1.6989984900324771e+05 -1.7966603675152753e+07 
-2.1499999999999999e+00 -5.5074747297967752e-01 +7.2457274172672763e+00 +4.2417934410463367e+00 -9.5655428176574219e+01 +3.9283563704031662e+03 +1.6871851870974861e+05 -1.8031341511494100e+07 
-2.2000000000000002e+00 -5.5077068294401388e-01 +7.2469886630672802e+00 +4.2139558471869050e+00 -9.5235420486985490e+01 +3.9364085989068876e+03 +1.6744081037486656e+05 -1.8103069576970454e+07 
-2.2500000000000000e+00 -5.5079420860352890e-01 +7.2482646111213640e+00 +4.1859620367409560e+00 -9.4798544618449782e+01 +3.9442899318753302e+03 +1.6607250914963541e+05 -1.8181667004088793e+07 
-2.2999999999999998e+00 -5.5081804709102655e-01 +7.2495551023091398e+00 +4.1578125442879186e+00 -9.4345853346895666e+01 +3.9520267090408429e+03 +1.6461940022471308e+05 -1.8267012680816542e+07 
-2.3500000000000001e+00 -5.5084219553939884e-01 +7.2508599775115572e+00 +4.1295079041327973e+00 -9.3878399501764335e+01 +3.9596452815245925e+03 +1.6308726923840534e+05 -1.8358985586833030e+07 
-2.3999999999999999e+00 -5.5086665108138910e-01 +7.2521790776069599e+00 +4.1010486466264000e+00 -9.3397235798315137e+01 +3.9671721067047415e+03 +1.6148190091103324e+05 -1.8457465420217682e+07 
-2.4500000000000002e+00 -5.5089141084991278e-01 +7.2535122434758588e+00 +4.0724353076603856e+00 -9.2903415034698796e+01 +3.9746334914691547e+03 +1.5980908061511809e+05 -1.8562330853747800e+07 
-2.5000000000000000e+00 -5.5091647197779336e-01 +7.2548593159997417e+00 +4.0436684199148463e+00 -9.2397990031375031e+01 +3.9820558302994859e+03 +1.5807459386945129e+05 -1.8673461159810659e+07 
-2.5499999999999998e+00 -5.5094183159791066e-01 +7.2562201360566636e+00 +4.0147485192850709e+00 -9.1882013480373629e+01 +3.9894654380609418e+03 +1.5628422520298138e+05 -1.8790735096516933e+07 
-2.6000000000000001e+00 -5.5096748684316665e-01 +7.2575945445289012e+00 +3.9856761360177804e+00 -9.1356538226447384e+01 +3.9968887737256423e+03 +1.5444376031220518e+05 -1.8914032362793911e+07 
-2.6499999999999999e+00 -5.5099343484640151e-01 +7.2589823822979085e+00 +3.9564518063023510e+00 -9.0822617075928832e+01 +4.0043521439355391e+03 +1.5255898459439073e+05 -1.9043231660723202e+07 
-2.7000000000000002e+00 -5.5101967274050756e-01 +7.2603834902443003e+00 +3.9270760653446879e+00 -9.0281302799823138e+01 +4.0118818784638684e+03 +1.5063568314629517e+05 -1.9178211831997856e+07 
-2.7500000000000000e+00 -5.5104619765838680e-01 +7.2617977092472721e+00 +3.8975494442866063e+00 -8.9733648097545171e+01 +4.0195044212544940e+03 +1.4867964042518247e+05 -1.9318852507864222e+07 
-2.7999999999999998e+00 -5.5107300673292370e-01 +7.2632248801929711e+00 +3.8678724793988506e+00 -8.9180705961325600e+01 +4.0272460773003481e+03 +1.4669664333448667e+05 -1.9465032377403684e+07 
-2.8500000000000001e+00 -5.5110009709704399e-01 +7.2646648439596024e+00 +3.8380457040217584e+00 -8.8623529039190231e+01 +4.0351332325842905e+03 +1.4469247585730327e+05 -1.9616630681910362e+07 
-2.8999999999999999e+00 -5.5112746588365891e-01 +7.2661174414309668e+00 +3.8080696526410693e+00 -8.8063170209418431e+01 +4.0431922439647274e+03 +1.4267292388388168e+05 -1.9773526474354297e+07 
-2.9500000000000002e+00 -5.5115511022563535e-01 +7.2675825134893008e+00 +3.7779448603503574e+00 -8.7500682283671679e+01 +4.0514494522489040e+03 +1.4064377273817570e+05 -1.9935598696823057e+07 
-3.0000000000000000e+00 -5.5118302725594981e-01 +7.2690599010177230e+00 +3.7476718621811065e+00 -8.6937118098020619e+01 +4.0599312002984052e+03 +1.3861080787382825e+05 -2.0102726305646494e+07 
-3.0499999999999998e+00 -5.5121121410752738e-01 +7.2705494448984487e+00 +3.7172511923110378e+00 -8.6373530456193080e+01 +4.0686638605115031e+03 +1.3657981448823644e+05 -2.0274788481894799e+07 
-3.1000000000000001e+00 -5.5123966791327028e-01 +7.2720509860146318e+00 +3.6866833853069090e+00 -8.5810972193307293e+01 +4.0776737910056813e+03 +1.3455657800318839e+05 -2.0451664294337057e+07 
-3.1499999999999999e+00 -5.5126838580616888e-01 +7.2735643652498503e+00 +3.6559689759458438e+00 -8.5250496150759290e+01 +4.0869873491595954e+03 +1.3254688380067213e+05 -2.0633232820803620e+07 
-3.2000000000000002e+00 -5.5129736491909331e-01 +7.2750894234885530e+00 +3.6251085010021309e+00 -8.4693155218270419e+01 +4.0966308395701753e+03 +1.3055651772570108e+05 -2.0819372789735638e+07 
-3.2500000000000000e+00 -5.5132660238501474e-01 +7.2766260016140798e+00 +3.5941024956133703e+00 -8.4140002222236532e+01 +4.1066306116276919e+03 +1.2859126497376508e+05 -2.1009963230647609e+07 
-3.2999999999999998e+00 -5.5135609533690522e-01 +7.2781739405109507e+00 +3.5629514942261102e+00 -8.3592090038574753e+01 +4.1170130382442730e+03 +1.2665691113507513e+05 -2.1204883348933145e+07 
-3.3500000000000001e+00 -5.5138584090772758e-01 +7.2797330810614378e+00 +3.5316560344287713e+00 -8.3050471456368697e+01 +4.1278044049303753e+03 +1.2475924107401421e+05 -2.1404011749203604e+07 
-3.3999999999999999e+00 -5.5141583623040535e-01 +7.2813032641532320e+00 +3.5002166505855814e+00 -8.2516199470976019e+01 +4.1390310891452355e+03 +1.2290404125443639e+05 -2.1607227672942385e+07 
-3.4500000000000002e+00 -5.5144607843793203e-01 +7.2828843306698765e+00 +3.4686338794272888e+00 -8.1990326925178380e+01 +4.1507194092509180e+03 +1.2109709691222069e+05 -2.1814409979060315e+07 
-3.5000000000000000e+00 -5.5147656466324446e-01 +7.2844761214974563e+00 +3.4369082573514995e+00 -8.1473906736851262e+01 +4.1628956882381235e+03 +1.1934419375259530e+05 -2.2025437539767034e+07 
-3.5499999999999998e+00 -5.5150729203931037e-01 +7.2860784775184948e+00 +3.4050403203964321e+00 -8.0967991698547863e+01 +4.1755862681858443e+03 +1.1765111648387353e+05 -2.2240189390175238e+07 
-3.6000000000000001e+00 -5.5153825769915121e-01 +7.2876912396215783e+00 +3.3730306051482923e+00 -8.0473634846415209e+01 +4.1888174740616814e+03 +1.1602365174247557e+05 -2.2458544439556949e+07 
-3.6499999999999999e+00 -5.5156945877567143e-01 +7.2893142486932314e+00 +3.3408796500284539e+00 -7.9991889118816744e+01 +4.2026155839930816e+03 +1.1446758528141935e+05 -2.2680381284871601e+07 
-3.6999999999999900e+00 -5.5160089240191601e-01 +7.2909473456177007e+00 +3.3085879906935354e+00 -7.9523807378386522e+01 +4.2170069534629092e+03 +1.1298870222172336e+05 -2.2905579060293227e+07 
-3.7499999999999898e+00 -5.5163255571078973e-01 +7.2925903712817064e+00 +3.2761561652465758e+00 -7.9070442571834761e+01 +4.2320178774031929e+03 +1.1159278827327614e+05 -2.3134016504749432e+07 
-3.7999999999999901e+00 -5.5166444583532082e-01 +7.2942431665722998e+00 +3.2435847104270530e+00 -7.8632847670192049e+01 +4.2476746871115929e+03 +1.1028562931207487e+05 -2.3365572601333443e+07 
-3.8499999999999899e+00 -5.5169655990849642e-01 +7.2959055723767028e+00 +3.2108741650139656e+00 -7.8212075642666647e+01 +4.2640036615011777e+03 +1.0907301111646910e+05 -2.3600125985427860e+07 
-3.8999999999999901e+00 -5.5172889506327139e-01 +7.2975774295823541e+00 +3.1780250666619709e+00 -7.7809179476723216e+01 +4.2810311143262934e+03 +1.0796071958297909e+05 -2.3837555544804320e+07 
-3.9499999999999900e+00 -5.5176144842700625e-01 +7.2992585760408577e+00 +3.1450382149312053e+00 -7.7425134700280850e+01 +4.2987808140360557e+03 +1.0695412752578311e+05 -2.4077734819640290e+07 
-3.9999999999999898e+00 -5.5179421706155340e-01 +7.3009488131331670e+00 +3.1119179817792220e+00 -7.7060057047363273e+01 +4.3172343113729512e+03 +1.0605412963201289e+05 -2.4320410823362790e+07 
-4.0499999999999901e+00 -5.5182719798625579e-01 +7.3026479181206962e+00 +3.0786712988039491e+00 -7.6713527047662041e+01 +4.3363401971494895e+03 +1.0525889446838663e+05 -2.4565220562850069e+07 
-4.0999999999999899e+00 -5.5186038821978955e-01 +7.3043556678310777e+00 +3.0453051565851785e+00 -7.6385117067867043e+01 +4.3560461395417251e+03 +1.0456655189070318e+05 -2.4811797142777517e+07 
-4.1499999999999897e+00 -5.5189378478093254e-01 +7.3060718390910377e+00 +3.0118265450340855e+00 -7.6074399463507930e+01 +4.3762998302836068e+03 +1.0397523168411115e+05 -2.5059773850079343e+07 
-4.1999999999999904e+00 -5.5192738468831226e-01 +7.3077962087264305e+00 +2.9782424517177453e+00 -7.5780946550876124e+01 +4.3970490202159026e+03 +1.0348306324721203e+05 -2.5308784354819670e+07 
-4.2499999999999902e+00 -5.5196118496064239e-01 +7.3095285535684935e+00 +2.9445598657748651e+00 -7.5504330888658046e+01 +4.4182414178317022e+03 +1.0308817797583870e+05 -2.5558462040887754e+07 
-4.2999999999999901e+00 -5.5199518261658631e-01 +7.3112686504407245e+00 +2.9107857776487389e+00 -7.5244124746546561e+01 +4.4398246969177053e+03 +1.0278870494295564e+05 -2.5808440061567996e+07 
-4.3499999999999899e+00 -5.5202937467481172e-01 +7.3130162761695958e+00 +2.8769271747621867e+00 -7.4999900498647648e+01 +4.4617466092965269e+03 +1.0258277392026882e+05 -2.6058352085634496e+07 
-4.3999999999999897e+00 -5.5206375815401831e-01 +7.3147712075829849e+00 +2.8429910459836218e+00 -7.4771230619835407e+01 +4.4839548715284127e+03 +1.0246851560630646e+05 -2.6307831559081133e+07 
-4.4499999999999904e+00 -5.5209833007288345e-01 +7.3165332215040966e+00 +2.8089843820250109e+00 -7.4557687399279558e+01 +4.5063971439162597e+03 +1.0244405911397072e+05 -2.6556511521840930e+07 
-4.4999999999999902e+00 -5.5213308745001322e-01 +7.3183020947583266e+00 +2.7749141709289531e+00 -7.4358843226226142e+01 +4.5290211635375072e+03 +1.0250753434351431e+05 -2.6804025552090760e+07 
-4.5499999999999901e+00 -5.5216802730417414e-01 +7.3200776041711846e+00 +2.7407874025139844e+00 -7.4174270522231993e+01 +4.5517746139358987e+03 +1.0265707146552671e+05 -2.7050006849017110e+07 
-4.5999999999999899e+00 -5.5220314665387926e-01 +7.3218595265658228e+00 +2.7066110644911587e+00 -7.4003541618041439e+01 +4.5746052366186732e+03 +1.0289079986603360e+05 -2.7294089003745656e+07 
-4.6499999999999897e+00 -5.5223844251787302e-01 +7.3236476387651432e+00 +2.6723921491642635e+00 -7.3846228864571842e+01 +4.5974606498201647e+03 +1.0320684910797352e+05 -2.7535904782707643e+07 
-4.6999999999999904e+00 -5.5227391191477548e-01 +7.3254417175910449e+00 +2.6381376421860514e+00 -7.3701904583564442e+01 +4.6202886469856276e+03 +1.0360334846696860e+05 -2.7775088117570922e+07 
-4.7499999999999902e+00 -5.5230955186319619e-01 +7.3272415398688864e+00 +2.6038545331439256e+00 -7.3570141255384925e+01 +4.6430369149054122e+03 +1.0407842850118110e+05 -2.8011272220412057e+07 
-4.7999999999999901e+00 -5.5234535938179741e-01 +7.3290468824170736e+00 +2.5695498127108496e+00 -7.3450511095821383e+01 +4.6656531130834555e+03 +1.0463021757311854e+05 -2.8244090128757957e+07 
-4.8499999999999899e+00 -5.5238133148922330e-01 +7.3308575220593468e+00 +2.5352304694703616e+00 -7.3342586566100849e+01 +4.6880849539649535e+03 +1.0525684606194300e+05 -2.8473175221995406e+07 
-4.8999999999999897e+00 -5.5241746520397694e-01 +7.3326732356148980e+00 +2.5009034926850098e+00 -7.3245939956802033e+01 +4.7102801279672776e+03 +1.0595644292450807e+05 -2.8698160723701563e+07 
-4.9499999999999904e+00 -5.5245351263041353e-01 +7.3344815152294798e+00 +2.4668074850004502e+00 -7.3160694330755788e+01 +4.7320399088326321e+03 +1.0672171010723611e+05 -2.8917210404616602e+07 
-4.9999999999999902e+00 -5.5248971363686661e-01 +7.3362943616850016e+00 +2.4327176916076017e+00 -7.3085734294807580e+01 +4.7534633720481288e+03 +1.0755528799437243e+05 -2.9131494536564596e+07 
-5.0499999999999901e+00 -5.5252606530175952e-01 +7.3381115562798911e+00 +2.3986409627733436e+00 -7.3020640723657422e+01 +4.7744992153489702e+03 +1.0845534307538008e+05 -2.9340653401527800e+07 
