# multipoles
# s[mm] polynom_b[n=0][T/m^n] polynom_b[n=1][T/m^n] polynom_b[n=2][T/m^n] polynom_b[n=3][T/m^n] polynom_b[n=4][T/m^n] polynom_b[n=5][T/m^n] polynom_b[n=6][T/m^n] 
+0.0000000000000000e+00 -5.4943106631749039e-01 +7.1884235986800329e+00 +6.1430033611607149e+00 -8.2493648415142133e+01 -1.2681037334755269e+04 +1.6170060751108802e+05 +8.2723710607964128e+07 
-5.0000000000000003e-02 -5.4943184547500423e-01 +7.1884092922149598e+00 +6.1417761732756944e+00 -8.2327877925672340e+01 -1.2659899922163178e+04 +1.6104871606111515e+05 +8.2633298262482733e+07 
-1.0000000000000001e-01 -5.4943302147283035e-01 +7.1884162274893280e+00 +6.1398395860777475e+00 -8.2142648710071313e+01 -1.2635707676211023e+04 +1.6031929638014035e+05 +8.2530078426318824e+07 
-1.5000000000000002e-01 -5.4943459375212023e-01 +7.1884443614327322e+00 +6.1372090816069491e+00 -8.1938535792410931e+01 -1.2608690081197590e+04 +1.5951565589016123e+05 +8.2415235230288580e+07 
-2.0000000000000001e-01 -5.4943656175404376e-01 +7.1884936509746682e+00 +6.1339001415212655e+00 -8.1716114140425418e+01 -1.2579076607977378e+04 +1.5864110145587416e+05 +8.2289952700229198e+07 
-2.5000000000000000e-01 -5.4943892491975810e-01 +7.1885640530425778e+00 +6.1299282422504975e+00 -8.1475958616714152e+01 -1.2547096590201512e+04 +1.5769893911618140e+05 +8.2155413948708490e+07 
-2.9999999999999999e-01 -5.4944168269047922e-01 +7.1886555245677677e+00 +6.1253088676005722e+00 -8.1218644203167386e+01 -1.2512979561699627e+04 +1.5669247584572082e+05 +8.2012803443014622e+07 
-3.4999999999999998e-01 -5.4944483450741277e-01 +7.1887680224829804e+00 +6.1200574958420573e+00 -8.0944745912973715e+01 -1.2476954906479437e+04 +1.5562501888160268e+05 +8.1863304637956321e+07 
-3.9999999999999997e-01 -5.4944837981179850e-01 +7.1889015037201220e+00 +6.1141896083101894e+00 -8.0654838685664544e+01 -1.2439252089237554e+04 +1.5449987482394665e+05 +8.1708101519629344e+07 
-4.4999999999999996e-01 -5.4945231804487671e-01 +7.1890559252111608e+00 +6.1077206834164306e+00 -8.0349497426548027e+01 -1.2400100502921527e+04 +1.5332034994214101e+05 +8.1548377621111259e+07 
-4.9999999999999994e-01 -5.4945664864792354e-01 +7.1892312438895720e+00 +6.1006662022638132e+00 -8.0029297089252523e+01 -1.2359729606053505e+04 +1.5208975097024566e+05 +8.1385316886673629e+07 
-5.4999999999999993e-01 -5.4946137106222592e-01 +7.1894274166930794e+00 +6.0930416452861209e+00 -7.9694812752835048e+01 -1.2318368847481459e+04 +1.5081138559620615e+05 +8.1220103227520376e+07 
-5.9999999999999998e-01 -5.4946648472908821e-01 +7.1896444005559914e+00 +6.0848624925372405e+00 -7.9346619336716714e+01 -1.2276247660080260e+04 +1.4948856021672796e+05 +8.1053920421649113e+07 
-6.5000000000000002e-01 -5.4947198908983474e-01 +7.1898821524144907e+00 +6.0761442241574768e+00 -7.8985291803797566e+01 -1.2233595481747539e+04 +1.4812458156619122e+05 +8.0887952295662627e+07 
-7.0000000000000007e-01 -5.4947788358579019e-01 +7.1901406292042305e+00 +6.0669023180551562e+00 -7.8611405061470023e+01 -1.2190641693888761e+04 +1.4672275590402557e+05 +8.0723382301450878e+07 
-7.5000000000000011e-01 -5.4948416765832908e-01 +7.1904197878640774e+00 +6.0571522566621683e+00 -7.8225534128179675e+01 -1.2147615792671604e+04 +1.4528639042383028e+05 +8.0561394642408460e+07 
-8.0000000000000016e-01 -5.4949084074881871e-01 +7.1907195853331149e+00 +6.0469095190858306e+00 -7.7828254000200985e+01 -1.2104747192390796e+04 +1.4381879211580937e+05 +8.0403172994023621e+07 
-8.5000000000000020e-01 -5.4949790229865036e-01 +7.1910399785486137e+00 +6.0361895850694571e+00 -7.7420139566783106e+01 -1.2062265321260315e+04 +1.4232326707487111e+05 +8.0249901114640892e+07 
-9.0000000000000024e-01 -5.4950535174923432e-01 +7.1913809244505682e+00 +6.0250079350111889e+00 -7.7001765813042141e+01 -1.2020399629355599e+04 +1.4080312221974068e+05 +8.0102762924421817e+07 
-9.5000000000000029e-01 -5.4951318854200393e-01 +7.1917423799772218e+00 +6.0133800496170942e+00 -7.6573707615100190e+01 -1.1979379568260048e+04 +1.3926166353578528e+05 +7.9962942328074545e+07 
-1.0000000000000002e+00 -5.4952141211839567e-01 +7.1921243020705354e+00 +6.0013214077345873e+00 -7.6136539977351504e+01 -1.1939434545467997e+04 +1.3770219806362013e+05 +7.9831622952864289e+07 
-1.0500000000000003e+00 -5.4953002191986811e-01 +7.1925266476712064e+00 +5.9888474889576058e+00 -7.5690837831405020e+01 -1.1900793987580397e+04 +1.3612803227183456e+05 +7.9709988551500246e+07 
-1.1000000000000003e+00 -5.4953901738791300e-01 +7.1929493737193075e+00 +5.9759737757225686e+00 -7.5237176058376733e+01 -1.1863687399739851e+04 +1.3454247221072603e+05 +7.9599223414479852e+07 
-1.1500000000000004e+00 -5.4954839796401400e-01 +7.1933924371549667e+00 +5.9627157457254594e+00 -7.4776129516141907e+01 -1.1828344153990729e+04 +1.3294882374334795e+05 +7.9500510910399869e+07 
-1.2000000000000004e+00 -5.4955816308968741e-01 +7.1938557949224737e+00 +5.9490888799676780e+00 -7.4308273201019503e+01 -1.1794993718714855e+04 +1.3135039384169551e+05 +7.9415035086386561e+07 
-1.2500000000000004e+00 -5.4956831220646973e-01 +7.1943394039613846e+00 +5.9351086594156612e+00 -7.3834181908167878e+01 -1.1763865555180668e+04 +1.2975048789354730e+05 +7.9343979918368563e+07 
-1.3000000000000005e+00 -5.4957884475589325e-01 +7.1948432212165496e+00 +5.9207905618816969e+00 -7.3354430611634953e+01 -1.1735189044167664e+04 +1.2815241270889703e+05 +7.9288528853313029e+07 
-1.3500000000000005e+00 -5.4958976017953420e-01 +7.1953672036271357e+00 +5.9061500698675715e+00 -7.2869594039935023e+01 -1.1709193693272586e+04 +1.2655947311998745e+05 +7.9249866196673796e+07 
-1.4000000000000006e+00 -5.4960105791897695e-01 +7.1959113081366972e+00 +5.8912026639884463e+00 -7.2380247081120586e+01 -1.1686108954084641e+04 +1.2497497529002461e+05 +7.9229175855166838e+07 
-1.4500000000000006e+00 -5.4961273741580163e-01 +7.1964754916887053e+00 +5.8759638217154180e+00 -7.1886964592960737e+01 -1.1666164198962924e+04 +1.2340222512593720e+05 +7.9227641220377192e+07 
-1.5000000000000007e+00 -5.4962479811163834e-01 +7.1970597112245338e+00 +5.8604490260284292e+00 -7.1390321328154030e+01 -1.1649588946777658e+04 +1.2184452768237091e+05 +7.9246446667328209e+07 
-1.5500000000000007e+00 -5.4963723944811127e-01 +7.1976639236874815e+00 +5.8446737561744015e+00 -7.0890892096939083e+01 -1.1636612615031661e+04 +1.2030518850048888e+05 +7.9286775880459294e+07 
-1.6000000000000008e+00 -5.4965006086686941e-01 +7.1982880860197946e+00 +5.8286534929648139e+00 -7.0389251657901710e+01 -1.1627464665479754e+04 +1.1878751275572059e+05 +7.9349812851732373e+07 
-1.6500000000000008e+00 -5.4966326180957081e-01 +7.1989321551650747e+00 +5.8124037156588413e+00 -6.9885974792940885e+01 -1.1622374514353927e+04 +1.1729480578094060e+05 +7.9436741251183555e+07 
-1.7000000000000008e+00 -5.4967684171790876e-01 +7.1995960880644674e+00 +5.7959399069717561e+00 -6.9381636171740638e+01 -1.1621571673102204e+04 +1.1583037202908500e+05 +7.9548745398750886e+07 
-1.7500000000000009e+00 -5.4969080003357673e-01 +7.2002798416620299e+00 +5.7792775470481308e+00 -6.8876810563939188e+01 -1.1625285585792477e+04 +1.1439751679093961e+05 +7.9687009167752936e+07 
-1.8000000000000009e+00 -5.4970513619828110e-01 +7.2009833728983903e+00 +5.7624321152307445e+00 -6.8372072580557514e+01 -1.1633745670495198e+04 +1.1299954407143232e+05 +7.9852716235869825e+07 
-1.8500000000000010e+00 -5.4971984965375631e-01 +7.2017066387162245e+00 +5.7454190930523374e+00 -6.7867996903249988e+01 -1.1647181407848660e+04 +1.1163975848478026e+05 +8.0047050720482692e+07 
-1.9000000000000010e+00 -5.4973493984174582e-01 +7.2024495960584778e+00 +5.7282539609385408e+00 -6.7365158209540340e+01 -1.1665822245724321e+04 +1.1032146464938611e+05 +8.0271196501951054e+07 
-1.9500000000000011e+00 -5.4975040620401838e-01 +7.2032122018653464e+00 +5.7109522008516596e+00 -6.6864131042629637e+01 -1.1689897675641170e+04 +1.0904796607466816e+05 +8.0526337767544612e+07 
-2.0000000000000009e+00 -5.4976624818235531e-01 +7.2039944130798812e+00 +5.6935292942195188e+00 -6.6365490051645679e+01 -1.1719637170924907e+04 +1.0782256719391800e+05 +8.0813658564571068e+07 
-2.0500000000000007e+00 -5.4978246492893268e-01 +7.2047961705966905e+00 +5.6759972583274489e+00 -6.5869676865507728e+01 -1.1755194424663627e+04 +1.0664748412084904e+05 +8.1133907835815430e+07 
-2.1000000000000005e+00 -5.4979905443706956e-01 +7.2056173445318041e+00 +5.6583546209891473e+00 -6.5376602844321084e+01 -1.1796421201738558e+04 +1.0552051652601999e+05 +8.1486106687820375e+07 
-2.1500000000000004e+00 -5.4981601441025363e-01 +7.2064577856499890e+00 +5.6405966346269105e+00 -6.4886047334938866e+01 -1.1843093929485358e+04 +1.0443833951705077e+05 +8.1868846518742397e+07 
-2.2000000000000002e+00 -5.4983334255199212e-01 +7.2073173447154719e+00 +5.6227185527885073e+00 -6.4397789659914622e+01 -1.1894989061879338e+04 +1.0339762802633550e+05 +8.2280718893267736e+07 
-2.2500000000000000e+00 -5.4985103656579493e-01 +7.2081958724949304e+00 +5.6047156267842730e+00 -6.3911609228628478e+01 -1.1951882992918534e+04 +1.0239505771541719e+05 +8.2720314977299735e+07 
-2.2999999999999998e+00 -5.4986909415519625e-01 +7.2090932197539219e+00 +5.5865831109172532e+00 -6.3427285388814035e+01 -1.2013552202394907e+04 +1.0142730375357396e+05 +8.3186226531922609e+07 
-2.3499999999999996e+00 -5.4988751302372563e-01 +7.2100092372580367e+00 +5.5683162559040777e+00 -6.2944597482085427e+01 -1.2079773069960849e+04 +1.0049104128448624e+05 +8.3677044632660359e+07 
-2.3999999999999995e+00 -5.4990629087494014e-01 +7.2109437757738695e+00 +5.5499103147599333e+00 -6.2463324873301268e+01 -1.2150322034402818e+04 +9.9582945637420358e+04 +8.4191360744979635e+07 
-2.4499999999999993e+00 -5.4992542541241274e-01 +7.2118966860694069e+00 +5.5313605416001907e+00 -6.1983246975729159e+01 -1.2224975566411784e+04 +9.8699692569894891e+04 +8.4727766558231473e+07 
-2.4999999999999991e+00 -5.4994491433971016e-01 +7.2128678189122155e+00 +5.5126621872854988e+00 -6.1504143178309370e+01 -1.2303510049359294e+04 +9.7837957675795085e+04 +8.5284853175291747e+07 
-2.5499999999999989e+00 -5.4996475536042122e-01 +7.2138570250673126e+00 +5.4938105042221475e+00 -6.1025792753823353e+01 -1.2385701905823373e+04 +9.6994415596269566e+04 +8.5861211956320778e+07 
-2.5999999999999988e+00 -5.4998494617814742e-01 +7.2148641553056274e+00 +5.4748007454316374e+00 -6.0547975195296921e+01 -1.2471327578180100e+04 +9.6165742758872977e+04 +8.6455434408497676e+07 
-2.6499999999999986e+00 -5.5000548449649833e-01 +7.2158890603939092e+00 +5.4556281626257865e+00 -6.0070469840931274e+01 -1.2560163467826385e+04 +9.5348614440180128e+04 +8.7066111744055659e+07 
-2.6999999999999984e+00 -5.5002636801909310e-01 +7.2169315911028891e+00 +5.4362880078108411e+00 -5.9593056157408718e+01 -1.2651985987290185e+04 +9.4539706885923602e+04 +8.7691835260054603e+07 
-2.7499999999999982e+00 -5.5004759444957030e-01 +7.2179915982000722e+00 +5.4167755346755069e+00 -5.9115513481969366e+01 -1.2746571596669675e+04 +9.3735695344129446e+04 +8.8331196588198960e+07 
-2.7999999999999980e+00 -5.5006916149156837e-01 +7.2190689324556816e+00 +5.3970859940714968e+00 -5.8637621261837197e+01 -1.2843696672674983e+04 +9.2933256013146471e+04 +8.8982786772027761e+07 
-2.8499999999999979e+00 -5.5009106684873743e-01 +7.2201634446395397e+00 +5.3772146379345118e+00 -5.8159158911967793e+01 -1.2943137627517437e+04 +9.2129064803605521e+04 +8.9645197121215582e+07 
-2.8999999999999977e+00 -5.5011330822474269e-01 +7.2212749855222551e+00 +5.3571567184957907e+00 -5.7679905869496025e+01 -1.3044670876183907e+04 +9.1319797826222333e+04 +9.0317018944366544e+07 
-2.9499999999999975e+00 -5.5013588332325924e-01 +7.2224034058750446e+00 +5.3369074881639351e+00 -5.7199641601711015e+01 -1.3148072841550875e+04 +9.0502131500963485e+04 +9.0996843619597703e+07 
-2.9999999999999973e+00 -5.5015878984796107e-01 +7.2235485564691215e+00 +5.3164621970250989e+00 -5.6718145558771361e+01 -1.3253119878789117e+04 +8.9672742090295375e+04 +9.1683262049209341e+07 
-3.0499999999999972e+00 -5.5018202550254736e-01 +7.2247102880765102e+00 +5.2958160984467959e+00 -5.6235197228096077e+01 -1.3359588436473294e+04 +8.8828306209316681e+04 +9.2374865785550475e+07 
-3.0999999999999970e+00 -5.5020558799071351e-01 +7.2258884514673936e+00 +5.2749644427817772e+00 -5.5750576009229540e+01 -1.3467254877430712e+04 +8.7965499751863041e+04 +9.3070245792240575e+07 
-3.1499999999999968e+00 -5.5022947501617692e-01 +7.2270828974170644e+00 +5.2539024830559473e+00 -5.5264061514698817e+01 -1.3575895638932425e+04 +8.7081000418527401e+04 +9.3767993543259189e+07 
-3.1999999999999966e+00 -5.5025368428264343e-01 +7.2282934766979627e+00 +5.2326254685145903e+00 -5.4775433229802253e+01 -1.3685287053799419e+04 +8.6171484849264438e+04 +9.4466699799644500e+07 
-3.2499999999999964e+00 -5.5027821349385431e-01 +7.2295200400821402e+00 +5.2111286530870018e+00 -5.4284470620568932e+01 -1.3795205583799179e+04 +8.5233629558835804e+04 +9.5164956208437800e+07 
-3.2999999999999963e+00 -5.5030306035354160e-01 +7.2307624383436959e+00 +5.1894072869857295e+00 -5.3790953240782251e+01 -1.3905427582865123e+04 +8.4264111832934679e+04 +9.5861353660946697e+07 
-3.3499999999999961e+00 -5.5032822256543767e-01 +7.2320205222588365e+00 +5.1674566197397382e+00 -5.3294660722020126e+01 -1.4015729393571246e+04 +8.3259609587581464e+04 +9.6554483000685811e+07 
-3.3999999999999959e+00 -5.5035369783329757e-01 +7.2332941426030279e+00 +5.1452719030594851e+00 -5.2795372669474624e+01 -1.4125887414357476e+04 +8.2216800574356690e+04 +9.7242935439974681e+07 
-3.4499999999999957e+00 -5.5037948386089242e-01 +7.2345831501497484e+00 +5.1228483898604127e+00 -5.2292868594451875e+01 -1.4235678074491403e+04 +8.1132361753276258e+04 +9.7925302398961499e+07 
-3.4999999999999956e+00 -5.5040557835197379e-01 +7.2358873956750900e+00 +5.1001813285168529e+00 -5.1786928130270468e+01 -1.4344877680726251e+04 +8.0002971171953657e+04 +9.8600174467619389e+07 
-3.5499999999999954e+00 -5.5043197901031804e-01 +7.2372067299556457e+00 +5.0772659699374412e+00 -5.1277330919369255e+01 -1.4453262608327999e+04 +7.8825306940400158e+04 +9.9266142708786070e+07 
-3.5999999999999952e+00 -5.5045868353971605e-01 +7.2385410037671027e+00 +5.0540975665745913e+00 -5.0763856570785677e+01 -1.4560609271536217e+04 +7.7596046923556351e+04 +9.9921798436359927e+07 
-3.6499999999999950e+00 -5.5048568964393740e-01 +7.2398900678913094e+00 +5.0306713656875441e+00 -5.0246284948989889e+01 -1.4666693946142115e+04 +7.6311871130394124e+04 +1.0056573204189330e+08 
-3.6999999999999948e+00 -5.5051299502679096e-01 +7.2412537731000537e+00 +5.0069826205284285e+00 -4.9724395506326871e+01 -1.4771293069272233e+04 +7.4969456195426872e+04 +1.0119653500574975e+08 
-3.7499999999999947e+00 -5.5054059739206673e-01 +7.2426319701747639e+00 +4.9830265789757355e+00 -4.9197968085995029e+01 -1.4874182928576560e+04 +7.3565481978446536e+04 +1.0181279778706937e+08 
-3.7999999999999945e+00 -5.5056849444357281e-01 +7.2440245098953557e+00 +4.9587984915567667e+00 -4.8666782481567076e+01 -1.4975139885978078e+04 +7.2096627987568587e+04 +1.0241311136132902e+08 
-3.8499999999999943e+00 -5.5059668388513117e-01 +7.2454312430390226e+00 +4.9342936100258772e+00 -4.8130618371437677e+01 -1.5073940336924641e+04 +7.0559572798439491e+04 +1.0299606693406743e+08 
-3.8999999999999941e+00 -5.5062516342054824e-01 +7.2468520203875348e+00 +4.9095071818663536e+00 -4.7589255624861259e+01 -1.5170360556768261e+04 +6.8950996571045325e+04 +1.0356025488529147e+08 
-3.9499999999999940e+00 -5.5065393075364844e-01 +7.2482866927201925e+00 +4.8844344570748950e+00 -4.7042474024034490e+01 -1.5264176892478579e+04 +6.7267578831417850e+04 +1.0410426609749898e+08 
-3.9999999999999938e+00 -5.5068298358826995e-01 +7.2497351108188255e+00 +4.8590706866413687e+00 -4.6490053444125344e+01 -1.5355165712532504e+04 +6.5505999849567364e+04 +1.0462669158364263e+08 
-4.0499999999999936e+00 -5.5071231950735799e-01 +7.2511971181496486e+00 +4.8334118424945212e+00 -4.5931906073843585e+01 -1.5443132121447959e+04 +6.3664337851992212e+04 +1.0512635119047338e+08 
-4.0999999999999934e+00 -5.5074193561131068e-01 +7.2526725214320269e+00 +4.8074574247060964e+00 -4.5368421053813584e+01 -1.5527995426061811e+04 +6.1745775183521175e+04 +1.0560295070209414e+08 
-4.1499999999999932e+00 -5.5077182888009146e-01 +7.2541611163405859e+00 +4.7812079905351599e+00 -4.4800096686406320e+01 -1.5609703174832093e+04 +5.9754661900103922e+04 +1.0605640966728146e+08 
-4.1999999999999931e+00 -5.5080199629367665e-01 +7.2556626985494725e+00 +4.7546640989387265e+00 -4.4227431263133944e+01 -1.5688202962967869e+04 +5.7695347862872739e+04 +1.0648664796740471e+08 
-4.2499999999999929e+00 -5.5083243483205169e-01 +7.2571770637303388e+00 +4.7278263102644047e+00 -4.3650922982593535e+01 -1.5763442416955537e+04 +5.5572182165802784e+04 +1.0689358566520119e+08 
-4.2999999999999927e+00 -5.5086314147519777e-01 +7.2587040075621845e+00 +4.7006951843235001e+00 -4.3071070330429016e+01 -1.5835369156040162e+04 +5.3389516179413535e+04 +1.0727714280367430e+08 
-4.3499999999999925e+00 -5.5089411320308579e-01 +7.2602433257183003e+00 +4.6732712781069026e+00 -4.2488371573093573e+01 -1.5903930715236389e+04 +5.1151699478290211e+04 +1.0763723882416688e+08 
-4.3999999999999924e+00 -5.5092534699571349e-01 +7.2617948138743644e+00 +4.6455551539754740e+00 -4.1903325071074491e+01 -1.5969074778625400e+04 +4.8863082367321942e+04 +1.0797379418846332e+08 
-4.4499999999999922e+00 -5.5095683983305554e-01 +7.2633582677078969e+00 +4.6175473700159415e+00 -4.1316429256745792e+01 -1.6030748915414417e+04 +4.6528015669214939e+04 +1.0828672858373986e+08 
-4.4999999999999920e+00 -5.5098858869509182e-01 +7.2649334828942358e+00 +4.5892484848556014e+00 -4.0728182480692816e+01 -1.6088900705403821e+04 +4.4150849524243757e+04 +1.0857596175236164e+08 
-4.5499999999999918e+00 -5.5102059056182551e-01 +7.2665202551110912e+00 +4.5606590615606137e+00 -4.0139083197586714e+01 -1.6143477846721769e+04 +4.1735934906354443e+04 +1.0884141422607270e+08 
-4.5999999999999917e+00 -5.5105284241322083e-01 +7.2681183800364080e+00 +4.5317796565889914e+00 -3.9549629868331586e+01 -1.6194427864774725e+04 +3.9287622767898742e+04 +1.0908300539271113e+08 
-4.6499999999999915e+00 -5.5108534122927910e-01 +7.2697276533488733e+00 +4.5026108325501442e+00 -3.8960320976259744e+01 -1.6241698443454241e+04 +3.6810264158666236e+04 +1.0930065567914113e+08 
-4.6999999999999913e+00 -5.5111808398997020e-01 +7.2713478707237309e+00 +4.4731531472351378e+00 -3.8371654895441687e+01 -1.6285237140749197e+04 +3.4308209305179560e+04 +1.0949428467583233e+08 
-4.7499999999999911e+00 -5.5115106767529098e-01 +7.2729788278430085e+00 +4.4434071630078744e+00 -3.7784130256865808e+01 -1.6324991632693685e+04 +3.1785810390486753e+04 +1.0966381274747507e+08 
-4.7999999999999909e+00 -5.5118428926521512e-01 +7.2746203203865907e+00 +4.4133734389272092e+00 -3.7198245613782539e+01 -1.6360909513049979e+04 +2.9247418944133355e+04 +1.0980915972965367e+08 
-4.8499999999999908e+00 -5.5121774573973559e-01 +7.2762721440335358e+00 +4.3830525374296130e+00 -3.6614499495296045e+01 -1.6392938458405781e+04 +2.6697386257532671e+04 +1.0993024598069462e+08 
-4.8999999999999906e+00 -5.5125143407881294e-01 +7.2779340944620019e+00 +4.3524450159046539e+00 -3.6033390401292230e+01 -1.6421026013707782e+04 +2.4140063351321565e+04 +1.1002699098730841e+08 
-4.9499999999999904e+00 -5.5128535126244249e-01 +7.2796059673553772e+00 +4.3215514382040157e+00 -3.5455417033968615e+01 -1.6445119895439500e+04 +2.1579802781099494e+04 +1.1009931538102576e+08 
-4.9999999999999902e+00 -5.5131949427059312e-01 +7.2812875583944763e+00 +4.2903723636875117e+00 -3.4881078012648501e+01 -1.6465167695236760e+04 +1.9020956442809027e+04 +1.1014713893431671e+08 
-5.0499999999999901e+00 -5.5135386008324383e-01 +7.2829786632604501e+00 +4.2589083549994164e+00 -3.4310871965992391e+01 -1.6481117101278069e+04 +1.6467876205388948e+04 +1.1017038209906767e+08 
