# trajectory
# s[mm] rx[mm] ry[mm] rz[mm] px[rad] py[rad] pz[rad]
0.0000000000000000e+00 +8.2850000000000001e+00 +0.0000000000000000e+00 +0.0000000000000000e+00 +0.0000000000000000e+00 +0.0000000000000000e+00 +1.0000000000000000e+00
-5.0000000000000003e-02 +8.2849999311580209e+00 +0.0000000000000000e+00 -4.9999999999936803e-02 +2.7536806981489783e-06 +0.0000000000000000e+00 +9.9999999999620859e-01
-1.0000000000000001e-01 +8.2849997246317564e+00 +0.0000000000000000e+00 -9.9999999999494465e-02 +5.5073717604879825e-06 +0.0000000000000000e+00 +9.9999999998483435e-01
-1.5000000000000002e-01 +8.2849993804206381e+00 +0.0000000000000000e+00 -1.4999999999829383e-01 +8.2610752270543486e-06 +0.0000000000000000e+00 +9.9999999996587730e-01
-2.0000000000000001e-01 +8.2849988985239928e+00 +0.0000000000000000e+00 -1.9999999999595580e-01 +1.1014793134060158e-05 +0.0000000000000000e+00 +9.9999999993933719e-01
-2.5000000000000000e-01 +8.2849982789410497e+00 +0.0000000000000000e+00 -2.4999999999210118e-01 +1.3768527513892330e-05 +0.0000000000000000e+00 +9.9999999990521382e-01
-2.9999999999999999e-01 +8.2849975216709328e+00 +0.0000000000000000e+00 -2.9999999998635080e-01 +1.6522280395112726e-05 +0.0000000000000000e+00 +9.9999999986350707e-01
-3.4999999999999998e-01 +8.2849966267126671e+00 +0.0000000000000000e+00 -3.4999999997832548e-01 +1.9276053802458226e-05 +0.0000000000000000e+00 +9.9999999981421683e-01
-3.9999999999999997e-01 +8.2849955940651760e+00 +0.0000000000000000e+00 -3.9999999996764607e-01 +2.2029849756840843e-05 +0.0000000000000000e+00 +9.9999999975734277e-01
-4.4999999999999996e-01 +8.2849944237272819e+00 +0.0000000000000000e+00 -4.4999999995393336e-01 +2.4783670275347801e-05 +0.0000000000000000e+00 +9.9999999969288478e-01
-4.9999999999999994e-01 +8.2849931156977057e+00 +0.0000000000000000e+00 -4.9999999993680816e-01 +2.7537517371241641e-05 +0.0000000000000000e+00 +9.9999999962084252e-01
-5.4999999999999993e-01 +8.2849916699750690e+00 +0.0000000000000000e+00 -5.4999999991589121e-01 +3.0291393053960295e-05 +0.0000000000000000e+00 +9.9999999954121566e-01
-5.9999999999999998e-01 +8.2849900865578903e+00 +0.0000000000000000e+00 -5.9999999989080333e-01 +3.3045299329117204e-05 +0.0000000000000000e+00 +9.9999999945400397e-01
-6.5000000000000002e-01 +8.2849883654445922e+00 +0.0000000000000000e+00 -6.4999999986116519e-01 +3.5799238198501383e-05 +0.0000000000000000e+00 +9.9999999935920714e-01
-7.0000000000000007e-01 +8.2849865066334942e+00 +0.0000000000000000e+00 -6.9999999982659755e-01 +3.8553211660077528e-05 +0.0000000000000000e+00 +9.9999999925682481e-01
-7.5000000000000011e-01 +8.2849845101228166e+00 +0.0000000000000000e+00 -7.4999999978672116e-01 +4.1307221707986106e-05 +0.0000000000000000e+00 +9.9999999914685656e-01
-8.0000000000000016e-01 +8.2849823759106798e+00 +0.0000000000000000e+00 -7.9999999974115676e-01 +4.4061270332543437e-05 +0.0000000000000000e+00 +9.9999999902930203e-01
-8.5000000000000020e-01 +8.2849801039951068e+00 +0.0000000000000000e+00 -8.4999999968952489e-01 +4.6815359520241795e-05 +0.0000000000000000e+00 +9.9999999890416091e-01
-9.0000000000000024e-01 +8.2849776943740192e+00 +0.0000000000000000e+00 -8.9999999963144628e-01 +4.9569491253749484e-05 +0.0000000000000000e+00 +9.9999999877143264e-01
-9.5000000000000029e-01 +8.2849751470452393e+00 +0.0000000000000000e+00 -9.4999999956654158e-01 +5.2323667511910933e-05 +0.0000000000000000e+00 +9.9999999863111677e-01
-1.0000000000000002e+00 +8.2849724620064933e+00 +0.0000000000000000e+00 -9.9999999949443141e-01 +5.5077890269746793e-05 +0.0000000000000000e+00 +9.9999999848321286e-01
-1.0500000000000003e+00 +8.2849696392554044e+00 +0.0000000000000000e+00 -1.0499999994147364e+00 +5.7832161498454012e-05 +0.0000000000000000e+00 +9.9999999832772035e-01
-1.1000000000000003e+00 +8.2849666787895018e+00 +0.0000000000000000e+00 -1.0999999993270770e+00 +6.0586483165405918e-05 +0.0000000000000000e+00 +9.9999999816463880e-01
-1.1500000000000004e+00 +8.2849635806062150e+00 +0.0000000000000000e+00 -1.1499999992310739e+00 +6.3340857234152329e-05 +0.0000000000000000e+00 +9.9999999799396766e-01
-1.2000000000000004e+00 +8.2849603447028723e+00 +0.0000000000000000e+00 -1.1999999991263472e+00 +6.6095285664419606e-05 +0.0000000000000000e+00 +9.9999999781570637e-01
-1.2500000000000004e+00 +8.2849569710767099e+00 +0.0000000000000000e+00 -1.2499999990125179e+00 +6.8849770412110779e-05 +0.0000000000000000e+00 +9.9999999762985436e-01
-1.3000000000000005e+00 +8.2849534597248606e+00 +0.0000000000000000e+00 -1.2999999988892061e+00 +7.1604313429305595e-05 +0.0000000000000000e+00 +9.9999999743641099e-01
-1.3500000000000005e+00 +8.2849498106443633e+00 +0.0000000000000000e+00 -1.3499999987560325e+00 +7.4358916664260619e-05 +0.0000000000000000e+00 +9.9999999723537558e-01
-1.4000000000000006e+00 +8.2849460238321591e+00 +0.0000000000000000e+00 -1.3999999986126173e+00 +7.7113582061409330e-05 +0.0000000000000000e+00 +9.9999999702674758e-01
-1.4500000000000006e+00 +8.2849420992850895e+00 +0.0000000000000000e+00 -1.4499999984585807e+00 +7.9868311561362174e-05 +0.0000000000000000e+00 +9.9999999681052620e-01
-1.5000000000000007e+00 +8.2849380369999022e+00 +0.0000000000000000e+00 -1.4999999982935432e+00 +8.2623107100906673e-05 +0.0000000000000000e+00 +9.9999999658671090e-01
-1.5500000000000007e+00 +8.2849338369732468e+00 +0.0000000000000000e+00 -1.5499999981171251e+00 +8.5377970613007508e-05 +0.0000000000000000e+00 +9.9999999635530090e-01
-1.6000000000000008e+00 +8.2849294992016755e+00 +0.0000000000000000e+00 -1.5999999979289465e+00 +8.8132904026806596e-05 +0.0000000000000000e+00 +9.9999999611629542e-01
-1.6500000000000008e+00 +8.2849250236816463e+00 +0.0000000000000000e+00 -1.6499999977286279e+00 +9.0887909267623149e-05 +0.0000000000000000e+00 +9.9999999586969379e-01
-1.7000000000000008e+00 +8.2849204104095193e+00 +0.0000000000000000e+00 -1.6999999975157893e+00 +9.3642988256953792e-05 +0.0000000000000000e+00 +9.9999999561549524e-01
-1.7500000000000009e+00 +8.2849156593815589e+00 +0.0000000000000000e+00 -1.7499999972900508e+00 +9.6398142912472635e-05 +0.0000000000000000e+00 +9.9999999535369888e-01
-1.8000000000000009e+00 +8.2849107705939353e+00 +0.0000000000000000e+00 -1.7999999970510325e+00 +9.9153375148031337e-05 +0.0000000000000000e+00 +9.9999999508430393e-01
-1.8500000000000010e+00 +8.2849057440427192e+00 +0.0000000000000000e+00 -1.8499999967983545e+00 +1.0190868687365919e-04 +0.0000000000000000e+00 +9.9999999480730961e-01
-1.9000000000000010e+00 +8.2849005797238906e+00 +0.0000000000000000e+00 -1.8999999965316368e+00 +1.0466407999556321e-04 +0.0000000000000000e+00 +9.9999999452271504e-01
-1.9500000000000011e+00 +8.2848952776333320e+00 +0.0000000000000000e+00 -1.9499999962504992e+00 +1.0741955641612822e-04 +0.0000000000000000e+00 +9.9999999423051933e-01
-2.0000000000000009e+00 +8.2848898377668299e+00 +0.0000000000000000e+00 -1.9999999959545620e+00 +1.1017511803391690e-04 +0.0000000000000000e+00 +9.9999999393072159e-01
-2.0500000000000007e+00 +8.2848842601200765e+00 +0.0000000000000000e+00 -2.0499999956434447e+00 +1.1293076674332181e-04 +0.0000000000000000e+00 +9.9999999362332082e-01
-2.1000000000000005e+00 +8.2848785446886719e+00 +0.0000000000000000e+00 -2.0999999953167672e+00 +1.1568650443073621e-04 +0.0000000000000000e+00 +9.9999999330831624e-01
-2.1500000000000004e+00 +8.2848726914681201e+00 +0.0000000000000000e+00 -2.1499999949741495e+00 +1.1844233297072505e-04 +0.0000000000000000e+00 +9.9999999298570674e-01
-2.2000000000000002e+00 +8.2848667004538310e+00 +0.0000000000000000e+00 -2.1999999946152111e+00 +1.2119825422567686e-04 +0.0000000000000000e+00 +9.9999999265549144e-01
-2.2500000000000000e+00 +8.2848605716411221e+00 +0.0000000000000000e+00 -2.2499999942395719e+00 +1.2395427004580385e-04 +0.0000000000000000e+00 +9.9999999231766934e-01
-2.2999999999999998e+00 +8.2848543050252204e+00 +0.0000000000000000e+00 -2.2999999938468512e+00 +1.2671038226914192e-04 +0.0000000000000000e+00 +9.9999999197223943e-01
-2.3499999999999996e+00 +8.2848479006012585e+00 +0.0000000000000000e+00 -2.3499999934366689e+00 +1.2946659272155078e-04 +0.0000000000000000e+00 +9.9999999161920061e-01
-2.3999999999999995e+00 +8.2848413583642806e+00 +0.0000000000000000e+00 -2.3999999930086444e+00 +1.3222290321671400e-04 +0.0000000000000000e+00 +9.9999999125855188e-01
-2.4499999999999993e+00 +8.2848346783092399e+00 +0.0000000000000000e+00 -2.4499999925623972e+00 +1.3497931555613902e-04 +0.0000000000000000e+00 +9.9999999089029212e-01
-2.4999999999999991e+00 +8.2848278604309975e+00 +0.0000000000000000e+00 -2.4999999920975466e+00 +1.3773583152915724e-04 +0.0000000000000000e+00 +9.9999999051442034e-01
-2.5499999999999989e+00 +8.2848209047243291e+00 +0.0000000000000000e+00 -2.5499999916137122e+00 +1.4049245291292405e-04 +0.0000000000000000e+00 +9.9999999013093532e-01
-2.5999999999999988e+00 +8.2848138111839198e+00 +0.0000000000000000e+00 -2.5999999911105132e+00 +1.4324918147241893e-04 +0.0000000000000000e+00 +9.9999998973983595e-01
-2.6499999999999986e+00 +8.2848065798043660e+00 +0.0000000000000000e+00 -2.6499999905875686e+00 +1.4600601896044548e-04 +0.0000000000000000e+00 +9.9999998934112111e-01
-2.6999999999999984e+00 +8.2847992105801787e+00 +0.0000000000000000e+00 -2.6999999900444980e+00 +1.4876296711763140e-04 +0.0000000000000000e+00 +9.9999998893478970e-01
-2.7499999999999982e+00 +8.2847917035057801e+00 +0.0000000000000000e+00 -2.7499999894809206e+00 +1.5152002767242868e-04 +0.0000000000000000e+00 +9.9999998852084049e-01
-2.7999999999999980e+00 +8.2847840585755090e+00 +0.0000000000000000e+00 -2.7999999888964551e+00 +1.5427720234111351e-04 +0.0000000000000000e+00 +9.9999998809927226e-01
-2.8499999999999979e+00 +8.2847762757836154e+00 +0.0000000000000000e+00 -2.8499999882907208e+00 +1.5703449282778641e-04 +0.0000000000000000e+00 +9.9999998767008391e-01
-2.8999999999999977e+00 +8.2847683551242675e+00 +0.0000000000000000e+00 -2.8999999876633367e+00 +1.5979190082437224e-04 +0.0000000000000000e+00 +9.9999998723327410e-01
-2.9499999999999975e+00 +8.2847602965915463e+00 +0.0000000000000000e+00 -2.9499999870139213e+00 +1.6254942801062025e-04 +0.0000000000000000e+00 +9.9999998678884161e-01
-2.9999999999999973e+00 +8.2847521001794515e+00 +0.0000000000000000e+00 -2.9999999863420936e+00 +1.6530707605410416e-04 +0.0000000000000000e+00 +9.9999998633678522e-01
-3.0499999999999972e+00 +8.2847437658818990e+00 +0.0000000000000000e+00 -3.0499999856474727e+00 +1.6806484661022214e-04 +0.0000000000000000e+00 +9.9999998587710359e-01
-3.0999999999999970e+00 +8.2847352936927212e+00 +0.0000000000000000e+00 -3.0999999849296769e+00 +1.7082274132219688e-04 +0.0000000000000000e+00 +9.9999998540979540e-01
-3.1499999999999968e+00 +8.2847266836056708e+00 +0.0000000000000000e+00 -3.1499999841883248e+00 +1.7358076182107563e-04 +0.0000000000000000e+00 +9.9999998493485942e-01
-3.1999999999999966e+00 +8.2847179356144167e+00 +0.0000000000000000e+00 -3.1999999834230355e+00 +1.7633890972573024e-04 +0.0000000000000000e+00 +9.9999998445229432e-01
-3.2499999999999964e+00 +8.2847090497125482e+00 +0.0000000000000000e+00 -3.2499999826334269e+00 +1.7909718664285720e-04 +0.0000000000000000e+00 +9.9999998396209877e-01
-3.2999999999999963e+00 +8.2847000258935761e+00 +0.0000000000000000e+00 -3.2999999818191181e+00 +1.8185559416697764e-04 +0.0000000000000000e+00 +9.9999998346427132e-01
-3.3499999999999961e+00 +8.2846908641509298e+00 +0.0000000000000000e+00 -3.3499999809797272e+00 +1.8461413388043741e-04 +0.0000000000000000e+00 +9.9999998295881065e-01
-3.3999999999999959e+00 +8.2846815644779603e+00 +0.0000000000000000e+00 -3.3999999801148721e+00 +1.8737280735340708e-04 +0.0000000000000000e+00 +9.9999998244571542e-01
-3.4499999999999957e+00 +8.2846721268679406e+00 +0.0000000000000000e+00 -3.4499999792241716e+00 +1.9013161614388197e-04 +0.0000000000000000e+00 +9.9999998192498418e-01
-3.4999999999999956e+00 +8.2846625513140655e+00 +0.0000000000000000e+00 -3.4999999783072435e+00 +1.9289056179768225e-04 +0.0000000000000000e+00 +9.9999998139661550e-01
-3.5499999999999954e+00 +8.2846528378094533e+00 +0.0000000000000000e+00 -3.5499999773637061e+00 +1.9564964584845284e-04 +0.0000000000000000e+00 +9.9999998086060793e-01
-3.5999999999999952e+00 +8.2846429863471478e+00 +0.0000000000000000e+00 -3.5999999763931769e+00 +1.9840886981766355e-04 +0.0000000000000000e+00 +9.9999998031696002e-01
-3.6499999999999950e+00 +8.2846329969201147e+00 +0.0000000000000000e+00 -3.6499999753952745e+00 +2.0116823521460907e-04 +0.0000000000000000e+00 +9.9999997976567034e-01
-3.6999999999999948e+00 +8.2846228695212449e+00 +0.0000000000000000e+00 -3.6999999743696166e+00 +2.0392774353640900e-04 +0.0000000000000000e+00 +9.9999997920673744e-01
-3.7499999999999947e+00 +8.2846126041433550e+00 +0.0000000000000000e+00 -3.7499999733158207e+00 +2.0668739626800780e-04 +0.0000000000000000e+00 +9.9999997864015988e-01
-3.7999999999999945e+00 +8.2846022007791866e+00 +0.0000000000000000e+00 -3.7999999722335049e+00 +2.0944719488217493e-04 +0.0000000000000000e+00 +9.9999997806593599e-01
-3.8499999999999943e+00 +8.2845916594214106e+00 +0.0000000000000000e+00 -3.8499999711222870e+00 +2.1220714083950484e-04 +0.0000000000000000e+00 +9.9999997748406444e-01
-3.8999999999999941e+00 +8.2845809800626231e+00 +0.0000000000000000e+00 -3.8999999699817840e+00 +2.1496723558841690e-04 +0.0000000000000000e+00 +9.9999997689454356e-01
-3.9499999999999940e+00 +8.2845701626953474e+00 +0.0000000000000000e+00 -3.9499999688116136e+00 +2.1772748056515551e-04 +0.0000000000000000e+00 +9.9999997629737181e-01
-3.9999999999999938e+00 +8.2845592073120375e+00 +0.0000000000000000e+00 -3.9999999676113935e+00 +2.2048787719379013e-04 +0.0000000000000000e+00 +9.9999997569254773e-01
-4.0499999999999936e+00 +8.2845481139050765e+00 +0.0000000000000000e+00 -4.0499999663807404e+00 +2.2324842688609838e-04 +0.0000000000000000e+00 +9.9999997508006966e-01
-4.0999999999999934e+00 +8.2845368824667744e+00 +0.0000000000000000e+00 -4.0999999651192729e+00 +2.2600913104028089e-04 +0.0000000000000000e+00 +9.9999997445993605e-01
-4.1499999999999932e+00 +8.2845255129893740e+00 +0.0000000000000000e+00 -4.1499999638266072e+00 +2.2876999103967614e-04 +0.0000000000000000e+00 +9.9999997383214534e-01
-4.1999999999999931e+00 +8.2845140054650503e+00 +0.0000000000000000e+00 -4.1999999625023605e+00 +2.3153100825264351e-04 +0.0000000000000000e+00 +9.9999997319669587e-01
-4.2499999999999929e+00 +8.2845023598859076e+00 +0.0000000000000000e+00 -4.2499999611461492e+00 +2.3429218403256348e-04 +0.0000000000000000e+00 +9.9999997255358597e-01
-4.2999999999999927e+00 +8.2844905762439822e+00 +0.0000000000000000e+00 -4.2999999597575913e+00 +2.3705351971783743e-04 +0.0000000000000000e+00 +9.9999997190281409e-01
-4.3499999999999925e+00 +8.2844786545312488e+00 +0.0000000000000000e+00 -4.3499999583363032e+00 +2.3981501663188781e-04 +0.0000000000000000e+00 +9.9999997124437856e-01
-4.3999999999999924e+00 +8.2844665947396106e+00 +0.0000000000000000e+00 -4.3999999568819019e+00 +2.4257667608315806e-04 +0.0000000000000000e+00 +9.9999997057827772e-01
-4.4499999999999922e+00 +8.2844543968609088e+00 +0.0000000000000000e+00 -4.4499999553940039e+00 +2.4533849936511263e-04 +0.0000000000000000e+00 +9.9999996990450990e-01
-4.4999999999999920e+00 +8.2844420608869207e+00 +0.0000000000000000e+00 -4.4999999538722255e+00 +2.4810048775623700e-04 +0.0000000000000000e+00 +9.9999996922307355e-01
-4.5499999999999918e+00 +8.2844295868093596e+00 +0.0000000000000000e+00 -4.5499999523161838e+00 +2.5086264252003769e-04 +0.0000000000000000e+00 +9.9999996853396689e-01
-4.5999999999999917e+00 +8.2844169746198748e+00 +0.0000000000000000e+00 -4.5999999507254943e+00 +2.5362496490504219e-04 +0.0000000000000000e+00 +9.9999996783718814e-01
-4.6499999999999915e+00 +8.2844042243100553e+00 +0.0000000000000000e+00 -4.6499999490997741e+00 +2.5638745614479903e-04 +0.0000000000000000e+00 +9.9999996713273565e-01
-4.6999999999999913e+00 +8.2843913358714261e+00 +0.0000000000000000e+00 -4.6999999474386396e+00 +2.5915011745787777e-04 +0.0000000000000000e+00 +9.9999996642060773e-01
-4.7499999999999911e+00 +8.2843783092954553e+00 +0.0000000000000000e+00 -4.7499999457417070e+00 +2.6191295004786904e-04 +0.0000000000000000e+00 +9.9999996570080274e-01
-4.7999999999999909e+00 +8.2843651445735471e+00 +0.0000000000000000e+00 -4.7999999440085919e+00 +2.6467595510338432e-04 +0.0000000000000000e+00 +9.9999996497331878e-01
-4.8499999999999908e+00 +8.2843518416970507e+00 +0.0000000000000000e+00 -4.8499999422389104e+00 +2.6743913379805625e-04 +0.0000000000000000e+00 +9.9999996423815418e-01
-4.8999999999999906e+00 +8.2843384006572549e+00 +0.0000000000000000e+00 -4.8999999404322789e+00 +2.7020248729053842e-04 +0.0000000000000000e+00 +9.9999996349530718e-01
-4.9499999999999904e+00 +8.2843248214453897e+00 +0.0000000000000000e+00 -4.9499999385883129e+00 +2.7296601672450538e-04 +0.0000000000000000e+00 +9.9999996274477609e-01
-4.9999999999999902e+00 +8.2843111040526303e+00 +0.0000000000000000e+00 -4.9999999367066286e+00 +2.7572972322865264e-04 +0.0000000000000000e+00 +9.9999996198655905e-01
-5.0499999999999901e+00 +8.2842972484700965e+00 +0.0000000000000000e+00 -5.0499999347868405e+00 +2.7849360791669668e-04 +0.0000000000000000e+00 +9.9999996122065438e-01
-5.0999999999999899e+00 +8.2842832546888499e+00 +0.0000000000000000e+00 -5.0999999328285650e+00 +2.8125767188737504e-04 +0.0000000000000000e+00 +9.9999996044706019e-01
-5.1499999999999897e+00 +8.2842691226999001e+00 +0.0000000000000000e+00 -5.1499999308314184e+00 +2.8402191622444600e-04 +0.0000000000000000e+00 +9.9999995966577471e-01
-5.1999999999999895e+00 +8.2842548524942021e+00 +0.0000000000000000e+00 -5.1999999287950143e+00 +2.8678634199668892e-04 +0.0000000000000000e+00 +9.9999995887679616e-01
-5.2499999999999893e+00 +8.2842404440626591e+00 +0.0000000000000000e+00 -5.2499999267189690e+00 +2.8955095025790401e-04 +0.0000000000000000e+00 +9.9999995808012265e-01
-5.2999999999999892e+00 +8.2842258973961176e+00 +0.0000000000000000e+00 -5.2999999246028979e+00 +2.9231574204691238e-04 +0.0000000000000000e+00 +9.9999995727575253e-01
-5.3499999999999890e+00 +8.2842112124853777e+00 +0.0000000000000000e+00 -5.3499999224464156e+00 +2.9508071838755596e-04 +0.0000000000000000e+00 +9.9999995646368378e-01
-5.3999999999999888e+00 +8.2841963893211865e+00 +0.0000000000000000e+00 -5.3999999202491376e+00 +2.9784588028869755e-04 +0.0000000000000000e+00 +9.9999995564391475e-01
-5.4499999999999886e+00 +8.2841814278942394e+00 +0.0000000000000000e+00 -5.4499999180106782e+00 +3.0061122874422078e-04 +0.0000000000000000e+00 +9.9999995481644355e-01
-5.4999999999999885e+00 +8.2841663281951856e+00 +0.0000000000000000e+00 -5.4999999157306529e+00 +3.0337676473303011e-04 +0.0000000000000000e+00 +9.9999995398126829e-01
-5.5499999999999883e+00 +8.2841510902146247e+00 +0.0000000000000000e+00 -5.5499999134086764e+00 +3.0614248921905071e-04 +0.0000000000000000e+00 +9.9999995313838708e-01
-5.5999999999999881e+00 +8.2841357139431064e+00 +0.0000000000000000e+00 -5.5999999110443630e+00 +3.0890840315122854e-04 +0.0000000000000000e+00 +9.9999995228779814e-01
-5.6499999999999879e+00 +8.2841201993711362e+00 +0.0000000000000000e+00 -5.6499999086373274e+00 +3.1167450746353025e-04 +0.0000000000000000e+00 +9.9999995142949960e-01
-5.6999999999999877e+00 +8.2841045464891714e+00 +0.0000000000000000e+00 -5.6999999061871840e+00 +3.1444080307494322e-04 +0.0000000000000000e+00 +9.9999995056348956e-01
-5.7499999999999876e+00 +8.2840887552876250e+00 +0.0000000000000000e+00 -5.7499999036935474e+00 +3.1720729088947544e-04 +0.0000000000000000e+00 +9.9999994968976613e-01
-5.7999999999999874e+00 +8.2840728257568639e+00 +0.0000000000000000e+00 -5.7999999011560321e+00 +3.1997397179615557e-04 +0.0000000000000000e+00 +9.9999994880832743e-01
-5.8499999999999872e+00 +8.2840567578872122e+00 +0.0000000000000000e+00 -5.8499998985742518e+00 +3.2274084666903286e-04 +0.0000000000000000e+00 +9.9999994791917168e-01
