# field on trajectory
# s[mm] rx[mm] ry[mm] rz[mm] bx[T] by[T] bz[T]
0.0000000000000000e+00 +8.2850000000000001e+00 +0.0000000000000000e+00 +0.0000000000000000e+00 -2.8279402280019749e-02 -5.5344399530529753e-01 +5.7245499135339974e-03
5.0000000000000003e-02 +8.2849999308727575e+00 +0.0000000000000000e+00 +4.9999999999936290e-02 -2.8279192090281818e-02 -5.5344568774982927e-01 +5.7252200048446989e-03
1.0000000000000001e-01 +8.2849997234907313e+00 +0.0000000000000000e+00 +9.9999999999490288e-02 -2.8279000712175931e-02 -5.5344773987185514e-01 +5.7258878167122601e-03
1.5000000000000002e-01 +8.2849993778534099e+00 +0.0000000000000000e+00 +1.4999999999827970e-01 -2.8278828087896515e-02 -5.5345015094375516e-01 +5.7265533084201242e-03
2.0000000000000001e-01 +8.2849988939601911e+00 +0.0000000000000000e+00 +1.9999999999592227e-01 -2.8278674159638612e-02 -5.5345292023792769e-01 +5.7272164392515755e-03
2.5000000000000000e-01 +8.2849982718103821e+00 +0.0000000000000000e+00 +2.4999999999203565e-01 -2.8278538869597816e-02 -5.5345604702678697e-01 +5.7278771684897371e-03
2.9999999999999999e-01 +8.2849975114032031e+00 +0.0000000000000000e+00 +2.9999999998623755e-01 -2.8278422159970468e-02 -5.5345953058276476e-01 +5.7285354554175794e-03
3.4999999999999998e-01 +8.2849966127377819e+00 +0.0000000000000000e+00 +3.4999999997814563e-01 -2.8278323972953611e-02 -5.5346337017831015e-01 +5.7291912593179159e-03
3.9999999999999997e-01 +8.2849955758131610e+00 +0.0000000000000000e+00 +3.9999999996737756e-01 -2.8278244250744957e-02 -5.5346756508588812e-01 +5.7298445394733926e-03
4.4999999999999996e-01 +8.2849944006282925e+00 +0.0000000000000000e+00 +4.4999999995355106e-01 -2.8278182935543079e-02 -5.5347211457798184e-01 +5.7304952551664942e-03
4.9999999999999994e-01 +8.2849930871820394e+00 +0.0000000000000000e+00 +4.9999999993628375e-01 -2.8278139969547308e-02 -5.5347701792709003e-01 +5.7311433656795424e-03
5.4999999999999993e-01 +8.2849916354731779e+00 +0.0000000000000000e+00 +5.4999999991519322e-01 -2.8278115294957835e-02 -5.5348227440572750e-01 +5.7317888302946852e-03
5.9999999999999998e-01 +8.2849900455003933e+00 +0.0000000000000000e+00 +5.9999999988989716e-01 -2.8278108853975727e-02 -5.5348788328642617e-01 +5.7324316082939071e-03
6.5000000000000002e-01 +8.2849883172622842e+00 +0.0000000000000000e+00 +6.4999999986001311e-01 -2.8278120588802986e-02 -5.5349384384173272e-01 +5.7330716589590221e-03
7.0000000000000007e-01 +8.2849864507573638e+00 +0.0000000000000000e+00 +6.9999999982515881e-01 -2.8278150441642547e-02 -5.5350015534421171e-01 +5.7337089415716684e-03
7.5000000000000011e-01 +8.2849844459840547e+00 +0.0000000000000000e+00 +7.4999999978495169e-01 -2.8278198354698334e-02 -5.5350681706644189e-01 +5.7343434154133073e-03
8.0000000000000016e-01 +8.2849823029406924e+00 +0.0000000000000000e+00 +7.9999999973900937e-01 -2.8278264270175289e-02 -5.5351382828101769e-01 +5.7349750397652265e-03
8.5000000000000020e-01 +8.2849800216255254e+00 +0.0000000000000000e+00 +8.4999999968694939e-01 -2.8278348130279438e-02 -5.5352118826055008e-01 +5.7356037739085342e-03
9.0000000000000024e-01 +8.2849776020367152e+00 +0.0000000000000000e+00 +8.9999999962838939e-01 -2.8278449877217879e-02 -5.5352889627766444e-01 +5.7362295771241590e-03
9.5000000000000029e-01 +8.2849750441723362e+00 +0.0000000000000000e+00 +9.4999999956294678e-01 -2.8278569453198846e-02 -5.5353695160500194e-01 +5.7368524086928484e-03
1.0000000000000002e+00 +8.2849723480303759e+00 +0.0000000000000000e+00 +9.9999999949023899e-01 -2.8278706800431742e-02 -5.5354535351521816e-01 +5.7374722278951632e-03
1.0500000000000003e+00 +8.2849695136087362e+00 +0.0000000000000000e+00 +1.0499999994098836e+00 -2.8278861861127155e-02 -5.5355410128098437e-01 +5.7380889940114770e-03
1.1000000000000003e+00 +8.2849665409052307e+00 +0.0000000000000000e+00 +1.0999999993214979e+00 -2.8279034577496913e-02 -5.5356319417498578e-01 +5.7387026663219785e-03
1.1500000000000004e+00 +8.2849634299175889e+00 +0.0000000000000000e+00 +1.1499999992246996e+00 -2.8279224891754138e-02 -5.5357263146992242e-01 +5.7393132041066650e-03
1.2000000000000004e+00 +8.2849601806434539e+00 +0.0000000000000000e+00 +1.1999999991191059e+00 -2.8279432746113230e-02 -5.5358241243850947e-01 +5.7399205666453425e-03
1.2500000000000004e+00 +8.2849567930803811e+00 +0.0000000000000000e+00 +1.2499999990043342e+00 -2.8279658082789944e-02 -5.5359253635347561e-01 +5.7405247132176207e-03
1.3000000000000005e+00 +8.2849532672258430e+00 +0.0000000000000000e+00 +1.2999999988800017e+00 -2.8279900844001400e-02 -5.5360300248756389e-01 +5.7411256031029180e-03
1.3500000000000005e+00 +8.2849496030772247e+00 +0.0000000000000000e+00 +1.3499999987457258e+00 -2.8280160971966166e-02 -5.5361381011353150e-01 +5.7417231955804544e-03
1.4000000000000006e+00 +8.2849458006318262e+00 +0.0000000000000000e+00 +1.3999999986011240e+00 -2.8280438408904221e-02 -5.5362495850414939e-01 +5.7423174499292486e-03
1.4500000000000006e+00 +8.2849418598868620e+00 +0.0000000000000000e+00 +1.4499999984458134e+00 -2.8280733097037034e-02 -5.5363644693220215e-01 +5.7429083254281199e-03
1.5000000000000007e+00 +8.2849377808394618e+00 +0.0000000000000000e+00 +1.4999999982794112e+00 -2.8281044978587605e-02 -5.5364827467048827e-01 +5.7434957813556810e-03
1.5500000000000007e+00 +8.2849335634866730e+00 +0.0000000000000000e+00 +1.5499999981015347e+00 -2.8281373995780484e-02 -5.5366044099181932e-01 +5.7440797769903445e-03
1.6000000000000008e+00 +8.2849292078254546e+00 +0.0000000000000000e+00 +1.5999999979118009e+00 -2.8281720090841827e-02 -5.5367294516902021e-01 +5.7446602716103145e-03
1.6500000000000008e+00 +8.2849247138526838e+00 +0.0000000000000000e+00 +1.6499999977098270e+00 -2.8282083205999363e-02 -5.5368578647492905e-01 +5.7452372244935863e-03
1.7000000000000008e+00 +8.2849200815651525e+00 +0.0000000000000000e+00 +1.6999999974952302e+00 -2.8282463283482547e-02 -5.5369896418239672e-01 +5.7458105949179409e-03
1.7500000000000009e+00 +8.2849153109595690e+00 +0.0000000000000000e+00 +1.7499999972676274e+00 -2.8282860265522500e-02 -5.5371247756428776e-01 +5.7463803421609555e-03
1.8000000000000009e+00 +8.2849104020325584e+00 +0.0000000000000000e+00 +1.7999999970266358e+00 -2.8283274094352072e-02 -5.5372632589347803e-01 +5.7469464254999835e-03
1.8500000000000010e+00 +8.2849053547806601e+00 +0.0000000000000000e+00 +1.8499999967718723e+00 -2.8283704712205891e-02 -5.5374050844285683e-01 +5.7475088042121692e-03
1.9000000000000010e+00 +8.2849001692003323e+00 +0.0000000000000000e+00 +1.8999999965029539e+00 -2.8284152061320383e-02 -5.5375502448532621e-01 +5.7480674375744341e-03
1.9500000000000011e+00 +8.2848948452879476e+00 +0.0000000000000000e+00 +1.9499999962194976e+00 -2.8284616083933820e-02 -5.5376987329379923e-01 +5.7486222848634793e-03
2.0000000000000009e+00 +8.2848893830397969e+00 +0.0000000000000000e+00 +1.9999999959211201e+00 -2.8285096722286310e-02 -5.5378505414120194e-01 +5.7491733053557864e-03
2.0500000000000007e+00 +8.2848837824520896e+00 +0.0000000000000000e+00 +2.0499999956074384e+00 -2.8285593915945519e-02 -5.5380056605448547e-01 +5.7497204590216807e-03
2.1000000000000005e+00 +8.2848780435209495e+00 +0.0000000000000000e+00 +2.0999999952780692e+00 -2.8286107593782774e-02 -5.5381640707666457e-01 +5.7502637086074993e-03
2.1500000000000004e+00 +8.2848721662424190e+00 +0.0000000000000000e+00 +2.1499999949326294e+00 -2.8286637681995550e-02 -5.5383257500477834e-01 +5.7508030175534210e-03
2.2000000000000002e+00 +8.2848661506124603e+00 +0.0000000000000000e+00 +2.1999999945707356e+00 -2.8287184106781722e-02 -5.5384906763587738e-01 +5.7513383492993949e-03
2.2500000000000000e+00 +8.2848599966269525e+00 +0.0000000000000000e+00 +2.2499999941920041e+00 -2.8287746794339475e-02 -5.5386588276702209e-01 +5.7518696672851323e-03
2.2999999999999998e+00 +8.2848537042816961e+00 +0.0000000000000000e+00 +2.2999999937960522e+00 -2.8288325670867278e-02 -5.5388301819528429e-01 +5.7523969349501198e-03
2.3499999999999996e+00 +8.2848472735724101e+00 +0.0000000000000000e+00 +2.3499999933824962e+00 -2.8288920662563815e-02 -5.5390047171774615e-01 +5.7529201157336014e-03
2.3999999999999995e+00 +8.2848407044947354e+00 +0.0000000000000000e+00 +2.3999999929509523e+00 -2.8289531695627940e-02 -5.5391824113149979e-01 +5.7534391730745876e-03
2.4499999999999993e+00 +8.2848339970442328e+00 +0.0000000000000000e+00 +2.4499999925010374e+00 -2.8290158696258585e-02 -5.5393632423364758e-01 +5.7539540704118469e-03
2.4999999999999991e+00 +8.2848271512163851e+00 +0.0000000000000000e+00 +2.4999999920323677e+00 -2.8290801590654772e-02 -5.5395471882130209e-01 +5.7544647711839075e-03
2.5499999999999989e+00 +8.2848201670065968e+00 +0.0000000000000000e+00 +2.5499999915445599e+00 -2.8291460305015500e-02 -5.5397342269158500e-01 +5.7549712388290514e-03
2.5999999999999988e+00 +8.2848130444101962e+00 +0.0000000000000000e+00 +2.5999999910372300e+00 -2.8292134765539708e-02 -5.5399243364162820e-01 +5.7554734367853185e-03
2.6499999999999986e+00 +8.2848057834224349e+00 +0.0000000000000000e+00 +2.6499999905099947e+00 -2.8292824898426217e-02 -5.5401174946857257e-01 +5.7559713284905025e-03
2.6999999999999984e+00 +8.2847983840384867e+00 +0.0000000000000000e+00 +2.6999999899624698e+00 -2.8293530629873706e-02 -5.5403136796956809e-01 +5.7564648773821428e-03
2.7499999999999982e+00 +8.2847908462534505e+00 +0.0000000000000000e+00 +2.7499999893942717e+00 -2.8294251886080594e-02 -5.5405128694177430e-01 +5.7569540468975352e-03
2.7999999999999980e+00 +8.2847831700623509e+00 +0.0000000000000000e+00 +2.7999999888050167e+00 -2.8294988593245030e-02 -5.5407150418235895e-01 +5.7574388004737144e-03
2.8499999999999979e+00 +8.2847753554601375e+00 +0.0000000000000000e+00 +2.8499999881943205e+00 -2.8295740677564841e-02 -5.5409201748849879e-01 +5.7579191015474608e-03
2.8999999999999977e+00 +8.2847674024416875e+00 +0.0000000000000000e+00 +2.8999999875617997e+00 -2.8296508065237449e-02 -5.5411282465737899e-01 +5.7583949135553061e-03
2.9499999999999975e+00 +8.2847593110018014e+00 +0.0000000000000000e+00 +2.9499999869070699e+00 -2.8297290682459838e-02 -5.5413392348619328e-01 +5.7588661999335130e-03
2.9999999999999973e+00 +8.2847510811352088e+00 +0.0000000000000000e+00 +2.9999999862297471e+00 -2.8298088455428468e-02 -5.5415531177214283e-01 +5.7593329241180848e-03
3.0499999999999972e+00 +8.2847427128365680e+00 +0.0000000000000000e+00 +3.0499999855294471e+00 -2.8298901310339276e-02 -5.5417698731243736e-01 +5.7597950495447735e-03
3.0999999999999970e+00 +8.2847342061004632e+00 +0.0000000000000000e+00 +3.0999999848057853e+00 -2.8299729173387567e-02 -5.5419894790429425e-01 +5.7602525396490498e-03
3.1499999999999968e+00 +8.2847255609214105e+00 +0.0000000000000000e+00 +3.1499999840583781e+00 -2.8300571970767987e-02 -5.5422119134493841e-01 +5.7607053578661313e-03
3.1999999999999966e+00 +8.2847167772938519e+00 +0.0000000000000000e+00 +3.1999999832868409e+00 -2.8301429628674442e-02 -5.5424371543160189e-01 +5.7611534676309546e-03
3.2499999999999964e+00 +8.2847078552121598e+00 +0.0000000000000000e+00 +3.2499999824907895e+00 -2.8302302073300069e-02 -5.5426651796152449e-01 +5.7615968323781958e-03
3.2999999999999963e+00 +8.2846987946706392e+00 +0.0000000000000000e+00 +3.2999999816698393e+00 -2.8303189230837179e-02 -5.5428959673195299e-01 +5.7620354155422555e-03
3.3499999999999961e+00 +8.2846895956635258e+00 +0.0000000000000000e+00 +3.3499999808236058e+00 -2.8304091027477177e-02 -5.5431294954014021e-01 +5.7624691805572533e-03
3.3999999999999959e+00 +8.2846802581849861e+00 +0.0000000000000000e+00 +3.3999999799517049e+00 -2.8305007389410542e-02 -5.5433657418334725e-01 +5.7628980908570474e-03
3.4499999999999957e+00 +8.2846707822291172e+00 +0.0000000000000000e+00 +3.4499999790537514e+00 -2.8305938242826727e-02 -5.5436046845883968e-01 +5.7633221098752005e-03
3.4999999999999956e+00 +8.2846611677899507e+00 +0.0000000000000000e+00 +3.4999999781293609e+00 -2.8306883513914156e-02 -5.5438463016389117e-01 +5.7637412010450046e-03
3.5499999999999954e+00 +8.2846514148614521e+00 +0.0000000000000000e+00 +3.5499999771781487e+00 -2.8307843128860127e-02 -5.5440905709578103e-01 +5.7641553277994655e-03
3.5999999999999952e+00 +8.2846415234375179e+00 +0.0000000000000000e+00 +3.5999999761997299e+00 -2.8308817013850778e-02 -5.5443374705179416e-01 +5.7645644535713114e-03
3.6499999999999950e+00 +8.2846314935119807e+00 +0.0000000000000000e+00 +3.6499999751937198e+00 -2.8309805095071004e-02 -5.5445869782922141e-01 +5.7649685417929730e-03
3.6999999999999948e+00 +8.2846213250786089e+00 +0.0000000000000000e+00 +3.6999999741597334e+00 -2.8310807298704457e-02 -5.5448390722535967e-01 +5.7653675558966052e-03
3.7499999999999947e+00 +8.2846110181311037e+00 +0.0000000000000000e+00 +3.7499999730973856e+00 -2.8311823550933434e-02 -5.5450937303751058e-01 +5.7657614593140628e-03
3.7999999999999945e+00 +8.2846005726631038e+00 +0.0000000000000000e+00 +3.7999999720062916e+00 -2.8312853777938841e-02 -5.5453509306298165e-01 +5.7661502154769126e-03
3.8499999999999943e+00 +8.2845899886681860e+00 +0.0000000000000000e+00 +3.8499999708860662e+00 -2.8313897905900158e-02 -5.5456106509908543e-01 +5.7665337878164309e-03
3.8999999999999941e+00 +8.2845792661398612e+00 +0.0000000000000000e+00 +3.8999999697363239e+00 -2.8314955860995330e-02 -5.5458728694313875e-01 +5.7669121397635886e-03
3.9499999999999940e+00 +8.2845684050715782e+00 +0.0000000000000000e+00 +3.9499999685566798e+00 -2.8316027569400798e-02 -5.5461375639246413e-01 +5.7672852347490696e-03
3.9999999999999938e+00 +8.2845574054567273e+00 +0.0000000000000000e+00 +3.9999999673467483e+00 -2.8317112957291356e-02 -5.5464047124438765e-01 +5.7676530362032481e-03
4.0499999999999936e+00 +8.2845462672886327e+00 +0.0000000000000000e+00 +4.0499999661061441e+00 -2.8318211935978346e-02 -5.5466742917979361e-01 +5.7680155169101488e-03
4.0999999999999934e+00 +8.2845349905605605e+00 +0.0000000000000000e+00 +4.0999999648344820e+00 -2.8319324357324996e-02 -5.5469462741378062e-01 +5.7683726870693232e-03
4.1499999999999932e+00 +8.2845235752657178e+00 +0.0000000000000000e+00 +4.1499999635313767e+00 -2.8320450058333470e-02 -5.5472206304499982e-01 +5.7687245662339827e-03
4.1999999999999931e+00 +8.2845120213972514e+00 +0.0000000000000000e+00 +4.1999999621964417e+00 -2.8321588876006977e-02 -5.5474973317210208e-01 +5.7690711739570109e-03
4.2499999999999929e+00 +8.2845003289482477e+00 +0.0000000000000000e+00 +4.2499999608292924e+00 -2.8322740647349774e-02 -5.5477763489373688e-01 +5.7694125297909618e-03
4.2999999999999927e+00 +8.2844884979117381e+00 +0.0000000000000000e+00 +4.2999999594295426e+00 -2.8323905209367228e-02 -5.5480576530855241e-01 +5.7697486532880572e-03
4.3499999999999925e+00 +8.2844765282806936e+00 +0.0000000000000000e+00 +4.3499999579968058e+00 -2.8325082399065813e-02 -5.5483412151519584e-01 +5.7700795640001808e-03
4.3999999999999924e+00 +8.2844644200480335e+00 +0.0000000000000000e+00 +4.3999999565306966e+00 -2.8326272053453179e-02 -5.5486270061231213e-01 +5.7704052814788855e-03
4.4499999999999922e+00 +8.2844521732066170e+00 +0.0000000000000000e+00 +4.4499999550308296e+00 -2.8327474009538136e-02 -5.5489149969854368e-01 +5.7707258252753767e-03
4.4999999999999920e+00 +8.2844397877492497e+00 +0.0000000000000000e+00 +4.4999999534968183e+00 -2.8328688104330712e-02 -5.5492051587253066e-01 +5.7710412149405187e-03
4.5499999999999918e+00 +8.2844272636686842e+00 +0.0000000000000000e+00 +4.5499999519282763e+00 -2.8329914174842194e-02 -5.5494974623291082e-01 +5.7713514700248377e-03
4.5999999999999917e+00 +8.2844146009576178e+00 +0.0000000000000000e+00 +4.5999999503248175e+00 -2.8331152058085111e-02 -5.5497918787831746e-01 +5.7716566100784981e-03
4.6499999999999915e+00 +8.2844017996086965e+00 +0.0000000000000000e+00 +4.6499999486860562e+00 -2.8332401591073305e-02 -5.5500883790738265e-01 +5.7719566546513279e-03
4.6999999999999913e+00 +8.2843888596145145e+00 +0.0000000000000000e+00 +4.6999999470116061e+00 -2.8333662610821948e-02 -5.5503869341873224e-01 +5.7722516232927958e-03
4.7499999999999911e+00 +8.2843757809676131e+00 +0.0000000000000000e+00 +4.7499999453010799e+00 -2.8334934954347551e-02 -5.5506875151098967e-01 +5.7725415355520107e-03
4.7999999999999909e+00 +8.2843625636604834e+00 +0.0000000000000000e+00 +4.7999999435540914e+00 -2.8336218458668013e-02 -5.5509900928277289e-01 +5.7728264109777336e-03
4.8499999999999908e+00 +8.2843492076855672e+00 +0.0000000000000000e+00 +4.8499999417702551e+00 -2.8337512960802690e-02 -5.5512946383269657e-01 +5.7731062691183579e-03
4.8999999999999906e+00 +8.2843357130352562e+00 +0.0000000000000000e+00 +4.8999999399491827e+00 -2.8338818297772315e-02 -5.5516011225936879e-01 +5.7733811295219159e-03
4.9499999999999904e+00 +8.2843220797018962e+00 +0.0000000000000000e+00 +4.9499999380904889e+00 -2.8340134306599141e-02 -5.5519095166139298e-01 +5.7736510117360690e-03
4.9999999999999902e+00 +8.2843083076777813e+00 +0.0000000000000000e+00 +4.9999999361937864e+00 -2.8341460824306899e-02 -5.5522197913736726e-01 +5.7739159353081219e-03
5.0499999999999901e+00 +8.2842943969551630e+00 +0.0000000000000000e+00 +5.0499999342586879e+00 -2.8342797687920872e-02 -5.5525319178588295e-01 +5.7741759197849959e-03
5.0999999999999899e+00 +8.2842803475262432e+00 +0.0000000000000000e+00 +5.0999999322848071e+00 -2.8344144734467884e-02 -5.5528458670552594e-01 +5.7744309847132455e-03
5.1499999999999897e+00 +8.2842661593831792e+00 +0.0000000000000000e+00 +5.1499999302717567e+00 -2.8345501800976360e-02 -5.5531616099487557e-01 +5.7746811496390479e-03
5.1999999999999895e+00 +8.2842518325180841e+00 +0.0000000000000000e+00 +5.1999999282191505e+00 -2.8346868724476323e-02 -5.5534791175250298e-01 +5.7749264341082013e-03
5.2499999999999893e+00 +8.2842373669230263e+00 +0.0000000000000000e+00 +5.2499999261266002e+00 -2.8348245341999475e-02 -5.5537983607697383e-01 +5.7751668576661221e-03
5.2999999999999892e+00 +8.2842227625900300e+00 +0.0000000000000000e+00 +5.2999999239937186e+00 -2.8349631490579171e-02 -5.5541193106684494e-01 +5.7754024398578479e-03
5.3499999999999890e+00 +8.2842080195110785e+00 +0.0000000000000000e+00 +5.3499999218201184e+00 -2.8351027007250482e-02 -5.5544419382066601e-01 +5.7756332002280213e-03
5.3999999999999888e+00 +8.2841931376781126e+00 +0.0000000000000000e+00 +5.3999999196054125e+00 -2.8352431729050220e-02 -5.5547662143697885e-01 +5.7758591583209019e-03
5.4499999999999886e+00 +8.2841781170830320e+00 +0.0000000000000000e+00 +5.4499999173492135e+00 -2.8353845493016915e-02 -5.5550921101431550e-01 +5.7760803336803545e-03
5.4999999999999885e+00 +8.2841629577176956e+00 +0.0000000000000000e+00 +5.4999999150511343e+00 -2.8355268136190954e-02 -5.5554195965120046e-01 +5.7762967458498560e-03
5.5499999999999883e+00 +8.2841476595739234e+00 +0.0000000000000000e+00 +5.5499999127107857e+00 -2.8356699495614528e-02 -5.5557486444614901e-01 +5.7765084143724778e-03
5.5999999999999881e+00 +8.2841322226434961e+00 +0.0000000000000000e+00 +5.5999999103277815e+00 -2.8358139408331651e-02 -5.5560792249766644e-01 +5.7767153587908989e-03
5.6499999999999879e+00 +8.2841166469181537e+00 +0.0000000000000000e+00 +5.6499999079017336e+00 -2.8359587711388228e-02 -5.5564113090424871e-01 +5.7769175986473915e-03
5.6999999999999877e+00 +8.2841009323896024e+00 +0.0000000000000000e+00 +5.6999999054322537e+00 -2.8361044241832105e-02 -5.5567448676438180e-01 +5.7771151534838283e-03
5.7499999999999876e+00 +8.2840850790495093e+00 +0.0000000000000000e+00 +5.7499999029189537e+00 -2.8362508836713027e-02 -5.5570798717654124e-01 +5.7773080428416704e-03
5.7999999999999874e+00 +8.2840690868895059e+00 +0.0000000000000000e+00 +5.7999999003614455e+00 -2.8363981333082731e-02 -5.5574162923919190e-01 +5.7774962862619733e-03
5.8499999999999872e+00 +8.2840529559011884e+00 +0.0000000000000000e+00 +5.8499998977593419e+00 -2.8365461567994944e-02 -5.5577541005078801e-01 +5.7776799032853779e-03
5.8999999999999870e+00 +8.2840366860761172e+00 +0.0000000000000000e+00 +5.8999998951122539e+00 -2.8366949378505427e-02 -5.5580932670977168e-01 +5.7778589134521103e-03
