# multipoles
# s[mm] polynom_b[n=0][T/m^n] polynom_b[n=1][T/m^n] polynom_b[n=2][T/m^n] polynom_b[n=3][T/m^n] polynom_b[n=4][T/m^n] polynom_b[n=5][T/m^n] polynom_b[n=6][T/m^n] 
+0.0000000000000000e+00 -5.5504490317963284e-01 +7.2668553357036183e+00 +4.8763704208159746e+00 -7.9795118363255526e+01 +1.7762266162736134e+04 +1.3174172529164166e+05 -1.0895414239006737e+08 
+5.0000000000000003e-02 -5.5504476257346969e-01 +7.2668739226719099e+00 +4.8732744930560994e+00 -7.9549692133894055e+01 +1.7825837301705949e+04 +1.2991604077903426e+05 -1.0939952462256783e+08 
+1.0000000000000001e-01 -5.5504500030214921e-01 +7.2669121172131916e+00 +4.8696443704498842e+00 -7.9270944843304918e+01 +1.7887366252759424e+04 +1.2790957975309978e+05 -1.0982393290703481e+08 
+1.5000000000000002e-01 -5.5504561567494293e-01 +7.2669698897405066e+00 +4.8654855783906639e+00 -7.8959739465019268e+01 +1.7946869732092240e+04 +1.2572755866383198e+05 -1.1022766444222417e+08 
+2.0000000000000001e-01 -5.5504660800114314e-01 +7.2670472106712785e+00 +4.8608036434029138e+00 -7.8616939115037823e+01 +1.8004364422997409e+04 +1.2337519510902335e+05 -1.1061101620172545e+08 
+2.5000000000000000e-01 -5.5504797659005911e-01 +7.2671440504213738e+00 +4.8556040915787291e+00 -7.8243406810456534e+01 +1.8059867020035515e+04 +1.2085770584074261e+05 -1.1097428522964174e+08 
+2.9999999999999999e-01 -5.5504972075102865e-01 +7.2672603794106498e+00 +4.8498924513418968e+00 -7.7840005694675042e+01 +1.8113394151751134e+04 +1.1818030862824633e+05 -1.1131776811514963e+08 
+3.4999999999999998e-01 -5.5505183979339345e-01 +7.2673961680549821e+00 +4.8436742485793358e+00 -7.7407598711210568e+01 +1.8164962515554191e+04 +1.1534821955433013e+05 -1.1164176191503629e+08 
+3.9999999999999997e-01 -5.5505433302651197e-01 +7.2675513867767130e+00 +4.8369550088359698e+00 -7.6947049036914208e+01 +1.8214588820195990e+04 +1.1236665661262452e+05 -1.1194656377036108e+08 
+4.4999999999999996e-01 -5.5505719975975820e-01 +7.2677260059936195e+00 +4.8297402579007338e+00 -7.6459219620509202e+01 +1.8262289761149939e+04 +1.0924083586310263e+05 -1.1223247070873529e+08 
+4.9999999999999994e-01 -5.5506043930253202e-01 +7.2679199961303285e+00 +4.8220355231793519e+00 -7.5944973657206134e+01 +1.8308081991579544e+04 +1.0597597537535401e+05 -1.1249977947847962e+08 
+5.4999999999999993e-01 -5.5506405096425615e-01 +7.2681333276062814e+00 +4.8138463324410488e+00 -7.5405174106858368e+01 +1.8351982156240745e+04 +1.0257729129241884e+05 -1.1274878677311210e+08 
+5.9999999999999998e-01 -5.5506803405433436e-01 +7.2683659708422805e+00 +4.8051782077682335e+00 -7.4840683939587947e+01 +1.8394007051562890e+04 +9.9049999771303337e+04 -1.1297979031052658e+08 
+6.5000000000000002e-01 -5.5507238788222191e-01 +7.2686178962671919e+00 +4.7960366771574465e+00 -7.4252366432530636e+01 +1.8434173311110313e+04 +9.5399319507738677e+04 -1.1319308669188263e+08 
+7.0000000000000007e-01 -5.5507711175738783e-01 +7.2688890743003514e+00 +4.7864272684010043e+00 -7.3641084438679982e+01 +1.8472497574014615e+04 +9.1630465680751775e+04 -1.1338897255953400e+08 
+7.5000000000000011e-01 -5.5508220498929794e-01 +7.2691794753678831e+00 +4.7763555048642097e+00 -7.3007701051537779e+01 +1.8508996604686592e+04 +8.7748655396285583e+04 -1.1356774542294198e+08 
+8.0000000000000016e-01 -5.5508766688745459e-01 +7.2694890698968919e+00 +4.7658269145528394e+00 -7.2353079386730400e+01 +1.8543687032737755e+04 +8.3759105981870118e+04 -1.1372970184673160e+08 
+8.5000000000000020e-01 -5.5509349676135933e-01 +7.2698178283128776e+00 +4.7548470217983292e+00 -7.1678082457997306e+01 +1.8576585590394414e+04 +7.9667033875067398e+04 -1.1387513910134009e+08 
+9.0000000000000024e-01 -5.5509969392053926e-01 +7.2701657210403452e+00 +4.7434213526812687e+00 -7.0983573202398205e+01 +1.8607708962411059e+04 +7.5477654847913276e+04 -1.1400435413599111e+08 
+9.5000000000000029e-01 -5.5510625767454269e-01 +7.2705327185111530e+00 +4.7315554339087100e+00 -7.0270414847759127e+01 +1.8637073817968096e+04 +7.1196187114504268e+04 -1.1411764380204390e+08 
+1.0000000000000002e+00 -5.5511318733292792e-01 +7.2709187911502555e+00 +4.7192547917938201e+00 -6.9539470299839337e+01 +1.8664696829993114e+04 +6.6827846185230621e+04 -1.1421530494940905e+08 
+1.0500000000000003e+00 -5.5512048220526178e-01 +7.2713239093885109e+00 +4.7065249501994826e+00 -6.8791602679555268e+01 +1.8690594746409392e+04 +6.2377849330874524e+04 -1.1429763496759965e+08 
+1.1000000000000003e+00 -5.5512814160114465e-01 +7.2717480436535142e+00 +4.6933714367800494e+00 -6.8027674946261840e+01 +1.8714784206511773e+04 +5.7851412475540339e+04 -1.1436493049048068e+08 
+1.1500000000000004e+00 -5.5513616483017847e-01 +7.2721911643767374e+00 +4.6797997767013655e+00 -6.7248550199661622e+01 +1.8737281915330401e+04 +5.3253752716821058e+04 -1.1441748859120713e+08 
+1.2000000000000004e+00 -5.5514455120198269e-01 +7.2726532419884036e+00 +4.6658154948987836e+00 -6.6455091463705017e+01 +1.8758104589510516e+04 +4.8590086529410546e+04 -1.1445560644180970e+08 
+1.2500000000000004e+00 -5.5515330002620300e-01 +7.2731342469173956e+00 +4.6514241184467355e+00 -6.5648161676576152e+01 +1.8777268883766352e+04 +4.3865629646848043e+04 -1.1447958078059784e+08 
+1.3000000000000005e+00 -5.5516241061249316e-01 +7.2736341495994576e+00 +4.6366311730253909e+00 -6.4828624040018596e+01 +1.8794791490195883e+04 +3.9085599993794407e+04 -1.1448970859710668e+08 
+1.3500000000000005e+00 -5.5517188227051784e-01 +7.2741529204624982e+00 +4.6214421831798171e+00 -6.3997341405377917e+01 +1.8810689134271059e+04 +3.4255212579607527e+04 -1.1448628711852241e+08 
+1.4000000000000006e+00 -5.5518171430996965e-01 +7.2746905299419975e+00 +4.6058626759502470e+00 -6.3155176912843913e+01 +1.8824978472156490e+04 +2.9379684798608436e+04 -1.1446961309679128e+08 
+1.4500000000000006e+00 -5.5519190604056345e-01 +7.2752469484700741e+00 +4.5898981792698823e+00 -6.2302993555040480e+01 +1.8837676136814960e+04 +2.4464232874607089e+04 -1.1443998313051395e+08 
+1.5000000000000007e+00 -5.5520245677200131e-01 +7.2758221464792712e+00 +4.5735542160744229e+00 -6.1441654309525099e+01 +1.8848798895179254e+04 +1.9514072872232664e+04 -1.1439769471876203e+08 
+1.5500000000000007e+00 -5.5521336581402303e-01 +7.2764160944039604e+00 +4.5568363132967731e+00 -6.0572022208425828e+01 +1.8858363408203655e+04 +1.4534421292580950e+04 -1.1434304465536934e+08 
+1.6000000000000008e+00 -5.5522463247636944e-01 +7.2770287626810424e+00 +4.5397499952984983e+00 -5.9694960370664063e+01 +1.8866386404394802e+04 +9.5304953791315147e+03 -1.1427633018095660e+08 
+1.6500000000000008e+00 -5.5523625606882354e-01 +7.2776601217427555e+00 +4.5223007910857307e+00 -5.8811331712067030e+01 +1.8872884488168900e+04 +4.5075107390216244e+03 -1.1419784770524484e+08 
+1.7000000000000008e+00 -5.5524823590115413e-01 +7.2783101420235887e+00 +4.5044942246253701e+00 -5.7921999215187306e+01 +1.8877874400214594e+04 -5.2931649902421759e+02 -1.1410789455948889e+08 
+1.7500000000000009e+00 -5.5526057128316886e-01 +7.2789787939622883e+00 +4.4863358234672122e+00 -5.7027826016115561e+01 +1.8881372787129636e+04 -5.5747689497491256e+03 -1.1400676744756237e+08 
+1.8000000000000009e+00 -5.5527326152467149e-01 +7.2796660479908830e+00 +4.4678311125572767e+00 -5.6129674961988755e+01 +1.8883396361412593e+04 -1.0623631567322507e+04 -1.1389476350464760e+08 
+1.8500000000000010e+00 -5.5528630593549966e-01 +7.2803718745473116e+00 +4.4489856195526816e+00 -5.5228409133184861e+01 +1.8883961767642300e+04 -1.5670687357003973e+04 -1.1377217942724283e+08 
+1.9000000000000010e+00 -5.5529970382548988e-01 +7.2810962440698583e+00 +4.4298048694295726e+00 -5.4324891600031648e+01 +1.8883085720213763e+04 -2.0710719427408010e+04 -1.1363931237231432e+08 
+1.9500000000000011e+00 -5.5531345450450520e-01 +7.2818391269931926e+00 +4.4102943894291782e+00 -5.3419985274195035e+01 +1.8880784872919954e+04 -2.5738512154799198e+04 -1.1349645909165312e+08 
+2.0000000000000009e+00 -5.5532755728242555e-01 +7.2826004937551163e+00 +4.3904597065169026e+00 -5.2514553175419749e+01 +1.8877075891135388e+04 -3.0748849029675657e+04 -1.1334391642906977e+08 
+2.0500000000000007e+00 -5.5534201124519122e-01 +7.2833803017473837e+00 +4.3703071397185962e+00 -5.1609471764206120e+01 +1.8871954176127689e+04 -3.5736444740032028e+04 -1.1318183634720872e+08 
+2.1000000000000005e+00 -5.5535681458307684e-01 +7.2841784498954940e+00 +4.3498465668258453e+00 -5.0705663279370235e+01 +1.8865329764626444e+04 -4.0695819075976891e+04 -1.1300978848412216e+08 
+2.1500000000000004e+00 -5.5537196526246158e-01 +7.2849948209315833e+00 +4.3290888598137114e+00 -4.9804059799743825e+01 +1.8857091356043118e+04 -4.5621465358659188e+04 -1.1282719669008249e+08 
+2.2000000000000002e+00 -5.5538746124971528e-01 +7.2858292975886192e+00 +4.3080448870120946e+00 -4.8905593420390218e+01 +1.8847127745912745e+04 -5.0507876805938664e+04 -1.1263348545119609e+08 
+2.2500000000000000e+00 -5.5540330051125208e-01 +7.2866817625999953e+00 +4.2867255225279841e+00 -4.8011196242430003e+01 +1.8835327575456515e+04 -5.5349546584415133e+04 -1.1242807822010767e+08 
+2.2999999999999998e+00 -5.5541948101348182e-01 +7.2875520987002096e+00 +4.2651416372429960e+00 -4.7121800403277526e+01 +1.8821579575132841e+04 -6.0140967534117830e+04 -1.1221039905786771e+08 
+2.3499999999999996e+00 -5.5543600072282517e-01 +7.2884401886206929e+00 +4.2433041017587616e+00 -4.6238337905975953e+01 +1.8805772484688630e+04 -6.4876633584196315e+04 -1.1197987209556286e+08 
+2.3999999999999995e+00 -5.5545285760572372e-01 +7.2893459150948914e+00 +4.2212237888670581e+00 -4.5361740820254639e+01 +1.8787794981324692e+04 -6.9551038125648673e+04 -1.1173592103036889e+08 
+2.4499999999999993e+00 -5.5547004962862345e-01 +7.2902691608569281e+00 +4.1989115693901242e+00 -4.4492941232010871e+01 +1.8767535802812559e+04 -7.4158674419689705e+04 -1.1147796999439816e+08 
+2.4999999999999991e+00 -5.5548757475799382e-01 +7.2912098086410246e+00 +4.1763783168472086e+00 -4.3632871229047637e+01 +1.8744883609552006e+04 -7.8694035663817165e+04 -1.1120544258095975e+08 
+2.5499999999999989e+00 -5.5550543096029903e-01 +7.2921677411773702e+00 +4.1536349014791725e+00 -4.2782462729415350e+01 +1.8719727154928740e+04 -8.3151616422808118e+04 -1.1091776302693181e+08 
+2.5999999999999988e+00 -5.5552361620203405e-01 +7.2931428412014903e+00 +4.1306921970087123e+00 -4.1942647851240764e+01 +1.8691955099465707e+04 -8.7525909654437593e+04 -1.1061435494781998e+08 
+2.6499999999999986e+00 -5.5554212844969530e-01 +7.2941349914430118e+00 +4.1075610757933845e+00 -4.1114358465122066e+01 +1.8661456140249509e+04 -9.1811410321533171e+04 -1.1029464220363919e+08 
+2.6999999999999984e+00 -5.5556096566979540e-01 +7.2951440746359841e+00 +4.0842524109196772e+00 -4.0298526630391656e+01 +1.8628118957370953e+04 -9.6002611776078164e+04 -1.0995804855021670e+08 
+2.7499999999999982e+00 -5.5558012582884742e-01 +7.2961699735119332e+00 +4.0607770738820639e+00 -3.9496084282219037e+01 +1.8591832273021377e+04 -1.0009400842037755e+05 -1.0960399802274156e+08 
+2.7999999999999980e+00 -5.5559960689338350e-01 +7.2972125708051996e+00 +4.0371459372301866e+00 -3.8707963464850394e+01 +1.8552484788603226e+04 -1.0408009375731551e+05 -1.0923191454623084e+08 
+2.8499999999999979e+00 -5.5561940682996125e-01 +7.2982717492431881e+00 +4.0133698769715833e+00 -3.7935095948631762e+01 +1.8509965104429350e+04 -1.0795536346506141e+05 -1.0884122133216564e+08 
+2.8999999999999977e+00 -5.5563952360511526e-01 +7.2993473915602340e+00 +3.9894597628495259e+00 -3.7178413768629149e+01 +1.8464161998786691e+04 -1.1171431108406030e+05 -1.0843134282931158e+08 
+2.9499999999999975e+00 -5.5565995518542954e-01 +7.3004393804856029e+00 +3.9654264717346210e+00 -3.6438848758774427e+01 +1.8414964055270153e+04 -1.1535143175057693e+05 -1.0800170216008775e+08 
+2.9999999999999973e+00 -5.5568069953746357e-01 +7.3015475987521476e+00 +3.9412808744330379e+00 -3.5717332892394580e+01 +1.8362260024850551e+04 -1.1886121945924322e+05 -1.0755172359237322e+08 
+3.0499999999999972e+00 -5.5570175462781868e-01 +7.3026719290870377e+00 +3.9170338474790021e+00 -3.5014797908428648e+01 +1.8305938504562691e+04 -1.2223817010600204e+05 -1.0708083035452081e+08 
+3.0999999999999970e+00 -5.5572311842308342e-01 +7.3038122542225672e+00 +3.8926962635637032e+00 -3.4332175761832303e+01 +1.8245888197981894e+04 -1.2547677775647571e+05 -1.0658844640795639e+08 
+3.1499999999999968e+00 -5.5574478888986278e-01 +7.3049684568861712e+00 +3.8682789968115814e+00 -3.3670398192539309e+01 +1.8181997769381858e+04 -1.2857153829213457e+05 -1.0607399544242525e+08 
+3.1999999999999966e+00 -5.5576676399478520e-01 +7.3061404198086608e+00 +3.8437929234903541e+00 -3.3030397081790142e+01 +1.8114155831811167e+04 -1.3151694639158397e+05 -1.0553690082786739e+08 
+3.2499999999999964e+00 -5.5578904170445720e-01 +7.3073280257155622e+00 +3.8192489151948452e+00 -3.2413104110636091e+01 +1.8042251120308563e+04 -1.3430749829407755e+05 -1.0497658674295627e+08 
+3.2999999999999963e+00 -5.5581161998552864e-01 +7.3085311573368221e+00 +3.7946578492557967e+00 -3.1819451126865925e+01 +1.7966172220602934e+04 -1.3693768890259662e+05 -1.0439247637672098e+08 
+3.3499999999999961e+00 -5.5583449680465280e-01 +7.3097496973997131e+00 +3.7700306020490637e+00 -3.1250369876160775e+01 +1.7885807746418781e+04 -1.3940201391987625e+05 -1.0378399311443673e+08 
+3.3999999999999959e+00 -5.5585767012847920e-01 +7.3109835286306604e+00 +3.7453780482394960e+00 -3.0706792068806262e+01 +1.7801046357083804e+04 -1.4169496932101625e+05 -1.0315056064811504e+08 
+3.4499999999999957e+00 -5.5588113792366356e-01 +7.3122325337557257e+00 +3.7207110617160444e+00 -3.0189649405915929e+01 +1.7711776740245405e+04 -1.4381105112198778e+05 -1.0249160288808100e+08 
+3.4999999999999956e+00 -5.5590489815688293e-01 +7.3134965954991227e+00 +3.6960405193914729e+00 -2.9699873508818424e+01 +1.7617887496701165e+04 -1.4574475599804157e+05 -1.0180654313651830e+08 
+3.5499999999999954e+00 -5.5592894879483001e-01 +7.3147755965879799e+00 +3.6713772993069034e+00 -2.9238396136008053e+01 +1.7519267203118256e+04 -1.4749057941324101e+05 -1.0109480455717136e+08 
+3.5999999999999952e+00 -5.5595328780418662e-01 +7.3160694197430454e+00 +3.6467322758824432e+00 -2.8806148777377558e+01 +1.7415804540508681e+04 -1.4904301906783434e+05 -1.0035581104174484e+08 
+3.6499999999999950e+00 -5.5597791315165435e-01 +7.3173779476913898e+00 +3.6221163266433809e+00 -2.8404063199359395e+01 +1.7307388098667976e+04 -1.5039657030098033e+05 -9.9588985837934196e+07 
+3.6999999999999948e+00 -5.5600282280394453e-01 +7.3187010631532203e+00 +3.5975403289145844e+00 -2.8033070870596941e+01 +1.7193906483649036e+04 -1.5154573097121037e+05 -9.8793752342796430e+07 
+3.7499999999999947e+00 -5.5602801472777363e-01 +7.3200386488513320e+00 +3.5730151602953422e+00 -2.7694103392789181e+01 +1.7075248290115709e+04 -1.5248499773080132e+05 -9.7969533861673415e+07 
+3.7999999999999945e+00 -5.5605348688986478e-01 +7.3213905875073388e+00 +3.5485516978087088e+00 -2.7388092329136747e+01 +1.6951302136100458e+04 -1.5320886749897368e+05 -9.7115753883850902e+07 
+3.8499999999999943e+00 -5.5607923725694641e-01 +7.3227567618407283e+00 +3.5241608187372302e+00 -2.7115969143999248e+01 +1.6821956632873422e+04 -1.5371183806716482e+05 -9.6231835856293932e+07 
+3.8999999999999941e+00 -5.5610526379576330e-01 +7.3241370545701985e+00 +3.4998534022207037e+00 -2.6878665292418926e+01 +1.6687100342166475e+04 -1.5398840720808838e+05 -9.5317202891414687e+07 
+3.9499999999999940e+00 -5.5613156447307455e-01 +7.3255313484169191e+00 +3.4756403284124002e+00 -2.6677112338446449e+01 +1.6546621804453487e+04 -1.5403307176689204e+05 -9.4371277977997601e+07 
+3.9999999999999938e+00 -5.5615813725561891e-01 +7.3269395260957024e+00 +3.4515324734322759e+00 -2.6512241586538796e+01 +1.6400409670614994e+04 -1.5384033071615340e+05 -9.3393484858620331e+07 
+4.0499999999999936e+00 -5.5618497995504179e-01 +7.3283614509835822e+00 +3.4275365515493745e+00 -2.6384651835248075e+01 +1.6248441679800935e+04 -1.5340680691517005e+05 -9.2383771787871212e+07 
+4.0999999999999934e+00 -5.5621208976154235e-01 +7.3297969033756933e+00 +3.4036434872964643e+00 -2.6293613926696100e+01 +1.6091040198087350e+04 -1.5273766950361809e+05 -9.1344113330137432e+07 
+4.1499999999999932e+00 -5.5623946370973043e-01 +7.3312456413361691e+00 +3.3798404963878559e+00 -2.6238068191833463e+01 +1.5928610694497296e+04 -1.5184023876917450e+05 -9.0276971654514059e+07 
+4.1999999999999931e+00 -5.5626709883420211e-01 +7.3327074229370215e+00 +3.3561147912709863e+00 -2.6216955304121608e+01 +1.5761558732458749e+04 -1.5072183223065076e+05 -8.9184809582428530e+07 
+4.2499999999999929e+00 -5.5629499216955558e-01 +7.3341820062434335e+00 +3.3324535855924839e+00 -2.6229215655279042e+01 +1.5590289834092269e+04 -1.4938976974594686e+05 -8.8070089619743541e+07 
+4.2999999999999927e+00 -5.5632314075038614e-01 +7.3356691493290382e+00 +3.3088440912617054e+00 -2.6273790000525764e+01 +1.5415209578683667e+04 -1.4785136813902573e+05 -8.6935274699934438e+07 
+4.3499999999999925e+00 -5.5635154161130085e-01 +7.3371686102609308e+00 +3.2852735235772510e+00 -2.6349618838477646e+01 +1.5236723441667511e+04 -1.4611394631950758e+05 -8.5782827007015631e+07 
+4.3999999999999924e+00 -5.5638019178688614e-01 +7.3386801471126493e+00 +3.2617290929431673e+00 -2.6455642938452517e+01 +1.5055237042170465e+04 -1.4418482097740780e+05 -8.4615209739679784e+07 
+4.4499999999999922e+00 -5.5640908831173774e-01 +7.3402035179545893e+00 +3.2381980124429921e+00 -2.6590802947550383e+01 +1.4871155915642950e+04 -1.4207130980590865e+05 -8.3434885487124160e+07 
+4.4999999999999920e+00 -5.5643822822045308e-01 +7.3417384808598856e+00 +3.2146674949682321e+00 -2.6754039639058895e+01 +1.4684885610017269e+04 -1.3978072943298914e+05 -8.2244316951573655e+07 
+4.5499999999999918e+00 -5.5646760854763144e-01 +7.3432847939024333e+00 +3.1911247544906338e+00 -2.6944293835656314e+01 +1.4496831638163814e+04 -1.3732039603810085e+05 -8.1045966575742140e+07 
+4.5999999999999917e+00 -5.5649722632784859e-01 +7.3448422151553716e+00 +3.1675570005491864e+00 -2.7160506323799115e+01 +1.4307399636136550e+04 -1.3469762615706935e+05 -7.9842297647805855e+07 
+4.6499999999999915e+00 -5.5652707859569861e-01 +7.3464105026940816e+00 +3.1439514467225753e+00 -2.7401618008952422e+01 +1.4116995126018295e+04 -1.3191973527410245e+05 -7.8635772666250676e+07 
+4.6999999999999913e+00 -5.5655716238574782e-01 +7.3479894145957525e+00 +3.1202953017256410e+00 -2.7666569880416827e+01 +1.3926023764179614e+04 -1.2899403818520038e+05 -7.7428855051073834e+07 
+4.7499999999999911e+00 -5.5658747473260461e-01 +7.3495787089347635e+00 +3.0965757821789941e+00 -2.7954302820434258e+01 +1.3734890989216421e+04 -1.2592785056842517e+05 -7.6224006728642076e+07 
+4.7999999999999909e+00 -5.5661801267082689e-01 +7.3511781437926151e+00 +3.0727800963455123e+00 -2.8263758023261531e+01 +1.3544002468369474e+04 -1.2272848550150143e+05 -7.5023691188277110e+07 
+4.8499999999999908e+00 -5.5664877323498174e-01 +7.3527874772453412e+00 +3.0488954546088931e+00 -2.8593876467036463e+01 +1.3353763806461697e+04 -1.1940325785025620e+05 -7.3830371472496107e+07 
+4.8999999999999906e+00 -5.5667975345964649e-01 +7.3544064673734617e+00 +3.0249090695940377e+00 -2.8943599335846177e+01 +1.3164580550642308e+04 -1.1595948074693767e+05 -7.2646510247086138e+07 
+4.9499999999999904e+00 -5.5671095037938245e-01 +7.3560348722566982e+00 +3.0008081519491125e+00 -2.9311867792572929e+01 +1.2976858298344554e+04 -1.1240446750028609e+05 -7.1474570505344108e+07 
+4.9999999999999902e+00 -5.5674236102873509e-01 +7.3576724499768389e+00 +2.9765799101209902e+00 -2.9697623093043457e+01 +1.2791002705347802e+04 -1.0874553066430792e+05 -7.0317015631130174e+07 
+5.0499999999999901e+00 -5.5677398244226695e-01 +7.3593189586168615e+00 +2.9522115564756533e+00 -3.0099806570730195e+01 +1.2607419319905342e+04 -1.0498998210142793e+05 -6.9176308275022179e+07 
