# field on trajectory
# s[mm] rx[mm] ry[mm] rz[mm] bx[T] by[T] bz[T]
0.0000000000000000e+00 +8.2850000000000001e+00 +0.0000000000000000e+00 +0.0000000000000000e+00 -3.2479459186689250e-02 -5.8035356236983915e-01 +5.8834675586514089e-03
-5.0000000000000003e-02 +8.2849999306786479e+00 +0.0000000000000000e+00 -4.9999999999935929e-02 -3.2479875155924466e-02 -5.8035447562419151e-01 +5.8840917019096278e-03
-1.0000000000000001e-01 +8.2849997227144279e+00 +0.0000000000000000e+00 -9.9999999999487416e-02 -3.2480308926710437e-02 -5.8035576599047445e-01 +5.8847174102836519e-03
-1.5000000000000002e-01 +8.2849993761070344e+00 +0.0000000000000000e+00 -1.4999999999827002e-01 -3.2480760597375438e-02 -5.8035743263534145e-01 +5.8853445589153938e-03
-2.0000000000000001e-01 +8.2849988908560679e+00 +0.0000000000000000e+00 -1.9999999999589932e-01 -3.2481230266248544e-02 -5.8035947472546312e-01 +5.8859730229467088e-03
-2.5000000000000000e-01 +8.2849982669610398e+00 +0.0000000000000000e+00 -2.4999999999199085e-01 -3.2481718031659709e-02 -5.8036189142752825e-01 +5.8866026775193847e-03
-2.9999999999999999e-01 +8.2849975044213746e+00 +0.0000000000000000e+00 -2.9999999998616017e-01 -3.2482223991939750e-02 -5.8036468190824320e-01 +5.8872333977751153e-03
-3.4999999999999998e-01 +8.2849966032364044e+00 +0.0000000000000000e+00 -3.4999999997802278e-01 -3.2482748245420363e-02 -5.8036784533433161e-01 +5.8878650588554899e-03
-3.9999999999999997e-01 +8.2849955634053742e+00 +0.0000000000000000e+00 -3.9999999996719426e-01 -3.2483290890434148e-02 -5.8037138087253415e-01 +5.8884975359019672e-03
-4.4999999999999996e-01 +8.2849943849274386e+00 +0.0000000000000000e+00 -4.4999999995329015e-01 -3.2483852025314647e-02 -5.8037528768960867e-01 +5.8891307040558599e-03
-4.9999999999999994e-01 +8.2849930678016648e+00 +0.0000000000000000e+00 -4.9999999993592592e-01 -3.2484431748396318e-02 -5.8037956495232934e-01 +5.8897644384583248e-03
-5.4999999999999993e-01 +8.2849916120270315e+00 +0.0000000000000000e+00 -5.4999999991471715e-01 -3.2485030158014634e-02 -5.8038421182748789e-01 +5.8903986142503240e-03
-5.9999999999999998e-01 +8.2849900176024285e+00 +0.0000000000000000e+00 -5.9999999988927921e-01 -3.2485647352505996e-02 -5.8038922748189170e-01 +5.8910331065726339e-03
-6.5000000000000002e-01 +8.2849882845266585e+00 +0.0000000000000000e+00 -6.4999999985922763e-01 -3.2486283430207846e-02 -5.8039461108236401e-01 +5.8916677905658044e-03
-7.0000000000000007e-01 +8.2849864127984336e+00 +0.0000000000000000e+00 -6.9999999982417793e-01 -3.2486938489458661e-02 -5.8040036179574517e-01 +5.8923025413701495e-03
-7.5000000000000011e-01 +8.2849844024163808e+00 +0.0000000000000000e+00 -7.4999999978374554e-01 -3.2487612628597951e-02 -5.8040647878889062e-01 +5.8929372341257379e-03
-8.0000000000000016e-01 +8.2849822533790380e+00 +0.0000000000000000e+00 -7.9999999973754587e-01 -3.2488305945966293e-02 -5.8041296122867114e-01 +5.8935717439723492e-03
-8.5000000000000020e-01 +8.2849799656848582e+00 +0.0000000000000000e+00 -8.4999999968519435e-01 -3.2489018539905344e-02 -5.8041980828197404e-01 +5.8942059460494918e-03
-9.0000000000000024e-01 +8.2849775393322052e+00 +0.0000000000000000e+00 -8.9999999962630650e-01 -3.2489750508757888e-02 -5.8042701911570072e-01 +5.8948397154963495e-03
-9.5000000000000029e-01 +8.2849749743193559e+00 +0.0000000000000000e+00 -9.4999999956049752e-01 -3.2490501950867792e-02 -5.8043459289676824e-01 +5.8954729274517887e-03
-1.0000000000000002e+00 +8.2849722706445004e+00 +0.0000000000000000e+00 -9.9999999948738294e-01 -3.2491272964580133e-02 -5.8044252879210823e-01 +5.8961054570543228e-03
-1.0500000000000003e+00 +8.2849694283057431e+00 +0.0000000000000000e+00 -1.0499999994065781e+00 -3.2492063648241122e-02 -5.8045082596866737e-01 +5.8967371794421122e-03
-1.1000000000000003e+00 +8.2849664473011035e+00 +0.0000000000000000e+00 -1.0999999993176981e+00 -3.2492874100198139e-02 -5.8045948359340649e-01 +5.8973679697529244e-03
-1.1500000000000004e+00 +8.2849633276285122e+00 +0.0000000000000000e+00 -1.1499999992203584e+00 -3.2493704418799819e-02 -5.8046850083330082e-01 +5.8979977031241347e-03
-1.2000000000000004e+00 +8.2849600692858161e+00 +0.0000000000000000e+00 -1.1999999991141745e+00 -3.2494554702395990e-02 -5.8047787685533958e-01 +5.8986262546926972e-03
-1.2500000000000004e+00 +8.2849566722707735e+00 +0.0000000000000000e+00 -1.2499999989987614e+00 -3.2495425049337702e-02 -5.8048761082652600e-01 +5.8992534995951284e-03
-1.3000000000000005e+00 +8.2849531365810609e+00 +0.0000000000000000e+00 -1.2999999988737343e+00 -3.2496315557977329e-02 -5.8049770191387695e-01 +5.8998793129674942e-03
-1.3500000000000005e+00 +8.2849494622142661e+00 +0.0000000000000000e+00 -1.3499999987387086e+00 -3.2497226326668474e-02 -5.8050814928442318e-01 +5.9005035699453874e-03
-1.4000000000000006e+00 +8.2849456491678950e+00 +0.0000000000000000e+00 -1.3999999985932994e+00 -3.2498157453766142e-02 -5.8051895210520776e-01 +5.9011261456639067e-03
-1.4500000000000006e+00 +8.2849416974393648e+00 +0.0000000000000000e+00 -1.4499999984371217e+00 -3.2499109037626560e-02 -5.8053010954328788e-01 +5.9017469152576451e-03
-1.5000000000000007e+00 +8.2849376070260128e+00 +0.0000000000000000e+00 -1.4999999982697909e+00 -3.2500081176607333e-02 -5.8054162076573324e-01 +5.9023657538606620e-03
-1.5500000000000007e+00 +8.2849333779250873e+00 +0.0000000000000000e+00 -1.5499999980909220e+00 -3.2501073969067470e-02 -5.8055348493962655e-01 +5.9029825366064825e-03
-1.6000000000000008e+00 +8.2849290101337534e+00 +0.0000000000000000e+00 -1.5999999979001300e+00 -3.2502087513367334e-02 -5.8056570123206264e-01 +5.9035971386280596e-03
-1.6500000000000008e+00 +8.2849245036490942e+00 +0.0000000000000000e+00 -1.6499999976970299e+00 -3.2503121907868707e-02 -5.8057826881014907e-01 +5.9042094350577638e-03
-1.7000000000000008e+00 +8.2849198584681076e+00 +0.0000000000000000e+00 -1.6999999974812368e+00 -3.2504177250934803e-02 -5.8059118684100508e-01 +5.9048193010273744e-03
-1.7500000000000009e+00 +8.2849150745877065e+00 +0.0000000000000000e+00 -1.7499999972523657e+00 -3.2505253640930244e-02 -5.8060445449176279e-01 +5.9054266116680392e-03
-1.8000000000000009e+00 +8.2849101520047217e+00 +0.0000000000000000e+00 -1.7999999970100313e+00 -3.2506351176221200e-02 -5.8061807092956541e-01 +5.9060312421102823e-03
-1.8500000000000010e+00 +8.2849050907159008e+00 +0.0000000000000000e+00 -1.8499999967538490e+00 -3.2507469955175242e-02 -5.8063203532156771e-01 +5.9066330674839643e-03
-1.9000000000000010e+00 +8.2848998907179077e+00 +0.0000000000000000e+00 -1.8999999964834331e+00 -3.2508610076161480e-02 -5.8064634683493577e-01 +5.9072319629182753e-03
-1.9500000000000011e+00 +8.2848945520073229e+00 +0.0000000000000000e+00 -1.9499999961983987e+00 -3.2509771637550582e-02 -5.8066100463684733e-01 +5.9078278035417167e-03
-2.0000000000000009e+00 +8.2848890745806454e+00 +0.0000000000000000e+00 -1.9999999958983607e+00 -3.2510954737714738e-02 -5.8067600789449092e-01 +5.9084204644820754e-03
-2.0500000000000007e+00 +8.2848834584342921e+00 +0.0000000000000000e+00 -2.0499999955829336e+00 -3.2512159425774845e-02 -5.8069135555156537e-01 +5.9090098319560655e-03
-2.1000000000000005e+00 +8.2848777035645949e+00 +0.0000000000000000e+00 -2.0999999952517321e+00 -3.2513385553841416e-02 -5.8070704565777609e-01 +5.9095958365383925e-03
-2.1500000000000004e+00 +8.2848718099678056e+00 +0.0000000000000000e+00 -2.1499999949043711e+00 -3.2514632924772503e-02 -5.8072307603934037e-01 +5.9101784198930998e-03
-2.2000000000000002e+00 +8.2848657776400962e+00 +0.0000000000000000e+00 -2.1999999945404651e+00 -3.2515901341426255e-02 -5.8073944452248694e-01 +5.9107575236839495e-03
-2.2500000000000000e+00 +8.2848596065775553e+00 +0.0000000000000000e+00 -2.2499999941596291e+00 -3.2517190606660938e-02 -5.8075614893345684e-01 +5.9113330895744316e-03
-2.2999999999999998e+00 +8.2848532967761930e+00 +0.0000000000000000e+00 -2.2999999937614772e+00 -3.2518500523334846e-02 -5.8077318709850223e-01 +5.9119050592277853e-03
-2.3499999999999996e+00 +8.2848468482319397e+00 +0.0000000000000000e+00 -2.3499999933456239e+00 -3.2519830894306288e-02 -5.8079055684388781e-01 +5.9124733743069905e-03
-2.3999999999999995e+00 +8.2848402609406442e+00 +0.0000000000000000e+00 -2.3999999929116838e+00 -3.2521181522433489e-02 -5.8080825599588937e-01 +5.9130379764748085e-03
-2.4499999999999993e+00 +8.2848335348980804e+00 +0.0000000000000000e+00 -2.4499999924592712e+00 -3.2522552210574512e-02 -5.8082628238079392e-01 +5.9135988073937516e-03
-2.4999999999999991e+00 +8.2848266700999407e+00 +0.0000000000000000e+00 -2.4999999919880005e+00 -3.2523942761587231e-02 -5.8084463382490081e-01 +5.9141558087261207e-03
-2.5499999999999989e+00 +8.2848196665418410e+00 +0.0000000000000000e+00 -2.5499999914974860e+00 -3.2525352978329251e-02 -5.8086330815451903e-01 +5.9147089221340092e-03
-2.5999999999999988e+00 +8.2848125242193209e+00 +0.0000000000000000e+00 -2.5999999909873424e+00 -3.2526782663657876e-02 -5.8088230319597056e-01 +5.9152580892793145e-03
-2.6499999999999986e+00 +8.2848052431278418e+00 +0.0000000000000000e+00 -2.6499999904571836e+00 -3.2528231620429976e-02 -5.8090161677558771e-01 +5.9158032518237397e-03
-2.6999999999999984e+00 +8.2847978232627906e+00 +0.0000000000000000e+00 -2.6999999899066234e+00 -3.2529699651502028e-02 -5.8092124671971312e-01 +5.9163443514288032e-03
-2.7499999999999982e+00 +8.2847902646194793e+00 +0.0000000000000000e+00 -2.7499999893352762e+00 -3.2531186559729967e-02 -5.8094119085470186e-01 +5.9168813297558647e-03
-2.7999999999999980e+00 +8.2847825671931421e+00 +0.0000000000000000e+00 -2.7999999887427567e+00 -3.2532692147969160e-02 -5.8096144700691821e-01 +5.9174141284661216e-03
-2.8499999999999979e+00 +8.2847747309789401e+00 +0.0000000000000000e+00 -2.8499999881286779e+00 -3.2534216219074319e-02 -5.8098201300273811e-01 +5.9179426892206066e-03
-2.8999999999999977e+00 +8.2847667559719600e+00 +0.0000000000000000e+00 -2.8999999874926545e+00 -3.2535758575899576e-02 -5.8100288666854794e-01 +5.9184669536802379e-03
-2.9499999999999975e+00 +8.2847586421672155e+00 +0.0000000000000000e+00 -2.9499999868343001e+00 -3.2537319021298146e-02 -5.8102406583074406e-01 +5.9189868635057749e-03
-2.9999999999999973e+00 +8.2847503895596475e+00 +0.0000000000000000e+00 -2.9999999861532287e+00 -3.2538897358122550e-02 -5.8104554831573429e-01 +5.9195023603578817e-03
-3.0499999999999972e+00 +8.2847419981441224e+00 +0.0000000000000000e+00 -3.0499999854490540e+00 -3.2540493389224372e-02 -5.8106733194993554e-01 +5.9200133858970903e-03
-3.0999999999999970e+00 +8.2847334679154390e+00 +0.0000000000000000e+00 -3.0999999847213902e+00 -3.2542106917454301e-02 -5.8108941455977581e-01 +5.9205198817838482e-03
-3.1499999999999968e+00 +8.2847247988683197e+00 +0.0000000000000000e+00 -3.1499999839698503e+00 -3.2543737745661980e-02 -5.8111179397169277e-01 +5.9210217896784947e-03
-3.1999999999999966e+00 +8.2847159909974195e+00 +0.0000000000000000e+00 -3.1999999831940484e+00 -3.2545385676696036e-02 -5.8113446801213497e-01 +5.9215190512413064e-03
-3.2499999999999964e+00 +8.2847070442973223e+00 +0.0000000000000000e+00 -3.2499999823935979e+00 -3.2547050513403931e-02 -5.8115743450755886e-01 +5.9220116081324719e-03
-3.2999999999999963e+00 +8.2846979587625409e+00 +0.0000000000000000e+00 -3.2999999815681123e+00 -3.2548732058632006e-02 -5.8118069128443317e-01 +5.9224994020121262e-03
-3.3499999999999961e+00 +8.2846887343875206e+00 +0.0000000000000000e+00 -3.3499999807172052e+00 -3.2550430115225265e-02 -5.8120423616923467e-01 +5.9229823745403478e-03
-3.3999999999999959e+00 +8.2846793711666358e+00 +0.0000000000000000e+00 -3.3999999798404898e+00 -3.2552144486027501e-02 -5.8122806698845031e-01 +5.9234604673771753e-03
-3.4499999999999957e+00 +8.2846698690941931e+00 +0.0000000000000000e+00 -3.4499999789375799e+00 -3.2553874973881097e-02 -5.8125218156857661e-01 +5.9239336221826155e-03
-3.4999999999999956e+00 +8.2846602281644319e+00 +0.0000000000000000e+00 -3.4999999780080886e+00 -3.2555621381627008e-02 -5.8127657773611929e-01 +5.9244017806166496e-03
-3.5499999999999954e+00 +8.2846504483715258e+00 +0.0000000000000000e+00 -3.5499999770516291e+00 -3.2557383512104701e-02 -5.8130125331759397e-01 +5.9248648843392470e-03
-3.5999999999999952e+00 +8.2846405297095789e+00 +0.0000000000000000e+00 -3.5999999760678145e+00 -3.2559161168152072e-02 -5.8132620613952457e-01 +5.9253228750103725e-03
-3.6499999999999950e+00 +8.2846304721726298e+00 +0.0000000000000000e+00 -3.6499999750562582e+00 -3.2560954152605459e-02 -5.8135143402844514e-01 +5.9257756942899973e-03
-3.6999999999999948e+00 +8.2846202757546532e+00 +0.0000000000000000e+00 -3.6999999740165728e+00 -3.2562762268299475e-02 -5.8137693481089758e-01 +5.9262232838381123e-03
-3.7499999999999947e+00 +8.2846099404495561e+00 +0.0000000000000000e+00 -3.7499999729483715e+00 -3.2564585318067031e-02 -5.8140270631343394e-01 +5.9266655853147318e-03
-3.7999999999999945e+00 +8.2845994662511817e+00 +0.0000000000000000e+00 -3.7999999718512671e+00 -3.2566423104739228e-02 -5.8142874636261477e-01 +5.9271025403799041e-03
-3.8499999999999943e+00 +8.2845888531533110e+00 +0.0000000000000000e+00 -3.8499999707248724e+00 -3.2568275431145301e-02 -5.8145505278500875e-01 +5.9275340906937285e-03
-3.8999999999999941e+00 +8.2845781011496573e+00 +0.0000000000000000e+00 -3.8999999695688006e+00 -3.2570142100112588e-02 -5.8148162340719378e-01 +5.9279601779163521e-03
-3.9499999999999940e+00 +8.2845672102338757e+00 +0.0000000000000000e+00 -3.9499999683826639e+00 -3.2572022914466404e-02 -5.8150845605575585e-01 +5.9283807437079923e-03
-3.9999999999999938e+00 +8.2845561803995551e+00 +0.0000000000000000e+00 -3.9999999671660755e+00 -3.2573917677030113e-02 -5.8153554855729039e-01 +5.9287957297289437e-03
-4.0499999999999936e+00 +8.2845450116402226e+00 +0.0000000000000000e+00 -4.0499999659186479e+00 -3.2575826198226757e-02 -5.8156289865366628e-01 +5.9292050812823627e-03
-4.0999999999999934e+00 +8.2845337039493465e+00 +0.0000000000000000e+00 -4.0999999646399932e+00 -3.2577748318886095e-02 -5.8159050374782328e-01 +5.9296087582423997e-03
-4.1499999999999932e+00 +8.2845222573203312e+00 +0.0000000000000000e+00 -4.1499999633297238e+00 -3.2579683887441022e-02 -5.8161836115796961e-01 +5.9300067241253654e-03
-4.1999999999999931e+00 +8.2845106717465207e+00 +0.0000000000000000e+00 -4.1999999619874524e+00 -3.2581632752326090e-02 -5.8164646820231558e-01 +5.9303989424468479e-03
-4.2499999999999929e+00 +8.2844989472212021e+00 +0.0000000000000000e+00 -4.2499999606127910e+00 -3.2583594761977475e-02 -5.8167482219907318e-01 +5.9307853767217077e-03
-4.2999999999999927e+00 +8.2844870837376021e+00 +0.0000000000000000e+00 -4.2999999592053522e+00 -3.2585569764833074e-02 -5.8170342046645473e-01 +5.9311659904640549e-03
-4.3499999999999925e+00 +8.2844750812888872e+00 +0.0000000000000000e+00 -4.3499999577647479e+00 -3.2587557609332629e-02 -5.8173226032267444e-01 +5.9315407471872321e-03
-4.3999999999999924e+00 +8.2844629398681686e+00 +0.0000000000000000e+00 -4.3999999562905909e+00 -3.2589558143917625e-02 -5.8176133908594685e-01 +5.9319096104038160e-03
-4.4499999999999922e+00 +8.2844506594685008e+00 +0.0000000000000000e+00 -4.4499999547824931e+00 -3.2591571217031462e-02 -5.8179065407448727e-01 +5.9322725436255809e-03
-4.4999999999999920e+00 +8.2844382400828795e+00 +0.0000000000000000e+00 -4.4999999532400654e+00 -3.2593596677119474e-02 -5.8182020260651102e-01 +5.9326295103634954e-03
-4.5499999999999918e+00 +8.2844256817042474e+00 +0.0000000000000000e+00 -4.5499999516629206e+00 -3.2595634372628988e-02 -5.8184998200023297e-01 +5.9329804741277154e-03
-4.5999999999999917e+00 +8.2844129843254901e+00 +0.0000000000000000e+00 -4.5999999500506705e+00 -3.2597684152009365e-02 -5.8187998957386766e-01 +5.9333253984275467e-03
-4.6499999999999915e+00 +8.2844001479394382e+00 +0.0000000000000000e+00 -4.6499999484029262e+00 -3.2599745863712080e-02 -5.8191022264562908e-01 +5.9336642467714557e-03
-4.6999999999999913e+00 +8.2843871725388691e+00 +0.0000000000000000e+00 -4.6999999467192994e+00 -3.2601819356190727e-02 -5.8194067853373066e-01 +5.9339969826670402e-03
-4.7499999999999911e+00 +8.2843740581165086e+00 +0.0000000000000000e+00 -4.7499999449994021e+00 -3.2603904477901124e-02 -5.8197135455638349e-01 +5.9343235696210153e-03
-4.7999999999999909e+00 +8.2843608046650274e+00 +0.0000000000000000e+00 -4.7999999432428462e+00 -3.2606001077301341e-02 -5.8200224803179856e-01 +5.9346439711391993e-03
-4.8499999999999908e+00 +8.2843474121770466e+00 +0.0000000000000000e+00 -4.8499999414492425e+00 -3.2608109002851757e-02 -5.8203335627818342e-01 +5.9349581507265031e-03
-4.8999999999999906e+00 +8.2843338806451339e+00 +0.0000000000000000e+00 -4.8999999396182030e+00 -3.2610228103015095e-02 -5.8206467661374484e-01 +5.9352660718869155e-03
-4.9499999999999904e+00 +8.2843202100618090e+00 +0.0000000000000000e+00 -4.9499999377493387e+00 -3.2612358226256515e-02 -5.8209620635668635e-01 +5.9355676981234819e-03
-4.9999999999999902e+00 +8.2843064004195366e+00 +0.0000000000000000e+00 -4.9999999358422604e+00 -3.2614499221043647e-02 -5.8212794282520941e-01 +5.9358629929382950e-03
-5.0499999999999901e+00 +8.2842924517107370e+00 +0.0000000000000000e+00 -5.0499999338965793e+00 -3.2616650935846640e-02 -5.8215988333751179e-01 +5.9361519198324747e-03
-5.0999999999999899e+00 +8.2842783639277808e+00 +0.0000000000000000e+00 -5.0999999319119071e+00 -3.2618813219138197e-02 -5.8219202521178914e-01 +5.9364344423061630e-03
-5.1499999999999897e+00 +8.2842641370629888e+00 +0.0000000000000000e+00 -5.1499999298878540e+00 -3.2620985919393719e-02 -5.8222436576623227e-01 +5.9367105238585039e-03
-5.1999999999999895e+00 +8.2842497711086356e+00 +0.0000000000000000e+00 -5.1999999278240319e+00 -3.2623168885091189e-02 -5.8225690231902927e-01 +5.9369801279876193e-03
-5.2499999999999893e+00 +8.2842352660569478e+00 +0.0000000000000000e+00 -5.2499999257200507e+00 -3.2625361964711400e-02 -5.8228963218836349e-01 +5.9372432181906149e-03
-5.2999999999999892e+00 +8.2842206219001078e+00 +0.0000000000000000e+00 -5.2999999235755215e+00 -3.2627565006737906e-02 -5.8232255269241406e-01 +5.9374997579635371e-03
-5.3499999999999890e+00 +8.2842058386302497e+00 +0.0000000000000000e+00 -5.3499999213900544e+00 -3.2629777859657136e-02 -5.8235566114935577e-01 +5.9377497108013986e-03
-5.3999999999999888e+00 +8.2841909162394654e+00 +0.0000000000000000e+00 -5.3999999191632604e+00 -3.2632000371958354e-02 -5.8238895487735787e-01 +5.9379930401981165e-03
-5.4499999999999886e+00 +8.2841758547198019e+00 +0.0000000000000000e+00 -5.4499999168947504e+00 -3.2634232392133852e-02 -5.8242243119458492e-01 +5.9382297096465357e-03
-5.4999999999999885e+00 +8.2841606540632604e+00 +0.0000000000000000e+00 -5.4999999145841345e+00 -3.2636473768678891e-02 -5.8245608741919619e-01 +5.9384596826383947e-03
-5.5499999999999883e+00 +8.2841453142618011e+00 +0.0000000000000000e+00 -5.5499999122310228e+00 -3.2638724350091734e-02 -5.8248992086934426e-01 +5.9386829226643120e-03
-5.5999999999999881e+00 +8.2841298353073434e+00 +0.0000000000000000e+00 -5.5999999098350264e+00 -3.2640983984873848e-02 -5.8252392886317594e-01 +5.9388993932137750e-03
-5.6499999999999879e+00 +8.2841142171917621e+00 +0.0000000000000000e+00 -5.6499999073957552e+00 -3.2643252521529824e-02 -5.8255810871883285e-01 +5.9391090577751333e-03
-5.6999999999999877e+00 +8.2840984599068914e+00 +0.0000000000000000e+00 -5.6999999049128185e+00 -3.2645529808567442e-02 -5.8259245775444857e-01 +5.9393118798355691e-03
-5.7499999999999876e+00 +8.2840825634445263e+00 +0.0000000000000000e+00 -5.7499999023858273e+00 -3.2647815694497817e-02 -5.8262697328814972e-01 +5.9395078228810880e-03
-5.7999999999999874e+00 +8.2840665277964209e+00 +0.0000000000000000e+00 -5.7999998998143907e+00 -3.2650110027835307e-02 -5.8266165263805691e-01 +5.9396968503965053e-03
-5.8499999999999872e+00 +8.2840503529542922e+00 +0.0000000000000000e+00 -5.8499998971981189e+00 -3.2652412657097722e-02 -5.8269649312228267e-01 +5.9398789258654338e-03
