# multipoles
# s[mm] polynom_b[n=0][T/m^n] polynom_b[n=1][T/m^n] polynom_b[n=2][T/m^n] polynom_b[n=3][T/m^n] polynom_b[n=4][T/m^n] polynom_b[n=5][T/m^n] polynom_b[n=6][T/m^n] 
+0.0000000000000000e+00 -5.7910639048231027e-01 +7.5471473434467979e+00 +6.2375926839139648e+00 -7.9688467953261499e+00 +1.0209506383171470e+03 -5.0927460379023873e+05 -4.9937458314053472e+06 
+5.0000000000000003e-02 -5.7910609533194302e-01 +7.5471273297949182e+00 +6.2346823775497748e+00 -8.1988773914740243e+00 +1.1120114982692332e+03 -5.0823284992633114e+05 -5.6250944703046037e+06 
+1.0000000000000001e-01 -5.7910621218373515e-01 +7.5471300314466605e+00 +6.2312069011754723e+00 -8.4316486618092181e+00 +1.2042490936944362e+03 -5.0713942674811365e+05 -6.2623020980940629e+06 
+1.5000000000000002e-01 -5.7910674030254028e-01 +7.5471553737871337e+00 +6.2271691381755696e+00 -8.6666988301518089e+00 +1.2976292906196948e+03 -5.0599733522608888e+05 -6.9050422818601029e+06 
+2.0000000000000001e-01 -5.7910767895326554e-01 +7.5472032822059383e+00 +6.2225719777200554e+00 -8.9035662638628068e+00 +1.3921177997005357e+03 -5.0480957519994245e+05 -7.5529875417625569e+06 
+2.5000000000000000e-01 -5.7910902740079218e-01 +7.5472736820964803e+00 +6.2174183010407242e+00 -9.1417894685601357e+00 +1.4876805449181256e+03 -5.0357914532343339e+05 -8.2058118357771682e+06 
+2.9999999999999999e-01 -5.7911078491005374e-01 +7.5473664988464257e+00 +6.2117109953241405e+00 -9.3809066612105401e+00 +1.5842832908118507e+03 -5.0230904671475018e+05 -8.8631880533557888e+06 
+3.4999999999999998e-01 -5.7911295074597835e-01 +7.5474816578473956e+00 +6.2054529433315926e+00 -9.6204562131356717e+00 +1.6818919185846755e+03 -5.0100227914739563e+05 -9.5247898587488532e+06 
+3.9999999999999997e-01 -5.7911552417353740e-01 +7.5476190844940056e+00 +6.1986470322873704e+00 -9.8599765685618372e+00 +1.7804721909196398e+03 -4.9966184187252453e+05 -1.0190290127016438e+07 
+4.4999999999999996e-01 -5.7911850445771385e-01 +7.5477787041773210e+00 +6.1912961477514337e+00 -1.0099006008010344e+01 +1.8799899159175973e+03 -4.9829073545316886e+05 -1.0859362040680606e+07 
+4.9999999999999994e-01 -5.7912189086350141e-01 +7.5479604422936752e+00 +6.1834031742827484e+00 -1.0337082991851860e+01 +1.9804109269461451e+03 -4.9689195900076180e+05 -1.1531678948941655e+07 
+5.4999999999999993e-01 -5.7912568265590769e-01 +7.5481642242383709e+00 +6.1749709954364711e+00 -1.0573745912765670e+01 +2.0817010830262761e+03 -4.9546851217522577e+05 -1.2206914368299926e+07 
+5.9999999999999998e-01 -5.7912987909997260e-01 +7.5483899754038104e+00 +6.1660024967881002e+00 -1.0808533001989376e+01 +2.1838261931301608e+03 -4.9402339603198908e+05 -1.2884741494970273e+07 
+6.5000000000000002e-01 -5.7913447946075869e-01 +7.5486376211899291e+00 +6.1565005655538014e+00 -1.1040982781539249e+01 +2.2867520153483920e+03 -4.9255960919022840e+05 -1.3564833160002476e+07 
+7.0000000000000007e-01 -5.7913948300332263e-01 +7.5489070869944648e+00 +6.1464680836471413e+00 -1.1270633651288010e+01 +2.3904444568916228e+03 -4.9108015130207152e+05 -1.4246863222371906e+07 
+7.5000000000000011e-01 -5.7914488899276229e-01 +7.5491982982127670e+00 +6.1359079378619041e+00 -1.1497023878879054e+01 +2.4948692858882278e+03 -4.8958802314273641e+05 -1.4930504575652579e+07 
+8.0000000000000016e-01 -5.7915069669419239e-01 +7.5495111802476504e+00 +6.1248230140203637e+00 -1.1719692010706959e+01 +2.5999923032900938e+03 -4.8808622318845458e+05 -1.5615430359424215e+07 
+8.5000000000000020e-01 -5.7915690537273190e-01 +7.5498456584954212e+00 +6.1132161959126261e+00 -1.1938176300296174e+01 +2.7057793615858259e+03 -4.8657775233927782e+05 -1.6301314053578833e+07 
+9.0000000000000024e-01 -5.7916351429352075e-01 +7.5502016583580094e+00 +6.1010903680703841e+00 -1.2152015201198745e+01 +2.8121962891147782e+03 -4.8506560986839276e+05 -1.6987828956212889e+07 
+9.5000000000000029e-01 -5.7917052272173430e-01 +7.5505791052373894e+00 +6.0884484173107971e+00 -1.2360747134714805e+01 +2.9192088595033892e+03 -4.8355279534332367e+05 -1.7674648024478640e+07 
+1.0000000000000002e+00 -5.7917792992253836e-01 +7.5509779245351565e+00 +6.0752932263780615e+00 -1.2563910480767486e+01 +3.0267829504628207e+03 -4.8204230868583563e+05 -1.8361444898017839e+07 
+1.0500000000000003e+00 -5.7918573516113958e-01 +7.5513980416558502e+00 +6.0616276817452261e+00 -1.2761043712244883e+01 +3.1348843387869911e+03 -4.8053714907123463e+05 -1.9047892532586373e+07 
+1.1000000000000003e+00 -5.7919393770275562e-01 +7.5518393820008303e+00 +6.0474546687837956e+00 -1.2951685141469325e+01 +3.2434788333931428e+03 -4.7904031700702349e+05 -1.9733664113952644e+07 
+1.1500000000000004e+00 -5.7920253681260792e-01 +7.5523018709755441e+00 +6.0327770703102335e+00 -1.3135373223234700e+01 +3.3525323086763406e+03 -4.7755481185373472e+05 -2.0418433253664881e+07 
+1.2000000000000004e+00 -5.7921153175596152e-01 +7.5527854339861875e+00 +6.0175977740932600e+00 -1.3311646414373953e+01 +3.4620105050526013e+03 -4.7608363296281139e+05 -2.1101872661753662e+07 
+1.2500000000000004e+00 -5.7922092179806461e-01 +7.5532899964379290e+00 +6.0019196612347896e+00 -1.3480043092092355e+01 +3.5718793456977182e+03 -4.7462978040953877e+05 -2.1783656291777354e+07 
+1.3000000000000005e+00 -5.7923070620422012e-01 +7.5538154837377256e+00 +5.9857456201504000e+00 -1.3640101691084034e+01 +3.6821045501855310e+03 -4.7319625376199849e+05 -2.2463456699508768e+07 
+1.3500000000000005e+00 -5.7924088423972109e-01 +7.5543618212928783e+00 +5.9690785336929606e+00 -1.3791360632989237e+01 +3.7926519940164062e+03 -4.7178605272760591e+05 -2.3140947516913600e+07 
+1.4000000000000006e+00 -5.7925145516987586e-01 +7.5549289345120343e+00 +5.9519212853432011e+00 -1.3933358351742921e+01 +3.9034875257656172e+03 -4.7040217698576179e+05 -2.3815802157151416e+07 
+1.4500000000000006e+00 -5.7926241826004021e-01 +7.5555167488047470e+00 +5.9342767630400690e+00 -1.4065633309464435e+01 +4.0145768844973795e+03 -4.6904762594384316e+05 -2.4487693337169308e+07 
+1.5000000000000007e+00 -5.7927377277555647e-01 +7.5561251895779336e+00 +5.9161478498112849e+00 -1.4187723823977777e+01 +4.1258859325845360e+03 -4.6772540025385754e+05 -2.5156294568383556e+07 
+1.5500000000000007e+00 -5.7928551798179595e-01 +7.5567541822460926e+00 +5.8975374308286543e+00 -1.4299168491974349e+01 +4.2373804755103265e+03 -4.6643849831684050e+05 -2.5821278984833889e+07 
+1.6000000000000008e+00 -5.7929765314412107e-01 +7.5574036522180759e+00 +5.8784483866299508e+00 -1.4399505663658994e+01 +4.3490264443477445e+03 -4.6518992054343777e+05 -2.6482320572055969e+07 
+1.6500000000000008e+00 -5.7931017752796510e-01 +7.5580735249075648e+00 +5.8588836073310420e+00 -1.4488273854002371e+01 +4.4607895116266636e+03 -4.6398266604526457e+05 -2.7139091570175327e+07 
+1.7000000000000008e+00 -5.7932309039873431e-01 +7.5587637257246820e+00 +5.8388459752629789e+00 -1.4565011397306538e+01 +4.5726355555004848e+03 -4.6281973547201848e+05 -2.7791265587399580e+07 
+1.7500000000000009e+00 -5.7933639102185230e-01 +7.5594741800846439e+00 +5.8183383730709002e+00 -1.4629256834787702e+01 +4.6845304490827139e+03 -4.6170412771292689e+05 -2.8438516217355736e+07 
+1.8000000000000009e+00 -5.7935007866278154e-01 +7.5602048134011897e+00 +5.7973636873892564e+00 -1.4680548592850361e+01 +4.7964399521118030e+03 -4.6063884274033771e+05 -2.9080516264038835e+07 
+1.8500000000000010e+00 -5.7936415258698115e-01 +7.5609555510891395e+00 +5.7759248010253614e+00 -1.4718425134144850e+01 +4.9083299317013707e+03 -4.5962688018015900e+05 -2.9716939272317283e+07 
+1.9000000000000010e+00 -5.7937861205993524e-01 +7.5617263185624930e+00 +5.7540245989153096e+00 -1.4742424853821099e+01 +5.0201661915546556e+03 -4.5867124028542597e+05 -3.0347458338518061e+07 
+1.9500000000000011e+00 -5.7939345634714756e-01 +7.5625170412395768e+00 +5.7316659660397820e+00 -1.4752086302603589e+01 +5.1319145383271689e+03 -4.5777492204272951e+05 -3.0971746594697859e+07 
+2.0000000000000009e+00 -5.7940868471411466e-01 +7.5633276445351134e+00 +5.7088517836931763e+00 -1.4746947860542170e+01 +5.2435408714412060e+03 -4.5694092585020943e+05 -3.1589477772272866e+07 
+2.0500000000000007e+00 -5.7942429616901492e-01 +7.5641580449356240e+00 +5.6855861023660950e+00 -1.4726780631542114e+01 +5.3549970933836603e+03 -4.5617078384147532e+05 -3.2200297164229613e+07 
+2.1000000000000005e+00 -5.7944028869071473e-01 +7.5650081163037948e+00 +5.6618779170469251e+00 -1.4692312005625819e+01 +5.4661850697196305e+03 -4.5545992157010740e+05 -3.2803773618359506e+07 
+2.1500000000000004e+00 -5.7945666000079266e-01 +7.5658777201474132e+00 +5.6377375401399075e+00 -1.4644516621661374e+01 +5.5769956287530958e+03 -4.5480217214717175e+05 -3.3399466267802276e+07 
+2.2000000000000002e+00 -5.7947340782083978e-01 +7.5667667179699549e+00 +5.6131752841927165e+00 -1.4584368936633931e+01 +5.6873195923406774e+03 -4.5419137014691043e+05 -3.3986934189763479e+07 
+2.2500000000000000e+00 -5.7949052987247862e-01 +7.5676749712758165e+00 +5.5882014652032410e+00 -1.4512843442749757e+01 +5.7970476877754691e+03 -4.5362134979917959e+05 -3.4565735818620667e+07 
+2.2999999999999998e+00 -5.7950802387732658e-01 +7.5686023415690666e+00 +5.5628263956120643e+00 -1.4430914560851754e+01 +5.9060707416975702e+03 -4.5308594606686890e+05 -3.5135430273425877e+07 
+2.3499999999999996e+00 -5.7952588755701306e-01 +7.5695486903537779e+00 +5.5370603879944742e+00 -1.4339556736648285e+01 +6.0142795753666678e+03 -4.5257899354685872e+05 -3.5695576630826846e+07 
+2.3999999999999995e+00 -5.7954411863319111e-01 +7.5705138791360023e+00 +5.5109137566824629e+00 -1.4239744465431333e+01 +6.1215649644623400e+03 -4.5209432646696857e+05 -3.6245733667520054e+07 
+2.4499999999999993e+00 -5.7956271482753008e-01 +7.5714977694196381e+00 +5.4843968169767798e+00 -1.4132452125439565e+01 +6.2278176577402783e+03 -4.5162578006361832e+05 -3.6785459978007860e+07 
+2.4999999999999991e+00 -5.7958167386169301e-01 +7.5725002227116631e+00 +5.4575198807692207e+00 -1.4018654219999595e+01 +6.3329284962301454e+03 -4.5116718847945606e+05 -3.7314314778646648e+07 
+2.5499999999999989e+00 -5.7960099345737859e-01 +7.5735211005149381e+00 +5.4302932639567585e+00 -1.3899325066580099e+01 +6.4367882168625201e+03 -4.5071238737985137e+05 -3.7831856601731710e+07 
+2.5999999999999988e+00 -5.7962067133627804e-01 +7.5745602643365890e+00 +5.4027272794141492e+00 -1.3775439135202920e+01 +6.5392876348057753e+03 -4.5025521119225497e+05 -3.8337644495415419e+07 
+2.6499999999999986e+00 -5.7964070522010658e-01 +7.5756175756796873e+00 +5.3748322420652750e+00 -1.3647970724067156e+01 +6.6403175116254906e+03 -4.4978949570723268e+05 -3.8831237152231619e+07 
+2.6999999999999984e+00 -5.7966109283058576e-01 +7.5766928960524682e+00 +5.3466184660466132e+00 -1.3517894327316489e+01 +6.7397686302728798e+03 -4.4930907510417217e+05 -3.9312193411060452e+07 
+2.7499999999999982e+00 -5.7968183188945177e-01 +7.5777860869583185e+00 +5.3180962656638799e+00 -1.3386184219928744e+01 +6.8375317752727242e+03 -4.4880778536832193e+05 -3.9780072146615587e+07 
+2.7999999999999980e+00 -5.7970292011845392e-01 +7.5788970099014472e+00 +5.2892759565744800e+00 -1.3253814709058560e+01 +6.9334976878603384e+03 -4.4827946215997176e+05 -4.0234431917547584e+07 
+2.8499999999999979e+00 -5.7972435523934140e-01 +7.5800255263889573e+00 +5.2601678517925174e+00 -1.3121760203886989e+01 +7.0275571856191127e+03 -4.4771794030655356e+05 -4.0674831814705573e+07 
+2.8999999999999977e+00 -5.7974613497389516e-01 +7.5811714979258200e+00 +5.2307822680601825e+00 -1.2990995006539118e+01 +7.1196009881619193e+03 -4.4711705551838258e+05 -4.1100830279759623e+07 
+2.9499999999999975e+00 -5.7976825704388668e-01 +7.5823347860161441e+00 +5.2011295194052947e+00 -1.2862493385648214e+01 +7.2095198834478188e+03 -4.4647064371359412e+05 -4.1511986199601926e+07 
+2.9999999999999973e+00 -5.7979071917111535e-01 +7.5835152521645020e+00 +5.1712199223518915e+00 -1.2737229611855934e+01 +7.2972045983308353e+03 -4.4577254078882164e+05 -4.1907858071743950e+07 
+3.0499999999999972e+00 -5.7981351907736889e-01 +7.5847127578751374e+00 +5.1410637897507119e+00 -1.2616177933524536e+01 +7.3825459593521382e+03 -4.4501658279939153e+05 -4.2288005070575498e+07 
+3.0999999999999970e+00 -5.7983665448447175e-01 +7.5859271646537332e+00 +5.1106714396880379e+00 -1.2500312647447970e+01 +7.4654346493588610e+03 -4.4419660538147832e+05 -4.2651985392394349e+07 
+3.1499999999999968e+00 -5.7986012311424473e-01 +7.5871583340035524e+00 +5.0800531873895860e+00 -1.2390607942268311e+01 +7.5457614347625595e+03 -4.4330644502722926e+05 -4.2999357821367994e+07 
+3.1999999999999966e+00 -5.7988392268852007e-01 +7.5884061274284598e+00 +5.0492193488966643e+00 -1.2288038020738655e+01 +7.6234170570779888e+03 -4.4233993810064532e+05 -4.3329680965917826e+07 
+3.2499999999999964e+00 -5.7990805092912645e-01 +7.5896704064310327e+00 +5.0181802380122518e+00 -1.2193577028921252e+01 +7.6982923207474259e+03 -4.4129092137733492e+05 -4.3642513867978849e+07 
+3.2999999999999963e+00 -5.7993250555792786e-01 +7.5909510325160312e+00 +4.9869461729720159e+00 -1.2108199192628172e+01 +7.7702779154445498e+03 -4.4015323095956235e+05 -4.3937414815970354e+07 
+3.3499999999999961e+00 -5.7995728429678928e-01 +7.5922478671859173e+00 +4.9555274713590682e+00 -1.2032878639593036e+01 +7.8392645411752837e+03 -4.3892070371130569e+05 -4.4213942138981484e+07 
+3.3999999999999959e+00 -5.7998238486757292e-01 +7.5935607719416858e+00 +4.9239344480374516e+00 -1.1968589428788126e+01 +7.9051429837109035e+03 -4.3758717702888336e+05 -4.4471654796213537e+07 
+3.4499999999999957e+00 -5.8000780499214999e-01 +7.5948896082881241e+00 +4.8921774185822260e+00 -1.1916305766625408e+01 +7.9678040027890274e+03 -4.3614648708594945e+05 -4.4710111543370493e+07 
+3.4999999999999956e+00 -5.8003354239243432e-01 +7.5962342377237411e+00 +4.8602667044382404e+00 -1.1877001594767448e+01 +8.0271382064060690e+03 -4.3459247218145936e+05 -4.4928870138831772e+07 
+3.5499999999999954e+00 -5.8005959479028746e-01 +7.5975945217519261e+00 +4.8282126169241861e+00 -1.1851651061776895e+01 +8.0830364725728350e+03 -4.3291896884810401e+05 -4.5127490154822387e+07 
+3.5999999999999952e+00 -5.8008595990764433e-01 +7.5989703218721640e+00 +4.7960254783564924e+00 -1.1841228139460574e+01 +8.1353893915336566e+03 -4.3111981507144909e+05 -4.5305529252998479e+07 
+3.6499999999999950e+00 -5.8011263546640812e-01 +7.6003614995853921e+00 +4.7637156050930294e+00 -1.1846706855091165e+01 +8.1840877050280860e+03 -4.2918884834472323e+05 -4.5462546084057920e+07 
+3.6999999999999948e+00 -5.8013961918849943e-01 +7.6017679163913598e+00 +4.7312933144738709e+00 -1.1869061192320773e+01 +8.2290221430116126e+03 -4.2711990644089266e+05 -4.5598099280001536e+07 
+3.7499999999999947e+00 -5.8016690879584876e-01 +7.6031894337875086e+00 +4.6987689250974860e+00 -1.1909265038748007e+01 +8.2700833924654817e+03 -4.2490682787975390e+05 -4.5711747143647619e+07 
+3.7999999999999945e+00 -5.8019450201040301e-01 +7.6046259132733018e+00 +4.6661527566575618e+00 -1.1968292350651481e+01 +8.3071621202510087e+03 -4.2254345061565982e+05 -4.5803047881454244e+07 
+3.8499999999999943e+00 -5.8022239655409202e-01 +7.6060772163478756e+00 +4.6334551254434082e+00 -1.2047117085052907e+01 +8.3401490821698226e+03 -4.2002361248502164e+05 -4.5871560292044342e+07 
+3.8999999999999941e+00 -5.8025059014887748e-01 +7.6075432045067686e+00 +4.6006863520191015e+00 -1.2146713024379947e+01 +8.3689349218761363e+03 -4.1734115281852934e+05 -4.5916842428001769e+07 
+3.9499999999999940e+00 -5.8027908051670840e-01 +7.6090237392453890e+00 +4.5678567537530697e+00 -1.2268053982900788e+01 +8.3934103714518169e+03 -4.1448991048368008e+05 -4.5938452949314304e+07 
+3.9999999999999938e+00 -5.8030786537956014e-01 +7.6105186820629855e+00 +4.5349766512339738e+00 -1.2412113886178391e+01 +8.4134660827333755e+03 -4.1146372351313190e+05 -4.5935949994782507e+07 
+4.0499999999999936e+00 -5.8033694235959443e-01 +7.6120278762495586e+00 +4.5020554603021150e+00 -1.2579418295223631e+01 +8.4290214247053773e+03 -4.0825939719951071e+05 -4.5909031421253636e+07 
+4.0999999999999934e+00 -5.8036630867893191e-01 +7.6135510875932395e+00 +4.4690998164159046e+00 -1.2768709983691471e+01 +8.4400914954710206e+03 -4.0488588969147275e+05 -4.5857826720735103e+07 
+4.1499999999999932e+00 -5.8039596145951311e-01 +7.6150880612938021e+00 +4.4361158895342312e+00 -1.2978288028508668e+01 +8.4467104469983933e+03 -4.0135527783614240e+05 -4.5782539678431764e+07 
+4.1999999999999931e+00 -5.8042589782327003e-01 +7.6166385425490128e+00 +4.4031098477737398e+00 -1.3206451458091395e+01 +8.4489124790104179e+03 -3.9767963886667200e+05 -4.5683374381781369e+07 
+4.2499999999999929e+00 -5.8045611489214344e-01 +7.6182022765562403e+00 +4.3700878607676241e+00 -1.3451499281800812e+01 +8.4467317471999850e+03 -3.9387105022998701e+05 -4.5560534610222533e+07 
+4.2999999999999927e+00 -5.8048660978806121e-01 +7.6197790085126185e+00 +4.3370560956071307e+00 -1.3711730522007983e+01 +8.4402024739852768e+03 -3.8994158921546605e+05 -4.5414224583216913e+07 
+4.3499999999999925e+00 -5.8051737963295458e-01 +7.6213684836119215e+00 +4.3040207196463802e+00 -1.3985444065830704e+01 +8.4293588745930356e+03 -3.8590333426243550e+05 -4.5244648471350521e+07 
+4.3999999999999924e+00 -5.8054842154875697e-01 +7.6229704470519790e+00 +4.2709879011444674e+00 -1.4270938985146826e+01 +8.4142351311690763e+03 -3.8176836225976120e+05 -4.5052010185693868e+07 
+4.4499999999999922e+00 -5.8057973265739482e-01 +7.6245846440297012e+00 +4.2379638063614147e+00 -1.4566514351609458e+01 +8.3948654845174224e+03 -3.7754875000359450e+05 -4.4836514050361291e+07 
+4.4999999999999920e+00 -5.8061131008079869e-01 +7.6262108197368983e+00 +4.2049546027636575e+00 -1.4870469013917322e+01 +8.3712841360340881e+03 -3.7325657623332564e+05 -4.4598364095212236e+07 
+4.5499999999999918e+00 -5.8064315094089358e-01 +7.6278487193675231e+00 +4.1719664569050874e+00 -1.5181101942794223e+01 +8.3435253098925114e+03 -3.6890391860570956e+05 -4.4337764496436603e+07 
+4.5999999999999917e+00 -5.8067525235959638e-01 +7.6294980881179413e+00 +4.1390055340794234e+00 -1.5496712222092247e+01 +8.3116232595157617e+03 -3.6450285384998802e+05 -4.4054919604649991e+07 
+4.6499999999999915e+00 -5.8070761145883254e-01 +7.6311586711801649e+00 +4.1060780012395881e+00 -1.5815598779056712e+01 +8.2756121935405845e+03 -3.6006545996058616e+05 -4.3750033469933100e+07 
+4.6999999999999913e+00 -5.8074022536051151e-01 +7.6328302137450521e+00 +4.0731900227077533e+00 -1.6136060515636448e+01 +8.2355263870572217e+03 -3.5560381512080092e+05 -4.3423310568289779e+07 
+4.7499999999999911e+00 -5.8077309118655118e-01 +7.6345124610053903e+00 +4.0403477644996588e+00 -1.6456396424735395e+01 +8.1914000689150853e+03 -3.5112999678813946e+05 -4.3074955061524898e+07 
+4.7999999999999909e+00 -5.8080620605884625e-01 +7.6362051581529977e+00 +4.0075573895925345e+00 -1.6774905486070370e+01 +8.1432675398633000e+03 -3.4665608250481397e+05 -4.2705171556378193e+07 
+4.8499999999999908e+00 -5.8083956709931428e-01 +7.6379080503768986e+00 +3.9748250644173271e+00 -1.7089886596385817e+01 +8.0911630140413736e+03 -3.4219415043212974e+05 -4.2314164096291125e+07 
+4.8999999999999906e+00 -5.8087317142984207e-01 +7.6396208828666934e+00 +3.9421569512216235e+00 -1.7399638687881865e+01 +8.0351208064434168e+03 -3.3775627848386177e+05 -4.1902137357815728e+07 
+4.9499999999999904e+00 -5.8090701617232632e-01 +7.6413434008130459e+00 +3.9095592140672277e+00 -1.7702460757380265e+01 +7.9751751850180526e+03 -3.3335454403395642e+05 -4.1469295704303823e+07 
+4.9999999999999902e+00 -5.8094109844865127e-01 +7.6430753494032686e+00 +3.8770380158950219e+00 -1.7996651708596684e+01 +7.9113604409944173e+03 -3.2900102514487808e+05 -4.1015843630134642e+07 
+5.0499999999999901e+00 -5.8097541538069863e-01 +7.6448164738259008e+00 +3.8445995193826250e+00 -1.8280510501936213e+01 +7.8437108727769464e+03 -3.2470779946665163e+05 -4.0541985672810726e+07 
