# field on trajectory
# s[mm] rx[mm] ry[mm] rz[mm] bx[T] by[T] bz[T]
0.0000000000000000e+00 +8.5389999999999997e+00 +0.0000000000000000e+00 +0.0000000000000000e+00 -2.9808219402224511e-02 -5.5027731773741606e-01 +5.6771407567861648e-03
5.0000000000000003e-02 +8.5389999310363915e+00 +0.0000000000000000e+00 +4.9999999999936581e-02 -2.9807366959515677e-02 -5.5026937886516036e-01 +5.6747061842556956e-03
1.0000000000000001e-01 +8.5389997241468762e+00 +0.0000000000000000e+00 +9.9999999999492689e-02 -2.9806540560656739e-02 -5.5026182375862365e-01 +5.6722668399149133e-03
1.5000000000000002e-01 +8.5389993793333474e+00 +0.0000000000000000e+00 +1.4999999999828789e-01 -2.9805740208076383e-02 -5.5025465256366490e-01 +5.6698229844003118e-03
2.0000000000000001e-01 +8.5389988965976027e+00 +0.0000000000000000e+00 +1.9999999999594170e-01 -2.9804965904204863e-02 -5.5024786542616078e-01 +5.6673748783482841e-03
2.5000000000000000e-01 +8.5389982759413439e+00 +0.0000000000000000e+00 +2.4999999999207370e-01 -2.9804217651473973e-02 -5.5024146249200478e-01 +5.6649227823951601e-03
2.9999999999999999e-01 +8.5389975173661750e+00 +0.0000000000000000e+00 +2.9999999998630350e-01 -2.9803495452317072e-02 -5.5023544390710843e-01 +5.6624669571772243e-03
3.4999999999999998e-01 +8.5389966208736059e+00 +0.0000000000000000e+00 +3.4999999997825065e-01 -2.9802799309169056e-02 -5.5022980981740044e-01 +5.6600076633307331e-03
3.9999999999999997e-01 +8.5389955864650471e+00 +0.0000000000000000e+00 +3.9999999996753477e-01 -2.9802129224466276e-02 -5.5022456036882650e-01 +5.6575451614919491e-03
4.4999999999999996e-01 +8.5389944141418148e+00 +0.0000000000000000e+00 +4.4999999995377549e-01 -2.9801485200646655e-02 -5.5021969570735152e-01 +5.6550797122971574e-03
4.9999999999999994e-01 +8.5389931039051294e+00 +0.0000000000000000e+00 +4.9999999993659244e-01 -2.9800867240149510e-02 -5.5021521597895684e-01 +5.6526115763826821e-03
5.4999999999999993e-01 +8.5389916557561136e+00 +0.0000000000000000e+00 +5.4999999991560522e-01 -2.9800275345415701e-02 -5.5021112132964223e-01 +5.6501410143849290e-03
5.9999999999999998e-01 +8.5389900696957923e+00 +0.0000000000000000e+00 +5.9999999989043351e-01 -2.9799709518887451e-02 -5.5020741190542510e-01 +5.6476682869403844e-03
6.5000000000000002e-01 +8.5389883457250964e+00 +0.0000000000000000e+00 +6.4999999986069690e-01 -2.9799169763008483e-02 -5.5020408785234098e-01 +5.6451936546856553e-03
7.0000000000000007e-01 +8.5389864838448588e+00 +0.0000000000000000e+00 +6.9999999982601502e-01 -2.9798656080223869e-02 -5.5020114931644348e-01 +5.6427173782574915e-03
7.5000000000000011e-01 +8.5389844840558169e+00 +0.0000000000000000e+00 +7.4999999978600762e-01 -2.9798168472980138e-02 -5.5019859644380464e-01 +5.6402397182927942e-03
8.0000000000000016e-01 +8.5389823463586101e+00 +0.0000000000000000e+00 +7.9999999974029423e-01 -2.9797706943725168e-02 -5.5019642938051438e-01 +5.6377609354286602e-03
8.5000000000000020e-01 +8.5389800707537820e+00 +0.0000000000000000e+00 +8.4999999968849460e-01 -2.9797271494908194e-02 -5.5019464827268105e-01 +5.6352812903023870e-03
9.0000000000000024e-01 +8.5389776572417784e+00 +0.0000000000000000e+00 +8.9999999963022836e-01 -2.9796862128979803e-02 -5.5019325326643120e-01 +5.6328010435514981e-03
9.5000000000000029e-01 +8.5389751058229493e+00 +0.0000000000000000e+00 +9.4999999956511516e-01 -2.9796478848391927e-02 -5.5019224450791049e-01 +5.6303204558137846e-03
1.0000000000000002e+00 +8.5389724164975469e+00 +0.0000000000000000e+00 +9.9999999949277463e-01 -2.9796121655597793e-02 -5.5019162214328277e-01 +5.6278397877273026e-03
1.0500000000000003e+00 +8.5389695892657276e+00 +0.0000000000000000e+00 +1.0499999994128264e+00 -2.9795790553051954e-02 -5.5019138631873066e-01 +5.6253592999304146e-03
1.1000000000000003e+00 +8.5389666241275499e+00 +0.0000000000000000e+00 +1.0999999993248901e+00 -2.9795485543210216e-02 -5.5019153718045521e-01 +5.6228792530617962e-03
1.1500000000000004e+00 +8.5389635210829766e+00 +0.0000000000000000e+00 +1.1499999992285854e+00 -2.9795206628529688e-02 -5.5019207487467670e-01 +5.6203999077604847e-03
1.2000000000000004e+00 +8.5389602801318727e+00 +0.0000000000000000e+00 +1.1999999991235319e+00 -2.9794953811468683e-02 -5.5019299954763445e-01 +5.6179215246658695e-03
1.2500000000000004e+00 +8.5389569012740072e+00 +0.0000000000000000e+00 +1.2499999990093493e+00 -2.9794727094486783e-02 -5.5019431134558594e-01 +5.6154443644177441e-03
1.3000000000000005e+00 +8.5389533845090515e+00 +0.0000000000000000e+00 +1.2999999988856572e+00 -2.9794526480044787e-02 -5.5019601041480870e-01 +5.6129686876563089e-03
1.3500000000000005e+00 +8.5389497298365793e+00 +0.0000000000000000e+00 +1.3499999987520750e+00 -2.9794351970604687e-02 -5.5019809690159893e-01 +5.6104947550222103e-03
1.4000000000000006e+00 +8.5389459372560665e+00 +0.0000000000000000e+00 +1.3999999986082226e+00 -2.9794203568629645e-02 -5.5020057095227204e-01 +5.6080228271565436e-03
1.4500000000000006e+00 +8.5389420067668951e+00 +0.0000000000000000e+00 +1.4499999984537193e+00 -2.9794081276584037e-02 -5.5020343271316297e-01 +5.6055531647009023e-03
1.5000000000000007e+00 +8.5389379383683455e+00 +0.0000000000000000e+00 +1.4999999982881849e+00 -2.9793985096933345e-02 -5.5020668233062586e-01 +5.6030860282973742e-03
1.5500000000000007e+00 +8.5389337320596042e+00 +0.0000000000000000e+00 +1.5499999981112387e+00 -2.9793915032144232e-02 -5.5021031995103509e-01 +5.6006216785885890e-03
1.6000000000000008e+00 +8.5389293878397599e+00 +0.0000000000000000e+00 +1.5999999979225004e+00 -2.9793871084684429e-02 -5.5021434572078309e-01 +5.5981603762177180e-03
1.6500000000000008e+00 +8.5389249057078036e+00 +0.0000000000000000e+00 +1.6499999977215893e+00 -2.9793853257022843e-02 -5.5021875978628376e-01 +5.5957023818285169e-03
1.7000000000000008e+00 +8.5389202856626287e+00 +0.0000000000000000e+00 +1.6999999975081252e+00 -2.9793861551629403e-02 -5.5022356229396896e-01 +5.5932479560653415e-03
1.7500000000000009e+00 +8.5389155277030309e+00 +0.0000000000000000e+00 +1.7499999972817275e+00 -2.9793895970975162e-02 -5.5022875339029176e-01 +5.5907973595731592e-03
1.8000000000000009e+00 +8.5389106318277097e+00 +0.0000000000000000e+00 +1.7999999970420157e+00 -2.9793956517532187e-02 -5.5023433322172488e-01 +5.5883508529975959e-03
1.8500000000000010e+00 +8.5389055980352673e+00 +0.0000000000000000e+00 +1.8499999967886092e+00 -2.9794043193773618e-02 -5.5024030193476048e-01 +5.5859086969849373e-03
1.9000000000000010e+00 +8.5389004263242061e+00 +0.0000000000000000e+00 +1.8999999965211274e+00 -2.9794156002173621e-02 -5.5024665967591069e-01 +5.5834711521821623e-03
1.9500000000000011e+00 +8.5388951166929328e+00 +0.0000000000000000e+00 +1.9499999962391896e+00 -2.9794294945207335e-02 -5.5025340659170896e-01 +5.5810384792369635e-03
2.0000000000000009e+00 +8.5388896691397580e+00 +0.0000000000000000e+00 +1.9999999959424155e+00 -2.9794460025350945e-02 -5.5026054282870795e-01 +5.5786109387977786e-03
2.0500000000000007e+00 +8.5388840836628912e+00 +0.0000000000000000e+00 +2.0499999956304240e+00 -2.9794651248298300e-02 -5.5026806828699415e-01 +5.5761887824657096e-03
2.1000000000000005e+00 +8.5388783602604477e+00 +0.0000000000000000e+00 +2.0999999953028348e+00 -2.9794868632611216e-02 -5.5027598188072813e-01 +5.5737722256502652e-03
2.1500000000000004e+00 +8.5388724989304414e+00 +0.0000000000000000e+00 +2.1499999949592672e+00 -2.9795112200069068e-02 -5.5028428227760040e-01 +5.5713614747135223e-03
2.2000000000000002e+00 +8.5388664996707941e+00 +0.0000000000000000e+00 +2.1999999945993403e+00 -2.9795381972452045e-02 -5.5029296814531647e-01 +5.5689567360182064e-03
2.2500000000000000e+00 +8.5388603624793280e+00 +0.0000000000000000e+00 +2.2499999942226734e+00 -2.9795677971541173e-02 -5.5030203815159895e-01 +5.5665582159277168e-03
2.2999999999999998e+00 +8.5388540873537710e+00 +0.0000000000000000e+00 +2.2999999938288855e+00 -2.9796000219118223e-02 -5.5031149096418552e-01 +5.5641661208061461e-03
2.3499999999999996e+00 +8.5388476742917518e+00 +0.0000000000000000e+00 +2.3499999934175961e+00 -2.9796348736965711e-02 -5.5032132525083000e-01 +5.5617806570182702e-03
2.3999999999999995e+00 +8.5388411232908066e+00 +0.0000000000000000e+00 +2.3999999929884241e+00 -2.9796723546866910e-02 -5.5033153967930104e-01 +5.5594020309295850e-03
2.4499999999999993e+00 +8.5388344343483755e+00 +0.0000000000000000e+00 +2.4499999925409890e+00 -2.9797124670605780e-02 -5.5034213291738243e-01 +5.5570304489063090e-03
2.4999999999999991e+00 +8.5388276074618030e+00 +0.0000000000000000e+00 +2.4999999920749092e+00 -2.9797552129966969e-02 -5.5035310363287371e-01 +5.5546661173153915e-03
2.5499999999999989e+00 +8.5388206426283393e+00 +0.0000000000000000e+00 +2.5499999915898042e+00 -2.9798005946735782e-02 -5.5036445049358851e-01 +5.5523092425245387e-03
2.5999999999999988e+00 +8.5388135398451404e+00 +0.0000000000000000e+00 +2.5999999910852929e+00 -2.9798486142698206e-02 -5.5037617216735524e-01 +5.5499600309022240e-03
2.6499999999999986e+00 +8.5388062991092681e+00 +0.0000000000000000e+00 +2.6499999905609943e+00 -2.9798992739640782e-02 -5.5038826732201818e-01 +5.5476186888176902e-03
2.6999999999999984e+00 +8.5387989204176922e+00 +0.0000000000000000e+00 +2.6999999900165275e+00 -2.9799525759350687e-02 -5.5040073462543371e-01 +5.5452854226409791e-03
2.7499999999999982e+00 +8.5387914037672861e+00 +0.0000000000000000e+00 +2.7499999894515113e+00 -2.9800085223615672e-02 -5.5041357274547431e-01 +5.5429604387429313e-03
2.7999999999999980e+00 +8.5387837491548328e+00 +0.0000000000000000e+00 +2.7999999888655647e+00 -2.9800671154224020e-02 -5.5042678035002590e-01 +5.5406439434952095e-03
2.8499999999999979e+00 +8.5387759565770214e+00 +0.0000000000000000e+00 +2.8499999882583062e+00 -2.9801283572964566e-02 -5.5044035610698783e-01 +5.5383361432703058e-03
2.8999999999999977e+00 +8.5387680260304499e+00 +0.0000000000000000e+00 +2.8999999876293545e+00 -2.9801922501626624e-02 -5.5045429868427365e-01 +5.5360372444415579e-03
2.9499999999999975e+00 +8.5387599575116226e+00 +0.0000000000000000e+00 +2.9499999869783289e+00 -2.9802587962000030e-02 -5.5046860674981013e-01 +5.5337474533831655e-03
2.9999999999999973e+00 +8.5387517510169548e+00 +0.0000000000000000e+00 +2.9999999863048474e+00 -2.9803279975875053e-02 -5.5048327897153759e-01 +5.5314669764701891e-03
3.0499999999999972e+00 +8.5387434065427676e+00 +0.0000000000000000e+00 +3.0499999856085291e+00 -2.9803998565042386e-02 -5.5049831401740923e-01 +5.5291960200785882e-03
3.0999999999999970e+00 +8.5387349240852934e+00 +0.0000000000000000e+00 +3.0999999848889925e+00 -2.9804743751293199e-02 -5.5051371055539222e-01 +5.5269347905852143e-03
3.1499999999999968e+00 +8.5387263036406722e+00 +0.0000000000000000e+00 +3.1499999841458561e+00 -2.9805515556419013e-02 -5.5052946725346519e-01 +5.5246834943678278e-03
3.1999999999999966e+00 +8.5387175452049551e+00 +0.0000000000000000e+00 +3.1999999833787385e+00 -2.9806314002211721e-02 -5.5054558277962040e-01 +5.5224423378051231e-03
3.2499999999999964e+00 +8.5387086487741026e+00 +0.0000000000000000e+00 +3.2499999825872576e+00 -2.9807139110463583e-02 -5.5056205580186235e-01 +5.5202115272767307e-03
3.2999999999999963e+00 +8.5386996143439866e+00 +0.0000000000000000e+00 +3.2999999817710326e+00 -2.9807990902967183e-02 -5.5057888498820773e-01 +5.5179912691632272e-03
3.3499999999999961e+00 +8.5386904419103882e+00 +0.0000000000000000e+00 +3.3499999809296814e+00 -2.9808869401515403e-02 -5.5059606900668578e-01 +5.5157817698461651e-03
3.3999999999999959e+00 +8.5386811314689997e+00 +0.0000000000000000e+00 +3.3999999800628222e+00 -2.9809774627901436e-02 -5.5061360652533720e-01 +5.5135832357080727e-03
3.4499999999999957e+00 +8.5386716830154263e+00 +0.0000000000000000e+00 +3.4499999791700735e+00 -2.9810706603918692e-02 -5.5063149621221519e-01 +5.5113958731324644e-03
3.4999999999999956e+00 +8.5386620965451847e+00 +0.0000000000000000e+00 +3.4999999782510534e+00 -2.9811665351360869e-02 -5.5064973673538375e-01 +5.5092198885038756e-03
3.5499999999999954e+00 +8.5386523720537024e+00 +0.0000000000000000e+00 +3.5499999773053803e+00 -2.9812650892021831e-02 -5.5066832676291932e-01 +5.5070554882078468e-03
3.5999999999999952e+00 +8.5386425095363183e+00 +0.0000000000000000e+00 +3.5999999763326720e+00 -2.9813663247695681e-02 -5.5068726496290921e-01 +5.5049028786309604e-03
3.6499999999999950e+00 +8.5386325089882877e+00 +0.0000000000000000e+00 +3.6499999753325465e+00 -2.9814702440176682e-02 -5.5070655000345170e-01 +5.5027622661608473e-03
3.6999999999999948e+00 +8.5386223704047755e+00 +0.0000000000000000e+00 +3.6999999743046219e+00 -2.9815768491259234e-02 -5.5072618055265588e-01 +5.5006338571861896e-03
3.7499999999999947e+00 +8.5386120937808627e+00 +0.0000000000000000e+00 +3.7499999732485159e+00 -2.9816861422737866e-02 -5.5074615527864279e-01 +5.4985178580967530e-03
3.7999999999999945e+00 +8.5386016791115420e+00 +0.0000000000000000e+00 +3.7999999721638464e+00 -2.9817981256407240e-02 -5.5076647284954294e-01 +5.4964144752833862e-03
3.8499999999999943e+00 +8.5385911263917205e+00 +0.0000000000000000e+00 +3.8499999710502317e+00 -2.9819128014062064e-02 -5.5078713193349782e-01 +5.4943239151380389e-03
3.8999999999999941e+00 +8.5385804356162218e+00 +0.0000000000000000e+00 +3.8999999699072889e+00 -2.9820301717497121e-02 -5.5080813119865868e-01 +5.4922463840537724e-03
3.9499999999999940e+00 +8.5385696067797809e+00 +0.0000000000000000e+00 +3.9499999687346361e+00 -2.9821502388507257e-02 -5.5082946931318799e-01 +5.4901820884247828e-03
3.9999999999999938e+00 +8.5385586398770492e+00 +0.0000000000000000e+00 +3.9999999675318905e+00 -2.9822730048887303e-02 -5.5085114494525766e-01 +5.4881312346464015e-03
4.0499999999999936e+00 +8.5385475349025945e+00 +0.0000000000000000e+00 +4.0499999662986701e+00 -2.9823984668744936e-02 -5.5087315651906577e-01 +5.4860940120832280e-03
4.0999999999999934e+00 +8.5385362918508996e+00 +0.0000000000000000e+00 +4.0999999650345922e+00 -2.9825266011439207e-02 -5.5089550148288791e-01 +5.4840705419733965e-03
4.1499999999999932e+00 +8.5385249107163634e+00 +0.0000000000000000e+00 +4.1499999637392744e+00 -2.9826573788642643e-02 -5.5091817704102009e-01 +5.4820609285243576e-03
4.1999999999999931e+00 +8.5385133914933036e+00 +0.0000000000000000e+00 +4.1999999624123339e+00 -2.9827907712028614e-02 -5.5094118039776274e-01 +5.4800652759448504e-03
4.2499999999999929e+00 +8.5385017341759539e+00 +0.0000000000000000e+00 +4.2499999610533878e+00 -2.9829267493271500e-02 -5.5096450875742131e-01 +5.4780836884449442e-03
4.2999999999999927e+00 +8.5384899387584667e+00 +0.0000000000000000e+00 +4.2999999596620535e+00 -2.9830652844046523e-02 -5.5098815932430434e-01 +5.4761162702360302e-03
4.3499999999999925e+00 +8.5384780052349143e+00 +0.0000000000000000e+00 +4.3499999582379481e+00 -2.9832063476029871e-02 -5.5101212930272403e-01 +5.4741631255308424e-03
4.3999999999999924e+00 +8.5384659335992890e+00 +0.0000000000000000e+00 +4.3999999567806887e+00 -2.9833499100898643e-02 -5.5103641589699559e-01 +5.4722243585434895e-03
4.4499999999999922e+00 +8.5384537238455032e+00 +0.0000000000000000e+00 +4.4499999552898917e+00 -2.9834959430330894e-02 -5.5106101631143778e-01 +5.4703000734894524e-03
4.4999999999999920e+00 +8.5384413759673912e+00 +0.0000000000000000e+00 +4.4999999537651751e+00 -2.9836444176005623e-02 -5.5108592775037157e-01 +5.4683903745856126e-03
4.5499999999999918e+00 +8.5384288899587091e+00 +0.0000000000000000e+00 +4.5499999522061554e+00 -2.9837953049602753e-02 -5.5111114741811962e-01 +5.4664953660502596e-03
4.5999999999999917e+00 +8.5384162658131348e+00 +0.0000000000000000e+00 +4.5999999506124487e+00 -2.9839485762803198e-02 -5.5113667251900844e-01 +5.4646151521031200e-03
4.6499999999999915e+00 +8.5384035035242718e+00 +0.0000000000000000e+00 +4.6499999489836723e+00 -2.9841042027288822e-02 -5.5116250025736346e-01 +5.4627498369653619e-03
4.6999999999999913e+00 +8.5383906030856451e+00 +0.0000000000000000e+00 +4.6999999473194434e+00 -2.9842621554742453e-02 -5.5118862783751355e-01 +5.4608995248596141e-03
4.7499999999999911e+00 +8.5383775644907072e+00 +0.0000000000000000e+00 +4.7499999456193782e+00 -2.9844224056847907e-02 -5.5121505246378744e-01 +5.4590643200099912e-03
4.7999999999999909e+00 +8.5383643877328339e+00 +0.0000000000000000e+00 +4.7999999438830931e+00 -2.9845849245289983e-02 -5.5124177134051566e-01 +5.4572443266420970e-03
4.8499999999999908e+00 +8.5383510728053285e+00 +0.0000000000000000e+00 +4.8499999421102045e+00 -2.9847496831754469e-02 -5.5126878167202831e-01 +5.4554396489830525e-03
4.8999999999999906e+00 +8.5383376197014211e+00 +0.0000000000000000e+00 +4.8999999403003285e+00 -2.9849166527928146e-02 -5.5129608066265545e-01 +5.4536503912615093e-03
4.9499999999999904e+00 +8.5383240284142712e+00 +0.0000000000000000e+00 +4.9499999384530815e+00 -2.9850858045498783e-02 -5.5132366551672729e-01 +5.4518766577076510e-03
4.9999999999999902e+00 +8.5383102989369615e+00 +0.0000000000000000e+00 +4.9999999365680798e+00 -2.9852571096155189e-02 -5.5135153343857335e-01 +5.4501185525532396e-03
5.0499999999999901e+00 +8.5382964312625091e+00 +0.0000000000000000e+00 +5.0499999346449398e+00 -2.9854305391587180e-02 -5.5137968163252260e-01 +5.4483761800316090e-03
5.0999999999999899e+00 +8.5382824253838585e+00 +0.0000000000000000e+00 +5.0999999326832777e+00 -2.9856060643485557e-02 -5.5140810730290224e-01 +5.4466496443776819e-03
5.1499999999999897e+00 +8.5382682812938846e+00 +0.0000000000000000e+00 +5.1499999306827089e+00 -2.9857836563542219e-02 -5.5143680765403857e-01 +5.4449390498280091e-03
5.1999999999999895e+00 +8.5382539989853932e+00 +0.0000000000000000e+00 +5.1999999286428498e+00 -2.9859632863450041e-02 -5.5146577989025580e-01 +5.4432445006207496e-03
5.2499999999999893e+00 +8.5382395784511242e+00 +0.0000000000000000e+00 +5.2499999265633157e+00 -2.9861449254902955e-02 -5.5149502121587568e-01 +5.4415661009957223e-03
5.2999999999999892e+00 +8.5382250196837468e+00 +0.0000000000000000e+00 +5.2999999244437230e+00 -2.9863285449595958e-02 -5.5152452883521808e-01 +5.4399039551943987e-03
5.3499999999999890e+00 +8.5382103226758659e+00 +0.0000000000000000e+00 +5.3499999222836863e+00 -2.9865141159225082e-02 -5.5155429995260008e-01 +5.4382581674599353e-03
5.3999999999999888e+00 +8.5381954874200190e+00 +0.0000000000000000e+00 +5.3999999200828217e+00 -2.9867016095487427e-02 -5.5158433177233535e-01 +5.4366288420371707e-03
5.4499999999999886e+00 +8.5381805139086797e+00 +0.0000000000000000e+00 +5.4499999178407457e+00 -2.9868909970081153e-02 -5.5161462149873408e-01 +5.4350160831726701e-03
5.4999999999999885e+00 +8.5381654021342541e+00 +0.0000000000000000e+00 +5.4999999155570727e+00 -2.9870822494705518e-02 -5.5164516633610361e-01 +5.4334199951147156e-03
5.5499999999999883e+00 +8.5381501520890879e+00 +0.0000000000000000e+00 +5.5499999132314182e+00 -2.9872753381060834e-02 -5.5167596348874615e-01 +5.4318406821133374e-03
5.5999999999999881e+00 +8.5381347637654610e+00 +0.0000000000000000e+00 +5.5999999108633975e+00 -2.9874702340848502e-02 -5.5170701016096046e-01 +5.4302782484203279e-03
5.6499999999999879e+00 +8.5381192371555930e+00 +0.0000000000000000e+00 +5.6499999084526253e+00 -2.9876669085771024e-02 -5.5173830355704034e-01 +5.4287327982892510e-03
5.6999999999999877e+00 +8.5381035722516394e+00 +0.0000000000000000e+00 +5.6999999059987170e+00 -2.9878653327532031e-02 -5.5176984088127456e-01 +5.4272044359754716e-03
5.7499999999999876e+00 +8.5380877690456956e+00 +0.0000000000000000e+00 +5.7499999035012879e+00 -2.9880654777836191e-02 -5.5180161933794658e-01 +5.4256932657361584e-03
5.7999999999999874e+00 +8.5380718275297962e+00 +0.0000000000000000e+00 +5.7999999009599525e+00 -2.9882673148389341e-02 -5.5183363613133474e-01 +5.4241993918303141e-03
5.8499999999999872e+00 +8.5380557476959158e+00 +0.0000000000000000e+00 +5.8499998983743255e+00 -2.9884708150898411e-02 -5.5186588846571105e-01 +5.4227229185187771e-03
5.8999999999999870e+00 +8.5380395295359719e+00 +0.0000000000000000e+00 +5.8999998957440223e+00 -2.9886759497071480e-02 -5.5189837354534121e-01 +5.4212639500642555e-03
