# trajectory
# s[mm] rx[mm] ry[mm] rz[mm] px[rad] py[rad] pz[rad]
0.0000000000000000e+00 +8.5389999999999997e+00 +0.0000000000000000e+00 +0.0000000000000000e+00 +0.0000000000000000e+00 +0.0000000000000000e+00 +1.0000000000000000e+00
5.0000000000000003e-02 +8.5389999310363915e+00 +0.0000000000000000e+00 +4.9999999999936581e-02 -2.7585377159143958e-06 +0.0000000000000000e+00 +9.9999999999619527e-01
1.0000000000000001e-01 +8.5389997241468762e+00 +0.0000000000000000e+00 +9.9999999999492689e-02 -5.5170365958415134e-06 +0.0000000000000000e+00 +9.9999999998478117e-01
1.5000000000000002e-01 +8.5389993793333474e+00 +0.0000000000000000e+00 +1.4999999999828789e-01 -8.2754985639557629e-06 +0.0000000000000000e+00 +9.9999999996575806e-01
2.0000000000000001e-01 +8.5389988965976027e+00 +0.0000000000000000e+00 +1.9999999999594170e-01 -1.1033925545162800e-05 +0.0000000000000000e+00 +9.9999999993912625e-01
2.5000000000000000e-01 +8.5389982759413439e+00 +0.0000000000000000e+00 +2.4999999999207370e-01 -1.3792319465099607e-05 +0.0000000000000000e+00 +9.9999999990488597e-01
2.9999999999999999e-01 +8.5389975173661750e+00 +0.0000000000000000e+00 +2.9999999998630350e-01 -1.6550682250134577e-05 +0.0000000000000000e+00 +9.9999999986303745e-01
3.4999999999999998e-01 +8.5389966208736059e+00 +0.0000000000000000e+00 +3.4999999997825065e-01 -1.9309015827367616e-05 +0.0000000000000000e+00 +9.9999999981358090e-01
3.9999999999999997e-01 +8.5389955864650471e+00 +0.0000000000000000e+00 +3.9999999996753477e-01 -2.2067322124630210e-05 +0.0000000000000000e+00 +9.9999999975651654e-01
4.4999999999999996e-01 +8.5389944141418148e+00 +0.0000000000000000e+00 +4.4999999995377549e-01 -2.4825603070485525e-05 +0.0000000000000000e+00 +9.9999999969184461e-01
4.9999999999999994e-01 +8.5389931039051294e+00 +0.0000000000000000e+00 +4.9999999993659244e-01 -2.7583860594228499e-05 +0.0000000000000000e+00 +9.9999999961956521e-01
5.4999999999999993e-01 +8.5389916557561136e+00 +0.0000000000000000e+00 +5.4999999991560522e-01 -3.0342096625885931e-05 +0.0000000000000000e+00 +9.9999999953967844e-01
5.9999999999999998e-01 +8.5389900696957923e+00 +0.0000000000000000e+00 +5.9999999989043351e-01 -3.3100313096216554e-05 +0.0000000000000000e+00 +9.9999999945218454e-01
6.5000000000000002e-01 +8.5389883457250964e+00 +0.0000000000000000e+00 +6.4999999986069690e-01 -3.5858511936711143e-05 +0.0000000000000000e+00 +9.9999999935708350e-01
7.0000000000000007e-01 +8.5389864838448588e+00 +0.0000000000000000e+00 +6.9999999982601502e-01 -3.8616695079592602e-05 +0.0000000000000000e+00 +9.9999999925437533e-01
7.5000000000000011e-01 +8.5389844840558169e+00 +0.0000000000000000e+00 +7.4999999978600762e-01 -4.1374864457816040e-05 +0.0000000000000000e+00 +9.9999999914406024e-01
8.0000000000000016e-01 +8.5389823463586101e+00 +0.0000000000000000e+00 +7.9999999974029423e-01 -4.4133022005068895e-05 +0.0000000000000000e+00 +9.9999999902613812e-01
8.5000000000000020e-01 +8.5389800707537820e+00 +0.0000000000000000e+00 +8.4999999968849460e-01 -4.6891169655770988e-05 +0.0000000000000000e+00 +9.9999999890060909e-01
9.0000000000000024e-01 +8.5389776572417784e+00 +0.0000000000000000e+00 +8.9999999963022836e-01 -4.9649309345074633e-05 +0.0000000000000000e+00 +9.9999999876747303e-01
9.5000000000000029e-01 +8.5389751058229493e+00 +0.0000000000000000e+00 +9.4999999956511516e-01 -5.2407443008864735e-05 +0.0000000000000000e+00 +9.9999999862672995e-01
1.0000000000000002e+00 +8.5389724164975469e+00 +0.0000000000000000e+00 +9.9999999949277463e-01 -5.5165572583758874e-05 +0.0000000000000000e+00 +9.9999999847837984e-01
1.0500000000000003e+00 +8.5389695892657276e+00 +0.0000000000000000e+00 +1.0499999994128264e+00 -5.7923700007107395e-05 +0.0000000000000000e+00 +9.9999999832242248e-01
1.1000000000000003e+00 +8.5389666241275499e+00 +0.0000000000000000e+00 +1.0999999993248901e+00 -6.0681827216993510e-05 +0.0000000000000000e+00 +9.9999999815885787e-01
1.1500000000000004e+00 +8.5389635210829766e+00 +0.0000000000000000e+00 +1.1499999992285854e+00 -6.3439956152233385e-05 +0.0000000000000000e+00 +9.9999999798768591e-01
1.2000000000000004e+00 +8.5389602801318727e+00 +0.0000000000000000e+00 +1.1999999991235319e+00 -6.6198088752376249e-05 +0.0000000000000000e+00 +9.9999999780890647e-01
1.2500000000000004e+00 +8.5389569012740072e+00 +0.0000000000000000e+00 +1.2499999990093493e+00 -6.8956226957704470e-05 +0.0000000000000000e+00 +9.9999999762251934e-01
1.3000000000000005e+00 +8.5389533845090515e+00 +0.0000000000000000e+00 +1.2999999988856572e+00 -7.1714372709233659e-05 +0.0000000000000000e+00 +9.9999999742852430e-01
1.3500000000000005e+00 +8.5389497298365793e+00 +0.0000000000000000e+00 +1.3499999987520750e+00 -7.4472527948712757e-05 +0.0000000000000000e+00 +9.9999999722692123e-01
1.4000000000000006e+00 +8.5389459372560665e+00 +0.0000000000000000e+00 +1.3999999986082226e+00 -7.7230694618624166e-05 +0.0000000000000000e+00 +9.9999999701770981e-01
1.4500000000000006e+00 +8.5389420067668951e+00 +0.0000000000000000e+00 +1.4499999984537193e+00 -7.9988874662183793e-05 +0.0000000000000000e+00 +9.9999999680088991e-01
1.5000000000000007e+00 +8.5389379383683455e+00 +0.0000000000000000e+00 +1.4999999982881849e+00 -8.2747070023341169e-05 +0.0000000000000000e+00 +9.9999999657646110e-01
1.5500000000000007e+00 +8.5389337320596042e+00 +0.0000000000000000e+00 +1.5499999981112387e+00 -8.5505282646779573e-05 +0.0000000000000000e+00 +9.9999999634442327e-01
1.6000000000000008e+00 +8.5389293878397599e+00 +0.0000000000000000e+00 +1.5999999979225004e+00 -8.8263514477916085e-05 +0.0000000000000000e+00 +9.9999999610477597e-01
1.6500000000000008e+00 +8.5389249057078036e+00 +0.0000000000000000e+00 +1.6499999977215893e+00 -9.1021767462901723e-05 +0.0000000000000000e+00 +9.9999999585751886e-01
1.7000000000000008e+00 +8.5389202856626287e+00 +0.0000000000000000e+00 +1.6999999975081252e+00 -9.3780043548621523e-05 +0.0000000000000000e+00 +9.9999999560265163e-01
1.7500000000000009e+00 +8.5389155277030309e+00 +0.0000000000000000e+00 +1.7499999972817275e+00 -9.6538344682694621e-05 +0.0000000000000000e+00 +9.9999999534017392e-01
1.8000000000000009e+00 +8.5389106318277097e+00 +0.0000000000000000e+00 +1.7999999970420157e+00 -9.9296672813474401e-05 +0.0000000000000000e+00 +9.9999999507008530e-01
1.8500000000000010e+00 +8.5389055980352673e+00 +0.0000000000000000e+00 +1.8499999967886092e+00 -1.0205502989004854e-04 +0.0000000000000000e+00 +9.9999999479238533e-01
1.9000000000000010e+00 +8.5389004263242061e+00 +0.0000000000000000e+00 +1.8999999965211274e+00 -1.0481341786223913e-04 +0.0000000000000000e+00 +9.9999999450707355e-01
1.9500000000000011e+00 +8.5388951166929328e+00 +0.0000000000000000e+00 +1.9499999962391896e+00 -1.0757183868060281e-04 +0.0000000000000000e+00 +9.9999999421414965e-01
2.0000000000000009e+00 +8.5388896691397580e+00 +0.0000000000000000e+00 +1.9999999959424155e+00 -1.1033029429643082e-04 +0.0000000000000000e+00 +9.9999999391361294e-01
2.0500000000000007e+00 +8.5388840836628912e+00 +0.0000000000000000e+00 +2.0499999956304240e+00 -1.1308878666144021e-04 +0.0000000000000000e+00 +9.9999999360546299e-01
2.1000000000000005e+00 +8.5388783602604477e+00 +0.0000000000000000e+00 +2.0999999953028348e+00 -1.1584731772437592e-04 +0.0000000000000000e+00 +9.9999999328969935e-01
2.1500000000000004e+00 +8.5388724989304414e+00 +0.0000000000000000e+00 +2.1499999949592672e+00 -1.1860588942761285e-04 +0.0000000000000000e+00 +9.9999999296632136e-01
2.2000000000000002e+00 +8.5388664996707941e+00 +0.0000000000000000e+00 +2.1999999945993403e+00 -1.2136450370684702e-04 +0.0000000000000000e+00 +9.9999999263532846e-01
2.2500000000000000e+00 +8.5388603624793280e+00 +0.0000000000000000e+00 +2.2499999942226734e+00 -1.2412316249109566e-04 +0.0000000000000000e+00 +9.9999999229672010e-01
2.2999999999999998e+00 +8.5388540873537710e+00 +0.0000000000000000e+00 +2.2999999938288855e+00 -1.2688186770269726e-04 +0.0000000000000000e+00 +9.9999999195049560e-01
2.3499999999999996e+00 +8.5388476742917518e+00 +0.0000000000000000e+00 +2.3499999934175961e+00 -1.2964062125731172e-04 +0.0000000000000000e+00 +9.9999999159665443e-01
2.3999999999999995e+00 +8.5388411232908066e+00 +0.0000000000000000e+00 +2.3999999929884241e+00 -1.3239942506392032e-04 +0.0000000000000000e+00 +9.9999999123519590e-01
2.4499999999999993e+00 +8.5388344343483755e+00 +0.0000000000000000e+00 +2.4499999925409890e+00 -1.3515828102482591e-04 +0.0000000000000000e+00 +9.9999999086611935e-01
2.4999999999999991e+00 +8.5388276074618030e+00 +0.0000000000000000e+00 +2.4999999920749092e+00 -1.3791719103565289e-04 +0.0000000000000000e+00 +9.9999999048942401e-01
2.5499999999999989e+00 +8.5388206426283393e+00 +0.0000000000000000e+00 +2.5499999915898042e+00 -1.4067615698534736e-04 +0.0000000000000000e+00 +9.9999999010510920e-01
2.5999999999999988e+00 +8.5388135398451404e+00 +0.0000000000000000e+00 +2.5999999910852929e+00 -1.4343518075617714e-04 +0.0000000000000000e+00 +9.9999998971317428e-01
2.6499999999999986e+00 +8.5388062991092681e+00 +0.0000000000000000e+00 +2.6499999905609943e+00 -1.4619426422373186e-04 +0.0000000000000000e+00 +9.9999998931361833e-01
2.6999999999999984e+00 +8.5387989204176922e+00 +0.0000000000000000e+00 +2.6999999900165275e+00 -1.4895340925692304e-04 +0.0000000000000000e+00 +9.9999998890644071e-01
2.7499999999999982e+00 +8.5387914037672861e+00 +0.0000000000000000e+00 +2.7499999894515113e+00 -1.5171261771798416e-04 +0.0000000000000000e+00 +9.9999998849164062e-01
2.7999999999999980e+00 +8.5387837491548328e+00 +0.0000000000000000e+00 +2.7999999888655647e+00 -1.5447189146247076e-04 +0.0000000000000000e+00 +9.9999998806921719e-01
2.8499999999999979e+00 +8.5387759565770214e+00 +0.0000000000000000e+00 +2.8499999882583062e+00 -1.5723123233926041e-04 +0.0000000000000000e+00 +9.9999998763916964e-01
2.8999999999999977e+00 +8.5387680260304499e+00 +0.0000000000000000e+00 +2.8999999876293545e+00 -1.5999064219055290e-04 +0.0000000000000000e+00 +9.9999998720149708e-01
2.9499999999999975e+00 +8.5387599575116226e+00 +0.0000000000000000e+00 +2.9499999869783289e+00 -1.6275012285187025e-04 +0.0000000000000000e+00 +9.9999998675619861e-01
2.9999999999999973e+00 +8.5387517510169548e+00 +0.0000000000000000e+00 +2.9999999863048474e+00 -1.6550967615205675e-04 +0.0000000000000000e+00 +9.9999998630327336e-01
3.0499999999999972e+00 +8.5387434065427676e+00 +0.0000000000000000e+00 +3.0499999856085291e+00 -1.6826930391327909e-04 +0.0000000000000000e+00 +9.9999998584272043e-01
3.0999999999999970e+00 +8.5387349240852934e+00 +0.0000000000000000e+00 +3.0999999848889925e+00 -1.7102900795102640e-04 +0.0000000000000000e+00 +9.9999998537453894e-01
3.1499999999999968e+00 +8.5387263036406722e+00 +0.0000000000000000e+00 +3.1499999841458561e+00 -1.7378879007411027e-04 +0.0000000000000000e+00 +9.9999998489872788e-01
3.1999999999999966e+00 +8.5387175452049551e+00 +0.0000000000000000e+00 +3.1999999833787385e+00 -1.7654865208466489e-04 +0.0000000000000000e+00 +9.9999998441528637e-01
3.2499999999999964e+00 +8.5387086487741026e+00 +0.0000000000000000e+00 +3.2499999825872576e+00 -1.7930859577814704e-04 +0.0000000000000000e+00 +9.9999998392421341e-01
3.2999999999999963e+00 +8.5386996143439866e+00 +0.0000000000000000e+00 +3.2999999817710326e+00 -1.8206862294333623e-04 +0.0000000000000000e+00 +9.9999998342550789e-01
3.3499999999999961e+00 +8.5386904419103882e+00 +0.0000000000000000e+00 +3.3499999809296814e+00 -1.8482873536233469e-04 +0.0000000000000000e+00 +9.9999998291916892e-01
3.3999999999999959e+00 +8.5386811314689997e+00 +0.0000000000000000e+00 +3.3999999800628222e+00 -1.8758893481056748e-04 +0.0000000000000000e+00 +9.9999998240519539e-01
3.4499999999999957e+00 +8.5386716830154263e+00 +0.0000000000000000e+00 +3.4499999791700735e+00 -1.9034922305678249e-04 +0.0000000000000000e+00 +9.9999998188358630e-01
3.4999999999999956e+00 +8.5386620965451847e+00 +0.0000000000000000e+00 +3.4999999782510534e+00 -1.9310960186305059e-04 +0.0000000000000000e+00 +9.9999998135434043e-01
3.5499999999999954e+00 +8.5386523720537024e+00 +0.0000000000000000e+00 +3.5499999773053803e+00 -1.9587007298476559e-04 +0.0000000000000000e+00 +9.9999998081745689e-01
3.5999999999999952e+00 +8.5386425095363183e+00 +0.0000000000000000e+00 +3.5999999763326720e+00 -1.9863063817064438e-04 +0.0000000000000000e+00 +9.9999998027293446e-01
3.6499999999999950e+00 +8.5386325089882877e+00 +0.0000000000000000e+00 +3.6499999753325465e+00 -2.0139129916272694e-04 +0.0000000000000000e+00 +9.9999997972077193e-01
3.6999999999999948e+00 +8.5386223704047755e+00 +0.0000000000000000e+00 +3.6999999743046219e+00 -2.0415205769637638e-04 +0.0000000000000000e+00 +9.9999997916096828e-01
3.7499999999999947e+00 +8.5386120937808627e+00 +0.0000000000000000e+00 +3.7499999732485159e+00 -2.0691291550027906e-04 +0.0000000000000000e+00 +9.9999997859352230e-01
3.7999999999999945e+00 +8.5386016791115420e+00 +0.0000000000000000e+00 +3.7999999721638464e+00 -2.0967387429644455e-04 +0.0000000000000000e+00 +9.9999997801843277e-01
3.8499999999999943e+00 +8.5385911263917205e+00 +0.0000000000000000e+00 +3.8499999710502317e+00 -2.1243493580020578e-04 +0.0000000000000000e+00 +9.9999997743569857e-01
3.8999999999999941e+00 +8.5385804356162218e+00 +0.0000000000000000e+00 +3.8999999699072889e+00 -2.1519610172021904e-04 +0.0000000000000000e+00 +9.9999997684531838e-01
3.9499999999999940e+00 +8.5385696067797809e+00 +0.0000000000000000e+00 +3.9499999687346361e+00 -2.1795737375846403e-04 +0.0000000000000000e+00 +9.9999997624729109e-01
3.9999999999999938e+00 +8.5385586398770492e+00 +0.0000000000000000e+00 +3.9999999675318905e+00 -2.2071875361024391e-04 +0.0000000000000000e+00 +9.9999997564161536e-01
4.0499999999999936e+00 +8.5385475349025945e+00 +0.0000000000000000e+00 +4.0499999662986701e+00 -2.2348024296387959e-04 +0.0000000000000000e+00 +9.9999997502828997e-01
4.0999999999999934e+00 +8.5385362918508996e+00 +0.0000000000000000e+00 +4.0999999650345922e+00 -2.2624184349734629e-04 +0.0000000000000000e+00 +9.9999997440731359e-01
4.1499999999999932e+00 +8.5385249107163634e+00 +0.0000000000000000e+00 +4.1499999637392744e+00 -2.2900355687490998e-04 +0.0000000000000000e+00 +9.9999997377868488e-01
4.1999999999999931e+00 +8.5385133914933036e+00 +0.0000000000000000e+00 +4.1999999624123339e+00 -2.3176538474682176e-04 +0.0000000000000000e+00 +9.9999997314240263e-01
4.2499999999999929e+00 +8.5385017341759539e+00 +0.0000000000000000e+00 +4.2499999610533878e+00 -2.3452732874931773e-04 +0.0000000000000000e+00 +9.9999997249846539e-01
4.2999999999999927e+00 +8.5384899387584667e+00 +0.0000000000000000e+00 +4.2999999596620535e+00 -2.3728939050461908e-04 +0.0000000000000000e+00 +9.9999997184687195e-01
4.3499999999999925e+00 +8.5384780052349143e+00 +0.0000000000000000e+00 +4.3499999582379481e+00 -2.4005157162093217e-04 +0.0000000000000000e+00 +9.9999997118762085e-01
4.3999999999999924e+00 +8.5384659335992890e+00 +0.0000000000000000e+00 +4.3999999567806887e+00 -2.4281387369244842e-04 +0.0000000000000000e+00 +9.9999997052071077e-01
4.4499999999999922e+00 +8.5384537238455032e+00 +0.0000000000000000e+00 +4.4499999552898917e+00 -2.4557629829934444e-04 +0.0000000000000000e+00 +9.9999996984614026e-01
4.4999999999999920e+00 +8.5384413759673912e+00 +0.0000000000000000e+00 +4.4999999537651751e+00 -2.4833884700778197e-04 +0.0000000000000000e+00 +9.9999996916390788e-01
4.5499999999999918e+00 +8.5384288899587091e+00 +0.0000000000000000e+00 +4.5499999522061554e+00 -2.5110152136990796e-04 +0.0000000000000000e+00 +9.9999996847401229e-01
4.5999999999999917e+00 +8.5384162658131348e+00 +0.0000000000000000e+00 +4.5999999506124487e+00 -2.5386432292385451e-04 +0.0000000000000000e+00 +9.9999996777645206e-01
4.6499999999999915e+00 +8.5384035035242718e+00 +0.0000000000000000e+00 +4.6499999489836723e+00 -2.5662725319373886e-04 +0.0000000000000000e+00 +9.9999996707122574e-01
4.6999999999999913e+00 +8.5383906030856451e+00 +0.0000000000000000e+00 +4.6999999473194434e+00 -2.5939031368966351e-04 +0.0000000000000000e+00 +9.9999996635833188e-01
4.7499999999999911e+00 +8.5383775644907072e+00 +0.0000000000000000e+00 +4.7499999456193782e+00 -2.6215350590771611e-04 +0.0000000000000000e+00 +9.9999996563776894e-01
4.7999999999999909e+00 +8.5383643877328339e+00 +0.0000000000000000e+00 +4.7999999438830931e+00 -2.6491683132996957e-04 +0.0000000000000000e+00 +9.9999996490953547e-01
4.8499999999999908e+00 +8.5383510728053285e+00 +0.0000000000000000e+00 +4.8499999421102045e+00 -2.6768029142448200e-04 +0.0000000000000000e+00 +9.9999996417363002e-01
4.8999999999999906e+00 +8.5383376197014211e+00 +0.0000000000000000e+00 +4.8999999403003285e+00 -2.7044388764529666e-04 +0.0000000000000000e+00 +9.9999996343005104e-01
4.9499999999999904e+00 +8.5383240284142712e+00 +0.0000000000000000e+00 +4.9499999384530815e+00 -2.7320762143244210e-04 +0.0000000000000000e+00 +9.9999996267879698e-01
4.9999999999999902e+00 +8.5383102989369615e+00 +0.0000000000000000e+00 +4.9999999365680798e+00 -2.7597149421193203e-04 +0.0000000000000000e+00 +9.9999996191986640e-01
5.0499999999999901e+00 +8.5382964312625091e+00 +0.0000000000000000e+00 +5.0499999346449398e+00 -2.7873550739576533e-04 +0.0000000000000000e+00 +9.9999996115325762e-01
5.0999999999999899e+00 +8.5382824253838585e+00 +0.0000000000000000e+00 +5.0999999326832777e+00 -2.8149966238192616e-04 +0.0000000000000000e+00 +9.9999996037896921e-01
5.1499999999999897e+00 +8.5382682812938846e+00 +0.0000000000000000e+00 +5.1499999306827089e+00 -2.8426396055438379e-04 +0.0000000000000000e+00 +9.9999995959699950e-01
5.1999999999999895e+00 +8.5382539989853932e+00 +0.0000000000000000e+00 +5.1999999286428498e+00 -2.8702840328309273e-04 +0.0000000000000000e+00 +9.9999995880734693e-01
5.2499999999999893e+00 +8.5382395784511242e+00 +0.0000000000000000e+00 +5.2499999265633157e+00 -2.8979299192399263e-04 +0.0000000000000000e+00 +9.9999995801000996e-01
5.2999999999999892e+00 +8.5382250196837468e+00 +0.0000000000000000e+00 +5.2999999244437230e+00 -2.9255772781900833e-04 +0.0000000000000000e+00 +9.9999995720498691e-01
5.3499999999999890e+00 +8.5382103226758659e+00 +0.0000000000000000e+00 +5.3499999222836863e+00 -2.9532261229604979e-04 +0.0000000000000000e+00 +9.9999995639227623e-01
5.3999999999999888e+00 +8.5381954874200190e+00 +0.0000000000000000e+00 +5.3999999200828217e+00 -2.9808764666901212e-04 +0.0000000000000000e+00 +9.9999995557187626e-01
5.4499999999999886e+00 +8.5381805139086797e+00 +0.0000000000000000e+00 +5.4499999178407457e+00 -3.0085283223777555e-04 +0.0000000000000000e+00 +9.9999995474378545e-01
5.4999999999999885e+00 +8.5381654021342541e+00 +0.0000000000000000e+00 +5.4999999155570727e+00 -3.0361817028820538e-04 +0.0000000000000000e+00 +9.9999995390800211e-01
5.5499999999999883e+00 +8.5381501520890879e+00 +0.0000000000000000e+00 +5.5499999132314182e+00 -3.0638366209215196e-04 +0.0000000000000000e+00 +9.9999995306452449e-01
5.5999999999999881e+00 +8.5381347637654610e+00 +0.0000000000000000e+00 +5.5999999108633975e+00 -3.0914930890745082e-04 +0.0000000000000000e+00 +9.9999995221335103e-01
5.6499999999999879e+00 +8.5381192371555930e+00 +0.0000000000000000e+00 +5.6499999084526253e+00 -3.1191511197792244e-04 +0.0000000000000000e+00 +9.9999995135448005e-01
5.6999999999999877e+00 +8.5381035722516394e+00 +0.0000000000000000e+00 +5.6999999059987170e+00 -3.1468107253337230e-04 +0.0000000000000000e+00 +9.9999995048790979e-01
5.7499999999999876e+00 +8.5380877690456956e+00 +0.0000000000000000e+00 +5.7499999035012879e+00 -3.1744719178959093e-04 +0.0000000000000000e+00 +9.9999994961363869e-01
5.7999999999999874e+00 +8.5380718275297962e+00 +0.0000000000000000e+00 +5.7999999009599525e+00 -3.2021347094835374e-04 +0.0000000000000000e+00 +9.9999994873166498e-01
5.8499999999999872e+00 +8.5380557476959158e+00 +0.0000000000000000e+00 +5.8499998983743255e+00 -3.2297991119742116e-04 +0.0000000000000000e+00 +9.9999994784198687e-01
5.8999999999999870e+00 +8.5380395295359719e+00 +0.0000000000000000e+00 +5.8999998957440223e+00 -3.2574651371053843e-04 +0.0000000000000000e+00 +9.9999994694460270e-01
