# field on trajectory
# s[mm] rx[mm] ry[mm] rz[mm] bx[T] by[T] bz[T]
-0.0000000000000000e+00 +8.5270000000000206e+00 +0.0000000000000000e+00 -0.0000000000000000e+00 -2.7113355022417740e-02 -5.2396300722504041e-01 +4.9136345959949132e-03
-5.0000000000000003e-02 +8.5269999309457507e+00 +0.0000000000000000e+00 -4.9999999999936401e-02 -2.7112973206067235e-02 -5.2396353166710341e-01 +4.9154164091757884e-03
-1.0000000000000001e-01 +8.5269997237846802e+00 +0.0000000000000000e+00 -9.9999999999491399e-02 -2.7112612613849552e-02 -5.2396439439046194e-01 +4.9172036771660734e-03
-1.4999999999999999e-01 +8.5269993785186706e+00 +0.0000000000000000e+00 -1.4999999999828301e-01 -2.7112273252499312e-02 -5.2396559478397597e-01 +4.9189962916200347e-03
-2.0000000000000001e-01 +8.5269988951477007e+00 +0.0000000000000000e+00 -1.9999999999593099e-01 -2.7111955128752814e-02 -5.2396713223653446e-01 +4.9207941441923881e-03
-2.5000000000000000e-01 +8.5269982736681396e+00 +0.0000000000000000e+00 -2.4999999999205300e-01 -2.7111658249348667e-02 -5.2396900613706621e-01 +4.9225971265383865e-03
-2.9999999999999999e-01 +8.5269975140799907e+00 +0.0000000000000000e+00 -2.9999999998626697e-01 -2.7111382621025179e-02 -5.2397121587449069e-01 +4.9244051303133545e-03
-3.4999999999999998e-01 +8.5269966163905302e+00 +0.0000000000000000e+00 -3.4999999997819298e-01 -2.7111128250519041e-02 -5.2397376083769198e-01 +4.9262180471724365e-03
-4.0000000000000002e-01 +8.5269955805888493e+00 +0.0000000000000000e+00 -3.9999999996744801e-01 -2.7110895144574720e-02 -5.2397664041569481e-01 +4.9280357687721656e-03
-4.5000000000000001e-01 +8.5269944066858407e+00 +0.0000000000000000e+00 -4.4999999995365197e-01 -2.7110683309929710e-02 -5.2397985399738911e-01 +4.9298581867679393e-03
-5.0000000000000000e-01 +8.5269930946742498e+00 +0.0000000000000000e+00 -4.9999999993642202e-01 -2.7110492753329378e-02 -5.2398340097180329e-01 +4.9316851928165083e-03
-5.5000000000000004e-01 +8.5269916445577092e+00 +0.0000000000000000e+00 -5.4999999991537796e-01 -2.7110323481516197e-02 -5.2398728072790723e-01 +4.9335166785741237e-03
-5.9999999999999998e-01 +8.5269900563289394e+00 +0.0000000000000000e+00 -5.9999999989013697e-01 -2.7110175501237854e-02 -5.2399149265476019e-01 +4.9353525356978989e-03
-6.5000000000000002e-01 +8.5269883299988596e+00 +0.0000000000000000e+00 -6.4999999986031898e-01 -2.7110048819236472e-02 -5.2399603614131052e-01 +4.9371926558439538e-03
-6.9999999999999996e-01 +8.5269864655601904e+00 +0.0000000000000000e+00 -6.9999999982554195e-01 -2.7109943442262176e-02 -5.2400091057664600e-01 +4.9390369306696680e-03
-7.5000000000000000e-01 +8.5269844630165608e+00 +0.0000000000000000e+00 -7.4999999978542398e-01 -2.7109859377062246e-02 -5.2400611534979535e-01 +4.9408852518318556e-03
-8.0000000000000004e-01 +8.5269823223679904e+00 +0.0000000000000000e+00 -7.9999999973958402e-01 -2.7109796630386603e-02 -5.2401164984982496e-01 +4.9427375109876376e-03
-8.4999999999999998e-01 +8.5269800436108198e+00 +0.0000000000000000e+00 -8.4999999968764095e-01 -2.7109755208987823e-02 -5.2401751346584147e-01 +4.9445935997944378e-03
-9.0000000000000002e-01 +8.5269776267450705e+00 +0.0000000000000000e+00 -8.9999999962921295e-01 -2.7109735119618429e-02 -5.2402370558694100e-01 +4.9464534099094891e-03
-9.4999999999999996e-01 +8.5269750717743609e+00 +0.0000000000000000e+00 -9.4999999956391801e-01 -2.7109736369030923e-02 -5.2403022560220780e-01 +4.9483168329898181e-03
-1.0000000000000000e+00 +8.5269723786986997e+00 +0.0000000000000000e+00 -9.9999999949137597e-01 -2.7109758963980539e-02 -5.2403707290076584e-01 +4.9501837606926898e-03
-1.0500000000000000e+00 +8.5269695475144491e+00 +0.0000000000000000e+00 -1.0499999994111999e+00 -2.7109802911225243e-02 -5.2404424687177797e-01 +4.9520540846755791e-03
-1.1000000000000001e+00 +8.5269665782288904e+00 +0.0000000000000000e+00 -1.0999999993230201e+00 -2.7109868217520382e-02 -5.2405174690434542e-01 +4.9539276965952332e-03
-1.1499999999999999e+00 +8.5269634708311095e+00 +0.0000000000000000e+00 -1.1499999992264500e+00 -2.7109954889629449e-02 -5.2405957238770928e-01 +4.9558044881094932e-03
-1.2000000000000000e+00 +8.5269602253283701e+00 +0.0000000000000000e+00 -1.1999999991210999e+00 -2.7110062934310678e-02 -5.2406772271099855e-01 +4.9576843508749675e-03
-1.2500000000000000e+00 +8.5269568417206791e+00 +0.0000000000000000e+00 -1.2499999990065900e+00 -2.7110192358326488e-02 -5.2407619726340593e-01 +4.9595671765486219e-03
-1.3000000000000000e+00 +8.5269533200044005e+00 +0.0000000000000000e+00 -1.2999999988825499e+00 -2.7110343168442130e-02 -5.2408499543416276e-01 +4.9614528567875358e-03
-1.3500000000000001e+00 +8.5269496601795307e+00 +0.0000000000000000e+00 -1.3499999987485900e+00 -2.7110515371423068e-02 -5.2409411661248884e-01 +4.9633412832484200e-03
-1.3999999999999999e+00 +8.5269458622533403e+00 +0.0000000000000000e+00 -1.3999999986043401e+00 -2.7110708974033591e-02 -5.2410356018756687e-01 +4.9652323475873486e-03
-1.4500000000000000e+00 +8.5269419262185693e+00 +0.0000000000000000e+00 -1.4499999984494001e+00 -2.7110923983044974e-02 -5.2411332554869350e-01 +4.9671259414611479e-03
-1.5000000000000000e+00 +8.5269378520752106e+00 +0.0000000000000000e+00 -1.4999999982833900e+00 -2.7111160405227406e-02 -5.2412341208512836e-01 +4.9690219565259736e-03
-1.5500000000000000e+00 +8.5269336398268898e+00 +0.0000000000000000e+00 -1.5499999981059500e+00 -2.7111418247351370e-02 -5.2413381918611845e-01 +4.9709202844375249e-03
-1.6000000000000001e+00 +8.5269292894736299e+00 +0.0000000000000000e+00 -1.5999999979166799e+00 -2.7111697516190299e-02 -5.2414454624094964e-01 +4.9728208168514851e-03
-1.6499999999999999e+00 +8.5269248010117700e+00 +0.0000000000000000e+00 -1.6499999977152000e+00 -2.7111998218520710e-02 -5.2415559263894596e-01 +4.9747234454235083e-03
-1.7000000000000000e+00 +8.5269201744449692e+00 +0.0000000000000000e+00 -1.6999999975011300e+00 -2.7112320361118051e-02 -5.2416695776939271e-01 +4.9766280618084901e-03
-1.7500000000000000e+00 +8.5269154097695701e+00 +0.0000000000000000e+00 -1.7499999972740901e+00 -2.7112663950762256e-02 -5.2417864102164013e-01 +4.9785345576614914e-03
-1.8000000000000000e+00 +8.5269105069892195e+00 +0.0000000000000000e+00 -1.7999999970336999e+00 -2.7113028994232277e-02 -5.2419064178499908e-01 +4.9804428246367711e-03
-1.8500000000000001e+00 +8.5269054661039299e+00 +0.0000000000000000e+00 -1.8499999967795799e+00 -2.7113415498310162e-02 -5.2420295944881867e-01 +4.9823527543884708e-03
-1.8999999999999999e+00 +8.5269002871100401e+00 +0.0000000000000000e+00 -1.8999999965113501e+00 -2.7113823469781168e-02 -5.2421559340248636e-01 +4.9842642385706107e-03
-1.9500000000000000e+00 +8.5268949700112007e+00 +0.0000000000000000e+00 -1.9499999962286201e+00 -2.7114252915429612e-02 -5.2422854303535071e-01 +4.9861771688363291e-03
-2.0000000000000000e+00 +8.5268895148037700e+00 +0.0000000000000000e+00 -1.9999999959310100e+00 -2.7114703842044389e-02 -5.2424180773682350e-01 +4.9880914368388429e-03
-2.0499999999999998e+00 +8.5268839213858900e+00 +0.0000000000000000e+00 -2.0499999956181298e+00 -2.7115176226172658e-02 -5.2425538668470295e-01 +4.9900069379741133e-03
-2.1000000000000001e+00 +8.5268781896593300e+00 +0.0000000000000000e+00 -2.0999999952895898e+00 -2.7115669923241145e-02 -5.2426927820755453e-01 +4.9919235825847310e-03
-2.1499999999999999e+00 +8.5268723196240899e+00 +0.0000000000000000e+00 -2.1499999949449999e+00 -2.7116184758360026e-02 -5.2428348042096906e-01 +4.9938412847434985e-03
-2.2000000000000002e+00 +8.5268663112729008e+00 +0.0000000000000000e+00 -2.1999999945839801e+00 -2.7116720556642208e-02 -5.2429799144059896e-01 +4.9957599585235468e-03
-2.2500000000000000e+00 +8.5268601646093902e+00 +0.0000000000000000e+00 -2.2499999942061502e+00 -2.7117277143196401e-02 -5.2431280938203251e-01 +4.9976795179971379e-03
-2.2999999999999998e+00 +8.5268538796335598e+00 +0.0000000000000000e+00 -2.2999999938111202e+00 -2.7117854343132453e-02 -5.2432793236089259e-01 +4.9995998772366049e-03
-2.3500000000000001e+00 +8.5268474563490599e+00 +0.0000000000000000e+00 -2.3499999933985198e+00 -2.7118451981558562e-02 -5.2434335849278857e-01 +5.0015209503138907e-03
-2.3999999999999999e+00 +8.5268408947522403e+00 +0.0000000000000000e+00 -2.3999999929679601e+00 -2.7119069883585277e-02 -5.2435908589338986e-01 +5.0034426513012493e-03
-2.4500000000000002e+00 +8.5268341948467405e+00 +0.0000000000000000e+00 -2.4499999925190501e+00 -2.7119707874319977e-02 -5.2437511267832626e-01 +5.0053648942702872e-03
-2.5000000000000000e+00 +8.5268273566252901e+00 +0.0000000000000000e+00 -2.4999999920514302e+00 -2.7120365778873525e-02 -5.2439143696331247e-01 +5.0072875932931664e-03
-2.5499999999999998e+00 +8.5268203800987994e+00 +0.0000000000000000e+00 -2.5499999915646900e+00 -2.7121043422349399e-02 -5.2440805686394820e-01 +5.0092106624406848e-03
-2.6000000000000001e+00 +8.5268132652563509e+00 +0.0000000000000000e+00 -2.5999999910584699e+00 -2.7121740629858490e-02 -5.2442497049599290e-01 +5.0111340157849033e-03
-2.6499999999999999e+00 +8.5268060121015896e+00 +0.0000000000000000e+00 -2.6499999905323701e+00 -2.7122457226505466e-02 -5.2444217597511644e-01 +5.0130575673967594e-03
-2.7000000000000002e+00 +8.5267986206345103e+00 +0.0000000000000000e+00 -2.6999999899860101e+00 -2.7123193037395413e-02 -5.2445967141702166e-01 +5.0149812313472408e-03
-2.7500000000000000e+00 +8.5267910908551094e+00 +0.0000000000000000e+00 -2.7499999894190199e+00 -2.7123947887632525e-02 -5.2447745493742215e-01 +5.0169049217071819e-03
-2.7999999999999998e+00 +8.5267834227670392e+00 +0.0000000000000000e+00 -2.7999999888310101e+00 -2.7124721602318456e-02 -5.2449552465201466e-01 +5.0188285525469729e-03
-2.8500000000000001e+00 +8.5267756163666508e+00 +0.0000000000000000e+00 -2.8499999882215898e+00 -2.7125514006556547e-02 -5.2451387867655574e-01 +5.0207520379373259e-03
-2.8999999999999999e+00 +8.5267676716539391e+00 +0.0000000000000000e+00 -2.8999999875903901e+00 -2.7126324925447448e-02 -5.2453251512678578e-01 +5.0226752919485234e-03
-2.9500000000000002e+00 +8.5267595886289200e+00 +0.0000000000000000e+00 -2.9499999869370299e+00 -2.7127154184090549e-02 -5.2455143211845412e-01 +5.0245982286506599e-03
-3.0000000000000000e+00 +8.5267513672915793e+00 +0.0000000000000000e+00 -2.9999999862611100e+00 -2.7128001607583808e-02 -5.2457062776731778e-01 +5.0265207621136504e-03
-3.0499999999999998e+00 +8.5267430076455604e+00 +0.0000000000000000e+00 -3.0499999855622502e+00 -2.7128867021022348e-02 -5.2459010018911800e-01 +5.0284428064069769e-03
-3.1000000000000001e+00 +8.5267345096872305e+00 +0.0000000000000000e+00 -3.0999999848400801e+00 -2.7129750249502385e-02 -5.2460984749965478e-01 +5.0303642756004165e-03
-3.1499999999999999e+00 +8.5267258734165807e+00 +0.0000000000000000e+00 -3.1499999840942201e+00 -2.7130651118117181e-02 -5.2462986781471066e-01 +5.0322850837633158e-03
-3.2000000000000002e+00 +8.5267170988336094e+00 +0.0000000000000000e+00 -3.1999999833242700e+00 -2.7131569451958184e-02 -5.2465015925007652e-01 +5.0342051449648274e-03
-3.2500000000000000e+00 +8.5267081859419704e+00 +0.0000000000000000e+00 -3.2499999825298600e+00 -2.7132505076113672e-02 -5.2467071992152547e-01 +5.0361243732736597e-03
-3.2999999999999998e+00 +8.5266991347380099e+00 +0.0000000000000000e+00 -3.2999999817106000e+00 -2.7133457815672734e-02 -5.2469154794489004e-01 +5.0380426827588221e-03
-3.3500000000000001e+00 +8.5266899452181004e+00 +0.0000000000000000e+00 -3.3499999808661101e+00 -2.7134427495722421e-02 -5.2471264143600882e-01 +5.0399599874891132e-03
-3.3999999999999999e+00 +8.5266806173895002e+00 +0.0000000000000000e+00 -3.3999999799960099e+00 -2.7135413941343639e-02 -5.2473399851065350e-01 +5.0418762015324086e-03
-3.4500000000000002e+00 +8.5266711512522306e+00 +0.0000000000000000e+00 -3.4499999790999101e+00 -2.7136416977617813e-02 -5.2475561728465281e-01 +5.0437912389568636e-03
-3.5000000000000000e+00 +8.5266615468026394e+00 +0.0000000000000000e+00 -3.4999999781774398e+00 -2.7137436429625465e-02 -5.2477749587386802e-01 +5.0457050138306798e-03
-3.5499999999999998e+00 +8.5266518040407409e+00 +0.0000000000000000e+00 -3.5499999772282100e+00 -2.7138472122443413e-02 -5.2479963239414240e-01 +5.0476174402215943e-03
-3.6000000000000001e+00 +8.5266419229665207e+00 +0.0000000000000000e+00 -3.5999999762518402e+00 -2.7139523881146026e-02 -5.2482202496132657e-01 +5.0495284321971567e-03
-3.6499999999999999e+00 +8.5266319035799807e+00 +0.0000000000000000e+00 -3.6499999752479400e+00 -2.7140591530805162e-02 -5.2484467169127658e-01 +5.0514379038246867e-03
-3.6999999999999900e+00 +8.5266217458847695e+00 +0.0000000000000000e+00 -3.6999999742161398e+00 -2.7141674896488707e-02 -5.2486757069983114e-01 +5.0533457691710549e-03
-3.7499999999999898e+00 +8.5266114498736005e+00 +0.0000000000000000e+00 -3.7499999731560498e+00 -2.7142773803265931e-02 -5.2489072010291082e-01 +5.0552519423036606e-03
-3.7999999999999901e+00 +8.5266010155537497e+00 +0.0000000000000000e+00 -3.7999999720672801e+00 -2.7143888076197869e-02 -5.2491411801634147e-01 +5.0571563372886911e-03
-3.8499999999999899e+00 +8.5265904429179500e+00 +0.0000000000000000e+00 -3.8499999709494599e+00 -2.7145017540348169e-02 -5.2493776255605584e-01 +5.0590588681931085e-03
-3.8999999999999901e+00 +8.5265797319771099e+00 +0.0000000000000000e+00 -3.8999999698022001e+00 -2.7146162020770664e-02 -5.2496165183786669e-01 +5.0609594490824226e-03
-3.9499999999999900e+00 +8.5265688827203103e+00 +0.0000000000000000e+00 -3.9499999686251202e+00 -2.7147321342524372e-02 -5.2498578397774487e-01 +5.0628579940234014e-03
-3.9999999999999898e+00 +8.5265578951548395e+00 +0.0000000000000000e+00 -3.9999999674178399e+00 -2.7148495330658346e-02 -5.2501015709153898e-01 +5.0647544170813515e-03
-4.0499999999999901e+00 +8.5265467692734092e+00 +0.0000000000000000e+00 -4.0499999661799704e+00 -2.7149683822271661e-02 -5.2503476918157166e-01 +5.0666486354345539e-03
-4.0999999999999899e+00 +8.5265355050833005e+00 +0.0000000000000000e+00 -4.0999999649111301e+00 -2.7150886702647398e-02 -5.2505961779552857e-01 +5.0685405787089279e-03
-4.1499999999999897e+00 +8.5265241025808791e+00 +0.0000000000000000e+00 -4.1499999636109504e+00 -2.7152103869121636e-02 -5.2508470036753685e-01 +5.0704301796431223e-03
-4.1999999999999904e+00 +8.5265125617697795e+00 +0.0000000000000000e+00 -4.1999999622790298e+00 -2.7153335219029264e-02 -5.2511001433167204e-01 +5.0723173709750569e-03
-4.2499999999999902e+00 +8.5265008826427202e+00 +0.0000000000000000e+00 -4.2499999609149901e+00 -2.7154580649710852e-02 -5.2513555712208571e-01 +5.0742020854431559e-03
-4.2999999999999901e+00 +8.5264890652069898e+00 +0.0000000000000000e+00 -4.2999999595184599e+00 -2.7155840058503154e-02 -5.2516132617282574e-01 +5.0760842557846181e-03
-4.3499999999999899e+00 +8.5264771094589396e+00 +0.0000000000000000e+00 -4.3499999580890396e+00 -2.7157113342748777e-02 -5.2518731891801607e-01 +5.0779638147371393e-03
-4.3999999999999897e+00 +8.5264650153985695e+00 +0.0000000000000000e+00 -4.3999999566263703e+00 -2.7158400399790700e-02 -5.2521353279175209e-01 +5.0798406950379304e-03
-4.4499999999999904e+00 +8.5264527830295300e+00 +0.0000000000000000e+00 -4.4499999551300400e+00 -2.7159701126972406e-02 -5.2523996522810268e-01 +5.0817148294237009e-03
-4.4999999999999902e+00 +8.5264404123481707e+00 +0.0000000000000000e+00 -4.4999999535996897e+00 -2.7161015421641989e-02 -5.2526661366118454e-01 +5.0835861506314190e-03
-4.5499999999999901e+00 +8.5264279033544899e+00 +0.0000000000000000e+00 -4.5499999520349199e+00 -2.7162343181148182e-02 -5.2529347552508687e-01 +5.0854545913975521e-03
-4.5999999999999899e+00 +8.5264152560448601e+00 +0.0000000000000000e+00 -4.5999999504353601e+00 -2.7163684302843050e-02 -5.2532054825392105e-01 +5.0873200844585671e-03
-4.6499999999999897e+00 +8.5264024704301793e+00 +0.0000000000000000e+00 -4.6499999488006196e+00 -2.7165038684075334e-02 -5.2534782928169321e-01 +5.0891825625496764e-03
-4.6999999999999904e+00 +8.5263895464995603e+00 +0.0000000000000000e+00 -4.6999999471303298e+00 -2.7166406222204075e-02 -5.2537531604255838e-01 +5.0910419584073397e-03
-4.7499999999999902e+00 +8.5263764842602505e+00 +0.0000000000000000e+00 -4.7499999454240900e+00 -2.7167786814583737e-02 -5.2540300597054079e-01 +5.0928982047665095e-03
-4.7999999999999901e+00 +8.5263632837050007e+00 +0.0000000000000000e+00 -4.7999999436815299e+00 -2.7169180358576479e-02 -5.2543089649976227e-01 +5.0947512343628796e-03
-4.8499999999999899e+00 +8.5263499448447000e+00 +0.0000000000000000e+00 -4.8499999419022597e+00 -2.7170586751539987e-02 -5.2545898506421251e-01 +5.0966009799306320e-03
-4.8999999999999897e+00 +8.5263364676684397e+00 +0.0000000000000000e+00 -4.8999999400859000e+00 -2.7172005890842517e-02 -5.2548726909802912e-01 +5.0984473742051884e-03
-4.9499999999999904e+00 +8.5263228521798702e+00 +0.0000000000000000e+00 -4.9499999382320699e+00 -2.7173437673849343e-02 -5.2551574603524243e-01 +5.1002903499207022e-03
-4.9999999999999902e+00 +8.5263090983826295e+00 +0.0000000000000000e+00 -4.9999999363403900e+00 -2.7174881997928224e-02 -5.2554441330987844e-01 +5.1021298398110588e-03
-5.0499999999999901e+00 +8.5262952059529198e+00 +0.0000000000000000e+00 -5.0499999344103799e+00 -2.7176338760572672e-02 -5.2557326835824414e-01 +5.1039657766326456e-03
-5.0999999999999899e+00 +8.5262811745706095e+00 +0.0000000000000000e+00 -5.0999999324415599e+00 -2.7177807859277512e-02 -5.2560230861661816e-01 +5.1057980931414094e-03
-5.1499999999999897e+00 +8.5262670042357094e+00 +0.0000000000000000e+00 -5.1499999304335597e+00 -2.7179289191419934e-02 -5.2563153151903530e-01 +5.1076267220708047e-03
-5.1999999999999904e+00 +8.5262526949518396e+00 +0.0000000000000000e+00 -5.1999999283859903e+00 -2.7180782654378524e-02 -5.2566093449949869e-01 +5.1094515961537541e-03
-5.2499999999999902e+00 +8.5262382467153692e+00 +0.0000000000000000e+00 -5.2499999262984600e+00 -2.7182288145537394e-02 -5.2569051499205510e-01 +5.1112726481234135e-03
-5.2999999999999901e+00 +8.5262236595299292e+00 +0.0000000000000000e+00 -5.2999999241705797e+00 -2.7183805562280852e-02 -5.2572027043069269e-01 +5.1130898107121471e-03
-5.3499999999999899e+00 +8.5262089333882596e+00 +0.0000000000000000e+00 -5.3499999220019703e+00 -2.7185334802000218e-02 -5.2575019824946900e-01 +5.1149030166528038e-03
-5.3999999999999897e+00 +8.5261940682976292e+00 +0.0000000000000000e+00 -5.3999999197922497e+00 -2.7186875762084364e-02 -5.2578029588233155e-01 +5.1167121986769280e-03
-5.4499999999999904e+00 +8.5261790642507496e+00 +0.0000000000000000e+00 -5.4499999175410201e+00 -2.7188428339930713e-02 -5.2581056076332111e-01 +5.1185172895167972e-03
-5.4999999999999902e+00 +8.5261639212585596e+00 +0.0000000000000000e+00 -5.4999999152479004e+00 -2.7189992432932953e-02 -5.2584099032634257e-01 +5.1203182219031343e-03
-5.5499999999999901e+00 +8.5261486393137602e+00 +0.0000000000000000e+00 -5.5499999129125097e+00 -2.7191567938494837e-02 -5.2587158200541928e-01 +5.1221149285676356e-03
-5.5999999999999899e+00 +8.5261332184127205e+00 +0.0000000000000000e+00 -5.5999999105344500e+00 -2.7193154754021995e-02 -5.2590233323454083e-01 +5.1239073422414605e-03
-5.6499999999999897e+00 +8.5261176585627307e+00 +0.0000000000000000e+00 -5.6499999081133403e+00 -2.7194752776919247e-02 -5.2593324144760911e-01 +5.1256953956547021e-03
-5.6999999999999904e+00 +8.5261019597637606e+00 +0.0000000000000000e+00 -5.6999999056488004e+00 -2.7196361904597552e-02 -5.2596430407856853e-01 +5.1274790215376726e-03
-5.7499999999999902e+00 +8.5260861220122006e+00 +0.0000000000000000e+00 -5.7499999031404396e+00 -2.7197982034472667e-02 -5.2599551856137794e-01 +5.1292581526206360e-03
-5.7999999999999901e+00 +8.5260701453080401e+00 +0.0000000000000000e+00 -5.7999999005878804e+00 -2.7199613063962499e-02 -5.2602688232996098e-01 +5.1310327216333163e-03
-5.8499999999999899e+00 +8.5260540296512808e+00 +0.0000000000000000e+00 -5.8499998979907204e+00 -2.7201254890488479e-02 -5.2605839281822986e-01 +5.1328026613051154e-03
