# trajectory
# s[mm] rx[mm] ry[mm] rz[mm] px[rad] py[rad] pz[rad]
0.0000000000000000e+00 +8.5269999999999992e+00 +0.0000000000000000e+00 +0.0000000000000000e+00 +0.0000000000000000e+00 +0.0000000000000000e+00 +1.0000000000000000e+00
-5.0000000000000003e-02 +8.5269999309607893e+00 +0.0000000000000000e+00 -4.9999999999936449e-02 +2.7615699491435209e-06 +0.0000000000000000e+00 +9.9999999999618683e-01
-1.0000000000000001e-01 +8.5269997238428310e+00 +0.0000000000000000e+00 -9.9999999999491579e-02 +5.5231502220158513e-06 +0.0000000000000000e+00 +9.9999999998474742e-01
-1.5000000000000002e-01 +8.5269993786455647e+00 +0.0000000000000000e+00 -1.4999999999828406e-01 +8.2847426205325682e-06 +0.0000000000000000e+00 +9.9999999996568156e-01
-2.0000000000000001e-01 +8.5269988953683367e+00 +0.0000000000000000e+00 -1.9999999999593260e-01 +1.1046348941539092e-05 +0.0000000000000000e+00 +9.9999999993898914e-01
-2.5000000000000000e-01 +8.5269982740104080e+00 +0.0000000000000000e+00 -2.4999999999205585e-01 +1.3807970976810780e-05 +0.0000000000000000e+00 +9.9999999990467003e-01
-2.9999999999999999e-01 +8.5269975145709473e+00 +0.0000000000000000e+00 -2.9999999998627247e-01 +1.6569610513052995e-05 +0.0000000000000000e+00 +9.9999999986272403e-01
-3.4999999999999998e-01 +8.5269966170490346e+00 +0.0000000000000000e+00 -3.4999999997820114e-01 +1.9331269331901191e-05 +0.0000000000000000e+00 +9.9999999981315102e-01
-3.9999999999999997e-01 +8.5269955814436624e+00 +0.0000000000000000e+00 -3.9999999996746044e-01 +2.2092949209920992e-05 +0.0000000000000000e+00 +9.9999999975595077e-01
-4.4999999999999996e-01 +8.5269944077537332e+00 +0.0000000000000000e+00 -4.4999999995366907e-01 +2.4854651918608268e-05 +0.0000000000000000e+00 +9.9999999969112308e-01
-4.9999999999999994e-01 +8.5269930959780602e+00 +0.0000000000000000e+00 -4.9999999993644562e-01 +2.7616379224389217e-05 +0.0000000000000000e+00 +9.9999999961866770e-01
-5.4999999999999993e-01 +8.5269916461153716e+00 +0.0000000000000000e+00 -5.4999999991540871e-01 +3.0378132888620446e-05 +0.0000000000000000e+00 +9.9999999953858443e-01
-5.9999999999999998e-01 +8.5269900581643032e+00 +0.0000000000000000e+00 -5.9999999989017694e-01 +3.3139914667589047e-05 +0.0000000000000000e+00 +9.9999999945087292e-01
-6.5000000000000002e-01 +8.5269883321234072e+00 +0.0000000000000000e+00 -6.4999999986036883e-01 +3.5901726312512677e-05 +0.0000000000000000e+00 +9.9999999935553296e-01
-7.0000000000000007e-01 +8.5269864679911453e+00 +0.0000000000000000e+00 -6.9999999982560301e-01 +3.8663569569539630e-05 +0.0000000000000000e+00 +9.9999999925256411e-01
-7.5000000000000011e-01 +8.5269844657658940e+00 +0.0000000000000000e+00 -7.4999999978549803e-01 +4.1425446179748927e-05 +0.0000000000000000e+00 +9.9999999914196613e-01
-8.0000000000000016e-01 +8.5269823254459425e+00 +0.0000000000000000e+00 -7.9999999973967240e-01 +4.4187357879150382e-05 +0.0000000000000000e+00 +9.9999999902373859e-01
-8.5000000000000020e-01 +8.5269800470294932e+00 +0.0000000000000000e+00 -8.4999999968774465e-01 +4.6949306398684684e-05 +0.0000000000000000e+00 +9.9999999889788116e-01
-9.0000000000000024e-01 +8.5269776305146614e+00 +0.0000000000000000e+00 -8.9999999962933330e-01 +4.9711293464223482e-05 +0.0000000000000000e+00 +9.9999999876439349e-01
-9.5000000000000029e-01 +8.5269750758994771e+00 +0.0000000000000000e+00 -9.4999999956405679e-01 +5.2473320796569454e-05 +0.0000000000000000e+00 +9.9999999862327515e-01
-1.0000000000000002e+00 +8.5269723831818833e+00 +0.0000000000000000e+00 -9.9999999949153362e-01 +5.5235390111456379e-05 +0.0000000000000000e+00 +9.9999999847452570e-01
-1.0500000000000003e+00 +8.5269695523597377e+00 +0.0000000000000000e+00 -1.0499999994113822e+00 +5.7997503119549217e-05 +0.0000000000000000e+00 +9.9999999831814468e-01
-1.1000000000000003e+00 +8.5269665834308146e+00 +0.0000000000000000e+00 -1.0999999993232210e+00 +6.0759661526444204e-05 +0.0000000000000000e+00 +9.9999999815413165e-01
-1.1500000000000004e+00 +8.5269634763928011e+00 +0.0000000000000000e+00 -1.1499999992266683e+00 +6.3521867032668904e-05 +0.0000000000000000e+00 +9.9999999798248607e-01
-1.2000000000000004e+00 +8.5269602312432990e+00 +0.0000000000000000e+00 -1.1999999991213424e+00 +6.6284121333682282e-05 +0.0000000000000000e+00 +9.9999999780320747e-01
-1.2500000000000004e+00 +8.5269568479798270e+00 +0.0000000000000000e+00 -1.2499999990068618e+00 +6.9046426119874808e-05 +0.0000000000000000e+00 +9.9999999761629532e-01
-1.3000000000000005e+00 +8.5269533265998181e+00 +0.0000000000000000e+00 -1.2999999988828448e+00 +7.1808783076568515e-05 +0.0000000000000000e+00 +9.9999999742174916e-01
-1.3500000000000005e+00 +8.5269496671006220e+00 +0.0000000000000000e+00 -1.3499999987489095e+00 +7.4571193884017065e-05 +0.0000000000000000e+00 +9.9999999721956834e-01
-1.4000000000000006e+00 +8.5269458694795048e+00 +0.0000000000000000e+00 -1.3999999986046743e+00 +7.7333660217405838e-05 +0.0000000000000000e+00 +9.9999999700975228e-01
-1.4500000000000006e+00 +8.5269419337336476e+00 +0.0000000000000000e+00 -1.4499999984497574e+00 +8.0096183746852003e-05 +0.0000000000000000e+00 +9.9999999679230045e-01
-1.5000000000000007e+00 +8.5269378598601495e+00 +0.0000000000000000e+00 -1.4999999982837771e+00 +8.2858766137404615e-05 +0.0000000000000000e+00 +9.9999999656721217e-01
-1.5500000000000007e+00 +8.5269336478560263e+00 +0.0000000000000000e+00 -1.5499999981063513e+00 +8.5621409049044635e-05 +0.0000000000000000e+00 +9.9999999633448688e-01
-1.6000000000000008e+00 +8.5269292977182083e+00 +0.0000000000000000e+00 -1.5999999979170982e+00 +8.8384114136685047e-05 +0.0000000000000000e+00 +9.9999999609412393e-01
-1.6500000000000008e+00 +8.5269248094435479e+00 +0.0000000000000000e+00 -1.6499999977156363e+00 +9.1146883050170920e-05 +0.0000000000000000e+00 +9.9999999584612265e-01
-1.7000000000000008e+00 +8.5269201830288122e+00 +0.0000000000000000e+00 -1.6999999975015834e+00 +9.3909717434279504e-05 +0.0000000000000000e+00 +9.9999999559048225e-01
-1.7500000000000009e+00 +8.5269154184706863e+00 +0.0000000000000000e+00 -1.7499999972745572e+00 +9.6672618928720258e-05 +0.0000000000000000e+00 +9.9999999532720218e-01
-1.8000000000000009e+00 +8.5269105157657741e+00 +0.0000000000000000e+00 -1.7999999970341762e+00 +9.9435589168134973e-05 +0.0000000000000000e+00 +9.9999999505628157e-01
-1.8500000000000010e+00 +8.5269054749105972e+00 +0.0000000000000000e+00 -1.8499999967800580e+00 +1.0219862978209780e-04 +0.0000000000000000e+00 +9.9999999477771984e-01
-1.9000000000000010e+00 +8.5269002959015960e+00 +0.0000000000000000e+00 -1.8999999965118208e+00 +1.0496174239511534e-04 +0.0000000000000000e+00 +9.9999999449151611e-01
-1.9500000000000011e+00 +8.5268949787351307e+00 +0.0000000000000000e+00 -1.9499999962290824e+00 +1.0772492862662674e-04 +0.0000000000000000e+00 +9.9999999419766972e-01
-2.0000000000000009e+00 +8.5268895234074797e+00 +0.0000000000000000e+00 -1.9999999959314605e+00 +1.1048819009100373e-04 +0.0000000000000000e+00 +9.9999999389617977e-01
-2.0500000000000007e+00 +8.5268839299148418e+00 +0.0000000000000000e+00 -2.0499999956185730e+00 +1.1325152839729709e-04 +0.0000000000000000e+00 +9.9999999358704550e-01
-2.1000000000000005e+00 +8.5268781982533337e+00 +0.0000000000000000e+00 -2.0999999952900379e+00 +1.1601494514644658e-04 +0.0000000000000000e+00 +9.9999999327026612e-01
-2.1500000000000004e+00 +8.5268723284189942e+00 +0.0000000000000000e+00 -2.1499999949454724e+00 +1.1877844192849100e-04 +0.0000000000000000e+00 +9.9999999294584074e-01
-2.2000000000000002e+00 +8.5268663204077821e+00 +0.0000000000000000e+00 -2.1999999945844944e+00 +1.2154202032231453e-04 +0.0000000000000000e+00 +9.9999999261376848e-01
-2.2500000000000000e+00 +8.5268601742155763e+00 +0.0000000000000000e+00 -2.2499999942067217e+00 +1.2430568189564681e-04 +0.0000000000000000e+00 +9.9999999227404857e-01
-2.2999999999999998e+00 +8.5268538898381809e+00 +0.0000000000000000e+00 -2.2999999938117717e+00 +1.2706942820506299e-04 +0.0000000000000000e+00 +9.9999999192668010e-01
-2.3499999999999996e+00 +8.5268474672713186e+00 +0.0000000000000000e+00 -2.3499999933992619e+00 +1.2983326079598378e-04 +0.0000000000000000e+00 +9.9999999157166208e-01
-2.3999999999999995e+00 +8.5268409065106372e+00 +0.0000000000000000e+00 -2.3999999929688101e+00 +1.3259718120267551e-04 +0.0000000000000000e+00 +9.9999999120899363e-01
-2.4499999999999993e+00 +8.5268342075517083e+00 +0.0000000000000000e+00 -2.4499999925200338e+00 +1.3536119094825018e-04 +0.0000000000000000e+00 +9.9999999083867386e-01
-2.4999999999999991e+00 +8.5268273703900270e+00 +0.0000000000000000e+00 -2.4999999920525502e+00 +1.3812529154466548e-04 +0.0000000000000000e+00 +9.9999999046070176e-01
-2.5499999999999989e+00 +8.5268203950210140e+00 +0.0000000000000000e+00 -2.5499999915659766e+00 +1.4088948449272486e-04 +0.0000000000000000e+00 +9.9999999007507645e-01
-2.5999999999999988e+00 +8.5268132814400133e+00 +0.0000000000000000e+00 -2.5999999910599305e+00 +1.4365377128207753e-04 +0.0000000000000000e+00 +9.9999998968179682e-01
-2.6499999999999986e+00 +8.5268060296422963e+00 +0.0000000000000000e+00 -2.6499999905340288e+00 +1.4641815339121858e-04 +0.0000000000000000e+00 +9.9999998928086198e-01
-2.6999999999999984e+00 +8.5267986396230615e+00 +0.0000000000000000e+00 -2.6999999899878890e+00 +1.4918263228748898e-04 +0.0000000000000000e+00 +9.9999998887227093e-01
-2.7499999999999982e+00 +8.5267911113774311e+00 +0.0000000000000000e+00 -2.7499999894211284e+00 +1.5194720942707558e-04 +0.0000000000000000e+00 +9.9999998845602256e-01
-2.7999999999999980e+00 +8.5267834449004578e+00 +0.0000000000000000e+00 -2.7999999888333638e+00 +1.5471188625501125e-04 +0.0000000000000000e+00 +9.9999998803211587e-01
-2.8499999999999979e+00 +8.5267756401871200e+00 +0.0000000000000000e+00 -2.8499999882242122e+00 +1.5747666420517481e-04 +0.0000000000000000e+00 +9.9999998760054987e-01
-2.8999999999999977e+00 +8.5267676972323283e+00 +0.0000000000000000e+00 -2.8999999875932909e+00 +1.6024154470029115e-04 +0.0000000000000000e+00 +9.9999998716132343e-01
-2.9499999999999975e+00 +8.5267596160309189e+00 +0.0000000000000000e+00 -2.9499999869402167e+00 +1.6300652915193119e-04 +0.0000000000000000e+00 +9.9999998671443546e-01
-2.9999999999999973e+00 +8.5267513965776587e+00 +0.0000000000000000e+00 -2.9999999862646067e+00 +1.6577161896051202e-04 +0.0000000000000000e+00 +9.9999998625988495e-01
-3.0499999999999972e+00 +8.5267430388672452e+00 +0.0000000000000000e+00 -3.0499999855660778e+00 +1.6853681551529679e-04 +0.0000000000000000e+00 +9.9999998579767069e-01
-3.0999999999999970e+00 +8.5267345428943067e+00 +0.0000000000000000e+00 -3.0999999848442461e+00 +1.7130212019439488e-04 +0.0000000000000000e+00 +9.9999998532779155e-01
-3.1499999999999968e+00 +8.5267259086534022e+00 +0.0000000000000000e+00 -3.1499999840987289e+00 +1.7406753436476183e-04 +0.0000000000000000e+00 +9.9999998485024644e-01
-3.1999999999999966e+00 +8.5267171361390233e+00 +0.0000000000000000e+00 -3.1999999833291430e+00 +1.7683305938219945e-04 +0.0000000000000000e+00 +9.9999998436503423e-01
-3.2499999999999964e+00 +8.5267082253455939e+00 +0.0000000000000000e+00 -3.2499999825351047e+00 +1.7959869659135580e-04 +0.0000000000000000e+00 +9.9999998387215372e-01
-3.2999999999999963e+00 +8.5266991762674724e+00 +0.0000000000000000e+00 -3.2999999817162307e+00 +1.8236444732572523e-04 +0.0000000000000000e+00 +9.9999998337160378e-01
-3.3499999999999961e+00 +8.5266899888989478e+00 +0.0000000000000000e+00 -3.3499999808721372e+00 +1.8513031290764834e-04 +0.0000000000000000e+00 +9.9999998286338321e-01
-3.3999999999999959e+00 +8.5266806632342451e+00 +0.0000000000000000e+00 -3.3999999800024412e+00 +1.8789629464831218e-04 +0.0000000000000000e+00 +9.9999998234749077e-01
-3.4499999999999957e+00 +8.5266711992675255e+00 +0.0000000000000000e+00 -3.4499999791067584e+00 +1.9066239384775007e-04 +0.0000000000000000e+00 +9.9999998182392535e-01
-3.4999999999999956e+00 +8.5266615969928825e+00 +0.0000000000000000e+00 -3.4999999781847055e+00 +1.9342861179484175e-04 +0.0000000000000000e+00 +9.9999998129268564e-01
-3.5499999999999954e+00 +8.5266518564043459e+00 +0.0000000000000000e+00 -3.5499999772358990e+00 +1.9619494976731334e-04 +0.0000000000000000e+00 +9.9999998075377039e-01
-3.5999999999999952e+00 +8.5266419774958830e+00 +0.0000000000000000e+00 -3.5999999762599546e+00 +1.9896140903173743e-04 +0.0000000000000000e+00 +9.9999998020717840e-01
-3.6499999999999950e+00 +8.5266319602613994e+00 +0.0000000000000000e+00 -3.6499999752564887e+00 +2.0172799084353300e-04 +0.0000000000000000e+00 +9.9999997965290843e-01
-3.6999999999999948e+00 +8.5266218046947362e+00 +0.0000000000000000e+00 -3.6999999742251175e+00 +2.0449469644696553e-04 +0.0000000000000000e+00 +9.9999997909095917e-01
-3.7499999999999947e+00 +8.5266115107896709e+00 +0.0000000000000000e+00 -3.7499999731654565e+00 +2.0726152707514693e-04 +0.0000000000000000e+00 +9.9999997852132927e-01
-3.7999999999999945e+00 +8.5266010785399242e+00 +0.0000000000000000e+00 -3.7999999720771220e+00 +2.1002848395003566e-04 +0.0000000000000000e+00 +9.9999997794401752e-01
-3.8499999999999943e+00 +8.5265905079391526e+00 +0.0000000000000000e+00 -3.8499999709597299e+00 +2.1279556828243662e-04 +0.0000000000000000e+00 +9.9999997735902257e-01
-3.8999999999999941e+00 +8.5265797989809524e+00 +0.0000000000000000e+00 -3.8999999698128960e+00 +2.1556278127200128e-04 +0.0000000000000000e+00 +9.9999997676634311e-01
-3.9499999999999940e+00 +8.5265689516588612e+00 +0.0000000000000000e+00 -3.9499999686362361e+00 +2.1833012410722762e-04 +0.0000000000000000e+00 +9.9999997616597791e-01
-3.9999999999999938e+00 +8.5265579659663580e+00 +0.0000000000000000e+00 -3.9999999674293658e+00 +2.2109759796546012e-04 +0.0000000000000000e+00 +9.9999997555792552e-01
-4.0499999999999936e+00 +8.5265468418968613e+00 +0.0000000000000000e+00 -4.0499999661919004e+00 +2.2386520401280186e-04 +0.0000000000000000e+00 +9.9999997494218462e-01
-4.0999999999999934e+00 +8.5265355794437347e+00 +0.0000000000000000e+00 -4.0999999649234562e+00 +2.2663294340314629e-04 +0.0000000000000000e+00 +9.9999997431875387e-01
-4.1499999999999932e+00 +8.5265241786002797e+00 +0.0000000000000000e+00 -4.1499999636236478e+00 +2.2940081727720914e-04 +0.0000000000000000e+00 +9.9999997368763194e-01
-4.1999999999999931e+00 +8.5265126393597459e+00 +0.0000000000000000e+00 -4.1999999622920914e+00 +2.3216882676244045e-04 +0.0000000000000000e+00 +9.9999997304881738e-01
-4.2499999999999929e+00 +8.5265009617153247e+00 +0.0000000000000000e+00 -4.2499999609284016e+00 +2.3493697297302451e-04 +0.0000000000000000e+00 +9.9999997240230876e-01
-4.2999999999999927e+00 +8.5264891456601521e+00 +0.0000000000000000e+00 -4.2999999595321938e+00 +2.3770525700987985e-04 +0.0000000000000000e+00 +9.9999997174810473e-01
-4.3499999999999925e+00 +8.5264771911873094e+00 +0.0000000000000000e+00 -4.3499999581030835e+00 +2.4047367996065928e-04 +0.0000000000000000e+00 +9.9999997108620398e-01
-4.3999999999999924e+00 +8.5264650982898242e+00 +0.0000000000000000e+00 -4.3999999566406860e+00 +2.4324224289974983e-04 +0.0000000000000000e+00 +9.9999997041660493e-01
-4.4499999999999922e+00 +8.5264528669606694e+00 +0.0000000000000000e+00 -4.4499999551446159e+00 +2.4601094688827277e-04 +0.0000000000000000e+00 +9.9999996973930627e-01
-4.4999999999999920e+00 +8.5264404971927679e+00 +0.0000000000000000e+00 -4.4999999536144886e+00 +2.4877979297408361e-04 +0.0000000000000000e+00 +9.9999996905430655e-01
-4.5499999999999918e+00 +8.5264279889789876e+00 +0.0000000000000000e+00 -4.5499999520499186e+00 +2.5154878219177206e-04 +0.0000000000000000e+00 +9.9999996836160432e-01
-4.5999999999999917e+00 +8.5264153423121467e+00 +0.0000000000000000e+00 -4.5999999504505205e+00 +2.5431791556266198e-04 +0.0000000000000000e+00 +9.9999996766119814e-01
-4.6499999999999915e+00 +8.5264025571850119e+00 +0.0000000000000000e+00 -4.6499999488159096e+00 +2.5708719409481138e-04 +0.0000000000000000e+00 +9.9999996695308657e-01
-4.6999999999999913e+00 +8.5263896335903002e+00 +0.0000000000000000e+00 -4.6999999471457006e+00 +2.5985661878301250e-04 +0.0000000000000000e+00 +9.9999996623726806e-01
-4.7499999999999911e+00 +8.5263765715206805e+00 +0.0000000000000000e+00 -4.7499999454395079e+00 +2.6262619060879168e-04 +0.0000000000000000e+00 +9.9999996551374115e-01
-4.7999999999999909e+00 +8.5263633709687703e+00 +0.0000000000000000e+00 -4.7999999436969460e+00 +2.6539591054040938e-04 +0.0000000000000000e+00 +9.9999996478250441e-01
-4.8499999999999908e+00 +8.5263500319271408e+00 +0.0000000000000000e+00 -4.8499999419176296e+00 +2.6816577953286009e-04 +0.0000000000000000e+00 +9.9999996404355640e-01
-4.8999999999999906e+00 +8.5263365543883154e+00 +0.0000000000000000e+00 -4.8999999401011731e+00 +2.7093579852787244e-04 +0.0000000000000000e+00 +9.9999996329689556e-01
-4.9499999999999904e+00 +8.5263229383447712e+00 +0.0000000000000000e+00 -4.9499999382471911e+00 +2.7370596845390904e-04 +0.0000000000000000e+00 +9.9999996254252044e-01
-4.9999999999999902e+00 +8.5263091837889391e+00 +0.0000000000000000e+00 -4.9999999363552972e+00 +2.7647629022616650e-04 +0.0000000000000000e+00 +9.9999996178042949e-01
-5.0499999999999901e+00 +8.5262952907132039e+00 +0.0000000000000000e+00 -5.0499999344251059e+00 +2.7924676474657545e-04 +0.0000000000000000e+00 +9.9999996101062116e-01
-5.0999999999999899e+00 +8.5262812591099042e+00 +0.0000000000000000e+00 -5.0999999324562308e+00 +2.8201739290380044e-04 +0.0000000000000000e+00 +9.9999996023309401e-01
-5.1499999999999897e+00 +8.5262670889713377e+00 +0.0000000000000000e+00 -5.1499999304482866e+00 +2.8478817557323993e-04 +0.0000000000000000e+00 +9.9999995944784648e-01
-5.1999999999999895e+00 +8.5262527802897576e+00 +0.0000000000000000e+00 -5.1999999284008869e+00 +2.8755911361702627e-04 +0.0000000000000000e+00 +9.9999995865487701e-01
-5.2499999999999893e+00 +8.5262383330573730e+00 +0.0000000000000000e+00 -5.2499999263136452e+00 +2.9033020788402563e-04 +0.0000000000000000e+00 +9.9999995785418405e-01
-5.2999999999999892e+00 +8.5262237472663518e+00 +0.0000000000000000e+00 -5.2999999241861762e+00 +2.9310145920983805e-04 +0.0000000000000000e+00 +9.9999995704576616e-01
-5.3499999999999890e+00 +8.5262090229088212e+00 +0.0000000000000000e+00 -5.3499999220180934e+00 +2.9587286841679732e-04 +0.0000000000000000e+00 +9.9999995622962168e-01
-5.3999999999999888e+00 +8.5261941599768658e+00 +0.0000000000000000e+00 -5.3999999198090096e+00 +2.9864443631397094e-04 +0.0000000000000000e+00 +9.9999995540574915e-01
-5.4499999999999886e+00 +8.5261791584625310e+00 +0.0000000000000000e+00 -5.4499999175585394e+00 +3.0141616369716009e-04 +0.0000000000000000e+00 +9.9999995457414692e-01
-5.4999999999999885e+00 +8.5261640183578251e+00 +0.0000000000000000e+00 -5.4999999152662955e+00 +3.0418805134889957e-04 +0.0000000000000000e+00 +9.9999995373481343e-01
-5.5499999999999883e+00 +8.5261487396547135e+00 +0.0000000000000000e+00 -5.5499999129318915e+00 +3.0696010003845788e-04 +0.0000000000000000e+00 +9.9999995288774712e-01
-5.5999999999999881e+00 +8.5261333223451246e+00 +0.0000000000000000e+00 -5.5999999105549412e+00 +3.0973231052183698e-04 +0.0000000000000000e+00 +9.9999995203294645e-01
-5.6499999999999879e+00 +8.5261177664209509e+00 +0.0000000000000000e+00 -5.6499999081350571e+00 +3.1250468354177241e-04 +0.0000000000000000e+00 +9.9999995117040985e-01
-5.6999999999999877e+00 +8.5261020718740479e+00 +0.0000000000000000e+00 -5.6999999056718531e+00 +3.1527721982773309e-04 +0.0000000000000000e+00 +9.9999995030013578e-01
-5.7499999999999876e+00 +8.5260862386962337e+00 +0.0000000000000000e+00 -5.7499999031649418e+00 +3.1804992009592143e-04 +0.0000000000000000e+00 +9.9999994942212256e-01
-5.7999999999999874e+00 +8.5260702668792927e+00 +0.0000000000000000e+00 -5.7999999006139360e+00 +3.2082278504927311e-04 +0.0000000000000000e+00 +9.9999994853636864e-01
-5.8499999999999872e+00 +8.5260541564149719e+00 +0.0000000000000000e+00 -5.8499998980184493e+00 +3.2359581537745716e-04 +0.0000000000000000e+00 +9.9999994764287248e-01
