# multipoles
# s[mm] polynom_b[n=0][T/m^n] polynom_b[n=1][T/m^n] polynom_b[n=2][T/m^n] polynom_b[n=3][T/m^n] polynom_b[n=4][T/m^n] polynom_b[n=5][T/m^n] polynom_b[n=6][T/m^n] 
+0.0000000000000000e+00 -5.5361689337695930e-01 +7.2599653392186294e+00 +4.7253065356571193e+00 -4.7394179347949699e+00 +1.9108414822777431e+04 -3.2942461836485373e+05 -1.3684430944926995e+08 
-5.0000000000000003e-02 -5.5361693485747276e-01 +7.2599343537008689e+00 +4.7261812781797872e+00 -4.7701341959452135e+00 +1.9122939962609882e+04 -3.2941808609834407e+05 -1.3700386923634040e+08 
-1.0000000000000001e-01 -5.5361733019019899e-01 +7.2599227472197470e+00 +4.7264716890089051e+00 -4.8001128037782506e+00 +1.9138294315865434e+04 -3.2939097465514095e+05 -1.3716108532253900e+08 
-1.5000000000000002e-01 -5.5361807882097858e-01 +7.2599304797357131e+00 +4.7261819730068959e+00 -4.8297712306993494e+00 +1.9154499888032791e+04 -3.2934013790151355e+05 -1.3731629971969667e+08 
-2.0000000000000001e-01 -5.5361918019564538e-01 +7.2599575112084684e+00 +4.7253163319487150e+00 -4.8595268845304123e+00 +1.9171578759674103e+04 -3.2926243025928701e+05 -1.3746985491884378e+08 
-2.5000000000000000e-01 -5.5362063376006365e-01 +7.2600038015995541e+00 +4.7238789690614045e+00 -4.8897972256054851e+00 +1.9189552980907705e+04 -3.2915470571462525e+05 -1.3762209323841825e+08 
-2.9999999999999999e-01 -5.5362243896010410e-01 +7.2600693108713941e+00 +4.7218740864148785e+00 -4.9209997043184126e+00 +1.9208444626792505e+04 -3.2901381840257981e+05 -1.3777335714194554e+08 
-3.4999999999999998e-01 -5.5362459524166274e-01 +7.2601539989850936e+00 +4.7193058871576818e+00 -4.9535516972887974e+00 +1.9228275748680830e+04 -3.2883662304718542e+05 -1.3792398895440441e+08 
-3.9999999999999997e-01 -5.5362710205065435e-01 +7.2602578259078197e+00 +4.7161785753789722e+00 -4.9878707813332355e+00 +1.9249068366125095e+04 -3.2861997281514085e+05 -1.3807433076186687e+08 
-4.4999999999999996e-01 -5.5362995883299593e-01 +7.2603807516032148e+00 +4.7124963521872560e+00 -5.0243743855914973e+00 +1.9270844585775001e+04 -3.2836072199813114e+05 -1.3822472526585415e+08 
-4.9999999999999994e-01 -5.5363316503463367e-01 +7.2605227360360729e+00 +4.7082634215830641e+00 -5.0634799293942541e+00 +1.9293626429676962e+04 -3.2805572509053047e+05 -1.3837551457281652e+08 
-5.4999999999999993e-01 -5.5363672010152343e-01 +7.2606837391739720e+00 +4.7034839859168756e+00 -5.1056049279793960e+00 +1.9317435969099781e+04 -3.2770183577945112e+05 -1.3852704113933057e+08 
-5.9999999999999998e-01 -5.5364062347964527e-01 +7.2608637209845401e+00 +4.6981622487701591e+00 -5.1511668713273870e+00 +1.9342295244113506e+04 -3.2729590795659763e+05 -1.3867964721976230e+08 
-6.5000000000000002e-01 -5.5364487461498924e-01 +7.2610626414345152e+00 +4.6923024133626887e+00 -5.2005831778238525e+00 +1.9368226297322162e+04 -3.2683479615151579e+05 -1.3883367505964619e+08 
-7.0000000000000007e-01 -5.5364947295356093e-01 +7.2612804604940910e+00 +4.6859086824221938e+00 -5.2542713840109814e+00 +1.9395251189945087e+04 -3.2631535391537915e+05 -1.3898946705197105e+08 
-7.5000000000000011e-01 -5.5365441794138326e-01 +7.2615171381327661e+00 +4.6789852588181606e+00 -5.3126489698964523e+00 +1.9423391979725846e+04 -3.2573443527553865e+05 -1.3914736556866887e+08 
-8.0000000000000016e-01 -5.5365970902449158e-01 +7.2617726343220088e+00 +4.6715363455418473e+00 -5.3761334700468479e+00 +1.9452670715032040e+04 -3.2508889381790883e+05 -1.3930771289630947e+08 
-8.5000000000000020e-01 -5.5366534564894532e-01 +7.2620469090315911e+00 +4.6635661455746735e+00 -5.4451423191016977e+00 +1.9483109456613623e+04 -3.2437558397785074e+05 -1.3947085145004198e+08 
-9.0000000000000024e-01 -5.5367132726081558e-01 +7.2623399222333118e+00 +4.6550788629285549e+00 -5.5200930092769491e+00 +1.9514730225121148e+04 -3.2359135971910652e+05 -1.3963712333384374e+08 
-9.5000000000000029e-01 -5.5367765330618912e-01 +7.2626516339019078e+00 +4.6460787002485411e+00 -5.6014031337558814e+00 +1.9547555086357665e+04 -3.2273307416054409e+05 -1.3980687098268542e+08 
-1.0000000000000002e+00 -5.5368432323118111e-01 +7.2629820040080419e+00 +4.6365698635194317e+00 -5.6894900858266313e+00 +1.9581606011132244e+04 -3.2179758210253122e+05 -1.3998043617968348e+08 
-1.0500000000000003e+00 -5.5369133648188373e-01 +7.2633309925273153e+00 +4.6265565510546915e+00 -5.7847714425410039e+00 +1.9616905181584625e+04 -3.2078173680861667e+05 -1.4015816214764467e+08 
-1.1000000000000003e+00 -5.5369869250445147e-01 +7.2636985594356105e+00 +4.6160429698608052e+00 -5.8876647708492529e+00 +1.9653474543496082e+04 -3.1968239162501891e+05 -1.4034039050976589e+08 
-1.1500000000000004e+00 -5.5370639074502348e-01 +7.2640846647062425e+00 +4.6050333215330532e+00 -5.9985874914125938e+00 +1.9691336188360601e+04 -3.1849640116987779e+05 -1.4052746387323183e+08 
-1.2000000000000004e+00 -5.5371443064978065e-01 +7.2644892683174387e+00 +4.5935318124032971e+00 -6.1179572316676918e+00 +1.9730512080685301e+04 -3.1722061824374646e+05 -1.4071972399321824e+08 
-1.2500000000000004e+00 -5.5372281166488646e-01 +7.2649123302448908e+00 +4.5815426427310637e+00 -6.2461914707922999e+00 +1.9771024350471649e+04 -3.1585189695632644e+05 -1.4091751374916989e+08 
-1.3000000000000005e+00 -5.5373153323655266e-01 +7.2653538104652320e+00 +4.5690700188739077e+00 -6.3837077181308226e+00 +1.9812894961837221e+04 -3.1438709111303219e+05 -1.4112117489611110e+08 
-1.3500000000000005e+00 -5.5374059481098348e-01 +7.2658136689581099e+00 +4.5561181431937667e+00 -6.5309235700125319e+00 +1.9856145987450531e+04 -3.1282305385552859e+05 -1.4133104992847118e+08 
-1.4000000000000006e+00 -5.5374999583440709e-01 +7.2662918656999906e+00 +4.5426912192455386e+00 -6.6882564912782607e+00 +1.9900799470646165e+04 -3.1115663932895800e+05 -1.4154748115291852e+08 
-1.4500000000000006e+00 -5.5375973575306447e-01 +7.2667883606714785e+00 +4.5287934510614765e+00 -6.8561240822016218e+00 +1.9946877435120939e+04 -3.0938470060218213e+05 -1.4177081072059315e+08 
-1.5000000000000007e+00 -5.5376981401322334e-01 +7.2673031138527460e+00 +4.5144290438600088e+00 -7.0349439036817829e+00 +1.9994401881738711e+04 -3.0750409107516194e+05 -1.4200138066540846e+08 
-1.5500000000000007e+00 -5.5378023006114807e-01 +7.2678360852247090e+00 +4.4996022001479643e+00 -7.2251335417100133e+00 +2.0043394879297099e+04 -3.0551166387454752e+05 -1.4223953346005723e+08 
-1.6000000000000008e+00 -5.5379098334313326e-01 +7.2683872347646226e+00 +4.4843171247794009e+00 -7.4271104095555804e+00 +2.0093878437091473e+04 -3.0340427354431892e+05 -1.4248561119341901e+08 
-1.6500000000000008e+00 -5.5380207330547726e-01 +7.2689565224557553e+00 +4.4685780214704698e+00 -7.6412921377553333e+00 +2.0145874589791292e+04 -3.0117877288878366e+05 -1.4273995610653743e+08 
-1.7000000000000008e+00 -5.5381349939450708e-01 +7.2695439082820252e+00 +4.4523890954580976e+00 -7.8680963758540132e+00 +2.0199405338741297e+04 -2.9883201447944460e+05 -1.4300291024636954e+08 
-1.7500000000000009e+00 -5.5382526105655205e-01 +7.2701493522232274e+00 +4.4357545501893680e+00 -8.1079405865517824e+00 +2.0254492732132505e+04 -2.9636085242830921e+05 -1.4327481597321102e+08 
-1.8000000000000009e+00 -5.5383735773796006e-01 +7.2707728142625090e+00 +4.4186785902733146e+00 -8.3612423557008402e+00 +2.0311158781462080e+04 -2.9376213980491413e+05 -1.4355601538060409e+08 
-1.8500000000000010e+00 -5.5384978888509784e-01 +7.2714142543838953e+00 +4.4011654204396136e+00 -8.6284192802755104e+00 +2.0369425502937618e+04 -2.9103272959241748e+05 -1.4384685062629354e+08 
-1.9000000000000010e+00 -5.5386255394434203e-01 +7.2720736325708009e+00 +4.3832192449123966e+00 -8.9098889298354251e+00 +2.0429314924657629e+04 -2.8816947493881680e+05 -1.4414766394393453e+08 
-1.9500000000000011e+00 -5.5387565236208891e-01 +7.2727509088079110e+00 +4.3648442690587075e+00 -9.2060689002456044e+00 +2.0490849040331519e+04 -2.8516922879455925e+05 -1.4445879732199937e+08 
-2.0000000000000009e+00 -5.5388908358474553e-01 +7.2734460430786605e+00 +4.3460446973036442e+00 -9.5173767246306671e+00 +2.0554049875686767e+04 -2.8202884457627288e+05 -1.4478059299399149e+08 
-2.0500000000000007e+00 -5.5390284683560553e-01 +7.2741589771342765e+00 +4.3268257259105933e+00 -9.8440589859640610e+00 +2.0618919158324356e+04 -2.7874646924037236e+05 -1.4511325898731273e+08 
-2.1000000000000005e+00 -5.5391694044537843e-01 +7.2748895735297507e+00 +4.3071970061918465e+00 -1.0185677082598522e+01 +2.0685373402832702e+04 -2.7532548988567572e+05 -1.4545643567168224e+08 
-2.1500000000000004e+00 -5.5393136252154285e-01 +7.2756376734482204e+00 +4.2871694227248520e+00 -1.0541621159793115e+01 +2.0753307156220388e+04 -2.7177062233167258e+05 -1.4580961597798768e+08 
-2.2000000000000002e+00 -5.5394611117165227e-01 +7.2764031180756987e+00 +4.2667538713328934e+00 -1.0911281455888867e+01 +2.0822614661105104e+04 -2.6808658169940114e+05 -1.4617229077768290e+08 
-2.2500000000000000e+00 -5.5396118450324028e-01 +7.2771857485950333e+00 +4.2459612414093240e+00 -1.1294048083798794e+01 +2.0893190344483333e+04 -2.6427808406377968e+05 -1.4654395222900945e+08 
-2.2999999999999998e+00 -5.5397658062384725e-01 +7.2779854061917426e+00 +4.2248024230104244e+00 -1.1689311253365123e+01 +2.0964928599310653e+04 -2.6034984468874388e+05 -1.4692409220019150e+08 
-2.3499999999999996e+00 -5.5399229764103941e-01 +7.2788019320473447e+00 +4.2032883076435068e+00 -1.2096460993690796e+01 +2.1037723791026532e+04 -2.5630658034734201e+05 -1.4731220241579482e+08 
-2.3999999999999995e+00 -5.5400833366238078e-01 +7.2796351673485775e+00 +4.1814297853328117e+00 -1.2514887542860743e+01 +2.1111470319310389e+04 -2.5215300605549122e+05 -1.4770777481459892e+08 
-2.4499999999999993e+00 -5.5402468679546124e-01 +7.2804849532796361e+00 +4.1592377483564169e+00 -1.2943981040809254e+01 +2.1186062524657813e+04 -2.4789383756102089e+05 -1.4811030093847466e+08 
-2.4999999999999991e+00 -5.5404135514786046e-01 +7.2813511310250023e+00 +4.1367230856105568e+00 -1.3383131619455826e+01 +2.1261394836511459e+04 -2.4353379070521196e+05 -1.4851927292199677e+08 
-2.5499999999999989e+00 -5.5405833682718386e-01 +7.2822335417695516e+00 +4.1138966884837123e+00 -1.3831729417749530e+01 +2.1337361620910404e+04 -2.3907758125450971e+05 -1.4893418248833898e+08 
-2.5999999999999988e+00 -5.5407562994104353e-01 +7.2831320266951671e+00 +4.0907694483496284e+00 -1.4289164464348671e+01 +2.1413857237357970e+04 -2.3452992579902671e+05 -1.4935452128941140e+08 
-2.6499999999999986e+00 -5.5409323259706345e-01 +7.2840464269886978e+00 +4.0673522564668732e+00 -1.4754826965792470e+01 +2.1490776053906924e+04 -2.2989553951533689e+05 -1.4977978105523482e+08 
-2.6999999999999984e+00 -5.5411114290285657e-01 +7.2849765838323792e+00 +4.0436560006080589e+00 -1.5228106952641216e+01 +2.1568012529178544e+04 -2.2517913892817753e+05 -1.5020945411521235e+08 
-2.7499999999999982e+00 -5.5412935896606530e-01 +7.2859223384123801e+00 +4.0196915723564901e+00 -1.5708394595970725e+01 +2.1645461019241950e+04 -2.2038543945833913e+05 -1.5064303210759974e+08 
-2.7999999999999980e+00 -5.5414787889435002e-01 +7.2868835319090302e+00 +3.9954698641632667e+00 -1.6195079848375464e+01 +2.1723015860083917e+04 -2.1551915819052843e+05 -1.5108000654605076e+08 
-2.8499999999999979e+00 -5.5416670079535102e-01 +7.2878600055076506e+00 +3.9710017646732476e+00 -1.6687552837384732e+01 +2.1800571478499565e+04 -2.1058501085505914e+05 -1.5151986951376194e+08 
-2.8999999999999977e+00 -5.5418582277673800e-01 +7.2888516003904877e+00 +3.9462981647731845e+00 -1.7185203595204541e+01 +2.1878022254721858e+04 -2.0558771380617391e+05 -1.5196211283186868e+08 
-2.9499999999999975e+00 -5.5420524294617945e-01 +7.2898581577409862e+00 +3.9213699544606815e+00 -1.7687422166446087e+01 +2.1955262583357726e+04 -2.0053198341562928e+05 -1.5240622838210326e+08 
-2.9999999999999973e+00 -5.5422495941135330e-01 +7.2908795187426811e+00 +3.8962280239960214e+00 -1.8193598625656055e+01 +2.2032186851828246e+04 -1.9542253565570063e+05 -1.5285170799735999e+08 
-3.0499999999999972e+00 -5.5424497027994846e-01 +7.2919155245754332e+00 +3.8708832636523214e+00 -1.8703122886843563e+01 +2.2108689451553273e+04 -1.9026408784244844e+05 -1.5329804355351534e+08 
-3.0999999999999970e+00 -5.5426527365965805e-01 +7.2929660164226426e+00 +3.8453465634942239e+00 -1.9215385017362674e+01 +2.2184664774458313e+04 -1.8506135595593537e+05 -1.5374472691115916e+08 
-3.1499999999999968e+00 -5.5428586765818144e-01 +7.2940308354664989e+00 +3.8196288134474621e+00 -1.9729775025038041e+01 +2.2260007212786153e+04 -1.7981905649168557e+05 -1.5419124991679403e+08 
-3.1999999999999966e+00 -5.5430675038322874e-01 +7.2951098228857409e+00 +3.7937409035289735e+00 -2.0245682788206061e+01 +2.2334611164318590e+04 -1.7454190692388915e+05 -1.5463710448789963e+08 
-3.2499999999999964e+00 -5.5432791994251751e-01 +7.2962028198624047e+00 +3.7676937243269792e+00 -2.0762498320508797e+01 +2.2408371004068933e+04 -1.6923462359830958e+05 -1.5508178235908449e+08 
-3.2999999999999963e+00 -5.5434937444377075e-01 +7.2973096675763447e+00 +3.7414981657295390e+00 -2.1279611551624622e+01 +2.2481181126134856e+04 -1.6390192349593641e+05 -1.5552477539123270e+08 
-3.3499999999999961e+00 -5.5437111199469924e-01 +7.2984302072070104e+00 +3.7151651145941895e+00 -2.1796412396051469e+01 +2.2552936006651376e+04 -1.5854852370975207e+05 -1.5596557600322452e+08 
-3.3999999999999959e+00 -5.5439313070305296e-01 +7.2995642799339171e+00 +3.6887054633006007e+00 -2.2312290779243977e+01 +2.2623529973586381e+04 -1.5317914117848763e+05 -1.5640367561597803e+08 
-3.4499999999999957e+00 -5.5441542867657223e-01 +7.3007117269353428e+00 +3.6621301015628922e+00 -2.2826636573126198e+01 +2.2692857422827754e+04 -1.4779849328107075e+05 -1.5683856609008032e+08 
-3.4999999999999956e+00 -5.5443800402298882e-01 +7.3018723893897537e+00 +3.6354499166081919e+00 -2.3338839677672144e+01 +2.2760812815802401e+04 -1.4241129706894193e+05 -1.5726973972507694e+08 
-3.5499999999999954e+00 -5.5446085485005892e-01 +7.3030461084727305e+00 +3.6086757984090547e+00 -2.3848289866644166e+01 +2.2827290544563584e+04 -1.3702227064881078e+05 -1.5769668836816862e+08 
-3.5999999999999952e+00 -5.5448397926554283e-01 +7.3042327253624038e+00 +3.5818186373692309e+00 -2.4354377038818225e+01 +2.2892184981671220e+04 -1.3163613100298707e+05 -1.5811890370437941e+08 
-3.6499999999999950e+00 -5.5450737537720118e-01 +7.3054320812336755e+00 +3.5548893224550611e+00 -2.4856490963646969e+01 +2.2955390542309011e+04 -1.2625759616032358e+05 -1.5853587772002396e+08 
-3.6999999999999948e+00 -5.5453104129278552e-01 +7.3066440172640048e+00 +3.5278987401547361e+00 -2.5354021520585960e+01 +2.3016801706129503e+04 -1.2089138320763675e+05 -1.5894710282682505e+08 
-3.7499999999999947e+00 -5.5455497512007579e-01 +7.3078683746249391e+00 +3.5008577814030741e+00 -2.5846358362694190e+01 +2.3076312830673043e+04 -1.1554221102966307e+05 -1.5935207060509104e+08 
-3.7999999999999945e+00 -5.5457917496684694e-01 +7.3091049944935156e+00 +3.4737773350442498e+00 -2.6332891370247765e+01 +2.3133818329353213e+04 -1.1021479662672395e+05 -1.5975027300595334e+08 
-3.8499999999999943e+00 -5.5460363894086917e-01 +7.3103537180398943e+00 +3.4466682883105513e+00 -2.6813010161729967e+01 +2.3189212660193582e+04 -1.0491385906943210e+05 -1.6014120228750813e+08 
-3.8999999999999941e+00 -5.5462836514992830e-01 +7.3116143864388290e+00 +3.4195415304488761e+00 -2.7286104552484087e+01 +2.3242390223404127e+04 -9.9644115769628508e+04 -1.6052435030267647e+08 
-3.9499999999999940e+00 -5.5465335170180496e-01 +7.3128868408586527e+00 +3.3924079491936041e+00 -2.7751564097256491e+01 +2.3293245457135181e+04 -9.4410286277749634e+04 -1.6089920914827660e+08 
-3.9999999999999938e+00 -5.5467859670429698e-01 +7.3141709224733367e+00 +3.3652784339229780e+00 -2.8208778608045151e+01 +2.3341672762260911e+04 -8.9217087900892409e+04 -1.6126527069297710e+08 
-4.0499999999999936e+00 -5.5470409812611554e-01 +7.3154664708956849e+00 +3.3381616928706346e+00 -2.8657235089918789e+01 +2.3387601553540957e+04 -8.4068735839251065e+04 -1.6162220250610933e+08 
-4.0999999999999934e+00 -5.5472985337969183e-01 +7.3167733130028862e+00 +3.3110578441577379e+00 -2.9096770922479156e+01 +2.3431106071964117e+04 -7.8967722641031403e+04 -1.6197039908848345e+08 
-4.1499999999999932e+00 -5.5475585973836239e-01 +7.3180912708711316e+00 +3.2839649066472583e+00 -2.9527302589741904e+01 +2.3472298000222367e+04 -7.3916184467477695e+04 -1.6231044280449805e+08 
-4.1999999999999931e+00 -5.5478211447545622e-01 +7.3194201665685297e+00 +3.2568808979106216e+00 -2.9948746244670669e+01 +2.3511289056935977e+04 -6.8916260301396498e+04 -1.6264291625758210e+08 
-4.2499999999999929e+00 -5.5480861486430055e-01 +7.3207598221697374e+00 +3.2298038344550744e+00 -3.0361018332930222e+01 +2.3548190990948544e+04 -6.3970086632241939e+04 -1.6296840225520229e+08 
-4.2999999999999927e+00 -5.5483535817824381e-01 +7.3221100597468549e+00 +3.2027317367538619e+00 -3.0764035164192521e+01 +2.3583115440642272e+04 -5.9079801219017158e+04 -1.6328748284354118e+08 
-4.3499999999999925e+00 -5.5486234169061865e-01 +7.3234707013717255e+00 +3.1756626221121724e+00 -3.1157713075061931e+01 +2.3616174132203716e+04 -5.4247541457217871e+04 -1.6360074066980326e+08 
-4.3999999999999924e+00 -5.5488956267475265e-01 +7.3248415691179316e+00 +3.1485945063703720e+00 -3.1541968460898477e+01 +2.3647478835034628e+04 -4.9475444332407562e+04 -1.6390875868300420e+08 
-4.4499999999999922e+00 -5.5491701840398544e-01 +7.3262224850588353e+00 +3.1215254077424417e+00 -3.1916717712000850e+01 +2.3677141250186047e+04 -4.4765646866927600e+04 -1.6421211935030672e+08 
-4.4999999999999920e+00 -5.5494470615165759e-01 +7.3276132712671513e+00 +3.0944533448384375e+00 -3.2281877209522776e+01 +2.3705273066333473e+04 -4.0120286135588329e+04 -1.6451140504792538e+08 
-4.5499999999999918e+00 -5.5497262319111007e-01 +7.3290137498128916e+00 +3.0673763355452026e+00 -3.2637363217506916e+01 +2.3731985999630873e+04 -3.5541500197790432e+04 -1.6480719836402100e+08 
-4.5999999999999917e+00 -5.5500076679566535e-01 +7.3304237427741690e+00 +3.0402923951555434e+00 -3.2983092340401058e+01 +2.3757391828113137e+04 -3.1031424324999989e+04 -1.6510008226978722e+08 
-4.6499999999999915e+00 -5.5502913423866096e-01 +7.3318430722206314e+00 +3.0131995414521295e+00 -3.3318980841272840e+01 +2.3781602266786460e+04 -2.6592196599371258e+04 -1.6539063932555985e+08 
-4.6999999999999913e+00 -5.5505772279343646e-01 +7.3332715602278693e+00 +2.9860957921751408e+00 -3.3644945241669660e+01 +2.3804729035852317e+04 -2.2225952941266569e+04 -1.6567945213579145e+08 
-4.7499999999999911e+00 -5.5508652973332573e-01 +7.3347090288685779e+00 +2.9589791651170270e+00 -3.3960901938059443e+01 +2.3826883846296136e+04 -1.7934830368127539e+04 -1.6596710321253684e+08 
-4.7999999999999909e+00 -5.5511555233164966e-01 +7.3361553002149131e+00 +2.9318476753752405e+00 -3.4266767318760301e+01 +2.3848178486238194e+04 -1.3720965935389049e+04 -1.6625417560040167e+08 
-4.8499999999999908e+00 -5.5514478786174670e-01 +7.3376101963436344e+00 +2.9046993413410607e+00 -3.4562457970047973e+01 +2.3868724657302606e+04 -9.5864950674556494e+03 -1.6654125176573110e+08 
-4.8999999999999906e+00 -5.5517423359692941e-01 +7.3390735393263764e+00 +2.8775321773233573e+00 -3.4847890264211614e+01 +2.3888634169155765e+04 -5.5335550066599362e+03 -1.6682891489392307e+08 
-4.9499999999999904e+00 -5.5520388681054422e-01 +7.3405451512364275e+00 +2.8503442037709443e+00 -3.5122980665333579e+01 +2.3908018665989839e+04 -1.5642821905041897e+03 -1.6711774704772052e+08 
-4.9999999999999902e+00 -5.5523374477589382e-01 +7.3420248541509219e+00 +2.8231334339495424e+00 -3.5387645792123635e+01 +2.3926989985153432e+04 +2.3191881756096441e+03 -1.6740833158874100e+08 
-5.0499999999999901e+00 -5.5526380476629944e-01 +7.3435124701415440e+00 +2.7958978847681322e+00 -3.5641802054216157e+01 +2.3945659868051451e+04 +6.1147191672178078e+03 -1.6770125123734382e+08 
