# trajectory
# s[mm] rx[mm] ry[mm] rz[mm] px[rad] py[rad] pz[rad]
0.0000000000000000e+00 +8.3650000000000002e+00 +0.0000000000000000e+00 +0.0000000000000000e+00 +0.0000000000000000e+00 +0.0000000000000000e+00 +1.0000000000000000e+00
-5.0000000000000003e-02 +8.3649999309516652e+00 +0.0000000000000000e+00 -4.9999999999936436e-02 +2.7619348053950826e-06 +0.0000000000000000e+00 +9.9999999999618583e-01
-1.0000000000000001e-01 +8.3649997238063634e+00 +0.0000000000000000e+00 -9.9999999999491440e-02 +5.5238789555819791e-06 +0.0000000000000000e+00 +9.9999999998474332e-01
-1.5000000000000002e-01 +8.3649993785635814e+00 +0.0000000000000000e+00 -1.4999999999828362e-01 +8.2858343176964299e-06 +0.0000000000000000e+00 +9.9999999996567246e-01
-2.0000000000000001e-01 +8.3649988952227137e+00 +0.0000000000000000e+00 -1.9999999999593154e-01 +1.1047802753864978e-05 +0.0000000000000000e+00 +9.9999999993897304e-01
-2.5000000000000000e-01 +8.3649982737830584e+00 +0.0000000000000000e+00 -2.4999999999205380e-01 +1.3809786121205064e-05 +0.0000000000000000e+00 +9.9999999990464494e-01
-2.9999999999999999e-01 +8.3649975142438215e+00 +0.0000000000000000e+00 -2.9999999998626892e-01 +1.6571786271825115e-05 +0.0000000000000000e+00 +9.9999999986268795e-01
-3.4999999999999998e-01 +8.3649966166041203e+00 +0.0000000000000000e+00 -3.4999999997819542e-01 +1.9333805052824635e-05 +0.0000000000000000e+00 +9.9999999981310195e-01
-3.9999999999999997e-01 +8.3649955808629759e+00 +0.0000000000000000e+00 -3.9999999996745195e-01 +2.2095844306294303e-05 +0.0000000000000000e+00 +9.9999999975588683e-01
-4.4999999999999996e-01 +8.3649944070193190e+00 +0.0000000000000000e+00 -4.4999999995365697e-01 +2.4857905869316041e-05 +0.0000000000000000e+00 +9.9999999969104225e-01
-4.9999999999999994e-01 +8.3649930950719877e+00 +0.0000000000000000e+00 -4.9999999993642902e-01 +2.7619991573963120e-05 +0.0000000000000000e+00 +9.9999999961856800e-01
-5.4999999999999993e-01 +8.3649916450197299e+00 +0.0000000000000000e+00 -5.4999999991538662e-01 +3.0382103247300241e-05 +0.0000000000000000e+00 +9.9999999953846386e-01
-5.9999999999999998e-01 +8.3649900568612008e+00 +0.0000000000000000e+00 -5.9999999989014818e-01 +3.3144242711383611e-05 +0.0000000000000000e+00 +9.9999999945072959e-01
-6.5000000000000002e-01 +8.3649883305949650e+00 +0.0000000000000000e+00 -6.4999999986033230e-01 +3.5906411783261045e-05 +0.0000000000000000e+00 +9.9999999935536477e-01
-7.0000000000000007e-01 +8.3649864662194986e+00 +0.0000000000000000e+00 -6.9999999982555750e-01 +3.8668612274972025e-05 +0.0000000000000000e+00 +9.9999999925236915e-01
-7.5000000000000011e-01 +8.3649844637331849e+00 +0.0000000000000000e+00 -7.4999999978544207e-01 +4.1430845993547807e-05 +0.0000000000000000e+00 +9.9999999914174242e-01
-8.0000000000000016e-01 +8.3649823231343170e+00 +0.0000000000000000e+00 -7.9999999973960456e-01 +4.4193114741011474e-05 +0.0000000000000000e+00 +9.9999999902348424e-01
-8.5000000000000020e-01 +8.3649800444210971e+00 +0.0000000000000000e+00 -8.4999999968766327e-01 +4.6955420314378043e-05 +0.0000000000000000e+00 +9.9999999889759417e-01
-9.0000000000000024e-01 +8.3649776275916405e+00 +0.0000000000000000e+00 -8.9999999962923671e-01 +4.9717764505654527e-05 +0.0000000000000000e+00 +9.9999999876407186e-01
-9.5000000000000029e-01 +8.3649750726439720e+00 +0.0000000000000000e+00 -9.4999999956394321e-01 +5.2480149101840018e-05 +0.0000000000000000e+00 +9.9999999862291689e-01
-1.0000000000000002e+00 +8.3649723795760274e+00 +0.0000000000000000e+00 -9.9999999949140117e-01 +5.5242575884925763e-05 +0.0000000000000000e+00 +9.9999999847412879e-01
-1.0500000000000003e+00 +8.3649695483856519e+00 +0.0000000000000000e+00 -1.0499999994112288e+00 +5.8005046631895236e-05 +0.0000000000000000e+00 +9.9999999831770714e-01
-1.1000000000000003e+00 +8.3649665790706020e+00 +0.0000000000000000e+00 -1.0999999993230445e+00 +6.0767563114724212e-05 +0.0000000000000000e+00 +9.9999999815365148e-01
-1.1500000000000004e+00 +8.3649634716285490e+00 +0.0000000000000000e+00 -1.1499999992264667e+00 +6.3530127100380862e-05 +0.0000000000000000e+00 +9.9999999798196137e-01
-1.2000000000000004e+00 +8.3649602260570717e+00 +0.0000000000000000e+00 -1.1999999991211134e+00 +6.6292740350825779e-05 +0.0000000000000000e+00 +9.9999999780263615e-01
-1.2500000000000004e+00 +8.3649568423536635e+00 +0.0000000000000000e+00 -1.2499999990066031e+00 +6.9055404623012093e-05 +0.0000000000000000e+00 +9.9999999761567537e-01
-1.3000000000000005e+00 +8.3649533205157294e+00 +0.0000000000000000e+00 -1.2999999988825537e+00 +7.1818121668885534e-05 +0.0000000000000000e+00 +9.9999999742107848e-01
-1.3500000000000005e+00 +8.3649496605405869e+00 +0.0000000000000000e+00 -1.3499999987485836e+00 +7.4580893235384483e-05 +0.0000000000000000e+00 +9.9999999721884492e-01
-1.4000000000000006e+00 +8.3649458624254667e+00 +0.0000000000000000e+00 -1.3999999986043108e+00 +7.7343721064440044e-05 +0.0000000000000000e+00 +9.9999999700897413e-01
-1.4500000000000006e+00 +8.3649419261675124e+00 +0.0000000000000000e+00 -1.4499999984493537e+00 +8.0106606892976122e-05 +0.0000000000000000e+00 +9.9999999679146545e-01
-1.5000000000000007e+00 +8.3649378517637807e+00 +0.0000000000000000e+00 -1.4999999982833301e+00 +8.2869552452909478e-05 +0.0000000000000000e+00 +9.9999999656631833e-01
-1.5500000000000007e+00 +8.3649336392112428e+00 +0.0000000000000000e+00 -1.5499999981058581e+00 +8.5632559471149824e-05 +0.0000000000000000e+00 +9.9999999633353209e-01
-1.6000000000000008e+00 +8.3649292885067812e+00 +0.0000000000000000e+00 -1.5999999979165558e+00 +8.8395629669599823e-05 +0.0000000000000000e+00 +9.9999999609310608e-01
-1.6500000000000008e+00 +8.3649247996471949e+00 +0.0000000000000000e+00 -1.6499999977150412e+00 +9.1158764765155239e-05 +0.0000000000000000e+00 +9.9999999584503951e-01
-1.7000000000000008e+00 +8.3649201726291960e+00 +0.0000000000000000e+00 -1.6999999975009323e+00 +9.3921966469704909e-05 +0.0000000000000000e+00 +9.9999999558933184e-01
-1.7500000000000009e+00 +8.3649154074494110e+00 +0.0000000000000000e+00 -1.7499999972738469e+00 +9.6685236490130877e-05 +0.0000000000000000e+00 +9.9999999532598227e-01
-1.8000000000000009e+00 +8.3649105041043814e+00 +0.0000000000000000e+00 -1.7999999970334031e+00 +9.9448576528308398e-05 +0.0000000000000000e+00 +9.9999999505499004e-01
-1.8500000000000010e+00 +8.3649054625905634e+00 +0.0000000000000000e+00 -1.8499999967792184e+00 +1.0221198828110604e-04 +0.0000000000000000e+00 +9.9999999477635448e-01
-1.9000000000000010e+00 +8.3649002829043297e+00 +0.0000000000000000e+00 -1.8999999965109111e+00 +1.0497547344038572e-04 +0.0000000000000000e+00 +9.9999999449007471e-01
-1.9500000000000011e+00 +8.3648949650419677e+00 +0.0000000000000000e+00 -1.9499999962280985e+00 +1.0773903369300277e-04 +0.0000000000000000e+00 +9.9999999419615004e-01
-2.0000000000000009e+00 +8.3648895089996813e+00 +0.0000000000000000e+00 -1.9999999959303987e+00 +1.1050267072080596e-04 +0.0000000000000000e+00 +9.9999999389457961e-01
-2.0500000000000007e+00 +8.3648839147735892e+00 +0.0000000000000000e+00 -2.0499999956174291e+00 +1.1326638620039242e-04 +0.0000000000000000e+00 +9.9999999358536262e-01
-2.1000000000000005e+00 +8.3648781823597265e+00 +0.0000000000000000e+00 -2.0999999952888073e+00 +1.1603018180041053e-04 +0.0000000000000000e+00 +9.9999999326849820e-01
-2.1500000000000004e+00 +8.3648723117540467e+00 +0.0000000000000000e+00 -2.1499999949441513e+00 +1.1879405917886282e-04 +0.0000000000000000e+00 +9.9999999294398545e-01
-2.2000000000000002e+00 +8.3648663029524180e+00 +0.0000000000000000e+00 -2.1999999945830786e+00 +1.2155801998286094e-04 +0.0000000000000000e+00 +9.9999999261182360e-01
-2.2500000000000000e+00 +8.3648601559506304e+00 +0.0000000000000000e+00 -2.2499999942052065e+00 +1.2432206584862558e-04 +0.0000000000000000e+00 +9.9999999227201164e-01
-2.2999999999999998e+00 +8.3648538707443887e+00 +0.0000000000000000e+00 -2.2999999938101525e+00 +1.2708619840148664e-04 +0.0000000000000000e+00 +9.9999999192454880e-01
-2.3499999999999996e+00 +8.3648474473293177e+00 +0.0000000000000000e+00 -2.3499999933975340e+00 +1.2985041925588320e-04 +0.0000000000000000e+00 +9.9999999156943398e-01
-2.3999999999999995e+00 +8.3648408857009642e+00 +0.0000000000000000e+00 -2.3999999929669684e+00 +1.3261473001536362e-04 +0.0000000000000000e+00 +9.9999999120666638e-01
-2.4499999999999993e+00 +8.3648341858547912e+00 +0.0000000000000000e+00 -2.4499999925180731e+00 +1.3537913227258560e-04 +0.0000000000000000e+00 +9.9999999083624491e-01
-2.4999999999999991e+00 +8.3648273477861856e+00 +0.0000000000000000e+00 -2.4999999920504652e+00 +1.3814362760931616e-04 +0.0000000000000000e+00 +9.9999999045816867e-01
-2.5499999999999989e+00 +8.3648203714904525e+00 +0.0000000000000000e+00 -2.5499999915637623e+00 +1.4090821759643179e-04 +0.0000000000000000e+00 +9.9999999007243667e-01
-2.5999999999999988e+00 +8.3648132569628224e+00 +0.0000000000000000e+00 -2.5999999910575813e+00 +1.4367290379391838e-04 +0.0000000000000000e+00 +9.9999998967904791e-01
-2.6499999999999986e+00 +8.3648060041984440e+00 +0.0000000000000000e+00 -2.6499999905315392e+00 +1.4643768775087141e-04 +0.0000000000000000e+00 +9.9999998927800138e-01
-2.6999999999999984e+00 +8.3647986131923915e+00 +0.0000000000000000e+00 -2.6999999899852534e+00 +1.4920257100549590e-04 +0.0000000000000000e+00 +9.9999998886929597e-01
-2.7499999999999982e+00 +8.3647910839396626e+00 +0.0000000000000000e+00 -2.7499999894183409e+00 +1.5196755508510644e-04 +0.0000000000000000e+00 +9.9999998845293070e-01
-2.7999999999999980e+00 +8.3647834164351771e+00 +0.0000000000000000e+00 -2.7999999888304186e+00 +1.5473264150612733e-04 +0.0000000000000000e+00 +9.9999998802890444e-01
-2.8499999999999979e+00 +8.3647756106737816e+00 +0.0000000000000000e+00 -2.8499999882211036e+00 +1.5749783177409257e-04 +0.0000000000000000e+00 +9.9999998759721609e-01
-2.8999999999999977e+00 +8.3647676666502448e+00 +0.0000000000000000e+00 -2.8999999875900127e+00 +1.6026312738364587e-04 +0.0000000000000000e+00 +9.9999998715786464e-01
-2.9499999999999975e+00 +8.3647595843592626e+00 +0.0000000000000000e+00 -2.9499999869367626e+00 +1.6302852981854075e-04 +0.0000000000000000e+00 +9.9999998671084889e-01
-2.9999999999999973e+00 +8.3647513637954578e+00 +0.0000000000000000e+00 -2.9999999862609701e+00 +1.6579404055164056e-04 +0.0000000000000000e+00 +9.9999998625616771e-01
-3.0499999999999972e+00 +8.3647430049533789e+00 +0.0000000000000000e+00 -3.0499999855622519e+00 +1.6855966104491852e-04 +0.0000000000000000e+00 +9.9999998579381999e-01
-3.0999999999999970e+00 +8.3647345078274995e+00 +0.0000000000000000e+00 -3.0999999848402244e+00 +1.7132539274945780e-04 +0.0000000000000000e+00 +9.9999998532380452e-01
-3.1499999999999968e+00 +8.3647258724122260e+00 +0.0000000000000000e+00 -3.1499999840945043e+00 +1.7409123710545145e-04 +0.0000000000000000e+00 +9.9999998484612018e-01
-3.1999999999999966e+00 +8.3647170987018882e+00 +0.0000000000000000e+00 -3.1999999833247084e+00 +1.7685719554220262e-04 +0.0000000000000000e+00 +9.9999998436076576e-01
-3.2499999999999964e+00 +8.3647081866907467e+00 +0.0000000000000000e+00 -3.2499999825304529e+00 +1.7962326947812442e-04 +0.0000000000000000e+00 +9.9999998386774014e-01
-3.2999999999999963e+00 +8.3646991363729910e+00 +0.0000000000000000e+00 -3.2999999817113546e+00 +1.8238946032074005e-04 +0.0000000000000000e+00 +9.9999998336704199e-01
-3.3499999999999961e+00 +8.3646899477427414e+00 +0.0000000000000000e+00 -3.3499999808670293e+00 +1.8515576946668281e-04 +0.0000000000000000e+00 +9.9999998285867009e-01
-3.3999999999999959e+00 +8.3646806207940489e+00 +0.0000000000000000e+00 -3.3999999799970935e+00 +1.8792219830169617e-04 +0.0000000000000000e+00 +9.9999998234262322e-01
-3.4499999999999957e+00 +8.3646711555208935e+00 +0.0000000000000000e+00 -3.4499999791011637e+00 +1.9068874820063377e-04 +0.0000000000000000e+00 +9.9999998181890015e-01
-3.4999999999999956e+00 +8.3646615519171874e+00 +0.0000000000000000e+00 -3.4999999781788556e+00 +1.9345542052745946e-04 +0.0000000000000000e+00 +9.9999998128749967e-01
-3.5499999999999954e+00 +8.3646518099767775e+00 +0.0000000000000000e+00 -3.5499999772297857e+00 +1.9622221663524736e-04 +0.0000000000000000e+00 +9.9999998074842034e-01
-3.5999999999999952e+00 +8.3646419296934393e+00 +0.0000000000000000e+00 -3.5999999762535695e+00 +1.9898913786618185e-04 +0.0000000000000000e+00 +9.9999998020166103e-01
-3.6499999999999950e+00 +8.3646319110608829e+00 +0.0000000000000000e+00 -3.6499999752498233e+00 +2.0175618555155764e-04 +0.0000000000000000e+00 +9.9999997964722032e-01
-3.6999999999999948e+00 +8.3646217540727541e+00 +0.0000000000000000e+00 -3.6999999742181631e+00 +2.0452336101177976e-04 +0.0000000000000000e+00 +9.9999997908509686e-01
-3.7499999999999947e+00 +8.3646114587226297e+00 +0.0000000000000000e+00 -3.7499999731582045e+00 +2.0729066555636366e-04 +0.0000000000000000e+00 +9.9999997851528943e-01
-3.7999999999999945e+00 +8.3646010250040241e+00 +0.0000000000000000e+00 -3.7999999720695636e+00 +2.1005810048393519e-04 +0.0000000000000000e+00 +9.9999997793779660e-01
-3.8499999999999943e+00 +8.3645904529103863e+00 +0.0000000000000000e+00 -3.8499999709518562e+00 +2.1282566708223061e-04 +0.0000000000000000e+00 +9.9999997735261714e-01
-3.8999999999999941e+00 +8.3645797424351009e+00 +0.0000000000000000e+00 -3.8999999698046972e+00 +2.1559336662809665e-04 +0.0000000000000000e+00 +9.9999997675974950e-01
-3.9499999999999940e+00 +8.3645688935714873e+00 +0.0000000000000000e+00 -3.9499999686277030e+00 +2.1836120038749054e-04 +0.0000000000000000e+00 +9.9999997615919245e-01
-3.9999999999999938e+00 +8.3645579063128039e+00 +0.0000000000000000e+00 -3.9999999674204885e+00 +2.2112916961548003e-04 +0.0000000000000000e+00 +9.9999997555094455e-01
-4.0499999999999936e+00 +8.3645467806522475e+00 +0.0000000000000000e+00 -4.0499999661826696e+00 +2.2389727555615832e-04 +0.0000000000000000e+00 +9.9999997493500437e-01
-4.0999999999999934e+00 +8.3645355165829507e+00 +0.0000000000000000e+00 -4.0999999649138612e+00 +2.2666551944170775e-04 +0.0000000000000000e+00 +9.9999997431137044e-01
-4.1499999999999932e+00 +8.3645241140979856e+00 +0.0000000000000000e+00 -4.1499999636136788e+00 +2.2943390249146353e-04 +0.0000000000000000e+00 +9.9999997368004145e-01
-4.1999999999999931e+00 +8.3645125731903622e+00 +0.0000000000000000e+00 -4.1999999622817370e+00 +2.3220242591182868e-04 +0.0000000000000000e+00 +9.9999997304101595e-01
-4.2499999999999929e+00 +8.3645008938530339e+00 +0.0000000000000000e+00 -4.2499999609176520e+00 +2.3497109089627404e-04 +0.0000000000000000e+00 +9.9999997239429250e-01
-4.2999999999999927e+00 +8.3644890760788932e+00 +0.0000000000000000e+00 -4.2999999595210383e+00 +2.3773989862533820e-04 +0.0000000000000000e+00 +9.9999997173986954e-01
-4.3499999999999925e+00 +8.3644771198607728e+00 +0.0000000000000000e+00 -4.3499999580915105e+00 +2.4050885026662759e-04 +0.0000000000000000e+00 +9.9999997107774574e-01
-4.3999999999999924e+00 +8.3644650251914481e+00 +0.0000000000000000e+00 -4.3999999566286840e+00 +2.4327794697481648e-04 +0.0000000000000000e+00 +9.9999997040791955e-01
-4.4499999999999922e+00 +8.3644527920636378e+00 +0.0000000000000000e+00 -4.4499999551321743e+00 +2.4604718989164689e-04 +0.0000000000000000e+00 +9.9999996973038940e-01
-4.4999999999999920e+00 +8.3644404204700038e+00 +0.0000000000000000e+00 -4.4999999536015949e+00 +2.4881658014592870e-04 +0.0000000000000000e+00 +9.9999996904515398e-01
-4.5499999999999918e+00 +8.3644279104031494e+00 +0.0000000000000000e+00 -4.5499999520365613e+00 +2.5158611885353963e-04 +0.0000000000000000e+00 +9.9999996835221161e-01
-4.5999999999999917e+00 +8.3644152618556262e+00 +0.0000000000000000e+00 -4.5999999504366880e+00 +2.5435580711742519e-04 +0.0000000000000000e+00 +9.9999996765156085e-01
-4.6499999999999915e+00 +8.3644024748199275e+00 +0.0000000000000000e+00 -4.6499999488015895e+00 +2.5712564602759874e-04 +0.0000000000000000e+00 +9.9999996694320026e-01
-4.6999999999999913e+00 +8.3643895492884948e+00 +0.0000000000000000e+00 -4.6999999471308795e+00 +2.5989563666114145e-04 +0.0000000000000000e+00 +9.9999996622712817e-01
-4.7499999999999911e+00 +8.3643764852537146e+00 +0.0000000000000000e+00 -4.7499999454241735e+00 +2.6266578008220232e-04 +0.0000000000000000e+00 +9.9999996550334314e-01
-4.7999999999999909e+00 +8.3643632827079220e+00 +0.0000000000000000e+00 -4.7999999436810850e+00 +2.6543607734199812e-04 +0.0000000000000000e+00 +9.9999996477184350e-01
-4.8499999999999908e+00 +8.3643499416433986e+00 +0.0000000000000000e+00 -4.8499999419012285e+00 +2.6820652947881344e-04 +0.0000000000000000e+00 +9.9999996403262781e-01
-4.8999999999999906e+00 +8.3643364620523748e+00 +0.0000000000000000e+00 -4.8999999400842187e+00 +2.7097713751800072e-04 +0.0000000000000000e+00 +9.9999996328569452e-01
-4.9499999999999904e+00 +8.3643228439270310e+00 +0.0000000000000000e+00 -4.9499999382296691e+00 +2.7374790247198009e-04 +0.0000000000000000e+00 +9.9999996253104195e-01
-4.9999999999999902e+00 +8.3643090872594961e+00 +0.0000000000000000e+00 -4.9999999363371943e+00 +2.7651882534023958e-04 +0.0000000000000000e+00 +9.9999996176866857e-01
-5.0499999999999901e+00 +8.3642951920418493e+00 +0.0000000000000000e+00 -5.0499999344064079e+00 +2.7928990710933497e-04 +0.0000000000000000e+00 +9.9999996099857280e-01
-5.0999999999999899e+00 +8.3642811582661203e+00 +0.0000000000000000e+00 -5.0999999324369236e+00 +2.8206114875288973e-04 +0.0000000000000000e+00 +9.9999996022075310e-01
-5.1499999999999897e+00 +8.3642669859242922e+00 +0.0000000000000000e+00 -5.1499999304283550e+00 +2.8483255123159515e-04 +0.0000000000000000e+00 +9.9999995943520781e-01
-5.1999999999999895e+00 +8.3642526750083004e+00 +0.0000000000000000e+00 -5.1999999283803158e+00 +2.8760411549321016e-04 +0.0000000000000000e+00 +9.9999995864193525e-01
-5.2499999999999893e+00 +8.3642382255100305e+00 +0.0000000000000000e+00 -5.2499999262924195e+00 +2.9037584247256155e-04 +0.0000000000000000e+00 +9.9999995784093387e-01
-5.2999999999999892e+00 +8.3642236374213255e+00 +0.0000000000000000e+00 -5.2999999241642799e+00 +2.9314773309154369e-04 +0.0000000000000000e+00 +9.9999995703220212e-01
-5.3499999999999890e+00 +8.3642089107339785e+00 +0.0000000000000000e+00 -5.3499999219955106e+00 +2.9591978825911874e-04 +0.0000000000000000e+00 +9.9999995621573823e-01
-5.3999999999999888e+00 +8.3641940454397421e+00 +0.0000000000000000e+00 -5.3999999197857251e+00 +2.9869200887131642e-04 +0.0000000000000000e+00 +9.9999995539154063e-01
-5.4499999999999886e+00 +8.3641790415303205e+00 +0.0000000000000000e+00 -5.4499999175345364e+00 +3.0146439581123420e-04 +0.0000000000000000e+00 +9.9999995455960766e-01
-5.4999999999999885e+00 +8.3641638989973757e+00 +0.0000000000000000e+00 -5.4999999152415571e+00 +3.0423694994903707e-04 +0.0000000000000000e+00 +9.9999995371993777e-01
-5.5499999999999883e+00 +8.3641486178325248e+00 +0.0000000000000000e+00 -5.5499999129064008e+00 +3.0700967214195767e-04 +0.0000000000000000e+00 +9.9999995287252919e-01
-5.5999999999999881e+00 +8.3641331980273463e+00 +0.0000000000000000e+00 -5.5999999105286804e+00 +3.0978256323429621e-04 +0.0000000000000000e+00 +9.9999995201738034e-01
-5.6499999999999879e+00 +8.3641176395733723e+00 +0.0000000000000000e+00 -5.6499999081080094e+00 +3.1255562405742049e-04 +0.0000000000000000e+00 +9.9999995115448947e-01
-5.6999999999999877e+00 +8.3641019424620975e+00 +0.0000000000000000e+00 -5.6999999056440007e+00 +3.1532885542976579e-04 +0.0000000000000000e+00 +9.9999995028385491e-01
-5.7499999999999876e+00 +8.3640861066849741e+00 +0.0000000000000000e+00 -5.7499999031362661e+00 +3.1810225815683495e-04 +0.0000000000000000e+00 +9.9999994940547510e-01
-5.7999999999999874e+00 +8.3640701322334134e+00 +0.0000000000000000e+00 -5.7999999005844192e+00 +3.2087583303119820e-04 +0.0000000000000000e+00 +9.9999994851934826e-01
-5.8499999999999872e+00 +8.3640540190987895e+00 +0.0000000000000000e+00 -5.8499998979880719e+00 +3.2364958083249323e-04 +0.0000000000000000e+00 +9.9999994762547273e-01
