# trajectory
# s[mm] rx[mm] ry[mm] rz[mm] px[rad] py[rad] pz[rad]
0.0000000000000000e+00 +8.5389999999999997e+00 +0.0000000000000000e+00 +0.0000000000000000e+00 +0.0000000000000000e+00 +0.0000000000000000e+00 +1.0000000000000000e+00
5.0000000000000003e-02 +8.5389999311313769e+00 +0.0000000000000000e+00 +4.9999999999936762e-02 -2.7547449923756318e-06 +0.0000000000000000e+00 +9.9999999999620570e-01
1.0000000000000001e-01 +8.5389997245254730e+00 +0.0000000000000000e+00 +9.9999999999494091e-02 -5.5094916182676093e-06 +0.0000000000000000e+00 +9.9999999998482281e-01
1.5000000000000002e-01 +8.5389993801821547e+00 +0.0000000000000000e+00 +1.4999999999829255e-01 -8.2642418895845775e-06 +0.0000000000000000e+00 +9.9999999996585121e-01
2.0000000000000001e-01 +8.5389988981011893e+00 +0.0000000000000000e+00 +1.9999999999595272e-01 -1.1018997814606992e-05 +0.0000000000000000e+00 +9.9999999993929090e-01
2.5000000000000000e-01 +8.5389982782822447e+00 +0.0000000000000000e+00 +2.4999999999209516e-01 -1.3773761397987216e-05 +0.0000000000000000e+00 +9.9999999990514177e-01
2.9999999999999999e-01 +8.5389975207248874e+00 +0.0000000000000000e+00 +2.9999999998634042e-01 -1.6528534640749619e-05 +0.0000000000000000e+00 +9.9999999986340382e-01
3.4999999999999998e-01 +8.5389966254285863e+00 +0.0000000000000000e+00 +3.4999999997830905e-01 -1.9283319540290673e-05 +0.0000000000000000e+00 +9.9999999981407683e-01
3.9999999999999997e-01 +8.5389955923927072e+00 +0.0000000000000000e+00 +3.9999999996762159e-01 -2.2038118090379043e-05 +0.0000000000000000e+00 +9.9999999975716070e-01
4.4999999999999996e-01 +8.5389944216165166e+00 +0.0000000000000000e+00 +4.4999999995389861e-01 -2.4792932281155692e-05 +0.0000000000000000e+00 +9.9999999969265529e-01
4.9999999999999994e-01 +8.5389931130991847e+00 +0.0000000000000000e+00 +4.9999999993676064e-01 -2.7547764099133960e-05 +0.0000000000000000e+00 +9.9999999962056041e-01
5.4999999999999993e-01 +8.5389916668397792e+00 +0.0000000000000000e+00 +5.4999999991582815e-01 -3.0302615527199667e-05 +0.0000000000000000e+00 +9.9999999954087582e-01
5.9999999999999998e-01 +8.5389900828372713e+00 +0.0000000000000000e+00 +5.9999999989072172e-01 -3.3057488544611204e-05 +0.0000000000000000e+00 +9.9999999945360130e-01
6.5000000000000002e-01 +8.5389883610905315e+00 +0.0000000000000000e+00 +6.4999999986106183e-01 -3.5812385126999629e-05 +0.0000000000000000e+00 +9.9999999935873662e-01
7.0000000000000007e-01 +8.5389865015983322e+00 +0.0000000000000000e+00 +6.9999999982646888e-01 -3.8567307246368754e-05 +0.0000000000000000e+00 +9.9999999925628147e-01
7.5000000000000011e-01 +8.5389845043593482e+00 +0.0000000000000000e+00 +7.4999999978656340e-01 -4.1322256871095231e-05 +0.0000000000000000e+00 +9.9999999914623561e-01
8.0000000000000016e-01 +8.5389823693721549e+00 +0.0000000000000000e+00 +7.9999999974096592e-01 -4.4077235965928653e-05 +0.0000000000000000e+00 +9.9999999902859871e-01
8.5000000000000020e-01 +8.5389800966352283e+00 +0.0000000000000000e+00 +8.4999999968929674e-01 -4.6832246491991628e-05 +0.0000000000000000e+00 +9.9999999890337044e-01
9.0000000000000024e-01 +8.5389776861469482e+00 +0.0000000000000000e+00 +8.9999999963117638e-01 -4.9587290406779880e-05 +0.0000000000000000e+00 +9.9999999877055046e-01
9.5000000000000029e-01 +8.5389751379055969e+00 +0.0000000000000000e+00 +9.4999999956622527e-01 -5.2342369664162340e-05 +0.0000000000000000e+00 +9.9999999863013833e-01
1.0000000000000002e+00 +8.5389724519093591e+00 +0.0000000000000000e+00 +9.9999999949406371e-01 -5.5097486214381214e-05 +0.0000000000000000e+00 +9.9999999848213372e-01
1.0500000000000003e+00 +8.5389696281563214e+00 +0.0000000000000000e+00 +1.0499999994143121e+00 -5.7852642004052094e-05 +0.0000000000000000e+00 +9.9999999832653608e-01
1.1000000000000003e+00 +8.5389666666444732e+00 +0.0000000000000000e+00 +1.0999999993265908e+00 -6.0607838976164031e-05 +0.0000000000000000e+00 +9.9999999816334506e-01
1.1500000000000004e+00 +8.5389635673717059e+00 +0.0000000000000000e+00 +1.1499999992305201e+00 -6.3363079070079609e-05 +0.0000000000000000e+00 +9.9999999799256023e-01
1.2000000000000004e+00 +8.5389603303358150e+00 +0.0000000000000000e+00 +1.1999999991257202e+00 -6.6118364221535059e-05 +0.0000000000000000e+00 +9.9999999781418103e-01
1.2500000000000004e+00 +8.5389569555345002e+00 +0.0000000000000000e+00 +1.2499999990118116e+00 -6.8873696362640311e-05 +0.0000000000000000e+00 +9.9999999762820702e-01
1.3000000000000005e+00 +8.5389534429653633e+00 +0.0000000000000000e+00 +1.2999999988884143e+00 -7.1629077421879103e-05 +0.0000000000000000e+00 +9.9999999743463763e-01
1.3500000000000005e+00 +8.5389497926259104e+00 +0.0000000000000000e+00 +1.3499999987551488e+00 -7.4384509324109050e-05 +0.0000000000000000e+00 +9.9999999723347244e-01
1.4000000000000006e+00 +8.5389460045135515e+00 +0.0000000000000000e+00 +1.3999999986116349e+00 -7.7139993990561729e-05 +0.0000000000000000e+00 +9.9999999702471076e-01
1.4500000000000006e+00 +8.5389420786256007e+00 +0.0000000000000000e+00 +1.4499999984574932e+00 -7.9895533338842755e-05 +0.0000000000000000e+00 +9.9999999680835194e-01
1.5000000000000007e+00 +8.5389380149592746e+00 +0.0000000000000000e+00 +1.4999999982923435e+00 -8.2651129282931859e-05 +0.0000000000000000e+00 +9.9999999658439553e-01
1.5500000000000007e+00 +8.5389338135116972e+00 +0.0000000000000000e+00 +1.5499999981158061e+00 -8.5406783733182995e-05 +0.0000000000000000e+00 +9.9999999635284076e-01
1.6000000000000008e+00 +8.5389294742798949e+00 +0.0000000000000000e+00 +1.5999999979275010e+00 -8.8162498596324384e-05 +0.0000000000000000e+00 +9.9999999611368706e-01
1.6500000000000008e+00 +8.5389249972607999e+00 +0.0000000000000000e+00 +1.6499999977270483e+00 -9.0918275775458621e-05 +0.0000000000000000e+00 +9.9999999586693367e-01
1.7000000000000008e+00 +8.5389203824512485e+00 +0.0000000000000000e+00 +1.6999999975140678e+00 -9.3674117170062726e-05 +0.0000000000000000e+00 +9.9999999561258002e-01
1.7500000000000009e+00 +8.5389156298479811e+00 +0.0000000000000000e+00 +1.7499999972881797e+00 -9.6430024675988246e-05 +0.0000000000000000e+00 +9.9999999535062534e-01
1.8000000000000009e+00 +8.5389107394476476e+00 +0.0000000000000000e+00 +1.7999999970490037e+00 -9.9186000185461301e-05 +0.0000000000000000e+00 +9.9999999508106885e-01
1.8500000000000010e+00 +8.5389057112467981e+00 +0.0000000000000000e+00 +1.8499999967961598e+00 -1.0194204558708270e-04 +0.0000000000000000e+00 +9.9999999480390989e-01
1.9000000000000010e+00 +8.5389005452418925e+00 +0.0000000000000000e+00 +1.8999999965292680e+00 -1.0469816276582800e-04 +0.0000000000000000e+00 +9.9999999451914756e-01
1.9500000000000011e+00 +8.5388952414292945e+00 +0.0000000000000000e+00 +1.9499999962479480e+00 -1.0745435360304756e-04 +0.0000000000000000e+00 +9.9999999422678110e-01
2.0000000000000009e+00 +8.5388897998052737e+00 +0.0000000000000000e+00 +1.9999999959518193e+00 -1.1021061997646663e-04 +0.0000000000000000e+00 +9.9999999392680983e-01
2.0500000000000007e+00 +8.5388842203660076e+00 +0.0000000000000000e+00 +2.0499999956405022e+00 -1.1296696375986898e-04 +0.0000000000000000e+00 +9.9999999361923275e-01
2.1000000000000005e+00 +8.5388785031075773e+00 +0.0000000000000000e+00 +2.0999999953136159e+00 -1.1572338681961600e-04 +0.0000000000000000e+00 +9.9999999330404910e-01
2.1500000000000004e+00 +8.5388726480259738e+00 +0.0000000000000000e+00 +2.1499999949707802e+00 -1.1847989101116582e-04 +0.0000000000000000e+00 +9.9999999298125797e-01
2.2000000000000002e+00 +8.5388666551170935e+00 +0.0000000000000000e+00 +2.1999999946116149e+00 -1.2123647817875689e-04 +0.0000000000000000e+00 +9.9999999265085848e-01
2.2500000000000000e+00 +8.5388605243767426e+00 +0.0000000000000000e+00 +2.2499999942357394e+00 -1.2399315015540808e-04 +0.0000000000000000e+00 +9.9999999231284964e-01
2.2999999999999998e+00 +8.5388542558006346e+00 +0.0000000000000000e+00 +2.2999999938427731e+00 -1.2674990876291871e-04 +0.0000000000000000e+00 +9.9999999196723055e-01
2.3499999999999996e+00 +8.5388478493843927e+00 +0.0000000000000000e+00 +2.3499999934323355e+00 -1.2950675581186865e-04 +0.0000000000000000e+00 +9.9999999161400033e-01
2.3999999999999995e+00 +8.5388413051235492e+00 +0.0000000000000000e+00 +2.3999999930040463e+00 -1.3226369310161837e-04 +0.0000000000000000e+00 +9.9999999125315797e-01
2.4499999999999993e+00 +8.5388346230135479e+00 +0.0000000000000000e+00 +2.4499999925575247e+00 -1.3502072242030898e-04 +0.0000000000000000e+00 +9.9999999088470248e-01
2.4999999999999991e+00 +8.5388278030497435e+00 +0.0000000000000000e+00 +2.4999999920923899e+00 -1.3777784554486232e-04 +0.0000000000000000e+00 +9.9999999050863286e-01
2.5499999999999989e+00 +8.5388208452274004e+00 +0.0000000000000000e+00 +2.5499999916082610e+00 -1.4053506424098101e-04 +0.0000000000000000e+00 +9.9999999012494811e-01
2.5999999999999988e+00 +8.5388137495416974e+00 +0.0000000000000000e+00 +2.5999999911047578e+00 -1.4329238026314849e-04 +0.0000000000000000e+00 +9.9999998973364712e-01
2.6499999999999986e+00 +8.5388065159877229e+00 +0.0000000000000000e+00 +2.6499999905814988e+00 -1.4604979535462912e-04 +0.0000000000000000e+00 +9.9999998933472889e-01
2.6999999999999984e+00 +8.5387991445604818e+00 +0.0000000000000000e+00 +2.6999999900381035e+00 -1.4880731124746819e-04 +0.0000000000000000e+00 +9.9999998892819231e-01
2.7499999999999982e+00 +8.5387916352548903e+00 +0.0000000000000000e+00 +2.7499999894741909e+00 -1.5156492966249201e-04 +0.0000000000000000e+00 +9.9999998851403626e-01
2.7999999999999980e+00 +8.5387839880657790e+00 +0.0000000000000000e+00 +2.7999999888893798e+00 -1.5432265230930795e-04 +0.0000000000000000e+00 +9.9999998809225965e-01
2.8499999999999979e+00 +8.5387762029878935e+00 +0.0000000000000000e+00 +2.8499999882832898e+00 -1.5708048088630447e-04 +0.0000000000000000e+00 +9.9999998766286147e-01
2.8999999999999977e+00 +8.5387682800158959e+00 +0.0000000000000000e+00 +2.8999999876555393e+00 -1.5983841708065122e-04 +0.0000000000000000e+00 +9.9999998722584038e-01
2.9499999999999975e+00 +8.5387602191443630e+00 +0.0000000000000000e+00 +2.9499999870057469e+00 -1.6259646256829908e-04 +0.0000000000000000e+00 +9.9999998678119539e-01
2.9999999999999973e+00 +8.5387520203677898e+00 +0.0000000000000000e+00 +2.9999999863335316e+00 -1.6535461901398017e-04 +0.0000000000000000e+00 +9.9999998632892517e-01
3.0499999999999972e+00 +8.5387436836805861e+00 +0.0000000000000000e+00 +3.0499999856385123e+00 -1.6811288807120798e-04 +0.0000000000000000e+00 +9.9999998586902861e-01
3.0999999999999970e+00 +8.5387352090770801e+00 +0.0000000000000000e+00 +3.0999999849203075e+00 -1.7087127138227731e-04 +0.0000000000000000e+00 +9.9999998540150448e-01
3.1499999999999968e+00 +8.5387265965515180e+00 +0.0000000000000000e+00 +3.1499999841785358e+00 -1.7362977057826443e-04 +0.0000000000000000e+00 +9.9999998492635156e-01
3.1999999999999966e+00 +8.5387178460980646e+00 +0.0000000000000000e+00 +3.1999999834128157e+00 -1.7638838727902705e-04 +0.0000000000000000e+00 +9.9999998444356863e-01
3.2499999999999964e+00 +8.5387089577108046e+00 +0.0000000000000000e+00 +3.2499999826227657e+00 -1.7914712309320438e-04 +0.0000000000000000e+00 +9.9999998395315437e-01
3.2999999999999963e+00 +8.5386999313837428e+00 +0.0000000000000000e+00 +3.2999999818080039e+00 -1.8190597961821722e-04 +0.0000000000000000e+00 +9.9999998345510754e-01
3.3499999999999961e+00 +8.5386907671108041e+00 +0.0000000000000000e+00 +3.3499999809681489e+00 -1.8466495844026795e-04 +0.0000000000000000e+00 +9.9999998294942682e-01
3.3999999999999959e+00 +8.5386814648858333e+00 +0.0000000000000000e+00 +3.3999999801028191e+00 -1.8742406113434059e-04 +0.0000000000000000e+00 +9.9999998243611088e-01
3.4499999999999957e+00 +8.5386720247025991e+00 +0.0000000000000000e+00 +3.4499999792116327e+00 -1.9018328926420085e-04 +0.0000000000000000e+00 +9.9999998191515849e-01
3.4999999999999956e+00 +8.5386624465547900e+00 +0.0000000000000000e+00 +3.4999999782942077e+00 -1.9294264438239619e-04 +0.0000000000000000e+00 +9.9999998138656820e-01
3.5499999999999954e+00 +8.5386527304360182e+00 +0.0000000000000000e+00 +3.5499999773501623e+00 -1.9570212803025582e-04 +0.0000000000000000e+00 +9.9999998085033870e-01
3.5999999999999952e+00 +8.5386428763398197e+00 +0.0000000000000000e+00 +3.5999999763791144e+00 -1.9846174173789074e-04 +0.0000000000000000e+00 +9.9999998030646864e-01
3.6499999999999950e+00 +8.5386328842596519e+00 +0.0000000000000000e+00 +3.6499999753806818e+00 -2.0122148702419383e-04 +0.0000000000000000e+00 +9.9999997975495669e-01
3.6999999999999948e+00 +8.5386227541888999e+00 +0.0000000000000000e+00 +3.6999999743544825e+00 -2.0398136539683984e-04 +0.0000000000000000e+00 +9.9999997919580141e-01
3.7499999999999947e+00 +8.5386124861208703e+00 +0.0000000000000000e+00 +3.7499999733001346e+00 -2.0674137835228543e-04 +0.0000000000000000e+00 +9.9999997862900136e-01
3.7999999999999945e+00 +8.5386020800487969e+00 +0.0000000000000000e+00 +3.7999999722172553e+00 -2.0950152737576926e-04 +0.0000000000000000e+00 +9.9999997805455509e-01
3.8499999999999943e+00 +8.5385915359658409e+00 +0.0000000000000000e+00 +3.8499999711054627e+00 -2.1226181394131191e-04 +0.0000000000000000e+00 +9.9999997747246128e-01
3.8999999999999941e+00 +8.5385808538650867e+00 +0.0000000000000000e+00 +3.8999999699643739e+00 -2.1502223951171603e-04 +0.0000000000000000e+00 +9.9999997688271836e-01
3.9499999999999940e+00 +8.5385700337395480e+00 +0.0000000000000000e+00 +3.9499999687936067e+00 -2.1778280553856635e-04 +0.0000000000000000e+00 +9.9999997628532489e-01
3.9999999999999938e+00 +8.5385590755821674e+00 +0.0000000000000000e+00 +3.9999999675927786e+00 -2.2054351346222962e-04 +0.0000000000000000e+00 +9.9999997568027943e-01
4.0499999999999936e+00 +8.5385479793858128e+00 +0.0000000000000000e+00 +4.0499999663615069e+00 -2.2330436471168630e-04 +0.0000000000000000e+00 +9.9999997506758043e-01
4.0999999999999934e+00 +8.5385367451432828e+00 +0.0000000000000000e+00 +4.0999999650994088e+00 -2.2606536070267689e-04 +0.0000000000000000e+00 +9.9999997444722644e-01
4.1499999999999932e+00 +8.5385253728473067e+00 +0.0000000000000000e+00 +4.1499999638061018e+00 -2.2882650283584865e-04 +0.0000000000000000e+00 +9.9999997381921590e-01
4.1999999999999931e+00 +8.5385138624905412e+00 +0.0000000000000000e+00 +4.1999999624812032e+00 -2.3158779249658694e-04 +0.0000000000000000e+00 +9.9999997318354727e-01
4.2499999999999929e+00 +8.5385022140655753e+00 +0.0000000000000000e+00 +4.2499999611243293e+00 -2.3434923105501528e-04 +0.0000000000000000e+00 +9.9999997254021900e-01
4.2999999999999927e+00 +8.5384904275649305e+00 +0.0000000000000000e+00 +4.2999999597350973e+00 -2.3711081986599536e-04 +0.0000000000000000e+00 +9.9999997188922962e-01
4.3499999999999925e+00 +8.5384785029810608e+00 +0.0000000000000000e+00 +4.3499999583131244e+00 -2.3987256026912704e-04 +0.0000000000000000e+00 +9.9999997123057749e-01
4.3999999999999924e+00 +8.5384664403063546e+00 +0.0000000000000000e+00 +4.3999999568580277e+00 -2.4263445358874836e-04 +0.0000000000000000e+00 +9.9999997056426104e-01
4.4499999999999922e+00 +8.5384542395331327e+00 +0.0000000000000000e+00 +4.4499999553694227e+00 -2.4539650113393545e-04 +0.0000000000000000e+00 +9.9999996989027862e-01
4.4999999999999920e+00 +8.5384419006536501e+00 +0.0000000000000000e+00 +4.4999999538469275e+00 -2.4815870419850263e-04 +0.0000000000000000e+00 +9.9999996920862877e-01
4.5499999999999918e+00 +8.5384294236600997e+00 +0.0000000000000000e+00 +4.5499999522901575e+00 -2.5092106406100236e-04 +0.0000000000000000e+00 +9.9999996851930983e-01
4.5999999999999917e+00 +8.5384168085446106e+00 +0.0000000000000000e+00 +4.5999999506987299e+00 -2.5368358198472521e-04 +0.0000000000000000e+00 +9.9999996782232015e-01
4.6499999999999915e+00 +8.5384040552992477e+00 +0.0000000000000000e+00 +4.6499999490722610e+00 -2.5644625921769989e-04 +0.0000000000000000e+00 +9.9999996711765804e-01
4.6999999999999913e+00 +8.5383911639160139e+00 +0.0000000000000000e+00 +4.6999999474103671e+00 -2.5920909699269322e-04 +0.0000000000000000e+00 +9.9999996640532196e-01
4.7499999999999911e+00 +8.5383781343868517e+00 +0.0000000000000000e+00 +4.7499999457126645e+00 -2.6197209652721013e-04 +0.0000000000000000e+00 +9.9999996568531024e-01
4.7999999999999909e+00 +8.5383649667036448e+00 +0.0000000000000000e+00 +4.7999999439787695e+00 -2.6473525902349351e-04 +0.0000000000000000e+00 +9.9999996495762122e-01
4.8499999999999908e+00 +8.5383516608582131e+00 +0.0000000000000000e+00 +4.8499999422082984e+00 -2.6749858566852449e-04 +0.0000000000000000e+00 +9.9999996422225323e-01
4.8999999999999906e+00 +8.5383382168423214e+00 +0.0000000000000000e+00 +4.8999999404008667e+00 -2.7026207763402205e-04 +0.0000000000000000e+00 +9.9999996347920461e-01
4.9499999999999904e+00 +8.5383246346476742e+00 +0.0000000000000000e+00 +4.9499999385560907e+00 -2.7302573607644332e-04 +0.0000000000000000e+00 +9.9999996272847358e-01
4.9999999999999902e+00 +8.5383109142659190e+00 +0.0000000000000000e+00 +4.9999999366735857e+00 -2.7578956213698342e-04 +0.0000000000000000e+00 +9.9999996197005858e-01
5.0499999999999901e+00 +8.5382970556886484e+00 +0.0000000000000000e+00 +5.0499999347529680e+00 -2.7855355694157534e-04 +0.0000000000000000e+00 +9.9999996120395784e-01
5.0999999999999899e+00 +8.5382830589073944e+00 +0.0000000000000000e+00 +5.0999999327938532e+00 -2.8131772160089010e-04 +0.0000000000000000e+00 +9.9999996043016959e-01
5.1499999999999897e+00 +8.5382689239136393e+00 +0.0000000000000000e+00 +5.1499999307958566e+00 -2.8408205721033657e-04 +0.0000000000000000e+00 +9.9999995964869215e-01
5.1999999999999895e+00 +8.5382546506988071e+00 +0.0000000000000000e+00 +5.1999999287585936e+00 -2.8684656485006158e-04 +0.0000000000000000e+00 +9.9999995885952386e-01
5.2499999999999893e+00 +8.5382402392542698e+00 +0.0000000000000000e+00 +5.2499999266816806e+00 -2.8961124558494979e-04 +0.0000000000000000e+00 +9.9999995806266295e-01
5.2999999999999892e+00 +8.5382256895713464e+00 +0.0000000000000000e+00 +5.2999999245647320e+00 -2.9237610046462361e-04 +0.0000000000000000e+00 +9.9999995725810764e-01
5.3499999999999890e+00 +8.5382110016413044e+00 +0.0000000000000000e+00 +5.3499999224073633e+00 -2.9514113052344336e-04 +0.0000000000000000e+00 +9.9999995644585615e-01
5.3999999999999888e+00 +8.5381961754553579e+00 +0.0000000000000000e+00 +5.3999999202091891e+00 -2.9790633678050698e-04 +0.0000000000000000e+00 +9.9999995562590682e-01
5.4499999999999886e+00 +8.5381812110046731e+00 +0.0000000000000000e+00 +5.4499999179698255e+00 -3.0067172023965022e-04 +0.0000000000000000e+00 +9.9999995479825787e-01
5.4999999999999885e+00 +8.5381661082803646e+00 +0.0000000000000000e+00 +5.4999999156888864e+00 -3.0343728188944645e-04 +0.0000000000000000e+00 +9.9999995396290753e-01
5.5499999999999883e+00 +8.5381508672734991e+00 +0.0000000000000000e+00 +5.5499999133659879e+00 -3.0620302270320667e-04 +0.0000000000000000e+00 +9.9999995311985390e-01
5.5999999999999881e+00 +8.5381354879750937e+00 +0.0000000000000000e+00 +5.5999999110007437e+00 -3.0896894363897952e-04 +0.0000000000000000e+00 +9.9999995226909533e-01
5.6499999999999879e+00 +8.5381199703761173e+00 +0.0000000000000000e+00 +5.6499999085927692e+00 -3.1173504563955111e-04 +0.0000000000000000e+00 +9.9999995141063003e-01
5.6999999999999877e+00 +8.5381043144674962e+00 +0.0000000000000000e+00 +5.6999999061416782e+00 -3.1450132963244511e-04 +0.0000000000000000e+00 +9.9999995054445612e-01
5.7499999999999876e+00 +8.5380885202401053e+00 +0.0000000000000000e+00 +5.7499999036470859e+00 -3.1726779652992257e-04 +0.0000000000000000e+00 +9.9999994967057193e-01
5.7999999999999874e+00 +8.5380725876847787e+00 +0.0000000000000000e+00 +5.7999999011086070e+00 -3.2003444722898195e-04 +0.0000000000000000e+00 +9.9999994878897558e-01
5.8499999999999872e+00 +8.5380565167923042e+00 +0.0000000000000000e+00 +5.8499998985258550e+00 -3.2280128261135912e-04 +0.0000000000000000e+00 +9.9999994789966518e-01
5.8999999999999870e+00 +8.5380403075534250e+00 +0.0000000000000000e+00 +5.8999998958984445e+00 -3.2556830354352721e-04 +0.0000000000000000e+00 +9.9999994700263906e-01
