# field on trajectory
# s[mm] rx[mm] ry[mm] rz[mm] bx[T] by[T] bz[T]
0.0000000000000000e+00 +8.2850000000000001e+00 +0.0000000000000000e+00 +0.0000000000000000e+00 -2.9622507761164756e-02 -5.5504311292263886e-01 +5.4099257726563524e-03
-5.0000000000000003e-02 +8.2849999309703843e+00 +0.0000000000000000e+00 -4.9999999999936463e-02 -2.9622340481923564e-02 -5.5504364192673583e-01 +5.4097186041779915e-03
-1.0000000000000001e-01 +8.2849997238814321e+00 +0.0000000000000000e+00 -9.9999999999491718e-02 -2.9622195065229326e-02 -5.5504454968872274e-01 +5.4095139208221827e-03
-1.5000000000000002e-01 +8.2849993787329179e+00 +0.0000000000000000e+00 -1.4999999999828456e-01 -2.9622071442979344e-02 -5.5504583557342935e-01 +5.4093116980254759e-03
-2.0000000000000001e-01 +8.2849988955245220e+00 +0.0000000000000000e+00 -1.9999999999593376e-01 -2.9621969547072042e-02 -5.5504749894570227e-01 +5.4091119112244261e-03
-2.5000000000000000e-01 +8.2849982742558304e+00 +0.0000000000000000e+00 -2.4999999999205813e-01 -2.9621889309406998e-02 -5.5504953917040489e-01 +5.4089145358555838e-03
-2.9999999999999999e-01 +8.2849975149263351e+00 +0.0000000000000000e+00 -2.9999999998627647e-01 -2.9621830661884941e-02 -5.5505195561241838e-01 +5.4087195473555109e-03
-3.4999999999999998e-01 +8.2849966175354357e+00 +0.0000000000000000e+00 -3.4999999997820747e-01 -2.9621793536407707e-02 -5.5505474763663987e-01 +5.4085269211607634e-03
-3.9999999999999997e-01 +8.2849955820824395e+00 +0.0000000000000000e+00 -3.9999999996746993e-01 -2.9621777864878299e-02 -5.5505791460798370e-01 +5.4083366327079144e-03
-4.4999999999999996e-01 +8.2849944085665559e+00 +0.0000000000000000e+00 -4.4999999995368267e-01 -2.9621783579200870e-02 -5.5506145589138167e-01 +5.4081486574335414e-03
-4.9999999999999994e-01 +8.2849930969869057e+00 +0.0000000000000000e+00 -4.9999999993646438e-01 -2.9621810611280681e-02 -5.5506537085178131e-01 +5.4079629707742324e-03
-5.4999999999999993e-01 +8.2849916473425154e+00 +0.0000000000000000e+00 -5.4999999991543380e-01 -2.9621858893024159e-02 -5.5506965885414772e-01 +5.4077795481665934e-03
-5.9999999999999998e-01 +8.2849900596323174e+00 +0.0000000000000000e+00 -5.9999999989020969e-01 -2.9621928356338867e-02 -5.5507431926346296e-01 +5.4075983650472411e-03
-6.5000000000000002e-01 +8.2849883338551535e+00 +0.0000000000000000e+00 -6.4999999986041068e-01 -2.9622018933133494e-02 -5.5507935144472520e-01 +5.4074193968528120e-03
-7.0000000000000007e-01 +8.2849864700097715e+00 +0.0000000000000000e+00 -6.9999999982565564e-01 -2.9622130555317903e-02 -5.5508475476295016e-01 +5.4072426190199634e-03
-7.5000000000000011e-01 +8.2849844680948266e+00 +0.0000000000000000e+00 -7.4999999978556309e-01 -2.9622263154803066e-02 -5.5509052858316943e-01 +5.4070680069853681e-03
-8.0000000000000016e-01 +8.2849823281088835e+00 +0.0000000000000000e+00 -7.9999999973975178e-01 -2.9622416663501117e-02 -5.5509667227043202e-01 +5.4068955361857313e-03
-8.5000000000000020e-01 +8.2849800500504145e+00 +0.0000000000000000e+00 -8.4999999968784035e-01 -2.9622591013325341e-02 -5.5510318518980317e-01 +5.4067251820577762e-03
-9.0000000000000024e-01 +8.2849776339177978e+00 +0.0000000000000000e+00 -8.9999999962944743e-01 -2.9622786136190120e-02 -5.5511006670636520e-01 +5.4065569200382581e-03
-9.5000000000000029e-01 +8.2849750797093247e+00 +0.0000000000000000e+00 -9.4999999956419168e-01 -2.9623001964011048e-02 -5.5511731618521631e-01 +5.4063907255639584e-03
-1.0000000000000002e+00 +8.2849723874231902e+00 +0.0000000000000000e+00 -9.9999999949169172e-01 -2.9623238428704780e-02 -5.5512493299147248e-01 +5.4062265740716922e-03
-1.0500000000000003e+00 +8.2849695570574990e+00 +0.0000000000000000e+00 -1.0499999994115661e+00 -2.9623495462189196e-02 -5.5513291649026486e-01 +5.4060644409983129e-03
-1.1000000000000003e+00 +8.2849665886102670e+00 +0.0000000000000000e+00 -1.0999999993234333e+00 -2.9623772996383271e-02 -5.5514126604674285e-01 +5.4059043017807016e-03
-1.1500000000000004e+00 +8.2849634820794176e+00 +0.0000000000000000e+00 -1.1499999992269121e+00 -2.9624070963207128e-02 -5.5514998102607072e-01 +5.4057461318557810e-03
-1.2000000000000004e+00 +8.2849602374627818e+00 +0.0000000000000000e+00 -1.1999999991216208e+00 -2.9624389294582030e-02 -5.5515906079342958e-01 +5.4055899066605137e-03
-1.2500000000000004e+00 +8.2849568547581018e+00 +0.0000000000000000e+00 -1.2499999990071780e+00 -2.9624727922430434e-02 -5.5516850471401891e-01 +5.4054356016319067e-03
-1.3000000000000005e+00 +8.2849533339630277e+00 +0.0000000000000000e+00 -1.2999999988832021e+00 -2.9625086778675862e-02 -5.5517831215305213e-01 +5.4052831922070067e-03
-1.3500000000000005e+00 +8.2849496750751204e+00 +0.0000000000000000e+00 -1.3499999987493116e+00 -2.9625465795243031e-02 -5.5518848247576025e-01 +5.4051326538229073e-03
-1.4000000000000006e+00 +8.2849458780918503e+00 +0.0000000000000000e+00 -1.3999999986051250e+00 -2.9625864904057803e-02 -5.5519901504739078e-01 +5.4049839619167523e-03
-1.4500000000000006e+00 +8.2849419430105993e+00 +0.0000000000000000e+00 -1.4499999984502605e+00 -2.9626284037047174e-02 -5.5520990923320768e-01 +5.4048370919257353e-03
-1.5000000000000007e+00 +8.2849378698286564e+00 +0.0000000000000000e+00 -1.4999999982843364e+00 -2.9626723126139252e-02 -5.5522116439849067e-01 +5.4046920192870971e-03
-1.5500000000000007e+00 +8.2849336585432223e+00 +0.0000000000000000e+00 -1.5499999981069712e+00 -2.9627182103263365e-02 -5.5523277990853659e-01 +5.4045487194381431e-03
-1.6000000000000008e+00 +8.2849293091514067e+00 +0.0000000000000000e+00 -1.5999999979177832e+00 -2.9627660900349927e-02 -5.5524475512865812e-01 +5.4044071678162227e-03
-1.6500000000000008e+00 +8.2849248216502325e+00 +0.0000000000000000e+00 -1.6499999977163906e+00 -2.9628159449330532e-02 -5.5525708942418439e-01 +5.4042673398587556e-03
-1.7000000000000008e+00 +8.2849201960366301e+00 +0.0000000000000000e+00 -1.6999999975024116e+00 -2.9628677682137883e-02 -5.5526978216046097e-01 +5.4041292110032103e-03
-1.7500000000000009e+00 +8.2849154323074430e+00 +0.0000000000000000e+00 -1.7499999972754645e+00 -2.9629215530705869e-02 -5.5528283270284917e-01 +5.4039927566871260e-03
-1.8000000000000009e+00 +8.2849105304594257e+00 +0.0000000000000000e+00 -1.7999999970351674e+00 -2.9629772926969493e-02 -5.5529624041672709e-01 +5.4038579523481038e-03
-1.8500000000000010e+00 +8.2849054904892441e+00 +0.0000000000000000e+00 -1.8499999967811385e+00 -2.9630349802864924e-02 -5.5531000466748870e-01 +5.4037247734238080e-03
-1.9000000000000010e+00 +8.2849003123934732e+00 +0.0000000000000000e+00 -1.8999999965129959e+00 -2.9630946090329489e-02 -5.5532412482054505e-01 +5.4035931953519767e-03
-1.9500000000000011e+00 +8.2848949961686014e+00 +0.0000000000000000e+00 -1.9499999962303576e+00 -2.9631561721301623e-02 -5.5533860024132164e-01 +5.4034631935704130e-03
-2.0000000000000009e+00 +8.2848895418110278e+00 +0.0000000000000000e+00 -1.9999999959328416e+00 -2.9632196627720965e-02 -5.5535343029526163e-01 +5.4033347435170041e-03
-2.0500000000000007e+00 +8.2848839493170630e+00 +0.0000000000000000e+00 -2.0499999956200656e+00 -2.9632850724498404e-02 -5.5536861409184213e-01 +5.4032078249595245e-03
-2.1000000000000005e+00 +8.2848782186829322e+00 +0.0000000000000000e+00 -2.0999999952916482e+00 -2.9633523858426231e-02 -5.5538414971662864e-01 +5.4030824349851044e-03
-2.1500000000000004e+00 +8.2848723499047701e+00 +0.0000000000000000e+00 -2.1499999949472066e+00 -2.9634215859267166e-02 -5.5540003499921808e-01 +5.4029585750106210e-03
-2.2000000000000002e+00 +8.2848663429786260e+00 +0.0000000000000000e+00 -2.1999999945863591e+00 -2.9634926556784045e-02 -5.5541626776922104e-01 +5.4028362464528645e-03
-2.2500000000000000e+00 +8.2848601979004624e+00 +0.0000000000000000e+00 -2.2499999942087232e+00 -2.9635655780739751e-02 -5.5543284585626018e-01 +5.4027154507285107e-03
-2.2999999999999998e+00 +8.2848539146661544e+00 +0.0000000000000000e+00 -2.2999999938139171e+00 -2.9636403360897193e-02 -5.5544976708997051e-01 +5.4025961892541262e-03
-2.3499999999999996e+00 +8.2848474932714939e+00 +0.0000000000000000e+00 -2.3499999934015579e+00 -2.9637169127019213e-02 -5.5546702929999980e-01 +5.4024784634461543e-03
-2.3999999999999995e+00 +8.2848409337121875e+00 +0.0000000000000000e+00 -2.3999999929712637e+00 -2.9637952908868587e-02 -5.5548463031600770e-01 +5.4023622747209100e-03
-2.4499999999999993e+00 +8.2848342359838583e+00 +0.0000000000000000e+00 -2.4499999925226521e+00 -2.9638754536207897e-02 -5.5550256796766651e-01 +5.4022476244945748e-03
-2.4999999999999991e+00 +8.2848274000820439e+00 +0.0000000000000000e+00 -2.4999999920553408e+00 -2.9639573838799532e-02 -5.5552084008465907e-01 +5.4021345141831807e-03
-2.5499999999999989e+00 +8.2848204260021987e+00 +0.0000000000000000e+00 -2.5499999915689471e+00 -2.9640410646405574e-02 -5.5553944449668025e-01 +5.4020229452026109e-03
-2.5999999999999988e+00 +8.2848133137396953e+00 +0.0000000000000000e+00 -2.5999999910630884e+00 -2.9641264788787817e-02 -5.5555837903343686e-01 +5.4019129189685844e-03
-2.6499999999999986e+00 +8.2848060632898246e+00 +0.0000000000000000e+00 -2.6499999905373821e+00 -2.9642136095707629e-02 -5.5557764152464562e-01 +5.4018044368966556e-03
-2.6999999999999984e+00 +8.2847986746477957e+00 +0.0000000000000000e+00 -2.6999999899914457e+00 -2.9643024396925954e-02 -5.5559722980003490e-01 +5.4016975004021967e-03
-2.7499999999999982e+00 +8.2847911478087362e+00 +0.0000000000000000e+00 -2.7499999894248965e+00 -2.9643929522203231e-02 -5.5561714168934417e-01 +5.4015921109004071e-03
-2.7999999999999980e+00 +8.2847834827676934e+00 +0.0000000000000000e+00 -2.7999999888373521e+00 -2.9644851301299333e-02 -5.5563737502232258e-01 +5.4014882698062818e-03
-2.8499999999999979e+00 +8.2847756795196350e+00 +0.0000000000000000e+00 -2.8499999882284293e+00 -2.9645789563973523e-02 -5.5565792762873012e-01 +5.4013859785346213e-03
-2.8999999999999977e+00 +8.2847677380594487e+00 +0.0000000000000000e+00 -2.8999999875977456e+00 -2.9646744139984409e-02 -5.5567879733833714e-01 +5.4012852385000249e-03
-2.9499999999999975e+00 +8.2847596583819421e+00 +0.0000000000000000e+00 -2.9499999869449178e+00 -2.9647714859089836e-02 -5.5569998198092285e-01 +5.4011860511168613e-03
-2.9999999999999973e+00 +8.2847514404818483e+00 +0.0000000000000000e+00 -2.9999999862695632e+00 -2.9648701551046874e-02 -5.5572147938627703e-01 +5.4010884177992857e-03
-3.0499999999999972e+00 +8.2847430843538188e+00 +0.0000000000000000e+00 -3.0499999855712985e+00 -2.9649704045611770e-02 -5.5574328738419909e-01 +5.4009923399612201e-03
-3.0999999999999970e+00 +8.2847345899924285e+00 +0.0000000000000000e+00 -3.0999999848497408e+00 -2.9650722172539848e-02 -5.5576540380449757e-01 +5.4008978190163504e-03
-3.1499999999999968e+00 +8.2847259573921779e+00 +0.0000000000000000e+00 -3.1499999841045070e+00 -2.9651755761585481e-02 -5.5578782647698988e-01 +5.4008048563781068e-03
-3.1999999999999966e+00 +8.2847171865474891e+00 +0.0000000000000000e+00 -3.1999999833352137e+00 -2.9652804642502032e-02 -5.5581055323150230e-01 +5.4007134534596705e-03
-3.2499999999999964e+00 +8.2847082774527099e+00 +0.0000000000000000e+00 -3.2499999825414783e+00 -2.9653868645041805e-02 -5.5583358189787035e-01 +5.4006236116739626e-03
-3.2999999999999963e+00 +8.2846992301021114e+00 +0.0000000000000000e+00 -3.2999999817229169e+00 -2.9654947598955941e-02 -5.5585691030593787e-01 +5.4005353324336255e-03
-3.3499999999999961e+00 +8.2846900444898921e+00 +0.0000000000000000e+00 -3.3499999808791463e+00 -2.9656041333994427e-02 -5.5588053628555711e-01 +5.4004486171510269e-03
-3.3999999999999959e+00 +8.2846807206101758e+00 +0.0000000000000000e+00 -3.3999999800097829e+00 -2.9657149679906000e-02 -5.5590445766658814e-01 +5.4003634672382464e-03
-3.4499999999999957e+00 +8.2846712584570117e+00 +0.0000000000000000e+00 -3.4499999791144433e+00 -2.9658272466438099e-02 -5.5592867227889875e-01 +5.4002798841070706e-03
-3.4999999999999956e+00 +8.2846616580243762e+00 +0.0000000000000000e+00 -3.4999999781927444e+00 -2.9659409523336788e-02 -5.5595317795236521e-01 +5.4001978691689840e-03
-3.5499999999999954e+00 +8.2846519193061745e+00 +0.0000000000000000e+00 -3.5499999772443021e+00 -2.9660560680346761e-02 -5.5597797251687087e-01 +5.4001174238351565e-03
-3.5999999999999952e+00 +8.2846420422962392e+00 +0.0000000000000000e+00 -3.5999999762687329e+00 -2.9661725767211204e-02 -5.5600305380230663e-01 +5.4000385495164491e-03
-3.6499999999999950e+00 +8.2846320269883336e+00 +0.0000000000000000e+00 -3.6499999752656529e+00 -2.9662904613671787e-02 -5.5602841963857041e-01 +5.3999612476233862e-03
-3.6999999999999948e+00 +8.2846218733761461e+00 +0.0000000000000000e+00 -3.6999999742346787e+00 -2.9664097049468596e-02 -5.5605406785556633e-01 +5.3998855195661567e-03
-3.7499999999999947e+00 +8.2846115814532979e+00 +0.0000000000000000e+00 -3.7499999731754259e+00 -2.9665302904340097e-02 -5.5607999628320659e-01 +5.3998113667546258e-03
-3.7999999999999945e+00 +8.2846011512133408e+00 +0.0000000000000000e+00 -3.7999999720875111e+00 -2.9666522008023017e-02 -5.5610620275140921e-01 +5.3997387905982824e-03
-3.8499999999999943e+00 +8.2845905826497557e+00 +0.0000000000000000e+00 -3.8499999709705497e+00 -2.9667754190252377e-02 -5.5613268509009828e-01 +5.3996677925062823e-03
-3.8999999999999941e+00 +8.2845798757559557e+00 +0.0000000000000000e+00 -3.8999999698241581e+00 -2.9668999280761308e-02 -5.5615944112920446e-01 +5.3995983738873961e-03
-3.9499999999999940e+00 +8.2845690305252848e+00 +0.0000000000000000e+00 -3.9499999686479517e+00 -2.9670257109281183e-02 -5.5618646869866428e-01 +5.3995305361500337e-03
-3.9999999999999938e+00 +8.2845580469510214e+00 +0.0000000000000000e+00 -3.9999999674415467e+00 -2.9671527505541362e-02 -5.5621376562842006e-01 +5.3994642807022181e-03
-4.0499999999999936e+00 +8.2845469250263761e+00 +0.0000000000000000e+00 -4.0499999662045587e+00 -2.9672810306677053e-02 -5.5624132963766770e-01 +5.3993996065992136e-03
-4.0999999999999934e+00 +8.2845356647444923e+00 +0.0000000000000000e+00 -4.0999999649366030e+00 -2.9674105379453888e-02 -5.5626915800260190e-01 +5.3993365034865374e-03
-4.1499999999999932e+00 +8.2845242660984475e+00 +0.0000000000000000e+00 -4.1499999636372955e+00 -2.9675412598046663e-02 -5.5629724788866530e-01 +5.3992749586573045e-03
-4.1999999999999931e+00 +8.2845127290812570e+00 +0.0000000000000000e+00 -4.1999999623062516e+00 -2.9676731836631786e-02 -5.5632559646130142e-01 +5.3992149594046419e-03
-4.2499999999999929e+00 +8.2845010536858670e+00 +0.0000000000000000e+00 -4.2499999609430867e+00 -2.9678062969387416e-02 -5.5635420088595289e-01 +5.3991564930217012e-03
-4.2999999999999927e+00 +8.2844892399051648e+00 +0.0000000000000000e+00 -4.2999999595474163e+00 -2.9679405870493437e-02 -5.5638305832806190e-01 +5.3990995468016596e-03
-4.3499999999999925e+00 +8.2844772877319723e+00 +0.0000000000000000e+00 -4.3499999581188558e+00 -2.9680760414131570e-02 -5.5641216595307008e-01 +5.3990441080377198e-03
-4.3999999999999924e+00 +8.2844651971590491e+00 +0.0000000000000000e+00 -4.3999999566570205e+00 -2.9682126474485433e-02 -5.5644152092641619e-01 +5.3989901640231208e-03
-4.4499999999999922e+00 +8.2844529681790942e+00 +0.0000000000000000e+00 -4.4499999551615250e+00 -2.9683503925740533e-02 -5.5647112041353930e-01 +5.3989377020511424e-03
-4.4999999999999920e+00 +8.2844406007847446e+00 +0.0000000000000000e+00 -4.4999999536319848e+00 -2.9684892642084380e-02 -5.5650096157987483e-01 +5.3988867094151060e-03
-4.5499999999999918e+00 +8.2844280949685771e+00 +0.0000000000000000e+00 -4.5499999520680143e+00 -2.9686292497706539e-02 -5.5653104159085676e-01 +5.3988371734083815e-03
-4.5999999999999917e+00 +8.2844154507231114e+00 +0.0000000000000000e+00 -4.5999999504692290e+00 -2.9687703366798653e-02 -5.5656135761191572e-01 +5.3987890813243953e-03
-4.6499999999999915e+00 +8.2844026680408067e+00 +0.0000000000000000e+00 -4.6499999488352435e+00 -2.9689125123554507e-02 -5.5659190680847959e-01 +5.3987424204566268e-03
-4.6999999999999913e+00 +8.2843897469140639e+00 +0.0000000000000000e+00 -4.6999999471656722e+00 -2.9690557642170122e-02 -5.5662268634597256e-01 +5.3986971780986201e-03
-4.7499999999999911e+00 +8.2843766873352287e+00 +0.0000000000000000e+00 -4.7499999454601305e+00 -2.9692000796843743e-02 -5.5665369338981519e-01 +5.3986533415439856e-03
-4.7999999999999909e+00 +8.2843634892965863e+00 +0.0000000000000000e+00 -4.7999999437182321e+00 -2.9693454461775952e-02 -5.5668492510542444e-01 +5.3986108980864115e-03
-4.8499999999999908e+00 +8.2843501527903705e+00 +0.0000000000000000e+00 -4.8499999419395925e+00 -2.9694918511169715e-02 -5.5671637865821166e-01 +5.3985698350196521e-03
-4.8999999999999906e+00 +8.2843366778087564e+00 +0.0000000000000000e+00 -4.8999999401238252e+00 -2.9696392819230387e-02 -5.5674805121358428e-01 +5.3985301396375545e-03
-4.9499999999999904e+00 +8.2843230643438677e+00 +0.0000000000000000e+00 -4.9499999382705449e+00 -2.9697877260165838e-02 -5.5677993993694419e-01 +5.3984917992340436e-03
-4.9999999999999902e+00 +8.2843093123877711e+00 +0.0000000000000000e+00 -4.9999999363793659e+00 -2.9699371708186453e-02 -5.5681204199368761e-01 +5.3984548011031365e-03
-5.0499999999999901e+00 +8.2842954219324820e+00 +0.0000000000000000e+00 -5.0499999344499020e+00 -2.9700876037505233e-02 -5.5684435454920544e-01 +5.3984191325389518e-03
-5.0999999999999899e+00 +8.2842813929699641e+00 +0.0000000000000000e+00 -5.0999999324817678e+00 -2.9702390122337798e-02 -5.5687687476888226e-01 +5.3983847808357016e-03
-5.1499999999999897e+00 +8.2842672254921279e+00 +0.0000000000000000e+00 -5.1499999304745776e+00 -2.9703913836902473e-02 -5.5690959981809551e-01 +5.3983517332877075e-03
-5.1999999999999895e+00 +8.2842529194908341e+00 +0.0000000000000000e+00 -5.1999999284279452e+00 -2.9705447055420369e-02 -5.5694252686221613e-01 +5.3983199771893949e-03
-5.2499999999999893e+00 +8.2842384749578937e+00 +0.0000000000000000e+00 -5.2499999263414843e+00 -2.9706989652115393e-02 -5.5697565306660801e-01 +5.3982894998353083e-03
-5.2999999999999892e+00 +8.2842238918850661e+00 +0.0000000000000000e+00 -5.2999999242148084e+00 -2.9708541501214308e-02 -5.5700897559662743e-01 +5.3982602885201125e-03
-5.3499999999999890e+00 +8.2842091702640630e+00 +0.0000000000000000e+00 -5.3499999220475312e+00 -2.9710102476946800e-02 -5.5704249161762232e-01 +5.3982323305385932e-03
-5.3999999999999888e+00 +8.2841943100865478e+00 +0.0000000000000000e+00 -5.3999999198392663e+00 -2.9711672453545557e-02 -5.5707619829493238e-01 +5.3982056131856642e-03
-5.4499999999999886e+00 +8.2841793113441362e+00 +0.0000000000000000e+00 -5.4499999175896274e+00 -2.9713251305246286e-02 -5.5711009279388934e-01 +5.3981801237563748e-03
-5.4999999999999885e+00 +8.2841641740283976e+00 +0.0000000000000000e+00 -5.4999999152982282e+00 -2.9714838906287799e-02 -5.5714417227981505e-01 +5.3981558495459128e-03
-5.5499999999999883e+00 +8.2841488981308551e+00 +0.0000000000000000e+00 -5.5499999129646813e+00 -2.9716435130912003e-02 -5.5717843391802258e-01 +5.3981327778496032e-03
-5.5999999999999881e+00 +8.2841334836429876e+00 +0.0000000000000000e+00 -5.5999999105886005e+00 -2.9718039853364079e-02 -5.5721287487381543e-01 +5.3981108959629265e-03
-5.6499999999999879e+00 +8.2841179305562296e+00 +0.0000000000000000e+00 -5.6499999081695993e+00 -2.9719652947892392e-02 -5.5724749231248694e-01 +5.3980901911815076e-03
-5.6999999999999877e+00 +8.2841022388619692e+00 +0.0000000000000000e+00 -5.6999999057072905e+00 -2.9721274288748659e-02 -5.5728228339931962e-01 +5.3980706508011322e-03
-5.7499999999999876e+00 +8.2840864085515538e+00 +0.0000000000000000e+00 -5.7499999032012870e+00 -2.9722903750187955e-02 -5.5731724529958604e-01 +5.3980522621177524e-03
-5.7999999999999874e+00 +8.2840704396162863e+00 +0.0000000000000000e+00 -5.7999999006512022e+00 -2.9724541206468769e-02 -5.5735237517854697e-01 +5.3980350124274703e-03
-5.8499999999999872e+00 +8.2840543320474289e+00 +0.0000000000000000e+00 -5.8499998980566481e+00 -2.9726186531853056e-02 -5.5738767020145252e-01 +5.3980188890265781e-03
