# field on trajectory
# s[mm] rx[mm] ry[mm] rz[mm] bx[T] by[T] bz[T]
0.0000000000000000e+00 +8.3650000000000002e+00 +0.0000000000000000e+00 +0.0000000000000000e+00 -2.9998259018126666e-02 -5.5394628854757377e-01 +5.7215710956747658e-03
-5.0000000000000003e-02 +8.3649999310388736e+00 +0.0000000000000000e+00 -4.9999999999936581e-02 -2.9999166659188881e-02 -5.5395467330216408e-01 +5.7240292780132629e-03
-1.0000000000000001e-01 +8.3649997241540870e+00 +0.0000000000000000e+00 -9.9999999999492717e-02 -3.0000102420217702e-02 -5.5396344808367570e-01 +5.7264819450604954e-03
-1.5000000000000002e-01 +8.3649993793434554e+00 +0.0000000000000000e+00 -1.4999999999828792e-01 -3.0001066066619050e-02 -5.5397261122660058e-01 +5.7289288770558545e-03
-2.0000000000000001e-01 +8.3649988966046980e+00 +0.0000000000000000e+00 -1.9999999999594170e-01 -3.0002057363799725e-02 -5.5398216106544773e-01 +5.7313698542383901e-03
-2.5000000000000000e-01 +8.3649982759354362e+00 +0.0000000000000000e+00 -2.4999999999207353e-01 -3.0003076077167384e-02 -5.5399209593474519e-01 +5.7338046568468429e-03
-2.9999999999999999e-01 +8.3649975173331974e+00 +0.0000000000000000e+00 -2.9999999998630289e-01 -3.0004121972130610e-02 -5.5400241416903928e-01 +5.7362330651196019e-03
-3.4999999999999998e-01 +8.3649966207954130e+00 +0.0000000000000000e+00 -3.4999999997824927e-01 -3.0005194814098930e-02 -5.5401311410289356e-01 +5.7386548592947067e-03
-3.9999999999999997e-01 +8.3649955863194165e+00 +0.0000000000000000e+00 -3.9999999996753199e-01 -3.0006294368482775e-02 -5.5402419407088965e-01 +5.7410698196098250e-03
-4.4999999999999996e-01 +8.3649944139024512e+00 +0.0000000000000000e+00 -4.4999999995377049e-01 -3.0007420400693575e-02 -5.5403565240762642e-01 +5.7434777263022513e-03
-4.9999999999999994e-01 +8.3649931035416643e+00 +0.0000000000000000e+00 -4.9999999993658417e-01 -3.0008572676143742e-02 -5.5404748744771959e-01 +5.7458783596088803e-03
-5.4999999999999993e-01 +8.3649916552341086e+00 +0.0000000000000000e+00 -5.4999999991559234e-01 -3.0009750960246665e-02 -5.5405969752580153e-01 +5.7482714997662172e-03
-5.9999999999999998e-01 +8.3649900689767449e+00 +0.0000000000000000e+00 -5.9999999989041441e-01 -3.0010955018416809e-02 -5.5407228097652150e-01 +5.7506569270103364e-03
-6.5000000000000002e-01 +8.3649883447664397e+00 +0.0000000000000000e+00 -6.4999999986066959e-01 -3.0012184616069651e-02 -5.5408523613454486e-01 +5.7530344215768955e-03
-7.0000000000000007e-01 +8.3649864825999671e+00 +0.0000000000000000e+00 -6.9999999982597705e-01 -3.0013439518621760e-02 -5.5409856133455293e-01 +5.7554037637010998e-03
-7.5000000000000011e-01 +8.3649844824740089e+00 +0.0000000000000000e+00 -7.4999999978595611e-01 -3.0014719491490781e-02 -5.5411225491124294e-01 +5.7577647336177189e-03
-8.0000000000000016e-01 +8.3649823443851563e+00 +0.0000000000000000e+00 -7.9999999974022595e-01 -3.0016024300095444e-02 -5.5412631519932709e-01 +5.7601171115610316e-03
-8.5000000000000020e-01 +8.3649800683299098e+00 +0.0000000000000000e+00 -8.4999999968840578e-01 -3.0017353709855657e-02 -5.5414074053353390e-01 +5.7624606777648673e-03
-9.0000000000000024e-01 +8.3649776543046759e+00 +0.0000000000000000e+00 -8.9999999963011468e-01 -3.0018707486192443e-02 -5.5415552924860534e-01 +5.7647952124625420e-03
-9.5000000000000029e-01 +8.3649751023057739e+00 +0.0000000000000000e+00 -9.4999999956497183e-01 -3.0020085394528016e-02 -5.5417067967929967e-01 +5.7671204958868886e-03
-1.0000000000000002e+00 +8.3649724123294309e+00 +0.0000000000000000e+00 -9.9999999949259621e-01 -3.0021487200285739e-02 -5.5418619016038795e-01 +5.7694363082702064e-03
-1.0500000000000003e+00 +8.3649695843717868e+00 +0.0000000000000000e+00 -1.0499999994126070e+00 -3.0022912668890241e-02 -5.5420205902665665e-01 +5.7717424298442815e-03
-1.1000000000000003e+00 +8.3649666184288893e+00 +0.0000000000000000e+00 -1.0999999993246230e+00 -3.0024361565767339e-02 -5.5421828461290557e-01 +5.7740386408403560e-03
-1.1500000000000004e+00 +8.3649635144966989e+00 +0.0000000000000000e+00 -1.1499999992282632e+00 -3.0025833656344134e-02 -5.5423486525394894e-01 +5.7763247214891213e-03
-1.2000000000000004e+00 +8.3649602725710874e+00 +0.0000000000000000e+00 -1.1999999991231465e+00 -3.0027328706048954e-02 -5.5425179928461299e-01 +5.7786004520206944e-03
-1.2500000000000004e+00 +8.3649568926478377e+00 +0.0000000000000000e+00 -1.2499999990088917e+00 -3.0028846480311466e-02 -5.5426908503973837e-01 +5.7808656126646339e-03
-1.3000000000000005e+00 +8.3649533747226474e+00 +0.0000000000000000e+00 -1.2999999988851179e+00 -3.0030386744562636e-02 -5.5428672085417829e-01 +5.7831199836498983e-03
-1.3500000000000005e+00 +8.3649497187911237e+00 +0.0000000000000000e+00 -1.3499999987514437e+00 -3.0031949264234737e-02 -5.5430470506279794e-01 +5.7853633452048447e-03
-1.4000000000000006e+00 +8.3649459248487918e+00 +0.0000000000000000e+00 -1.3999999986074878e+00 -3.0033533804761425e-02 -5.5432303600047583e-01 +5.7875954775572199e-03
-1.4500000000000006e+00 +8.3649419928910849e+00 +0.0000000000000000e+00 -1.4499999984528691e+00 -3.0035140131577681e-02 -5.5434171200210147e-01 +5.7898161609341373e-03
-1.5000000000000007e+00 +8.3649379229133540e+00 +0.0000000000000000e+00 -1.4999999982872061e+00 -3.0036768010119959e-02 -5.5436073140257713e-01 +5.7920251755620832e-03
-1.5500000000000007e+00 +8.3649337149108653e+00 +0.0000000000000000e+00 -1.5499999981101173e+00 -3.0038417205826066e-02 -5.5438009253681642e-01 +5.7942223016668876e-03
-1.6000000000000008e+00 +8.3649293688787960e+00 +0.0000000000000000e+00 -1.5999999979212216e+00 -3.0040087484135253e-02 -5.5439979373974402e-01 +5.7964073194737113e-03
-1.6500000000000008e+00 +8.3649248848122433e+00 +0.0000000000000000e+00 -1.6499999977201372e+00 -3.0041778610488241e-02 -5.5441983334629608e-01 +5.7985800092070520e-03
-1.7000000000000008e+00 +8.3649202627062156e+00 +0.0000000000000000e+00 -1.6999999975064826e+00 -3.0043490350327204e-02 -5.5444020969141872e-01 +5.8007401510907063e-03
-1.7500000000000009e+00 +8.3649155025556414e+00 +0.0000000000000000e+00 -1.7499999972798763e+00 -3.0045222469095852e-02 -5.5446092111006973e-01 +5.8028875253477831e-03
-1.8000000000000009e+00 +8.3649106043553623e+00 +0.0000000000000000e+00 -1.7999999970399367e+00 -3.0046974732239350e-02 -5.5448196593721633e-01 +5.8050219122006679e-03
-1.8500000000000010e+00 +8.3649055681001396e+00 +0.0000000000000000e+00 -1.8499999967862821e+00 -3.0048746905204430e-02 -5.5450334250783584e-01 +5.8071430918710211e-03
-1.9000000000000010e+00 +8.3649003937846516e+00 +0.0000000000000000e+00 -1.8999999965185308e+00 -3.0050538753439417e-02 -5.5452504915691558e-01 +5.8092508445797770e-03
-1.9500000000000011e+00 +8.3648950814034944e+00 +0.0000000000000000e+00 -1.9499999962363010e+00 -3.0052350042394135e-02 -5.5454708421945242e-01 +5.8113449505471076e-03
-2.0000000000000009e+00 +8.3648896309511791e+00 +0.0000000000000000e+00 -1.9999999959392110e+00 -3.0054180537520063e-02 -5.5456944603045200e-01 +5.8134251899924260e-03
-2.0500000000000007e+00 +8.3648840424221405e+00 +0.0000000000000000e+00 -2.0499999956268784e+00 -3.0056030024599084e-02 -5.5459213276366293e-01 +5.8154913606443641e-03
-2.1000000000000005e+00 +8.3648783158107296e+00 +0.0000000000000000e+00 -2.0999999952989219e+00 -3.0057898370729582e-02 -5.5461514194777584e-01 +5.8175433302706855e-03
-2.1500000000000004e+00 +8.3648724511112178e+00 +0.0000000000000000e+00 -2.1499999949549591e+00 -3.0059785463339438e-02 -5.5463847095022367e-01 +5.8195809841482182e-03
-2.2000000000000002e+00 +8.3648664483177964e+00 +0.0000000000000000e+00 -2.1999999945946080e+00 -3.0061691189857159e-02 -5.5466211713844837e-01 +5.8216042075528492e-03
-2.2500000000000000e+00 +8.3648603074245784e+00 +0.0000000000000000e+00 -2.2499999942174864e+00 -3.0063615437711810e-02 -5.5468607787990054e-01 +5.8236128857594776e-03
-2.2999999999999998e+00 +8.3648540284255972e+00 +0.0000000000000000e+00 -2.2999999938232123e+00 -3.0065558094332950e-02 -5.5471035054203888e-01 +5.8256069040420093e-03
-2.3499999999999996e+00 +8.3648476113148096e+00 +0.0000000000000000e+00 -2.3499999934114033e+00 -3.0067519047150625e-02 -5.5473493249233141e-01 +5.8275861476733293e-03
-2.3999999999999995e+00 +8.3648410560860960e+00 +0.0000000000000000e+00 -2.3999999929816771e+00 -3.0069498183595295e-02 -5.5475982109825250e-01 +5.8295505019252862e-03
-2.4499999999999993e+00 +8.3648343627332604e+00 +0.0000000000000000e+00 -2.4499999925336513e+00 -3.0071495391097845e-02 -5.5478501372728595e-01 +5.8314998520686773e-03
-2.4999999999999991e+00 +8.3648275312500289e+00 +0.0000000000000000e+00 -2.4999999920669436e+00 -3.0073510557089511e-02 -5.5481050774692164e-01 +5.8334340833732104e-03
-2.5499999999999989e+00 +8.3648205616300544e+00 +0.0000000000000000e+00 -2.5499999915811715e+00 -3.0075543569001828e-02 -5.5483630052465815e-01 +5.8353530811075015e-03
-2.5999999999999988e+00 +8.3648134538669154e+00 +0.0000000000000000e+00 -2.5999999910759528e+00 -3.0077594314266615e-02 -5.5486238942800015e-01 +5.8372567305390389e-03
-2.6499999999999986e+00 +8.3648062079541177e+00 +0.0000000000000000e+00 -2.6499999905509042e+00 -3.0079662680315929e-02 -5.5488877182445917e-01 +5.8391449169341815e-03
-2.6999999999999984e+00 +8.3647988238850903e+00 +0.0000000000000000e+00 -2.6999999900056437e+00 -3.0081748554582014e-02 -5.5491544508155477e-01 +5.8410175255581166e-03
-2.7499999999999982e+00 +8.3647913016531934e+00 +0.0000000000000000e+00 -2.7499999894397882e+00 -3.0083851824497285e-02 -5.5494240656681038e-01 +5.8428744416748604e-03
-2.7999999999999980e+00 +8.3647836412517140e+00 +0.0000000000000000e+00 -2.7999999888529548e+00 -3.0085972377494250e-02 -5.5496965364775852e-01 +5.8447155505472175e-03
-2.8499999999999979e+00 +8.3647758426738701e+00 +0.0000000000000000e+00 -2.8499999882447606e+00 -3.0088110101005514e-02 -5.5499718369193618e-01 +5.8465407374367739e-03
-2.8999999999999977e+00 +8.3647679059128048e+00 +0.0000000000000000e+00 -2.8999999876148230e+00 -3.0090264882463708e-02 -5.5502499406688577e-01 +5.8483498876038794e-03
-2.9499999999999975e+00 +8.3647598309615958e+00 +0.0000000000000000e+00 -2.9499999869627587e+00 -3.0092436609301457e-02 -5.5505308214015625e-01 +5.8501428863076124e-03
-2.9999999999999973e+00 +8.3647516178132477e+00 +0.0000000000000000e+00 -2.9999999862881848e+00 -3.0094625168951353e-02 -5.5508144527930126e-01 +5.8519196188057711e-03
-3.0499999999999972e+00 +8.3647432664607013e+00 +0.0000000000000000e+00 -3.0499999855907181e+00 -3.0096830448845882e-02 -5.5511008085187963e-01 +5.8536799703548473e-03
-3.0999999999999970e+00 +8.3647347768968263e+00 +0.0000000000000000e+00 -3.0999999848699753e+00 -3.0099052336417423e-02 -5.5513898622545532e-01 +5.8554238262100138e-03
-3.1499999999999968e+00 +8.3647261491144249e+00 +0.0000000000000000e+00 -3.1499999841255732e+00 -3.0101290719098197e-02 -5.5516815876759673e-01 +5.8571510716250883e-03
-3.1999999999999966e+00 +8.3647173831062336e+00 +0.0000000000000000e+00 -3.1999999833571282e+00 -3.0103545484320187e-02 -5.5519759584587680e-01 +5.8588615918525331e-03
-3.2499999999999964e+00 +8.3647084788649249e+00 +0.0000000000000000e+00 -3.2499999825642569e+00 -3.0105816519515171e-02 -5.5522729482787181e-01 +5.8605552721434180e-03
-3.2999999999999963e+00 +8.3646994363831038e+00 +0.0000000000000000e+00 -3.2999999817465762e+00 -3.0108103712114621e-02 -5.5525725308116414e-01 +5.8622319977474106e-03
-3.3499999999999961e+00 +8.3646902556533114e+00 +0.0000000000000000e+00 -3.3499999809037022e+00 -3.0110406949549674e-02 -5.5528746797333761e-01 +5.8638916539127455e-03
-3.3999999999999959e+00 +8.3646809366680248e+00 +0.0000000000000000e+00 -3.3999999800352514e+00 -3.0112726119251153e-02 -5.5531793687198072e-01 +5.8655341258862168e-03
-3.4499999999999957e+00 +8.3646714794196573e+00 +0.0000000000000000e+00 -3.4499999791408400e+00 -3.0115061108649414e-02 -5.5534865714468551e-01 +5.8671592989131410e-03
-3.4999999999999956e+00 +8.3646618839005615e+00 +0.0000000000000000e+00 -3.4999999782200844e+00 -3.0117411805174389e-02 -5.5537962615904601e-01 +5.8687670582373520e-03
-3.5499999999999954e+00 +8.3646521501030264e+00 +0.0000000000000000e+00 -3.5499999772726003e+00 -3.0119778096255559e-02 -5.5541084128266072e-01 +5.8703572891011802e-03
-3.5999999999999952e+00 +8.3646422780192804e+00 +0.0000000000000000e+00 -3.5999999762980042e+00 -3.0122159869321825e-02 -5.5544229988312943e-01 +5.8719298767454121e-03
-3.6499999999999950e+00 +8.3646322676414897e+00 +0.0000000000000000e+00 -3.6499999752959114e+00 -3.0124557011801570e-02 -5.5547399932805441e-01 +5.8734847064092922e-03
-3.6999999999999948e+00 +8.3646221189617638e+00 +0.0000000000000000e+00 -3.6999999742659382e+00 -3.0126969411122546e-02 -5.5550593698504080e-01 +5.8750216633304967e-03
-3.7499999999999947e+00 +8.3646118319721499e+00 +0.0000000000000000e+00 -3.7499999732077005e+00 -3.0129396954711868e-02 -5.5553811022169586e-01 +5.8765406327451033e-03
-3.7999999999999945e+00 +8.3646014066646384e+00 +0.0000000000000000e+00 -3.7999999721208142e+00 -3.0131839529995971e-02 -5.5557051640562782e-01 +5.8780414998875772e-03
-3.8499999999999943e+00 +8.3645908430311593e+00 +0.0000000000000000e+00 -3.8499999710048947e+00 -3.0134297024400548e-02 -5.5560315290444651e-01 +5.8795241499907617e-03
-3.8999999999999941e+00 +8.3645801410635894e+00 +0.0000000000000000e+00 -3.8999999698595578e+00 -3.0136769325350522e-02 -5.5563601708576327e-01 +5.8809884682858322e-03
-3.9499999999999940e+00 +8.3645693007537449e+00 +0.0000000000000000e+00 -3.9499999686844185e+00 -3.0139256320270060e-02 -5.5566910631719135e-01 +5.8824343400023012e-03
-3.9999999999999938e+00 +8.3645583220933872e+00 +0.0000000000000000e+00 -3.9999999674790927e+00 -3.0141757896582445e-02 -5.5570241796634345e-01 +5.8838616503679875e-03
-4.0499999999999936e+00 +8.3645472050742224e+00 +0.0000000000000000e+00 -4.0499999662431954e+00 -3.0144273922525951e-02 -5.5573594932874837e-01 +5.8852702952554813e-03
-4.0999999999999934e+00 +8.3645359496879017e+00 +0.0000000000000000e+00 -4.0999999649763419e+00 -3.0146804189601577e-02 -5.5576969741159443e-01 +5.8866602131220349e-03
-4.1499999999999932e+00 +8.3645245559260246e+00 +0.0000000000000000e+00 -4.1499999636781482e+00 -3.0149348470125747e-02 -5.5580365914998320e-01 +5.8880313530705886e-03
-4.1999999999999931e+00 +8.3645130237801339e+00 +0.0000000000000000e+00 -4.1999999623482287e+00 -3.0151906536414523e-02 -5.5583783147901611e-01 +5.8893836642033041e-03
-4.2499999999999929e+00 +8.3645013532417209e+00 +0.0000000000000000e+00 -4.2499999609861980e+00 -3.0154478160783597e-02 -5.5587221133379294e-01 +5.8907170956215915e-03
-4.2999999999999927e+00 +8.3644895443022271e+00 +0.0000000000000000e+00 -4.2999999595916716e+00 -3.0157063115548288e-02 -5.5590679564941181e-01 +5.8920315964261115e-03
-4.3499999999999925e+00 +8.3644775969530425e+00 +0.0000000000000000e+00 -4.3499999581642639e+00 -3.0159661173023451e-02 -5.5594158136096994e-01 +5.8933271157167793e-03
-4.3999999999999924e+00 +8.3644655111855037e+00 +0.0000000000000000e+00 -4.3999999567035903e+00 -3.0162272105523576e-02 -5.5597656540356222e-01 +5.8946036025927847e-03
-4.4499999999999922e+00 +8.3644532869909032e+00 +0.0000000000000000e+00 -4.4499999552092646e+00 -3.0164895685362625e-02 -5.5601174471228099e-01 +5.8958610061525885e-03
-4.4999999999999920e+00 +8.3644409243604816e+00 +0.0000000000000000e+00 -4.4999999536809021e+00 -3.0167531684854133e-02 -5.5604711622221648e-01 +5.8970992754939491e-03
-4.5499999999999918e+00 +8.3644284232854318e+00 +0.0000000000000000e+00 -4.5499999521181174e+00 -3.0170179876311098e-02 -5.5608267686845658e-01 +5.8983183597139058e-03
-4.5999999999999917e+00 +8.3644157837568986e+00 +0.0000000000000000e+00 -4.5999999505205249e+00 -3.0172840032046035e-02 -5.5611842358608599e-01 +5.8995182079088189e-03
-4.6499999999999915e+00 +8.3644030057659844e+00 +0.0000000000000000e+00 -4.6499999488877384e+00 -3.0175511924370894e-02 -5.5615435331018592e-01 +5.9006987691743538e-03
-4.6999999999999913e+00 +8.3643900893037433e+00 +0.0000000000000000e+00 -4.6999999472193723e+00 -3.0178195325597065e-02 -5.5619046297583452e-01 +5.9018599926055019e-03
-4.7499999999999911e+00 +8.3643770343611834e+00 +0.0000000000000000e+00 -4.7499999455150412e+00 -3.0180890008035376e-02 -5.5622674951810636e-01 +5.9030018272965886e-03
-4.7999999999999909e+00 +8.3643638409292702e+00 +0.0000000000000000e+00 -4.7999999437743588e+00 -3.0183595743996025e-02 -5.5626320987207145e-01 +5.9041242223412749e-03
-4.8499999999999908e+00 +8.3643505089989283e+00 +0.0000000000000000e+00 -4.8499999419969395e+00 -3.0186312305788603e-02 -5.5629984097279650e-01 +5.9052271268325860e-03
-4.8999999999999906e+00 +8.3643370385610361e+00 +0.0000000000000000e+00 -4.8999999401823962e+00 -3.0189039465722049e-02 -5.5633663975534320e-01 +5.9063104898628921e-03
-4.9499999999999904e+00 +8.3643234296064310e+00 +0.0000000000000000e+00 -4.9499999383303432e+00 -3.0191776996104657e-02 -5.5637360315476880e-01 +5.9073742605239409e-03
-4.9999999999999902e+00 +8.3643096821259100e+00 +0.0000000000000000e+00 -4.9999999364403953e+00 -3.0194524669243987e-02 -5.5641072810612524e-01 +5.9084183879068615e-03
-5.0499999999999901e+00 +8.3642957961102304e+00 +0.0000000000000000e+00 -5.0499999345121651e+00 -3.0197282257446945e-02 -5.5644801154446000e-01 +5.9094428211021646e-03
-5.0999999999999899e+00 +8.3642817715501092e+00 +0.0000000000000000e+00 -5.0999999325452663e+00 -3.0200049533019666e-02 -5.5648545040481412e-01 +5.9104475091997571e-03
-5.1499999999999897e+00 +8.3642676084362257e+00 +0.0000000000000000e+00 -5.1499999305393125e+00 -3.0202826268267549e-02 -5.5652304162222366e-01 +5.9114324012889564e-03
-5.1999999999999895e+00 +8.3642533067592204e+00 +0.0000000000000000e+00 -5.1999999284939165e+00 -3.0205612235495258e-02 -5.5656078213171900e-01 +5.9123974464584941e-03
-5.2499999999999893e+00 +8.3642388665096963e+00 +0.0000000000000000e+00 -5.2499999264086927e+00 -3.0208407207006616e-02 -5.5659866886832376e-01 +5.9133425937965244e-03
-5.2999999999999892e+00 +8.3642242876782209e+00 +0.0000000000000000e+00 -5.2999999242832532e+00 -3.0211210955104657e-02 -5.5663669876705546e-01 +5.9142677923906357e-03
-5.3499999999999890e+00 +8.3642095702553263e+00 +0.0000000000000000e+00 -5.3499999221172114e+00 -3.0214023252091580e-02 -5.5667486876292405e-01 +5.9151729913278573e-03
-5.3999999999999888e+00 +8.3641947142315090e+00 +0.0000000000000000e+00 -5.3999999199101811e+00 -3.0216843870268725e-02 -5.5671317579093382e-01 +5.9160581396946760e-03
-5.4499999999999886e+00 +8.3641797195972298e+00 +0.0000000000000000e+00 -5.4499999176617742e+00 -3.0219672581936568e-02 -5.5675161678608120e-01 +5.9169231865770309e-03
-5.4999999999999885e+00 +8.3641645863429197e+00 +0.0000000000000000e+00 -5.4999999153716042e+00 -3.0222509159394673e-02 -5.5679018868335539e-01 +5.9177680810603385e-03
-5.5499999999999883e+00 +8.3641493144589738e+00 +0.0000000000000000e+00 -5.5499999130392839e+00 -3.0225353374941717e-02 -5.5682888841773759e-01 +5.9185927722294933e-03
-5.5999999999999881e+00 +8.3641339039357590e+00 +0.0000000000000000e+00 -5.5999999106644252e+00 -3.0228205000875388e-02 -5.5686771292420112e-01 +5.9193972091688722e-03
-5.6499999999999879e+00 +8.3641183547636064e+00 +0.0000000000000000e+00 -5.6499999082466417e+00 -3.0231063809492465e-02 -5.5690665913771142e-01 +5.9201813409623582e-03
-5.6999999999999877e+00 +8.3641026669328209e+00 +0.0000000000000000e+00 -5.6999999057855453e+00 -3.0233929573088739e-02 -5.5694572399322528e-01 +5.9209451166933333e-03
-5.7499999999999876e+00 +8.3640868404336768e+00 +0.0000000000000000e+00 -5.7499999032807487e+00 -3.0236802063958977e-02 -5.5698490442569060e-01 +5.9216884854447049e-03
-5.7999999999999874e+00 +8.3640708752564183e+00 +0.0000000000000000e+00 -5.7999999007318639e+00 -3.0239681054396957e-02 -5.5702419737004694e-01 +5.9224113962988937e-03
-5.8499999999999872e+00 +8.3640547713912614e+00 +0.0000000000000000e+00 -5.8499998981385026e+00 -3.0242566316695366e-02 -5.5706359976122344e-01 +5.9231137983378652e-03
