# trajectory
# s[mm] rx[mm] ry[mm] rz[mm] px[rad] py[rad] pz[rad]
0.0000000000000000e+00 +8.5269999999999992e+00 +0.0000000000000000e+00 +0.0000000000000000e+00 +0.0000000000000000e+00 +0.0000000000000000e+00 +1.0000000000000000e+00
-5.0000000000000003e-02 +8.5269999310084916e+00 +0.0000000000000000e+00 -4.9999999999936540e-02 +2.7596609117908296e-06 +0.0000000000000000e+00 +9.9999999999619216e-01
-1.0000000000000001e-01 +8.5269997240338302e+00 +0.0000000000000000e+00 -9.9999999999492301e-02 +5.5193264753005724e-06 +0.0000000000000000e+00 +9.9999999998476852e-01
-1.5000000000000002e-01 +8.5269993790757361e+00 +0.0000000000000000e+00 -1.4999999999828648e-01 +8.2789985599331315e-06 +0.0000000000000000e+00 +9.9999999996572908e-01
-2.0000000000000001e-01 +8.5269988961338345e+00 +0.0000000000000000e+00 -1.9999999999593829e-01 +1.1038679032084870e-05 +0.0000000000000000e+00 +9.9999999993907374e-01
-2.5000000000000000e-01 +8.5269982752076618e+00 +0.0000000000000000e+00 -2.4999999999206693e-01 +1.3798369755144701e-05 +0.0000000000000000e+00 +9.9999999990480248e-01
-2.9999999999999999e-01 +8.5269975162966567e+00 +0.0000000000000000e+00 -2.9999999998629162e-01 +1.6558072589494165e-05 +0.0000000000000000e+00 +9.9999999986291510e-01
-3.4999999999999998e-01 +8.5269966194001690e+00 +0.0000000000000000e+00 -3.4999999997823150e-01 +1.9317789392507519e-05 +0.0000000000000000e+00 +9.9999999981341148e-01
-3.9999999999999997e-01 +8.5269955845174543e+00 +0.0000000000000000e+00 -3.9999999996750579e-01 +2.2077522018551814e-05 +0.0000000000000000e+00 +9.9999999975629150e-01
-4.4999999999999996e-01 +8.5269944116476726e+00 +0.0000000000000000e+00 -4.4999999995373369e-01 +2.4837272318986984e-05 +0.0000000000000000e+00 +9.9999999969155495e-01
-4.9999999999999994e-01 +8.5269931007898965e+00 +0.0000000000000000e+00 -4.9999999993653432e-01 +2.7597042142165924e-05 +0.0000000000000000e+00 +9.9999999961920161e-01
-5.4999999999999993e-01 +8.5269916519431028e+00 +0.0000000000000000e+00 -5.4999999991552684e-01 +3.0356833333434571e-05 +0.0000000000000000e+00 +9.9999999953923135e-01
-5.9999999999999998e-01 +8.5269900651061761e+00 +0.0000000000000000e+00 -5.9999999989033048e-01 +3.3116647735131996e-05 +0.0000000000000000e+00 +9.9999999945164386e-01
-6.5000000000000002e-01 +8.5269883402779119e+00 +0.0000000000000000e+00 -6.4999999986056434e-01 +3.5876487186590481e-05 +0.0000000000000000e+00 +9.9999999935643891e-01
-7.0000000000000007e-01 +8.5269864774570099e+00 +0.0000000000000000e+00 -6.9999999982584749e-01 +3.8636353524135592e-05 +0.0000000000000000e+00 +9.9999999925361616e-01
-7.5000000000000011e-01 +8.5269844766420810e+00 +0.0000000000000000e+00 -7.4999999978579901e-01 +4.1396248581086272e-05 +0.0000000000000000e+00 +9.9999999914317539e-01
-8.0000000000000016e-01 +8.5269823378316421e+00 +0.0000000000000000e+00 -7.9999999974003799e-01 +4.4156174187754927e-05 +0.0000000000000000e+00 +9.9999999902511627e-01
-8.5000000000000020e-01 +8.5269800610241226e+00 +0.0000000000000000e+00 -8.4999999968818363e-01 +4.6916132171447489e-05 +0.0000000000000000e+00 +9.9999999889943836e-01
-9.0000000000000024e-01 +8.5269776462178566e+00 +0.0000000000000000e+00 -8.9999999962985489e-01 +4.9676124356463512e-05 +0.0000000000000000e+00 +9.9999999876614143e-01
-9.5000000000000029e-01 +8.5269750934110871e+00 +0.0000000000000000e+00 -9.4999999956467085e-01 +5.2436152564096255e-05 +0.0000000000000000e+00 +9.9999999862522504e-01
-1.0000000000000002e+00 +8.5269724026019684e+00 +0.0000000000000000e+00 -9.9999999949225049e-01 +5.5196218612632748e-05 +0.0000000000000000e+00 +9.9999999847668886e-01
-1.0500000000000003e+00 +8.5269695737885645e+00 +0.0000000000000000e+00 -1.0499999994122127e+00 +5.7956324317353889e-05 +0.0000000000000000e+00 +9.9999999832053232e-01
-1.1000000000000003e+00 +8.5269666069688466e+00 +0.0000000000000000e+00 -1.0999999993241767e+00 +6.0716471490534508e-05 +0.0000000000000000e+00 +9.9999999815675511e-01
-1.1500000000000004e+00 +8.5269635021406955e+00 +0.0000000000000000e+00 -1.1499999992277612e+00 +6.3476661941443458e-05 +0.0000000000000000e+00 +9.9999999798535677e-01
-1.2000000000000004e+00 +8.5269602593019016e+00 +0.0000000000000000e+00 -1.1999999991225854e+00 +6.6236897476343711e-05 +0.0000000000000000e+00 +9.9999999780633675e-01
-1.2500000000000004e+00 +8.5269568784501661e+00 +0.0000000000000000e+00 -1.2499999990082680e+00 +6.8997179898492387e-05 +0.0000000000000000e+00 +9.9999999761969460e-01
-1.3000000000000005e+00 +8.5269533595831000e+00 +0.0000000000000000e+00 -1.2999999988844277e+00 +7.1757511008140897e-05 +0.0000000000000000e+00 +9.9999999742542978e-01
-1.3500000000000005e+00 +8.5269497026982233e+00 +0.0000000000000000e+00 -1.3499999987506839e+00 +7.4517892602534968e-05 +0.0000000000000000e+00 +9.9999999722354183e-01
-1.4000000000000006e+00 +8.5269459077929675e+00 +0.0000000000000000e+00 -1.3999999986066549e+00 +7.7278326475914758e-05 +0.0000000000000000e+00 +9.9999999701403008e-01
-1.4500000000000006e+00 +8.5269419748646733e+00 +0.0000000000000000e+00 -1.4499999984519598e+00 +8.0038814419514922e-05 +0.0000000000000000e+00 +9.9999999679689400e-01
-1.5000000000000007e+00 +8.5269379039105946e+00 +0.0000000000000000e+00 -1.4999999982862173e+00 +8.2799358221564680e-05 +0.0000000000000000e+00 +9.9999999657213301e-01
-1.5500000000000007e+00 +8.5269336949278909e+00 +0.0000000000000000e+00 -1.5499999981090462e+00 +8.5559959667287923e-05 +0.0000000000000000e+00 +9.9999999633974657e-01
-1.6000000000000008e+00 +8.5269293479136365e+00 +0.0000000000000000e+00 -1.5999999979200650e+00 +8.8320620538903270e-05 +0.0000000000000000e+00 +9.9999999609973389e-01
-1.6500000000000008e+00 +8.5269248628648171e+00 +0.0000000000000000e+00 -1.6499999977188924e+00 +9.1081342615624135e-05 +0.0000000000000000e+00 +9.9999999585209443e-01
-1.7000000000000008e+00 +8.5269202397783257e+00 +0.0000000000000000e+00 -1.6999999975051472e+00 +9.3842127673658850e-05 +0.0000000000000000e+00 +9.9999999559682740e-01
-1.7500000000000009e+00 +8.5269154786509702e+00 +0.0000000000000000e+00 -1.7499999972784479e+00 +9.6602977486210688e-05 +0.0000000000000000e+00 +9.9999999533393225e-01
-1.8000000000000009e+00 +8.5269105794794680e+00 +0.0000000000000000e+00 -1.7999999970384133e+00 +9.9363893823477964e-05 +0.0000000000000000e+00 +9.9999999506340820e-01
-1.8500000000000010e+00 +8.5269055422604492e+00 +0.0000000000000000e+00 -1.8499999967846616e+00 +1.0212487845265414e-04 +0.0000000000000000e+00 +9.9999999478525448e-01
-1.9000000000000010e+00 +8.5269003669904553e+00 +0.0000000000000000e+00 -1.8999999965168115e+00 +1.0488593313792786e-04 +0.0000000000000000e+00 +9.9999999449947041e-01
-1.9500000000000011e+00 +8.5268950536659389e+00 +0.0000000000000000e+00 -1.9499999962344814e+00 +1.0764705964048304e-04 +0.0000000000000000e+00 +9.9999999420605512e-01
-2.0000000000000009e+00 +8.5268896022832656e+00 +0.0000000000000000e+00 -1.9999999959372898e+00 +1.1040825971849896e-04 +0.0000000000000000e+00 +9.9999999390500793e-01
-2.0500000000000007e+00 +8.5268840128387122e+00 +0.0000000000000000e+00 -2.0499999956248551e+00 +1.1316953512682213e-04 +0.0000000000000000e+00 +9.9999999359632796e-01
-2.1000000000000005e+00 +8.5268782853284684e+00 +0.0000000000000000e+00 -2.0999999952967956e+00 +1.1593088761335629e-04 +0.0000000000000000e+00 +9.9999999328001443e-01
-2.1500000000000004e+00 +8.5268724197486367e+00 +0.0000000000000000e+00 -2.1499999949527293e+00 +1.1869231891545242e-04 +0.0000000000000000e+00 +9.9999999295606645e-01
-2.2000000000000002e+00 +8.5268664160952348e+00 +0.0000000000000000e+00 -2.1999999945922748e+00 +1.2145383075958056e-04 +0.0000000000000000e+00 +9.9999999262448325e-01
-2.2500000000000000e+00 +8.5268602743641910e+00 +0.0000000000000000e+00 -2.2499999942150501e+00 +1.2421542486132993e-04 +0.0000000000000000e+00 +9.9999999228526382e-01
-2.2999999999999998e+00 +8.5268539945513506e+00 +0.0000000000000000e+00 -2.2999999938206739e+00 +1.2697710292540893e-04 +0.0000000000000000e+00 +9.9999999193840738e-01
-2.3499999999999996e+00 +8.5268475766524716e+00 +0.0000000000000000e+00 -2.3499999934087636e+00 +1.2973886664564526e-04 +0.0000000000000000e+00 +9.9999999158391295e-01
-2.3999999999999995e+00 +8.5268410206632304e+00 +0.0000000000000000e+00 -2.3999999929789380e+00 +1.3250071770498590e-04 +0.0000000000000000e+00 +9.9999999122177963e-01
-2.4499999999999993e+00 +8.5268343265792179e+00 +0.0000000000000000e+00 -2.4499999925308145e+00 +1.3526265777549722e-04 +0.0000000000000000e+00 +9.9999999085200642e-01
-2.4999999999999991e+00 +8.5268274943959419e+00 +0.0000000000000000e+00 -2.4999999920640112e+00 +1.3802468851836498e-04 +0.0000000000000000e+00 +9.9999999047459243e-01
-2.5499999999999989e+00 +8.5268205241088282e+00 +0.0000000000000000e+00 -2.5499999915781464e+00 +1.4078681158389447e-04 +0.0000000000000000e+00 +9.9999999008953655e-01
-2.5999999999999988e+00 +8.5268134157132174e+00 +0.0000000000000000e+00 -2.5999999910728375e+00 +1.4354902861151046e-04 +0.0000000000000000e+00 +9.9999998969683790e-01
-2.6499999999999986e+00 +8.5268061692043737e+00 +0.0000000000000000e+00 -2.6499999905477027e+00 +1.4631134122975730e-04 +0.0000000000000000e+00 +9.9999998929649536e-01
-2.6999999999999984e+00 +8.5267987845774744e+00 +0.0000000000000000e+00 -2.6999999900023597e+00 +1.4907375105629897e-04 +0.0000000000000000e+00 +9.9999998888850805e-01
-2.7499999999999982e+00 +8.5267912618276203e+00 +0.0000000000000000e+00 -2.7499999894364260e+00 +1.5183625969791910e-04 +0.0000000000000000e+00 +9.9999998847287475e-01
-2.7999999999999980e+00 +8.5267836009498303e+00 +0.0000000000000000e+00 -2.7999999888495197e+00 +1.5459886875052102e-04 +0.0000000000000000e+00 +9.9999998804959456e-01
-2.8499999999999979e+00 +8.5267758019390456e+00 +0.0000000000000000e+00 -2.8499999882412581e+00 +1.5736157979912788e-04 +0.0000000000000000e+00 +9.9999998761866626e-01
-2.8999999999999977e+00 +8.5267678647901253e+00 +0.0000000000000000e+00 -2.8999999876112588e+00 +1.6012439441788256e-04 +0.0000000000000000e+00 +9.9999998718008887e-01
-2.9499999999999975e+00 +8.5267597894978522e+00 +0.0000000000000000e+00 -2.9499999869591393e+00 +1.6288731417004782e-04 +0.0000000000000000e+00 +9.9999998673386115e-01
-2.9999999999999973e+00 +8.5267515760569310e+00 +0.0000000000000000e+00 -2.9999999862845175e+00 +1.6565034060800628e-04 +0.0000000000000000e+00 +9.9999998627998199e-01
-3.0499999999999972e+00 +8.5267432244619883e+00 +0.0000000000000000e+00 -3.0499999855870104e+00 +1.6841347527326046e-04 +0.0000000000000000e+00 +9.9999998581845029e-01
-3.0999999999999970e+00 +8.5267347347075741e+00 +0.0000000000000000e+00 -3.0999999848662352e+00 +1.7117671969643289e-04 +0.0000000000000000e+00 +9.9999998534926493e-01
-3.1499999999999968e+00 +8.5267261067881641e+00 +0.0000000000000000e+00 -3.1499999841218091e+00 +1.7394007539726607e-04 +0.0000000000000000e+00 +9.9999998487242470e-01
-3.1999999999999966e+00 +8.5267173406981556e+00 +0.0000000000000000e+00 -3.1999999833533499e+00 +1.7670354388462254e-04 +0.0000000000000000e+00 +9.9999998438792836e-01
-3.2499999999999964e+00 +8.5267084364318713e+00 +0.0000000000000000e+00 -3.2499999825604742e+00 +1.7946712665648488e-04 +0.0000000000000000e+00 +9.9999998389577482e-01
-3.2999999999999963e+00 +8.5266993939835611e+00 +0.0000000000000000e+00 -3.2999999817427996e+00 +1.8223082519995581e-04 +0.0000000000000000e+00 +9.9999998339596274e-01
-3.3499999999999961e+00 +8.5266902133473987e+00 +0.0000000000000000e+00 -3.3499999808999430e+00 +1.8499464099125816e-04 +0.0000000000000000e+00 +9.9999998288849101e-01
-3.3999999999999959e+00 +8.5266808945174848e+00 +0.0000000000000000e+00 -3.3999999800315210e+00 +1.8775857549573492e-04 +0.0000000000000000e+00 +9.9999998237335830e-01
-3.4499999999999957e+00 +8.5266714374878472e+00 +0.0000000000000000e+00 -3.4499999791371510e+00 +1.9052263016784929e-04 +0.0000000000000000e+00 +9.9999998185056327e-01
-3.4999999999999956e+00 +8.5266618422524409e+00 +0.0000000000000000e+00 -3.4999999782164495e+00 +1.9328680645118467e-04 +0.0000000000000000e+00 +9.9999998132010481e-01
-3.5499999999999954e+00 +8.5266521088051501e+00 +0.0000000000000000e+00 -3.5499999772690334e+00 +1.9605110577844474e-04 +0.0000000000000000e+00 +9.9999998078198149e-01
-3.5999999999999952e+00 +8.5266422371397876e+00 +0.0000000000000000e+00 -3.5999999762945198e+00 +1.9881552957145342e-04 +0.0000000000000000e+00 +9.9999998023619208e-01
-3.6499999999999950e+00 +8.5266322272500954e+00 +0.0000000000000000e+00 -3.6499999752925252e+00 +2.0158007924115498e-04 +0.0000000000000000e+00 +9.9999997968273524e-01
-3.6999999999999948e+00 +8.5266220791297425e+00 +0.0000000000000000e+00 -3.6999999742626657e+00 +2.0434475618761398e-04 +0.0000000000000000e+00 +9.9999997912160976e-01
-3.7499999999999947e+00 +8.5266117927723322e+00 +0.0000000000000000e+00 -3.7499999732045581e+00 +2.0710956180001536e-04 +0.0000000000000000e+00 +9.9999997855281419e-01
-3.7999999999999945e+00 +8.5266013681713950e+00 +0.0000000000000000e+00 -3.7999999721178193e+00 +2.0987449745666438e-04 +0.0000000000000000e+00 +9.9999997797634710e-01
-3.8499999999999943e+00 +8.5265908053203958e+00 +0.0000000000000000e+00 -3.8499999710020649e+00 +2.1263956452498677e-04 +0.0000000000000000e+00 +9.9999997739220725e-01
-3.8999999999999941e+00 +8.5265801042127300e+00 +0.0000000000000000e+00 -3.8999999698569119e+00 +2.1540476436152859e-04 +0.0000000000000000e+00 +9.9999997680039321e-01
-3.9499999999999940e+00 +8.5265692648417239e+00 +0.0000000000000000e+00 -3.9499999686819764e+00 +2.1817009831195643e-04 +0.0000000000000000e+00 +9.9999997620090353e-01
-3.9999999999999938e+00 +8.5265582872006398e+00 +0.0000000000000000e+00 -3.9999999674768745e+00 +2.2093556771105724e-04 +0.0000000000000000e+00 +9.9999997559373688e-01
-4.0499999999999936e+00 +8.5265471712826724e+00 +0.0000000000000000e+00 -4.0499999662412218e+00 +2.2370117388261209e-04 +0.0000000000000000e+00 +9.9999997497889181e-01
-4.0999999999999934e+00 +8.5265359170809507e+00 +0.0000000000000000e+00 -4.0999999649746357e+00 +2.2646691813800625e-04 +0.0000000000000000e+00 +9.9999997435636689e-01
-4.1499999999999932e+00 +8.5265245245885364e+00 +0.0000000000000000e+00 -4.1499999636767306e+00 +2.2923280177483912e-04 +0.0000000000000000e+00 +9.9999997372616067e-01
-4.1999999999999931e+00 +8.5265129937984288e+00 +0.0000000000000000e+00 -4.1999999623471238e+00 +2.3199882607679797e-04 +0.0000000000000000e+00 +9.9999997308827171e-01
-4.2499999999999929e+00 +8.5265013247035633e+00 +0.0000000000000000e+00 -4.2499999609854298e+00 +2.3476499231365794e-04 +0.0000000000000000e+00 +9.9999997244269856e-01
-4.2999999999999927e+00 +8.5264895172968114e+00 +0.0000000000000000e+00 -4.2999999595912648e+00 +2.3753130174128197e-04 +0.0000000000000000e+00 +9.9999997178943967e-01
-4.3499999999999925e+00 +8.5264775715709824e+00 +0.0000000000000000e+00 -4.3499999581642452e+00 +2.4029775560162095e-04 +0.0000000000000000e+00 +9.9999997112849359e-01
-4.3999999999999924e+00 +8.5264654875188235e+00 +0.0000000000000000e+00 -4.3999999567039865e+00 +2.4306435512271363e-04 +0.0000000000000000e+00 +9.9999997045985889e-01
-4.4499999999999922e+00 +8.5264532651330214e+00 +0.0000000000000000e+00 -4.4499999552101031e+00 +2.4583110151868664e-04 +0.0000000000000000e+00 +9.9999996978353400e-01
-4.4999999999999920e+00 +8.5264409044062024e+00 +0.0000000000000000e+00 -4.4999999536822113e+00 +2.4859799598975452e-04 +0.0000000000000000e+00 +9.9999996909951738e-01
-4.5499999999999918e+00 +8.5264284053309343e+00 +0.0000000000000000e+00 -4.5499999521199266e+00 +2.5136503972221968e-04 +0.0000000000000000e+00 +9.9999996840780758e-01
-4.5999999999999917e+00 +8.5264157678997226e+00 +0.0000000000000000e+00 -4.5999999505228635e+00 +2.5413223388847257e-04 +0.0000000000000000e+00 +9.9999996770840305e-01
-4.6499999999999915e+00 +8.5264029921050177e+00 +0.0000000000000000e+00 -4.6499999488906383e+00 +2.5689957964699137e-04 +0.0000000000000000e+00 +9.9999996700130211e-01
-4.6999999999999913e+00 +8.5263900779392117e+00 +0.0000000000000000e+00 -4.6999999472228655e+00 +2.5966707814234236e-04 +0.0000000000000000e+00 +9.9999996628650334e-01
-4.7499999999999911e+00 +8.5263770253946394e+00 +0.0000000000000000e+00 -4.7499999455191606e+00 +2.6243473050517965e-04 +0.0000000000000000e+00 +9.9999996556400517e-01
-4.7999999999999909e+00 +8.5263638344635790e+00 +0.0000000000000000e+00 -4.7999999437791381e+00 +2.6520253785224530e-04 +0.0000000000000000e+00 +9.9999996483380593e-01
-4.8499999999999908e+00 +8.5263505051382538e+00 +0.0000000000000000e+00 -4.8499999420024134e+00 +2.6797050128636926e-04 +0.0000000000000000e+00 +9.9999996409590419e-01
-4.8999999999999906e+00 +8.5263370374108316e+00 +0.0000000000000000e+00 -4.8999999401886001e+00 +2.7073862189646946e-04 +0.0000000000000000e+00 +9.9999996335029828e-01
-4.9499999999999904e+00 +8.5263234312734273e+00 +0.0000000000000000e+00 -4.9499999383373146e+00 +2.7350690075755168e-04 +0.0000000000000000e+00 +9.9999996259698654e-01
-4.9999999999999902e+00 +8.5263096867181005e+00 +0.0000000000000000e+00 -4.9999999364481704e+00 +2.7627533893070970e-04 +0.0000000000000000e+00 +9.9999996183596740e-01
-5.0499999999999901e+00 +8.5262958037368612e+00 +0.0000000000000000e+00 -5.0499999345207831e+00 +2.7904393746312512e-04 +0.0000000000000000e+00 +9.9999996106723932e-01
-5.0999999999999899e+00 +8.5262817823216643e+00 +0.0000000000000000e+00 -5.0999999325547662e+00 +2.8181269738806753e-04 +0.0000000000000000e+00 +9.9999996029080063e-01
-5.1499999999999897e+00 +8.5262676224644149e+00 +0.0000000000000000e+00 -5.1499999305497344e+00 +2.8458161972489435e-04 +0.0000000000000000e+00 +9.9999995950664966e-01
-5.1999999999999895e+00 +8.5262533241569685e+00 +0.0000000000000000e+00 -5.1999999285053020e+00 +2.8735070547905096e-04 +0.0000000000000000e+00 +9.9999995871478475e-01
-5.2499999999999893e+00 +8.5262388873911270e+00 +0.0000000000000000e+00 -5.2499999264210837e+00 +2.9011995564207050e-04 +0.0000000000000000e+00 +9.9999995791520435e-01
-5.2999999999999892e+00 +8.5262243121586465e+00 +0.0000000000000000e+00 -5.2999999242966940e+00 +2.9288937119157412e-04 +0.0000000000000000e+00 +9.9999995710790679e-01
-5.3499999999999890e+00 +8.5262095984512349e+00 +0.0000000000000000e+00 -5.3499999221317465e+00 +2.9565895309127075e-04 +0.0000000000000000e+00 +9.9999995629289040e-01
-5.3999999999999888e+00 +8.5261947462605487e+00 +0.0000000000000000e+00 -5.3999999199258548e+00 +2.9842870229095721e-04 +0.0000000000000000e+00 +9.9999995547015341e-01
-5.4499999999999886e+00 +8.5261797555782017e+00 +0.0000000000000000e+00 -5.4499999176786336e+00 +3.0119861972651807e-04 +0.0000000000000000e+00 +9.9999995463969427e-01
-5.4999999999999885e+00 +8.5261646263957580e+00 +0.0000000000000000e+00 -5.4999999153896955e+00 +3.0396870631992583e-04 +0.0000000000000000e+00 +9.9999995380151130e-01
-5.5499999999999883e+00 +8.5261493587047354e+00 +0.0000000000000000e+00 -5.5499999130586559e+00 +3.0673896297924070e-04 +0.0000000000000000e+00 +9.9999995295560273e-01
-5.5999999999999881e+00 +8.5261339524966093e+00 +0.0000000000000000e+00 -5.5999999106851277e+00 +3.0950939059861071e-04 +0.0000000000000000e+00 +9.9999995210196702e-01
-5.6499999999999879e+00 +8.5261184077628105e+00 +0.0000000000000000e+00 -5.6499999082687244e+00 +3.1227999005827164e-04 +0.0000000000000000e+00 +9.9999995124060226e-01
-5.6999999999999877e+00 +8.5261027244947254e+00 +0.0000000000000000e+00 -5.6999999058090598e+00 +3.1505076222454703e-04 +0.0000000000000000e+00 +9.9999995037150691e-01
-5.7499999999999876e+00 +8.5260869026836961e+00 +0.0000000000000000e+00 -5.7499999033057465e+00 +3.1782170794984819e-04 +0.0000000000000000e+00 +9.9999994949467919e-01
-5.7999999999999874e+00 +8.5260709423210237e+00 +0.0000000000000000e+00 -5.7999999007583982e+00 +3.2059282807267404e-04 +0.0000000000000000e+00 +9.9999994861011743e-01
-5.8499999999999872e+00 +8.5260548433979686e+00 +0.0000000000000000e+00 -5.8499998981666286e+00 +3.2336412341761123e-04 +0.0000000000000000e+00 +9.9999994771781997e-01
