# field on trajectory
# s[mm] rx[mm] ry[mm] rz[mm] bx[T] by[T] bz[T]
0.0000000000000000e+00 +8.5389999999999997e+00 +0.0000000000000000e+00 +0.0000000000000000e+00 -2.9082140339737463e-02 -5.5226735491355206e-01 +5.3866386033747009e-03
5.0000000000000003e-02 +8.5389999310910376e+00 +0.0000000000000000e+00 +4.9999999999936685e-02 -2.9081805254898851e-02 -5.5225911632068436e-01 +5.3868909060434374e-03
1.0000000000000001e-01 +8.5389997243655085e+00 +0.0000000000000000e+00 +9.9999999999493494e-02 -2.9081487333456515e-02 -5.5225125835418454e-01 +5.3871490846093897e-03
1.5000000000000002e-01 +8.5389993798253734e+00 +0.0000000000000000e+00 +1.4999999999829058e-01 -2.9081186595174495e-02 -5.5224378102264493e-01 +5.3874131397094851e-03
2.0000000000000001e-01 +8.5389988974724975e+00 +0.0000000000000000e+00 +1.9999999999594811e-01 -2.9080903059816976e-02 -5.5223668433467465e-01 +5.3876830719807364e-03
2.5000000000000000e-01 +8.5389982773086519e+00 +0.0000000000000000e+00 +2.4999999999208625e-01 -2.9080636747148291e-02 -5.5222996829889959e-01 +5.3879588820602651e-03
2.9999999999999999e-01 +8.5389975193355117e+00 +0.0000000000000000e+00 +2.9999999998632521e-01 -2.9080387676932981e-02 -5.5222363292396370e-01 +5.3882405705853037e-03
3.4999999999999998e-01 +8.5389966235546595e+00 +0.0000000000000000e+00 +3.4999999997828513e-01 -2.9080155868935822e-02 -5.5221767821852663e-01 +5.3885281381932069e-03
3.9999999999999997e-01 +8.5389955899675805e+00 +0.0000000000000000e+00 +3.9999999996758628e-01 -2.9079941342921876e-02 -5.5221210419126576e-01 +5.3888215855214779e-03
4.4999999999999996e-01 +8.5389944185756654e+00 +0.0000000000000000e+00 +4.4999999995384887e-01 -2.9079744118656516e-02 -5.5220691085087614e-01 +5.3891209132077532e-03
4.9999999999999994e-01 +8.5389931093802094e+00 +0.0000000000000000e+00 +4.9999999993669308e-01 -2.9079564215905511e-02 -5.5220209820606991e-01 +5.3894261218898473e-03
5.4999999999999993e-01 +8.5389916623824149e+00 +0.0000000000000000e+00 +5.4999999991573922e-01 -2.9079401654434980e-02 -5.5219766626557587e-01 +5.3897372122057308e-03
5.9999999999999998e-01 +8.5389900775833887e+00 +0.0000000000000000e+00 +5.9999999989060748e-01 -2.9079256454011479e-02 -5.5219361503814057e-01 +5.3900541847935659e-03
6.5000000000000002e-01 +8.5389883549841397e+00 +0.0000000000000000e+00 +6.4999999986091817e-01 -2.9079128634402068e-02 -5.5218994453252845e-01 +5.3903770402917058e-03
7.0000000000000007e-01 +8.5389864945855845e+00 +0.0000000000000000e+00 +6.9999999982629146e-01 -2.9079018215374272e-02 -5.5218665475752093e-01 +5.3907057793387125e-03
7.5000000000000011e-01 +8.5389844963885455e+00 +0.0000000000000000e+00 +7.4999999978634768e-01 -2.9078925216696215e-02 -5.5218374572191731e-01 +5.3910404025733624e-03
8.0000000000000016e-01 +8.5389823603937476e+00 +0.0000000000000000e+00 +7.9999999974070712e-01 -2.9078849658136587e-02 -5.5218121743453452e-01 +5.3913809106346695e-03
8.5000000000000020e-01 +8.5389800866018213e+00 +0.0000000000000000e+00 +8.4999999968898998e-01 -2.9078791559464679e-02 -5.5217906990420573e-01 +5.3917273041618752e-03
9.0000000000000024e-01 +8.5389776750133031e+00 +0.0000000000000000e+00 +8.9999999963081656e-01 -2.9078750940450489e-02 -5.5217730313978397e-01 +5.3920795837944843e-03
9.5000000000000029e-01 +8.5389751256286335e+00 +0.0000000000000000e+00 +9.4999999956580705e-01 -2.9078727820864698e-02 -5.5217591715013914e-01 +5.3924377501722619e-03
1.0000000000000002e+00 +8.5389724384481589e+00 +0.0000000000000000e+00 +9.9999999949358187e-01 -2.9078722220478723e-02 -5.5217491194415869e-01 +5.3928018039352448e-03
1.0500000000000003e+00 +8.5389696134721298e+00 +0.0000000000000000e+00 +1.0499999994137612e+00 -2.9078734159064770e-02 -5.5217428753074749e-01 +5.3931717457237601e-03
1.1000000000000003e+00 +8.5389666507007025e+00 +0.0000000000000000e+00 +1.0999999993259653e+00 -2.9078763656395869e-02 -5.5217404391882985e-01 +5.3935475761784325e-03
1.1500000000000004e+00 +8.5389635501339374e+00 +0.0000000000000000e+00 +1.1499999992298142e+00 -2.9078810732245882e-02 -5.5217418111734640e-01 +5.3939292959402016e-03
1.2000000000000004e+00 +8.5389603117718007e+00 +0.0000000000000000e+00 +1.1999999991249286e+00 -2.9078875406389586e-02 -5.5217469913525685e-01 +5.3943169056503149e-03
1.2500000000000004e+00 +8.5389569356141628e+00 +0.0000000000000000e+00 +1.2499999990109283e+00 -2.9078957698602709e-02 -5.5217559798153881e-01 +5.3947104059503667e-03
1.3000000000000005e+00 +8.5389534216607998e+00 +0.0000000000000000e+00 +1.2999999988874338e+00 -2.9079057628661913e-02 -5.5217687766518753e-01 +5.3951097974822898e-03
1.3500000000000005e+00 +8.5389497699113921e+00 +0.0000000000000000e+00 +1.3499999987540652e+00 -2.9079175216344903e-02 -5.5217853819521723e-01 +5.3955150808883672e-03
1.4000000000000006e+00 +8.5389459803655257e+00 +0.0000000000000000e+00 +1.3999999986104428e+00 -2.9079310481430403e-02 -5.5218057958065958e-01 +5.3959262568112620e-03
1.4500000000000006e+00 +8.5389420530226907e+00 +0.0000000000000000e+00 +1.4499999984561867e+00 -2.9079463443698238e-02 -5.5218300183056512e-01 +5.3963433258940015e-03
1.5000000000000007e+00 +8.5389379878822833e+00 +0.0000000000000000e+00 +1.4999999982909171e+00 -2.9079634122929372e-02 -5.5218580495400271e-01 +5.3967662887800163e-03
1.5500000000000007e+00 +8.5389337849436036e+00 +0.0000000000000000e+00 +1.5499999981142545e+00 -2.9079822538905925e-02 -5.5218898896005919e-01 +5.3971951461131281e-03
1.6000000000000008e+00 +8.5389294442058574e+00 +0.0000000000000000e+00 +1.5999999979258186e+00 -2.9080028711411212e-02 -5.5219255385784005e-01 +5.3976298985375778e-03
1.6500000000000008e+00 +8.5389249656681532e+00 +0.0000000000000000e+00 +1.6499999977252298e+00 -2.9080252660229795e-02 -5.5219649965646977e-01 +5.3980705466980328e-03
1.7000000000000008e+00 +8.5389203493295085e+00 +0.0000000000000000e+00 +1.6999999975121081e+00 -2.9080494405147515e-02 -5.5220082636509060e-01 +5.3985170912395925e-03
1.7500000000000009e+00 +8.5389155951888434e+00 +0.0000000000000000e+00 +1.7499999972860738e+00 -2.9080753965951538e-02 -5.5220553399286409e-01 +5.3989695328078013e-03
1.8000000000000009e+00 +8.5389107032449818e+00 +0.0000000000000000e+00 +1.7999999970467468e+00 -2.9081031362430388e-02 -5.5221062254897035e-01 +5.3994278720486738e-03
1.8500000000000010e+00 +8.5389056734966555e+00 +0.0000000000000000e+00 +1.8499999967937473e+00 -2.9081326614373959e-02 -5.5221609204260780e-01 +5.3998921096086840e-03
1.9000000000000010e+00 +8.5389005059424985e+00 +0.0000000000000000e+00 +1.8999999965266954e+00 -2.9081639741573597e-02 -5.5222194248299417e-01 +5.4003622461347919e-03
1.9500000000000011e+00 +8.5388952005810523e+00 +0.0000000000000000e+00 +1.9499999962452110e+00 -2.9081970763822133e-02 -5.5222817387936551e-01 +5.4008382822744536e-03
2.0000000000000009e+00 +8.5388897574107610e+00 +0.0000000000000000e+00 +1.9999999959489141e+00 -2.9082319700913885e-02 -5.5223478624097744e-01 +5.4013202186756299e-03
2.0500000000000007e+00 +8.5388841764299741e+00 +0.0000000000000000e+00 +2.0499999956374246e+00 -2.9082686566886104e-02 -5.5224177931865870e-01 +5.4018080446235515e-03
2.1000000000000005e+00 +8.5388784576369456e+00 +0.0000000000000000e+00 +2.0999999953103630e+00 -2.9083071352742983e-02 -5.5224915182947698e-01 +5.4023017039508759e-03
2.1500000000000004e+00 +8.5388726010298370e+00 +0.0000000000000000e+00 +2.1499999949673487e+00 -2.9083474043731312e-02 -5.5225690223206969e-01 +5.4028011291272137e-03
2.2000000000000002e+00 +8.5388666066067156e+00 +0.0000000000000000e+00 +2.1999999946080018e+00 -2.9083894625099083e-02 -5.5226502898508956e-01 +5.4033062526223329e-03
2.2500000000000000e+00 +8.5388604743655510e+00 +0.0000000000000000e+00 +2.2499999942319420e+00 -2.9084333082095553e-02 -5.5227353054720529e-01 +5.4038170069061735e-03
2.2999999999999998e+00 +8.5388542043042239e+00 +0.0000000000000000e+00 +2.2999999938387896e+00 -2.9084789399971202e-02 -5.5228240537710027e-01 +5.4043333244488054e-03
2.3499999999999996e+00 +8.5388477964205176e+00 +0.0000000000000000e+00 +2.3499999934281641e+00 -2.9085263563977774e-02 -5.5229165193347185e-01 +5.4048551377204419e-03
2.3999999999999995e+00 +8.5388412507121263e+00 +0.0000000000000000e+00 +2.3999999929996854e+00 -2.9085755559368272e-02 -5.5230126867503371e-01 +5.4053823791914216e-03
2.4499999999999993e+00 +8.5388345671766501e+00 +0.0000000000000000e+00 +2.4499999925529732e+00 -2.9086265371397007e-02 -5.5231125406051251e-01 +5.4059149813321982e-03
2.4999999999999991e+00 +8.5388277458115951e+00 +0.0000000000000000e+00 +2.4999999920876470e+00 -2.9086792985319566e-02 -5.5232160654865003e-01 +5.4064528766133262e-03
2.5499999999999989e+00 +8.5388207866143802e+00 +0.0000000000000000e+00 +2.5499999916033271e+00 -2.9087338386392856e-02 -5.5233232459820270e-01 +5.4069959975054675e-03
2.5999999999999988e+00 +8.5388136895823301e+00 +0.0000000000000000e+00 +2.5999999910996325e+00 -2.9087901559875139e-02 -5.5234340666793968e-01 +5.4075442764793579e-03
2.6499999999999986e+00 +8.5388064547126792e+00 +0.0000000000000000e+00 +2.6499999905761835e+00 -2.9088482491025972e-02 -5.5235485121664574e-01 +5.4080976460058137e-03
2.6999999999999984e+00 +8.5387990820025728e+00 +0.0000000000000000e+00 +2.6999999900325991e+00 -2.9089081165106275e-02 -5.5236665670311758e-01 +5.4086560385557189e-03
2.7499999999999982e+00 +8.5387915714490639e+00 +0.0000000000000000e+00 +2.7499999894684990e+00 -2.9089697567378350e-02 -5.5237882158616713e-01 +5.4092193866000097e-03
2.7999999999999980e+00 +8.5387839230491167e+00 +0.0000000000000000e+00 +2.7999999888835028e+00 -2.9090331683105878e-02 -5.5239134432461878e-01 +5.4097876226096766e-03
2.8499999999999979e+00 +8.5387761367996049e+00 +0.0000000000000000e+00 +2.8499999882772302e+00 -2.9090983497553926e-02 -5.5240422337730999e-01 +5.4103606790557339e-03
2.8999999999999977e+00 +8.5387682126973168e+00 +0.0000000000000000e+00 +2.8999999876493003e+00 -2.9091652995988950e-02 -5.5241745720309288e-01 +5.4109384884092277e-03
2.9499999999999975e+00 +8.5387601507389501e+00 +0.0000000000000000e+00 +2.9499999869993330e+00 -2.9092340163678856e-02 -5.5243104426083056e-01 +5.4115209831412294e-03
2.9999999999999973e+00 +8.5387519509211121e+00 +0.0000000000000000e+00 +2.9999999863269471e+00 -2.9093044985892973e-02 -5.5244498300939981e-01 +5.4121080957228009e-03
3.0499999999999972e+00 +8.5387436132403263e+00 +0.0000000000000000e+00 +3.0499999856317621e+00 -2.9093767447902073e-02 -5.5245927190769006e-01 +5.4126997586250065e-03
3.0999999999999970e+00 +8.5387351376930258e+00 +0.0000000000000000e+00 +3.0999999849133975e+00 -2.9094507534978394e-02 -5.5247390941460361e-01 +5.4132959043189021e-03
3.1499999999999968e+00 +8.5387265242755586e+00 +0.0000000000000000e+00 +3.1499999841714721e+00 -2.9095265232395653e-02 -5.5248889398905443e-01 +5.4138964652755157e-03
3.1999999999999966e+00 +8.5387177729841852e+00 +0.0000000000000000e+00 +3.1999999834056054e+00 -2.9096040525429044e-02 -5.5250422408996891e-01 +5.4145013739658370e-03
3.2499999999999964e+00 +8.5387088838150813e+00 +0.0000000000000000e+00 +3.2499999826154164e+00 -2.9096833399355270e-02 -5.5251989817628544e-01 +5.4151105628608247e-03
3.2999999999999963e+00 +8.5386998567643335e+00 +0.0000000000000000e+00 +3.2999999818005241e+00 -2.9097643839452535e-02 -5.5253591470695418e-01 +5.4157239644313689e-03
3.3499999999999961e+00 +8.5386906918279468e+00 +0.0000000000000000e+00 +3.3499999809605479e+00 -2.9098471831000599e-02 -5.5255227214093705e-01 +5.4163415111483084e-03
3.3999999999999959e+00 +8.5386813890018374e+00 +0.0000000000000000e+00 +3.3999999800951062e+00 -2.9099317359280730e-02 -5.5256896893720742e-01 +5.4169631354824043e-03
3.4499999999999957e+00 +8.5386719482818396e+00 +0.0000000000000000e+00 +3.4499999792038185e+00 -2.9100180409575779e-02 -5.5258600355474996e-01 +5.4175887699043279e-03
3.4999999999999956e+00 +8.5386623696637027e+00 +0.0000000000000000e+00 +3.4999999782863034e+00 -2.9101060967170175e-02 -5.5260337445256147e-01 +5.4182183468846710e-03
3.5499999999999954e+00 +8.5386526531430924e+00 +0.0000000000000000e+00 +3.5499999773421798e+00 -2.9101959017349868e-02 -5.5262108008964850e-01 +5.4188517988939108e-03
3.5999999999999952e+00 +8.5386427987155891e+00 +0.0000000000000000e+00 +3.5999999763710666e+00 -2.9102874545402495e-02 -5.5263911892502871e-01 +5.4194890584024153e-03
3.6499999999999950e+00 +8.5386328063766932e+00 +0.0000000000000000e+00 +3.6499999753725825e+00 -2.9103807536617215e-02 -5.5265748941773141e-01 +5.4201300578804300e-03
3.6999999999999948e+00 +8.5386226761218182e+00 +0.0000000000000000e+00 +3.6999999743463459e+00 -2.9104757976284871e-02 -5.5267619002679580e-01 +5.4207747297980655e-03
3.7499999999999947e+00 +8.5386124079462995e+00 +0.0000000000000000e+00 +3.7499999732919758e+00 -2.9105725849697922e-02 -5.5269521921127152e-01 +5.4214230066252905e-03
3.7999999999999945e+00 +8.5386020018453870e+00 +0.0000000000000000e+00 +3.7999999722090907e+00 -2.9106711142150476e-02 -5.5271457543021874e-01 +5.4220748208319222e-03
3.8499999999999943e+00 +8.5385914578142508e+00 +0.0000000000000000e+00 +3.8499999710973087e+00 -2.9107713838938291e-02 -5.5273425714270741e-01 +5.4227301048876105e-03
3.8999999999999941e+00 +8.5385807758479793e+00 +0.0000000000000000e+00 +3.8999999699562489e+00 -2.9108733925358822e-02 -5.5275426280781748e-01 +5.4233887912618359e-03
3.9499999999999940e+00 +8.5385699559415809e+00 +0.0000000000000000e+00 +3.9499999687855292e+00 -2.9109771386711225e-02 -5.5277459088463954e-01 +5.4240508124238987e-03
3.9999999999999938e+00 +8.5385589980899823e+00 +0.0000000000000000e+00 +3.9999999675847682e+00 -2.9110826208296331e-02 -5.5279523983227230e-01 +5.4247161008428961e-03
4.0499999999999936e+00 +8.5385479022880304e+00 +0.0000000000000000e+00 +4.0499999663535844e+00 -2.9111898358525509e-02 -5.5281620793115249e-01 +5.4253845941328385e-03
4.0999999999999934e+00 +8.5385366685304938e+00 +0.0000000000000000e+00 +4.0999999650915955e+00 -2.9112987738246464e-02 -5.5283749274703298e-01 +5.4260562504880342e-03
4.1499999999999932e+00 +8.5385252968120593e+00 +0.0000000000000000e+00 +4.1499999637984200e+00 -2.9114094231415994e-02 -5.5285909166699665e-01 +5.4267310332478617e-03
4.1999999999999931e+00 +8.5385137871273376e+00 +0.0000000000000000e+00 +4.1999999624736759e+00 -2.9115217721991150e-02 -5.5288100207813051e-01 +5.4274089057516472e-03
4.2499999999999929e+00 +8.5385021394708627e+00 +0.0000000000000000e+00 +4.2499999611169814e+00 -2.9116358093929168e-02 -5.5290322136752501e-01 +5.4280898313386660e-03
4.2999999999999927e+00 +8.5384903538370871e+00 +0.0000000000000000e+00 +4.2999999597279537e+00 -2.9117515231187444e-02 -5.5292574692227203e-01 +5.4287737733481412e-03
4.3499999999999925e+00 +8.5384784302203922e+00 +0.0000000000000000e+00 +4.3499999583062117e+00 -2.9118689017723503e-02 -5.5294857612946724e-01 +5.4294606951192301e-03
4.3999999999999924e+00 +8.5384663686150795e+00 +0.0000000000000000e+00 +4.3999999568513726e+00 -2.9119879337494964e-02 -5.5297170637620741e-01 +5.4301505599910222e-03
4.4499999999999922e+00 +8.5384541690153775e+00 +0.0000000000000000e+00 +4.4499999553630545e+00 -2.9121086074459526e-02 -5.5299513504959175e-01 +5.4308433313025430e-03
4.4999999999999920e+00 +8.5384418314154402e+00 +0.0000000000000000e+00 +4.4999999538408746e+00 -2.9122309112574924e-02 -5.5301885953672070e-01 +5.4315389723927372e-03
4.5499999999999918e+00 +8.5384293558093471e+00 +0.0000000000000000e+00 +4.5499999522844510e+00 -2.9123548335798895e-02 -5.5304287722469603e-01 +5.4322374466004748e-03
4.5999999999999917e+00 +8.5384167421911048e+00 +0.0000000000000000e+00 +4.5999999506934017e+00 -2.9124803628089124e-02 -5.5306718550061962e-01 +5.4329387172645342e-03
4.6499999999999915e+00 +8.5384039905546469e+00 +0.0000000000000000e+00 +4.6499999490673432e+00 -2.9126074873403272e-02 -5.5309178175159468e-01 +5.4336427477236155e-03
4.6999999999999913e+00 +8.5383911008938362e+00 +0.0000000000000000e+00 +4.6999999474058933e+00 -2.9127361955698903e-02 -5.5311666336472387e-01 +5.4343495013163181e-03
4.7499999999999911e+00 +8.5383780732024626e+00 +0.0000000000000000e+00 +4.7499999457086703e+00 -2.9128664758933446e-02 -5.5314182772711029e-01 +5.4350589413811436e-03
4.7999999999999909e+00 +8.5383649074742465e+00 +0.0000000000000000e+00 +4.7999999439752905e+00 -2.9129983167064173e-02 -5.5316727222585660e-01 +5.4357710312565007e-03
4.8499999999999908e+00 +8.5383516037028393e+00 +0.0000000000000000e+00 +4.8499999422053710e+00 -2.9131317064048180e-02 -5.5319299424806367e-01 +5.4364857342806775e-03
4.8999999999999906e+00 +8.5383381618818213e+00 +0.0000000000000000e+00 +4.8999999403985299e+00 -2.9132666333842344e-02 -5.5321899118083206e-01 +5.4372030137918633e-03
4.9499999999999904e+00 +8.5383245820047051e+00 +0.0000000000000000e+00 +4.9499999385543836e+00 -2.9134030860403302e-02 -5.5324526041126110e-01 +5.4379228331281242e-03
4.9999999999999902e+00 +8.5383108640649361e+00 +0.0000000000000000e+00 +4.9999999366725492e+00 -2.9135410527687380e-02 -5.5327179932644721e-01 +5.4386451556274118e-03
5.0499999999999901e+00 +8.5382970080558920e+00 +0.0000000000000000e+00 +5.0499999347526430e+00 -2.9136805219650650e-02 -5.5329860531348596e-01 +5.4393699446275449e-03
5.0999999999999899e+00 +8.5382830139708830e+00 +0.0000000000000000e+00 +5.0999999327942831e+00 -2.9138214820248764e-02 -5.5332567575946967e-01 +5.4400971634662211e-03
5.1499999999999897e+00 +8.5382688818031536e+00 +0.0000000000000000e+00 +5.1499999307970858e+00 -2.9139639213437058e-02 -5.5335300805148813e-01 +5.4408267754809990e-03
5.1999999999999895e+00 +8.5382546115458826e+00 +0.0000000000000000e+00 +5.1999999287606675e+00 -2.9141078283170415e-02 -5.5338059957662777e-01 +5.4415587440093038e-03
5.2499999999999893e+00 +8.5382402031921867e+00 +0.0000000000000000e+00 +5.2499999266846453e+00 -2.9142531913403349e-02 -5.5340844772197273e-01 +5.4422930323884131e-03
5.2999999999999892e+00 +8.5382256567351149e+00 +0.0000000000000000e+00 +5.2999999245686356e+00 -2.9143999988089826e-02 -5.5343654987460134e-01 +5.4430296039554554e-03
5.3499999999999890e+00 +8.5382109721676542e+00 +0.0000000000000000e+00 +5.3499999224122545e+00 -2.9145482391183343e-02 -5.5346490342159005e-01 +5.4437684220474195e-03
5.3999999999999888e+00 +8.5381961494827294e+00 +0.0000000000000000e+00 +5.3999999202151185e+00 -2.9146979006636868e-02 -5.5349350575000933e-01 +5.4445094500011207e-03
5.4499999999999886e+00 +8.5381811886732031e+00 +0.0000000000000000e+00 +5.4499999179768448e+00 -2.9148489718402792e-02 -5.5352235424692564e-01 +5.4452526511532236e-03
5.4999999999999885e+00 +8.5381660897318774e+00 +0.0000000000000000e+00 +5.4999999156970487e+00 -2.9150014410432933e-02 -5.5355144629940056e-01 +5.4459979888402277e-03
5.5499999999999883e+00 +8.5381508526514907e+00 +0.0000000000000000e+00 +5.5499999133753466e+00 -2.9151552966678439e-02 -5.5358077929448957e-01 +5.4467454263984558e-03
5.5999999999999881e+00 +8.5381354774247242e+00 +0.0000000000000000e+00 +5.5999999110113547e+00 -2.9153105271089833e-02 -5.5361035061924357e-01 +5.4474949271640675e-03
5.6499999999999879e+00 +8.5381199640441992e+00 +0.0000000000000000e+00 +5.6499999086046886e+00 -2.9154671207616941e-02 -5.5364015766070596e-01 +5.4482464544730333e-03
5.6999999999999877e+00 +8.5381043125024760e+00 +0.0000000000000000e+00 +5.6999999061549653e+00 -2.9156250660208841e-02 -5.5367019780591520e-01 +5.4489999716611382e-03
5.7499999999999876e+00 +8.5380885227920587e+00 +0.0000000000000000e+00 +5.7499999036617995e+00 -2.9157843512813874e-02 -5.5370046844190235e-01 +5.4497554420639936e-03
5.7999999999999874e+00 +8.5380725949053939e+00 +0.0000000000000000e+00 +5.7999999011248073e+00 -2.9159449649379596e-02 -5.5373096695569135e-01 +5.4505128290170011e-03
5.8499999999999872e+00 +8.5380565288348702e+00 +0.0000000000000000e+00 +5.8499998985436052e+00 -2.9161068953852728e-02 -5.5376169073429959e-01 +5.4512720958553758e-03
5.8999999999999870e+00 +8.5380403245728207e+00 +0.0000000000000000e+00 +5.8999998959178086e+00 -2.9162701310179163e-02 -5.5379263716473570e-01 +5.4520332059141280e-03
