# multipoles
# s[mm] polynom_b[n=0][T/m^n] polynom_b[n=1][T/m^n] polynom_b[n=2][T/m^n] polynom_b[n=3][T/m^n] polynom_b[n=4][T/m^n] polynom_b[n=5][T/m^n] polynom_b[n=6][T/m^n] 
-0.0000000000000000e+00 -5.5200661475282575e-01 +7.2482558957687990e+00 +5.4458898705545620e+00 -1.1857410550479565e+02 -3.2494748622591592e+03 +3.5795586943063047e+05 +1.6916662898096520e+07 
-5.0000000000000003e-02 -5.5200966281096064e-01 +7.2482894736801295e+00 +5.4446876356962450e+00 -1.1848479692740044e+02 -3.1686174109080321e+03 +3.5635351350212609e+05 +1.6349834154064005e+07 
-1.0000000000000001e-01 -5.5201306494212588e-01 +7.2483435078153358e+00 +5.4424275232782726e+00 -1.1839444435647259e+02 -3.0716446711415688e+03 +3.5468188521808025e+05 +1.5683089629257802e+07 
-1.4999999999999999e-01 -5.5201682040519851e-01 +7.2484179252303420e+00 +5.4391327363407616e+00 -1.1830367488874499e+02 -2.9591594154953841e+03 +3.5294883148002962e+05 +1.4920233808290705e+07 
-2.0000000000000001e-01 -5.5202092845908657e-01 +7.2485126529781709e+00 +5.4348264782891516e+00 -1.1821311550649968e+02 -2.8317644250906824e+03 +3.5116219838160765e+05 +1.4065071225143434e+07 
-2.5000000000000000e-01 -5.5202538836272963e-01 +7.2486276181207812e+00 +5.4295319507784194e+00 -1.1812339350140132e+02 -2.6900624390558828e+03 +3.4932983442850789e+05 +1.3121406155540965e+07 
-2.9999999999999999e-01 -5.5203019937506914e-01 +7.2487627477160199e+00 +5.4232723569380932e+00 -1.1803513599215722e+02 -2.5346562269277561e+03 +3.4745958680594253e+05 +1.2093043041424338e+07 
-3.4999999999999998e-01 -5.5203536075501070e-01 +7.2489179688238297e+00 +5.4160709001688172e+00 -1.1794897015204576e+02 -2.3661485692315100e+03 +3.4555930313559464e+05 +1.0983786415729091e+07 
-4.0000000000000002e-01 -5.5204087176160122e-01 +7.2490932085051272e+00 +5.4079507828669620e+00 -1.1786552316151392e+02 -2.1851422208263498e+03 +3.4363683105686842e+05 +9.7974406440053750e+06 
-4.5000000000000001e-01 -5.5204673165373941e-01 +7.2492883938251138e+00 +5.3989352063787672e+00 -1.1778542236541699e+02 -1.9922399079985842e+03 +3.4170001965554734e+05 +8.5378098966090716e+06 
-5.0000000000000000e-01 -5.5205293969048830e-01 +7.2495034518457455e+00 +5.3890473743227663e+00 -1.1770929493608078e+02 -1.7880444100940624e+03 +3.3975671652145742e+05 +7.2086986703331722e+06 
-5.5000000000000004e-01 -5.5205949513084052e-01 +7.2497383096340737e+00 +5.3783104896766281e+00 -1.1763776822959579e+02 -1.5731584975841004e+03 +3.3781477078040881e+05 +5.8139114354798254e+06 
-5.9999999999999998e-01 -5.5206639723388751e-01 +7.2499928942539080e+00 +5.3667477555306968e+00 -1.1757146944849276e+02 -1.3481849379540913e+03 +3.3588203031078796e+05 +4.3572526192738255e+06 
-6.5000000000000002e-01 -5.5207364525858638e-01 +7.2502671327742618e+00 +5.3543823722676800e+00 -1.1751102597608821e+02 -1.1137264284303985e+03 +3.3396634448105760e+05 +2.8425261823159293e+06 
-6.9999999999999996e-01 -5.5208123846407031e-01 +7.2505609522606029e+00 +5.3412375448688696e+00 -1.1745706502103950e+02 -8.7038578744633799e+02 +3.3207556119188393e+05 +1.2735368941011762e+06 
-7.5000000000000000e-01 -5.5208917610939501e-01 +7.2508742797856449e+00 +5.3273364764339206e+00 -1.1741021406664622e+02 -6.1876578644215249e+02 +3.3021753063799668e+05 -3.4591078159771237e+05 
-8.0000000000000004e-01 -5.5209745745364647e-01 +7.2512070424139106e+00 +5.3127023672760130e+00 -1.1737110022461484e+02 -3.5946911407019780e+02 +3.2840009991818824e+05 -2.0120129690861558e+06 
-8.4999999999999998e-01 -5.5210608175597242e-01 +7.2515591672195674e+00 +5.2973584217059475e+00 -1.1734035097629821e+02 -9.3098573386243586e+01 +3.2663111918001930e+05 -3.7209649954168969e+06 
-9.0000000000000002e-01 -5.5211504827549607e-01 +7.2519305812738404e+00 +5.2813278418977010e+00 -1.1731859366057840e+02 +1.7974309136955046e+02 +3.2491843742408714e+05 -5.4689625921566673e+06 
-9.4999999999999996e-01 -5.5212435627135159e-01 +7.2523212116466116e+00 +5.2646338332711728e+00 -1.1730645551949365e+02 +4.5845305534908846e+02 +3.2326990280440229e+05 -7.2522009753612699e+06 
-1.0000000000000000e+00 -5.5213400500267917e-01 +7.2527309854126987e+00 +5.2472995955982027e+00 -1.1730456397081960e+02 +7.4242863779687571e+02 +3.2169336492331489e+05 -9.0668763018042091e+06 
-1.0500000000000000e+00 -5.5214399372869261e-01 +7.2531598296447717e+00 +5.2293483343179057e+00 -1.1731354632921695e+02 +1.0310670086563941e+03 +3.2019667257391126e+05 -1.0909183737200420e+07 
-1.1000000000000001e+00 -5.5215432170851286e-01 +7.2536076714160469e+00 +5.2108032496873022e+00 -1.1733402986621567e+02 +1.3237654778308174e+03 +3.1878767406840157e+05 -1.2775319395932080e+07 
-1.1499999999999999e+00 -5.5216498820144055e-01 +7.2540744378018909e+00 +5.1916875479554756e+00 -1.1736664195503162e+02 +1.6199211939105392e+03 +3.1747421869258635e+05 -1.4661478303723756e+07 
-1.2000000000000000e+00 -5.5217599246664628e-01 +7.2545600558765457e+00 +5.1720244327348297e+00 -1.1741200985207195e+02 +1.9189313782892325e+03 +3.1626415462267143e+05 -1.6563855988375824e+07 
-1.2500000000000000e+00 -5.5218733376335194e-01 +7.2550644527166641e+00 +5.1518371056723229e+00 -1.1747076090846051e+02 +2.2201933012243776e+03 +3.1516533090878534e+05 -1.8478648296916701e+07 
-1.3000000000000000e+00 -5.5219901135084215e-01 +7.2555875553966676e+00 +5.1311487716259210e+00 -1.1754352234016565e+02 +2.5231041510648192e+03 +3.1418559541054023e+05 -2.0402050540121760e+07 
-1.3500000000000001e+00 -5.5221102448837445e-01 +7.2561292909937949e+00 +5.1099826334568643e+00 -1.1763092144697509e+02 +2.8270611633130598e+03 +3.1333279668237921e+05 -2.2330258326473616e+07 
-1.3999999999999999e+00 -5.5222337243518227e-01 +7.2566895865865897e+00 +5.0883618956948133e+00 -1.1773358555393608e+02 +3.1314615387623398e+03 +3.1261478348250943e+05 -2.4259467070925709e+07 
-1.4500000000000000e+00 -5.5223605445061019e-01 +7.2572683692483890e+00 +5.0663097623154494e+00 -1.1785214172571465e+02 +3.4357024848427382e+03 +3.1203940234197618e+05 -2.6185872206571337e+07 
-1.5000000000000000e+00 -5.5224906979396848e-01 +7.2578655660587161e+00 +5.0438494378966059e+00 -1.1798721727419310e+02 +3.7391811936065642e+03 +3.1161450192517700e+05 -2.8105669068476580e+07 
-1.5500000000000000e+00 -5.5226241772455287e-01 +7.2584811040950532e+00 +5.0210041266167531e+00 -1.1813943936613570e+02 +4.0412948699081253e+03 +3.1134792956705508e+05 -3.0015053089193612e+07 
-1.6000000000000001e+00 -5.5227609750170159e-01 +7.2591149104347359e+00 +4.9977970334113300e+00 -1.1830943514296224e+02 +4.3414406953545940e+03 +3.1124753243270627e+05 -3.1910219539023194e+07 
-1.6499999999999999e+00 -5.5229010838479509e-01 +7.2597669121541841e+00 +4.9742513628637521e+00 -1.1849783167446115e+02 +4.6390158668956146e+03 +3.1132115706512640e+05 -3.3787363815042831e+07 
-1.7000000000000000e+00 -5.5230444963316672e-01 +7.2604370363342419e+00 +4.9503903192875889e+00 -1.1870525617889299e+02 +4.9334175811491759e+03 +3.1157665122871683e+05 -3.5642681290240563e+07 
-1.7500000000000000e+00 -5.5231912050622733e-01 +7.2611252100505022e+00 +4.9262371083811667e+00 -1.1893233561213398e+02 +5.2240430013368759e+03 +3.1202186043672444e+05 -3.7472367128791705e+07 
-1.8000000000000000e+00 -5.5233412026335416e-01 +7.2618313603827387e+00 +4.9018149373909514e+00 -1.1917969707543173e+02 +5.5102892456345908e+03 +3.1266463142839615e+05 -3.9272616185471267e+07 
-1.8500000000000001e+00 -5.5234944816393672e-01 +7.2625554144063011e+00 +4.8771470082201098e+00 -1.1944796746097401e+02 +5.7915535807138222e+03 +3.1351280921729014e+05 -4.1039624335115209e+07 
-1.8999999999999999e+00 -5.5236510346744061e-01 +7.2632972992016258e+00 +4.8522565299898259e+00 -1.1973777380972906e+02 +6.0672330730038366e+03 +3.1457423991172656e+05 -4.2769586088316508e+07 
-1.9500000000000000e+00 -5.5238108543326347e-01 +7.2640569418457517e+00 +4.8271667064005168e+00 -1.2004974301798758e+02 +6.3367249386353951e+03 +3.1585676853267028e+05 -4.4458696982078813e+07 
-2.0000000000000000e+00 -5.5239739332089377e-01 +7.2648342694171690e+00 +4.8019007458778891e+00 -1.2038450197931229e+02 +6.5994262653000005e+03 +3.1736823995170509e+05 -4.6103151686761200e+07 
-2.0499999999999998e+00 -5.5241402618828850e-01 +7.2656291889818974e+00 +4.7764792812866839e+00 -1.2074224031965419e+02 +6.8548316679373438e+03 +3.1911283115802566e+05 -4.7699783796393767e+07 
-2.1000000000000001e+00 -5.5243098228335252e-01 +7.2664415320526974e+00 +4.7509125496493807e+00 -1.2112145802042583e+02 +7.1028206406121344e+03 +3.2108031734499289e+05 -4.9247929349301182e+07 
-2.1499999999999999e+00 -5.5244825965054933e-01 +7.2672711082586012e+00 +4.7252083714182147e+00 -1.2152024955821562e+02 +7.3433674356941228e+03 +3.2325692425271007e+05 -5.0747535443785913e+07 
-2.2000000000000002e+00 -5.5246585633436784e-01 +7.2681177272290105e+00 +4.6993745602480539e+00 -1.2193670939868433e+02 +7.5764464876000557e+03 +3.2562887745460373e+05 -5.2198550399956696e+07 
-2.2500000000000000e+00 -5.5248377037925045e-01 +7.2689811985977952e+00 +4.6734189336302849e+00 -1.2236893218609173e+02 +7.8020321278016909e+03 +3.2818240406635124e+05 -5.3600921846603058e+07 
-2.2999999999999998e+00 -5.5250199982968018e-01 +7.2698613319960446e+00 +4.6473493097553540e+00 -1.2281501242440689e+02 +8.0200986688712692e+03 +3.3090373000696901e+05 -5.4954597286491886e+07 
-2.3500000000000001e+00 -5.5252054273009454e-01 +7.2707579370547046e+00 +4.6211735020980669e+00 -1.2327304459939040e+02 +8.2306205421869472e+03 +3.3377908105743281e+05 -5.6259524989177324e+07 
-2.3999999999999999e+00 -5.5253939712503231e-01 +7.2716708234057865e+00 +4.5948993304093442e+00 -1.2374112321707764e+02 +8.4335720165173389e+03 +3.3679468313425197e+05 -5.7515652156591646e+07 
-2.4500000000000002e+00 -5.5255856105895496e-01 +7.2725998006807719e+00 +4.5685346090909320e+00 -1.2421734275913890e+02 +8.6289274958779752e+03 +3.3993676200603391e+05 -5.8722926868489921e+07 
-2.5000000000000000e+00 -5.5257803257641613e-01 +7.2735446785098841e+00 +4.5420871526854825e+00 -1.2469979763464212e+02 +8.8166613837307432e+03 +3.4319154279403272e+05 -5.9881297212467082e+07 
-2.5499999999999998e+00 -5.5259780972186423e-01 +7.2745052665257584e+00 +4.5155647794166223e+00 -1.2518658232639677e+02 +8.9967479773515570e+03 +3.4654525122172589e+05 -6.0990710534362815e+07 
-2.6000000000000001e+00 -5.5261789053990062e-01 +7.2754813743592326e+00 +4.4889753049379477e+00 -1.2567579125346170e+02 +9.1691616413780321e+03 +3.4998411253856443e+05 -6.2051114626510046e+07 
-2.6499999999999999e+00 -5.5263827307501601e-01 +7.2764728116396684e+00 +4.4623265416765028e+00 -1.2616551874611555e+02 +9.3338768326428744e+03 +3.5349435122100264e+05 -6.3062457924429342e+07 
-2.7000000000000002e+00 -5.5265895537176735e-01 +7.2774793879986568e+00 +4.4356263087314947e+00 -1.2665385921241952e+02 +9.4908678161681819e+03 +3.5706219238078961e+05 -6.4024687521209106e+07 
-2.7500000000000000e+00 -5.5267993547468963e-01 +7.2785009130653568e+00 +4.4088824193678215e+00 -1.2713890696234947e+02 +9.6401090184158620e+03 +3.6067386037043604e+05 -6.4937751619834378e+07 
-2.7999999999999998e+00 -5.5270121142830309e-01 +7.2795371964709998e+00 +4.3821026877467641e+00 -1.2761875636061055e+02 +9.7815748338033809e+03 +3.6431557991352479e+05 -6.5801598171453252e+07 
-2.8500000000000001e+00 -5.5272278127720698e-01 +7.2805880478454652e+00 +4.3552949310671201e+00 -1.2809150173426937e+02 +9.9152395766436257e+03 +3.6797357553662662e+05 -6.6616174596399285e+07 
-2.8999999999999999e+00 -5.5274464306594306e-01 +7.2816532768191067e+00 +4.3284669595755645e+00 -1.2855523740249652e+02 +1.0041077745521623e+04 +3.7163407162402238e+05 -6.7381429543602109e+07 
-2.9500000000000002e+00 -5.5276679483910152e-01 +7.2827326930184029e+00 +4.3016265916542364e+00 -1.2900805751876447e+02 +1.0159063612606647e+04 +3.7528329121998657e+05 -6.8097310110019341e+07 
-3.0000000000000000e+00 -5.5278923464124519e-01 +7.2838261060728895e+00 +4.2747816385299631e+00 -1.2944805635374846e+02 +1.0269171645339893e+04 +3.7890745831614273e+05 -6.8763764713753521e+07 
-3.0499999999999998e+00 -5.5281196051692560e-01 +7.2849333256136806e+00 +4.2479399136715692e+00 -1.2987332824264200e+02 +1.0371376245080684e+04 +3.8249279748615425e+05 -6.9380741309919998e+07 
-3.1000000000000001e+00 -5.5283497051076969e-01 +7.2860541612670602e+00 +4.2211092331214868e+00 -1.3028196731865535e+02 +1.0465651739722880e+04 +3.8602553163379821e+05 -6.9948187337300330e+07 
-3.1499999999999999e+00 -5.5285826266734162e-01 +7.2871884226587733e+00 +4.1942974051755311e+00 -1.3067206767667841e+02 +1.0551972666583742e+04 +3.8949188332222932e+05 -7.0466051651525736e+07 
-3.2000000000000002e+00 -5.5288183503126120e-01 +7.2883359194186390e+00 +4.1675122473113415e+00 -1.3104172358621796e+02 +1.0630313308404837e+04 +3.9287807659978099e+05 -7.0934281361863673e+07 
-3.2500000000000000e+00 -5.5290568564707732e-01 +7.2894964611735489e+00 +4.1407615676463934e+00 -1.3138902917750698e+02 +1.0700648199236084e+04 +3.9617033432349394e+05 -7.1352825267194420e+07 
-3.2999999999999998e+00 -5.5292981255942775e-01 +7.2906698575475426e+00 +4.1140531802217915e+00 -1.3171207847562394e+02 +1.0762951706302545e+04 +3.9935487853289471e+05 -7.1721631013081670e+07 
-3.3500000000000001e+00 -5.5295421381295262e-01 +7.2918559181671849e+00 +4.0873948976971075e+00 -1.3200896560559343e+02 +1.0817198238214451e+04 +4.0241793210867106e+05 -7.2040646539313942e+07 
-3.3999999999999999e+00 -5.5297888745219481e-01 +7.2930544526603587e+00 +4.0607945293552872e+00 -1.3227778473393229e+02 +1.0863362283481531e+04 +4.0534571823857410e+05 -7.2309820279499665e+07 
-3.4500000000000002e+00 -5.5300383152175936e-01 +7.2942652706479860e+00 +4.0342598850721183e+00 -1.3251662975131771e+02 +1.0901418313548076e+04 +4.0812445788542723e+05 -7.2529100548347101e+07 
-3.5000000000000000e+00 -5.5302904406630804e-01 +7.2954881817564319e+00 +4.0077987789756078e+00 -1.3272359476562363e+02 +1.0931340682190061e+04 +4.1074037378069549e+05 -7.2698434850790024e+07 
-3.5499999999999998e+00 -5.5305452313044290e-01 +7.2967229956083397e+00 +3.9814190186904344e+00 -1.3289677374117016e+02 +1.0953103914109905e+04 +4.1317968752998638e+05 -7.2817771828813225e+07 
-3.6000000000000001e+00 -5.5308026675878308e-01 +7.2979695218264951e+00 +3.9551284136296778e+00 -1.3303426063534860e+02 +1.0966682484613644e+04 +4.1542862062268390e+05 -7.2887059782689214e+07 
-3.6499999999999999e+00 -5.5310627299594273e-01 +7.2992275700348808e+00 +3.9289347726944515e+00 -1.3313414947200067e+02 +1.0972050870408466e+04 +4.1747339518317068e+05 -7.2906246975152865e+07 
-3.6999999999999900e+00 -5.5313253988653133e-01 +7.3004969498515138e+00 +3.9028459067411756e+00 -1.3319453401656702e+02 +1.0969183500597785e+04 +4.1930023114175507e+05 -7.2875281363548651e+07 
-3.7499999999999898e+00 -5.5315906547521421e-01 +7.3017774709006753e+00 +3.8768696222793926e+00 -1.3321350831503449e+02 +1.0958054914074504e+04 +4.2089535083697637e+05 -7.2794111616071582e+07 
-3.7999999999999901e+00 -5.5318584780656777e-01 +7.3030689428011346e+00 +3.8510137282108965e+00 -1.3318916617414379e+02 +1.0938639579087245e+04 +4.2224497458483599e+05 -7.2662685897570312e+07 
-3.8499999999999899e+00 -5.5321288492526044e-01 +7.3043711751724967e+00 +3.8252860303776242e+00 -1.3311960144902849e+02 +1.0910912043976668e+04 +4.2333532313705405e+05 -7.2480952903128400e+07 
-3.8999999999999901e+00 -5.5324017487584287e-01 +7.3056839776321381e+00 +3.7996943363618025e+00 -1.3300290789787002e+02 +1.0874846807911956e+04 +4.2415261644346616e+05 -7.2248860985661045e+07 
-3.9499999999999900e+00 -5.5326771570302957e-01 +7.3070071598003139e+00 +3.7742464544377627e+00 -1.3283717942014235e+02 +1.0830418340815662e+04 +4.2468307566256798e+05 -7.1966358252936095e+07 
-3.9999999999999898e+00 -5.5329550545138140e-01 +7.3083405312935019e+00 +3.7489501888735530e+00 -1.3262050975574465e+02 +1.0777601219692167e+04 +4.2491292063678801e+05 -7.1633393537378058e+07 
-4.0499999999999901e+00 -5.5332354205817580e-01 +7.3096839172200099e+00 +3.7238109175512726e+00 -1.3235166784913980e+02 +1.0716417395001314e+04 +4.2483270890948479e+05 -7.1250177284744844e+07 
-4.0999999999999899e+00 -5.5335182303181341e-01 +7.3110372003611799e+00 +3.6988236816575579e+00 -1.3203211145966287e+02 +1.0647109430703502e+04 +4.2445018405762751e+05 -7.0818163147102714e+07 
-4.1499999999999897e+00 -5.5338034577367290e-01 +7.3124002769110357e+00 +3.6739807736044106e+00 -1.3166397096602003e+02 +1.0569983364284442e+04 +4.2377735372878867e+05 -7.0339168089966431e+07 
-4.1999999999999904e+00 -5.5340910768512896e-01 +7.3137730430582000e+00 +3.6492744936520136e+00 -1.3124937652300264e+02 +1.0485345028180598e+04 +4.2282622359875811e+05 -6.9815007707500175e+07 
-4.2499999999999902e+00 -5.5343810616762545e-01 +7.3151553949964203e+00 +3.6246971403299231e+00 -1.3079045850862948e+02 +1.0393500302752493e+04 +4.2160880117398401e+05 -6.9247497922284365e+07 
-4.2999999999999901e+00 -5.5346733862249975e-01 +7.3165472289162246e+00 +3.6002410116127197e+00 -1.3028934718466789e+02 +1.0294755083539270e+04 +4.2013709304625489e+05 -6.8638454755558372e+07 
-4.3499999999999899e+00 -5.5349680245116317e-01 +7.3179484410105111e+00 +3.5758984033807577e+00 -1.2974817291198750e+02 +1.0189415336443553e+04 +4.1842310657196381e+05 -6.7989694755333751e+07 
-4.3999999999999897e+00 -5.5352649505503615e-01 +7.3193589274715229e+00 +3.5516616187127981e+00 -1.2916906604628434e+02 +1.0077786823905144e+04 +4.1647884911708499e+05 -6.7303033058034927e+07 
-4.4499999999999904e+00 -5.5355641383548104e-01 +7.3207785844925475e+00 +3.5275229541920488e+00 -1.2855415698080597e+02 +9.9601754924600100e+03 +4.1431632828019361e+05 -6.6580286073193610e+07 
-4.4999999999999902e+00 -5.5358655619392572e-01 +7.3222073082666643e+00 +3.5034747084705682e+00 -1.2790557613485824e+02 +9.8368872382050940e+03 +4.1194755195923342e+05 -6.5823269890393719e+07 
-4.5499999999999901e+00 -5.5361691953179071e-01 +7.3236449949892304e+00 +3.4795091833987390e+00 -1.2722545401079994e+02 +9.7082278712986354e+03 +4.0938452863813168e+05 -6.5033800014127813e+07 
-4.5999999999999899e+00 -5.5364750125050177e-01 +7.3250915408529771e+00 +3.4556186770526502e+00 -1.2651592104007231e+02 +9.5745033111986086e+03 +4.0663926630823716e+05 -6.4213692717870727e+07 
-4.6499999999999897e+00 -5.5367829875139207e-01 +7.3265468420527498e+00 +3.4317954897563090e+00 -1.2577910773408824e+02 +9.4360194160621431e+03 +4.0372377354319225e+05 -6.3364763850757368e+07 
-4.6999999999999904e+00 -5.5370930943595742e-01 +7.3280107947832631e+00 +3.4080319222406166e+00 -1.2501714463241099e+02 +9.2930820415489998e+03 +4.0065005920273723e+05 -6.2488829277629822e+07 
-4.7499999999999902e+00 -5.5374053070556428e-01 +7.3294832952426363e+00 +3.3843202757221316e+00 -1.2423216241411667e+02 +9.1459970339111132e+03 +3.9743013323939912e+05 -6.1587704809200637e+07 
-4.7999999999999901e+00 -5.5377195996168216e-01 +7.3309642396233343e+00 +3.3606528510579019e+00 -1.2342629154618460e+02 +8.9950702528499896e+03 +3.9407600385811762e+05 -6.0663206361689985e+07 
-4.8499999999999899e+00 -5.5380359460564699e-01 +7.3324535241250199e+00 +3.3370219489473323e+00 -1.2260166282164468e+02 +8.8406075663234224e+03 +3.9059968202377978e+05 -5.9717149916167505e+07 
-4.8999999999999897e+00 -5.5383543203895758e-01 +7.3339510449418572e+00 +3.3134198708759603e+00 -1.2176040681053021e+02 +8.6829148238371381e+03 +3.8701317677541665e+05 -5.8751351336329922e+07 
-4.9499999999999904e+00 -5.5386746966301648e-01 +7.3354566982751956e+00 +3.2898389198684543e+00 -1.2090465440195858e+02 +8.5222978449280727e+03 +3.8332849981151684e+05 -5.7767626327762097e+07 
-4.9999999999999902e+00 -5.5389970487922635e-01 +7.3369703803185198e+00 +3.2662713993703165e+00 -1.2003653618303923e+02 +8.3590624365217755e+03 +3.7955766035096109e+05 -5.6767790499349095e+07 
-5.0499999999999901e+00 -5.5393213509137551e-01 +7.3384919789675935e+00 +3.2427100009773988e+00 -1.1915819121263488e+02 +8.1935147210645537e+03 +3.7571267166708357e+05 -5.5753661092343934e+07 
