# field on trajectory
# s[mm] rx[mm] ry[mm] rz[mm] bx[T] by[T] bz[T]
0.0000000000000000e+00 +8.3650000000000002e+00 +0.0000000000000000e+00 +0.0000000000000000e+00 -2.7952260172044611e-02 -5.2483844459996964e-01 +6.0193820486974456e-03
-5.0000000000000003e-02 +8.3649999309798311e+00 +0.0000000000000000e+00 -4.9999999999936477e-02 -2.7953874980218837e-02 -5.2483867875231360e-01 +6.0211076167993299e-03
-1.0000000000000001e-01 +8.3649997239192651e+00 +0.0000000000000000e+00 -9.9999999999491856e-02 -2.7955510710151801e-02 -5.2483927273428455e-01 +6.0228245903241866e-03
-1.5000000000000002e-01 +8.3649993788181458e+00 +0.0000000000000000e+00 -1.4999999999828503e-01 -2.7957167345019619e-02 -5.2484022607315084e-01 +6.0245328219636438e-03
-2.0000000000000001e-01 +8.3649988956762229e+00 +0.0000000000000000e+00 -1.9999999999593487e-01 -2.7958844867998819e-02 -5.2484153829619806e-01 +6.0262321644088158e-03
-2.5000000000000000e-01 +8.3649982744931517e+00 +0.0000000000000000e+00 -2.4999999999206032e-01 -2.7960543262266283e-02 -5.2484320893072789e-01 +6.0279224703502689e-03
-2.9999999999999999e-01 +8.3649975152684917e+00 +0.0000000000000000e+00 -2.9999999998628024e-01 -2.7962262510999283e-02 -5.2484523750405843e-01 +6.0296035924780160e-03
-3.4999999999999998e-01 +8.3649966180017099e+00 +0.0000000000000000e+00 -3.4999999997821352e-01 -2.7964002597375432e-02 -5.2484762354352399e-01 +6.0312753834814948e-03
-3.9999999999999997e-01 +8.3649955826921794e+00 +0.0000000000000000e+00 -3.9999999996747898e-01 -2.7965763504572749e-02 -5.2485036657647599e-01 +6.0329376960495604e-03
-4.4999999999999996e-01 +8.3649944093391788e+00 +0.0000000000000000e+00 -4.4999999995369555e-01 -2.7967545215769666e-02 -5.2485346613028194e-01 +6.0345903828704691e-03
-4.9999999999999994e-01 +8.3649930979418929e+00 +0.0000000000000000e+00 -4.9999999993648203e-01 -2.7969347714144929e-02 -5.2485692173232534e-01 +6.0362332966318573e-03
-5.4999999999999993e-01 +8.3649916484994122e+00 +0.0000000000000000e+00 -5.4999999991545734e-01 -2.7971170982877776e-02 -5.2486073291000634e-01 +6.0378662900207386e-03
-5.9999999999999998e-01 +8.3649900610107348e+00 +0.0000000000000000e+00 -5.9999999989024022e-01 -2.7973015005147761e-02 -5.2486489919074131e-01 +6.0394892157234750e-03
-6.5000000000000002e-01 +8.3649883354747647e+00 +0.0000000000000000e+00 -6.4999999986044954e-01 -2.7974879764134902e-02 -5.2486942010196336e-01 +6.0411019264257817e-03
-7.0000000000000007e-01 +8.3649864718903117e+00 +0.0000000000000000e+00 -6.9999999982570416e-01 -2.7976765243019602e-02 -5.2487429517112116e-01 +6.0427042748126885e-03
-7.5000000000000011e-01 +8.3649844702560952e+00 +0.0000000000000000e+00 -7.4999999978562282e-01 -2.7978671424982681e-02 -5.2487952392567983e-01 +6.0442961135685497e-03
-8.0000000000000016e-01 +8.3649823305707400e+00 +0.0000000000000000e+00 -7.9999999973982439e-01 -2.7980598293205386e-02 -5.2488510589312121e-01 +6.0458772953770126e-03
-8.5000000000000020e-01 +8.3649800528327773e+00 +0.0000000000000000e+00 -8.4999999968792761e-01 -2.7982545830869388e-02 -5.2489104060094283e-01 +6.0474476729210098e-03
-9.0000000000000024e-01 +8.3649776370406457e+00 +0.0000000000000000e+00 -8.9999999962955124e-01 -2.7984514021156773e-02 -5.2489732757665875e-01 +6.0490070988827400e-03
-9.5000000000000029e-01 +8.3649750831926930e+00 +0.0000000000000000e+00 -9.4999999956431391e-01 -2.7986502847250055e-02 -5.2490396634779846e-01 +6.0505554259436631e-03
-1.0000000000000002e+00 +8.3649723912871732e+00 +0.0000000000000000e+00 -9.9999999949183449e-01 -2.7988512292332225e-02 -5.2491095644190922e-01 +6.0520925067844714e-03
-1.0500000000000003e+00 +8.3649695613222459e+00 +0.0000000000000000e+00 -1.0499999994117315e+00 -2.7990542339586692e-02 -5.2491829738655249e-01 +6.0536181940850945e-03
-1.1000000000000003e+00 +8.3649665932959820e+00 +0.0000000000000000e+00 -1.0999999993236238e+00 -2.7992592972197285e-02 -5.2492598870930685e-01 +6.0551323405246609e-03
-1.1500000000000004e+00 +8.3649634872063583e+00 +0.0000000000000000e+00 -1.1499999992271299e+00 -2.7994664173348349e-02 -5.2493402993776705e-01 +6.0566347987815079e-03
-1.2000000000000004e+00 +8.3649602430512591e+00 +0.0000000000000000e+00 -1.1999999991218686e+00 -2.7996755926224630e-02 -5.2494242059954355e-01 +6.0581254215331488e-03
-1.2500000000000004e+00 +8.3649568608284781e+00 +0.0000000000000000e+00 -1.2499999990074584e+00 -2.7998868214011357e-02 -5.2495116022226285e-01 +6.0596040614562634e-03
-1.3000000000000005e+00 +8.3649533405357168e+00 +0.0000000000000000e+00 -1.2999999988835178e+00 -2.8001001019894216e-02 -5.2496024833356769e-01 +6.0610705712266892e-03
-1.3500000000000005e+00 +8.3649496821705860e+00 +0.0000000000000000e+00 -1.3499999987496656e+00 -2.8003154327059389e-02 -5.2496968446111691e-01 +6.0625248035194035e-03
-1.4000000000000006e+00 +8.3649458857306023e+00 +0.0000000000000000e+00 -1.3999999986055200e+00 -2.8005328118693502e-02 -5.2497946813258467e-01 +6.0639666110085030e-03
-1.4500000000000006e+00 +8.3649419512131935e+00 +0.0000000000000000e+00 -1.4499999984506999e+00 -2.8007522377983683e-02 -5.2498959887566177e-01 +6.0653958463672006e-03
-1.5000000000000007e+00 +8.3649378786156952e+00 +0.0000000000000000e+00 -1.4999999982848236e+00 -2.8009737088117524e-02 -5.2500007621805467e-01 +6.0668123622677978e-03
-1.5500000000000007e+00 +8.3649336679353503e+00 +0.0000000000000000e+00 -1.5499999981075094e+00 -2.8011972232283130e-02 -5.2501089968748593e-01 +6.0682160113816859e-03
-1.6000000000000008e+00 +8.3649293191693133e+00 +0.0000000000000000e+00 -1.5999999979183759e+00 -2.8014227793669081e-02 -5.2502206881169344e-01 +6.0696066463793137e-03
-1.6500000000000008e+00 +8.3649248323146459e+00 +0.0000000000000000e+00 -1.6499999977170414e+00 -2.8016503755464470e-02 -5.2503358311843129e-01 +6.0709841199301879e-03
-1.7000000000000008e+00 +8.3649202073683195e+00 +0.0000000000000000e+00 -1.6999999975031241e+00 -2.8018800100858891e-02 -5.2504544213547000e-01 +6.0723482847028516e-03
-1.7500000000000009e+00 +8.3649154443272167e+00 +0.0000000000000000e+00 -1.7499999972762426e+00 -2.8021116813042427e-02 -5.2505764539059530e-01 +6.0736989933648684e-03
-1.8000000000000009e+00 +8.3649105431881274e+00 +0.0000000000000000e+00 -1.7999999970360150e+00 -2.8023453875205696e-02 -5.2507019241160824e-01 +6.0750360985828093e-03
-1.8500000000000010e+00 +8.3649055039477496e+00 +0.0000000000000000e+00 -1.8499999967820597e+00 -2.8025811270539831e-02 -5.2508308272632687e-01 +6.0763594530222516e-03
-1.9000000000000010e+00 +8.3649003266026956e+00 +0.0000000000000000e+00 -1.8999999965139949e+00 -2.8028188982236482e-02 -5.2509631586258398e-01 +6.0776689093477373e-03
-1.9500000000000011e+00 +8.3648950111494838e+00 +0.0000000000000000e+00 -1.9499999962314385e+00 -2.8030586993487819e-02 -5.2510989134822861e-01 +6.0789643202227781e-03
-2.0000000000000009e+00 +8.3648895575845437e+00 +0.0000000000000000e+00 -1.9999999959340089e+00 -2.8033005287486555e-02 -5.2512380871112552e-01 +6.0802455383098348e-03
-2.0500000000000007e+00 +8.3648839659042142e+00 +0.0000000000000000e+00 -2.0499999956213242e+00 -2.8035443815305136e-02 -5.2513806723660872e-01 +6.0815124318123887e-03
-2.1000000000000005e+00 +8.3648782361047456e+00 +0.0000000000000000e+00 -2.0999999952930022e+00 -2.8037902399533549e-02 -5.2515266523984283e-01 +6.0827649311012578e-03
-2.1500000000000004e+00 +8.3648723681822990e+00 +0.0000000000000000e+00 -2.1499999949486610e+00 -2.8040380830641979e-02 -5.2516760079345826e-01 +6.0840029820884191e-03
-2.2000000000000002e+00 +8.3648663621329451e+00 +0.0000000000000000e+00 -2.1999999945879187e+00 -2.8042878899101713e-02 -5.2518287197009672e-01 +6.0852265306849500e-03
-2.2500000000000000e+00 +8.3648602179526694e+00 +0.0000000000000000e+00 -2.2499999942103934e+00 -2.8045396395385207e-02 -5.2519847684241072e-01 +6.0864355228010258e-03
-2.2999999999999998e+00 +8.3648539356373668e+00 +0.0000000000000000e+00 -2.2999999938157027e+00 -2.8047933109966078e-02 -5.2521441348306430e-01 +6.0876299043459000e-03
-2.3499999999999996e+00 +8.3648475151828450e+00 +0.0000000000000000e+00 -2.3499999934034643e+00 -2.8050488833319114e-02 -5.2523067996473061e-01 +6.0888096212279117e-03
-2.3999999999999995e+00 +8.3648409565848265e+00 +0.0000000000000000e+00 -2.3999999929732962e+00 -2.8053063355920414e-02 -5.2524727436009411e-01 +6.0899746193544867e-03
-2.4499999999999993e+00 +8.3648342598389469e+00 +0.0000000000000000e+00 -2.4499999925248162e+00 -2.8055656468247314e-02 -5.2526419474184916e-01 +6.0911248446321236e-03
-2.4999999999999991e+00 +8.3648274249407564e+00 +0.0000000000000000e+00 -2.4999999920576421e+00 -2.8058267960778486e-02 -5.2528143918269932e-01 +6.0922602429663948e-03
-2.5499999999999989e+00 +8.3648204518857181e+00 +0.0000000000000000e+00 -2.5499999915713913e+00 -2.8060897623993934e-02 -5.2529900575535837e-01 +6.0933807602619478e-03
-2.5999999999999988e+00 +8.3648133406692118e+00 +0.0000000000000000e+00 -2.5999999910656815e+00 -2.8063545248375073e-02 -5.2531689253254821e-01 +6.0944863424224911e-03
-2.6499999999999986e+00 +8.3648060912865354e+00 +0.0000000000000000e+00 -2.6499999905401301e+00 -2.8066210624404720e-02 -5.2533509758700048e-01 +6.0955769353508039e-03
-2.6999999999999984e+00 +8.3647987037328981e+00 +0.0000000000000000e+00 -2.6999999899943545e+00 -2.8068893542567159e-02 -5.2535361899145527e-01 +6.0966524849487202e-03
-2.7499999999999982e+00 +8.3647911780034310e+00 +0.0000000000000000e+00 -2.7499999894279727e+00 -2.8071593793348167e-02 -5.2537245481866124e-01 +6.0977129371171408e-03
-2.7999999999999980e+00 +8.3647835140931779e+00 +0.0000000000000000e+00 -2.7999999888406015e+00 -2.8074311167235053e-02 -5.2539160314137445e-01 +6.0987582377560069e-03
-2.8499999999999979e+00 +8.3647757119971047e+00 +0.0000000000000000e+00 -2.8499999882318585e+00 -2.8077045454716662e-02 -5.2541106203235954e-01 +6.0997883327643197e-03
-2.8999999999999977e+00 +8.3647677717100919e+00 +0.0000000000000000e+00 -2.8999999876013609e+00 -2.8079796446283504e-02 -5.2543082956438858e-01 +6.1008031680401262e-03
-2.9499999999999975e+00 +8.3647596932269401e+00 +0.0000000000000000e+00 -2.9499999869487259e+00 -2.8082563932427626e-02 -5.2545090381024084e-01 +6.1018026894805169e-03
-2.9999999999999973e+00 +8.3647514765423718e+00 +0.0000000000000000e+00 -2.9999999862735711e+00 -2.8085347703642832e-02 -5.2547128284270272e-01 +6.1027868429816253e-03
-3.0499999999999972e+00 +8.3647431216510260e+00 +0.0000000000000000e+00 -3.0499999855755129e+00 -2.8088147550424592e-02 -5.2549196473456716e-01 +6.1037555744386119e-03
-3.0999999999999970e+00 +8.3647346285474615e+00 +0.0000000000000000e+00 -3.0999999848541688e+00 -2.8090963263270135e-02 -5.2551294755863431e-01 +6.1047088297456874e-03
-3.1499999999999968e+00 +8.3647259972261612e+00 +0.0000000000000000e+00 -3.1499999841091557e+00 -2.8093794632678422e-02 -5.2553422938770988e-01 +6.1056465547960773e-03
-3.1999999999999966e+00 +8.3647172276815276e+00 +0.0000000000000000e+00 -3.1999999833400907e+00 -2.8096641449150282e-02 -5.2555580829460624e-01 +6.1065686954820441e-03
-3.2499999999999964e+00 +8.3647083199078853e+00 +0.0000000000000000e+00 -3.2499999825465906e+00 -2.8099503503188353e-02 -5.2557768235214042e-01 +6.1074751976948703e-03
-3.2999999999999963e+00 +8.3646992738994808e+00 +0.0000000000000000e+00 -3.2999999817282721e+00 -2.8102380585297185e-02 -5.2559984963313622e-01 +6.1083660073248600e-03
-3.3499999999999961e+00 +8.3646900896504857e+00 +0.0000000000000000e+00 -3.3499999808847520e+00 -2.8105272485983216e-02 -5.2562230821042200e-01 +6.1092410702613320e-03
-3.3999999999999959e+00 +8.3646807671549919e+00 +0.0000000000000000e+00 -3.3999999800156471e+00 -2.8108178995754834e-02 -5.2564505615683088e-01 +6.1101003323926172e-03
-3.4499999999999957e+00 +8.3646713064070148e+00 +0.0000000000000000e+00 -3.4499999791205735e+00 -2.8111099905122467e-02 -5.2566809154520111e-01 +6.1109437396060645e-03
-3.4999999999999956e+00 +8.3646617074004972e+00 +0.0000000000000000e+00 -3.4999999781991482e+00 -2.8114035004598484e-02 -5.2569141244837503e-01 +6.1117712377880195e-03
-3.5499999999999954e+00 +8.3646519701293069e+00 +0.0000000000000000e+00 -3.5499999772509878e+00 -2.8116984084697403e-02 -5.2571501693919931e-01 +6.1125827728238389e-03
-3.5999999999999952e+00 +8.3646420945872340e+00 +0.0000000000000000e+00 -3.5999999762757087e+00 -2.8119946935935787e-02 -5.2573890309052451e-01 +6.1133782905978731e-03
-3.6499999999999950e+00 +8.3646320807679970e+00 +0.0000000000000000e+00 -3.6499999752729271e+00 -2.8122923348832304e-02 -5.2576306897520442e-01 +6.1141577369934709e-03
-3.6999999999999948e+00 +8.3646219286652386e+00 +0.0000000000000000e+00 -3.6999999742422593e+00 -2.8125913113907865e-02 -5.2578751266609725e-01 +6.1149210578929818e-03
-3.7499999999999947e+00 +8.3646116382725317e+00 +0.0000000000000000e+00 -3.7499999731833218e+00 -2.8128916021685504e-02 -5.2581223223606266e-01 +6.1156681991777311e-03
-3.7999999999999945e+00 +8.3646012095833733e+00 +0.0000000000000000e+00 -3.7999999720957303e+00 -2.8131931862690543e-02 -5.2583722575796488e-01 +6.1163991067280411e-03
-3.8499999999999943e+00 +8.3645906425911907e+00 +0.0000000000000000e+00 -3.8499999709791011e+00 -2.8134960427450548e-02 -5.2586249130466955e-01 +6.1171137264232128e-03
-3.8999999999999941e+00 +8.3645799372893386e+00 +0.0000000000000000e+00 -3.8999999698330501e+00 -2.8138001506495404e-02 -5.2588802694904480e-01 +6.1178120041415268e-03
-3.9499999999999940e+00 +8.3645690936711024e+00 +0.0000000000000000e+00 -3.9499999686571936e+00 -2.8141054890357352e-02 -5.2591383076396125e-01 +6.1184938857602412e-03
-3.9999999999999938e+00 +8.3645581117296928e+00 +0.0000000000000000e+00 -3.9999999674511471e+00 -2.8144120369570987e-02 -5.2593990082229081e-01 +6.1191593171555855e-03
-4.0499999999999936e+00 +8.3645469914582549e+00 +0.0000000000000000e+00 -4.0499999662145267e+00 -2.8147197739317686e-02 -5.2596623504332229e-01 +6.1198082490469445e-03
-4.0999999999999934e+00 +8.3645357328498608e+00 +0.0000000000000000e+00 -4.0999999649469485e+00 -2.8150286813357496e-02 -5.2599283073200753e-01 +6.1204406515296111e-03
-4.1499999999999932e+00 +8.3645243358975172e+00 +0.0000000000000000e+00 -4.1499999636480274e+00 -2.8153387410093475e-02 -5.2601968503971641e-01 +6.1210564995424340e-03
-4.1999999999999931e+00 +8.3645128005941611e+00 +0.0000000000000000e+00 -4.1999999623173796e+00 -2.8156499347926970e-02 -5.2604679511782304e-01 +6.1216557680236648e-03
-4.2499999999999929e+00 +8.3645011269326623e+00 +0.0000000000000000e+00 -4.2499999609546197e+00 -2.8159622445257444e-02 -5.2607415811770541e-01 +6.1222384319109613e-03
-4.2999999999999927e+00 +8.3644893149058230e+00 +0.0000000000000000e+00 -4.2999999595593641e+00 -2.8162756520482488e-02 -5.2610177119074619e-01 +6.1228044661414040e-03
-4.3499999999999925e+00 +8.3644773645063815e+00 +0.0000000000000000e+00 -4.3499999581312281e+00 -2.8165901391997598e-02 -5.2612963148833025e-01 +6.1233538456514965e-03
-4.3999999999999924e+00 +8.3644652757270102e+00 +0.0000000000000000e+00 -4.3999999566698262e+00 -2.8169056878196215e-02 -5.2615773616184669e-01 +6.1238865453771855e-03
-4.4499999999999922e+00 +8.3644530485603177e+00 +0.0000000000000000e+00 -4.4499999551747740e+00 -2.8172222797469542e-02 -5.2618608236268749e-01 +6.1244025402538600e-03
-4.4999999999999920e+00 +8.3644406829988487e+00 +0.0000000000000000e+00 -4.4999999536456867e+00 -2.8175398968206516e-02 -5.2621466724224830e-01 +6.1249018052163670e-03
-4.5499999999999918e+00 +8.3644281790350838e+00 +0.0000000000000000e+00 -4.5499999520821799e+00 -2.8178585208793652e-02 -5.2624348795192688e-01 +6.1253843151990199e-03
-4.5999999999999917e+00 +8.3644155366614434e+00 +0.0000000000000000e+00 -4.5999999504838680e+00 -2.8181781337615022e-02 -5.2627254164312465e-01 +6.1258500451356048e-03
-4.6499999999999915e+00 +8.3644027558702874e+00 +0.0000000000000000e+00 -4.6499999488503656e+00 -2.8184987173052123e-02 -5.2630182546724480e-01 +6.1262989699593998e-03
-4.6999999999999913e+00 +8.3643898366539133e+00 +0.0000000000000000e+00 -4.6999999471812881e+00 -2.8188202533483787e-02 -5.2633133657569320e-01 +6.1267310646031751e-03
-4.7499999999999911e+00 +8.3643767790045587e+00 +0.0000000000000000e+00 -4.7499999454762500e+00 -2.8191427237286099e-02 -5.2636107211987826e-01 +6.1271463039991982e-03
-4.7999999999999909e+00 +8.3643635829144021e+00 +0.0000000000000000e+00 -4.7999999437348659e+00 -2.8194661102832325e-02 -5.2639102925121040e-01 +6.1275446630792603e-03
-4.8499999999999908e+00 +8.3643502483755654e+00 +0.0000000000000000e+00 -4.8499999419567503e+00 -2.8197903948492781e-02 -5.2642120512110158e-01 +6.1279261167746721e-03
-4.8999999999999906e+00 +8.3643367753801137e+00 +0.0000000000000000e+00 -4.8999999401415186e+00 -2.8201155592634763e-02 -5.2645159688096566e-01 +6.1282906400162750e-03
-4.9499999999999904e+00 +8.3643231639200515e+00 +0.0000000000000000e+00 -4.9499999382887845e+00 -2.8204415853622489e-02 -5.2648220168221849e-01 +6.1286382077344560e-03
-4.9999999999999902e+00 +8.3643094139873302e+00 +0.0000000000000000e+00 -4.9999999363981615e+00 -2.8207684549816939e-02 -5.2651301667627659e-01 +6.1289687948591527e-03
-5.0499999999999901e+00 +8.3642955255738460e+00 +0.0000000000000000e+00 -5.0499999344692652e+00 -2.8210961499575832e-02 -5.2654403901455882e-01 +6.1292823763198657e-03
-5.0999999999999899e+00 +8.3642814986714384e+00 +0.0000000000000000e+00 -5.0999999325017091e+00 -2.8214246521253480e-02 -5.2657526584848380e-01 +6.1295789270456678e-03
-5.1499999999999897e+00 +8.3642673332718953e+00 +0.0000000000000000e+00 -5.1499999304951078e+00 -2.8217539433200722e-02 -5.2660669432947183e-01 +6.1298584219652043e-03
-5.1999999999999895e+00 +8.3642530293669495e+00 +0.0000000000000000e+00 -5.1999999284490750e+00 -2.8220840053764906e-02 -5.2663832160894430e-01 +6.1301208360067258e-03
-5.2499999999999893e+00 +8.3642385869482840e+00 +0.0000000000000000e+00 -5.2499999263632242e+00 -2.8224148201289594e-02 -5.2667014483832231e-01 +6.1303661440980676e-03
-5.2999999999999892e+00 +8.3642240060075288e+00 +0.0000000000000000e+00 -5.2999999242371700e+00 -2.8227463694114718e-02 -5.2670216116902790e-01 +6.1305943211666849e-03
-5.3499999999999890e+00 +8.3642092865362621e+00 +0.0000000000000000e+00 -5.3499999220705252e+00 -2.8230786350576333e-02 -5.2673436775248350e-01 +6.1308053421396478e-03
-5.3999999999999888e+00 +8.3641944285260141e+00 +0.0000000000000000e+00 -5.3999999198629043e+00 -2.8234115989006565e-02 -5.2676676174011106e-01 +6.1309991819436527e-03
-5.4499999999999886e+00 +8.3641794319682656e+00 +0.0000000000000000e+00 -5.4499999176139209e+00 -2.8237452427733539e-02 -5.2679934028333264e-01 +6.1311758155050394e-03
-5.4999999999999885e+00 +8.3641642968544474e+00 +0.0000000000000000e+00 -5.4999999153231878e+00 -2.8240795485081259e-02 -5.2683210053357055e-01 +6.1313352177497929e-03
-5.5499999999999883e+00 +8.3641490231759441e+00 +0.0000000000000000e+00 -5.5499999129903195e+00 -2.8244144979369529e-02 -5.2686503964224618e-01 +6.1314773636035524e-03
-5.5999999999999881e+00 +8.3641336109240907e+00 +0.0000000000000000e+00 -5.5999999106149287e+00 -2.8247500728913886e-02 -5.2689815476078017e-01 +6.1316022279916298e-03
-5.6499999999999879e+00 +8.3641180600901794e+00 +0.0000000000000000e+00 -5.6499999081966283e+00 -2.8250862552025476e-02 -5.2693144304059292e-01 +6.1317097858390136e-03
-5.6999999999999877e+00 +8.3641023706654547e+00 +0.0000000000000000e+00 -5.6999999057350319e+00 -2.8254230267010957e-02 -5.2696490163310350e-01 +6.1318000120703705e-03
-5.7499999999999876e+00 +8.3640865426411164e+00 +0.0000000000000000e+00 -5.7499999032297522e+00 -2.8257603692172450e-02 -5.2699852768973021e-01 +6.1318728816100688e-03
-5.7999999999999874e+00 +8.3640705760083200e+00 +0.0000000000000000e+00 -5.7999999006804028e+00 -2.8260982645807422e-02 -5.2703231836188980e-01 +6.1319283693821837e-03
-5.8499999999999872e+00 +8.3640544707581785e+00 +0.0000000000000000e+00 -5.8499998980865957e+00 -2.8264366946208597e-02 -5.2706627080099755e-01 +6.1319664503104981e-03
