# field on trajectory
# s[mm] rx[mm] ry[mm] rz[mm] bx[T] by[T] bz[T]
0.0000000000000000e+00 +8.3650000000000002e+00 +0.0000000000000000e+00 +0.0000000000000000e+00 -2.9216769473946559e-02 -5.5253643779109496e-01 +5.4926872473657212e-03
-5.0000000000000003e-02 +8.3649999309123011e+00 +0.0000000000000000e+00 -4.9999999999936359e-02 -2.9216750396526849e-02 -5.5253647685935237e-01 +5.4919541935783507e-03
-1.0000000000000001e-01 +8.3649997236491807e+00 +0.0000000000000000e+00 -9.9999999999490871e-02 -2.9216752580573345e-02 -5.5253689617095270e-01 +5.4912255939501631e-03
-1.5000000000000002e-01 +8.3649993782105341e+00 +0.0000000000000000e+00 -1.4999999999828167e-01 -2.9216775844560200e-02 -5.5253769473049064e-01 +5.4905014877341890e-03
-2.0000000000000001e-01 +8.3649988945961624e+00 +0.0000000000000000e+00 -1.9999999999592694e-01 -2.9216820006961765e-02 -5.5253887154257586e-01 +5.4897819141836524e-03
-2.5000000000000000e-01 +8.3649982728057708e+00 +0.0000000000000000e+00 -2.4999999999204478e-01 -2.9216884886252646e-02 -5.5254042561183647e-01 +5.4890669125519679e-03
-2.9999999999999999e-01 +8.3649975128389702e+00 +0.0000000000000000e+00 -2.9999999998625337e-01 -2.9216970300907762e-02 -5.5254235594291712e-01 +5.4883565220927508e-03
-3.4999999999999998e-01 +8.3649966146952792e+00 +0.0000000000000000e+00 -3.4999999997817083e-01 -2.9217076069402298e-02 -5.5254466154047854e-01 +5.4876507820598146e-03
-3.9999999999999997e-01 +8.3649955783741206e+00 +0.0000000000000000e+00 -3.9999999996741531e-01 -2.9217202010211857e-02 -5.5254734140919859e-01 +5.4869497317071685e-03
-4.4999999999999996e-01 +8.3649944038748227e+00 +0.0000000000000000e+00 -4.4999999995360490e-01 -2.9217347941812386e-02 -5.5255039455377197e-01 +5.4862534102890310e-03
-4.9999999999999994e-01 +8.3649930911966237e+00 +0.0000000000000000e+00 -4.9999999993635774e-01 -2.9217513682680270e-02 -5.5255381997890896e-01 +5.4855618570598284e-03
-5.4999999999999993e-01 +8.3649916403386673e+00 +0.0000000000000000e+00 -5.4999999991529192e-01 -2.9217699051292369e-02 -5.5255761668933689e-01 +5.4848751112741827e-03
-5.9999999999999998e-01 +8.3649900513000031e+00 +0.0000000000000000e+00 -5.9999999989002561e-01 -2.9217903866126004e-02 -5.5256178368979947e-01 +5.4841932121869408e-03
-6.5000000000000002e-01 +8.3649883240795901e+00 +0.0000000000000000e+00 -6.4999999986017676e-01 -2.9218127945659027e-02 -5.5256631998505557e-01 +5.4835161990531515e-03
-7.0000000000000007e-01 +8.3649864586762934e+00 +0.0000000000000000e+00 -6.9999999982536354e-01 -2.9218371108369848e-02 -5.5257122457988150e-01 +5.4828441111280770e-03
-7.5000000000000011e-01 +8.3649844550888854e+00 +0.0000000000000000e+00 -7.4999999978520404e-01 -2.9218633172737474e-02 -5.5257649647906881e-01 +5.4821769876672007e-03
-8.0000000000000016e-01 +8.3649823133160499e+00 +0.0000000000000000e+00 -7.9999999973931624e-01 -2.9218913957241542e-02 -5.5258213468742512e-01 +5.4815148679262255e-03
-8.5000000000000020e-01 +8.3649800333563746e+00 +0.0000000000000000e+00 -8.4999999968731821e-01 -2.9219213280362338e-02 -5.5258813820977404e-01 +5.4808577911610720e-03
-9.0000000000000024e-01 +8.3649776152083604e+00 +0.0000000000000000e+00 -8.9999999962882793e-01 -2.9219530960580841e-02 -5.5259450605095484e-01 +5.4802057966278810e-03
-9.5000000000000029e-01 +8.3649750588704137e+00 +0.0000000000000000e+00 -9.4999999956346337e-01 -2.9219866816378760e-02 -5.5260123721582266e-01 +5.4795589235830267e-03
-1.0000000000000002e+00 +8.3649723643408507e+00 +0.0000000000000000e+00 -9.9999999949084262e-01 -2.9220220666238573e-02 -5.5260833070924775e-01 +5.4789172112830993e-03
-1.0500000000000003e+00 +8.3649695316178985e+00 +0.0000000000000000e+00 -1.0499999994105835e+00 -2.9220592328643540e-02 -5.5261578553611612e-01 +5.4782806989849267e-03
-1.1000000000000003e+00 +8.3649665606996937e+00 +0.0000000000000000e+00 -1.0999999993223040e+00 -2.9220981622077740e-02 -5.5262360070132965e-01 +5.4776494259455681e-03
-1.1500000000000004e+00 +8.3649634515842806e+00 +0.0000000000000000e+00 -1.1499999992256220e+00 -2.9221388365026160e-02 -5.5263177520980522e-01 +5.4770234314223138e-03
-1.2000000000000004e+00 +8.3649602042696145e+00 +0.0000000000000000e+00 -1.1999999991201555e+00 -2.9221812375974619e-02 -5.5264030806647468e-01 +5.4764027546726898e-03
-1.2500000000000004e+00 +8.3649568187535639e+00 +0.0000000000000000e+00 -1.2499999990055224e+00 -2.9222253473409912e-02 -5.5264919827628523e-01 +5.4757874349544624e-03
-1.3000000000000005e+00 +8.3649532950339029e+00 +0.0000000000000000e+00 -1.2999999988813404e+00 -2.9222711475819778e-02 -5.5265844484419935e-01 +5.4751775115256364e-03
-1.3500000000000005e+00 +8.3649496331083206e+00 +0.0000000000000000e+00 -1.3499999987472275e+00 -2.9223186201692956e-02 -5.5266804677519421e-01 +5.4745730236444579e-03
-1.4000000000000006e+00 +8.3649458329744171e+00 +0.0000000000000000e+00 -1.3999999986028013e+00 -2.9223677469519222e-02 -5.5267800307426251e-01 +5.4739740105694259e-03
-1.4500000000000006e+00 +8.3649418946297001e+00 +0.0000000000000000e+00 -1.4499999984476799e+00 -2.9224185097789429e-02 -5.5268831274641084e-01 +5.4733805115592749e-03
-1.5000000000000007e+00 +8.3649378180715939e+00 +0.0000000000000000e+00 -1.4999999982814807e+00 -2.9224708904995508e-02 -5.5269897479666119e-01 +5.4727925658729958e-03
-1.5500000000000007e+00 +8.3649336032974304e+00 +0.0000000000000000e+00 -1.5499999981038215e+00 -2.9225248709630502e-02 -5.5270998823005013e-01 +5.4722102127698269e-03
-1.6000000000000008e+00 +8.3649292503044563e+00 +0.0000000000000000e+00 -1.5999999979143200e+00 -2.9225804330188676e-02 -5.5272135205162887e-01 +5.4716334915092682e-03
-1.6500000000000008e+00 +8.3649247590898295e+00 +0.0000000000000000e+00 -1.6499999977125941e+00 -2.9226375585165467e-02 -5.5273306526646249e-01 +5.4710624413510621e-03
-1.7000000000000008e+00 +8.3649201296506206e+00 +0.0000000000000000e+00 -1.6999999974982611e+00 -2.9226962293057539e-02 -5.5274512687963129e-01 +5.4704971015552195e-03
-1.7500000000000009e+00 +8.3649153619838135e+00 +0.0000000000000000e+00 -1.7499999972709388e+00 -2.9227564272362842e-02 -5.5275753589622945e-01 +5.4699375113820082e-03
-1.8000000000000009e+00 +8.3649104560863066e+00 +0.0000000000000000e+00 -1.7999999970302445e+00 -2.9228181341580582e-02 -5.5277029132136513e-01 +5.4693837100919561e-03
-1.8500000000000010e+00 +8.3649054119549078e+00 +0.0000000000000000e+00 -1.8499999967757959e+00 -2.9228813319211410e-02 -5.5278339216016159e-01 +5.4688357369458603e-03
-1.9000000000000010e+00 +8.3649002295863433e+00 +0.0000000000000000e+00 -1.8999999965072105e+00 -2.9229460023757203e-02 -5.5279683741775498e-01 +5.4682936312047785e-03
-1.9500000000000011e+00 +8.3648949089772486e+00 +0.0000000000000000e+00 -1.9499999962241057e+00 -2.9230121273721356e-02 -5.5281062609929610e-01 +5.4677574321300446e-03
-2.0000000000000009e+00 +8.3648894501241777e+00 +0.0000000000000000e+00 -1.9999999959260990e+00 -2.9230796887608643e-02 -5.5282475720994961e-01 +5.4672271789832552e-03
-2.0500000000000007e+00 +8.3648838530235956e+00 +0.0000000000000000e+00 -2.0499999956128079e+00 -2.9231486704320488e-02 -5.5283922957985587e-01 +5.4667029072752501e-03
-2.1000000000000005e+00 +8.3648781176718821e+00 +0.0000000000000000e+00 -2.0999999952838495e+00 -2.9232190644340166e-02 -5.5285404133901583e-01 +5.4661846375130396e-03
-2.1500000000000004e+00 +8.3648722440653351e+00 +0.0000000000000000e+00 -2.1499999949388409e+00 -2.9232908648546732e-02 -5.5286919044240435e-01 +5.4656723864529941e-03
-2.2000000000000002e+00 +8.3648662322001659e+00 +0.0000000000000000e+00 -2.1999999945773996e+00 -2.9233640657819731e-02 -5.5288467484500714e-01 +5.4651661708519182e-03
-2.2500000000000000e+00 +8.3648600820725019e+00 +0.0000000000000000e+00 -2.2499999941991429e+00 -2.9234386613039263e-02 -5.5290049250182105e-01 +5.4646660074670452e-03
-2.2999999999999998e+00 +8.3648537936783871e+00 +0.0000000000000000e+00 -2.2999999938036879e+00 -2.9235146455085841e-02 -5.5291664136785401e-01 +5.4641719130560547e-03
-2.3499999999999996e+00 +8.3648473670137840e+00 +0.0000000000000000e+00 -2.3499999933906519e+00 -2.9235920124840432e-02 -5.5293311939812384e-01 +5.4636839043770841e-03
-2.3999999999999995e+00 +8.3648408020745713e+00 +0.0000000000000000e+00 -2.3999999929596516e+00 -2.9236707563184444e-02 -5.5294992454765945e-01 +5.4632019981887374e-03
-2.4499999999999993e+00 +8.3648340988565479e+00 +0.0000000000000000e+00 -2.4499999925103042e+00 -2.9237508710999636e-02 -5.5296705477149954e-01 +5.4627262112500923e-03
-2.4999999999999991e+00 +8.3648272573554294e+00 +0.0000000000000000e+00 -2.4999999920422269e+00 -2.9238323509168170e-02 -5.5298450802469246e-01 +5.4622565603207121e-03
-2.5499999999999989e+00 +8.3648202775668512e+00 +0.0000000000000000e+00 -2.5499999915550364e+00 -2.9239151898572537e-02 -5.5300228226229742e-01 +5.4617930621606650e-03
-2.5999999999999988e+00 +8.3648131594863671e+00 +0.0000000000000000e+00 -2.5999999910483496e+00 -2.9239993820095546e-02 -5.5302037543938165e-01 +5.4613357335305162e-03
-2.6499999999999986e+00 +8.3648059031094544e+00 +0.0000000000000000e+00 -2.6499999905217835e+00 -2.9240849214620293e-02 -5.5303878551102215e-01 +5.4608845911913529e-03
-2.6999999999999984e+00 +8.3647985084315088e+00 +0.0000000000000000e+00 -2.6999999899749549e+00 -2.9241718023030161e-02 -5.5305751043230555e-01 +5.4604396519047907e-03
-2.7499999999999982e+00 +8.3647909754478480e+00 +0.0000000000000000e+00 -2.7499999894074807e+00 -2.9242600186208750e-02 -5.5307654815832696e-01 +5.4600009324329820e-03
-2.7999999999999980e+00 +8.3647833041537112e+00 +0.0000000000000000e+00 -2.7999999888189770e+00 -2.9243495645039887e-02 -5.5309589664419001e-01 +5.4595684495386265e-03
-2.8499999999999979e+00 +8.3647754945442596e+00 +0.0000000000000000e+00 -2.8499999882090612e+00 -2.9244404340407596e-02 -5.5311555384500632e-01 +5.4591422199849818e-03
-2.8999999999999977e+00 +8.3647675466145781e+00 +0.0000000000000000e+00 -2.8999999875773494e+00 -2.9245326213196077e-02 -5.5313551771589708e-01 +5.4587222605358785e-03
-2.9499999999999975e+00 +8.3647594603596733e+00 +0.0000000000000000e+00 -2.9499999869234581e+00 -2.9246261204289661e-02 -5.5315578621198980e-01 +5.4583085879557260e-03
-2.9999999999999973e+00 +8.3647512357744773e+00 +0.0000000000000000e+00 -2.9999999862470039e+00 -2.9247209254572793e-02 -5.5317635728842107e-01 +5.4579012190095130e-03
-3.0499999999999972e+00 +8.3647428728538458e+00 +0.0000000000000000e+00 -3.0499999855476037e+00 -2.9248170304930037e-02 -5.5319722890033451e-01 +5.4575001704628397e-03
-3.0999999999999970e+00 +8.3647343715925597e+00 +0.0000000000000000e+00 -3.0999999848248732e+00 -2.9249144296245977e-02 -5.5321839900288106e-01 +5.4571054590819125e-03
-3.1499999999999968e+00 +8.3647257319853239e+00 +0.0000000000000000e+00 -3.1499999840784292e+00 -2.9250131169405280e-02 -5.5323986555121818e-01 +5.4567171016335495e-03
-3.1999999999999966e+00 +8.3647169540267718e+00 +0.0000000000000000e+00 -3.1999999833078876e+00 -2.9251130865292626e-02 -5.5326162650051158e-01 +5.4563351148852164e-03
-3.2499999999999964e+00 +8.3647080377114609e+00 +0.0000000000000000e+00 -3.2499999825128647e+00 -2.9252143324792680e-02 -5.5328367980593263e-01 +5.4559595156049986e-03
-3.2999999999999963e+00 +8.3646989830338754e+00 +0.0000000000000000e+00 -3.2999999816929768e+00 -2.9253168488790077e-02 -5.5330602342265989e-01 +5.4555903205616516e-03
-3.3499999999999961e+00 +8.3646897899884287e+00 +0.0000000000000000e+00 -3.3499999808478398e+00 -2.9254206298169407e-02 -5.5332865530587716e-01 +5.4552275465245817e-03
-3.3999999999999959e+00 +8.3646804585694614e+00 +0.0000000000000000e+00 -3.3999999799770699e+00 -2.9255256693815155e-02 -5.5335157341077523e-01 +5.4548712102638636e-03
-3.4499999999999957e+00 +8.3646709887712429e+00 +0.0000000000000000e+00 -3.4499999790802831e+00 -2.9256319616611716e-02 -5.5337477569255011e-01 +5.4545213285502612e-03
-3.4999999999999956e+00 +8.3646613805879699e+00 +0.0000000000000000e+00 -3.4999999781570952e+00 -2.9257395007443343e-02 -5.5339826010640369e-01 +5.4541779181552282e-03
-3.5499999999999954e+00 +8.3646516340137715e+00 +0.0000000000000000e+00 -3.5499999772071220e+00 -2.9258482807194161e-02 -5.5342202460754375e-01 +5.4538409958509214e-03
-3.5999999999999952e+00 +8.3646417490427041e+00 +0.0000000000000000e+00 -3.5999999762299795e+00 -2.9259582956748086e-02 -5.5344606715118239e-01 +5.4535105784102077e-03
-3.6499999999999950e+00 +8.3646317256687546e+00 +0.0000000000000000e+00 -3.6499999752252834e+00 -2.9260695396988827e-02 -5.5347038569253693e-01 +5.4531866826066748e-03
-3.6999999999999948e+00 +8.3646215638858408e+00 +0.0000000000000000e+00 -3.6999999741926493e+00 -2.9261820068799863e-02 -5.5349497818682925e-01 +5.4528693252146486e-03
-3.7499999999999947e+00 +8.3646112636878147e+00 +0.0000000000000000e+00 -3.7499999731316924e+00 -2.9262956913064447e-02 -5.5351984258928655e-01 +5.4525585230091964e-03
-3.7999999999999945e+00 +8.3646008250684574e+00 +0.0000000000000000e+00 -3.7999999720420288e+00 -2.9264105870665517e-02 -5.5354497685513981e-01 +5.4522542927661431e-03
-3.8499999999999943e+00 +8.3645902480214840e+00 +0.0000000000000000e+00 -3.8499999709232737e+00 -2.9265266882485694e-02 -5.5357037893962380e-01 +5.4519566512620651e-03
-3.8999999999999941e+00 +8.3645795325405423e+00 +0.0000000000000000e+00 -3.8999999697750423e+00 -2.9266439889407310e-02 -5.5359604679797747e-01 +5.4516656152743277e-03
-3.9499999999999940e+00 +8.3645686786192144e+00 +0.0000000000000000e+00 -3.9499999685969502e+00 -2.9267624832312329e-02 -5.5362197838544358e-01 +5.4513812015810703e-03
-3.9999999999999938e+00 +8.3645576862510147e+00 +0.0000000000000000e+00 -3.9999999673886126e+00 -2.9268821652082295e-02 -5.5364817165726821e-01 +5.4511034269612343e-03
-4.0499999999999936e+00 +8.3645465554293921e+00 +0.0000000000000000e+00 -4.0499999661496444e+00 -2.9270030276055459e-02 -5.5367462443923487e-01 +5.4508323029698420e-03
-4.0999999999999934e+00 +8.3645352861477331e+00 +0.0000000000000000e+00 -4.0999999648796610e+00 -2.9271250577398072e-02 -5.5370133403926602e-01 +5.4505678202636017e-03
-4.1499999999999932e+00 +8.3645238783993570e+00 +0.0000000000000000e+00 -4.1499999635782778e+00 -2.9272482415734036e-02 -5.5372829763582143e-01 +5.4503099642747421e-03
-4.1999999999999931e+00 +8.3645123321775223e+00 +0.0000000000000000e+00 -4.1999999622451094e+00 -2.9273725650687900e-02 -5.5375551240736254e-01 +5.4500587204356831e-03
-4.2499999999999929e+00 +8.3645006474754222e+00 +0.0000000000000000e+00 -4.2499999608797712e+00 -2.9274980141884937e-02 -5.5378297553235278e-01 +5.4498140741790395e-03
-4.2999999999999927e+00 +8.3644888242861910e+00 +0.0000000000000000e+00 -4.2999999594818767e+00 -2.9276245748951098e-02 -5.5381068418925783e-01 +5.4495760109376035e-03
-4.3499999999999925e+00 +8.3644768626028974e+00 +0.0000000000000000e+00 -4.3499999580510424e+00 -2.9277522331513119e-02 -5.5383863555654567e-01 +5.4493445161443409e-03
-4.3999999999999924e+00 +8.3644647624185531e+00 +0.0000000000000000e+00 -4.3999999565868819e+00 -2.9278809749198415e-02 -5.5386682681268495e-01 +5.4491195752323822e-03
-4.4499999999999922e+00 +8.3644525237261078e+00 +0.0000000000000000e+00 -4.4499999550890097e+00 -2.9280107861635127e-02 -5.5389525513614601e-01 +5.4489011736350099e-03
-4.4999999999999920e+00 +8.3644401465184526e+00 +0.0000000000000000e+00 -4.4999999535570412e+00 -2.9281416528452210e-02 -5.5392391770540006e-01 +5.4486892967856582e-03
-4.5499999999999918e+00 +8.3644276307884198e+00 +0.0000000000000000e+00 -4.5499999519905900e+00 -2.9282735609279319e-02 -5.5395281169891930e-01 +5.4484839301178921e-03
-4.5999999999999917e+00 +8.3644149765287832e+00 +0.0000000000000000e+00 -4.5999999503892708e+00 -2.9284064963746897e-02 -5.5398193429517717e-01 +5.4482850590654181e-03
-4.6499999999999915e+00 +8.3644021837322615e+00 +0.0000000000000000e+00 -4.6499999487526980e+00 -2.9285404451486165e-02 -5.5401128267264610e-01 +5.4480926690620496e-03
-4.6999999999999913e+00 +8.3643892523915149e+00 +0.0000000000000000e+00 -4.6999999470804861e+00 -2.9286753932129126e-02 -5.5404085400979952e-01 +5.4479067455417210e-03
-4.7499999999999911e+00 +8.3643761824991483e+00 +0.0000000000000000e+00 -4.7499999453722488e+00 -2.9288113265308592e-02 -5.5407064548511120e-01 +5.4477272739384738e-03
-4.7999999999999909e+00 +8.3643629740477117e+00 +0.0000000000000000e+00 -4.7999999436276006e+00 -2.9289482310658178e-02 -5.5410065427705402e-01 +5.4475542396864359e-03
-4.8499999999999908e+00 +8.3643496270297018e+00 +0.0000000000000000e+00 -4.8499999418461561e+00 -2.9290860927812294e-02 -5.5413087756410073e-01 +5.4473876282198300e-03
-4.8999999999999906e+00 +8.3643361414375601e+00 +0.0000000000000000e+00 -4.8999999400275280e+00 -2.9292248976406206e-02 -5.5416131252472300e-01 +5.4472274249729559e-03
-4.9499999999999904e+00 +8.3643225172636750e+00 +0.0000000000000000e+00 -4.9499999381713309e+00 -2.9293646316075998e-02 -5.5419195633739193e-01 +5.4470736153801810e-03
-4.9999999999999902e+00 +8.3643087545003834e+00 +0.0000000000000000e+00 -4.9999999362771783e+00 -2.9295052806458600e-02 -5.5422280618057707e-01 +5.4469261848759361e-03
-5.0499999999999901e+00 +8.3642948531399721e+00 +0.0000000000000000e+00 -5.0499999343446840e+00 -2.9296468307191782e-02 -5.5425385923274728e-01 +5.4467851188947048e-03
-5.0999999999999899e+00 +8.3642808131746751e+00 +0.0000000000000000e+00 -5.0999999323734615e+00 -2.9297892677914206e-02 -5.5428511267236913e-01 +5.4466504028710169e-03
-5.1499999999999897e+00 +8.3642666345966763e+00 +0.0000000000000000e+00 -5.1499999303631245e+00 -2.9299325778265401e-02 -5.5431656367790771e-01 +5.4465220222394382e-03
-5.1999999999999895e+00 +8.3642523173981118e+00 +0.0000000000000000e+00 -5.1999999283132867e+00 -2.9300767467885763e-02 -5.5434820942782581e-01 +5.4463999624345559e-03
-5.2499999999999893e+00 +8.3642378615710662e+00 +0.0000000000000000e+00 -5.2499999262235617e+00 -2.9302217606416589e-02 -5.5438004710058408e-01 +5.4462842088909870e-03
-5.2999999999999892e+00 +8.3642232671075796e+00 +0.0000000000000000e+00 -5.2999999240935622e+00 -2.9303676053500066e-02 -5.5441207387464064e-01 +5.4461747470433497e-03
-5.3499999999999890e+00 +8.3642085339996424e+00 +0.0000000000000000e+00 -5.3499999219229011e+00 -2.9305142668779312e-02 -5.5444428692845127e-01 +5.4460715623262674e-03
-5.3999999999999888e+00 +8.3641936622391988e+00 +0.0000000000000000e+00 -5.3999999197111928e+00 -2.9306617311898375e-02 -5.5447668344046819e-01 +5.4459746401743572e-03
-5.4499999999999886e+00 +8.3641786518181487e+00 +0.0000000000000000e+00 -5.4499999174580491e+00 -2.9308099842502194e-02 -5.5450926058914085e-01 +5.4458839660222261e-03
-5.4999999999999885e+00 +8.3641635027283439e+00 +0.0000000000000000e+00 -5.4999999151630838e+00 -2.9309590120236661e-02 -5.5454201555291516e-01 +5.4457995253044495e-03
-5.5499999999999883e+00 +8.3641482149615936e+00 +0.0000000000000000e+00 -5.5499999128259097e+00 -2.9311088004748638e-02 -5.5457494551023323e-01 +5.4457213034555746e-03
-5.5999999999999881e+00 +8.3641327885096644e+00 +0.0000000000000000e+00 -5.5999999104461393e+00 -2.9312593355685951e-02 -5.5460804763953453e-01 +5.4456492859101093e-03
-5.6499999999999879e+00 +8.3641172233642767e+00 +0.0000000000000000e+00 -5.6499999080233856e+00 -2.9314106032697362e-02 -5.5464131911925230e-01 +5.4455834581025068e-03
-5.6999999999999877e+00 +8.3641015195171118e+00 +0.0000000000000000e+00 -5.6999999055572612e+00 -2.9315625895432608e-02 -5.5467475712781722e-01 +5.4455238054671711e-03
-5.7499999999999876e+00 +8.3640856769598066e+00 +0.0000000000000000e+00 -5.7499999030473790e+00 -2.9317152803542475e-02 -5.5470835884365499e-01 +5.4454703134384393e-03
-5.7999999999999874e+00 +8.3640696956839591e+00 +0.0000000000000000e+00 -5.7999999004933507e+00 -2.9318686616678677e-02 -5.5474212144518675e-01 +5.4454229674505616e-03
-5.8499999999999872e+00 +8.3640535756811278e+00 +0.0000000000000000e+00 -5.8499998978947900e+00 -2.9320227194493967e-02 -5.5477604211082798e-01 +5.4453817529377226e-03
