# multipoles
# s[mm] polynom_b[n=0][T/m^n] polynom_b[n=1][T/m^n] polynom_b[n=2][T/m^n] polynom_b[n=3][T/m^n] polynom_b[n=4][T/m^n] polynom_b[n=5][T/m^n] polynom_b[n=6][T/m^n] 
+0.0000000000000000e+00 -5.5549172112696943e-01 +7.3157745694627145e+00 +4.9704389039921759e+00 -1.3455196069653888e+02 -1.8898903424705997e+04 +4.5583014727847069e+05 +1.1200409110255054e+08 
+5.0000000000000003e-02 -5.5549255765644912e-01 +7.3157527657474866e+00 +4.9734097232704118e+00 -1.3461947627677239e+02 -1.8922800534987087e+04 +4.5631103868994460e+05 +1.1210629458871034e+08 
+1.0000000000000001e-01 -5.5549370638859730e-01 +7.3157477740191448e+00 +4.9761817624311977e+00 -1.3468541104266177e+02 -1.8950735006089431e+04 +4.5684458104679413e+05 +1.1223264322697416e+08 
+1.5000000000000002e-01 -5.5549516657051157e-01 +7.3157595717952333e+00 +4.9787437239349792e+00 -1.3475027948299899e+02 -1.8982478046321226e+04 +4.5743312648955436e+05 +1.1238182930638306e+08 
+2.0000000000000001e-01 -5.5549693744930317e-01 +7.3157881365971109e+00 +4.9810843101055715e+00 -1.3481459621990126e+02 -1.9017800861146927e+04 +4.5807902825409471e+05 +1.1255254510185549e+08 
+2.5000000000000000e-01 -5.5549901827208614e-01 +7.3158334459427161e+00 +4.9831922213245123e+00 -1.3487887571484987e+02 -1.9056474607177493e+04 +4.5878463827306236e+05 +1.1274348256865944e+08 
+2.9999999999999999e-01 -5.5550140828598393e-01 +7.3158954773526155e+00 +4.9850561567852045e+00 -1.3494363251115095e+02 -1.9098270403900337e+04 +4.5955230914663558e+05 +1.1295333338924187e+08 
+3.4999999999999998e-01 -5.5550410673817330e-01 +7.3159742083485009e+00 +4.9866648230549400e+00 -1.3500938117232278e+02 -1.9142959576252775e+04 +4.6038439363618445e+05 +1.1318079065767497e+08 
+3.9999999999999997e-01 -5.5550711287579824e-01 +7.3160696164537748e+00 +4.9880069177642170e+00 -1.3507663630234458e+02 -1.9190313202414258e+04 +4.6128324481056689e+05 +1.1342454577792963e+08 
+4.4999999999999996e-01 -5.5551042594605304e-01 +7.3161816791856760e+00 +4.9890711453985821e+00 -1.3514591223743918e+02 -1.9240102549722928e+04 +4.6225121357902209e+05 +1.1368329144647641e+08 
+4.9999999999999994e-01 -5.5551404519611203e-01 +7.3163103740709099e+00 +4.9898462042040004e+00 -1.3521772367245643e+02 -1.9292098716136647e+04 +4.6329065377096430e+05 +1.1395571920852882e+08 
+5.4999999999999993e-01 -5.5551796987320112e-01 +7.3164556786303230e+00 +4.9903207989688969e+00 -1.3529258502858539e+02 -1.9346072975514846e+04 +4.6440391694201785e+05 +1.1424052179561459e+08 
+5.9999999999999998e-01 -5.5552219922453305e-01 +7.3166175703893401e+00 +4.9904836298747837e+00 -1.3537101090667170e+02 -1.9401796479453842e+04 +4.6559335617887392e+05 +1.1453639111691228e+08 
+6.5000000000000002e-01 -5.5552673249734608e-01 +7.3167960268717893e+00 +4.9903233986012436e+00 -1.3545351579464057e+02 -1.9459040415647949e+04 +4.6686132355461153e+05 +1.1484201931071033e+08 
+7.0000000000000007e-01 -5.5553156893889599e-01 +7.3169910256022384e+00 +4.9898288080722217e+00 -1.3554061421248778e+02 -1.9517576010291366e+04 +4.6821017151114345e+05 +1.1515609878947318e+08 
+7.5000000000000011e-01 -5.5553670779644648e-01 +7.3172025441048874e+00 +4.9889885598606298e+00 -1.3563282061081350e+02 -1.9577174451949111e+04 +4.6964225179540296e+05 +1.1547732170714554e+08 
+8.0000000000000016e-01 -5.5554214831728443e-01 +7.3174305599077227e+00 +4.9877913568376808e+00 -1.3573064958351824e+02 -1.9637606960330228e+04 +4.7115991738447885e+05 +1.1580438041239186e+08 
+8.5000000000000020e-01 -5.5554788974868596e-01 +7.3176750505395001e+00 +4.9862258979007805e+00 -1.3583461573256926e+02 -1.9698644652053710e+04 +4.7276552132738638e+05 +1.1613596657116899e+08 
+9.0000000000000024e-01 -5.5555393133796815e-01 +7.3179359935264952e+00 +4.9842808868909838e+00 -1.3594523352866830e+02 -1.9760058776680784e+04 +4.7446141557777883e+05 +1.1647077274327299e+08 
+9.5000000000000029e-01 -5.5556027233246641e-01 +7.3182133663958115e+00 +4.9819450278149544e+00 -1.3606301744264235e+02 -1.9821620584533423e+04 +4.7624995203799149e+05 +1.1680749148057216e+08 
+1.0000000000000002e+00 -5.5556691197949792e-01 +7.3185071466800968e+00 +4.9792070194711808e+00 -1.3618848215828291e+02 -1.9883101188472505e+04 +4.7813348442456615e+05 +1.1714481441478059e+08 
+1.0500000000000003e+00 -5.5557384952642530e-01 +7.3188173119060380e+00 +4.9760555663132848e+00 -1.3632214207675023e+02 -1.9944271854704421e+04 +4.8011436405661172e+05 +1.1748143421760677e+08 
+1.1000000000000003e+00 -5.5558108422060160e-01 +7.3191438396084818e+00 +4.9724793682710429e+00 -1.3646451191626386e+02 -2.0004903720610051e+04 +4.8219494489696564e+05 +1.1781604265984629e+08 
+1.1500000000000004e+00 -5.5558861530942305e-01 +7.3194867073173580e+00 +4.9684671307741102e+00 -1.3661610615879977e+02 -2.0064768077421162e+04 +4.8437757892358745e+05 +1.1814733257409504e+08 
+1.2000000000000004e+00 -5.5559644204026715e-01 +7.3198458925656116e+00 +4.9640075536645698e+00 -1.3677743939131446e+02 -2.0123636065719587e+04 +4.8666461900312855e+05 +1.1847399577419291e+08 
+1.2500000000000004e+00 -5.5560456366055155e-01 +7.3202213728871932e+00 +4.9590893410373456e+00 -1.3694902620192767e+02 -2.0181278935513903e+04 +4.8905841794802085e+05 +1.1879472479198189e+08 
+1.3000000000000005e+00 -5.5561297941769505e-01 +7.3206131258166725e+00 +4.9537011951899155e+00 -1.3713138119276678e+02 -2.0237467891855609e+04 +4.9156132874105225e+05 +1.1910821186720748e+08 
+1.3500000000000005e+00 -5.5562168855912886e-01 +7.3210211288913829e+00 +4.9478318178587255e+00 -1.3732501903483518e+02 -2.0291974121034964e+04 +4.9417570485016727e+05 +1.1941314909929137e+08 
+1.4000000000000006e+00 -5.5563069033229961e-01 +7.3214453596477220e+00 +4.9414699116249539e+00 -1.3753045434650917e+02 -2.0344568835059672e+04 +4.9690389935483073e+05 +1.1970822877012290e+08 
+1.4500000000000006e+00 -5.5563998398467351e-01 +7.3218857956206209e+00 +4.9346041795474109e+00 -1.3774820164631953e+02 -2.0395023254297579e+04 +4.9974826445195900e+05 +1.1999214320232408e+08 
+1.5000000000000007e+00 -5.5564956876372651e-01 +7.3223424143521116e+00 +4.9272233247905621e+00 -1.3797877572346195e+02 -2.0443108606577891e+04 +5.0271115457296534e+05 +1.2026358478295794e+08 
+1.5500000000000007e+00 -5.5565944391694622e-01 +7.3228151933815742e+00 +4.9193160494251957e+00 -1.3822269123176662e+02 -2.0488596083006723e+04 +5.0579492304567446e+05 +1.2052124562501341e+08 
+1.6000000000000008e+00 -5.5566960869184778e-01 +7.3233041102492038e+00 +4.9108710583614581e+00 -1.3848046282517998e+02 -2.0531256952810374e+04 +5.0900192314989644e+05 +1.2076381837276587e+08 
+1.6500000000000008e+00 -5.5568006233593081e-01 +7.3238091424971401e+00 +4.9018770516773493e+00 -1.3875260520818094e+02 -2.0570862357641574e+04 +5.1233450856801693e+05 +1.2098999481946799e+08 
+1.7000000000000008e+00 -5.5569080409674476e-01 +7.3243302676685049e+00 +4.8923227357886834e+00 -1.3903963309839270e+02 -2.0607183606577390e+04 +5.1579503308450466e+05 +1.2119846787468062e+08 
+1.7500000000000009e+00 -5.5570183322182265e-01 +7.3248674633093742e+00 +4.8821968115480967e+00 -1.3934206130639984e+02 -2.0639991855499778e+04 +5.1938585123194708e+05 +1.2138792940037608e+08 
+1.8000000000000009e+00 -5.5571314895871982e-01 +7.3254207069628094e+00 +4.8714879818069301e+00 -1.3966040448933114e+02 -2.0669058316040235e+04 +5.2310931625245890e+05 +1.2155707164276609e+08 
+1.8500000000000010e+00 -5.5572475055501913e-01 +7.3259899761778868e+00 +4.8601849516266364e+00 -1.3999517752048672e+02 -2.0694154256475296e+04 +5.2696778315473523e+05 +1.2170458721766087e+08 
+1.9000000000000010e+00 -5.5573663725830436e-01 +7.3265752485015954e+00 +4.8482764245072278e+00 -1.4034689515906257e+02 -2.0715050906739070e+04 +5.3096360599719896e+05 +1.2182916849722786e+08 
+1.9500000000000011e+00 -5.5574880831617124e-01 +7.3271765014835140e+00 +4.8357511029500531e+00 -1.4071607224510666e+02 -2.0731519460587373e+04 +5.3509913948222331e+05 +1.2192950757264598e+08 
+2.0000000000000009e+00 -5.5576126297623185e-01 +7.3277937126754198e+00 +4.8225976910574930e+00 -1.4110322367323906e+02 -2.0743331163337960e+04 +5.3937673874781700e+05 +1.2200429691414922e+08 
+2.0500000000000007e+00 -5.5577400035332580e-01 +7.3284268411333473e+00 +4.8088088661998647e+00 -1.4150867842581002e+02 -2.0750317176799002e+04 +5.4379755216945964e+05 +1.2205257806035253e+08 
+2.1000000000000005e+00 -5.5578701903113403e-01 +7.3290757675199822e+00 +4.7943937077283474e+00 -1.4193205508805869e+02 -2.0752553213818443e+04 +5.4835793486250890e+05 +1.2207482133130616e+08 
+2.1500000000000004e+00 -5.5580031746055747e-01 +7.3297403517903286e+00 +4.7793655301304003e+00 -1.4237280328798451e+02 -2.0750177274709971e+04 +5.5305304999543622e+05 +1.2207186214365222e+08 
+2.2000000000000002e+00 -5.5581389409250848e-01 +7.3304204538983075e+00 +4.7637376484242004e+00 -1.4283037258710448e+02 -2.0743327377568137e+04 +5.5787806011496042e+05 +1.2204453605319725e+08 
+2.2500000000000000e+00 -5.5582774737791818e-01 +7.3311159337997918e+00 +4.7475233786274265e+00 -1.4330421262161991e+02 -2.0732141562787601e+04 +5.6282812840602209e+05 +1.2199367874758257e+08 
+2.2999999999999998e+00 -5.5584187576771005e-01 +7.3318266514493908e+00 +4.7307360344204676e+00 -1.4379377297114334e+02 -2.0716757812488919e+04 +5.6789841759973369e+05 +1.2192012553861424e+08 
+2.3499999999999996e+00 -5.5585627771283708e-01 +7.3325524668020918e+00 +4.7133889322085869e+00 -1.4429850320533686e+02 -2.0697314178408727e+04 +5.7308409028245742e+05 +1.2182471219722374e+08 
+2.3999999999999995e+00 -5.5587095166424727e-01 +7.3332932398151023e+00 +4.6954953862578064e+00 -1.4481785298670744e+02 -2.0673948655990745e+04 +5.7838030983668601e+05 +1.2170827411801304e+08 
+2.4499999999999993e+00 -5.5588589607290817e-01 +7.3340488304436651e+00 +4.6770687125870412e+00 -1.4535127187987720e+02 -2.0646799288588998e+04 +5.8378223880289262e+05 +1.2157164702341589e+08 
+2.4999999999999991e+00 -5.5590110938978121e-01 +7.3348190986437904e+00 +4.6581222242549272e+00 -1.4589820947973470e+02 -2.0616004037727529e+04 +5.8928503998528619e+05 +1.2141566607680176e+08 
+2.5499999999999989e+00 -5.5591659006585581e-01 +7.3356039043723325e+00 +4.6386692380004435e+00 -1.4645811540745459e+02 -2.0581700965456042e+04 +5.9488387639306602e+05 +1.2124116712574996e+08 
+2.5999999999999988e+00 -5.5593233655212138e-01 +7.3364031075866318e+00 +4.6187230688183503e+00 -1.4703043929835366e+02 -2.0544028086979761e+04 +6.0057391115116968e+05 +1.2104898570352973e+08 
+2.6499999999999986e+00 -5.5594834729957365e-01 +7.3372165682419430e+00 +4.5982970312969895e+00 -1.4761463069087824e+02 -2.0503123406633164e+04 +6.0635030654954887e+05 +1.2083995727309728e+08 
+2.6999999999999984e+00 -5.5596462075920394e-01 +7.3380441462969772e+00 +4.5774044378475436e+00 -1.4821013926583561e+02 -2.0459124870596181e+04 +6.1220822607065411e+05 +1.2061491690665185e+08 
+2.7499999999999982e+00 -5.5598115538205362e-01 +7.3388857017083540e+00 +4.5560586077681320e+00 -1.4881641461418403e+02 -2.0412170604127943e+04 +6.1814283244009654e+05 +1.2037470086137989e+08 
+2.7999999999999980e+00 -5.5599794961912219e-01 +7.3397410944308330e+00 +4.5342728524859437e+00 -1.4943290623907583e+02 -2.0362398533006752e+04 +6.2414928763323871e+05 +1.2012014409845969e+08 
+2.8499999999999979e+00 -5.5601500192144993e-01 +7.3406101844248930e+00 +4.5120604881206239e+00 -1.5005906389301472e+02 -2.0309946696189880e+04 +6.3022275572899228e+05 +1.1985208229467398e+08 
+2.8999999999999977e+00 -5.5603231074006532e-01 +7.3414928316447474e+00 +4.4894348284565782e+00 -1.5069433704793727e+02 -2.0254953082984739e+04 +6.3635839840630966e+05 +1.1957135084333777e+08 
+2.9499999999999975e+00 -5.5604987452602705e-01 +7.3423888960484209e+00 +4.4664091901723060e+00 -1.5133817535535042e+02 -2.0197555747996455e+04 +6.4255137891080591e+05 +1.1927878553236373e+08 
+2.9999999999999973e+00 -5.5606769173037363e-01 +7.3432982375929177e+00 +4.4429968856259547e+00 -1.5199002840637067e+02 -2.0137892636452983e+04 +6.4879685990269377e+05 +1.1897522143912016e+08 
+3.0499999999999972e+00 -5.5608576080416627e-01 +7.3442207162329245e+00 +4.4192112302796067e+00 -1.5264934570116665e+02 -2.0076101779121524e+04 +6.5509000331392232e+05 +1.1866149422732338e+08 
+3.0999999999999970e+00 -5.5610408019847291e-01 +7.3451561919286528e+00 +4.3950655388213180e+00 -1.5331557697322407e+02 -2.0012321181426443e+04 +6.6142597299389215e+05 +1.1833843937728752e+08 
+3.1499999999999968e+00 -5.5612264836436642e-01 +7.3461045246348045e+00 +4.3705731258662173e+00 -1.5398817173880707e+02 -1.9946688848201935e+04 +6.6779993103413587e+05 +1.1800689236979860e+08 
+3.1999999999999966e+00 -5.5614146375292428e-01 +7.3470655743060771e+00 +4.3457473058786054e+00 -1.5466657949721676e+02 -1.9879342782501310e+04 +6.7420703929914022e+05 +1.1766768868551160e+08 
+3.2499999999999964e+00 -5.5616052481521894e-01 +7.3480392008995601e+00 +4.3206013911304302e+00 -1.5535024986981202e+02 -1.9810420927359974e+04 +6.8064246072278789e+05 +1.1732166339939232e+08 
+3.2999999999999963e+00 -5.5617983000236249e-01 +7.3490252643702263e+00 +4.2951486994631605e+00 -1.5603863238613474e+02 -1.9740061374185534e+04 +6.8710135744322278e+05 +1.1696965258377661e+08 
+3.3499999999999961e+00 -5.5619937776543305e-01 +7.3500236246745914e+00 +4.2694025422590203e+00 -1.5673117665042491e+02 -1.9668402043237100e+04 +6.9357889223185764e+05 +1.1661249116681537e+08 
+3.3999999999999959e+00 -5.5621916655553338e-01 +7.3510341417675056e+00 +4.2433762336527341e+00 -1.5742733219634425e+02 -1.9595580927757841e+04 +7.0007022722762730e+05 +1.1625101457085839e+08 
+3.4499999999999957e+00 -5.5623919482377260e-01 +7.3520566756023520e+00 +4.2170830883529327e+00 -1.5812654851101050e+02 -1.9521736038498333e+04 +7.0657052422148350e+05 +1.1588605834429225e+08 
+3.4999999999999956e+00 -5.5625946102126500e-01 +7.3530910861362866e+00 +4.1905364204389768e+00 -1.5882827525221467e+02 -1.9447005367504109e+04 +7.1307494641675963e+05 +1.1551845790832382e+08 
+3.5499999999999954e+00 -5.5627996359912313e-01 +7.3541372333189496e+00 +4.1637495433063485e+00 -1.5953196176575634e+02 -1.9371526889784240e+04 +7.1957865440651367e+05 +1.1514904857306784e+08 
+3.5999999999999952e+00 -5.5630070100846751e-01 +7.3551949771057314e+00 +4.1367357705031145e+00 -1.6023705764490319e+02 -1.9295438585129272e+04 +7.2607681081368832e+05 +1.1477866568948677e+08 
+3.6499999999999950e+00 -5.5632167170043412e-01 +7.3562641774503659e+00 +4.1095084173478149e+00 -1.6094301243236302e+02 -1.9218878480606261e+04 +7.3256457787024579e+05 +1.1440814492893776e+08 
+3.6999999999999948e+00 -5.5634287412613381e-01 +7.3573446943054233e+00 +4.0820807941249262e+00 -1.6164927563349997e+02 -1.9141984467642487e+04 +7.3903711748944747e+05 +1.1403832104817991e+08 
+3.7499999999999947e+00 -5.5636430673671045e-01 +7.3584363876192063e+00 +4.0544662159074196e+00 -1.6235529658607757e+02 -1.9064894568243177e+04 +7.4548959018001251e+05 +1.1367002969672044e+08 
+3.7999999999999945e+00 -5.5638596798330398e-01 +7.3595391173459666e+00 +4.0266779964632899e+00 -1.6306052489042276e+02 -1.8987746769696925e+04 +7.5191715862729878e+05 +1.1330410629339379e+08 
+3.8499999999999943e+00 -5.5640785631704393e-01 +7.3606527434350753e+00 +3.9987294465363905e+00 -1.6376440995501568e+02 -1.8910678975203875e+04 +7.5831498391538230e+05 +1.1294138568334000e+08 
+3.8999999999999941e+00 -5.5642997018910034e-01 +7.3617771258388922e+00 +3.9706338841717832e+00 -1.6446640133571998e+02 -1.8833829292857819e+04 +7.6467822837333719e+05 +1.1258270412967107e+08 
+3.9499999999999940e+00 -5.5645230805059365e-01 +7.3629121245039562e+00 +3.9424046169887847e+00 -1.6516594835319816e+02 -1.8757335540587694e+04 +7.7100205233996117e+05 +1.1222889590377723e+08 
+3.9999999999999938e+00 -5.5647486835268800e-01 +7.3640575993794855e+00 +3.9140549603352790e+00 -1.6586250045234053e+02 -1.8681335751881263e+04 +7.7728161717788782e+05 +1.1188079676444499e+08 
+4.0499999999999936e+00 -5.5649764941808288e-01 +7.3652134051517288e+00 +3.8855971167823915e+00 -1.6655547778496788e+02 -1.8605958829757968e+04 +7.8351193004860799e+05 +1.1153917488333690e+08 
+4.0999999999999934e+00 -5.5652064905554011e-01 +7.3663793689111179e+00 +3.8570391513834283e+00 -1.6724415420788756e+02 -1.8531298561696680e+04 +7.8968750311115175e+05 +1.1120453293619463e+08 
+4.1499999999999932e+00 -5.5654386494532426e-01 +7.3675553092087984e+00 +3.8283881941531024e+00 -1.6792776071252555e+02 -1.8457440365606770e+04 +7.9580275774049887e+05 +1.1087730774367443e+08 
+4.1999999999999931e+00 -5.5656729476769251e-01 +7.3687410446001902e+00 +3.7996513742027296e+00 -1.6860552846721004e+02 -1.8384469646138121e+04 +8.0185211670407315e+05 +1.1055793609146333e+08 
+4.2499999999999929e+00 -5.5659093620289601e-01 +7.3699363936388158e+00 +3.7708358192046241e+00 -1.6927668857250876e+02 -1.8312471765091843e+04 +8.0783000224979210e+05 +1.1024685445778878e+08 
+4.2999999999999927e+00 -5.5661478693119693e-01 +7.3711411748749134e+00 +3.7419486586841986e+00 -1.6994047199668427e+02 -1.8241532136127840e+04 +8.1373083553394384e+05 +1.0994449968324487e+08 
+4.3499999999999925e+00 -5.5663884463284719e-01 +7.3723552068609539e+00 +3.7129970199677143e+00 -1.7059610979892653e+02 -1.8171736114800020e+04 +8.1954903845019860e+05 +1.0965130822413507e+08 
+4.3999999999999924e+00 -5.5666310698810417e-01 +7.3735783081491082e+00 +3.6839880317701086e+00 -1.7124283303332680e+02 -1.8103169096145200e+04 +8.2527903287033853e+05 +1.0936771680965561e+08 
+4.4499999999999922e+00 -5.5668757167723115e-01 +7.3748102972895095e+00 +3.6549288235817969e+00 -1.7187987267116708e+02 -1.8035916497892616e+04 +8.3091523998000601e+05 +1.0909416233564073e+08 
+4.4999999999999920e+00 -5.5671223638047240e-01 +7.3760509928339939e+00 +3.6258265214355982e+00 -1.7250645975946941e+02 -1.7970063645103273e+04 +8.3645208159270755e+05 +1.0883108107637948e+08 
+4.5499999999999918e+00 -5.5673709877807509e-01 +7.3773002133297982e+00 +3.5966882519581036e+00 -1.7312182516539818e+02 -1.7905695877185462e+04 +8.4188397807366122e+05 +1.0857890939655048e+08 
+4.5999999999999917e+00 -5.5676215655029593e-01 +7.3785577773298403e+00 +3.5675211438652745e+00 -1.7372519998647721e+02 -1.7842898597670999e+04 +8.4720535165136144e+05 +1.0833808412912837e+08 
+4.6499999999999915e+00 -5.5678740737738730e-01 +7.3798235033807096e+00 +3.5383323250652778e+00 -1.7431581506969871e+02 -1.7781757186209095e+04 +8.5241062251327618e+05 +1.0810904193886520e+08 
+4.6999999999999913e+00 -5.5681284893958805e-01 +7.3810972100293366e+00 +3.5091289211802867e+00 -1.7489290128120226e+02 -1.7722356962079208e+04 +8.5749421102256817e+05 +1.0789221909204900e+08 
+4.7499999999999911e+00 -5.5683847891713933e-01 +7.3823787158274277e+00 +3.4799180587058030e+00 -1.7545568969115652e+02 -1.7664783270928925e+04 +8.6245053921805252e+05 +1.0768805204400341e+08 
+4.7999999999999909e+00 -5.5686429499028867e-01 +7.3836678393193322e+00 +3.4507068651587094e+00 -1.7600341107273988e+02 -1.7609121486195811e+04 +8.6727402671477501e+05 +1.0749697744442526e+08 
+4.8499999999999908e+00 -5.5689029483926844e-01 +7.3849643990486049e+00 +3.4215024661754994e+00 -1.7653529616387394e+02 -1.7555456934539958e+04 +8.7195909279830032e+05 +1.0731943164339493e+08 
+4.8999999999999906e+00 -5.5691647614430217e-01 +7.3862682135658249e+00 +3.3923119859101130e+00 -1.7705057601438082e+02 -1.7503874902780037e+04 +8.7650015940171503e+05 +1.0715585072527960e+08 
+4.9499999999999904e+00 -5.5694283658563570e-01 +7.3875791014131087e+00 +3.3631425528666141e+00 -1.7754848132470434e+02 -1.7454460796362800e+04 +8.8089164554734877e+05 +1.0700667158376253e+08 
+4.9999999999999902e+00 -5.5696937384348177e-01 +7.3888968811354641e+00 +3.3340012899063143e+00 -1.7802824291950481e+02 -1.7407299868892638e+04 +8.8512797128549742e+05 +1.0687233009266354e+08 
+5.0499999999999901e+00 -5.5699608559807756e-01 +7.3902213712761391e+00 +3.3048953254814628e+00 -1.7848909156377945e+02 -1.7362477533438949e+04 +8.8920355620646465e+05 +1.0675326323722094e+08 
