# field on trajectory
# s[mm] rx[mm] ry[mm] rz[mm] bx[T] by[T] bz[T]
0.0000000000000000e+00 +8.5269999999999992e+00 +0.0000000000000000e+00 +0.0000000000000000e+00 -2.7921811230915576e-02 -5.2381291265631735e-01 +5.0963850220197985e-03
5.0000000000000003e-02 +8.5269999309575244e+00 +0.0000000000000000e+00 +4.9999999999936436e-02 -2.7922012368763918e-02 -5.2381278347586480e-01 +5.0965883905821057e-03
1.0000000000000001e-01 +8.5269997238301087e+00 +0.0000000000000000e+00 +9.9999999999491523e-02 -2.7922232294160354e-02 -5.2381301284733839e-01 +5.0967939097473170e-03
1.5000000000000002e-01 +8.5269993786176901e+00 +0.0000000000000000e+00 +1.4999999999828389e-01 -2.7922470967718261e-02 -5.2381360000671895e-01 +5.0970015995319314e-03
2.0000000000000001e-01 +8.5269988953201139e+00 +0.0000000000000000e+00 +1.9999999999593224e-01 -2.7922728350052183e-02 -5.2381454419000462e-01 +5.0972114799526435e-03
2.5000000000000000e-01 +8.5269982739371333e+00 +0.0000000000000000e+00 +2.4999999999205516e-01 -2.7923004401777762e-02 -5.2381584463320918e-01 +5.0974235710263471e-03
2.9999999999999999e-01 +8.5269975144684036e+00 +0.0000000000000000e+00 +2.9999999998627130e-01 -2.7923299083511682e-02 -5.2381750057236320e-01 +5.0976378927701212e-03
3.4999999999999998e-01 +8.5269966169134879e+00 +0.0000000000000000e+00 +3.4999999997819936e-01 -2.7923612355871628e-02 -5.2381951124351345e-01 +5.0978544652012549e-03
3.9999999999999997e-01 +8.5269955812718568e+00 +0.0000000000000000e+00 +3.9999999996745794e-01 -2.7923944179476242e-02 -5.2382187588272278e-01 +5.0980733083372393e-03
4.4999999999999996e-01 +8.5269944075428867e+00 +0.0000000000000000e+00 +4.4999999995366563e-01 -2.7924294514945068e-02 -5.2382459372607038e-01 +5.0982944421957624e-03
4.9999999999999994e-01 +8.5269930957258619e+00 +0.0000000000000000e+00 +4.9999999993644106e-01 -2.7924663322898488e-02 -5.2382766400965131e-01 +5.0985178867947300e-03
5.4999999999999993e-01 +8.5269916458199742e+00 +0.0000000000000000e+00 +5.4999999991540283e-01 -2.7925050563957683e-02 -5.2383108596957639e-01 +5.0987436621522482e-03
5.9999999999999998e-01 +8.5269900578243192e+00 +0.0000000000000000e+00 +5.9999999989016961e-01 -2.7925456198744609e-02 -5.2383485884197323e-01 +5.0989717882866442e-03
6.5000000000000002e-01 +8.5269883317379040e+00 +0.0000000000000000e+00 +6.4999999986035994e-01 -2.7925880187881912e-02 -5.2383898186298516e-01 +5.0992022852164596e-03
7.0000000000000007e-01 +8.5269864675596398e+00 +0.0000000000000000e+00 +6.9999999982559247e-01 -2.7926322491992867e-02 -5.2384345426877066e-01 +5.0994351729604500e-03
7.5000000000000011e-01 +8.5269844652883489e+00 +0.0000000000000000e+00 +7.4999999978548570e-01 -2.7926783071701385e-02 -5.2384827529550460e-01 +5.0996704715375899e-03
8.0000000000000016e-01 +8.5269823249227610e+00 +0.0000000000000000e+00 +7.9999999973965819e-01 -2.7927261887631907e-02 -5.2385344417937796e-01 +5.0999082009670852e-03
8.5000000000000020e-01 +8.5269800464615120e+00 +0.0000000000000000e+00 +8.4999999968772844e-01 -2.7927758900409400e-02 -5.2385896015659694e-01 +5.1001483812683612e-03
9.0000000000000024e-01 +8.5269776299031488e+00 +0.0000000000000000e+00 +8.9999999962931498e-01 -2.7928274070659256e-02 -5.2386482246338362e-01 +5.1003910324610765e-03
9.5000000000000029e-01 +8.5269750752461260e+00 +0.0000000000000000e+00 +9.4999999956403636e-01 -2.7928807359007282e-02 -5.2387103033597537e-01 +5.1006361745651180e-03
1.0000000000000002e+00 +8.5269723824888075e+00 +0.0000000000000000e+00 +9.9999999949151108e-01 -2.7929358726079635e-02 -5.2387758301062570e-01 +5.1008838276006049e-03
1.0500000000000003e+00 +8.5269695516294650e+00 +0.0000000000000000e+00 +1.0499999994113576e+00 -2.7929928132502800e-02 -5.2388447972360319e-01 +5.1011340115878975e-03
1.1000000000000003e+00 +8.5269665826662813e+00 +0.0000000000000000e+00 +1.0999999993231941e+00 -2.7930515538903473e-02 -5.2389171971119219e-01 +5.1013867465475879e-03
1.1500000000000004e+00 +8.5269634755973485e+00 +0.0000000000000000e+00 +1.1499999992266394e+00 -2.7931120905908595e-02 -5.2389930220969194e-01 +5.1016420525005195e-03
1.2000000000000004e+00 +8.5269602304206664e+00 +0.0000000000000000e+00 +1.1999999991213117e+00 -2.7931744194145226e-02 -5.2390722645541765e-01 +5.1018999494677727e-03
1.2500000000000004e+00 +8.5269568471341461e+00 +0.0000000000000000e+00 +1.2499999990068296e+00 -2.7932385364240565e-02 -5.2391549168469953e-01 +5.1021604574706773e-03
1.3000000000000005e+00 +8.5269533257356098e+00 +0.0000000000000000e+00 +1.2999999988828113e+00 -2.7933044376821845e-02 -5.2392409713388344e-01 +5.1024235965308118e-03
1.3500000000000005e+00 +8.5269496662227890e+00 +0.0000000000000000e+00 +1.3499999987488751e+00 -2.7933721192516286e-02 -5.2393304203932933e-01 +5.1026893866700099e-03
1.4000000000000006e+00 +8.5269458685933248e+00 +0.0000000000000000e+00 +1.3999999986046392e+00 -2.7934415771951129e-02 -5.2394232563741383e-01 +5.1029578479103591e-03
1.4500000000000006e+00 +8.5269419328447693e+00 +0.0000000000000000e+00 +1.4499999984497220e+00 -2.7935128075753435e-02 -5.2395194716452720e-01 +5.1032290002741955e-03
1.5000000000000007e+00 +8.5269378589745877e+00 +0.0000000000000000e+00 +1.4999999982837420e+00 -2.7935858064550203e-02 -5.2396190585707592e-01 +5.1035028637841330e-03
1.5500000000000007e+00 +8.5269336469801544e+00 +0.0000000000000000e+00 +1.5499999981063171e+00 -2.7936605698968154e-02 -5.2397220095148034e-01 +5.1037794584630290e-03
1.6000000000000008e+00 +8.5269292968587553e+00 +0.0000000000000000e+00 +1.5999999979170656e+00 -2.7937370939633860e-02 -5.2398283168417725e-01 +5.1040588043340229e-03
1.6500000000000008e+00 +8.5269248086075891e+00 +0.0000000000000000e+00 +1.6499999977156057e+00 -2.7938153747173521e-02 -5.2399379729161666e-01 +5.1043409214205108e-03
1.7000000000000008e+00 +8.5269201822237637e+00 +0.0000000000000000e+00 +1.6999999975015554e+00 -2.7938954082213033e-02 -5.2400509701026465e-01 +5.1046258297461631e-03
1.7500000000000009e+00 +8.5269154177043003e+00 +0.0000000000000000e+00 +1.7499999972745330e+00 -2.7939771905377882e-02 -5.2401673007660132e-01 +5.1049135493349248e-03
1.8000000000000009e+00 +8.5269105150461328e+00 +0.0000000000000000e+00 +1.7999999970341565e+00 -2.7940607177293131e-02 -5.2402869572712196e-01 +5.1052041002110160e-03
1.8500000000000010e+00 +8.5269054742461083e+00 +0.0000000000000000e+00 +1.8499999967800440e+00 -2.7941459858583352e-02 -5.2404099319833630e-01 +5.1054975023989320e-03
1.9000000000000010e+00 +8.5269002953009831e+00 +0.0000000000000000e+00 +1.8999999965118133e+00 -2.7942329909872537e-02 -5.2405362172676873e-01 +5.1057937759234548e-03
1.9500000000000011e+00 +8.5268949782074284e+00 +0.0000000000000000e+00 +1.9499999962290826e+00 -2.7943217291784131e-02 -5.2406658054895805e-01 +5.1060929408096476e-03
2.0000000000000009e+00 +8.5268895229620298e+00 +0.0000000000000000e+00 +1.9999999959314696e+00 -2.7944121964940914e-02 -5.2407986890145797e-01 +5.1063950170828591e-03
2.0500000000000007e+00 +8.5268839295612828e+00 +0.0000000000000000e+00 +2.0499999956185921e+00 -2.7945043887533303e-02 -5.2409348581161275e-01 +5.1067000263595617e-03
2.1000000000000005e+00 +8.5268781980015973e+00 +0.0000000000000000e+00 +2.0999999952900685e+00 -2.7945983008024936e-02 -5.2410742946988531e-01 +5.1070079966198546e-03
2.1500000000000004e+00 +8.5268723282792998e+00 +0.0000000000000000e+00 +2.1499999949455164e+00 -2.7946939272448793e-02 -5.2412169785752738e-01 +5.1073189574349269e-03
2.2000000000000002e+00 +8.5268663203906279e+00 +0.0000000000000000e+00 +2.1999999945845534e+00 -2.7947912626839076e-02 -5.2413628895580100e-01 +5.1076329383762231e-03
2.2500000000000000e+00 +8.5268601743317340e+00 +0.0000000000000000e+00 +2.2499999942067972e+00 -2.7948903017231335e-02 -5.2415120074597854e-01 +5.1079499690154457e-03
2.2999999999999998e+00 +8.5268538900986890e+00 +0.0000000000000000e+00 +2.2999999938118654e+00 -2.7949910389662481e-02 -5.2416643120934459e-01 +5.1082700789245577e-03
2.3499999999999996e+00 +8.5268474676874764e+00 +0.0000000000000000e+00 +2.3499999933993756e+00 -2.7950934690170834e-02 -5.2418197832719293e-01 +5.1085932976757658e-03
2.3999999999999995e+00 +8.5268409070939999e+00 +0.0000000000000000e+00 +2.3999999929689459e+00 -2.7951975864796270e-02 -5.2419784008082781e-01 +5.1089196548415499e-03
2.4499999999999993e+00 +8.5268342083140762e+00 +0.0000000000000000e+00 +2.4499999925201936e+00 -2.7953033859580208e-02 -5.2421401445156368e-01 +5.1092491799946344e-03
2.4999999999999991e+00 +8.5268273713434422e+00 +0.0000000000000000e+00 +2.4999999920527358e+00 -2.7954108620565729e-02 -5.2423049942072431e-01 +5.1095819027080066e-03
2.5499999999999989e+00 +8.5268203961777527e+00 +0.0000000000000000e+00 +2.5499999915661906e+00 -2.7955200093797591e-02 -5.2424729296964367e-01 +5.1099178525549167e-03
2.5999999999999988e+00 +8.5268132828125811e+00 +0.0000000000000000e+00 +2.5999999910601752e+00 -2.7956308225322340e-02 -5.2426439307966410e-01 +5.1102570591088619e-03
2.6499999999999986e+00 +8.5268060312434191e+00 +0.0000000000000000e+00 +2.6499999905343068e+00 -2.7957432961188362e-02 -5.2428179773213768e-01 +5.1105995519436041e-03
2.6999999999999984e+00 +8.5267986414656782e+00 +0.0000000000000000e+00 +2.6999999899882026e+00 -2.7958574247445949e-02 -5.2429950490842503e-01 +5.1109453606331687e-03
2.7499999999999982e+00 +8.5267911134746921e+00 +0.0000000000000000e+00 +2.7499999894214802e+00 -2.7959732030147341e-02 -5.2431751258989479e-01 +5.1112945147518320e-03
2.7999999999999980e+00 +8.5267834472657125e+00 +0.0000000000000000e+00 +2.7999999888337568e+00 -2.7960906255346835e-02 -5.2433581875792523e-01 +5.1116470438741374e-03
2.8499999999999979e+00 +8.5267756428339148e+00 +0.0000000000000000e+00 +2.8499999882246492e+00 -2.7962096869100814e-02 -5.2435442139390109e-01 +5.1120029775748779e-03
2.8999999999999977e+00 +8.5267677001743944e+00 +0.0000000000000000e+00 +2.8999999875937750e+00 -2.7963303817467856e-02 -5.2437331847921631e-01 +5.1123623454291181e-03
2.9499999999999975e+00 +8.5267596192821689e+00 +0.0000000000000000e+00 +2.9499999869407509e+00 -2.7964527046508734e-02 -5.2439250799527237e-01 +5.1127251770121769e-03
2.9999999999999973e+00 +8.5267514001521807e+00 +0.0000000000000000e+00 +2.9999999862651938e+00 -2.7965766502286545e-02 -5.2441198792347687e-01 +5.1130915018996375e-03
3.0499999999999972e+00 +8.5267430427792963e+00 +0.0000000000000000e+00 +3.0499999855667213e+00 -2.7967022130866739e-02 -5.2443175624524618e-01 +5.1134613496673356e-03
3.0999999999999970e+00 +8.5267345471583020e+00 +0.0000000000000000e+00 +3.0999999848449495e+00 -2.7968293878317219e-02 -5.2445181094200244e-01 +5.1138347498913819e-03
3.1499999999999968e+00 +8.5267259132839133e+00 +0.0000000000000000e+00 +3.1499999840994959e+00 -2.7969581690708359e-02 -5.2447214999517544e-01 +5.1142117321481394e-03
3.1999999999999966e+00 +8.5267171411507672e+00 +0.0000000000000000e+00 +3.1999999833299766e+00 -2.7970885514113100e-02 -5.2449277138620043e-01 +5.1145923260142367e-03
3.2499999999999964e+00 +8.5267082307534281e+00 +0.0000000000000000e+00 +3.2499999825360089e+00 -2.7972205294607026e-02 -5.2451367309652019e-01 +5.1149765610665632e-03
3.2999999999999963e+00 +8.5266991820863858e+00 +0.0000000000000000e+00 +3.2999999817172090e+00 -2.7973540978268412e-02 -5.2453485310758208e-01 +5.1153644668822705e-03
3.3499999999999961e+00 +8.5266899951440571e+00 +0.0000000000000000e+00 +3.3499999808731937e+00 -2.7974892511178292e-02 -5.2455630940084019e-01 +5.1157560730387772e-03
3.3999999999999959e+00 +8.5266806699207862e+00 +0.0000000000000000e+00 +3.3999999800035798e+00 -2.7976259839420529e-02 -5.2457803995775421e-01 +5.1161514091137648e-03
3.4499999999999957e+00 +8.5266712064108443e+00 +0.0000000000000000e+00 +3.4499999791079836e+00 -2.7977642909081880e-02 -5.2460004275978855e-01 +5.1165505046851731e-03
3.4999999999999956e+00 +8.5266616046084316e+00 +0.0000000000000000e+00 +3.4999999781860214e+00 -2.7979041666252046e-02 -5.2462231578841301e-01 +5.1169533893312084e-03
3.5499999999999954e+00 +8.5266518645076772e+00 +0.0000000000000000e+00 +3.5499999772373099e+00 -2.7980456057023789e-02 -5.2464485702510222e-01 +5.1173600926303466e-03
3.5999999999999952e+00 +8.5266419861026392e+00 +0.0000000000000000e+00 +3.5999999762614650e+00 -2.7981886027492919e-02 -5.2466766445133606e-01 +5.1177706441613230e-03
3.6499999999999950e+00 +8.5266319693873047e+00 +0.0000000000000000e+00 +3.6499999752581029e+00 -2.7983331523758447e-02 -5.2469073604859717e-01 +5.1181850735031384e-03
3.6999999999999948e+00 +8.5266218143555914e+00 +0.0000000000000000e+00 +3.6999999742268401e+00 -2.7984792491922580e-02 -5.2471406979837432e-01 +5.1186034102350614e-03
3.7499999999999947e+00 +8.5266115210013478e+00 +0.0000000000000000e+00 +3.7499999731672928e+00 -2.7986268878090807e-02 -5.2473766368215846e-01 +5.1190256839366254e-03
3.7999999999999945e+00 +8.5266010893183566e+00 +0.0000000000000000e+00 +3.7999999720790769e+00 -2.7987760628372028e-02 -5.2476151568144636e-01 +5.1194519241876272e-03
3.8499999999999943e+00 +8.5265905193003277e+00 +0.0000000000000000e+00 +3.8499999709618082e+00 -2.7989267688878480e-02 -5.2478562377773519e-01 +5.1198821605681318e-03
3.8999999999999941e+00 +8.5265798109409072e+00 +0.0000000000000000e+00 +3.8999999698151027e+00 -2.7990790005725966e-02 -5.2480998595252837e-01 +5.1203164226584739e-03
3.9499999999999940e+00 +8.5265689642336735e+00 +0.0000000000000000e+00 +3.9499999686385761e+00 -2.7992327525033806e-02 -5.2483460018733086e-01 +5.1207547400392503e-03
3.9999999999999938e+00 +8.5265579791721375e+00 +0.0000000000000000e+00 +3.9999999674318443e+00 -2.7993880192924928e-02 -5.2485946446365017e-01 +5.1211971422913272e-03
4.0499999999999936e+00 +8.5265468557497446e+00 +0.0000000000000000e+00 +4.0499999661945232e+00 -2.7995447944786988e-02 -5.2488457666051413e-01 +5.1216436480412087e-03
4.0999999999999934e+00 +8.5265355939598741e+00 +0.0000000000000000e+00 +4.0999999649262282e+00 -2.7997030673053924e-02 -5.2490993424701715e-01 +5.1220942320970454e-03
4.1499999999999932e+00 +8.5265241937958436e+00 +0.0000000000000000e+00 +4.1499999636265752e+00 -2.7998628259420653e-02 -5.2493553458977460e-01 +5.1225488583125853e-03
4.1999999999999931e+00 +8.5265126552509027e+00 +0.0000000000000000e+00 +4.1999999622951787e+00 -2.8000240585581686e-02 -5.2496137505540252e-01 +5.1230074905418335e-03
4.2499999999999929e+00 +8.5265009783182411e+00 +0.0000000000000000e+00 +4.2499999609316550e+00 -2.8001867533231032e-02 -5.2498745301052097e-01 +5.1234700926390654e-03
4.2999999999999927e+00 +8.5264891629909823e+00 +0.0000000000000000e+00 +4.2999999595356195e+00 -2.8003508984062200e-02 -5.2501376582175074e-01 +5.1239366284588127e-03
4.3499999999999925e+00 +8.5264772092621914e+00 +0.0000000000000000e+00 +4.3499999581066868e+00 -2.8005164819768096e-02 -5.2504031085571579e-01 +5.1244070618558877e-03
4.3999999999999924e+00 +8.5264651171248715e+00 +0.0000000000000000e+00 +4.3999999566444732e+00 -2.8006834922041004e-02 -5.2506708547904068e-01 +5.1248813566853501e-03
4.4499999999999922e+00 +8.5264528865719633e+00 +0.0000000000000000e+00 +4.4499999551485931e+00 -2.8008519172572462e-02 -5.2509408705835203e-01 +5.1253594768025310e-03
4.4999999999999920e+00 +8.5264405175963507e+00 +0.0000000000000000e+00 +4.4999999536186612e+00 -2.8010217453053259e-02 -5.2512131296027775e-01 +5.1258413860630339e-03
4.5499999999999918e+00 +8.5264280101908554e+00 +0.0000000000000000e+00 +4.5499999520542929e+00 -2.8011929645173357e-02 -5.2514876055144688e-01 +5.1263270483227191e-03
4.5999999999999917e+00 +8.5264153643482405e+00 +0.0000000000000000e+00 +4.5999999504551035e+00 -2.8013655630621831e-02 -5.2517642719848967e-01 +5.1268164274377182e-03
4.6499999999999915e+00 +8.5264025800612160e+00 +0.0000000000000000e+00 +4.6499999488207076e+00 -2.8015395291086789e-02 -5.2520431026803560e-01 +5.1273094872644216e-03
4.6999999999999913e+00 +8.5263896573224294e+00 +0.0000000000000000e+00 +4.6999999471507197e+00 -2.8017148508255336e-02 -5.2523240712671682e-01 +5.1278061916595003e-03
4.7499999999999911e+00 +8.5263765961244751e+00 +0.0000000000000000e+00 +4.7499999454447543e+00 -2.8018915163813496e-02 -5.2526071514116324e-01 +5.1283065044798728e-03
4.7999999999999909e+00 +8.5263633964598906e+00 +0.0000000000000000e+00 +4.7999999437024270e+00 -2.8020695139446189e-02 -5.2528923167800690e-01 +5.1288103895827421e-03
4.8499999999999908e+00 +8.5263500583211584e+00 +0.0000000000000000e+00 +4.8499999419233513e+00 -2.8022488316837117e-02 -5.2531795410387838e-01 +5.1293178108255651e-03
4.8999999999999906e+00 +8.5263365817007060e+00 +0.0000000000000000e+00 +4.8999999401071426e+00 -2.8024294577668748e-02 -5.2534687978540862e-01 +5.1298287320660739e-03
4.9499999999999904e+00 +8.5263229665909108e+00 +0.0000000000000000e+00 +4.9499999382534146e+00 -2.8026113803622198e-02 -5.2537600608922741e-01 +5.1303431171622598e-03
4.9999999999999902e+00 +8.5263092129840921e+00 +0.0000000000000000e+00 +4.9999999363617817e+00 -2.8027945876377268e-02 -5.2540533038196413e-01 +5.1308609299723961e-03
5.0499999999999901e+00 +8.5262953208725225e+00 +0.0000000000000000e+00 +5.0499999344318578e+00 -2.8029790677612288e-02 -5.2543485003024637e-01 +5.1313821343550040e-03
5.0999999999999899e+00 +8.5262812902484182e+00 +0.0000000000000000e+00 +5.0999999324632572e+00 -2.8031648089004085e-02 -5.2546456240070161e-01 +5.1319066941688928e-03
5.1499999999999897e+00 +8.5262671211039471e+00 +0.0000000000000000e+00 +5.1499999304555946e+00 -2.8033517992227967e-02 -5.2549446485995499e-01 +5.1324345732731216e-03
5.1999999999999895e+00 +8.5262528134312277e+00 +0.0000000000000000e+00 +5.1999999284084835e+00 -2.8035400268957605e-02 -5.2552455477463023e-01 +5.1329657355270314e-03
5.2499999999999893e+00 +8.5262383672223265e+00 +0.0000000000000000e+00 +5.2499999263215376e+00 -2.8037294800864969e-02 -5.2555482951134913e-01 +5.1335001447902267e-03
5.2999999999999892e+00 +8.5262237824692644e+00 +0.0000000000000000e+00 +5.2999999241943714e+00 -2.8039201469620363e-02 -5.2558528643673186e-01 +5.1340377649225820e-03
5.3499999999999890e+00 +8.5262090591640121e+00 +0.0000000000000000e+00 +5.3499999220265986e+00 -2.8041120156892221e-02 -5.2561592291739556e-01 +5.1345785597842353e-03
5.3999999999999888e+00 +8.5261941972984925e+00 +0.0000000000000000e+00 +5.3999999198178319e+00 -2.8043050744347157e-02 -5.2564673631995507e-01 +5.1351224932356049e-03
5.4499999999999886e+00 +8.5261791968645841e+00 +0.0000000000000000e+00 +5.4499999175676859e+00 -2.8044993113649865e-02 -5.2567772401102286e-01 +5.1356695291373692e-03
5.4999999999999885e+00 +8.5261640578541176e+00 +0.0000000000000000e+00 +5.4999999152757733e+00 -2.8046947146463056e-02 -5.2570888335720789e-01 +5.1362196313504806e-03
5.5499999999999883e+00 +8.5261487802588789e+00 +0.0000000000000000e+00 +5.5499999129417077e+00 -2.8048912724447379e-02 -5.2574021172511665e-01 +5.1367727637361580e-03
5.5999999999999881e+00 +8.5261333640706116e+00 +0.0000000000000000e+00 +5.5999999105651028e+00 -2.8050889729261442e-02 -5.2577170648135141e-01 +5.1373288901558952e-03
5.6499999999999879e+00 +8.5261178092810113e+00 +0.0000000000000000e+00 +5.6499999081455723e+00 -2.8052878042561638e-02 -5.2580336499251168e-01 +5.1378879744714539e-03
5.6999999999999877e+00 +8.5261021158817325e+00 +0.0000000000000000e+00 +5.6999999056827280e+00 -2.8054877546002173e-02 -5.2583518462519285e-01 +5.1384499805448647e-03
5.7499999999999876e+00 +8.5260862838643874e+00 +0.0000000000000000e+00 +5.7499999031761844e+00 -2.8056888121234958e-02 -5.2586716274598577e-01 +5.1390148722384342e-03
5.7999999999999874e+00 +8.5260703132205471e+00 +0.0000000000000000e+00 +5.7999999006255534e+00 -2.8058909649909550e-02 -5.2589929672147817e-01 +5.1395826134147350e-03
5.8499999999999872e+00 +8.5260542039417402e+00 +0.0000000000000000e+00 +5.8499998980304486e+00 -2.8060942013673127e-02 -5.2593158391825234e-01 +5.1401531679366123e-03
5.8999999999999870e+00 +8.5260379560194561e+00 +0.0000000000000000e+00 +5.8999998953904829e+00 -2.8062985094170392e-02 -5.2596402170288648e-01 +5.1407264996671826e-03
