# multipoles
# s[mm] polynom_b[n=0][T/m^n] polynom_b[n=1][T/m^n] polynom_b[n=2][T/m^n] polynom_b[n=3][T/m^n] polynom_b[n=4][T/m^n] polynom_b[n=5][T/m^n] polynom_b[n=6][T/m^n] 
-0.0000000000000000e+00 -5.7895835880650504e-01 +7.6054782136210504e+00 +6.1502990466075511e+00 -2.7321230423940528e+00 +1.1313277965067718e+03 -4.1283758547127486e+05 -9.6311467598723937e+06 
-5.0000000000000003e-02 -5.7895693389191749e-01 +7.6053508237299701e+00 +6.1541998881263780e+00 -2.9810776560977339e+00 +1.1336097184360092e+03 -4.1080939853071031e+05 -9.7137831073902696e+06 
-1.0000000000000001e-01 -5.7895588277418508e-01 +7.6052430210046653e+00 +6.1578734294539474e+00 -3.2130801177910762e+00 +1.1296006640479604e+03 -4.0881185723751149e+05 -9.7569450937189497e+06 
-1.4999999999999999e-01 -5.7895520499168585e-01 +7.6051547891294637e+00 +6.1613135050581258e+00 -3.4281607389114459e+00 +1.1194828842511074e+03 -4.0684728570972884e+05 -9.7617073303788789e+06 
-2.0000000000000001e-01 -5.7895490008287687e-01 +7.6050861117902082e+00 +6.1645139486830276e+00 -3.6263498752385068e+00 +1.1034386434180410e+03 -4.0491800765946670e+05 -9.7291444974044319e+06 
-2.5000000000000000e-01 -5.7895496758610787e-01 +7.6050369726733500e+00 +6.1674685911911045e+00 -3.8076778633974442e+00 +1.0816502865408204e+03 -4.0302634697120480e+05 -9.6603318331551962e+06 
-2.9999999999999999e-01 -5.7895540703985582e-01 +7.6050073554660749e+00 +6.1701712685278709e+00 -3.9721750300583563e+00 +1.0543000196696314e+03 -4.0117462767252274e+05 -9.5563436329055019e+06 
-3.4999999999999998e-01 -5.7895621798257890e-01 +7.6049972438567188e+00 +6.1726158106249338e+00 -4.1198717360449280e+00 +1.0215702072163489e+03 -3.9936517343129031e+05 -9.4182552453590408e+06 
-4.0000000000000002e-01 -5.7895739995270268e-01 +7.6050066215326835e+00 +6.1747960533405877e+00 -4.2507982574471042e+00 +9.8364305478752135e+02 -3.9760030865779094e+05 -9.2471409571660422e+06 
-4.5000000000000001e-01 -5.7895895248872797e-01 +7.6050354721834790e+00 +6.1767058281912490e+00 -4.3649849229397413e+00 +9.4070088556493954e+02 -3.9588235735644348e+05 -9.0440758508635964e+06 
-5.0000000000000000e-01 -5.7896087512915062e-01 +7.6050837794940165e+00 +6.1783389677317153e+00 -4.4624618450176294e+00 +8.9292599287235441e+02 -3.9421364529494225e+05 -8.8101347992922589e+06 
-5.5000000000000004e-01 -5.7896316741246079e-01 +7.6051515271615386e+00 +6.1796893058341515e+00 -4.5432596088633357e+00 +8.4050063094140023e+02 -3.9259649435231503e+05 -8.5463924015747644e+06 
-5.9999999999999998e-01 -5.7896582887723513e-01 +7.6052386988700977e+00 +6.1807506739211417e+00 -4.6074082310599849e+00 +7.8360712333763604e+02 -3.9103323110186611e+05 -8.2539237388826916e+06 
-6.5000000000000002e-01 -5.7896885906200524e-01 +7.6053452783132576e+00 +6.1815169070879525e+00 -4.6549380736852601e+00 +7.2242769121242907e+02 -3.8952617930377682e+05 -7.9338031869374849e+06 
-6.9999999999999996e-01 -5.7897225750529147e-01 +7.6054712491833385e+00 +6.1819818359672585e+00 -4.6858794290556780e+00 +6.5714467425261603e+02 -3.8807766326254990e+05 -7.5871059163999427e+06 
-7.5000000000000000e-01 -5.7897602374570056e-01 +7.6056165951712202e+00 +6.1821392935866601e+00 -4.7002624956097820e+00 +5.8794034953054791e+02 -3.8669000807756453e+05 -7.2149066859157402e+06 
-8.0000000000000004e-01 -5.7898015732183883e-01 +7.6057812999716807e+00 +6.1819831148125788e+00 -4.6981175930769554e+00 +5.1499694397050507e+02 -3.8536553788765467e+05 -6.8182799123064205e+06 
-8.4999999999999998e-01 -5.7898465777229269e-01 +7.6059653472780120e+00 +6.1815071284132852e+00 -4.6794749653037178e+00 +4.3849684489556586e+02 -3.8410657740074821e+05 -6.3983010794550022e+06 
-9.0000000000000002e-01 -5.7898952463570652e-01 +7.6061687207823905e+00 +6.1807051703920317e+00 -4.6443647633707252e+00 +3.5862224565312431e+02 -3.8291545215318142e+05 -5.9560443661528854e+06 
-9.4999999999999996e-01 -5.7899475745068352e-01 +7.6063914041828058e+00 +6.1795710713081231e+00 -4.5928173484534938e+00 +2.7555548930319844e+02 -3.8179448595768498e+05 -5.4925849771863613e+06 
-1.0000000000000000e+00 -5.7900035575594533e-01 +7.6066333811743716e+00 +6.1780986655739323e+00 -4.5248629453300078e+00 +1.8947880836395319e+02 -3.8074600373016071e+05 -5.0089973417607266e+06 
-1.0500000000000000e+00 -5.7900631909012956e-01 +7.6068946354540925e+00 +6.1762817843746909e+00 -4.4405318151867208e+00 +1.0057452482097125e+02 -3.7977233010712231e+05 -4.5063565036935806e+06 
-1.1000000000000001e+00 -5.7901264699189348e-01 +7.6071751507177492e+00 +6.1741142591852007e+00 -4.3398541404694617e+00 +9.0249557954011550e+00 -3.7887579038974602e+05 -3.9857374862759812e+06 
-1.1499999999999999e+00 -5.7901933899997338e-01 +7.6074749106629982e+00 +6.1715899235119096e+00 -4.2228601541357884e+00 -8.4987644244264345e+01 -3.7805870946836047e+05 -3.4482148577888641e+06 
-1.2000000000000000e+00 -5.7902639465308636e-01 +7.6077938989898461e+00 +6.1687026092302908e+00 -4.0895801498205575e+00 -1.8128097391333759e+02 -3.7732341176626872e+05 -2.8948635150587331e+06 
-1.2500000000000000e+00 -5.7903381348996963e-01 +7.6081320993992492e+00 +6.1654461484503980e+00 -3.9400444432610784e+00 -2.7967273273374116e+02 -3.7667222147523676e+05 -2.3267583699688460e+06 
-1.3000000000000000e+00 -5.7904159504937625e-01 +7.6084894955886417e+00 +6.1618143739965783e+00 -3.7742831615301147e+00 -3.7998064943045506e+02 -3.7610746442685276e+05 -1.7449740956892881e+06 
-1.3500000000000001e+00 -5.7904973887006195e-01 +7.6088660712602048e+00 +6.1578011159586437e+00 -3.5923266103379214e+00 -4.8202237347949603e+02 -3.7563146492617921e+05 -1.1505859243683103e+06 
-1.3999999999999999e+00 -5.7905824449079812e-01 +7.6092618101172205e+00 +6.1534002092354649e+00 -3.3942050975679772e+00 -5.8561568469207612e+02 -3.7524654732465453e+05 -5.4466820219021733e+05 
-1.4500000000000000e+00 -5.7906711145042833e-01 +7.6096766958608493e+00 +6.1486054841136815e+00 -3.1799488350667096e+00 -6.9057824000624203e+02 -3.7495503672801139e+05 +7.1703901170733341e+04 
-1.5000000000000000e+00 -5.7907633928770630e-01 +7.6101107121939906e+00 +6.1434107717898661e+00 -2.9495880590240127e+00 -7.9672772165516915e+02 -3.7475925808497064e+05 +6.9745539052315685e+05 
-1.5500000000000000e+00 -5.7908592754149268e-01 +7.6105638428218407e+00 +6.1378099050031159e+00 -2.7031530793977923e+00 -9.0388185340047244e+02 -3.7466153575278819e+05 +1.3315115501408423e+06 
-1.6000000000000001e+00 -5.7909587575063193e-01 +7.6110360714501457e+00 +6.1317967150498278e+00 -2.4406742050805073e+00 -1.0118583157707918e+03 -3.7466419407422311e+05 +1.9727973618731457e+06 
-1.6499999999999999e+00 -5.7910618345397746e-01 +7.6115273817857538e+00 +6.1253650327373519e+00 -2.1621817551761993e+00 -1.1204747822282686e+03 -3.7476955735489720e+05 +2.6202377813951760e+06 
-1.7000000000000000e+00 -5.7911685019040993e-01 +7.6120377575319820e+00 +6.1185086908113995e+00 -1.8677058811131333e+00 -1.2295489773886045e+03 -3.7497995127435355e+05 +3.2727581060633385e+06 
-1.7500000000000000e+00 -5.7912787549882128e-01 +7.6125671824007668e+00 +6.1112215205084919e+00 -1.5572770535697549e+00 -1.3388985799680036e+03 -3.7529769892139046e+05 +3.9292833097694125e+06 
-1.8000000000000000e+00 -5.7913925891808382e-01 +7.6131156400968241e+00 +6.1034973528277963e+00 -1.2309254260489111e+00 -1.4483412702626597e+03 -3.7572512598136725e+05 +4.5887384037592616e+06 
-1.8500000000000001e+00 -5.7915099998714092e-01 +7.6136831143320336e+00 +6.0953300178894976e+00 -8.8868142375241044e-01 -1.5576946986826449e+03 -3.7626455590639164e+05 +5.2500481803050125e+06 
-1.8999999999999999e+00 -5.7916309824497147e-01 +7.6142695888166649e+00 +6.0867133491568239e+00 -5.3057537399209587e-01 -1.6667766054429762e+03 -3.7691831298810028e+05 +5.9121380384742329e+06 
-1.9500000000000000e+00 -5.7917555323045522e-01 +7.6148750472626867e+00 +6.0776411756635538e+00 -1.5663764349930093e-01 -1.7754046191323889e+03 -3.7768872120607970e+05 +6.5739326532101668e+06 
-2.0000000000000000e+00 -5.7918836448260114e-01 +7.6154994733800585e+00 +6.0681073302703776e+00 +2.3310151101394425e-01 -1.8833964589348266e+03 -3.7857810547533329e+05 +7.2343572680573100e+06 
-2.0499999999999998e+00 -5.7920153130918128e-01 +7.6161428330489080e+00 +6.0581067810067584e+00 +6.3846792008488817e-01 -1.9905831107188587e+03 -3.7958723972158850e+05 +7.8923923977177944e+06 
-2.1000000000000001e+00 -5.7921505209050461e-01 +7.6168050210968730e+00 +6.0476392652757607e+00 +1.0587006205823974e+00 -2.0968473955546042e+03 -3.8071058662371157e+05 +8.5472153153789006e+06 
-2.1499999999999999e+00 -5.7922892497415823e-01 +7.6174859114452511e+00 +6.0367059249054416e+00 +1.4928839506940053e+00 -2.2020842913478368e+03 -3.8194099712402280e+05 +9.1980435425507184e+06 
-2.2000000000000002e+00 -5.7924314810785815e-01 +7.6181853780168396e+00 +6.0253079074298590e+00 +1.9401022310825988e+00 -2.3061889299868690e+03 -3.8327132216958550e+05 +9.8440956467207298e+06 
-2.2500000000000000e+00 -5.7925771963928485e-01 +7.6189032947318855e+00 +6.0134463572643879e+00 +2.3994398786404640e+00 -2.4090563588412547e+03 -3.8469441338228527e+05 +1.0484589617087165e+07 
-2.2999999999999998e+00 -5.7927263771617532e-01 +7.6196395355154189e+00 +6.0011224214457712e+00 +2.8699811384994316e+00 -2.5105816961906453e+03 -3.8620312099523068e+05 +1.1118743924146177e+07 
-2.3500000000000001e+00 -5.7928790048617174e-01 +7.6203939742904891e+00 +5.9883372429829773e+00 +3.3508103448126105e+00 -2.6106599505513932e+03 -3.8779029591519223e+05 +1.1745776291612932e+07 
-2.3999999999999999e+00 -5.7930350609703973e-01 +7.6211664849825009e+00 +5.9750919699288723e+00 +3.8410117739322880e+00 -2.7091862645602318e+03 -3.8944878867003869e+05 +1.2364905337063083e+07 
-2.4500000000000002e+00 -5.7931945269646734e-01 +7.6219569415140036e+00 +5.9613877445339218e+00 +4.3396698125698059e+00 -2.8060556289056353e+03 -3.9117145058316132e+05 +1.2975348673225885e+07 
-2.5000000000000000e+00 -5.7933573843227382e-01 +7.6227652178146590e+00 +5.9472257154534471e+00 +4.8458685766725011e+00 -2.9011632016105950e+03 -3.9295113078400999e+05 +1.3576325015762255e+07 
-2.5499999999999998e+00 -5.7935236145218094e-01 +7.6235911878059763e+00 +5.9326070266707358e+00 +5.3586925297205275e+00 -2.9944040132438518e+03 -3.9478068122424011e+05 +1.4167052214387337e+07 
-2.6000000000000001e+00 -5.7936931990393392e-01 +7.6244347254181628e+00 +5.9175328247190322e+00 +5.8772257918066400e+00 -3.0856731676345521e+03 -3.9665295102332713e+05 +1.4746748629608529e+07 
-2.6499999999999999e+00 -5.7938661193536345e-01 +7.6252957045760112e+00 +5.9020042543038063e+00 +6.4005527163635563e+00 -3.1748657114898942e+03 -3.9856079120909882e+05 +1.5314632202225551e+07 
-2.7000000000000002e+00 -5.7940423569420241e-01 +7.6261739992094020e+00 +5.8860224611429235e+00 +6.9277574639767652e+00 -3.2618767266196264e+03 -4.0049705119527079e+05 +1.5869921139946338e+07 
-2.7500000000000000e+00 -5.7942218932829714e-01 +7.6270694832440267e+00 +5.8695885937614953e+00 +7.4579243700214821e+00 -3.3466013605850085e+03 -4.0245458180954872e+05 +1.6411834053770002e+07 
-2.7999999999999998e+00 -5.7944047098546703e-01 +7.6279820306108741e+00 +5.8527037948508349e+00 +7.9901375738899034e+00 -3.4289346108328914e+03 -4.0442623228418530e+05 +1.6939588565560114e+07 
-2.8500000000000001e+00 -5.7945907881349912e-01 +7.6289115152392410e+00 +5.8353692137887734e+00 +8.5234812848403152e+00 -3.5087716487631205e+03 -4.0640485235271370e+05 +1.7452403447611794e+07 
-2.8999999999999999e+00 -5.7947801096024165e-01 +7.6298578110577555e+00 +5.8175859948628643e+00 +9.0570397495041917e+00 -3.5860075116048342e+03 -4.0838329205494554e+05 +1.7949496573353518e+07 
-2.9500000000000002e+00 -5.7949726557353698e-01 +7.6308207919988114e+00 +5.7993552839242737e+00 +9.5898970761542213e+00 -3.6605372724002718e+03 -4.1035440028698806e+05 +1.8430086031626377e+07 
-3.0000000000000000e+00 -5.7951684080124732e-01 +7.6318003319905330e+00 +5.7806782292100820e+00 +1.0121137550909909e+01 -3.7322560712457189e+03 -4.1231102737256029e+05 +1.8893390372901853e+07 
-3.0499999999999998e+00 -5.7953673479120105e-01 +7.6327963049661216e+00 +5.7615559762212900e+00 +1.0649845257987955e+01 -3.8010589744333402e+03 -4.1424602193238569e+05 +1.9338627645752717e+07 
-3.1000000000000001e+00 -5.7955694569132699e-01 +7.6338085848571513e+00 +5.7419896718414751e+00 +1.1175104356339766e+01 -3.8668410841813197e+03 -4.1615223320471466e+05 +1.9765016135798212e+07 
-3.1499999999999999e+00 -5.7957747164948537e-01 +7.6348370455950638e+00 +5.7219804637950524e+00 +1.1695999013144233e+01 -3.9294975194140084e+03 -4.1802251043350151e+05 +2.0171774212488659e+07 
-3.2000000000000002e+00 -5.7959831081354829e-01 +7.6358815611142630e+00 +5.7015294959904406e+00 +1.2211613286489445e+01 -3.9889233015098921e+03 -4.1984970196907350e+05 +2.0558119604590077e+07 
-3.2500000000000000e+00 -5.7961946133141506e-01 +7.6369420053463122e+00 +5.6806379201303594e+00 +1.2721031350733037e+01 -4.0450136558146651e+03 -4.2162665706896858e+05 +2.0923271393932041e+07 
-3.2999999999999998e+00 -5.7964092135100953e-01 +7.6380182522261864e+00 +5.6593068814631815e+00 +1.3223337250955135e+01 -4.0976636371242366e+03 -4.2334622392513859e+05 +2.1266447519221742e+07 
-3.3500000000000001e+00 -5.7966268902027140e-01 +7.6391101756856390e+00 +5.6375375260262102e+00 +1.3717615150622159e+01 -4.1467683134037343e+03 -4.2500125161354628e+05 +2.1586865973914523e+07 
-3.3999999999999999e+00 -5.7968476248708045e-01 +7.6402176496636462e+00 +5.6153310032384276e+00 +1.4202948942436056e+01 -4.1922228499469356e+03 -4.2658458701620868e+05 +2.1883745430244293e+07 
-3.4500000000000002e+00 -5.7970713989940093e-01 +7.6413405480895564e+00 +5.5926884612117478e+00 +1.4678422906056001e+01 -4.2339223714231048e+03 -4.2808908014775091e+05 +2.2156304260262743e+07 
-3.5000000000000000e+00 -5.7972981940517587e-01 +7.6424787449033422e+00 +5.5696110475389160e+00 +1.5143120876956019e+01 -4.2717619862011552e+03 -4.2950757727537164e+05 +2.2403760716834169e+07 
-3.5499999999999998e+00 -5.7975279915234446e-01 +7.6436321140382049e+00 +5.5460999085731233e+00 +1.5596126989422540e+01 -4.3056367703620581e+03 -4.3083292718852998e+05 +2.2625332831289507e+07 
-3.6000000000000001e+00 -5.7977607728890435e-01 +7.6448005294309480e+00 +5.5221561946445750e+00 +1.6036525213397269e+01 -4.3354419062182606e+03 -4.3205797720381169e+05 +2.2820239347051550e+07 
-3.6499999999999999e+00 -5.7979965196273575e-01 +7.6459838650189029e+00 +5.4977810535126235e+00 +1.6463399513705902e+01 -4.3610725030283056e+03 -4.3317557462337159e+05 +2.2987698497645032e+07 
-3.6999999999999900e+00 -5.7982352132190051e-01 +7.6471819947391815e+00 +5.4729756344109717e+00 +1.6875833840292604e+01 -4.3824237060960068e+03 -4.3417856651402730e+05 +2.3126928740193900e+07 
-3.7499999999999898e+00 -5.7984768351434324e-01 +7.6483947925255391e+00 +5.4477410849372854e+00 +1.7272912298585627e+01 -4.3993906215655243e+03 -4.3505980124629132e+05 +2.3237148282468624e+07 
-3.7999999999999901e+00 -5.7987213668803483e-01 +7.6496221323205909e+00 +5.4220785555079996e+00 +1.7653718628498773e+01 -4.4118684227850154e+03 -4.3581212413688819e+05 +2.3317575749672309e+07 
-3.8499999999999899e+00 -5.7989687899103126e-01 +7.6508638880586961e+00 +5.3959891965919171e+00 +1.8017336888309551e+01 -4.4197522895514176e+03 -4.3642838303411257e+05 +2.3367429824919291e+07 
-3.8999999999999901e+00 -5.7992190857126047e-01 +7.6521199336800469e+00 +5.3694741541090991e+00 +1.8362850912062964e+01 -4.4229372726229849e+03 -4.3690142394526507e+05 +2.3385928290454667e+07 
-3.9499999999999900e+00 -5.7994722357680306e-01 +7.6533901431233478e+00 +5.3425345804229796e+00 +1.8689344584426284e+01 -4.4213185947417651e+03 -4.3722409324296552e+05 +2.3372290080512505e+07 
-3.9999999999999898e+00 -5.7997282215561885e-01 +7.6546743903257273e+00 +5.3151716255104189e+00 +1.8995901854976282e+01 -4.4147914143213302e+03 -4.3738923772129382e+05 +2.3325733696257953e+07 
-4.0499999999999901e+00 -5.7999870229503037e-01 +7.6559725409050134e+00 +5.2873881853056712e+00 +1.9281841041982855e+01 -4.4032978623300087e+03 -4.3739165489728068e+05 +2.3245812554902174e+07 
-4.0999999999999899e+00 -5.8002486133949993e-01 +7.6572844169401559e+00 +5.2591946584900704e+00 +1.9547470501262687e+01 -4.3869809877500147e+03 -4.3723448892899230e+05 +2.3133528661950942e+07 
-4.1499999999999897e+00 -5.8005129647271114e-01 +7.6586098270398173e+00 +5.2306034903457546e+00 +1.9793359705252271e+01 -4.3660377143774003e+03 -4.3692312020262884e+05 +2.2990276711683664e+07 
-4.1999999999999904e+00 -5.8007800487849548e-01 +7.6599485798111582e+00 +5.2016271219462933e+00 +2.0020078154504571e+01 -4.3406648480314780e+03 -4.3646292940456234e+05 +2.2817450598816659e+07 
-4.2499999999999902e+00 -5.8010498374059105e-01 +7.6613004838576551e+00 +5.1722779972600916e+00 +2.0228195523045475e+01 -4.3110592739058957e+03 -4.3585929875312332e+05 +2.2616444762165438e+07 
-4.2999999999999901e+00 -5.8013223024276950e-01 +7.6626653477890576e+00 +5.1425685608856169e+00 +2.0418281209203961e+01 -4.2774178959740457e+03 -4.3511760818294337e+05 +2.2388653779517818e+07 
-4.3499999999999899e+00 -5.8015974156878591e-01 +7.6640429802089951e+00 +5.1125112542029605e+00 +2.0590904859683928e+01 -4.2399375298102987e+03 -4.3424323970943788e+05 +2.2135471627589405e+07 
-4.3999999999999897e+00 -5.8018751490238907e-01 +7.6654331897244399e+00 +5.0821185216989537e+00 +2.0746635984723099e+01 -4.1988150740427718e+03 -4.3324157427299285e+05 +2.1858292847154796e+07 
-4.4499999999999904e+00 -5.8021554742739512e-01 +7.6668357849387307e+00 +5.0514028055023301e+00 +2.0886044241860144e+01 -4.1542473692608928e+03 -4.3211799409377528e+05 +2.1558511609886084e+07 
-4.4999999999999902e+00 -5.8024383632755372e-01 +7.6682505744578471e+00 +5.0203765499683914e+00 +2.1009699157460773e+01 -4.1064313119068911e+03 -4.3087788025851222e+05 +2.1237522455186509e+07 
-4.5499999999999901e+00 -5.8027237878660121e-01 +7.6696773668839109e+00 +4.9890521971701167e+00 +2.1118170431311160e+01 -4.0555637384632983e+03 -4.2952661540740979e+05 +2.0896719524777446e+07 
-4.5999999999999899e+00 -5.8030117198833331e-01 +7.6711159708230277e+00 +4.9574421892139444e+00 +2.1212027590382547e+01 -4.0018414839707866e+03 -4.2806958080226299e+05 +2.0537496950968493e+07 
-4.6499999999999897e+00 -5.8033021311653010e-01 +7.6725661948771444e+00 +4.9255589712487469e+00 +2.1291840315199696e+01 -3.9454614726134205e+03 -4.2651215895477147e+05 +2.0161249495706178e+07 
-4.6999999999999904e+00 -5.8035949935498055e-01 +7.6740278476473440e+00 +4.8934149840162595e+00 +2.1358178312430002e+01 -3.8866205029069092e+03 -4.2485973264123604e+05 +1.9769371052696973e+07 
-4.7499999999999902e+00 -5.8038902788741031e-01 +7.6755007377403039e+00 +4.8610226724760741e+00 +2.1411611077349622e+01 -3.8255154925058960e+03 -4.2311768302404531e+05 +1.9363256346314400e+07 
-4.7999999999999901e+00 -5.8041879589760670e-01 +7.6769846737530409e+00 +4.8283944779690087e+00 +2.1452708466929465e+01 -3.7623432633500634e+03 -4.2129139419525047e+05 +1.8944299465379246e+07 
-4.8499999999999899e+00 -5.8044880056932069e-01 +7.6784794642882988e+00 +4.7955428445961097e+00 +2.1482040099613958e+01 -3.6973007057329210e+03 -4.1938624835309002e+05 +1.8513894943000123e+07 
-4.8999999999999897e+00 -5.8047903908639109e-01 +7.6799849179451964e+00 +4.7624802129758779e+00 +2.1500175746110912e+01 -3.6305846225804030e+03 -4.1740762905291922e+05 +1.8073436753980614e+07 
-4.9499999999999904e+00 -5.8050950863249129e-01 +7.6815008433267504e+00 +4.7292190289030041e+00 +2.1507684991368798e+01 -3.5623919532265595e+03 -4.1536091828681121e+05 +1.7624319785981346e+07 
-4.9999999999999902e+00 -5.8054020639144843e-01 +7.6830270490277108e+00 +4.6957717315043004e+00 +2.1505137763436821e+01 -3.4929194624751367e+03 -4.1325150099739822e+05 +1.7167937774825081e+07 
-5.0499999999999901e+00 -5.8057112954944157e-01 +7.6845633357336229e+00 +4.6621511579032688e+00 +2.1493096115372374e+01 -3.4223640538701638e+03 -4.1108476220065646e+05 +1.6705685914517036e+07 
