# multipoles
# s[mm] polynom_b[n=0][T/m^n] polynom_b[n=1][T/m^n] polynom_b[n=2][T/m^n] polynom_b[n=3][T/m^n] polynom_b[n=4][T/m^n] polynom_b[n=5][T/m^n] polynom_b[n=6][T/m^n] 
+0.0000000000000000e+00 -5.5219471748926430e-01 +7.2243960015112192e+00 +5.9056423901959976e+00 +4.5000164668569262e+01 -7.9261923201526349e+02 -6.6532714275310596e+05 -5.6765702758549908e+06 
+5.0000000000000003e-02 -5.5219427137902133e-01 +7.2243830658489809e+00 +5.9074270035108958e+00 +4.5290674978065539e+01 -8.4352335245316976e+02 -6.6788287692948023e+05 -5.3423915516598737e+06 
+1.0000000000000001e-01 -5.5219421078137831e-01 +7.2243910818150923e+00 +5.9091838433968773e+00 +4.5572893982612300e+01 -9.0507773324693960e+02 -6.7033082264735014e+05 -4.9431394173196023e+06 
+1.5000000000000002e-01 -5.5219453490466486e-01 +7.2244200046998710e+00 +5.9108999069746968e+00 +4.5846599589338688e+01 -9.7692773362035575e+02 -6.7266967521404743e+05 -4.4809391287165396e+06 
+2.0000000000000001e-01 -5.5219524295724787e-01 +7.2244697898012795e+00 +5.9125621951058047e+00 +4.6111569420522393e+01 -1.0587188151484579e+03 -6.7489812760487886e+05 -3.9579152494752686e+06 
+2.5000000000000000e-01 -5.5219633414749902e-01 +7.2245403924109670e+00 +5.9141577059207400e+00 +4.6367581377330595e+01 -1.1500963605928775e+03 -6.7701487503701728e+05 -3.3761928955990463e+06 
+2.9999999999999999e-01 -5.5219780768379778e-01 +7.2246317678230447e+00 +5.9156734361123640e+00 +4.6614413295205026e+01 -1.2507057184703617e+03 -6.7901861221803003e+05 -2.7378973983242456e+06 
+3.4999999999999998e-01 -5.5219966277457488e-01 +7.2247438713345451e+00 +5.9170963883124870e+00 +4.6851842927690733e+01 -1.3601923976031494e+03 -6.8090803321775747e+05 -2.0451530067215669e+06 
+3.9999999999999997e-01 -5.5220189862825131e-01 +7.2248766582366590e+00 +5.9184135601009205e+00 +4.7079648284984991e+01 -1.4782017661278487e+03 -6.8268183417182940e+05 -1.3000849403428608e+06 
+4.4999999999999996e-01 -5.5220451445328134e-01 +7.2250300838286954e+00 +5.9196119521555204e+00 +4.7297607088264911e+01 -1.6043792798122961e+03 -6.8433870890376461e+05 -5.0481781076941913e+05 
+4.9999999999999994e-01 -5.5220750945811403e-01 +7.2252041034041845e+00 +5.9206785610842401e+00 +4.7505497296329636e+01 -1.7383702850907503e+03 -6.8587735307917115e+05 +3.3852303117653547e+05 
+5.4999999999999993e-01 -5.5221088285124176e-01 +7.2253986722592005e+00 +5.9216003879789332e+00 +4.7703096827245503e+01 -1.8798202467112337e+03 -6.8729646216791484e+05 +1.2278130229729142e+06 
+5.9999999999999998e-01 -5.5221463384116198e-01 +7.2256137456925797e+00 +5.9223644317702906e+00 +4.7890183491184516e+01 -2.0283745704087132e+03 -6.8859473067793553e+05 +2.1609271977361823e+06 
+6.5000000000000002e-01 -5.5221876163640138e-01 +7.2258492789982229e+00 +5.9229576936309218e+00 +4.8066535331630952e+01 -2.1836787252806298e+03 -6.8977085503711831e+05 +3.1357410286924923e+06 
+7.0000000000000007e-01 -5.5222326544547939e-01 +7.2261052274759567e+00 +5.9233671704955864e+00 +4.8231930189896168e+01 -2.3453780644418803e+03 -6.9082353008126828e+05 +4.1501291940217642e+06 
+7.5000000000000011e-01 -5.5222814447695368e-01 +7.2263815464231298e+00 +5.9235798629781335e+00 +4.8386146015578859e+01 -2.5131180413444372e+03 -6.9175145144670876e+05 +5.2019670558356671e+06 
+8.0000000000000016e-01 -5.5223339793940374e-01 +7.2266781911380065e+00 +5.9235827725109687e+00 +4.8528960765168286e+01 -2.6865441290857930e+03 -6.9255331490171282e+05 +6.2891300952267339e+06 
+8.5000000000000020e-01 -5.5223902504140376e-01 +7.2269951169218940e+00 +5.9233628965670704e+00 +4.8660152292159630e+01 -2.8653016966424948e+03 -6.9322781535562524e+05 +7.4094931024483331e+06 
+9.0000000000000024e-01 -5.5224502499156303e-01 +7.2273322790718835e+00 +5.9229072359901078e+00 +4.8779498644027612e+01 -3.0490362006230657e+03 -6.9377364929009380e+05 +8.5609314406016413e+06 
+9.5000000000000029e-01 -5.5225139699849979e-01 +7.2276896328895104e+00 +5.9222027900736620e+00 +4.8886777718684463e+01 -3.2373930578437685e+03 -6.9418951198978489e+05 +9.7413202145299315e+06 
+1.0000000000000002e+00 -5.5225814027085685e-01 +7.2280671336757907e+00 +5.9212365595884462e+00 +4.8981767459495060e+01 -3.4300177243220551e+03 -6.9447409911260894e+05 +1.0948534787799275e+07 
+1.0500000000000003e+00 -5.5226525401728466e-01 +7.2284647367335557e+00 +5.9199955437484180e+00 +4.9064245764361822e+01 -3.6265556126835559e+03 -6.9462610594737309e+05 +1.2180450223937176e+07 
+1.1000000000000003e+00 -5.5227273744645822e-01 +7.2288823973622449e+00 +5.9184667432480991e+00 +4.9133990685770605e+01 -3.8266521779301706e+03 -6.9464422903319809e+05 +1.3434941880453670e+07 
+1.1500000000000004e+00 -5.5228058976707040e-01 +7.2293200708683445e+00 +5.9166371589413629e+00 +4.9190780024600016e+01 -4.0299528779058419e+03 -6.9452716288681305e+05 +1.4709885128477156e+07 
+1.2000000000000004e+00 -5.5228881018782261e-01 +7.2297777125539051e+00 +5.9144937901457952e+00 +4.9234391781774768e+01 -4.2361031268172746e+03 -6.9427360364436498e+05 +1.6003155032294128e+07 
+1.2500000000000004e+00 -5.5229739791743915e-01 +7.2302552777253988e+00 +5.9120236375874544e+00 +4.9264603801639595e+01 -4.4447483779365939e+03 -6.9388224616521772e+05 +1.7312626922117747e+07 
+1.3000000000000005e+00 -5.5230635216465385e-01 +7.2307527216856400e+00 +5.9092137005451288e+00 +4.9281194107275397e+01 -4.6555340463286566e+03 -6.9335178679470113e+05 +1.8636175876329601e+07 
+1.3500000000000005e+00 -5.5231567213823518e-01 +7.2312699997417669e+00 +5.9060509819320952e+00 +4.9283940564216707e+01 -4.8681056446511720e+03 -6.9268092057530128e+05 +1.9971677623896316e+07 
+1.4000000000000006e+00 -5.5232535704694663e-01 +7.2318070672032224e+00 +5.9025224804669865e+00 +4.9272620967291516e+01 -5.0821085693600535e+03 -6.9186834197000915e+05 +2.1317007097265337e+07 
+1.4500000000000006e+00 -5.5233540609957343e-01 +7.2323638793729481e+00 +5.8986151961713453e+00 +4.9247013404204061e+01 -5.2971882541601753e+03 -6.9091274786315253e+05 +2.2670039487808082e+07 
+1.5000000000000007e+00 -5.5234581850493059e-01 +7.2329403915646324e+00 +5.8943161315148016e+00 +4.9206895545484535e+01 -5.5129901991239667e+03 -6.8981283172285999e+05 +2.4028650434104789e+07 
+1.5500000000000007e+00 -5.5235659347183697e-01 +7.2335365590852714e+00 +5.8896122866453986e+00 +4.9152045358637992e+01 -5.7291598395400115e+03 -6.8856728944765683e+05 +2.5390715127812013e+07 
+1.6000000000000008e+00 -5.5236773020913810e-01 +7.2341523372471759e+00 +5.8844906637807082e+00 +4.9082240610181266e+01 -5.9453426667976382e+03 -6.8717481528065901e+05 +2.6754109138089508e+07 
+1.6500000000000008e+00 -5.5237922792567529e-01 +7.2347876813610190e+00 +5.8789382614692176e+00 +4.8997259168537305e+01 -6.1611840732054006e+03 -6.8563410434750910e+05 +2.8116707363975767e+07 
+1.7000000000000008e+00 -5.5239108583032648e-01 +7.2354425467404555e+00 +5.8729420819273415e+00 +4.8896878791112513e+01 -6.3763295471953525e+03 -6.8394385082478507e+05 +2.9476385339852028e+07 
+1.7500000000000009e+00 -5.5240330313197761e-01 +7.2361168886970688e+00 +5.8664891263056793e+00 +4.8780877343358931e+01 -6.5904245523923064e+03 -6.8210274978891131e+05 +3.0831018447303500e+07 
+1.8000000000000009e+00 -5.5241587903953160e-01 +7.2368106625480211e+00 +5.8595663957281570e+00 +4.8649032491663810e+01 -6.8031145490795016e+03 -6.8010949471716699e+05 +3.2178482033023182e+07 
+1.8500000000000010e+00 -5.5242881276190892e-01 +7.2375238236070798e+00 +5.8521608915476460e+00 +4.8501122052000397e+01 -7.0140450005447346e+03 -6.7796278027387394e+05 +3.3516651450305592e+07 
+1.9000000000000010e+00 -5.5244210350804190e-01 +7.2382563271906344e+00 +5.8442596149387738e+00 +4.8336923763464227e+01 -7.2228613705751022e+03 -6.7566130053978658e+05 +3.4843402074701414e+07 
+1.9500000000000011e+00 -5.5245575048689199e-01 +7.2390081286204335e+00 +5.8358495690198300e+00 +4.8156215162172543e+01 -7.4292091690785428e+03 -6.7320374791130028e+05 +3.6156609567159072e+07 
+2.0000000000000009e+00 -5.5246975290741229e-01 +7.2397791832119402e+00 +5.8269177532214824e+00 +4.7958774063005045e+01 -7.6327338102336716e+03 -6.7058881707882299e+05 +3.7454148954451256e+07 
+2.0500000000000007e+00 -5.5248410975410889e-01 +7.2405694280471877e+00 +5.8174535418152136e+00 +4.7744485947844758e+01 -7.8331235098761526e+03 -6.6781618462109438e+05 +3.8734137409672730e+07 
+2.1000000000000005e+00 -5.5249881911347332e-01 +7.2413787207104017e+00 +5.8074562821758082e+00 +4.7513654899274307e+01 -8.0302396298629110e+03 -6.6488941166476777e+05 +3.9995680548521928e+07 
+2.1500000000000004e+00 -5.5251387884745740e-01 +7.2422068972718687e+00 +5.7969279435158221e+00 +4.7266685901252117e+01 -8.2239872649205536e+03 -6.6181302057742944e+05 +4.1238135887145385e+07 
+2.2000000000000002e+00 -5.5252928681806013e-01 +7.2430537938036554e+00 +5.7858705009636280e+00 +4.7003983881125421e+01 -8.4142716644287248e+03 -6.5859153328194143e+05 +4.2460861966857061e+07 
+2.2500000000000000e+00 -5.5254504088726586e-01 +7.2439192463792130e+00 +5.7742859247627747e+00 +4.6725953718785107e+01 -8.6009979464805874e+03 -6.5522947130477009e+05 +4.3663216448670708e+07 
+2.2999999999999998e+00 -5.5256113891707292e-01 +7.2448030910697900e+00 +5.7621761858691265e+00 +4.6433000400149730e+01 -8.7840712497242093e+03 -6.5173135705487023e+05 +4.4844557134143241e+07 
+2.3499999999999996e+00 -5.5257757876950675e-01 +7.2457051639489372e+00 +5.7495432576338921e+00 +4.6125528823348368e+01 -8.9633967754599471e+03 -6.4810171218432812e+05 +4.6004242242745601e+07 
+2.3999999999999995e+00 -5.5259435830659642e-01 +7.2466253010919912e+00 +5.7363891122213921e+00 +4.5803943826872327e+01 -9.1388796935679966e+03 -6.4434505787447072e+05 +4.7141629784607843e+07 
+2.4499999999999993e+00 -5.5261147539037847e-01 +7.2475633385718750e+00 +5.7227157211604833e+00 +4.5468650357338618e+01 -9.3104251572799076e+03 -6.4046591617335822e+05 +4.8256077658414729e+07 
+2.4999999999999991e+00 -5.5262892788289020e-01 +7.2485191124650585e+00 +5.7085250537953440e+00 +4.5120053225005421e+01 -9.4779382579219273e+03 -6.3646880801015592e+05 +4.9346943335931733e+07 
+2.5499999999999989e+00 -5.5264671364621065e-01 +7.2494924588470022e+00 +5.6938190852598369e+00 +4.4758557292672855e+01 -9.6413242455421314e+03 -6.3235825473727076e+05 +5.0413585371296011e+07 
+2.5999999999999988e+00 -5.5266483054241111e-01 +7.2504832137942437e+00 +5.6785997870441154e+00 +4.4384567384781000e+01 -9.8004882685900557e+03 -6.2813877738304588e+05 +5.1455361619879767e+07 
+2.6499999999999986e+00 -5.5268327643355919e-01 +7.2514912133855285e+00 +5.6628691288497155e+00 +4.3998488234981799e+01 -9.9553354316277509e+03 -6.2381489618133043e+05 +5.2471629658505782e+07 
+2.6999999999999984e+00 -5.5270204918176002e-01 +7.2525162936947183e+00 +5.6466290842630702e+00 +4.3600724807994155e+01 -1.0105770936906416e+04 -6.1939113336209685e+05 +5.3461747697531506e+07 
+2.7499999999999982e+00 -5.5272114664910599e-01 +7.2535582908032961e+00 +5.6298816235886049e+00 +4.3191681734520195e+01 -1.0251699904412741e+04 -6.1487200828205503e+05 +5.4425073417767137e+07 
+2.7999999999999980e+00 -5.5274056669771643e-01 +7.2546170407879789e+00 +5.6126287198220952e+00 +4.2771763861294822e+01 -1.0393027522472583e+04 -6.1026204212161363e+05 +5.5360964945688032e+07 
+2.8499999999999979e+00 -5.5276030718970814e-01 +7.2556923797278721e+00 +5.5948723436635746e+00 +4.2341375941137002e+01 -1.0529658917792558e+04 -6.0556575528203452e+05 +5.6268779995539561e+07 
+2.8999999999999977e+00 -5.5278036598721159e-01 +7.2567841437052589e+00 +5.5766144668889757e+00 +4.1900922596643902e+01 -1.0661499246043833e+04 -6.0078766706382856e+05 +5.7147876476926826e+07 
+2.9499999999999975e+00 -5.5280074095236176e-01 +7.2578921687973734e+00 +5.5578570604161550e+00 +4.1450808664539949e+01 -1.0788453641165142e+04 -5.9593229852748977e+05 +5.7997612159875549e+07 
+2.9999999999999973e+00 -5.5282142994731820e-01 +7.2590162910860760e+00 +5.5386020977589006e+00 +4.0991438789723112e+01 -1.0910427304878702e+04 -5.9100416912311059e+05 +5.8817345266917475e+07 
+3.0499999999999972e+00 -5.5284243083421680e-01 +7.2601563466535586e+00 +5.5188515467504553e+00 +4.0523217618020389e+01 -1.1027325285179597e+04 -5.8600779834257765e+05 +5.9606432980493337e+07 
+3.0999999999999970e+00 -5.5286374147524464e-01 +7.2613121715801991e+00 +5.4986073823712402e+00 +4.0046549856018501e+01 -1.1139052818849788e+04 -5.8094770611086464e+05 +6.0364233745046899e+07 
+3.1499999999999968e+00 -5.5288535973256336e-01 +7.2624836019499108e+00 +5.4778715746787556e+00 +3.9561840075931300e+01 -1.1245515020648954e+04 -5.7582841126465506e+05 +6.1090105225061797e+07 
+3.1999999999999966e+00 -5.5290728346834028e-01 +7.2636704738421303e+00 +5.4566460922410993e+00 +3.9069493029815860e+01 -1.1346616953504305e+04 -5.7065443409471330e+05 +6.1783404691383101e+07 
+3.2499999999999964e+00 -5.5292951054478523e-01 +7.2648726233448588e+00 +5.4349329101387873e+00 +3.8569913123296111e+01 -1.1442263860914036e+04 -5.6543029204102920e+05 +6.2443490657482669e+07 
+3.2999999999999963e+00 -5.5295203882408150e-01 +7.2660898865381531e+00 +5.4127339974312099e+00 +3.8063505087257774e+01 -1.1532360821501461e+04 -5.6016050520379737e+05 +6.3069720512783773e+07 
+3.3499999999999961e+00 -5.5297486616843261e-01 +7.2673220995063783e+00 +5.3900513255322799e+00 +3.7550673466823561e+01 -1.1616812979934064e+04 -5.5484959212158876e+05 +6.3661452106979832e+07 
+3.3999999999999959e+00 -5.5299799044003872e-01 +7.2685690983354014e+00 +5.3668868635679088e+00 +3.7031822750557460e+01 -1.1695525414630456e+04 -5.4950207086672960e+05 +6.4218042827628642e+07 
+3.4499999999999957e+00 -5.5302140950112477e-01 +7.2698307191091009e+00 +5.3432425843057629e+00 +3.6507357500831311e+01 -1.1768403305399208e+04 -5.4412246008645219e+05 +6.4738850760635659e+07 
+3.4999999999999956e+00 -5.5304512121390803e-01 +7.2711067979126600e+00 +5.3191204577092153e+00 +3.5977682229487051e+01 -1.1835351755403126e+04 -5.3871527802459081e+05 +6.5223233474422559e+07 
+3.5499999999999954e+00 -5.5306912344061321e-01 +7.2723971708334574e+00 +5.2945224540890958e+00 +3.5443201348488714e+01 -1.1896275877042859e+04 -5.3328504205567378e+05 +6.5670548599983335e+07 
+3.5999999999999952e+00 -5.5309341404348644e-01 +7.2737016739571327e+00 +5.2694505455561043e+00 +3.4904319337493035e+01 -1.1951080825180528e+04 -5.2783627010188461e+05 +6.6080154038050197e+07 
+3.6499999999999950e+00 -5.5311799088474856e-01 +7.2750201433691615e+00 +5.2439067000325315e+00 +3.4361440681216536e+01 -1.1999671653194286e+04 -5.2237348012301646e+05 +6.6451407049331889e+07 
+3.6999999999999948e+00 -5.5314285182665246e-01 +7.2763524151576959e+00 +5.2178928890147978e+00 +3.3814969742289080e+01 -1.2041953499099025e+04 -5.1690118902189395e+05 +6.6783665422275893e+07 
+3.7499999999999947e+00 -5.5316799473144784e-01 +7.2776983254099186e+00 +5.1914110825734419e+00 +3.3265310930688429e+01 -1.2077831465253643e+04 -5.1142391414243809e+05 +6.7076286721387565e+07 
+3.7999999999999945e+00 -5.5319341746138506e-01 +7.2790577102134648e+00 +5.1644632504817647e+00 +3.2712868613205494e+01 -1.2107210651040528e+04 -5.0594617237087328e+05 +6.7328628511880696e+07 
+3.8499999999999943e+00 -5.5321911787872280e-01 +7.2804304056567002e+00 +5.1370513624076350e+00 +3.2158047124295479e+01 -1.2129996145643147e+04 -5.0047248033385864e+05 +6.7540048265884608e+07 
+3.8999999999999941e+00 -5.5324509384572629e-01 +7.2818162478273374e+00 +5.1091773886382574e+00 +3.1601250823641077e+01 -1.2146093058492817e+04 -4.9500735487506411e+05 +6.7709903609245375e+07 
+3.9499999999999940e+00 -5.5327134322466087e-01 +7.2832150728161817e+00 +5.0808432982275287e+00 +3.1042883932640784e+01 -1.2155406461960951e+04 -4.8955531166382914e+05 +6.7837551907689676e+07 
+3.9999999999999938e+00 -5.5329786387779512e-01 +7.2846267167097016e+00 +5.0520510606024223e+00 +3.0483350834462346e+01 -1.2157841443559295e+04 -4.8412086763007089e+05 +6.7922350652857468e+07 
+4.0499999999999936e+00 -5.5332465356809046e-01 +7.2860510062484076e+00 +5.0228040347624576e+00 +2.9923174254734693e+01 -1.2153348132116196e+04 -4.7870896652001346e+05 +6.7963947216722652e+07 
+4.0999999999999934e+00 -5.5335170966143965e-01 +7.2874877240708136e+00 +4.9931117178385778e+00 +2.9363397757654599e+01 -1.2142064578131547e+04 -4.7332644921145809e+05 +6.7963180702211365e+07 
+4.1499999999999932e+00 -5.5337902942452832e-01 +7.2889366401073579e+00 +4.9629853103505672e+00 +2.8805205561768243e+01 -1.2124177948835382e+04 -4.6798066827014624e+05 +6.7921197087791696e+07 
+4.1999999999999931e+00 -5.5340661012404546e-01 +7.2903975242859831e+00 +4.9324360130319507e+00 +2.8249781983475966e+01 -1.2099875412598929e+04 -4.6267897711625195e+05 +6.7839142343603015e+07 
+4.2499999999999929e+00 -5.5343444902668071e-01 +7.2918701465379074e+00 +4.9014750269818199e+00 +2.7698311190846180e+01 -1.2069344157569645e+04 -4.5742872789059527e+05 +6.7718162615645185e+07 
+4.2999999999999927e+00 -5.5346254339912637e-01 +7.2933542767940782e+00 +4.8701135535872835e+00 +2.7151977383057073e+01 -1.2032771379460168e+04 -4.5223727307428332e+05 +6.7559404098835707e+07 
+4.3499999999999925e+00 -5.5349089050805722e-01 +7.2948496849814290e+00 +4.8383627904405389e+00 +2.6611964910890979e+01 -1.1990344167668445e+04 -4.4711196635282645e+05 +6.7364012254570216e+07 
+4.3999999999999924e+00 -5.5351948762016689e-01 +7.2963561410294195e+00 +4.8062339395654012e+00 +2.6079458029103741e+01 -1.1942249745901923e+04 -4.4206016065330652e+05 +6.7133133510116071e+07 
+4.4499999999999922e+00 -5.5354833200214304e-01 +7.2978734148659541e+00 +4.7737382007781415e+00 +2.5555641040050379e+01 -1.1888675267547467e+04 -4.3708920924042963e+05 +6.6867913774365790e+07 
+4.4999999999999920e+00 -5.5357742092065376e-01 +7.2994012764197027e+00 +4.7408867714717049e+00 +2.5041698226775843e+01 -1.1829807833889443e+04 -4.3220646527025837e+05 +6.6569498658289120e+07 
+4.5499999999999918e+00 -5.5360675164239748e-01 +7.3009394956176958e+00 +4.7076908539454765e+00 +2.4538813938929021e+01 -1.1765834674567872e+04 -4.2741928247094760e+05 +6.6239034623707399e+07 
+4.5999999999999917e+00 -5.5363632143403152e-01 +7.3024878423879400e+00 +4.6741616435932363e+00 +2.4048172481775428e+01 -1.1696942837849025e+04 -4.2273501418125402e+05 +6.5877666925953761e+07 
+4.6499999999999915e+00 -5.5366612756224243e-01 +7.3040460866557329e+00 +4.6403103412197346e+00 +2.3570958258619694e+01 -1.1623319520449746e+04 -4.1816101451821101e+05 +6.5486541832996048e+07 
+4.6999999999999913e+00 -5.5369616729370130e-01 +7.3056139983497905e+00 +4.6061481452647257e+00 +2.3108355544355668e+01 -1.1545151860212891e+04 -4.1370463660072209e+05 +6.5066805236386418e+07 
+4.7499999999999911e+00 -5.5372643789506781e-01 +7.3071913473927852e+00 +4.5716862523907844e+00 +2.2661548855286451e+01 -1.1462626946875343e+04 -4.0937323552714637e+05 +6.4619602700011954e+07 
+4.7999999999999909e+00 -5.5375693663300529e-01 +7.3087779037123424e+00 +4.5369358604445198e+00 +2.2231722500668035e+01 -1.1375931906848817e+04 -4.0517416469000379e+05 +6.4146080053890929e+07 
+4.8499999999999908e+00 -5.5378766077417407e-01 +7.3103734372302496e+00 +4.5019081668905256e+00 +2.1820061025072643e+01 -1.1285253858617791e+04 -4.0111477942491329e+05 +6.3647383086279444e+07 
+4.8999999999999906e+00 -5.5381860758523893e-01 +7.3119777178744227e+00 +4.4666143706179433e+00 +2.1427748717548063e+01 -1.1190779961800346e+04 -3.9720243296154664e+05 +6.3124657872321531e+07 
+4.9499999999999904e+00 -5.5384977433282534e-01 +7.3135905155657701e+00 +4.4310656643080533e+00 +2.1055970154927945e+01 -1.1092697213349398e+04 -3.9344448092571652e+05 +6.2579049406400263e+07 
+4.9999999999999902e+00 -5.5388115828359474e-01 +7.3152116002274958e+00 +4.3952732474629688e+00 +2.0705909810049388e+01 -1.0991192797953034e+04 -3.8984827807314839e+05 +6.2011703967588499e+07 
+5.0499999999999901e+00 -5.5391275670418727e-01 +7.3168407417828760e+00 +4.3592483163209330e+00 +2.0378752159674928e+01 -1.0886453811901545e+04 -3.8642117923981411e+05 +6.1423767234877400e+07 
