# field on trajectory
# s[mm] rx[mm] ry[mm] rz[mm] bx[T] by[T] bz[T]
0.0000000000000000e+00 +8.2850000000000001e+00 +0.0000000000000000e+00 +0.0000000000000000e+00 -2.7841625331875126e-02 -5.2571253851291067e-01 +5.3127771134005401e-03
5.0000000000000003e-02 +8.2849999309387172e+00 +0.0000000000000000e+00 +4.9999999999936408e-02 -2.7841330224318121e-02 -5.2571144568761385e-01 +5.3136156444960224e-03
1.0000000000000001e-01 +8.2849997237550443e+00 +0.0000000000000000e+00 +9.9999999999491246e-02 -2.7841054318098475e-02 -5.2571071155102889e-01 +5.3144504588803895e-03
1.5000000000000002e-01 +8.2849993784491733e+00 +0.0000000000000000e+00 +1.4999999999828301e-01 -2.7840797530502243e-02 -5.2571033540605550e-01 +5.3152815700994588e-03
2.0000000000000001e-01 +8.2849988950212037e+00 +0.0000000000000000e+00 +1.9999999999593007e-01 -2.7840559778816887e-02 -5.2571031655560685e-01 +5.3161089916987595e-03
2.5000000000000000e-01 +8.2849982734711407e+00 +0.0000000000000000e+00 +2.4999999999205091e-01 -2.7840340980331234e-02 -5.2571065430261466e-01 +5.3169327372235139e-03
2.9999999999999999e-01 +8.2849975137988956e+00 +0.0000000000000000e+00 +2.9999999998626398e-01 -2.7840141052335451e-02 -5.2571134795002494e-01 +5.3177528202186736e-03
3.4999999999999998e-01 +8.2849966160042854e+00 +0.0000000000000000e+00 +3.4999999997818770e-01 -2.7839959912120928e-02 -5.2571239680080173e-01 +5.3185692542289179e-03
3.9999999999999997e-01 +8.2849955800870365e+00 +0.0000000000000000e+00 +3.9999999996744057e-01 -2.7839797476980406e-02 -5.2571380015792424e-01 +5.3193820527986631e-03
4.4999999999999996e-01 +8.2849944060467777e+00 +0.0000000000000000e+00 +4.4999999995364098e-01 -2.7839653664207764e-02 -5.2571555732438835e-01 +5.3201912294720760e-03
4.9999999999999994e-01 +8.2849930938830489e+00 +0.0000000000000000e+00 +4.9999999993640737e-01 -2.7839528391098049e-02 -5.2571766760320626e-01 +5.3209967977930787e-03
5.4999999999999993e-01 +8.2849916435952959e+00 +0.0000000000000000e+00 +5.4999999991535808e-01 -2.7839421574947475e-02 -5.2572013029740627e-01 +5.3217987713053650e-03
5.9999999999999998e-01 +8.2849900551828703e+00 +0.0000000000000000e+00 +5.9999999989011166e-01 -2.7839333133053323e-02 -5.2572294471003245e-01 +5.3225971635524052e-03
6.5000000000000002e-01 +8.2849883286450332e+00 +0.0000000000000000e+00 +6.4999999986028645e-01 -2.7839262982713914e-02 -5.2572611014414639e-01 +5.3233919880774526e-03
7.0000000000000007e-01 +8.2849864639809532e+00 +0.0000000000000000e+00 +6.9999999982550087e-01 -2.7839211041228610e-02 -5.2572962590282446e-01 +5.3241832584235600e-03
7.5000000000000011e-01 +8.2849844611897066e+00 +0.0000000000000000e+00 +7.4999999978537324e-01 -2.7839177225897713e-02 -5.2573349128916014e-01 +5.3249709881335846e-03
8.0000000000000016e-01 +8.2849823202702790e+00 +0.0000000000000000e+00 +7.9999999973952196e-01 -2.7839161454022477e-02 -5.2573770560626309e-01 +5.3257551907502036e-03
8.5000000000000020e-01 +8.2849800412215622e+00 +0.0000000000000000e+00 +8.4999999968756546e-01 -2.7839163642905052e-02 -5.2574226815725811e-01 +5.3265358798159166e-03
9.0000000000000024e-01 +8.2849776240423569e+00 +0.0000000000000000e+00 +8.9999999962912203e-01 -2.7839183709848420e-02 -5.2574717824528827e-01 +5.3273130688730533e-03
9.5000000000000029e-01 +8.2849750687313737e+00 +0.0000000000000000e+00 +9.4999999956380998e-01 -2.7839221572156399e-02 -5.2575243517351045e-01 +5.3280867714637975e-03
1.0000000000000002e+00 +8.2849723752872304e+00 +0.0000000000000000e+00 +9.9999999949124763e-01 -2.7839277147133575e-02 -5.2575803824509970e-01 +5.3288570011301804e-03
1.0500000000000003e+00 +8.2849695437084563e+00 +0.0000000000000000e+00 +1.0499999994110534e+00 -2.7839350352085252e-02 -5.2576398676324620e-01 +5.3296237714140979e-03
1.1000000000000003e+00 +8.2849665739934881e+00 +0.0000000000000000e+00 +1.0999999993228453e+00 -2.7839441104317464e-02 -5.2577028003115600e-01 +5.3303870958573227e-03
1.1500000000000004e+00 +8.2849634661406721e+00 +0.0000000000000000e+00 +1.1499999992262420e+00 -2.7839549321136876e-02 -5.2577691735205245e-01 +5.3311469880015080e-03
1.2000000000000004e+00 +8.2849602201482657e+00 +0.0000000000000000e+00 +1.1999999991208614e+00 -2.7839674919850767e-02 -5.2578389802917425e-01 +5.3319034613881974e-03
1.2500000000000004e+00 +8.2849568360144339e+00 +0.0000000000000000e+00 +1.2499999990063220e+00 -2.7839817817767020e-02 -5.2579122136577605e-01 +5.3326565295588411e-03
1.3000000000000005e+00 +8.2849533137372529e+00 +0.0000000000000000e+00 +1.2999999988822417e+00 -2.7839977932194011e-02 -5.2579888666512919e-01 +5.3334062060547971e-03
1.3500000000000005e+00 +8.2849496533147082e+00 +0.0000000000000000e+00 +1.3499999987482389e+00 -2.7840155180440678e-02 -5.2580689323052132e-01 +5.3341525044173482e-03
1.4000000000000006e+00 +8.2849458547446968e+00 +0.0000000000000000e+00 +1.3999999986039318e+00 -2.7840349479816364e-02 -5.2581524036525573e-01 +5.3348954381877084e-03
1.4500000000000006e+00 +8.2849419180250248e+00 +0.0000000000000000e+00 +1.4499999984489382e+00 -2.7840560747630850e-02 -5.2582392737265171e-01 +5.3356350209070270e-03
1.5000000000000007e+00 +8.2849378431534113e+00 +0.0000000000000000e+00 +1.4999999982828764e+00 -2.7840788901194298e-02 -5.2583295355604509e-01 +5.3363712661164105e-03
1.5500000000000007e+00 +8.2849336301274850e+00 +0.0000000000000000e+00 +1.5499999981053647e+00 -2.7841033857817218e-02 -5.2584231821878757e-01 +5.3371041873569213e-03
1.6000000000000008e+00 +8.2849292789447837e+00 +0.0000000000000000e+00 +1.5999999979160209e+00 -2.7841295534810420e-02 -5.2585202066424697e-01 +5.3378337981695913e-03
1.6500000000000008e+00 +8.2849247896027602e+00 +0.0000000000000000e+00 +1.6499999977144630e+00 -2.7841573849484963e-02 -5.2586206019580728e-01 +5.3385601120954310e-03
1.7000000000000008e+00 +8.2849201620987749e+00 +0.0000000000000000e+00 +1.6999999975003093e+00 -2.7841868719152112e-02 -5.2587243611686874e-01 +5.3392831426754446e-03
1.7500000000000009e+00 +8.2849153964301028e+00 +0.0000000000000000e+00 +1.7499999972731775e+00 -2.7842180061123378e-02 -5.2588314773084677e-01 +5.3400029034506276e-03
1.8000000000000009e+00 +8.2849104925939301e+00 +0.0000000000000000e+00 +1.7999999970326854e+00 -2.7842507792710386e-02 -5.2589419434117468e-01 +5.3407194079619878e-03
1.8500000000000010e+00 +8.2849054505873543e+00 +0.0000000000000000e+00 +1.8499999967784513e+00 -2.7842851831224834e-02 -5.2590557525129977e-01 +5.3414326697505494e-03
1.9000000000000010e+00 +8.2849002704073840e+00 +0.0000000000000000e+00 +1.8999999965100927e+00 -2.7843212093978498e-02 -5.2591728976468688e-01 +5.3421427023573652e-03
1.9500000000000011e+00 +8.2848949520509425e+00 +0.0000000000000000e+00 +1.9499999962272276e+00 -2.7843588498283230e-02 -5.2592933718481616e-01 +5.3428495193235219e-03
2.0000000000000009e+00 +8.2848894955148644e+00 +0.0000000000000000e+00 +1.9999999959294739e+00 -2.7843980961450805e-02 -5.2594171681518409e-01 +5.3435531341901521e-03
2.0500000000000007e+00 +8.2848839007958972e+00 +0.0000000000000000e+00 +2.0499999956164490e+00 -2.7844389413724951e-02 -5.2595442774640777e-01 +5.3442535613009321e-03
2.1000000000000005e+00 +8.2848781678907013e+00 +0.0000000000000000e+00 +2.0999999952877708e+00 -2.7844813837077369e-02 -5.2596746821753804e-01 +5.3449508182094613e-03
2.1500000000000004e+00 +8.2848722967958519e+00 +0.0000000000000000e+00 +2.1499999949430575e+00 -2.7845254226412066e-02 -5.2598083625474212e-01 +5.3456449232716970e-03
2.2000000000000002e+00 +8.2848662875078354e+00 +0.0000000000000000e+00 +2.1999999945819262e+00 -2.7845710576633303e-02 -5.2599452988419881e-01 +5.3463358948434266e-03
2.2500000000000000e+00 +8.2848601400230546e+00 +0.0000000000000000e+00 +2.2499999942039945e+00 -2.7846182882645672e-02 -5.2600854713209899e-01 +5.3470237512802917e-03
2.2999999999999998e+00 +8.2848538543378272e+00 +0.0000000000000000e+00 +2.2999999938088802e+00 -2.7846671139354053e-02 -5.2602288602464409e-01 +5.3477085109377570e-03
2.3499999999999996e+00 +8.2848474304483855e+00 +0.0000000000000000e+00 +2.3499999933962008e+00 -2.7847175341663550e-02 -5.2603754458804675e-01 +5.3483901921711268e-03
2.3999999999999995e+00 +8.2848408683508783e+00 +0.0000000000000000e+00 +2.3999999929655735e+00 -2.7847695484479573e-02 -5.2605252084853016e-01 +5.3490688133355346e-03
2.4499999999999993e+00 +8.2848341680413711e+00 +0.0000000000000000e+00 +2.4499999925166160e+00 -2.7848231562707739e-02 -5.2606781283232795e-01 +5.3497443927859323e-03
2.4999999999999991e+00 +8.2848273295158457e+00 +0.0000000000000000e+00 +2.4999999920489460e+00 -2.7848783571253907e-02 -5.2608341856568375e-01 +5.3504169488770952e-03
2.5499999999999989e+00 +8.2848203527702022e+00 +0.0000000000000000e+00 +2.5499999915621800e+00 -2.7849351505024173e-02 -5.2609933607485126e-01 +5.3510864999636162e-03
2.5999999999999988e+00 +8.2848132378002592e+00 +0.0000000000000000e+00 +2.5999999910559359e+00 -2.7849935358924795e-02 -5.2611556338609422e-01 +5.3517530643999063e-03
2.6499999999999986e+00 +8.2848059846017517e+00 +0.0000000000000000e+00 +2.6499999905298313e+00 -2.7850535127862255e-02 -5.2613209852568488e-01 +5.3524166605401734e-03
2.6999999999999984e+00 +8.2847985931703363e+00 +0.0000000000000000e+00 +2.6999999899834828e+00 -2.7851150806743198e-02 -5.2614893951990505e-01 +5.3530773067384371e-03
2.7499999999999982e+00 +8.2847910635015900e+00 +0.0000000000000000e+00 +2.7499999894165077e+00 -2.7851782390474450e-02 -5.2616608439504586e-01 +5.3537350213485255e-03
2.7999999999999980e+00 +8.2847833955910062e+00 +0.0000000000000000e+00 +2.7999999888285232e+00 -2.7852429873962969e-02 -5.2618353117740690e-01 +5.3543898227240531e-03
2.8499999999999979e+00 +8.2847755894340018e+00 +0.0000000000000000e+00 +2.8499999882191465e+00 -2.7853093252115851e-02 -5.2620127789329518e-01 +5.3550417292184301e-03
2.8999999999999977e+00 +8.2847676450259158e+00 +0.0000000000000000e+00 +2.8999999875879943e+00 -2.7853772519840347e-02 -5.2621932256902781e-01 +5.3556907591848640e-03
2.9499999999999975e+00 +8.2847595623620052e+00 +0.0000000000000000e+00 +2.9499999869346838e+00 -2.7854467672043776e-02 -5.2623766323092758e-01 +5.3563369309763392e-03
2.9999999999999973e+00 +8.2847513414374525e+00 +0.0000000000000000e+00 +2.9999999862588318e+00 -2.7855178703633608e-02 -5.2625629790532702e-01 +5.3569802629456331e-03
3.0499999999999972e+00 +8.2847429822473622e+00 +0.0000000000000000e+00 +3.0499999855600555e+00 -2.7855905609517360e-02 -5.2627522461856424e-01 +5.3576207734452909e-03
3.0999999999999970e+00 +8.2847344847867603e+00 +0.0000000000000000e+00 +3.0999999848379711e+00 -2.7856648384602653e-02 -5.2629444139698600e-01 +5.3582584808276367e-03
3.1499999999999968e+00 +8.2847258490505986e+00 +0.0000000000000000e+00 +3.1499999840921959e+00 -2.7857407023797125e-02 -5.2631394626694472e-01 +5.3588934034447672e-03
3.1999999999999966e+00 +8.2847170750337540e+00 +0.0000000000000000e+00 +3.1999999833223463e+00 -2.7858181522008519e-02 -5.2633373725480059e-01 +5.3595255596485449e-03
3.2499999999999964e+00 +8.2847081627310253e+00 +0.0000000000000000e+00 +3.2499999825280388e+00 -2.7858971874144576e-02 -5.2635381238691881e-01 +5.3601549677905940e-03
3.2999999999999963e+00 +8.2846991121371385e+00 +0.0000000000000000e+00 +3.2999999817088903e+00 -2.7859778075113081e-02 -5.2637416968967232e-01 +5.3607816462223025e-03
3.3499999999999961e+00 +8.2846899232467450e+00 +0.0000000000000000e+00 +3.3499999808645171e+00 -2.7860600119821801e-02 -5.2639480718943887e-01 +5.3614056132948087e-03
3.3999999999999959e+00 +8.2846805960544234e+00 +0.0000000000000000e+00 +3.3999999799945360e+00 -2.7861438003178522e-02 -5.2641572291260230e-01 +5.3620268873590012e-03
3.4499999999999957e+00 +8.2846711305546776e+00 +0.0000000000000000e+00 +3.4499999790985632e+00 -2.7862291720090995e-02 -5.2643691488555144e-01 +5.3626454867655255e-03
3.4999999999999956e+00 +8.2846615267419406e+00 +0.0000000000000000e+00 +3.4999999781762150e+00 -2.7863161265466969e-02 -5.2645838113468058e-01 +5.3632614298647656e-03
3.5499999999999954e+00 +8.2846517846105723e+00 +0.0000000000000000e+00 +3.5499999772271078e+00 -2.7864046634214143e-02 -5.2648011968638908e-01 +5.3638747350068386e-03
3.5999999999999952e+00 +8.2846419041548600e+00 +0.0000000000000000e+00 +3.5999999762508579e+00 -2.7864947821240126e-02 -5.2650212856708045e-01 +5.3644854205416115e-03
3.6499999999999950e+00 +8.2846318853690235e+00 +0.0000000000000000e+00 +3.6499999752470811e+00 -2.7865864821452500e-02 -5.2652440580316284e-01 +5.3650935048186769e-03
3.6999999999999948e+00 +8.2846217282472097e+00 +0.0000000000000000e+00 +3.6999999742153937e+00 -2.7866797629758737e-02 -5.2654694942104863e-01 +5.3656990061873499e-03
3.7499999999999947e+00 +8.2846114327834943e+00 +0.0000000000000000e+00 +3.7499999731554121e+00 -2.7867746241066246e-02 -5.2656975744715406e-01 +5.3663019429966855e-03
3.7999999999999945e+00 +8.2846009989718858e+00 +0.0000000000000000e+00 +3.7999999720667521e+00 -2.7868710650282302e-02 -5.2659282790789885e-01 +5.3669023335954471e-03
3.8499999999999943e+00 +8.2845904268063233e+00 +0.0000000000000000e+00 +3.8499999709490291e+00 -2.7869690852314069e-02 -5.2661615882970625e-01 +5.3675001963321188e-03
3.8999999999999941e+00 +8.2845797162806765e+00 +0.0000000000000000e+00 +3.8999999698018595e+00 -2.7870686842068573e-02 -5.2663974823900239e-01 +5.3680955495549005e-03
3.9499999999999940e+00 +8.2845688673887476e+00 +0.0000000000000000e+00 +3.9499999686248590e+00 -2.7871698614452701e-02 -5.2666359416221664e-01 +5.3686884116116952e-03
3.9999999999999938e+00 +8.2845578801242734e+00 +0.0000000000000000e+00 +3.9999999674176432e+00 -2.7872726164373172e-02 -5.2668769462578080e-01 +5.3692788008501214e-03
4.0499999999999936e+00 +8.2845467544809193e+00 +0.0000000000000000e+00 +4.0499999661798274e+00 -2.7873769458354444e-02 -5.2671204757943657e-01 +5.3698667354133813e-03
4.0999999999999934e+00 +8.2845354904522885e+00 +0.0000000000000000e+00 +4.0999999649110279e+00 -2.7874828349392606e-02 -5.2673665066615749e-01 +5.3704522326281203e-03
4.1499999999999932e+00 +8.2845240880319171e+00 +0.0000000000000000e+00 +4.1499999636108598e+00 -2.7875902662102454e-02 -5.2676150145222567e-01 +5.3710353096171077e-03
4.1999999999999931e+00 +8.2845125472132768e+00 +0.0000000000000000e+00 +4.1999999622789392e+00 -2.7876992221099826e-02 -5.2678659750392354e-01 +5.3716159835034112e-03
4.2499999999999929e+00 +8.2845008679897720e+00 +0.0000000000000000e+00 +4.2499999609148809e+00 -2.7878096851001604e-02 -5.2681193638753465e-01 +5.3721942714104040e-03
4.2999999999999927e+00 +8.2844890503547468e+00 +0.0000000000000000e+00 +4.2999999595183001e+00 -2.7879216376425747e-02 -5.2683751566934278e-01 +5.3727701904617807e-03
4.3499999999999925e+00 +8.2844770943014812e+00 +0.0000000000000000e+00 +4.3499999580888122e+00 -2.7880350621991332e-02 -5.2686333291563192e-01 +5.3733437577815745e-03
4.3999999999999924e+00 +8.2844649998231930e+00 +0.0000000000000000e+00 +4.3999999566260319e+00 -2.7881499412318562e-02 -5.2688938569268540e-01 +5.3739149904941733e-03
4.4499999999999922e+00 +8.2844527669130361e+00 +0.0000000000000000e+00 +4.4499999551295755e+00 -2.7882662572028774e-02 -5.2691567156678676e-01 +5.3744839057243204e-03
4.4999999999999920e+00 +8.2844403955641042e+00 +0.0000000000000000e+00 +4.4999999535990565e+00 -2.7883839925744502e-02 -5.2694218810421800e-01 +5.3750505205971497e-03
4.5499999999999918e+00 +8.2844278857694302e+00 +0.0000000000000000e+00 +4.5499999520340912e+00 -2.7885031298089454e-02 -5.2696893287126056e-01 +5.3756148522381801e-03
4.5999999999999917e+00 +8.2844152375219888e+00 +0.0000000000000000e+00 +4.5999999504342934e+00 -2.7886236513688576e-02 -5.2699590343419456e-01 +5.3761769177733381e-03
4.6499999999999915e+00 +8.2844024508146941e+00 +0.0000000000000000e+00 +4.6499999487992785e+00 -2.7887455397168057e-02 -5.2702309735929853e-01 +5.3767367343289752e-03
4.6999999999999913e+00 +8.2843895256403997e+00 +0.0000000000000000e+00 +4.6999999471286609e+00 -2.7888687773155368e-02 -5.2705051221284938e-01 +5.3772943190318733e-03
4.7499999999999911e+00 +8.2843764619919043e+00 +0.0000000000000000e+00 +4.7499999454220561e+00 -2.7889933466279247e-02 -5.2707814556112109e-01 +5.3778496890092660e-03
4.7999999999999909e+00 +8.2843632598619479e+00 +0.0000000000000000e+00 +4.7999999436790777e+00 -2.7891192301169761e-02 -5.2710599497038602e-01 +5.3784028613888448e-03
4.8499999999999908e+00 +8.2843499192432137e+00 +0.0000000000000000e+00 +4.8499999418993403e+00 -2.7892464102458304e-02 -5.2713405800691360e-01 +5.3789538532987811e-03
4.8999999999999906e+00 +8.2843364401283281e+00 +0.0000000000000000e+00 +4.8999999400824592e+00 -2.7893748694777686e-02 -5.2716233223697029e-01 +5.3795026818677406e-03
4.9499999999999904e+00 +8.2843228225098642e+00 +0.0000000000000000e+00 +4.9499999382280482e+00 -2.7895045902762022e-02 -5.2719081522681943e-01 +5.3800493642248868e-03
4.9999999999999902e+00 +8.2843090663803363e+00 +0.0000000000000000e+00 +4.9999999363357208e+00 -2.7896355551046904e-02 -5.2721950454272093e-01 +5.3805939174999089e-03
5.0499999999999901e+00 +8.2842951717322091e+00 +0.0000000000000000e+00 +5.0499999344050925e+00 -2.7897677464269334e-02 -5.2724839775093069e-01 +5.3811363588230215e-03
5.0999999999999899e+00 +8.2842811385578905e+00 +0.0000000000000000e+00 +5.0999999324357770e+00 -2.7899011467067782e-02 -5.2727749241770072e-01 +5.3816767053249896e-03
5.1499999999999897e+00 +8.2842669668497368e+00 +0.0000000000000000e+00 +5.1499999304273878e+00 -2.7900357384082169e-02 -5.2730678610927884e-01 +5.3822149741371370e-03
5.1999999999999895e+00 +8.2842526566000512e+00 +0.0000000000000000e+00 +5.1999999283795395e+00 -2.7901715039953971e-02 -5.2733627639190772e-01 +5.3827511823913658e-03
5.2499999999999893e+00 +8.2842382078010850e+00 +0.0000000000000000e+00 +5.2499999262918458e+00 -2.7903084259326170e-02 -5.2736596083182607e-01 +5.3832853472201656e-03
5.2999999999999892e+00 +8.2842236204450419e+00 +0.0000000000000000e+00 +5.2999999241639202e+00 -2.7904464866843295e-02 -5.2739583699526671e-01 +5.3838174857566224e-03
5.3499999999999890e+00 +8.2842088945240704e+00 +0.0000000000000000e+00 +5.3499999219953764e+00 -2.7905856687151457e-02 -5.2742590244845755e-01 +5.3843476151344471e-03
5.3999999999999888e+00 +8.2841940300302710e+00 +0.0000000000000000e+00 +5.3999999197858291e+00 -2.7907259544898359e-02 -5.2745615475762009e-01 +5.3848757524879763e-03
5.4499999999999886e+00 +8.2841790269556981e+00 +0.0000000000000000e+00 +5.4499999175348908e+00 -2.7908673264733355e-02 -5.2748659148897103e-01 +5.3854019149521927e-03
5.4999999999999885e+00 +8.2841638852923527e+00 +0.0000000000000000e+00 +5.4999999152421752e+00 -2.7910097671307432e-02 -5.2751721020871944e-01 +5.3859261196627399e-03
5.5499999999999883e+00 +8.2841486050321915e+00 +0.0000000000000000e+00 +5.5499999129072961e+00 -2.7911532589273237e-02 -5.2754800848306937e-01 +5.3864483837559240e-03
5.5999999999999881e+00 +8.2841331861671232e+00 +0.0000000000000000e+00 +5.5999999105298661e+00 -2.7912977843285138e-02 -5.2757898387821700e-01 +5.3869687243687514e-03
5.6499999999999879e+00 +8.2841176286890086e+00 +0.0000000000000000e+00 +5.6499999081094989e+00 -2.7914433257999194e-02 -5.2761013396035161e-01 +5.3874871586389221e-03
5.6999999999999877e+00 +8.2841019325896639e+00 +0.0000000000000000e+00 +5.6999999056458073e+00 -2.7915898658073247e-02 -5.2764145629565540e-01 +5.3880037037048476e-03
5.7499999999999876e+00 +8.2840860978608610e+00 +0.0000000000000000e+00 +5.7499999031384048e+00 -2.7917373868166850e-02 -5.2767294845030310e-01 +5.3885183767056729e-03
5.7999999999999874e+00 +8.2840701244943240e+00 +0.0000000000000000e+00 +5.7999999005869043e+00 -2.7918858712941398e-02 -5.2770460799046126e-01 +5.3890311947812873e-03
5.8499999999999872e+00 +8.2840540124817359e+00 +0.0000000000000000e+00 +5.8499998979909185e+00 -2.7920353017060098e-02 -5.2773643248228841e-01 +5.3895421750723288e-03
5.8999999999999870e+00 +8.2840377618147372e+00 +0.0000000000000000e+00 +5.8999998953500610e+00 -2.7921856605187947e-02 -5.2776841949193420e-01 +5.3900513347202106e-03
