# field on trajectory
# s[mm] rx[mm] ry[mm] rz[mm] bx[T] by[T] bz[T]
0.0000000000000000e+00 +8.5270000000000206e+00 +0.0000000000000000e+00 +0.0000000000000000e+00 -2.8429372282520890e-02 -5.4972344147714802e-01 +5.6474060856424061e-03
5.0000000000000003e-02 +8.5269999309457507e+00 +0.0000000000000000e+00 +4.9999999999936401e-02 -2.8428996901098191e-02 -5.4972400390156961e-01 +5.6468768523387867e-03
1.0000000000000001e-01 +8.5269997237846802e+00 +0.0000000000000000e+00 +9.9999999999491399e-02 -2.8428643767268828e-02 -5.4972495775402686e-01 +5.6463494122588331e-03
1.4999999999999999e-01 +8.5269993785186706e+00 +0.0000000000000000e+00 +1.4999999999828301e-01 -2.8428312894965304e-02 -5.4972630226090224e-01 +5.6458237809994070e-03
2.0000000000000001e-01 +8.5269988951477007e+00 +0.0000000000000000e+00 +1.9999999999593099e-01 -2.8428004298121867e-02 -5.4972803664860848e-01 +5.6452999741575249e-03
2.5000000000000000e-01 +8.5269982736681396e+00 +0.0000000000000000e+00 +2.4999999999205300e-01 -2.8427717990675228e-02 -5.4973016014360243e-01 +5.6447780073305255e-03
2.9999999999999999e-01 +8.5269975140799907e+00 +0.0000000000000000e+00 +2.9999999998626697e-01 -2.8427453986561723e-02 -5.4973267197233255e-01 +5.6442578961154932e-03
3.4999999999999998e-01 +8.5269966163905302e+00 +0.0000000000000000e+00 +3.4999999997819298e-01 -2.8427212299715846e-02 -5.4973557136121320e-01 +5.6437396561089814e-03
4.0000000000000002e-01 +8.5269955805888493e+00 +0.0000000000000000e+00 +3.9999999996744801e-01 -2.8426992944080492e-02 -5.4973885753680674e-01 +5.6432233029090409e-03
4.5000000000000001e-01 +8.5269944066858407e+00 +0.0000000000000000e+00 +4.4999999995365197e-01 -2.8426795933590956e-02 -5.4974252972553561e-01 +5.6427088521120378e-03
5.0000000000000000e-01 +8.5269930946742498e+00 +0.0000000000000000e+00 +4.9999999993642202e-01 -2.8426621282190964e-02 -5.4974658715397029e-01 +5.6421963193158562e-03
5.5000000000000004e-01 +8.5269916445577092e+00 +0.0000000000000000e+00 +5.4999999991537796e-01 -2.8426469003821078e-02 -5.4975102904861972e-01 +5.6416857201175832e-03
5.9999999999999998e-01 +8.5269900563289394e+00 +0.0000000000000000e+00 +5.9999999989013697e-01 -2.8426339112427468e-02 -5.4975585463608923e-01 +5.6411770701152563e-03
6.5000000000000002e-01 +8.5269883299988596e+00 +0.0000000000000000e+00 +6.4999999986031898e-01 -2.8426231621950231e-02 -5.4976106314286799e-01 +5.6406703849055419e-03
6.9999999999999996e-01 +8.5269864655601904e+00 +0.0000000000000000e+00 +6.9999999982554195e-01 -2.8426146546338023e-02 -5.4976665379559453e-01 +5.6401656800866536e-03
7.5000000000000000e-01 +8.5269844630165608e+00 +0.0000000000000000e+00 +7.4999999978542398e-01 -2.8426083899536485e-02 -5.4977262582084419e-01 +5.6396629712560436e-03
8.0000000000000004e-01 +8.5269823223679904e+00 +0.0000000000000000e+00 +7.9999999973958402e-01 -2.8426043695493970e-02 -5.4977897844523471e-01 +5.6391622740115449e-03
8.4999999999999998e-01 +8.5269800436108198e+00 +0.0000000000000000e+00 +8.4999999968764095e-01 -2.8426025948161685e-02 -5.4978571089542705e-01 +5.6386636039514083e-03
9.0000000000000002e-01 +8.5269776267450705e+00 +0.0000000000000000e+00 +8.9999999962921295e-01 -2.8426030671490746e-02 -5.4979282239807059e-01 +5.6381669766737107e-03
9.4999999999999996e-01 +8.5269750717743609e+00 +0.0000000000000000e+00 +9.4999999956391801e-01 -2.8426057879432243e-02 -5.4980031217980507e-01 +5.6376724077763654e-03
1.0000000000000000e+00 +8.5269723786986997e+00 +0.0000000000000000e+00 +9.9999999949137597e-01 -2.8426107585940122e-02 -5.4980817946731164e-01 +5.6371799128577156e-03
1.0500000000000000e+00 +8.5269695475144491e+00 +0.0000000000000000e+00 +1.0499999994111999e+00 -2.8426179804971270e-02 -5.4981642348731363e-01 +5.6366895075165343e-03
1.1000000000000001e+00 +8.5269665782288904e+00 +0.0000000000000000e+00 +1.0999999993230201e+00 -2.8426274550479719e-02 -5.4982504346647054e-01 +5.6362012073508765e-03
1.1499999999999999e+00 +8.5269634708311095e+00 +0.0000000000000000e+00 +1.1499999992264500e+00 -2.8426391836428245e-02 -5.4983403863158820e-01 +5.6357150279603991e-03
1.2000000000000000e+00 +8.5269602253283701e+00 +0.0000000000000000e+00 +1.1999999991210999e+00 -2.8426531676773930e-02 -5.4984340820935651e-01 +5.6352309849434755e-03
1.2500000000000000e+00 +8.5269568417206791e+00 +0.0000000000000000e+00 +1.2499999990065900e+00 -2.8426694085478325e-02 -5.4985315142653213e-01 +5.6347490938992335e-03
1.3000000000000000e+00 +8.5269533200044005e+00 +0.0000000000000000e+00 +1.2999999988825499e+00 -2.8426879076506029e-02 -5.4986326750991343e-01 +5.6342693704272608e-03
1.3500000000000001e+00 +8.5269496601795307e+00 +0.0000000000000000e+00 +1.3499999987485900e+00 -2.8427086663821835e-02 -5.4987375568628660e-01 +5.6337918301270469e-03
1.3999999999999999e+00 +8.5269458622533403e+00 +0.0000000000000000e+00 +1.3999999986043401e+00 -2.8427316861389239e-02 -5.4988461518239951e-01 +5.6333164885976920e-03
1.4500000000000000e+00 +8.5269419262185693e+00 +0.0000000000000000e+00 +1.4499999984494001e+00 -2.8427569683179259e-02 -5.4989584522511914e-01 +5.6328433614396484e-03
1.5000000000000000e+00 +8.5269378520752106e+00 +0.0000000000000000e+00 +1.4999999982833900e+00 -2.8427845143161740e-02 -5.4990744504127498e-01 +5.6323724642530007e-03
1.5500000000000000e+00 +8.5269336398268898e+00 +0.0000000000000000e+00 +1.5499999981059500e+00 -2.8428143255306737e-02 -5.4991941385768284e-01 +5.6319038126377572e-03
1.6000000000000001e+00 +8.5269292894736299e+00 +0.0000000000000000e+00 +1.5999999979166799e+00 -2.8428464033587578e-02 -5.4993175090119939e-01 +5.6314374221944326e-03
1.6499999999999999e+00 +8.5269248010117700e+00 +0.0000000000000000e+00 +1.6499999977152000e+00 -2.8428807491980807e-02 -5.4994445539872072e-01 +5.6309733085240614e-03
1.7000000000000000e+00 +8.5269201744449692e+00 +0.0000000000000000e+00 +1.6999999975011300e+00 -2.8429173644461882e-02 -5.4995752657710395e-01 +5.6305114872273292e-03
1.7500000000000000e+00 +8.5269154097695701e+00 +0.0000000000000000e+00 +1.7499999972740901e+00 -2.8429562505011004e-02 -5.4997096366327236e-01 +5.6300519739057473e-03
1.8000000000000000e+00 +8.5269105069892195e+00 +0.0000000000000000e+00 +1.7999999970336999e+00 -2.8429974087607352e-02 -5.4998476588410905e-01 +5.6295947841604917e-03
1.8500000000000001e+00 +8.5269054661039299e+00 +0.0000000000000000e+00 +1.8499999967795799e+00 -2.8430408406233405e-02 -5.4999893246653653e-01 +5.6291399335932817e-03
1.8999999999999999e+00 +8.5269002871100401e+00 +0.0000000000000000e+00 +1.8999999965113501e+00 -2.8430865474875121e-02 -5.5001346263751716e-01 +5.6286874378063947e-03
1.9500000000000000e+00 +8.5268949700112007e+00 +0.0000000000000000e+00 +1.9499999962286201e+00 -2.8431345307517397e-02 -5.5002835562397245e-01 +5.6282373124017949e-03
2.0000000000000000e+00 +8.5268895148037700e+00 +0.0000000000000000e+00 +1.9999999959310100e+00 -2.8431847918150063e-02 -5.5004361065288920e-01 +5.6277895729823025e-03
2.0499999999999998e+00 +8.5268839213858900e+00 +0.0000000000000000e+00 +2.0499999956181298e+00 -2.8432373285734839e-02 -5.5005922674144470e-01 +5.6273442381633391e-03
2.1000000000000001e+00 +8.5268781896593300e+00 +0.0000000000000000e+00 +2.0999999952895898e+00 -2.8432921248955790e-02 -5.5007520206467830e-01 +5.6269013385784787e-03
2.1499999999999999e+00 +8.5268723196240899e+00 +0.0000000000000000e+00 +2.1499999949449999e+00 -2.8433491611388795e-02 -5.5009153458640081e-01 +5.6264609078581955e-03
2.2000000000000002e+00 +8.5268663112729008e+00 +0.0000000000000000e+00 +2.1999999945839801e+00 -2.8434084176613188e-02 -5.5010822227048750e-01 +5.6260229796336776e-03
2.2500000000000000e+00 +8.5268601646093902e+00 +0.0000000000000000e+00 +2.2499999942061502e+00 -2.8434698748204333e-02 -5.5012526308074705e-01 +5.6255875875353785e-03
2.2999999999999998e+00 +8.5268538796335598e+00 +0.0000000000000000e+00 +2.2999999938111202e+00 -2.8435335129739402e-02 -5.5014265498102577e-01 +5.6251547651941678e-03
2.3500000000000001e+00 +8.5268474563490599e+00 +0.0000000000000000e+00 +2.3499999933985198e+00 -2.8435993124794428e-02 -5.5016039593515587e-01 +5.6247245462407499e-03
2.3999999999999999e+00 +8.5268408947522403e+00 +0.0000000000000000e+00 +2.3999999929679601e+00 -2.8436672536948621e-02 -5.5017848390703361e-01 +5.6242969643065382e-03
2.4500000000000002e+00 +8.5268341948467405e+00 +0.0000000000000000e+00 +2.4499999925190501e+00 -2.8437373169778419e-02 -5.5019691686051442e-01 +5.6238720530224799e-03
2.5000000000000000e+00 +8.5268273566252901e+00 +0.0000000000000000e+00 +2.4999999920514302e+00 -2.8438094826864772e-02 -5.5021569275954285e-01 +5.6234498460205106e-03
2.5499999999999998e+00 +8.5268203800987994e+00 +0.0000000000000000e+00 +2.5499999915646900e+00 -2.8438837311781380e-02 -5.5023480956794391e-01 +5.6230303769312373e-03
2.6000000000000001e+00 +8.5268132652563509e+00 +0.0000000000000000e+00 +2.5999999910584699e+00 -2.8439600428110706e-02 -5.5025426524971122e-01 +5.6226136793871137e-03
2.6499999999999999e+00 +8.5268060121015896e+00 +0.0000000000000000e+00 +2.6499999905323701e+00 -2.8440383979429343e-02 -5.5027405776874438e-01 +5.6221997870195507e-03
2.7000000000000002e+00 +8.5267986206345103e+00 +0.0000000000000000e+00 +2.6999999899860101e+00 -2.8441187769315118e-02 -5.5029418508897865e-01 +5.6217887334603488e-03
2.7500000000000000e+00 +8.5267910908551094e+00 +0.0000000000000000e+00 +2.7499999894190199e+00 -2.8442011601345768e-02 -5.5031464517436190e-01 +5.6213805523414257e-03
2.7999999999999998e+00 +8.5267834227670392e+00 +0.0000000000000000e+00 +2.7999999888310101e+00 -2.8442855279097241e-02 -5.5033543598882406e-01 +5.6209752772945019e-03
2.8500000000000001e+00 +8.5267756163666508e+00 +0.0000000000000000e+00 +2.8499999882215898e+00 -2.8443718606148131e-02 -5.5035655549635898e-01 +5.6205729419519859e-03
2.8999999999999999e+00 +8.5267676716539391e+00 +0.0000000000000000e+00 +2.8999999875903901e+00 -2.8444601386075200e-02 -5.5037800166094475e-01 +5.6201735799460920e-03
2.9500000000000002e+00 +8.5267595886289200e+00 +0.0000000000000000e+00 +2.9499999869370299e+00 -2.8445503422454745e-02 -5.5039977244656846e-01 +5.6197772249091263e-03
3.0000000000000000e+00 +8.5267513672915793e+00 +0.0000000000000000e+00 +2.9999999862611100e+00 -2.8446424518862572e-02 -5.5042186581722763e-01 +5.6193839104734938e-03
3.0499999999999998e+00 +8.5267430076455604e+00 +0.0000000000000000e+00 +3.0499999855622502e+00 -2.8447364478872486e-02 -5.5044427973690269e-01 +5.6189936702714027e-03
3.1000000000000001e+00 +8.5267345096872305e+00 +0.0000000000000000e+00 +3.0999999848400801e+00 -2.8448323106060550e-02 -5.5046701216963667e-01 +5.6186065379357176e-03
3.1499999999999999e+00 +8.5267258734165807e+00 +0.0000000000000000e+00 +3.1499999840942201e+00 -2.8449300204000719e-02 -5.5049006107945575e-01 +5.6182225470991116e-03
3.2000000000000002e+00 +8.5267170988336094e+00 +0.0000000000000000e+00 +3.1999999833242700e+00 -2.8450295576266181e-02 -5.5051342443039486e-01 +5.6178417313943350e-03
3.2500000000000000e+00 +8.5267081859419704e+00 +0.0000000000000000e+00 +3.2499999825298600e+00 -2.8451309026427837e-02 -5.5053710018647217e-01 +5.6174641244539289e-03
3.2999999999999998e+00 +8.5266991347380099e+00 +0.0000000000000000e+00 +3.2999999817106000e+00 -2.8452340358058686e-02 -5.5056108631176737e-01 +5.6170897599110980e-03
3.3500000000000001e+00 +8.5266899452181004e+00 +0.0000000000000000e+00 +3.3499999808661101e+00 -2.8453389374730742e-02 -5.5058538077036900e-01 +5.6167186713991114e-03
3.3999999999999999e+00 +8.5266806173895002e+00 +0.0000000000000000e+00 +3.3999999799960099e+00 -2.8454455880010689e-02 -5.5060998152629514e-01 +5.6163508925504545e-03
3.4500000000000002e+00 +8.5266711512522306e+00 +0.0000000000000000e+00 +3.4499999790999101e+00 -2.8455539677467039e-02 -5.5063488654362513e-01 +5.6159864569982603e-03
3.5000000000000000e+00 +8.5266615468026394e+00 +0.0000000000000000e+00 +3.4999999781774398e+00 -2.8456640570668663e-02 -5.5066009378647329e-01 +5.6156253983760162e-03
3.5499999999999998e+00 +8.5266518040407409e+00 +0.0000000000000000e+00 +3.5499999772282100e+00 -2.8457758363181779e-02 -5.5068560121893573e-01 +5.6152677503169823e-03
3.6000000000000001e+00 +8.5266419229665207e+00 +0.0000000000000000e+00 +3.5999999762518402e+00 -2.8458892858571387e-02 -5.5071140680511677e-01 +5.6149135464544911e-03
3.6499999999999999e+00 +8.5266319035799807e+00 +0.0000000000000000e+00 +3.6499999752479400e+00 -2.8460043860401157e-02 -5.5073750850912784e-01 +5.6145628204219292e-03
3.6999999999999900e+00 +8.5266217458847695e+00 +0.0000000000000000e+00 +3.6999999742161398e+00 -2.8461211172231934e-02 -5.5076390429506317e-01 +5.6142156058524599e-03
3.7499999999999898e+00 +8.5266114498736005e+00 +0.0000000000000000e+00 +3.7499999731560498e+00 -2.8462394597627581e-02 -5.5079059212710302e-01 +5.6138719363801612e-03
3.7999999999999901e+00 +8.5266010155537497e+00 +0.0000000000000000e+00 +3.7999999720672801e+00 -2.8463593940144517e-02 -5.5081756996933007e-01 +5.6135318456380133e-03
3.8499999999999899e+00 +8.5265904429179500e+00 +0.0000000000000000e+00 +3.8499999709494599e+00 -2.8464809003343545e-02 -5.5084483578593957e-01 +5.6131953672602011e-03
3.8999999999999901e+00 +8.5265797319771099e+00 +0.0000000000000000e+00 +3.8999999698022001e+00 -2.8466039590776499e-02 -5.5087238754100210e-01 +5.6128625348795215e-03
3.9499999999999900e+00 +8.5265688827203103e+00 +0.0000000000000000e+00 +3.9499999686251202e+00 -2.8467285506002350e-02 -5.5090022319875409e-01 +5.6125333821305341e-03
3.9999999999999898e+00 +8.5265578951548395e+00 +0.0000000000000000e+00 +3.9999999674178399e+00 -2.8468546552570966e-02 -5.5092834072330643e-01 +5.6122079426464151e-03
4.0499999999999901e+00 +8.5265467692734092e+00 +0.0000000000000000e+00 +4.0499999661799704e+00 -2.8469822540601597e-02 -5.5095673795050404e-01 +5.6118862462399381e-03
4.0999999999999899e+00 +8.5265355050833005e+00 +0.0000000000000000e+00 +4.0999999649111301e+00 -2.8471113306467292e-02 -5.5098541220257324e-01 +5.6115683074364686e-03
4.1499999999999897e+00 +8.5265241025808791e+00 +0.0000000000000000e+00 +4.1499999636109504e+00 -2.8472418693110159e-02 -5.5101436067344245e-01 +5.6112541369408081e-03
4.1999999999999904e+00 +8.5265125617697795e+00 +0.0000000000000000e+00 +4.1999999622790298e+00 -2.8473738543468824e-02 -5.5104358055698877e-01 +5.6109437454573887e-03
4.2499999999999902e+00 +8.5265008826427202e+00 +0.0000000000000000e+00 +4.2499999609149901e+00 -2.8475072700485764e-02 -5.5107306904717068e-01 +5.6106371436916991e-03
4.2999999999999901e+00 +8.5264890652069898e+00 +0.0000000000000000e+00 +4.2999999595184599e+00 -2.8476421007096978e-02 -5.5110282333784066e-01 +5.6103343423482875e-03
4.3499999999999899e+00 +8.5264771094589396e+00 +0.0000000000000000e+00 +4.3499999580890396e+00 -2.8477783306242295e-02 -5.5113284062293266e-01 +5.6100353521327667e-03
4.3999999999999897e+00 +8.5264650153985695e+00 +0.0000000000000000e+00 +4.3999999566263703e+00 -2.8479159440859447e-02 -5.5116311809635388e-01 +5.6097401837506694e-03
4.4499999999999904e+00 +8.5264527830295300e+00 +0.0000000000000000e+00 +4.4499999551300400e+00 -2.8480549253884029e-02 -5.5119365295198552e-01 +5.6094488479074521e-03
4.4999999999999902e+00 +8.5264404123481707e+00 +0.0000000000000000e+00 +4.4999999535996897e+00 -2.8481952588253964e-02 -5.5122444238376178e-01 +5.6091613553093571e-03
4.5499999999999901e+00 +8.5264279033544899e+00 +0.0000000000000000e+00 +4.5499999520349199e+00 -2.8483369286904977e-02 -5.5125548358559007e-01 +5.6088777166625583e-03
4.5999999999999899e+00 +8.5264152560448601e+00 +0.0000000000000000e+00 +4.5999999504353601e+00 -2.8484799192773583e-02 -5.5128677375140356e-01 +5.6085979426737185e-03
4.6499999999999897e+00 +8.5264024704301793e+00 +0.0000000000000000e+00 +4.6499999488006196e+00 -2.8486242148789701e-02 -5.5131831007502841e-01 +5.6083220440486005e-03
4.6999999999999904e+00 +8.5263895464995603e+00 +0.0000000000000000e+00 +4.6999999471303298e+00 -2.8487697997891328e-02 -5.5135008975044841e-01 +5.6080500314948795e-03
4.7499999999999902e+00 +8.5263764842602505e+00 +0.0000000000000000e+00 +4.7499999454240900e+00 -2.8489166583008339e-02 -5.5138210997151405e-01 +5.6077819157190406e-03
4.7999999999999901e+00 +8.5263632837050007e+00 +0.0000000000000000e+00 +4.7999999436815299e+00 -2.8490647747075742e-02 -5.5141436793217979e-01 +5.6075177074289308e-03
4.8499999999999899e+00 +8.5263499448447000e+00 +0.0000000000000000e+00 +4.8499999419022597e+00 -2.8492141333020370e-02 -5.5144686082626526e-01 +5.6072574173312078e-03
4.8999999999999897e+00 +8.5263364676684397e+00 +0.0000000000000000e+00 +4.8999999400859000e+00 -2.8493647183777060e-02 -5.5147958584774726e-01 +5.6070010561344620e-03
4.9499999999999904e+00 +8.5263228521798702e+00 +0.0000000000000000e+00 +4.9499999382320699e+00 -2.8495165142273970e-02 -5.5151254019049345e-01 +5.6067486345463755e-03
4.9999999999999902e+00 +8.5263090983826295e+00 +0.0000000000000000e+00 +4.9999999363403900e+00 -2.8496695051438346e-02 -5.5154572104836896e-01 +5.6065001632748827e-03
5.0499999999999901e+00 +8.5262952059529198e+00 +0.0000000000000000e+00 +5.0499999344103799e+00 -2.8498236754329220e-02 -5.5157912561762523e-01 +5.6062556530536989e-03
5.0999999999999899e+00 +8.5262811745706095e+00 +0.0000000000000000e+00 +5.0999999324415599e+00 -2.8499790094003337e-02 -5.5161275109448527e-01 +5.6060151146164966e-03
5.1499999999999897e+00 +8.5262670042357094e+00 +0.0000000000000000e+00 +5.1499999304335597e+00 -2.8501354913386928e-02 -5.5164659467283406e-01 +5.6057785586721733e-03
5.1999999999999904e+00 +8.5262526949518396e+00 +0.0000000000000000e+00 +5.1999999283859903e+00 -2.8502931055403798e-02 -5.5168065354652507e-01 +5.6055459959296000e-03
5.2499999999999902e+00 +8.5262382467153692e+00 +0.0000000000000000e+00 +5.2499999262984600e+00 -2.8504518362979764e-02 -5.5171492490946117e-01 +5.6053174370984549e-03
5.2999999999999901e+00 +8.5262236595299292e+00 +0.0000000000000000e+00 +5.2999999241705797e+00 -2.8506116679036693e-02 -5.5174940595548749e-01 +5.6050928928881019e-03
5.3499999999999899e+00 +8.5262089333882596e+00 +0.0000000000000000e+00 +5.3499999220019703e+00 -2.8507725846499909e-02 -5.5178409387852401e-01 +5.6048723740090107e-03
5.3999999999999897e+00 +8.5261940682976292e+00 +0.0000000000000000e+00 +5.3999999197922497e+00 -2.8509345708287823e-02 -5.5181898587237876e-01 +5.6046558911707640e-03
5.4499999999999904e+00 +8.5261790642507496e+00 +0.0000000000000000e+00 +5.4499999175410201e+00 -2.8510976107323689e-02 -5.5185407913096196e-01 +5.6044434550843484e-03
5.4999999999999902e+00 +8.5261639212585596e+00 +0.0000000000000000e+00 +5.4999999152479004e+00 -2.8512616886522357e-02 -5.5188937084804379e-01 +5.6042350764595860e-03
5.5499999999999901e+00 +8.5261486393137602e+00 +0.0000000000000000e+00 +5.5499999129125097e+00 -2.8514267888804973e-02 -5.5192485821752235e-01 +5.6040307660079726e-03
5.5999999999999899e+00 +8.5261332184127205e+00 +0.0000000000000000e+00 +5.5999999105344500e+00 -2.8515928957090125e-02 -5.5196053843326243e-01 +5.6038305344409973e-03
5.6499999999999897e+00 +8.5261176585627307e+00 +0.0000000000000000e+00 +5.6499999081133403e+00 -2.8517599934290840e-02 -5.5199640868904287e-01 +5.6036343924695600e-03
5.6999999999999904e+00 +8.5261019597637606e+00 +0.0000000000000000e+00 +5.6999999056488004e+00 -2.8519280663322016e-02 -5.5203246617868840e-01 +5.6034423508053962e-03
5.7499999999999902e+00 +8.5260861220122006e+00 +0.0000000000000000e+00 +5.7499999031404396e+00 -2.8520970987098805e-02 -5.5206870809604369e-01 +5.6032544201607935e-03
5.7999999999999901e+00 +8.5260701453080401e+00 +0.0000000000000000e+00 +5.7999999005878804e+00 -2.8522670748533780e-02 -5.5210513163491926e-01 +5.6030706112480365e-03
5.8499999999999899e+00 +8.5260540296512808e+00 +0.0000000000000000e+00 +5.8499998979907204e+00 -2.8524379790538290e-02 -5.5214173398911792e-01 +5.6028909347796817e-03
5.8999999999999897e+00 +8.5260377750455500e+00 +0.0000000000000000e+00 +5.8999998953485804e+00 -2.8526097956021006e-02 -5.5217851235240778e-01 +5.6027154014682843e-03
