# trajectory
# s[mm] rx[mm] ry[mm] rz[mm] px[rad] py[rad] pz[rad]
0.0000000000000000e+00 +8.2850000000000001e+00 +0.0000000000000000e+00 +0.0000000000000000e+00 +0.0000000000000000e+00 +0.0000000000000000e+00 +1.0000000000000000e+00
5.0000000000000003e-02 +8.2849999306223392e+00 +0.0000000000000000e+00 +4.9999999999935818e-02 -2.7751066016029710e-06 +0.0000000000000000e+00 +9.9999999999614941e-01
1.0000000000000001e-01 +8.2849997224893048e+00 +0.0000000000000000e+00 +9.9999999999486583e-02 -5.5502152505295090e-06 +0.0000000000000000e+00 +9.9999999998459754e-01
1.5000000000000002e-01 +8.2849993756007496e+00 +0.0000000000000000e+00 +1.4999999999826721e-01 -8.3253277427395324e-06 +0.0000000000000000e+00 +9.9999999996534450e-01
2.0000000000000001e-01 +8.2849988899564373e+00 +0.0000000000000000e+00 +1.9999999999589266e-01 -1.1100445870139284e-05 +0.0000000000000000e+00 +9.9999999993839006e-01
2.5000000000000000e-01 +8.2849982655560392e+00 +0.0000000000000000e+00 +2.4999999999197786e-01 -1.3875571420581422e-05 +0.0000000000000000e+00 +9.9999999990373423e-01
2.9999999999999999e-01 +8.2849975023991416e+00 +0.0000000000000000e+00 +2.9999999998613774e-01 -1.6650706177865097e-05 +0.0000000000000000e+00 +9.9999999986137700e-01
3.4999999999999998e-01 +8.2849966004852380e+00 +0.0000000000000000e+00 +3.4999999997798720e-01 -1.9425851921736051e-05 +0.0000000000000000e+00 +9.9999999981131815e-01
3.9999999999999997e-01 +8.2849955598137353e+00 +0.0000000000000000e+00 +3.9999999996714120e-01 -2.2201010427886683e-05 +0.0000000000000000e+00 +9.9999999975355758e-01
4.4999999999999996e-01 +8.2849943803839530e+00 +0.0000000000000000e+00 +4.4999999995321460e-01 -2.4976183467956145e-05 +0.0000000000000000e+00 +9.9999999968809516e-01
4.9999999999999994e-01 +8.2849930621951184e+00 +0.0000000000000000e+00 +4.9999999993582234e-01 -2.7751372809530418e-05 +0.0000000000000000e+00 +9.9999999961493069e-01
5.4999999999999993e-01 +8.2849916052463719e+00 +0.0000000000000000e+00 +5.4999999991457926e-01 -3.0526580216142397e-05 +0.0000000000000000e+00 +9.9999999953406393e-01
5.9999999999999998e-01 +8.2849900095367666e+00 +0.0000000000000000e+00 +5.9999999988910035e-01 -3.3301807447271980e-05 +0.0000000000000000e+00 +9.9999999944549478e-01
6.5000000000000002e-01 +8.2849882750652668e+00 +0.0000000000000000e+00 +6.4999999985900037e-01 -3.6077056258346140e-05 +0.0000000000000000e+00 +9.9999999934922301e-01
7.0000000000000007e-01 +8.2849864018307517e+00 +0.0000000000000000e+00 +6.9999999982389427e-01 -3.8852328400739003e-05 +0.0000000000000000e+00 +9.9999999924524829e-01
7.5000000000000011e-01 +8.2849843898320099e+00 +0.0000000000000000e+00 +7.4999999978339682e-01 -4.1627625621771944e-05 +0.0000000000000000e+00 +9.9999999913357041e-01
8.0000000000000016e-01 +8.2849822390677428e+00 +0.0000000000000000e+00 +7.9999999973712288e-01 -4.4402949664713654e-05 +0.0000000000000000e+00 +9.9999999901418901e-01
8.5000000000000020e-01 +8.2849799495365666e+00 +0.0000000000000000e+00 +8.4999999968468731e-01 -4.7178302268780218e-05 +0.0000000000000000e+00 +9.9999999888710389e-01
9.0000000000000024e-01 +8.2849775212370105e+00 +0.0000000000000000e+00 +8.9999999962570487e-01 -4.9953685169135208e-05 +0.0000000000000000e+00 +9.9999999875231471e-01
9.5000000000000029e-01 +8.2849749541675166e+00 +0.0000000000000000e+00 +9.4999999955979031e-01 -5.2729100096889751e-05 +0.0000000000000000e+00 +9.9999999860982103e-01
1.0000000000000002e+00 +8.2849722483264383e+00 +0.0000000000000000e+00 +9.9999999948655849e-01 -5.5504548779102607e-05 +0.0000000000000000e+00 +9.9999999845962251e-01
1.0500000000000003e+00 +8.2849694037120472e+00 +0.0000000000000000e+00 +1.0499999994056242e+00 -5.8280032938780255e-05 +0.0000000000000000e+00 +9.9999999830171882e-01
1.1000000000000003e+00 +8.2849664203225242e+00 +0.0000000000000000e+00 +1.0999999993166021e+00 -6.1055554294876956e-05 +0.0000000000000000e+00 +9.9999999813610962e-01
1.1500000000000004e+00 +8.2849632981559687e+00 +0.0000000000000000e+00 +1.1499999992191068e+00 -6.3831114562294851e-05 +0.0000000000000000e+00 +9.9999999796279437e-01
1.2000000000000004e+00 +8.2849600372103911e+00 +0.0000000000000000e+00 +1.1999999991127530e+00 -6.6606715451884008e-05 +0.0000000000000000e+00 +9.9999999778177273e-01
1.2500000000000004e+00 +8.2849566374837185e+00 +0.0000000000000000e+00 +1.2499999989971555e+00 -6.9382358670442529e-05 +0.0000000000000000e+00 +9.9999999759304414e-01
1.3000000000000005e+00 +8.2849530989737907e+00 +0.0000000000000000e+00 +1.2999999988719289e+00 -7.2158045920716607e-05 +0.0000000000000000e+00 +9.9999999739660816e-01
1.3500000000000005e+00 +8.2849494216783643e+00 +0.0000000000000000e+00 +1.3499999987366877e+00 -7.4933778901400594e-05 +0.0000000000000000e+00 +9.9999999719246435e-01
1.4000000000000006e+00 +8.2849456055951105e+00 +0.0000000000000000e+00 +1.3999999985910467e+00 -7.7709559307137115e-05 +0.0000000000000000e+00 +9.9999999698061215e-01
1.4500000000000006e+00 +8.2849416507216151e+00 +0.0000000000000000e+00 +1.4499999984346204e+00 -8.0485388828517072e-05 +0.0000000000000000e+00 +9.9999999676105100e-01
1.5000000000000007e+00 +8.2849375570553807e+00 +0.0000000000000000e+00 +1.4999999982670233e+00 -8.3261269152079802e-05 +0.0000000000000000e+00 +9.9999999653378047e-01
1.5500000000000007e+00 +8.2849333245938244e+00 +0.0000000000000000e+00 +1.5499999980878700e+00 -8.6037201960313073e-05 +0.0000000000000000e+00 +9.9999999629879988e-01
1.6000000000000008e+00 +8.2849289533342816e+00 +0.0000000000000000e+00 +1.5999999978967749e+00 -8.8813188931653218e-05 +0.0000000000000000e+00 +9.9999999605610868e-01
1.6500000000000008e+00 +8.2849244432740008e+00 +0.0000000000000000e+00 +1.6499999976933524e+00 -9.1589231740485153e-05 +0.0000000000000000e+00 +9.9999999580570620e-01
1.7000000000000008e+00 +8.2849197944101487e+00 +0.0000000000000000e+00 +1.6999999974772169e+00 -9.4365332057142493e-05 +0.0000000000000000e+00 +9.9999999554759189e-01
1.7500000000000009e+00 +8.2849150067398085e+00 +0.0000000000000000e+00 +1.7499999972479829e+00 -9.7141491547907613e-05 +0.0000000000000000e+00 +9.9999999528176520e-01
1.8000000000000009e+00 +8.2849100802599800e+00 +0.0000000000000000e+00 +1.7999999970052649e+00 -9.9917711875011683e-05 +0.0000000000000000e+00 +9.9999999500822534e-01
1.8500000000000010e+00 +8.2849050149675794e+00 +0.0000000000000000e+00 +1.8499999967486769e+00 -1.0269399469663479e-04 +0.0000000000000000e+00 +9.9999999472697165e-01
1.9000000000000010e+00 +8.2848998108594412e+00 +0.0000000000000000e+00 +1.8999999964778334e+00 -1.0547034166690599e-04 +0.0000000000000000e+00 +9.9999999443800347e-01
1.9500000000000011e+00 +8.2848944679323164e+00 +0.0000000000000000e+00 +1.9499999961923487e+00 -1.0824675443590335e-04 +0.0000000000000000e+00 +9.9999999414132001e-01
2.0000000000000009e+00 +8.2848889861828745e+00 +0.0000000000000000e+00 +1.9999999958918369e+00 -1.1102323464965405e-04 +0.0000000000000000e+00 +9.9999999383692062e-01
2.0500000000000007e+00 +8.2848833656077012e+00 +0.0000000000000000e+00 +2.0499999955759121e+00 -1.1379978394987129e-04 +0.0000000000000000e+00 +9.9999999352480451e-01
2.1000000000000005e+00 +8.2848776062033007e+00 +0.0000000000000000e+00 +2.0999999952441888e+00 -1.1657640397105992e-04 +0.0000000000000000e+00 +9.9999999320497091e-01
2.1500000000000004e+00 +8.2848717079660972e+00 +0.0000000000000000e+00 +2.1499999948962807e+00 -1.1935309633762197e-04 +0.0000000000000000e+00 +9.9999999287741903e-01
2.2000000000000002e+00 +8.2848656708924331e+00 +0.0000000000000000e+00 +2.1999999945318018e+00 -1.2212986266359359e-04 +0.0000000000000000e+00 +9.9999999254214811e-01
2.2500000000000000e+00 +8.2848594949785710e+00 +0.0000000000000000e+00 +2.2499999941503668e+00 -1.2490670455264511e-04 +0.0000000000000000e+00 +9.9999999219915736e-01
2.2999999999999998e+00 +8.2848531802206917e+00 +0.0000000000000000e+00 +2.2999999937515891e+00 -1.2768362359808107e-04 +0.0000000000000000e+00 +9.9999999184844590e-01
2.3499999999999996e+00 +8.2848467266148980e+00 +0.0000000000000000e+00 +2.3499999933350826e+00 -1.3046062138284033e-04 +0.0000000000000000e+00 +9.9999999149001295e-01
2.3999999999999995e+00 +8.2848401341572142e+00 +0.0000000000000000e+00 +2.3999999929004616e+00 -1.3323769947949602e-04 +0.0000000000000000e+00 +9.9999999112385751e-01
2.4499999999999993e+00 +8.2848334028435850e+00 +0.0000000000000000e+00 +2.4499999924473399e+00 -1.3601485945025570e-04 +0.0000000000000000e+00 +9.9999999074997881e-01
2.4999999999999991e+00 +8.2848265326698787e+00 +0.0000000000000000e+00 +2.4999999919753311e+00 -1.3879210284696136e-04 +0.0000000000000000e+00 +9.9999999036837595e-01
2.5499999999999989e+00 +8.2848195236318851e+00 +0.0000000000000000e+00 +2.5499999914840488e+00 -1.4156943121108940e-04 +0.0000000000000000e+00 +9.9999998997904793e-01
2.5999999999999988e+00 +8.2848123757253163e+00 +0.0000000000000000e+00 +2.5999999909731071e+00 -1.4434684607375080e-04 +0.0000000000000000e+00 +9.9999998958199388e-01
2.6499999999999986e+00 +8.2848050889458111e+00 +0.0000000000000000e+00 +2.6499999904421196e+00 -1.4712434895569108e-04 +0.0000000000000000e+00 +9.9999998917721278e-01
2.6999999999999984e+00 +8.2847976632889289e+00 +0.0000000000000000e+00 +2.6999999898906997e+00 -1.4990194136729038e-04 +0.0000000000000000e+00 +9.9999998876470375e-01
2.7499999999999982e+00 +8.2847900987501575e+00 +0.0000000000000000e+00 +2.7499999893184612e+00 -1.5267962480856347e-04 +0.0000000000000000e+00 +9.9999998834446580e-01
2.7999999999999980e+00 +8.2847823953249069e+00 +0.0000000000000000e+00 +2.7999999887250175e+00 -1.5545740076915984e-04 +0.0000000000000000e+00 +9.9999998791649802e-01
2.8499999999999979e+00 +8.2847745530085142e+00 +0.0000000000000000e+00 +2.8499999881099822e+00 -1.5823527072836372e-04 +0.0000000000000000e+00 +9.9999998748079932e-01
2.8999999999999977e+00 +8.2847665717962435e+00 +0.0000000000000000e+00 +2.8999999874729685e+00 -1.6101323615509407e-04 +0.0000000000000000e+00 +9.9999998703736870e-01
2.9499999999999975e+00 +8.2847584516832846e+00 +0.0000000000000000e+00 +2.9499999868135900e+00 -1.6379129850790469e-04 +0.0000000000000000e+00 +9.9999998658620504e-01
2.9999999999999973e+00 +8.2847501926647542e+00 +0.0000000000000000e+00 +2.9999999861314599e+00 -1.6656945923498423e-04 +0.0000000000000000e+00 +9.9999998612730734e-01
3.0499999999999972e+00 +8.2847417947356981e+00 +0.0000000000000000e+00 +3.0499999854261919e+00 -1.6934771977415619e-04 +0.0000000000000000e+00 +9.9999998566067461e-01
3.0999999999999970e+00 +8.2847332578910891e+00 +0.0000000000000000e+00 +3.0999999846973987e+00 -1.7212608155287902e-04 +0.0000000000000000e+00 +9.9999998518630573e-01
3.1499999999999968e+00 +8.2847245821258308e+00 +0.0000000000000000e+00 +3.1499999839446935e+00 -1.7490454598824610e-04 +0.0000000000000000e+00 +9.9999998470419960e-01
3.1999999999999966e+00 +8.2847157674347560e+00 +0.0000000000000000e+00 +3.1999999831676895e+00 -1.7768311448698580e-04 +0.0000000000000000e+00 +9.9999998421435510e-01
3.2499999999999964e+00 +8.2847068138126243e+00 +0.0000000000000000e+00 +3.2499999823660000e+00 -1.8046178844546151e-04 +0.0000000000000000e+00 +9.9999998371677112e-01
3.2999999999999963e+00 +8.2846977212541297e+00 +0.0000000000000000e+00 +3.2999999815392376e+00 -1.8324056924967167e-04 +0.0000000000000000e+00 +9.9999998321144656e-01
3.3499999999999961e+00 +8.2846884897538953e+00 +0.0000000000000000e+00 +3.3499999806870155e+00 -1.8601945827524975e-04 +0.0000000000000000e+00 +9.9999998269838020e-01
3.3999999999999959e+00 +8.2846791193064764e+00 +0.0000000000000000e+00 +3.3999999798089466e+00 -1.8879845688746436e-04 +0.0000000000000000e+00 +9.9999998217757091e-01
3.4499999999999957e+00 +8.2846696099063575e+00 +0.0000000000000000e+00 +3.4499999789046436e+00 -1.9157756644121925e-04 +0.0000000000000000e+00 +9.9999998164901760e-01
3.4999999999999956e+00 +8.2846599615479608e+00 +0.0000000000000000e+00 +3.4999999779737192e+00 -1.9435678828105327e-04 +0.0000000000000000e+00 +9.9999998111271904e-01
3.5499999999999954e+00 +8.2846501742256358e+00 +0.0000000000000000e+00 +3.5499999770157862e+00 -1.9713612374114048e-04 +0.0000000000000000e+00 +9.9999998056867401e-01
3.5999999999999952e+00 +8.2846402479336696e+00 +0.0000000000000000e+00 +3.5999999760304573e+00 -1.9991557414529012e-04 +0.0000000000000000e+00 +9.9999998001688128e-01
3.6499999999999950e+00 +8.2846301826662820e+00 +0.0000000000000000e+00 +3.6499999750173453e+00 -2.0269514080694667e-04 +0.0000000000000000e+00 +9.9999997945733965e-01
3.6999999999999948e+00 +8.2846199784176289e+00 +0.0000000000000000e+00 +3.6999999739760621e+00 -2.0547482502918983e-04 +0.0000000000000000e+00 +9.9999997889004788e-01
3.7499999999999947e+00 +8.2846096351817984e+00 +0.0000000000000000e+00 +3.7499999729062208e+00 -2.0825462810473459e-04 +0.0000000000000000e+00 +9.9999997831500465e-01
3.7999999999999945e+00 +8.2845991529528167e+00 +0.0000000000000000e+00 +3.7999999718074333e+00 -2.1103455131593119e-04 +0.0000000000000000e+00 +9.9999997773220872e-01
3.8499999999999943e+00 +8.2845885317246442e+00 +0.0000000000000000e+00 +3.8499999706793124e+00 -2.1381459593476515e-04 +0.0000000000000000e+00 +9.9999997714165889e-01
3.8999999999999941e+00 +8.2845777714911790e+00 +0.0000000000000000e+00 +3.8999999695214700e+00 -2.1659476322285736e-04 +0.0000000000000000e+00 +9.9999997654335382e-01
3.9499999999999940e+00 +8.2845668722462573e+00 +0.0000000000000000e+00 +3.9499999683335183e+00 -2.1937505443146398e-04 +0.0000000000000000e+00 +9.9999997593729228e-01
3.9999999999999938e+00 +8.2845558339836511e+00 +0.0000000000000000e+00 +3.9999999671150697e+00 -2.2215547080147656e-04 +0.0000000000000000e+00 +9.9999997532347296e-01
4.0499999999999936e+00 +8.2845446566970704e+00 +0.0000000000000000e+00 +4.0499999658657364e+00 -2.2493601356334166e-04 +0.0000000000000000e+00 +9.9999997470189439e-01
4.0999999999999934e+00 +8.2845333403801664e+00 +0.0000000000000000e+00 +4.0999999645851304e+00 -2.2771668393617751e-04 +0.0000000000000000e+00 +9.9999997407255536e-01
4.1499999999999932e+00 +8.2845218850265283e+00 +0.0000000000000000e+00 +4.1499999632728626e+00 -2.3049748312689057e-04 +0.0000000000000000e+00 +9.9999997343545455e-01
4.1999999999999931e+00 +8.2845102906296866e+00 +0.0000000000000000e+00 +4.1999999619285457e+00 -2.3327841233009532e-04 +0.0000000000000000e+00 +9.9999997279059061e-01
4.2499999999999929e+00 +8.2844985571831096e+00 +0.0000000000000000e+00 +4.2499999605517917e+00 -2.3605947272811417e-04 +0.0000000000000000e+00 +9.9999997213796210e-01
4.2999999999999927e+00 +8.2844866846802088e+00 +0.0000000000000000e+00 +4.2999999591422124e+00 -2.3884066549097752e-04 +0.0000000000000000e+00 +9.9999997147756770e-01
4.3499999999999925e+00 +8.2844746731143353e+00 +0.0000000000000000e+00 +4.3499999576994188e+00 -2.4162199177642379e-04 +0.0000000000000000e+00 +9.9999997080940595e-01
4.3999999999999924e+00 +8.2844625224787869e+00 +0.0000000000000000e+00 +4.3999999562230236e+00 -2.4440345272989933e-04 +0.0000000000000000e+00 +9.9999997013347552e-01
4.4499999999999922e+00 +8.2844502327667993e+00 +0.0000000000000000e+00 +4.4499999547126370e+00 -2.4718504948455857e-04 +0.0000000000000000e+00 +9.9999996944977498e-01
4.4999999999999920e+00 +8.2844378039715565e+00 +0.0000000000000000e+00 +4.4999999531678716e+00 -2.4996678316126393e-04 +0.0000000000000000e+00 +9.9999996875830299e-01
4.5499999999999918e+00 +8.2844252360861823e+00 +0.0000000000000000e+00 +4.5499999515883376e+00 -2.5274865486858575e-04 +0.0000000000000000e+00 +9.9999996805905800e-01
4.5999999999999917e+00 +8.2844125291037507e+00 +0.0000000000000000e+00 +4.5999999499736477e+00 -2.5553066570280247e-04 +0.0000000000000000e+00 +9.9999996735203867e-01
4.6499999999999915e+00 +8.2843996830172753e+00 +0.0000000000000000e+00 +4.6499999483234120e+00 -2.5831281674790056e-04 +0.0000000000000000e+00 +9.9999996663724355e-01
4.6999999999999913e+00 +8.2843866978197198e+00 +0.0000000000000000e+00 +4.6999999466372424e+00 -2.6109510907557440e-04 +0.0000000000000000e+00 +9.9999996591467122e-01
4.7499999999999911e+00 +8.2843735735039949e+00 +0.0000000000000000e+00 +4.7499999449147499e+00 -2.6387754374522645e-04 +0.0000000000000000e+00 +9.9999996518432011e-01
4.7999999999999909e+00 +8.2843603100629561e+00 +0.0000000000000000e+00 +4.7999999431555453e+00 -2.6666012180396719e-04 +0.0000000000000000e+00 +9.9999996444618888e-01
4.8499999999999908e+00 +8.2843469074894074e+00 +0.0000000000000000e+00 +4.8499999413592398e+00 -2.6944284428661507e-04 +0.0000000000000000e+00 +9.9999996370027600e-01
4.8999999999999906e+00 +8.2843333657761029e+00 +0.0000000000000000e+00 +4.8999999395254434e+00 -2.7222571221569654e-04 +0.0000000000000000e+00 +9.9999996294657989e-01
4.9499999999999904e+00 +8.2843196849157454e+00 +0.0000000000000000e+00 +4.9499999376537680e+00 -2.7500872660144604e-04 +0.0000000000000000e+00 +9.9999996218509923e-01
4.9999999999999902e+00 +8.2843058649009862e+00 +0.0000000000000000e+00 +4.9999999357438236e+00 -2.7779188844180602e-04 +0.0000000000000000e+00 +9.9999996141583236e-01
5.0499999999999901e+00 +8.2842919057244284e+00 +0.0000000000000000e+00 +5.0499999337952213e+00 -2.8057519872242689e-04 +0.0000000000000000e+00 +9.9999996063877794e-01
5.0999999999999899e+00 +8.2842778073786238e+00 +0.0000000000000000e+00 +5.0999999318075719e+00 -2.8335865841666699e-04 +0.0000000000000000e+00 +9.9999995985393431e-01
5.1499999999999897e+00 +8.2842635698560798e+00 +0.0000000000000000e+00 +5.1499999297804848e+00 -2.8614226848559267e-04 +0.0000000000000000e+00 +9.9999995906130001e-01
5.1999999999999895e+00 +8.2842491931492539e+00 +0.0000000000000000e+00 +5.1999999277135718e+00 -2.8892602987797824e-04 +0.0000000000000000e+00 +9.9999995826087351e-01
5.2499999999999893e+00 +8.2842346772505557e+00 +0.0000000000000000e+00 +5.2499999256064420e+00 -2.9170994353030588e-04 +0.0000000000000000e+00 +9.9999995745265324e-01
5.2999999999999892e+00 +8.2842200221523488e+00 +0.0000000000000000e+00 +5.2999999234587065e+00 -2.9449401036676578e-04 +0.0000000000000000e+00 +9.9999995663663777e-01
5.3499999999999890e+00 +8.2842052278469502e+00 +0.0000000000000000e+00 +5.3499999212699754e+00 -2.9727823129925595e-04 +0.0000000000000000e+00 +9.9999995581282541e-01
5.3999999999999888e+00 +8.2841902943266348e+00 +0.0000000000000000e+00 +5.3999999190398587e+00 -3.0006260722738228e-04 +0.0000000000000000e+00 +9.9999995498121463e-01
5.4499999999999886e+00 +8.2841752215836291e+00 +0.0000000000000000e+00 +5.4499999167679665e+00 -3.0284713903845867e-04 +0.0000000000000000e+00 +9.9999995414180387e-01
5.4999999999999885e+00 +8.2841600096101171e+00 +0.0000000000000000e+00 +5.4999999144539089e+00 -3.0563182760750667e-04 +0.0000000000000000e+00 +9.9999995329459157e-01
5.5499999999999883e+00 +8.2841446583982403e+00 +0.0000000000000000e+00 +5.5499999120972960e+00 -3.0841667379725583e-04 +0.0000000000000000e+00 +9.9999995243957618e-01
5.5999999999999881e+00 +8.2841291679400957e+00 +0.0000000000000000e+00 +5.5999999096977371e+00 -3.1120167845814350e-04 +0.0000000000000000e+00 +9.9999995157675614e-01
5.6499999999999879e+00 +8.2841135382277393e+00 +0.0000000000000000e+00 +5.6499999072548421e+00 -3.1398684242831470e-04 +0.0000000000000000e+00 +9.9999995070612979e-01
5.6999999999999877e+00 +8.2840977692531848e+00 +0.0000000000000000e+00 +5.6999999047682204e+00 -3.1677216653362234e-04 +0.0000000000000000e+00 +9.9999994982769558e-01
5.7499999999999876e+00 +8.2840818610084046e+00 +0.0000000000000000e+00 +5.7499999022374819e+00 -3.1955765158762705e-04 +0.0000000000000000e+00 +9.9999994894145194e-01
5.7999999999999874e+00 +8.2840658134853307e+00 +0.0000000000000000e+00 +5.7999998996622359e+00 -3.2234329839159718e-04 +0.0000000000000000e+00 +9.9999994804739722e-01
5.8499999999999872e+00 +8.2840496266758556e+00 +0.0000000000000000e+00 +5.8499998970420917e+00 -3.2512910773450877e-04 +0.0000000000000000e+00 +9.9999994714552987e-01
5.8999999999999870e+00 +8.2840333005718350e+00 +0.0000000000000000e+00 +5.8999998943766583e+00 -3.2791508039304549e-04 +0.0000000000000000e+00 +9.9999994623584820e-01
