# field on trajectory
# s[mm] rx[mm] ry[mm] rz[mm] bx[T] by[T] bz[T]
-0.0000000000000000e+00 +8.5270000000000206e+00 +0.0000000000000000e+00 -0.0000000000000000e+00 -2.7921811230915566e-02 -5.2381291265631713e-01 +5.0963850220197976e-03
-5.0000000000000003e-02 +8.5269999273587000e+00 +0.0000000000000000e+00 -5.1282051281982703e-02 -2.7921624491939769e-02 -5.2381341812959881e-01 +5.0961786562818967e-03
-1.0000000000000001e-01 +8.5269997094401297e+00 +0.0000000000000000e+00 -1.0256410256355400e-01 -2.7921457592232784e-02 -5.2381430072430868e-01 +5.0959745362810652e-03
-1.4999999999999999e-01 +8.5269993462388793e+00 +0.0000000000000000e+00 -1.5384615384430200e-01 -2.7921310566261525e-02 -5.2381555958313242e-01 +5.0957726665053667e-03
-2.0000000000000001e-01 +8.5269988377622195e+00 +0.0000000000000000e+00 -2.0512820512381499e-01 -2.7921183448489567e-02 -5.2381719384868664e-01 +5.0955730514422167e-03
-2.5000000000000000e-01 +8.5269981840028795e+00 +0.0000000000000000e+00 -2.5641025640168202e-01 -2.7921076273387163e-02 -5.2381920266370541e-01 +5.0953756955801326e-03
-2.9999999999999999e-01 +8.5269973849644902e+00 +0.0000000000000000e+00 -3.0769230767749101e-01 -2.7920989075421832e-02 -5.2382158517086441e-01 +5.0951806034070634e-03
-3.4999999999999998e-01 +8.5269964406470500e+00 +0.0000000000000000e+00 -3.5897435895083102e-01 -2.7920921889063748e-02 -5.2382434051288196e-01 +5.0949877794113189e-03
-4.0000000000000002e-01 +8.5269953510505694e+00 +0.0000000000000000e+00 -4.1025641022129000e-01 -2.7920874748784328e-02 -5.2382746783249345e-01 +5.0947972280813219e-03
-4.5000000000000001e-01 +8.5269941161714105e+00 +0.0000000000000000e+00 -4.6153846148845601e-01 -2.7920847689057626e-02 -5.2383096627247627e-01 +5.0946089539058367e-03
-5.0000000000000000e-01 +8.5269927360132005e+00 +0.0000000000000000e+00 -5.1282051275191798e-01 -2.7920840744356280e-02 -5.2383483497557459e-01 +5.0944229613732305e-03
-5.5000000000000004e-01 +8.5269912105795793e+00 +0.0000000000000000e+00 -5.6410256401126402e-01 -2.7920853949154185e-02 -5.2383907308455002e-01 +5.0942392549719389e-03
-5.9999999999999998e-01 +8.5269895398632798e+00 +0.0000000000000000e+00 -6.1538461526608301e-01 -2.7920887337930439e-02 -5.2384367974225565e-01 +5.0940578391911653e-03
-6.5000000000000002e-01 +8.5269877238679292e+00 +0.0000000000000000e+00 -6.6666666651596296e-01 -2.7920940945161406e-02 -5.2384865409148607e-01 +5.0938787185194397e-03
-6.9999999999999996e-01 +8.5269857625899004e+00 +0.0000000000000000e+00 -7.1794871776049296e-01 -2.7921014805327344e-02 -5.2385399527510301e-01 +5.0937018974457982e-03
-7.5000000000000000e-01 +8.5269836560364602e+00 +0.0000000000000000e+00 -7.6923076899926102e-01 -2.7921108952905681e-02 -5.2385970243590962e-01 +5.0935273804585653e-03
-8.0000000000000004e-01 +8.5269814042003400e+00 +0.0000000000000000e+00 -8.2051282023185501e-01 -2.7921223422380403e-02 -5.2386577471682561e-01 +5.0933551720470163e-03
-8.4999999999999998e-01 +8.5269790070851705e+00 +0.0000000000000000e+00 -8.7179487145786405e-01 -2.7921358248232671e-02 -5.2387221126071171e-01 +5.0931852766996988e-03
-9.0000000000000002e-01 +8.5269764646909607e+00 +0.0000000000000000e+00 -9.2307692267687602e-01 -2.7921513464946163e-02 -5.2387901121047109e-01 +5.0930176989053590e-03
-9.4999999999999996e-01 +8.5269737770140601e+00 +0.0000000000000000e+00 -9.7435897388848103e-01 -2.7921689107007049e-02 -5.2388617370904733e-01 +5.0928524431529364e-03
-1.0000000000000000e+00 +8.5269709440617607e+00 +0.0000000000000000e+00 -1.0256410250922601e+00 -2.7921885208898649e-02 -5.2389369789932561e-01 +5.0926895139305952e-03
-1.0500000000000000e+00 +8.5269679658304103e+00 +0.0000000000000000e+00 -1.0769230762878199e+00 -2.7922101805109442e-02 -5.2390158292428157e-01 +5.0925289157271320e-03
-1.1000000000000001e+00 +8.5269648423163709e+00 +0.0000000000000000e+00 -1.1282051274747300e+00 -2.7922338930129059e-02 -5.2390982792690854e-01 +5.0923706530312599e-03
-1.1499999999999999e+00 +8.5269615735232893e+00 +0.0000000000000000e+00 -1.1794871786525800e+00 -2.7922596618445556e-02 -5.2391843205016431e-01 +5.0922147303311058e-03
-1.2000000000000000e+00 +8.5269581594511692e+00 +0.0000000000000000e+00 -1.2307692298209700e+00 -2.7922874904549425e-02 -5.2392739443704806e-01 +5.0920611521149120e-03
-1.2500000000000000e+00 +8.5269546000999998e+00 +0.0000000000000000e+00 -1.2820512809794800e+00 -2.7923173822932301e-02 -5.2393671423057508e-01 +5.0919099228707862e-03
-1.3000000000000000e+00 +8.5269508954661397e+00 +0.0000000000000000e+00 -1.3333333321277101e+00 -2.7923493408088237e-02 -5.2394639057380166e-01 +5.0917610470869318e-03
-1.3500000000000001e+00 +8.5269470455568808e+00 +0.0000000000000000e+00 -1.3846153832652299e+00 -2.7923833694508359e-02 -5.2395642260972419e-01 +5.0916145292506706e-03
-1.3999999999999999e+00 +8.5269430503649293e+00 +0.0000000000000000e+00 -1.4358974343916400e+00 -2.7924194716690193e-02 -5.2396680948145491e-01 +5.0914703738500879e-03
-1.4500000000000000e+00 +8.5269389098939392e+00 +0.0000000000000000e+00 -1.4871794855065199e+00 -2.7924576509128322e-02 -5.2397755033204685e-01 +5.0913285853723773e-03
-1.5000000000000000e+00 +8.5269346241439106e+00 +0.0000000000000000e+00 -1.5384615366094700e+00 -2.7924979106319740e-02 -5.2398864430459335e-01 +5.0911891683047515e-03
-1.5500000000000000e+00 +8.5269301931148203e+00 +0.0000000000000000e+00 -1.5897435877000701e+00 -2.7925402542762465e-02 -5.2400009054220331e-01 +5.0910521271342081e-03
-1.6000000000000001e+00 +8.5269256168030605e+00 +0.0000000000000000e+00 -1.6410256387779201e+00 -2.7925846852956866e-02 -5.2401188818802613e-01 +5.0909174663477403e-03
-1.6499999999999999e+00 +8.5269208952158806e+00 +0.0000000000000000e+00 -1.6923076898425899e+00 -2.7926312071400367e-02 -5.2402403638515083e-01 +5.0907851904313786e-03
-1.7000000000000000e+00 +8.5269160283460206e+00 +0.0000000000000000e+00 -1.7435897408936800e+00 -2.7926798232596708e-02 -5.2403653427678232e-01 +5.0906553038718412e-03
-1.7500000000000000e+00 +8.5269110161934805e+00 +0.0000000000000000e+00 -1.7948717919307799e+00 -2.7927305371047956e-02 -5.2404938100609044e-01 +5.0905278111550867e-03
-1.8000000000000000e+00 +8.5269058587655309e+00 +0.0000000000000000e+00 -1.8461538429534701e+00 -2.7927833521254525e-02 -5.2406257571620996e-01 +5.0904027167663034e-03
-1.8500000000000001e+00 +8.5269005560585391e+00 +0.0000000000000000e+00 -1.8974358939613500e+00 -2.7928382717721793e-02 -5.2407611755036587e-01 +5.0902800251910853e-03
-1.8999999999999999e+00 +8.5268951080688602e+00 +0.0000000000000000e+00 -1.9487179449540000e+00 -2.7928952994956086e-02 -5.2409000565179775e-01 +5.0901597409147006e-03
-1.9500000000000000e+00 +8.5268895148037700e+00 +0.0000000000000000e+00 -1.9999999959310100e+00 -2.7929544387460752e-02 -5.2410423916368543e-01 +5.0900418684213661e-03
-2.0000000000000000e+00 +8.5268838253941794e+00 +0.0000000000000000e+00 -2.0508474532398102e+00 -2.7930151597287619e-02 -5.2411869204761896e-01 +5.0899273700011358e-03
-2.0499999999999998e+00 +8.5268779929429002e+00 +0.0000000000000000e+00 -2.1016949105324101e+00 -2.7930779318627013e-02 -5.2413348167078333e-01 +5.0898151885733914e-03
-2.1000000000000001e+00 +8.5268720174499304e+00 +0.0000000000000000e+00 -2.1525423678083899e+00 -2.7931427270086108e-02 -5.2414860603236402e-01 +5.0897052656289380e-03
-2.1499999999999999e+00 +8.5268658989189099e+00 +0.0000000000000000e+00 -2.2033898250673700e+00 -2.7932095170270971e-02 -5.2416406313153330e-01 +5.0895975426583145e-03
-2.2000000000000002e+00 +8.5268596373498404e+00 +0.0000000000000000e+00 -2.2542372823089400e+00 -2.7932782737789128e-02 -5.2417985096749908e-01 +5.0894919611522592e-03
-2.2500000000000000e+00 +8.5268532327390893e+00 +0.0000000000000000e+00 -2.3050847395326799e+00 -2.7933489691249556e-02 -5.2419596753950548e-01 +5.0893884626017263e-03
-2.2999999999999998e+00 +8.5268466850902804e+00 +0.0000000000000000e+00 -2.3559321967382099e+00 -2.7934215749258643e-02 -5.2421241084675751e-01 +5.0892869884971792e-03
-2.3500000000000001e+00 +8.5268399943961395e+00 +0.0000000000000000e+00 -2.4067796539251201e+00 -2.7934960630426754e-02 -5.2422917888854548e-01 +5.0891874803297675e-03
-2.3999999999999999e+00 +8.5268331606675893e+00 +0.0000000000000000e+00 -2.4576271110930099e+00 -2.7935724053357525e-02 -5.2424626966404375e-01 +5.0890898795894392e-03
-2.4500000000000002e+00 +8.5268261838973594e+00 +0.0000000000000000e+00 -2.5084745682414700e+00 -2.7936505736661194e-02 -5.2426368117256317e-01 +5.0889941277673456e-03
-2.5000000000000000e+00 +8.5268190640890698e+00 +0.0000000000000000e+00 -2.5593220253701001e+00 -2.7937305398943860e-02 -5.2428141141334850e-01 +5.0889001663539084e-03
-2.5499999999999998e+00 +8.5268118012427294e+00 +0.0000000000000000e+00 -2.6101694824785100e+00 -2.7938122758812738e-02 -5.2429945838567915e-01 +5.0888079368397975e-03
-2.6000000000000001e+00 +8.5268043953510606e+00 +0.0000000000000000e+00 -2.6610169395662799e+00 -2.7938957534877525e-02 -5.2431782008889405e-01 +5.0887173807161821e-03
-2.6499999999999999e+00 +8.5267968464213499e+00 +0.0000000000000000e+00 -2.7118643966330200e+00 -2.7939809445742238e-02 -5.2433649452224051e-01 +5.0886284394732811e-03
-2.7000000000000002e+00 +8.5267891544535797e+00 +0.0000000000000000e+00 -2.7627118536783102e+00 -2.7940678210013233e-02 -5.2435547968502527e-01 +5.0885410546018216e-03
-2.7500000000000000e+00 +8.5267813194441295e+00 +0.0000000000000000e+00 -2.8135593107017698e+00 -2.7941563546297846e-02 -5.2437477357658824e-01 +5.0884551675927977e-03
-2.7999999999999998e+00 +8.5267733413966198e+00 +0.0000000000000000e+00 -2.8644067677029899e+00 -2.7942465173200270e-02 -5.2439437419622781e-01 +5.0883707199367544e-03
-2.8500000000000001e+00 +8.5267652203074196e+00 +0.0000000000000000e+00 -2.9152542246815600e+00 -2.7943382809326935e-02 -5.2441427954330122e-01 +5.0882876531247656e-03
-2.8999999999999999e+00 +8.5267569561765395e+00 +0.0000000000000000e+00 -2.9661016816370900e+00 -2.7944316173282347e-02 -5.2443448761714695e-01 +5.0882059086477050e-03
-2.9500000000000002e+00 +8.5267485490112396e+00 +0.0000000000000000e+00 -3.0169491385691698e+00 -2.7945264983667790e-02 -5.2445499641706250e-01 +5.0881254279960134e-03
-3.0000000000000000e+00 +8.5267399988042598e+00 +0.0000000000000000e+00 -3.0677965954773900e+00 -2.7946228959089280e-02 -5.2447580394245263e-01 +5.0880461526611595e-03
-3.0499999999999998e+00 +8.5267313055555896e+00 +0.0000000000000000e+00 -3.1186440523613599e+00 -2.7947207818149428e-02 -5.2449690819267902e-01 +5.0879680241341851e-03
-3.1000000000000001e+00 +8.5267224692688597e+00 +0.0000000000000000e+00 -3.1694915092206801e+00 -2.7948201279448848e-02 -5.2451830716708514e-01 +5.0878909839059622e-03
-3.1499999999999999e+00 +8.5267134899368102e+00 +0.0000000000000000e+00 -3.2203389660549400e+00 -2.7949209061591356e-02 -5.2453999886509717e-01 +5.0878149734681589e-03
-3.2000000000000002e+00 +8.5267043675703498e+00 +0.0000000000000000e+00 -3.2711864228637300e+00 -2.7950230883173215e-02 -5.2456198128602127e-01 +5.0877399343113167e-03
-3.2500000000000000e+00 +8.5266951021658297e+00 +0.0000000000000000e+00 -3.3220338796466700e+00 -2.7951266462795245e-02 -5.2458425242927131e-01 +5.0876658079270264e-03
-3.2999999999999998e+00 +8.5266856937196298e+00 +0.0000000000000000e+00 -3.3728813364033301e+00 -2.7952315519057282e-02 -5.2460681029426681e-01 +5.0875925358069658e-03
-3.3500000000000001e+00 +8.5266761422317394e+00 +0.0000000000000000e+00 -3.4237287931333298e+00 -2.7953377770556904e-02 -5.2462965288040786e-01 +5.0875200594426738e-03
-3.3999999999999999e+00 +8.5266664477057894e+00 +0.0000000000000000e+00 -3.4745762498362600e+00 -2.7954452935889284e-02 -5.2465277818707556e-01 +5.0874483203255478e-03
-3.4500000000000002e+00 +8.5266566101381596e+00 +0.0000000000000000e+00 -3.5254237065117100e+00 -2.7955540733651228e-02 -5.2467618421370588e-01 +5.0873772599475675e-03
-3.5000000000000000e+00 +8.5266466295324808e+00 +0.0000000000000000e+00 -3.5762711631592898e+00 -2.7956640882435740e-02 -5.2469986895969045e-01 +5.0873068198003472e-03
-3.5499999999999998e+00 +8.5266365058887494e+00 +0.0000000000000000e+00 -3.6271186197785901e+00 -2.7957753100835994e-02 -5.2472383042445048e-01 +5.0872369413758629e-03
-3.6000000000000001e+00 +8.5266262391996896e+00 +0.0000000000000000e+00 -3.6779660763692101e+00 -2.7958877107446659e-02 -5.2474806660746265e-01 +5.0871675661666943e-03
-3.6499999999999999e+00 +8.5266158294762100e+00 +0.0000000000000000e+00 -3.7288135329307499e+00 -2.7960012620854412e-02 -5.2477257550808198e-01 +5.0870986356643423e-03
-3.6999999999999900e+00 +8.5266052767074108e+00 +0.0000000000000000e+00 -3.7796609894627999e+00 -2.7961159359652644e-02 -5.2479735512581882e-01 +5.0870300913618939e-03
-3.7499999999999898e+00 +8.5265945809042005e+00 +0.0000000000000000e+00 -3.8305084459649699e+00 -2.7962317042425369e-02 -5.2482240346003650e-01 +5.0869618747511232e-03
-3.7999999999999901e+00 +8.5265837420592998e+00 +0.0000000000000000e+00 -3.8813559024368498e+00 -2.7963485387761892e-02 -5.2484771851022805e-01 +5.0868939273251614e-03
-3.8499999999999899e+00 +8.5265727601727104e+00 +0.0000000000000000e+00 -3.9322033588780299e+00 -2.7964664114247396e-02 -5.2487329827583973e-01 +5.0868261905768096e-03
-3.8999999999999901e+00 +8.5265616352480702e+00 +0.0000000000000000e+00 -3.9830508152881201e+00 -2.7965852940464171e-02 -5.2489914075629618e-01 +5.0867586059987766e-03
-3.9499999999999900e+00 +8.5265503672853793e+00 +0.0000000000000000e+00 -4.0338982716667102e+00 -2.7967051599520926e-02 -5.2492524391316586e-01 +5.0866911189320274e-03
-3.9999999999999898e+00 +8.5265389562773599e+00 +0.0000000000000000e+00 -4.0847457280134103e+00 -2.7968259993399993e-02 -5.2495160526767037e-01 +5.0866237194493848e-03
-4.0499999999999901e+00 +8.5265274022313005e+00 +0.0000000000000000e+00 -4.1355931843278002e+00 -2.7969478133028813e-02 -5.2497822205680189e-01 +5.0865564264814906e-03
-4.0999999999999899e+00 +8.5265157051508105e+00 +0.0000000000000000e+00 -4.1864406406094901e+00 -2.7970706031153113e-02 -5.2500509151284480e-01 +5.0864892594399639e-03
-4.1499999999999897e+00 +8.5265038650250098e+00 +0.0000000000000000e+00 -4.2372880968580704e+00 -2.7971943700525140e-02 -5.2503221086818586e-01 +5.0864222377371470e-03
-4.1999999999999904e+00 +8.5264918818611495e+00 +0.0000000000000000e+00 -4.2881355530731398e+00 -2.7973191153891630e-02 -5.2505957735508657e-01 +5.0863553807839017e-03
-4.2499999999999902e+00 +8.5264797556556005e+00 +0.0000000000000000e+00 -4.3389830092543002e+00 -2.7974448404004520e-02 -5.2508718820588596e-01 +5.0862887079915469e-03
-4.2999999999999901e+00 +8.5264674864120007e+00 +0.0000000000000000e+00 -4.3898304654011504e+00 -2.7975715463614374e-02 -5.2511504065287307e-01 +5.0862222387706504e-03
-4.3499999999999899e+00 +8.5264550741303502e+00 +0.0000000000000000e+00 -4.4406779215132799e+00 -2.7976992345474353e-02 -5.2514313192836282e-01 +5.0861559925317315e-03
-4.3999999999999897e+00 +8.5264425188070199e+00 +0.0000000000000000e+00 -4.4915253775902899e+00 -2.7978279062340322e-02 -5.2517145926469655e-01 +5.0860899886852650e-03
-4.4499999999999904e+00 +8.5264298204419902e+00 +0.0000000000000000e+00 -4.5423728336317897e+00 -2.7979575626968151e-02 -5.2520001989418952e-01 +5.0860242466411847e-03
-4.4999999999999902e+00 +8.5264169790425495e+00 +0.0000000000000000e+00 -4.5932202896373502e+00 -2.7980882052112410e-02 -5.2522881104910679e-01 +5.0859587858086324e-03
-4.5499999999999901e+00 +8.5264039945941494e+00 +0.0000000000000000e+00 -4.6440677456066002e+00 -2.7982198350537234e-02 -5.2525782996186510e-01 +5.0858936255979027e-03
-4.5999999999999899e+00 +8.5263908671149693e+00 +0.0000000000000000e+00 -4.6949152015391098e+00 -2.7983524534996040e-02 -5.2528707386465223e-01 +5.0858287854167765e-03
-4.6499999999999897e+00 +8.5263775965941004e+00 +0.0000000000000000e+00 -4.7457626574344998e+00 -2.7984860618254583e-02 -5.2531653998985850e-01 +5.0857642846746523e-03
-4.6999999999999904e+00 +8.5263641830315500e+00 +0.0000000000000000e+00 -4.7966101132923500e+00 -2.7986206613076114e-02 -5.2534622556979693e-01 +5.0857001427798672e-03
-4.7499999999999902e+00 +8.5263506264309399e+00 +0.0000000000000000e+00 -4.8474575691122697e+00 -2.7987562532224109e-02 -5.2537612783675358e-01 +5.0856363791401777e-03
-4.7999999999999901e+00 +8.5263369267886393e+00 +0.0000000000000000e+00 -4.8983050248938502e+00 -2.7988928388466384e-02 -5.2540624402306391e-01 +5.0855730131634741e-03
-4.8499999999999899e+00 +8.5263230841010191e+00 +0.0000000000000000e+00 -4.9491524806366902e+00 -2.7990304194572373e-02 -5.2543657136106159e-01 +5.0855100642572936e-03
-4.8999999999999897e+00 +8.5263090983826295e+00 +0.0000000000000000e+00 -4.9999999363403900e+00 -2.7991689963306473e-02 -5.2546710708295152e-01 +5.0854475518275896e-03
-4.9499999999999904e+00 +8.5262950649157592e+00 +0.0000000000000000e+00 -5.0505049848957304e+00 -2.7993076275226399e-02 -5.2549764072952454e-01 +5.0853859116250589e-03
-4.9999999999999902e+00 +8.5262808896768494e+00 +0.0000000000000000e+00 -5.1010100334114901e+00 -2.7994472441412181e-02 -5.2552837452482382e-01 +5.0853247402474037e-03
-5.0499999999999901e+00 +8.5262665726659197e+00 +0.0000000000000000e+00 -5.1515150818872497e+00 -2.7995878474382663e-02 -5.2555930575668730e-01 +5.0852640567110525e-03
-5.0999999999999899e+00 +8.5262521138793108e+00 +0.0000000000000000e+00 -5.2020201303226203e+00 -2.7997294386659856e-02 -5.2559043171297759e-01 +5.0852038800322961e-03
-5.1499999999999897e+00 +8.5262375133206696e+00 +0.0000000000000000e+00 -5.2525251787172103e+00 -2.7998720190764891e-02 -5.2562174968150299e-01 +5.0851442292265472e-03
-5.1999999999999904e+00 +8.5262227709863492e+00 +0.0000000000000000e+00 -5.3030302270706198e+00 -2.8000155899223455e-02 -5.2565325695011855e-01 +5.0850851233093112e-03
-5.2499999999999902e+00 +8.5262078868836397e+00 +0.0000000000000000e+00 -5.3535352753824403e+00 -2.8001601524559060e-02 -5.2568495080659927e-01 +5.0850265812949578e-03
-5.2999999999999901e+00 +8.5261928610125306e+00 +0.0000000000000000e+00 -5.4040403236522803e+00 -2.8003057079299849e-02 -5.2571682853876844e-01 +5.0849686221979360e-03
-5.3499999999999899e+00 +8.5261776933584805e+00 +0.0000000000000000e+00 -5.4545453718797399e+00 -2.8004522575981367e-02 -5.2574888743454573e-01 +5.0849112650332489e-03
-5.3999999999999897e+00 +8.5261623839360308e+00 +0.0000000000000000e+00 -5.5050504200644301e+00 -2.8005998027130320e-02 -5.2578112478164385e-01 +5.0848545288135292e-03
-5.4499999999999904e+00 +8.5261469327415398e+00 +0.0000000000000000e+00 -5.5555554682059496e+00 -2.8007483445282196e-02 -5.2581353786789742e-01 +5.0847984325521943e-03
-5.4999999999999902e+00 +8.5261313397750200e+00 +0.0000000000000000e+00 -5.6060605163038897e+00 -2.8008978842973226e-02 -5.2584612398111208e-01 +5.0847429952619811e-03
-5.5499999999999901e+00 +8.5261156050328299e+00 +0.0000000000000000e+00 -5.6565655643578596e+00 -2.8010484232743077e-02 -5.2587888040911246e-01 +5.0846882359554223e-03
-5.5999999999999899e+00 +8.5260997285186004e+00 +0.0000000000000000e+00 -5.7070706123674597e+00 -2.8011999627130857e-02 -5.2591180443966778e-01 +5.0846341736441149e-03
-5.6499999999999897e+00 +8.5260837102287006e+00 +0.0000000000000000e+00 -5.7575756603323001e+00 -2.8013525038680549e-02 -5.2594489336059302e-01 +5.0845808273396759e-03
-5.6999999999999904e+00 +8.5260675501704100e+00 +0.0000000000000000e+00 -5.8080807082519703e+00 -2.8015060479934278e-02 -5.2597814445961977e-01 +5.0845282160525323e-03
-5.7499999999999902e+00 +8.5260512483400799e+00 +0.0000000000000000e+00 -5.8585857561260797e+00 -2.8016605963440504e-02 -5.2601155502455188e-01 +5.0844763587933623e-03
-5.7999999999999901e+00 +8.5260348047340795e+00 +0.0000000000000000e+00 -5.9090908039542303e+00 -2.8018161501749926e-02 -5.2604512234318512e-01 +5.0844252745723701e-03
-5.8499999999999899e+00 +8.5260182193524106e+00 +0.0000000000000000e+00 -5.9595958517360303e+00 -2.8019727107414232e-02 -5.2607884370328517e-01 +5.0843749823990224e-03
