# field on trajectory
# s[mm] rx[mm] ry[mm] rz[mm] bx[T] by[T] bz[T]
0.0000000000000000e+00 +8.3650000000000002e+00 +0.0000000000000000e+00 +0.0000000000000000e+00 -2.8451000370553488e-02 -5.5401866378081088e-01 +5.6773524178060711e-03
5.0000000000000003e-02 +8.3649999310302317e+00 +0.0000000000000000e+00 +4.9999999999936574e-02 -2.8450873376077546e-02 -5.5401818247323531e-01 +5.6766682894609189e-03
1.0000000000000001e-01 +8.3649997241209917e+00 +0.0000000000000000e+00 +9.9999999999492606e-02 -2.8450766154026867e-02 -5.5401808263844576e-01 +5.6759849629753108e-03
1.5000000000000002e-01 +8.3649993792723034e+00 +0.0000000000000000e+00 +1.4999999999828753e-01 -2.8450678702114020e-02 -5.5401836364190371e-01 +5.6753024709573167e-03
2.0000000000000001e-01 +8.3649988964840976e+00 +0.0000000000000000e+00 +1.9999999999594081e-01 -2.8450611018052976e-02 -5.5401902484908816e-01 +5.6746208460149118e-03
2.5000000000000000e-01 +8.3649982757562089e+00 +0.0000000000000000e+00 +2.4999999999207193e-01 -2.8450563099559130e-02 -5.5402006562549722e-01 +5.6739401207560264e-03
2.9999999999999999e-01 +8.3649975170883799e+00 +0.0000000000000000e+00 +2.9999999998630028e-01 -2.8450534944349213e-02 -5.5402148533664686e-01 +5.6732603277885093e-03
3.4999999999999998e-01 +8.3649966204802553e+00 +0.0000000000000000e+00 +3.4999999997824538e-01 -2.8450526550141342e-02 -5.5402328334807138e-01 +5.6725814997201848e-03
3.9999999999999997e-01 +8.3649955859313891e+00 +0.0000000000000000e+00 +3.9999999996752661e-01 -2.8450537914654902e-02 -5.5402545902532219e-01 +5.6719036691588237e-03
4.4999999999999996e-01 +8.3649944134412380e+00 +0.0000000000000000e+00 +4.4999999995376344e-01 -2.8450569035610614e-02 -5.5402801173396954e-01 +5.6712268687121679e-03
4.9999999999999994e-01 +8.3649931030091675e+00 +0.0000000000000000e+00 +4.9999999993657523e-01 -2.8450619910730415e-02 -5.5403094083959992e-01 +5.6705511309879464e-03
5.4999999999999993e-01 +8.3649916546344478e+00 +0.0000000000000000e+00 +5.4999999991558146e-01 -2.8450690537737525e-02 -5.5403424570781867e-01 +5.6698764885938745e-03
5.9999999999999998e-01 +8.3649900683162581e+00 +0.0000000000000000e+00 +5.9999999989040154e-01 -2.8450780914356367e-02 -5.5403792570424859e-01 +5.6692029741376637e-03
6.5000000000000002e-01 +8.3649883440536801e+00 +0.0000000000000000e+00 +6.4999999986065482e-01 -2.8450891038312522e-02 -5.5404198019452811e-01 +5.6685306202270370e-03
7.0000000000000007e-01 +8.3649864818457047e+00 +0.0000000000000000e+00 +6.9999999982596073e-01 -2.8451020907332768e-02 -5.5404640854431553e-01 +5.6678594594697382e-03
7.5000000000000011e-01 +8.3649844816912289e+00 +0.0000000000000000e+00 +7.4999999978593868e-01 -2.8451170519144992e-02 -5.5405121011928415e-01 +5.6671895244735301e-03
8.0000000000000016e-01 +8.3649823435890571e+00 +0.0000000000000000e+00 +7.9999999974020797e-01 -2.8451339871478180e-02 -5.5405638428512494e-01 +5.6665208478462207e-03
8.5000000000000020e-01 +8.3649800675379016e+00 +0.0000000000000000e+00 +8.4999999968838802e-01 -2.8451528962062433e-02 -5.5406193040754637e-01 +5.6658534621956587e-03
9.0000000000000024e-01 +8.3649776535363820e+00 +0.0000000000000000e+00 +8.9999999963009814e-01 -2.8451737788628848e-02 -5.5406784785227214e-01 +5.6651874001297474e-03
9.5000000000000029e-01 +8.3649751015830258e+00 +0.0000000000000000e+00 +9.4999999956495762e-01 -2.8451966348909619e-02 -5.5407413598504429e-01 +5.6645226942564622e-03
1.0000000000000002e+00 +8.3649724116762663e+00 +0.0000000000000000e+00 +9.9999999949258578e-01 -2.8452214640637869e-02 -5.5408079417162037e-01 +5.6638593771838460e-03
1.0500000000000003e+00 +8.3649695838144442e+00 +0.0000000000000000e+00 +1.0499999994126019e+00 -2.8452482661547766e-02 -5.5408782177777460e-01 +5.6631974815200253e-03
1.1000000000000003e+00 +8.3649666179958118e+00 +0.0000000000000000e+00 +1.0999999993246252e+00 -2.8452770409374373e-02 -5.5409521816929841e-01 +5.6625370398732241e-03
1.1500000000000004e+00 +8.3649635142185268e+00 +0.0000000000000000e+00 +1.1499999992282750e+00 -2.8453077881853708e-02 -5.5410298271199743e-01 +5.6618780848517675e-03
1.2000000000000004e+00 +8.3649602724806567e+00 +0.0000000000000000e+00 +1.1999999991231705e+00 -2.8453405076722647e-02 -5.5411111477169550e-01 +5.6612206490640905e-03
1.2500000000000004e+00 +8.3649568927801763e+00 +0.0000000000000000e+00 +1.2499999990089308e+00 -2.8453751991719001e-02 -5.5411961371423124e-01 +5.6605647651187547e-03
1.3000000000000005e+00 +8.3649533751149701e+00 +0.0000000000000000e+00 +1.2999999988851751e+00 -2.8454118624581335e-02 -5.5412847890545924e-01 +5.6599104656244424e-03
1.3500000000000005e+00 +8.3649497194828299e+00 +0.0000000000000000e+00 +1.3499999987515228e+00 -2.8454504973049112e-02 -5.5413770971125043e-01 +5.6592577831899877e-03
1.4000000000000006e+00 +8.3649459258814591e+00 +0.0000000000000000e+00 +1.3999999986075928e+00 -2.8454911034862532e-02 -5.5414730549749081e-01 +5.6586067504243668e-03
1.4500000000000006e+00 +8.3649419943084666e+00 +0.0000000000000000e+00 +1.4499999984530043e+00 -2.8455336807762591e-02 -5.5415726563008250e-01 +5.6579573999367217e-03
1.5000000000000007e+00 +8.3649379247613744e+00 +0.0000000000000000e+00 +1.4999999982873764e+00 -2.8455782289491000e-02 -5.5416758947494227e-01 +5.6573097643363539e-03
1.5500000000000007e+00 +8.3649337172376104e+00 +0.0000000000000000e+00 +1.5499999981103281e+00 -2.8456247477790190e-02 -5.5417827639800243e-01 +5.6566638762327480e-03
1.6000000000000008e+00 +8.3649293717345152e+00 +0.0000000000000000e+00 +1.5999999979214783e+00 -2.8456732370403297e-02 -5.5418932576521140e-01 +5.6560197682355793e-03
1.6500000000000008e+00 +8.3649248882493374e+00 +0.0000000000000000e+00 +1.6499999977204460e+00 -2.8457236965074066e-02 -5.5420073694253169e-01 +5.6553774729547132e-03
1.7000000000000008e+00 +8.3649202667792348e+00 +0.0000000000000000e+00 +1.6999999975068503e+00 -2.8457761259546934e-02 -5.5421250929594079e-01 +5.6547370230002249e-03
1.7500000000000009e+00 +8.3649155073212782e+00 +0.0000000000000000e+00 +1.7499999972803100e+00 -2.8458305251566892e-02 -5.5422464219143119e-01 +5.6540984509824066e-03
1.8000000000000009e+00 +8.3649106098724459e+00 +0.0000000000000000e+00 +1.7999999970404441e+00 -2.8458868938879549e-02 -5.5423713499501126e-01 +5.6534617895117748e-03
1.8500000000000010e+00 +8.3649055744296277e+00 +0.0000000000000000e+00 +1.8499999967868714e+00 -2.8459452319231065e-02 -5.5424998707270234e-01 +5.6528270711990779e-03
1.9000000000000010e+00 +8.3649004009896224e+00 +0.0000000000000000e+00 +1.8999999965192107e+00 -2.8460055390368073e-02 -5.5426319779054078e-01 +5.6521943286553062e-03
1.9500000000000011e+00 +8.3648950895491421e+00 +0.0000000000000000e+00 +1.9499999962370809e+00 -2.8460678150037784e-02 -5.5427676651457791e-01 +5.6515635944917085e-03
2.0000000000000009e+00 +8.3648896401048081e+00 +0.0000000000000000e+00 +1.9999999959401005e+00 -2.8461320595987827e-02 -5.5429069261087927e-01 +5.6509349013198016e-03
2.0500000000000007e+00 +8.3648840526531547e+00 +0.0000000000000000e+00 +2.0499999956278883e+00 -2.8461982717203179e-02 -5.5430497520845978e-01 +5.6503082803947991e-03
2.1000000000000005e+00 +8.3648783271906240e+00 +0.0000000000000000e+00 +2.0999999953000632e+00 -2.8462664467616746e-02 -5.5431961248809236e-01 +5.6496837575459010e-03
2.1500000000000004e+00 +8.3648724637135725e+00 +0.0000000000000000e+00 +2.1499999949562438e+00 -2.8463365792398918e-02 -5.5433460239349841e-01 +5.6490613572458392e-03
2.2000000000000002e+00 +8.3648664622182682e+00 +0.0000000000000000e+00 +2.1999999945960487e+00 -2.8464086636720749e-02 -5.5434994286841122e-01 +5.6484411039674403e-03
2.2500000000000000e+00 +8.3648603227008920e+00 +0.0000000000000000e+00 +2.2499999942190962e+00 -2.8464826945753887e-02 -5.5436563185657661e-01 +5.6478230221836019e-03
2.2999999999999998e+00 +8.3648540451575357e+00 +0.0000000000000000e+00 +2.2999999938250046e+00 -2.8465586664670608e-02 -5.5438166730175220e-01 +5.6472071363673137e-03
2.3499999999999996e+00 +8.3648476295842098e+00 +0.0000000000000000e+00 +2.3499999934133928e+00 -2.8466365738643789e-02 -5.5439804714770768e-01 +5.6465934709916338e-03
2.3999999999999995e+00 +8.3648410759768339e+00 +0.0000000000000000e+00 +2.3999999929838793e+00 -2.8467164112846905e-02 -5.5441476933822442e-01 +5.6459820505297027e-03
2.4499999999999993e+00 +8.3648343843312460e+00 +0.0000000000000000e+00 +2.4499999925360822e+00 -2.8467981732453965e-02 -5.5443183181709443e-01 +5.6453728994547269e-03
2.4999999999999991e+00 +8.3648275546431972e+00 +0.0000000000000000e+00 +2.4999999920696201e+00 -2.8468818542639614e-02 -5.5444923252812206e-01 +5.6447660422399839e-03
2.5499999999999989e+00 +8.3648205869083547e+00 +0.0000000000000000e+00 +2.5499999915841109e+00 -2.8469674488578997e-02 -5.5446696941512164e-01 +5.6441615033588233e-03
2.5999999999999988e+00 +8.3648134811223027e+00 +0.0000000000000000e+00 +2.5999999910791729e+00 -2.8470549515447842e-02 -5.5448504042191926e-01 +5.6435593072846572e-03
2.6499999999999986e+00 +8.3648062372805434e+00 +0.0000000000000000e+00 +2.6499999905544245e+00 -2.8471443568422367e-02 -5.5450344349235103e-01 +5.6429594784909547e-03
2.6999999999999984e+00 +8.3647988553784938e+00 +0.0000000000000000e+00 +2.6999999900094838e+00 -2.8472356592679333e-02 -5.5452217657026326e-01 +5.6423620414512501e-03
2.7499999999999982e+00 +8.3647913354114891e+00 +0.0000000000000000e+00 +2.7499999894439688e+00 -2.8473288533396014e-02 -5.5454123759951324e-01 +5.6417670206391360e-03
2.7999999999999980e+00 +8.3647836773747848e+00 +0.0000000000000000e+00 +2.7999999888574978e+00 -2.8474239335750180e-02 -5.5456062452396804e-01 +5.6411744405282498e-03
2.8499999999999979e+00 +8.3647758812635544e+00 +0.0000000000000000e+00 +2.8499999882496883e+00 -2.8475208944920078e-02 -5.5458033528750394e-01 +5.6405843255922959e-03
2.8999999999999977e+00 +8.3647679470728882e+00 +0.0000000000000000e+00 +2.8999999876201583e+00 -2.8476197306084420e-02 -5.5460036783400801e-01 +5.6399967003050123e-03
2.9499999999999975e+00 +8.3647598747978016e+00 +0.0000000000000000e+00 +2.9499999869685261e+00 -2.8477204364422401e-02 -5.5462072010737551e-01 +5.6394115891401989e-03
2.9999999999999973e+00 +8.3647516644332249e+00 +0.0000000000000000e+00 +2.9999999862944091e+00 -2.8478230065113661e-02 -5.5464139005151225e-01 +5.6388290165716856e-03
3.0499999999999972e+00 +8.3647433159740121e+00 +0.0000000000000000e+00 +3.0499999855974256e+00 -2.8479274353338274e-02 -5.5466237561033171e-01 +5.6382490070733546e-03
3.0999999999999970e+00 +8.3647348294149406e+00 +0.0000000000000000e+00 +3.0999999848771926e+00 -2.8480337174276733e-02 -5.5468367472775759e-01 +5.6376715851191219e-03
3.1499999999999968e+00 +8.3647262047507045e+00 +0.0000000000000000e+00 +3.1499999841333284e+00 -2.8481418473109955e-02 -5.5470528534772146e-01 +5.6370967751829381e-03
3.1999999999999966e+00 +8.3647174419759249e+00 +0.0000000000000000e+00 +3.1999999833654504e+00 -2.8482518195019280e-02 -5.5472720541416332e-01 +5.6365246017388007e-03
3.2499999999999964e+00 +8.3647085410851449e+00 +0.0000000000000000e+00 +3.2499999825731760e+00 -2.8483636285186405e-02 -5.5474943287103196e-01 +5.6359550892607193e-03
3.2999999999999963e+00 +8.3646995020728294e+00 +0.0000000000000000e+00 +3.2999999817561227e+00 -2.8484772688793424e-02 -5.5477196566228371e-01 +5.6353882622227494e-03
3.3499999999999961e+00 +8.3646903249333686e+00 +0.0000000000000000e+00 +3.3499999809139078e+00 -2.8485927351022813e-02 -5.5479480173188311e-01 +5.6348241450989598e-03
3.3999999999999959e+00 +8.3646810096610764e+00 +0.0000000000000000e+00 +3.3999999800461489e+00 -2.8487100217057380e-02 -5.5481793902380250e-01 +5.6342627623634529e-03
3.4499999999999957e+00 +8.3646715562501921e+00 +0.0000000000000000e+00 +3.4499999791524631e+00 -2.8488291232080298e-02 -5.5484137548202128e-01 +5.6337041384903449e-03
3.4999999999999956e+00 +8.3646619646948803e+00 +0.0000000000000000e+00 +3.4999999782324678e+00 -2.8489500341275065e-02 -5.5486510905052644e-01 +5.6331482979537781e-03
3.5499999999999954e+00 +8.3646522349892329e+00 +0.0000000000000000e+00 +3.5499999772857800e+00 -2.8490727489825497e-02 -5.5488913767331205e-01 +5.6325952652279037e-03
3.5999999999999952e+00 +8.3646423671272672e+00 +0.0000000000000000e+00 +3.5999999763120170e+00 -2.8491972622915744e-02 -5.5491345929437930e-01 +5.6320450647868898e-03
3.6499999999999950e+00 +8.3646323611029274e+00 +0.0000000000000000e+00 +3.6499999753107959e+00 -2.8493235685730225e-02 -5.5493807185773536e-01 +5.6314977211049180e-03
3.6999999999999948e+00 +8.3646222169100852e+00 +0.0000000000000000e+00 +3.6999999742817336e+00 -2.8494516623453672e-02 -5.5496297330739497e-01 +5.6309532586561713e-03
3.7499999999999947e+00 +8.3646119345425429e+00 +0.0000000000000000e+00 +3.7499999732244467e+00 -2.8495815381271061e-02 -5.5498816158737807e-01 +5.6304117019148449e-03
3.7999999999999945e+00 +8.3646015139940264e+00 +0.0000000000000000e+00 +3.7999999721385525e+00 -2.8497131904367673e-02 -5.5501363464171172e-01 +5.6298730753551367e-03
3.8499999999999943e+00 +8.3645909552581958e+00 +0.0000000000000000e+00 +3.8499999710236676e+00 -2.8498466137929012e-02 -5.5503939041442818e-01 +5.6293374034512410e-03
3.8999999999999941e+00 +8.3645802583286368e+00 +0.0000000000000000e+00 +3.8999999698794086e+00 -2.8499818027140838e-02 -5.5506542684956572e-01 +5.6288047106773540e-03
3.9499999999999940e+00 +8.3645694231988674e+00 +0.0000000000000000e+00 +3.9499999687053924e+00 -2.8501187517189126e-02 -5.5509174189116850e-01 +5.6282750215076675e-03
3.9999999999999938e+00 +8.3645584498623364e+00 +0.0000000000000000e+00 +3.9999999675012354e+00 -2.8502574553260083e-02 -5.5511833348328521e-01 +5.6277483604163618e-03
4.0499999999999936e+00 +8.3645473383124234e+00 +0.0000000000000000e+00 +4.0499999662665545e+00 -2.8503979053827778e-02 -5.5514519941723772e-01 +5.6272247552343118e-03
4.0999999999999934e+00 +8.3645360885424385e+00 +0.0000000000000000e+00 +4.0999999650009649e+00 -2.8505400830516985e-02 -5.5517233687341871e-01 +5.6267042472192327e-03
4.1499999999999932e+00 +8.3645247005456262e+00 +0.0000000000000000e+00 +4.1499999637040839e+00 -2.8506839668240261e-02 -5.5519974287949025e-01 +5.6261868809856499e-03
4.1999999999999931e+00 +8.3645131743151619e+00 +0.0000000000000000e+00 +4.1999999623755278e+00 -2.8508295351910368e-02 -5.5522741446311286e-01 +5.6256727011481933e-03
4.2499999999999929e+00 +8.3645015098441569e+00 +0.0000000000000000e+00 +4.2499999610149128e+00 -2.8509767666440269e-02 -5.5525534865194992e-01 +5.6251617523216018e-03
4.2999999999999927e+00 +8.3644897071256565e+00 +0.0000000000000000e+00 +4.2999999596218554e+00 -2.8511256396743127e-02 -5.5528354247366374e-01 +5.6246540791207314e-03
4.3499999999999925e+00 +8.3644777661526408e+00 +0.0000000000000000e+00 +4.3499999581959710e+00 -2.8512761327732266e-02 -5.5531199295591693e-01 +5.6241497261605407e-03
4.3999999999999924e+00 +8.3644656869180256e+00 +0.0000000000000000e+00 +4.3999999567368757e+00 -2.8514282244321204e-02 -5.5534069712637080e-01 +5.6236487380561060e-03
4.4499999999999922e+00 +8.3644534694146664e+00 +0.0000000000000000e+00 +4.4499999552441860e+00 -2.8515818931423572e-02 -5.5536965201268718e-01 +5.6231511594226104e-03
4.4999999999999920e+00 +8.3644411136353511e+00 +0.0000000000000000e+00 +4.4999999537175173e+00 -2.8517371173953192e-02 -5.5539885464252614e-01 +5.6226570348753601e-03
4.5499999999999918e+00 +8.3644286195728110e+00 +0.0000000000000000e+00 +4.5499999521564849e+00 -2.8518938756823993e-02 -5.5542830204354632e-01 +5.6221664090297680e-03
4.5999999999999917e+00 +8.3644159872197150e+00 +0.0000000000000000e+00 +4.5999999505607052e+00 -2.8520521464950051e-02 -5.5545799124340511e-01 +5.6216793265013729e-03
4.6499999999999915e+00 +8.3644032165686699e+00 +0.0000000000000000e+00 +4.6499999489297936e+00 -2.8522119083245551e-02 -5.5548791926975705e-01 +5.6211958319058253e-03
4.6999999999999913e+00 +8.3643903076122239e+00 +0.0000000000000000e+00 +4.6999999472633665e+00 -2.8523731396624775e-02 -5.5551808315025564e-01 +5.6207159698588929e-03
4.7499999999999911e+00 +8.3643772603428683e+00 +0.0000000000000000e+00 +4.7499999455610382e+00 -2.8525358190002112e-02 -5.5554847991255085e-01 +5.6202397849764718e-03
4.7999999999999909e+00 +8.3643640747530359e+00 +0.0000000000000000e+00 +4.7999999438224243e+00 -2.8526999248292009e-02 -5.5557910658428966e-01 +5.6197673218745664e-03
4.8499999999999908e+00 +8.3643507508350989e+00 +0.0000000000000000e+00 +4.8499999420471402e+00 -2.8528654356409024e-02 -5.5560996019311659e-01 +5.6192986251693174e-03
4.8999999999999906e+00 +8.3643372885813765e+00 +0.0000000000000000e+00 +4.8999999402348013e+00 -2.8530323299267763e-02 -5.5564103776667240e-01 +5.6188337394769772e-03
4.9499999999999904e+00 +8.3643236879841325e+00 +0.0000000000000000e+00 +4.9499999383850231e+00 -2.8532005861782846e-02 -5.5567233633259316e-01 +5.6183727094139295e-03
4.9999999999999902e+00 +8.3643099490355723e+00 +0.0000000000000000e+00 +4.9999999364974199e+00 -2.8533701828868996e-02 -5.5570385291851176e-01 +5.6179155795966799e-03
5.0499999999999901e+00 +8.3642960717278516e+00 +0.0000000000000000e+00 +5.0499999345716073e+00 -2.8535410985440920e-02 -5.5573558455205629e-01 +5.6174623946418662e-03
5.0999999999999899e+00 +8.3642820560530673e+00 +0.0000000000000000e+00 +5.0999999326071999e+00 -2.8537133116413371e-02 -5.5576752826084996e-01 +5.6170131991662431e-03
5.1499999999999897e+00 +8.3642679020032684e+00 +0.0000000000000000e+00 +5.1499999306038129e+00 -2.8538868006701107e-02 -5.5579968107251132e-01 +5.6165680377867049e-03
5.1999999999999895e+00 +8.3642536095704489e+00 +0.0000000000000000e+00 +5.1999999285610601e+00 -2.8540615441218879e-02 -5.5583204001465325e-01 +5.6161269551202701e-03
5.2499999999999893e+00 +8.3642391787465513e+00 +0.0000000000000000e+00 +5.2499999264785568e+00 -2.8542375204881430e-02 -5.5586460211488253e-01 +5.6156899957840898e-03
5.2999999999999892e+00 +8.3642246095234700e+00 +0.0000000000000000e+00 +5.2999999243559186e+00 -2.8544147082603492e-02 -5.5589736440080062e-01 +5.6152572043954470e-03
5.3499999999999890e+00 +8.3642099018930463e+00 +0.0000000000000000e+00 +5.3499999221927590e+00 -2.8545930859299729e-02 -5.5593032390000263e-01 +5.6148286255717572e-03
5.3999999999999888e+00 +8.3641950558470750e+00 +0.0000000000000000e+00 +5.3999999199886926e+00 -2.8547726319884809e-02 -5.5596347764007636e-01 +5.6144043039305733e-03
5.4499999999999886e+00 +8.3641800713773016e+00 +0.0000000000000000e+00 +5.4499999177433329e+00 -2.8549533249273312e-02 -5.5599682264860339e-01 +5.6139842840895781e-03
5.4999999999999885e+00 +8.3641649484754250e+00 +0.0000000000000000e+00 +5.4999999154562955e+00 -2.8551351432379770e-02 -5.5603035595315753e-01 +5.6135686106665948e-03
5.5499999999999883e+00 +8.3641496871330947e+00 +0.0000000000000000e+00 +5.5499999131271940e+00 -2.8553180654118642e-02 -5.5606407458130580e-01 +5.6131573282795855e-03
5.5999999999999881e+00 +8.3641342873419156e+00 +0.0000000000000000e+00 +5.5999999107556420e+00 -2.8555020699404295e-02 -5.5609797556060647e-01 +5.6127504815466460e-03
5.6499999999999879e+00 +8.3641187490934481e+00 +0.0000000000000000e+00 +5.6499999083412540e+00 -2.8556871353150985e-02 -5.5613205591861037e-01 +5.6123481150860159e-03
5.6999999999999877e+00 +8.3641030723792067e+00 +0.0000000000000000e+00 +5.6999999058836446e+00 -2.8558732400272915e-02 -5.5616631268285932e-01 +5.6119502735160788e-03
5.7499999999999876e+00 +8.3640872571906630e+00 +0.0000000000000000e+00 +5.7499999033824265e+00 -2.8560603625684113e-02 -5.5620074288088639e-01 +5.6115570014553503e-03
5.7999999999999874e+00 +8.3640713035192444e+00 +0.0000000000000000e+00 +5.7999999008372143e+00 -2.8562484814298485e-02 -5.5623534354021587e-01 +5.6111683435224949e-03
5.8499999999999872e+00 +8.3640552113563356e+00 +0.0000000000000000e+00 +5.8499998982476216e+00 -2.8564375751029839e-02 -5.5627011168836293e-01 +5.6107843443363239e-03
5.8999999999999870e+00 +8.3640389806932820e+00 +0.0000000000000000e+00 +5.8999998956132611e+00 -2.8566276220791803e-02 -5.5630504435283190e-01 +5.6104050485157918e-03
