# multipoles
# s[mm] polynom_b[n=0][T/m^n] polynom_b[n=1][T/m^n] polynom_b[n=2][T/m^n] polynom_b[n=3][T/m^n] polynom_b[n=4][T/m^n] polynom_b[n=5][T/m^n] polynom_b[n=6][T/m^n] 
+0.0000000000000000e+00 -5.5401825313222042e-01 +7.2586000177301919e+00 +5.3794436645470443e+00 -7.7916655937187622e+00 +1.0193804214147375e+03 -2.5546872385440275e+05 +1.5301994256488562e+07 
+5.0000000000000003e-02 -5.5401776919336687e-01 +7.2585958609355217e+00 +5.3780994264371351e+00 -8.0583268689155414e+00 +1.0406039358484334e+03 -2.5301752771752293e+05 +1.5269219041659936e+07 
+1.0000000000000001e-01 -5.5401766695056198e-01 +7.2586133261623944e+00 +5.3761088924417155e+00 -8.3246157185011338e+00 +1.0651869774256129e+03 -2.5060017587424035e+05 +1.5219817957548542e+07 
+1.5000000000000002e-01 -5.5401794576049246e-01 +7.2586523278181936e+00 +5.3734829648523181e+00 -8.5905288559916446e+00 +1.0929622336265156e+03 -2.4821488752277286e+05 +1.5154569866481170e+07 
+2.0000000000000001e-01 -5.5401860497985045e-01 +7.2587127803205052e+00 +5.3702325436129570e+00 -8.8560633627734582e+00 +1.1237624571106880e+03 -2.4585987892925707e+05 +1.5074253183672002e+07 
+2.5000000000000000e-01 -5.5401964396537273e-01 +7.2587945980805646e+00 +5.3663685333877362e+00 -9.1212160453722397e+00 +1.1574202727057834e+03 -2.4353336856365952e+05 +1.4979647189856349e+07 
+2.9999999999999999e-01 -5.5402106207379509e-01 +7.2588976955152713e+00 +5.3619018355292019e+00 -9.3859839003503680e+00 +1.1937683939780077e+03 -2.4123357339727879e+05 +1.4871530572006166e+07 
+3.4999999999999998e-01 -5.5402285866185119e-01 +7.2590219870413746e+00 +5.3568433473568398e+00 -9.6503639049466212e+00 +1.2326396476372624e+03 -2.3895871050425753e+05 +1.4750681234659962e+07 
+3.9999999999999997e-01 -5.5402503308634221e-01 +7.2591673870740134e+00 +5.3512039756978131e+00 -9.9143529244521513e+00 +1.2738665992911433e+03 -2.3670699794877105e+05 +1.4617878863320658e+07 
+4.4999999999999996e-01 -5.5402758470405367e-01 +7.2593338100307259e+00 +5.3449946207925292e+00 -1.0177947899880259e+01 +1.3172819931044260e+03 -2.3447665315967775e+05 +1.4473901941360807e+07 
+4.9999999999999994e-01 -5.5403051287179428e-01 +7.2595211703303821e+00 +5.3382261843086232e+00 -1.0441145807512507e+01 +1.3627185373945476e+03 -2.3226589324132621e+05 +1.4319529176392848e+07 
+5.4999999999999993e-01 -5.5403381694638754e-01 +7.2597293823912645e+00 +5.3309095670574678e+00 -1.0703943554082343e+01 +1.4100089619797525e+03 -2.3007293593013129e+05 +1.4155539142666453e+07 
+5.9999999999999998e-01 -5.5403749628468613e-01 +7.2599583606353102e+00 +5.3230556723347719e+00 -1.0966338181590602e+01 +1.4589859286502347e+03 -2.2789599781835402e+05 +1.3982710875700885e+07 
+6.5000000000000002e-01 -5.5404155024354440e-01 +7.2602080194807970e+00 +5.3146753999456244e+00 -1.1228326558241330e+01 +1.5094821987696432e+03 -2.2573329689694356e+05 +1.3801822718685301e+07 
+7.0000000000000007e-01 -5.5404597817985379e-01 +7.2604782733487170e+00 +5.3057796539179263e+00 -1.1489905619083432e+01 +1.5613304139625004e+03 -2.2358305068409303e+05 +1.3613653846548984e+07 
+7.5000000000000011e-01 -5.5405077945050196e-01 +7.2607690366624329e+00 +5.2963793343206280e+00 -1.1751072381848525e+01 +1.6143633254756610e+03 -2.2144347595970405e+05 +1.3418982680273652e+07 
+8.0000000000000016e-01 -5.5405595341240399e-01 +7.2610802238440035e+00 +5.2864853430966763e+00 -1.2011823781465113e+01 +1.6684136329300150e+03 -2.1931279019230141e+05 +1.3218587996493537e+07 
+8.5000000000000020e-01 -5.5406149942249394e-01 +7.2614117493154069e+00 +5.2761085825697602e+00 -1.2272156730556173e+01 +1.7233140254653067e+03 -2.1718921099834147e+05 +1.3013248642002165e+07 
+9.0000000000000024e-01 -5.5406741683771388e-01 +7.2617635274998511e+00 +5.2652599532247235e+00 -1.2532068150977866e+01 +1.7788972451141992e+03 -2.1507095597823570e+05 +1.2803743093074497e+07 
+9.5000000000000029e-01 -5.5407370501503450e-01 +7.2621354728238083e+00 +5.2539503581615294e+00 -1.2791555084634266e+01 +1.8349959581739881e+03 -2.1295624168451413e+05 +1.2590850357517045e+07 
+1.0000000000000002e+00 -5.5408036331143173e-01 +7.2625274997100870e+00 +5.2421906979605728e+00 -1.3050614399659235e+01 +1.8914429061184355e+03 -2.1084328607915214e+05 +1.2375348904784147e+07 
+1.0500000000000003e+00 -5.5408739108390381e-01 +7.2629395225821920e+00 +5.2299918748163989e+00 -1.3309242959197380e+01 +1.9480707771809193e+03 -2.0873030719070547e+05 +1.2158017603705127e+07 
+1.1000000000000003e+00 -5.5409478768946008e-01 +7.2633714558684819e+00 +5.2173647894006452e+00 -1.3567437801110355e+01 +2.0047123099598396e+03 -2.0661552160394244e+05 +1.1939634944700411e+07 
+1.1500000000000004e+00 -5.5410255248514484e-01 +7.2638232139923415e+00 +5.2043203463604906e+00 -1.3825195744929404e+01 +2.0612001286309633e+03 -2.0449714762962968e+05 +1.1720980216066441e+07 
+1.2000000000000004e+00 -5.5411068482798087e-01 +7.2642947113814440e+00 +5.1908694429183031e+00 -1.4082513756684710e+01 +2.1173670634317668e+03 -2.0237340239269412e+05 +1.1502831294305386e+07 
+1.2500000000000004e+00 -5.5411918407505079e-01 +7.2647858624622534e+00 +5.1770229846593221e+00 -1.4339388726633848e+01 +2.1730457153759439e+03 -2.0024250363268700e+05 +1.1285967614161905e+07 
+1.3000000000000005e+00 -5.5412804958341821e-01 +7.2652965816607535e+00 +5.1627918711079221e+00 -1.4595817509555063e+01 +2.2280688467762416e+03 -1.9810266932675248e+05 +1.1071167528933983e+07 
+1.3500000000000005e+00 -5.5413728071019219e-01 +7.2658267834065740e+00 +5.1481870064154478e+00 -1.4851797072426775e+01 +2.2822691008641946e+03 -1.9595211656630848e+05 +1.0859210172830608e+07 
+1.4000000000000006e+00 -5.5414687681246433e-01 +7.2663763821236360e+00 +5.1332192893175561e+00 -1.5107324142655655e+01 +2.3354792642995221e+03 -1.9378906433036586e+05 +1.0650873717997963e+07 
+1.4500000000000006e+00 -5.5415683724736520e-01 +7.2669452922414788e+00 +5.1178996228391043e+00 -1.5362395645641605e+01 +2.3875320042380336e+03 -1.9161172998180994e+05 +1.0446937160605133e+07 
+1.5000000000000007e+00 -5.5416716137203614e-01 +7.2675334281879520e+00 +5.1022389089431934e+00 -1.5617008421815980e+01 +2.4382600206345119e+03 -1.8941833152908643e+05 +1.0248179252953293e+07 
+1.5500000000000007e+00 -5.5417784854362429e-01 +7.2681407043918007e+00 +5.0862480479570156e+00 -1.5871159316709813e+01 +2.4874960553175833e+03 -1.8720708695958948e+05 +1.0055378475146055e+07 
+1.6000000000000008e+00 -5.5418889811931571e-01 +7.2687670352805931e+00 +5.0699379442507091e+00 -1.6124845114101422e+01 +2.5350727441587360e+03 -1.8497621470910267e+05 +9.8693140057534538e+06 
+1.6500000000000008e+00 -5.5420030945627685e-01 +7.2694123352820563e+00 +5.0533194964756198e+00 -1.6378062586546161e+01 +2.5808228729853381e+03 -1.8272393325840187e+05 +9.6907640261812452e+06 
+1.7000000000000008e+00 -5.5421208191171711e-01 +7.2700765188276071e+00 +5.0364036080804730e+00 -1.6630808632833045e+01 +2.6245790987731034e+03 -1.8044846004210028e+05 +9.5205075838028975e+06 
+1.7500000000000009e+00 -5.5422421484285300e-01 +7.2707595003426686e+00 +5.0192011810495316e+00 -1.6883079880028092e+01 +2.6661741188311175e+03 -1.7814801471812869e+05 +9.3593234471584074e+06 
+1.8000000000000009e+00 -5.5423670760690869e-01 +7.2714611942572622e+00 +5.0017231163459650e+00 -1.7134873139808896e+01 +2.7054406554799461e+03 -1.7582081533269945e+05 +9.2079902249804344e+06 
+1.8500000000000010e+00 -5.5424955956112831e-01 +7.2721815149987199e+00 +4.9839803156182727e+00 -1.7386185069456634e+01 +2.7422114165796015e+03 -1.7346508125932093e+05 +9.0672866029031929e+06 
+1.9000000000000010e+00 -5.5426277006277624e-01 +7.2729203769987487e+00 +4.9659836817878658e+00 -1.7637012512775744e+01 +2.7763190708411544e+03 -1.7107903019854976e+05 +8.9379915472927820e+06 
+1.9500000000000011e+00 -5.5427633846911861e-01 +7.2736776946833244e+00 +4.9477441154852011e+00 -1.7887352044957272e+01 +2.8075963507429592e+03 -1.6866088208215879e+05 +8.8208835846426263e+06 
+2.0000000000000009e+00 -5.5429026413744487e-01 +7.2744533824811466e+00 +4.9292725190325584e+00 -1.8137200328987412e+01 +2.8358759427518780e+03 -1.6620885608753868e+05 +8.7167415494454708e+06 
+2.0500000000000007e+00 -5.5430454619011860e-01 +7.2752473475757053e+00 +4.9105783301489696e+00 -1.8386533168705416e+01 +2.8610298423578038e+03 -1.6372172802784236e+05 +8.6261527700302005e+06 
+2.1000000000000005e+00 -5.5431918280969639e-01 +7.2760594624055068e+00 +4.8916653283511273e+00 -1.8635244643147864e+01 +2.8830870661033000e+03 -1.6120069649254053e+05 +8.5489515934736561e+06 
+2.1500000000000004e+00 -5.5433417194374857e-01 +7.2768895892734902e+00 +4.8725359314076426e+00 -1.8883208782222439e+01 +2.9021160315876173e+03 -1.5864761990149989e+05 +8.4847863275070097e+06 
+2.2000000000000002e+00 -5.5434951153987011e-01 +7.2777375904942279e+00 +4.8531925602976909e+00 -1.9130300073454286e+01 +2.9181850577137293e+03 -1.5606435294344515e+05 +8.4333059940771721e+06 
+2.2500000000000000e+00 -5.5436519954565178e-01 +7.2786033283726308e+00 +4.8336376322112509e+00 -1.9376392600286611e+01 +2.9313625745395038e+03 -1.5345275359969435e+05 +8.3941588312730379e+06 
+2.2999999999999998e+00 -5.5438123390870930e-01 +7.2794866652190828e+00 +4.8138735671007780e+00 -1.9621360654237108e+01 +2.9417169322673099e+03 -1.5081467814449436e+05 +8.3669936367877172e+06 
+2.3499999999999996e+00 -5.5439761257667208e-01 +7.2803874633425609e+00 +4.7939027852147049e+00 -1.9865078467135071e+01 +2.9493164754135100e+03 -1.4815198330216031e+05 +8.3514592360584838e+06 
+2.3999999999999995e+00 -5.5441433349717895e-01 +7.2813055850514088e+00 +4.7737277064258121e+00 -2.0107420218374067e+01 +2.9542295556015983e+03 -1.4546652626412382e+05 +8.3472044199677426e+06 
+2.4499999999999993e+00 -5.5443139461786772e-01 +7.2822408926559419e+00 +4.7533507479912673e+00 -2.0348260182079589e+01 +2.9565246002039171e+03 -1.4276016335452374e+05 +8.3538774477740554e+06 
+2.4999999999999991e+00 -5.5444879388640700e-01 +7.2831932484682653e+00 +4.7327743308672598e+00 -2.0587472670952824e+01 +2.9562699337715230e+03 -1.4003475066200318e+05 +8.3711272844567308e+06 
+2.5499999999999989e+00 -5.5446652925046280e-01 +7.2841625147926052e+00 +4.7120008739223458e+00 -2.0824931686376960e+01 +2.9535339335926792e+03 -1.3729214673856131e+05 +8.3986025535198580e+06 
+2.5999999999999988e+00 -5.5448459865771205e-01 +7.2851485539443841e+00 +4.6910327956248707e+00 -2.1060511670185395e+01 +2.9483849926792846e+03 -1.3453420654766037e+05 +8.4359517520914506e+06 
+2.6499999999999986e+00 -5.5450300005585362e-01 +7.2861512282321081e+00 +4.6698725161631573e+00 -2.1294086777321919e+01 +2.9408914573665911e+03 -1.3176278739386942e+05 +8.4828236976066735e+06 
+2.6999999999999984e+00 -5.5452173139258221e-01 +7.2871703999649657e+00 +4.6485224539487353e+00 -2.1525531179876872e+01 +2.9311217164430714e+03 -1.2897974643088008e+05 +8.5388669373264462e+06 
+2.7499999999999982e+00 -5.5454079061561579e-01 +7.2882059314556118e+00 +4.6269850289623111e+00 -2.1754719189274923e+01 +2.9191441222137260e+03 -1.2618693964592183e+05 +8.6037302467603181e+06 
+2.7999999999999980e+00 -5.5456017567267812e-01 +7.2892576850124184e+00 +4.6052626603663160e+00 -2.1981524935143412e+01 +2.9050270493918833e+03 -1.2338622452415657e+05 +8.6770622479798067e+06 
+2.8499999999999979e+00 -5.5457988451149443e-01 +7.2903255229471755e+00 +4.5833577667256344e+00 -2.2205822687398317e+01 +2.8888388790648000e+03 -1.2057945735325797e+05 +8.7585115579725523e+06 
+2.8999999999999977e+00 -5.5459991507980411e-01 +7.2914093075695332e+00 +4.5612727662479848e+00 -2.2427486616035594e+01 +2.8706480139364012e+03 -1.1776849527282124e+05 +8.8477266025985368e+06 
+2.9499999999999975e+00 -5.5462026532536135e-01 +7.2925089011936768e+00 +4.5390100787021588e+00 -2.2646391074816513e+01 +2.8505228072212713e+03 -1.1495519388645336e+05 +8.9443561719124131e+06 
+2.9999999999999973e+00 -5.5464093319593544e-01 +7.2936241661275032e+00 +4.5165721247640862e+00 -2.2862410160901575e+01 +2.8285315899960742e+03 -1.1214141088507976e+05 +9.0480491953151282e+06 
+3.0499999999999972e+00 -5.5466191663928477e-01 +7.2947549646838841e+00 +4.4939613214047025e+00 -2.3075418161436332e+01 +2.8047427912989747e+03 -1.0932900243943041e+05 +9.1584539525987413e+06 
+3.0999999999999970e+00 -5.5468321360318840e-01 +7.2959011591734839e+00 +4.4711800877654637e+00 -2.3285289286608709e+01 +2.7792247856122513e+03 -1.0651982527068703e+05 +9.2752190725388099e+06 
+3.1499999999999968e+00 -5.5470482203544469e-01 +7.2970626119079363e+00 +4.4482308446918584e+00 -2.3491897776985734e+01 +2.7520458971375633e+03 -1.0371573588349445e+05 +9.3979935465204362e+06 
+3.1999999999999966e+00 -5.5472673988383514e-01 +7.2982391851994235e+00 +4.4251160086824814e+00 -2.3695117896316301e+01 +2.7232745682795812e+03 -1.0091859057125261e+05 +9.5264255631416831e+06 
+3.2499999999999964e+00 -5.5474896509616833e-01 +7.2994307413576482e+00 +4.4018379995464407e+00 -2.3894823802316356e+01 +2.6929791528880128e+03 -9.8130246507360236e+04 +9.6601639045182616e+06 
+3.2999999999999963e+00 -5.5477149562025330e-01 +7.3006371426958916e+00 +4.3783992357273425e+00 -2.4090889805172072e+01 +2.6612280386152511e+03 -9.5352559593362399e+04 +9.7988571427034494e+06 
+3.3499999999999961e+00 -5.5479432940392193e-01 +7.3018582515250525e+00 +4.3548021379263409e+00 -2.4283190110045290e+01 +2.6280895590330956e+03 -9.2587386602126731e+04 +9.9421541842517480e+06 
+3.3999999999999959e+00 -5.5481746439498436e-01 +7.3030939301577655e+00 +4.3310491220513816e+00 -2.4471599014846380e+01 +2.5936321677010733e+03 -8.9836583470655867e+04 +1.0089703168387782e+07 
+3.4499999999999957e+00 -5.5484089854128926e-01 +7.3043440409049438e+00 +4.3071426093119678e+00 -2.4655990724767175e+01 +2.5579241803990017e+03 -8.7102006984235297e+04 +1.0241153141398074e+07 
+3.4999999999999956e+00 -5.5486462979067119e-01 +7.3056084460798854e+00 +4.2830850168580579e+00 -2.4836239558995768e+01 +2.5210340236909019e+03 -8.4385512933171558e+04 +1.0396152401349630e+07 
+3.5499999999999954e+00 -5.5488865609098026e-01 +7.3068870079923460e+00 +4.2588787634055487e+00 -2.5012219691274915e+01 +2.4830300796963024e+03 -8.1688958303139108e+04 +1.0554349554136228e+07 
+3.5999999999999952e+00 -5.5491297539007456e-01 +7.3081795889557908e+00 +4.2345262679469853e+00 -2.5183805455905119e+01 +2.4439807216469994e+03 -7.9014198744304318e+04 +1.0715393274970090e+07 
+3.6499999999999950e+00 -5.5493758563581908e-01 +7.3094860512818736e+00 +4.2100299496530376e+00 -2.5350871106479943e+01 +2.4039543176347220e+03 -7.6363090610382656e+04 +1.0878932274208413e+07 
+3.6999999999999948e+00 -5.5496248477607724e-01 +7.3108062572828878e+00 +4.1853922257207001e+00 -2.5513290940870725e+01 +2.3630192912577231e+03 -7.3737489822656018e+04 +1.1044614883769264e+07 
+3.7499999999999947e+00 -5.5498767075873823e-01 +7.3121400692691498e+00 +4.1606155170480283e+00 -2.5670939173211575e+01 +2.3212439658257490e+03 -7.1139253030332344e+04 +1.1212090113037940e+07 
+3.7999999999999945e+00 -5.5501314153166981e-01 +7.3134873495547454e+00 +4.1357022395133960e+00 -2.5823690188214059e+01 +2.2786967985756260e+03 -6.8570235431342939e+04 +1.1381006077355219e+07 
+3.8499999999999943e+00 -5.5503889504275905e-01 +7.3148479604510461e+00 +4.1106548112515275e+00 -2.5971418249550908e+01 +2.2354461871818266e+03 -6.6032293287630222e+04 +1.1551011289538454e+07 
+3.8999999999999941e+00 -5.5506492923991291e-01 +7.3162217642696268e+00 +4.0854756533836136e+00 -2.6113997651015183e+01 +2.1915604443146599e+03 -6.3527282537811749e+04 +1.1721754856229058e+07 
+3.9499999999999940e+00 -5.5509124207102345e-01 +7.3176086233224655e+00 +4.0601671823098275e+00 -2.6251302706672725e+01 +2.1471080188887868e+03 -6.1057058984143536e+04 +1.1892884932258151e+07 
+3.9999999999999938e+00 -5.5511783148399241e-01 +7.3190083999231410e+00 +4.0347318160021866e+00 -2.6383207801267528e+01 +2.1021573090518118e+03 -5.8623477837799139e+04 +1.2064050050609257e+07 
+4.0499999999999936e+00 -5.5514469527518984e-01 +7.3204209456231126e+00 +4.0091705766588097e+00 -2.6509536090910736e+01 +2.0567922777283529e+03 -5.6228690772565933e+04 +1.2234832138820658e+07 
+4.0999999999999934e+00 -5.5517183063458764e-01 +7.3218460612402598e+00 +3.9834794759220928e+00 -2.6629864388129111e+01 +2.0111575502129610e+03 -5.3876255571078989e+04 +1.2404554170721186e+07 
+4.1499999999999932e+00 -5.5519923460056342e-01 +7.3232835329702759e+00 +3.9576534535741752e+00 -2.6743698810382121e+01 +1.9654120516298258e+03 -5.1570139793197304e+04 +1.2572479270683063e+07 
+4.1999999999999931e+00 -5.5522690421145493e-01 +7.3247331470105879e+00 +3.9316874420251149e+00 -2.6850545561150920e+01 +1.9197149095514176e+03 -4.9314310362751865e+04 +1.2737869192175958e+07 
+4.2499999999999929e+00 -5.5525483650561314e-01 +7.3261946895614081e+00 +3.9055763761443592e+00 -2.6949910943135684e+01 +1.8742251782216063e+03 -4.7112733486978228e+04 +1.2899986213178674e+07 
+4.2999999999999927e+00 -5.5528302852139888e-01 +7.3276679468200232e+00 +3.8793151921862843e+00 -2.7041301147901244e+01 +1.8291018784826445e+03 -4.4969376273340320e+04 +1.3058092820520246e+07 
+4.3499999999999925e+00 -5.5531147729716268e-01 +7.3291527049878615e+00 +3.8528988237277817e+00 -2.7124222527801575e+01 +1.7845041062037051e+03 -4.2888204588986417e+04 +1.3211450989712927e+07 
+4.3999999999999924e+00 -5.5534017987125195e-01 +7.3306487502634665e+00 +3.8263222048312304e+00 -2.7198181318097149e+01 +1.7405909338217882e+03 -4.0873185293109607e+04 +1.3359322893899478e+07 
+4.4499999999999922e+00 -5.5536913328203075e-01 +7.3321558688493358e+00 +3.7995802715008211e+00 -2.7262683916756526e+01 +1.6975213906026995e+03 -3.8928283946671821e+04 +1.3500970962536098e+07 
+4.4999999999999920e+00 -5.5539833456783561e-01 +7.3336738469476792e+00 +3.7726679556795575e+00 -2.7317236707723779e+01 +1.6554546056656939e+03 -3.7057466274374288e+04 +1.3635656991302414e+07 
+4.5499999999999918e+00 -5.5542778076703847e-01 +7.3352024707587038e+00 +3.7455801953033396e+00 -2.7361345979231594e+01 +1.6145495495381188e+03 -3.5264698889312618e+04 +1.3762643836006809e+07 
+4.5999999999999917e+00 -5.5545746891795955e-01 +7.3367415264873808e+00 +3.7183119187654081e+00 -2.7394518241574314e+01 +1.5749654525504397e+03 -3.3553946518036493e+04 +1.3881192592224739e+07 
+4.6499999999999915e+00 -5.5548739605896436e-01 +7.3382908003372149e+00 +3.6908580633900825e+00 -2.7416259917556669e+01 +1.5368612961790800e+03 -3.1929174767300032e+04 +1.3990566067281097e+07 
+4.6999999999999913e+00 -5.5551755922839685e-01 +7.3398500785124527e+00 +3.6632135626435263e+00 -2.7426077478408761e+01 +1.5003961703019784e+03 -3.0394348822224594e+04 +1.4090026320512820e+07 
+4.7499999999999911e+00 -5.5554795546459002e-01 +7.3414191472188577e+00 +3.6353733481953303e+00 -2.7423477438109508e+01 +1.4657292097034840e+03 -2.8953433654002514e+04 +1.4178835125148106e+07 
+4.7999999999999909e+00 -5.5557858180589437e-01 +7.3429977926627572e+00 +3.6073323551744125e+00 -2.7407966358994816e+01 +1.4330194562707720e+03 -2.7610393784049411e+04 +1.4256254882157752e+07 
+4.8499999999999908e+00 -5.5560943529063245e-01 +7.3445858010489555e+00 +3.5790855141582210e+00 -2.7379050720924621e+01 +1.4024260729007540e+03 -2.6369194557336064e+04 +1.4321547182971746e+07 
+4.8999999999999906e+00 -5.5564051295714700e-01 +7.3461829585878586e+00 +3.5506277597264879e+00 -2.7336237241188236e+01 +1.3741081131108024e+03 -2.5233799397274834e+04 +1.4373974365690371e+07 
+4.9499999999999904e+00 -5.5567181184377157e-01 +7.3477890514865161e+00 +3.5219540252031467e+00 -2.7279032500848267e+01 +1.3482246647258053e+03 -2.4208172900811205e+04 +1.4412798537534345e+07 
+4.9999999999999902e+00 -5.5570332898881569e-01 +7.3494038659541738e+00 +3.4930592404656342e+00 -2.7206943176025366e+01 +1.3249349040537834e+03 -2.3296278931693912e+04 +1.4437281226931853e+07 
+5.0499999999999901e+00 -5.5573506143061357e-01 +7.3510271882002511e+00 +3.4639383398866528e+00 -2.7119475941067098e+01 +1.3043978905388358e+03 -2.2502081472022564e+04 +1.4446684735993970e+07 
