# multipoles
# s[mm] polynom_b[n=0][T/m^n] polynom_b[n=1][T/m^n] polynom_b[n=2][T/m^n] polynom_b[n=3][T/m^n] polynom_b[n=4][T/m^n] polynom_b[n=5][T/m^n] polynom_b[n=6][T/m^n] 
+0.0000000000000000e+00 -5.7921821631306369e-01 +7.5680937885504820e+00 +5.9737240752089127e+00 +2.3718955681278171e+01 -7.1310495599192900e+03 -6.4083710018447309e+05 +4.5197482875400186e+07 
-5.0000000000000003e-02 -5.7922237494820605e-01 +7.5682406295862137e+00 +5.9698283579506057e+00 +2.4111432942607923e+01 -7.0934720422694081e+03 -6.4355711558178230e+05 +4.4899929208426997e+07 
-1.0000000000000001e-01 -5.7922693096850586e-01 +7.5684098689852419e+00 +5.9649916884699028e+00 +2.4487575322285572e+01 -7.0493297095645967e+03 -6.4613029510833160e+05 +4.4576503341141216e+07 
-1.5000000000000002e-01 -5.7923188359671451e-01 +7.5686014444946679e+00 +5.9592375519685046e+00 +2.4846822903358351e+01 -6.9989700891792354e+03 -6.4855295919303724e+05 +4.4228905901101686e+07 
-2.0000000000000001e-01 -5.7923723205560118e-01 +7.5688152938699984e+00 +5.9525894335747402e+00 +2.5188615480713057e+01 -6.9427407078854785e+03 -6.5082142602263601e+05 +4.3858837516256988e+07 
-2.5000000000000000e-01 -5.7924297556794935e-01 +7.5690513548610276e+00 +5.9450708176780092e+00 +2.5512393114830608e+01 -6.8809890742029365e+03 -6.5293201598572813e+05 +4.3467998696551241e+07 
-2.9999999999999999e-01 -5.7924911335656659e-01 +7.5693095652261437e+00 +5.9367051896972418e+00 +2.5817595546961794e+01 -6.8140627226950273e+03 -6.5488104687189043e+05 +4.3058090119386807e+07 
-3.4999999999999998e-01 -5.7925564464427637e-01 +7.5695898627155005e+00 +5.9275160341834896e+00 +2.6103662898958650e+01 -6.7423091621977501e+03 -6.5666483967539330e+05 +4.2630812280122727e+07 
-3.9999999999999997e-01 -5.7926256865392767e-01 +7.5698921850904082e+00 +5.9175268374278689e+00 +2.6370034862416464e+01 -6.6660759506855029e+03 -6.5827971184655698e+05 +4.2187866010418162e+07 
-4.4999999999999996e-01 -5.7926988460838724e-01 +7.5702164701073453e+00 +5.9067610853045940e+00 +2.6616151371143943e+01 -6.5857106339925476e+03 -6.5972198290827195e+05 +4.1730952057718821e+07 
-4.9999999999999994e-01 -5.7927759173053395e-01 +7.5705626555245029e+00 +5.8952422623891252e+00 +2.6841452315511901e+01 -6.5015607183836637e+03 -6.6098797202920599e+05 +4.1261770882732846e+07 
-5.4999999999999993e-01 -5.7928568924327195e-01 +7.5709306791039337e+00 +5.8829938552198904e+00 +2.7045377469571687e+01 -6.4139737698684357e+03 -6.6207399749151396e+05 +4.0782023373856835e+07 
-5.9999999999999998e-01 -5.7929417636951486e-01 +7.5713204786034876e+00 +5.8700393479777366e+00 +2.7227366799351234e+01 -6.3232972825311135e+03 -6.6297637912566343e+05 +4.0293409901175141e+07 
-6.5000000000000002e-01 -5.7930305233221124e-01 +7.5717319917894423e+00 +5.8564022286461128e+00 +2.7386859958678645e+01 -6.2298788603716266e+03 -6.6369143423794082e+05 +3.9797631604441695e+07 
-7.0000000000000007e-01 -5.7931231635431213e-01 +7.5721651564203460e+00 +5.8421059819854992e+00 +2.7523296960799236e+01 -6.1340660128590407e+03 -6.6421548315371701e+05 +3.9296388952306740e+07 
-7.5000000000000011e-01 -5.7932196765880117e-01 +7.5726199102607712e+00 +5.8271740953881892e+00 +2.7636117593745084e+01 -6.0362063243850207e+03 -6.6454484433710144e+05 +3.8791382937301546e+07 
-8.0000000000000016e-01 -5.7933200546865382e-01 +7.5730961910752370e+00 +5.8116300517148662e+00 +2.7724761672808288e+01 -5.9366472524005076e+03 -6.6467583648078248e+05 +3.8284313672255747e+07 
-8.5000000000000020e-01 -5.7934242900690658e-01 +7.5735939366284244e+00 +5.7954973417819859e+00 +2.7788669038456725e+01 -5.8357364726907590e+03 -6.6460477851598663e+05 +3.7776882757800572e+07 
-9.0000000000000024e-01 -5.7935323749658008e-01 +7.5741130846864086e+00 +5.7787994502257805e+00 +2.7827279501857731e+01 -5.7338214905868545e+03 -6.6432798913710366e+05 +3.7270790628256820e+07 
-9.5000000000000029e-01 -5.7936443016071648e-01 +7.5746535730139311e+00 +5.7615598624352131e+00 +2.7840032958930141e+01 -5.6312498313424849e+03 -6.6384178777348390e+05 +3.6767737850569323e+07 
-1.0000000000000002e+00 -5.7937600622239049e-01 +7.5752153393797332e+00 +5.7438020665952605e+00 +2.7826369155214554e+01 -5.5283690958293782e+03 -6.6314249256935250e+05 +3.6269425501549587e+07 
-1.0500000000000003e+00 -5.7938796490468847e-01 +7.5757983215470936e+00 +5.7255495500450966e+00 +2.7785728095712440e+01 -5.4255268618899299e+03 -6.6222642385099665e+05 +3.5777554498205990e+07 
-1.1000000000000003e+00 -5.7940030543070720e-01 +7.5764024572873110e+00 +5.7068257985081834e+00 +2.7717549477382587e+01 -5.3230706595980655e+03 -6.6108989940557838e+05 +3.5293825421081305e+07 
-1.1500000000000004e+00 -5.7941302702356901e-01 +7.5770276843646798e+00 +5.6876542997525972e+00 +2.7621273309292839e+01 -5.2213480776584620e+03 -6.5972923958168866e+05 +3.4819939256946295e+07 
-1.2000000000000004e+00 -5.7942612890640877e-01 +7.5776739405469007e+00 +5.6680585405277704e+00 +2.7496339479313683e+01 -5.1207066744985677e+03 -6.5814076372930373e+05 +3.4357596775897533e+07 
-1.2500000000000004e+00 -5.7943961030239621e-01 +7.5783411636045459e+00 +5.6480620108263224e+00 +2.7342187776391349e+01 -5.0214940944119453e+03 -6.5632079036011500e+05 +3.3908499320358597e+07 
-1.3000000000000005e+00 -5.7945347043468576e-01 +7.5790292913051207e+00 +5.6276881947815198e+00 +2.7158258146968702e+01 -4.9240578228057493e+03 -6.5426563930935587e+05 +3.3474347157384600e+07 
-1.3500000000000005e+00 -5.7946770852648000e-01 +7.5797382614157947e+00 +5.6069605824690170e+00 +2.6943990561803854e+01 -4.8287455057962352e+03 -6.5197163058085984e+05 +3.3056841636934001e+07 
-1.4000000000000006e+00 -5.7948232380098885e-01 +7.5804680117050767e+00 +5.5859026620388983e+00 +2.6698824952375862e+01 -4.7359047343461471e+03 -6.4943508380846318e+05 +3.2657683724295057e+07 
-1.4500000000000006e+00 -5.7949731548142092e-01 +7.5812184799430353e+00 +5.5645379191034818e+00 +2.6422201218702149e+01 -4.6458830360157936e+03 -6.4665231843057612e+05 +3.2278573974347062e+07 
-1.5000000000000007e+00 -5.7951268279103796e-01 +7.5819896038957104e+00 +5.5428898448270312e+00 +2.6113559428701155e+01 -4.5590280762142438e+03 -6.4361965516681969e+05 +3.1921213826153740e+07 
-1.5500000000000007e+00 -5.7952842495309775e-01 +7.5827813213297377e+00 +5.5209819277359324e+00 +2.5772339653224083e+01 -4.4756874586717022e+03 -6.4033341480176151e+05 +3.1587304337101802e+07 
-1.6000000000000008e+00 -5.7954454119087351e-01 +7.5835935700166957e+00 +5.4988376557422596e+00 +2.5397981759343359e+01 -4.3962087646008658e+03 -6.3678991634083632e+05 +3.1278546389038362e+07 
-1.6500000000000008e+00 -5.7956103072765186e-01 +7.5844262877208619e+00 +5.4764805166743376e+00 +2.4989925953314859e+01 -4.3209395733451756e+03 -6.3298548165648163e+05 +3.0996640850315195e+07 
-1.7000000000000008e+00 -5.7957789278674787e-01 +7.5852794122116345e+00 +5.4539340000216532e+00 +2.4547612225511674e+01 -4.2502275036004603e+03 -6.2891643073534651e+05 +3.0743288832811300e+07 
-1.7500000000000009e+00 -5.7959512659149182e-01 +7.5861528812546029e+00 +5.4312215957821293e+00 +2.4070480738057746e+01 -4.1844201947553202e+03 -6.2457908495699952e+05 +3.0520191616887677e+07 
-1.8000000000000009e+00 -5.7961273136523084e-01 +7.5870466326169748e+00 +5.4083667937015116e+00 +2.3557971603630165e+01 -4.1238652690988729e+03 -6.1996976527565997e+05 +3.0329050321528271e+07 
-1.8500000000000010e+00 -5.7963070633132519e-01 +7.5879606040646914e+00 +5.3853930834829624e+00 +2.3009525002647646e+01 -4.0689103548526350e+03 -6.1508479317334120e+05 +3.0171566136378549e+07 
-1.9000000000000010e+00 -5.7964905071313744e-01 +7.5888947333618484e+00 +5.3623239526544753e+00 +2.2424581193417129e+01 -4.0199030167784990e+03 -6.0992049072347151e+05 +3.0049439797550384e+07 
-1.9500000000000011e+00 -5.7966776373407702e-01 +7.5898489582734632e+00 +5.3391828933403618e+00 +2.1802580407134531e+01 -3.9771909377298512e+03 -6.0447317970964615e+05 +2.9964372820842415e+07 
-2.0000000000000009e+00 -5.7968684461755793e-01 +7.5908232165655756e+00 +5.3159933970797226e+00 +2.1142962844756585e+01 -3.9411217928907981e+03 -5.9873918164097203e+05 +2.9918066696756415e+07 
-2.0500000000000007e+00 -5.7970629227820214e-01 +7.5918174147145683e+00 +5.2927746062688428e+00 +2.0445658933666838e+01 -3.9119588658336552e+03 -5.9271814631655975e+05 +2.9911764179247051e+07 
-2.1000000000000005e+00 -5.7972610439490690e-01 +7.5928313269508099e+00 +5.2695290214076955e+00 +1.9712576921897170e+01 -3.8896380603046409e+03 -5.8642322496772569e+05 +2.9944941801228866e+07 
-2.1500000000000004e+00 -5.7974627833750270e-01 +7.5938646926565410e+00 +5.2462551792550176e+00 +1.8946123562148685e+01 -3.8740159048383680e+03 -5.7987099527070124e+05 +3.0016651314228371e+07 
-2.2000000000000002e+00 -5.7976681147580222e-01 +7.5949172512101288e+00 +5.2229516112381997e+00 +1.8148705769763019e+01 -3.8649487809385437e+03 -5.7307803622810019e+05 +3.0125943463937804e+07 
-2.2500000000000000e+00 -5.7978770117966605e-01 +7.5959887419924481e+00 +5.1996168554322457e+00 +1.7322730362250233e+01 -3.8622932560737258e+03 -5.6606092597900250e+05 +3.0271870281172574e+07 
-2.2999999999999998e+00 -5.7980894481892420e-01 +7.5970789043847420e+00 +5.1762494424867889e+00 +1.6470604163126414e+01 -3.8659056943526120e+03 -5.5883624273443478e+05 +3.0453482407711975e+07 
-2.3499999999999996e+00 -5.7983053976345633e-01 +7.5981874777684553e+00 +5.1528479098801920e+00 +1.5594733995952110e+01 -3.8756426457378229e+03 -5.5142056468721421e+05 +3.0669831748837825e+07 
-2.3999999999999995e+00 -5.7985248338311934e-01 +7.5993142015226809e+00 +5.1294107897472552e+00 +1.4697526791420941e+01 -3.8913605200752804e+03 -5.4383047088159213e+05 +3.0919969275828645e+07 
-2.4499999999999993e+00 -5.7987477304779944e-01 +7.6004588150284560e+00 +5.1059366169523877e+00 +1.3781389409561870e+01 -3.9129158001920168e+03 -5.3608253976493794e+05 +3.1202946454633974e+07 
-2.4999999999999991e+00 -5.7989740612737428e-01 +7.6016210576667174e+00 +5.0824239237201727e+00 +1.2848728728604785e+01 -3.9401649013585311e+03 -5.2819334992597660e+05 +3.1517814305864960e+07 
-2.5499999999999989e+00 -5.7992037999174006e-01 +7.6028006688197847e+00 +5.0588712437524270e+00 +1.1901951580339638e+01 -3.9729642808204312e+03 -5.2017947956240043e+05 +3.1863624143391602e+07 
-2.5999999999999988e+00 -5.7994369201080576e-01 +7.6039973878673228e+00 +5.0352771114208164e+00 +1.0943464904773105e+01 -4.0111704139006733e+03 -5.1205750770139019e+05 +3.2239427400376283e+07 
-2.6499999999999986e+00 -5.7996733955446544e-01 +7.6052109541920192e+00 +5.0116400568738575e+00 +9.9756755368275023e+00 -4.0546396645866903e+03 -5.0384401252363954e+05 +3.2644274770109642e+07 
-2.6999999999999984e+00 -5.7999131999264897e-01 +7.6064411071739579e+00 +4.9879586150755815e+00 +9.0009904295916208e+00 -4.1032285307684333e+03 -4.9555557318407454e+05 +3.3077217867765456e+07 
-2.7499999999999982e+00 -5.8001563069527640e-01 +7.6076875861951114e+00 +4.9642313182599249e+00 +8.0218164545307200e+00 -4.1567934400853255e+03 -4.8720876808731467e+05 +3.3537307842442349e+07 
-2.7999999999999980e+00 -5.8004026903226791e-01 +7.6089501306364147e+00 +4.9404566966937828e+00 +7.0405605316198949e+00 -4.2151907654986207e+03 -4.7882017602484539e+05 +3.4023595472065821e+07 
-2.8499999999999979e+00 -5.8006523237357055e-01 +7.6102284798809308e+00 +4.9166332843568474e+00 +6.0596295201205956e+00 -4.2782769844603272e+03 -4.7040637533602520e+05 +3.4535132254898295e+07 
-2.8999999999999977e+00 -5.8009051808911460e-01 +7.6115223733083415e+00 +4.8927596111575271e+00 +5.0814304097655336e+00 -4.3459084705658761e+03 -4.6198394535832066e+05 +3.5070969012905546e+07 
-2.9499999999999975e+00 -5.8011612354884745e-01 +7.6128315503035182e+00 +4.8688342082925331e+00 +4.1083699862855276e+00 -4.4179416272982262e+03 -4.5356946374194906e+05 +3.5630156748959541e+07 
-2.9999999999999973e+00 -5.8014204612271592e-01 +7.6141557502451045e+00 +4.8448556066751820e+00 +3.1428552890466417e+00 -4.4942328652482302e+03 -4.4517951017273904e+05 +3.6211746573203146e+07 
-3.0499999999999972e+00 -5.8016828318067049e-01 +7.6154947125165178e+00 +4.8208223355942685e+00 +2.1872931795880484e+00 -4.5746385432708166e+03 -4.3683066290062835e+05 +3.6814789217037357e+07 
-3.0999999999999970e+00 -5.8019483209267797e-01 +7.6168481765001115e+00 +4.7967329269805674e+00 +1.2440905609629915e+00 -4.6590150992761783e+03 -4.2853950047351001e+05 +3.7438335972497247e+07 
-3.1499999999999968e+00 -5.8022169022868519e-01 +7.6182158815759671e+00 +4.7725859079569135e+00 +3.1565443126252796e-01 -4.7472188465658537e+03 -4.2032260218075052e+05 +3.8081437314934231e+07 
-3.1999999999999966e+00 -5.8024885495866185e-01 +7.6195975671309331e+00 +4.7483798087817801e+00 -5.9560847510043813e-01 -4.8391061822554684e+03 -4.1219654516943241e+05 +3.8743144278783038e+07 
-3.2499999999999964e+00 -5.8027632365257886e-01 +7.6209929725421892e+00 +4.7241131587211660e+00 -1.4872910366879026e+00 -4.9345334820259777e+03 -4.0417790969109791e+05 +3.9422507779804379e+07 
-3.2999999999999963e+00 -5.8030409368039082e-01 +7.6224018371944755e+00 +4.6997844841511434e+00 -2.3569864300458003e+00 -5.0333570511961425e+03 -3.9628327355821169e+05 +4.0118578282658212e+07 
-3.3499999999999961e+00 -5.8033216241207719e-01 +7.6238239004694845e+00 +4.6753923141066434e+00 -3.2022877114185353e+00 -5.1354332649729131e+03 -3.8852921552682290e+05 +4.0830406724740781e+07 
-3.3999999999999959e+00 -5.8036052721760845e-01 +7.6252589017503345e+00 +4.6509351756832098e+00 -4.0207879865311673e+00 -5.2406184500989511e+03 -3.8093231394170673e+05 +4.1557043724440061e+07 
-3.4499999999999957e+00 -5.8038918546694596e-01 +7.6267065804189196e+00 +4.6264115938928168e+00 -4.8100803115653923e+00 -5.3487688866966073e+03 -3.7350914753325429e+05 +4.2297539628597699e+07 
-3.4999999999999956e+00 -5.8041813453008861e-01 +7.6281666758579485e+00 +4.6018200994186174e+00 -5.5677577769309021e+00 -5.4597410073767105e+03 -3.6627629470277479e+05 +4.3050945810455777e+07 
-3.5499999999999954e+00 -5.8044737177696926e-01 +7.6296389274499159e+00 +4.5771592109485377e+00 -6.2914134669222959e+00 -5.5733909265069869e+03 -3.5925033387882798e+05 +4.3816311515167341e+07 
-3.5999999999999952e+00 -5.8047689457759932e-01 +7.6311230745778316e+00 +4.5524274600637984e+00 -6.9786404779631548e+00 -5.6895751089441810e+03 -3.5244784339408920e+05 +4.4592688368180305e+07 
-3.6499999999999950e+00 -5.8050670030193030e-01 +7.6326188566248856e+00 +4.5276233679851430e+00 -7.6270319224888308e+00 -5.8081497486310891e+03 -3.4588540138687828e+05 +4.5379126196201719e+07 
-3.6999999999999948e+00 -5.8053678631993766e-01 +7.6341260129716320e+00 +4.5027454595288328e+00 -8.2341807968115805e+00 -5.9289711407539862e+03 -3.3957958696315571e+05 +4.6174675530920915e+07 
-3.7499999999999947e+00 -5.8056715000159298e-01 +7.6356442830049875e+00 +4.4777922577342952e+00 -8.7976803737956129e+00 -6.0518955296584727e+03 -3.3354697687275766e+05 +4.6978386547737040e+07 
-3.7999999999999945e+00 -5.8059778871686363e-01 +7.6371734061028196e+00 +4.4527622856205138e+00 -9.3151235395589200e+00 -6.1767791739915374e+03 -3.2780415108504513e+05 +4.7789309578209423e+07 
-3.8499999999999943e+00 -5.8062869983571808e-01 +7.6387131216516062e+00 +4.4276540653990661e+00 -9.7841035496902506e+00 -6.3034783085282024e+03 -3.2236768644775625e+05 +4.8606494785747983e+07 
-3.8999999999999941e+00 -5.8065988072811947e-01 +7.6402631690341956e+00 +4.4024661187809189e+00 -1.0202213502255368e+01 -6.4318491651922604e+03 -3.1725416112141154e+05 +4.9428992356681660e+07 
-3.9499999999999940e+00 -5.8069132876403051e-01 +7.6418232876311665e+00 +4.3771969665705939e+00 -1.0567046419375908e+01 -6.5617479510446510e+03 -3.1248015380995558e+05 +5.0255852309435368e+07 
-3.9999999999999938e+00 -5.8072304131340446e-01 +7.6433932168274916e+00 +4.3518451281465822e+00 -1.0876195485851216e+01 -6.6930308431286803e+03 -3.0806224190668698e+05 +5.1086124495885178e+07 
-4.0499999999999936e+00 -5.8075501568646559e-01 +7.6449727227811470e+00 +4.3264091577603088e+00 -1.1128078892204872e+01 -6.8255571382176213e+03 -3.0401162857549312e+05 +5.1918911978172123e+07 
-4.0999999999999934e+00 -5.8078724895591460e-01 +7.6465616754637127e+00 +4.3008866280706881e+00 -1.1324399011802436e+01 -6.9591629031778239e+03 -3.0031831157495052e+05 +5.2753303405625656e+07 
-4.1499999999999932e+00 -5.8081973813539634e-01 +7.6481599700527489e+00 +4.2752745922943136e+00 -1.1467677602816821e+01 -7.0936693936789316e+03 -2.9696705222506745e+05 +5.3588327104406565e+07 
-4.1999999999999931e+00 -5.8085248023858915e-01 +7.6497675017258349e+00 +4.2495701089870543e+00 -1.1560436426672073e+01 -7.2288980078504401e+03 -2.9394261191168829e+05 +5.4423012368287712e+07 
-4.2499999999999929e+00 -5.8088547227914367e-01 +7.6513841656609918e+00 +4.2237702313501426e+00 -1.1605197277027308e+01 -7.3646699938784495e+03 -2.9122975171970471e+05 +5.5256387456870303e+07 
-4.2999999999999927e+00 -5.8091871127074279e-01 +7.6530098570341885e+00 +4.1978720182403455e+00 -1.1604481877852503e+01 -7.5008067505618828e+03 -2.8881323330813251e+05 +5.6087481641140185e+07 
-4.3499999999999925e+00 -5.8095219422705446e-01 +7.6546444710260939e+00 +4.1718725253088804e+00 -1.1560812141102186e+01 -7.6371295870450922e+03 -2.8667781684060628e+05 +5.6915323576710239e+07 
-4.3999999999999924e+00 -5.8098591816175527e-01 +7.6562879028172874e+00 +4.1457688098118952e+00 -1.1476709994802281e+01 -7.7734598505764952e+03 -2.8480826231124444e+05 +5.7738942155589871e+07 
-4.4499999999999922e+00 -5.8101988008851779e-01 +7.6579400475825814e+00 +4.1195579278574073e+00 -1.1354697140776839e+01 -7.9096188561520057e+03 -2.8318933159238246e+05 +5.8557366052171603e+07 
-4.4999999999999920e+00 -5.8105407702104273e-01 +7.6596008005041210e+00 +4.0932369405638855e+00 -1.1197295590944782e+01 -8.0454280487417145e+03 -2.8180578401394322e+05 +5.9369624798357405e+07 
-4.5499999999999918e+00 -5.8108850597300199e-01 +7.6612700567629854e+00 +4.0668029033877007e+00 -1.1007027328924082e+01 -8.1807087134904168e+03 -2.8064237912986230e+05 +6.0174746821305685e+07 
-4.5999999999999917e+00 -5.8112316395808428e-01 +7.6629477115349829e+00 +4.0402528751699798e+00 -1.0786414124315684e+01 -8.3152822276502320e+03 -2.7968387829958874e+05 +6.0971761176034674e+07 
-4.6499999999999915e+00 -5.8115804798999149e-01 +7.6646336600040152e+00 +4.0135839166936291e+00 -1.0537978097176936e+01 -8.4489700116433305e+03 -2.7891503999127331e+05 +6.1759697173867658e+07 
-4.6999999999999913e+00 -5.8119315508239122e-01 +7.6663277973495267e+00 +3.9867930829583207e+00 -1.0264241205891606e+01 -8.5815933307638370e+03 -2.7832062397338467e+05 +6.2537583085498326e+07 
-4.7499999999999911e+00 -5.8122848224900259e-01 +7.6680300187528738e+00 +3.9598774381403623e+00 -9.9677254957942996e+00 -8.7129736901924152e+03 -2.7788538933656813e+05 +6.3304448771684669e+07 
-4.7999999999999909e+00 -5.8126402650351972e-01 +7.6697402193963669e+00 +3.9328340414167471e+00 -9.6509530577620968e+00 -8.8429324525487773e+03 -2.7759409483548033e+05 +6.4059323106215417e+07 
-4.8499999999999908e+00 -5.8129978485962819e-01 +7.6714582944602903e+00 +3.9056599511445844e+00 -9.3164459270204141e+00 -8.9712909578456583e+03 -2.7743149964012176e+05 +6.4801234809094153e+07 
-4.8999999999999906e+00 -5.8133575433104123e-01 +7.6731841391294955e+00 +3.8783522310025034e+00 -8.9667263298486155e+00 -9.0978706863868138e+03 -2.7738236141645460e+05 +6.5529213534999929e+07 
-4.9499999999999904e+00 -5.8137193193145820e-01 +7.6749176485824071e+00 +3.8509079413433800e+00 -8.6043162580781978e+00 -9.2224930140006763e+03 -2.7743143970691535e+05 +6.6242288180795453e+07 
-4.9999999999999902e+00 -5.8140831467459142e-01 +7.6766587180058208e+00 +3.8233241458680411e+00 -8.2317380511457827e+00 -9.3449794096902533e+03 -2.7756349126153509e+05 +6.6939488285716504e+07 
-5.0499999999999901e+00 -5.8144489957413492e-01 +7.6784072425812377e+00 +3.7955979053121798e+00 -7.8515138605337764e+00 -9.4651512572598349e+03 -2.7776327433814167e+05 +6.7619842794362083e+07 
