# multipoles
# s[mm] polynom_b[n=0][T/m^n] polynom_b[n=1][T/m^n] polynom_b[n=2][T/m^n] polynom_b[n=3][T/m^n] polynom_b[n=4][T/m^n] polynom_b[n=5][T/m^n] polynom_b[n=6][T/m^n] 
+0.0000000000000000e+00 -5.5306511139449444e-01 +7.2511602728616262e+00 +5.7349409550066399e+00 +1.7531369617167968e+01 -8.1571728480214215e+03 -5.2100508215584338e+05 +4.2033642949383914e+07 
-5.0000000000000003e-02 -5.5307210981970500e-01 +7.2515183355942296e+00 +5.7333596133996103e+00 +1.7004847132259307e+01 -8.2789836196039705e+03 -5.1730704915597395e+05 +4.2736480534665778e+07 
-1.0000000000000001e-01 -5.5307947878881458e-01 +7.2518964402967745e+00 +5.7309587368432835e+00 +1.6487068627420708e+01 -8.3916435760774239e+03 -5.1362737798029359e+05 +4.3384441713326685e+07 
-1.5000000000000002e-01 -5.5308721698175367e-01 +7.2522944681497234e+00 +5.7277485244686046e+00 +1.5978475172903039e+01 -8.4953667360083855e+03 -5.0996955742714269e+05 +4.3978929525627106e+07 
-2.0000000000000001e-01 -5.5309532307845000e-01 +7.2527123003359586e+00 +5.7237391716093695e+00 +1.5479507778269953e+01 -8.5903670143305590e+03 -5.0633707583197590e+05 +4.4521346306567535e+07 
-2.5000000000000000e-01 -5.5310379575886470e-01 +7.2531498180381311e+00 +5.7189408768561041e+00 +1.4990607476396963e+01 -8.6768584162508159e+03 -5.0273342168768152e+05 +4.5013095006735057e+07 
-2.9999999999999999e-01 -5.5311263370297015e-01 +7.2536069024376113e+00 +5.7133638374098554e+00 +1.4512215382951108e+01 -8.7550549074709161e+03 -4.9916208418074151e+05 +4.5455578303672440e+07 
-3.4999999999999998e-01 -5.5312183559075989e-01 +7.2540834347220899e+00 +5.7070182516733583e+00 +1.4044772379268213e+01 -8.8251704897093223e+03 -4.9562655057315290e+05 +4.5850199127809972e+07 
-3.9999999999999997e-01 -5.5313140010222916e-01 +7.2545792960765514e+00 +5.6999143149704556e+00 +1.3588719487035029e+01 -8.8874190766177544e+03 -4.9213030929873959e+05 +4.6198359794517450e+07 
-4.4999999999999996e-01 -5.5314132591740572e-01 +7.2550943676868398e+00 +5.6920622259521760e+00 +1.3144497716830326e+01 -8.9420146809021735e+03 -4.8867684869915328e+05 +4.6501463325707041e+07 
-4.9999999999999994e-01 -5.5315161171632699e-01 +7.2556285307424391e+00 +5.6834721817050422e+00 +1.2712547945981269e+01 -8.9891712653483064e+03 -4.8526965599007712e+05 +4.6760912372527048e+07 
-5.4999999999999993e-01 -5.5316225617904613e-01 +7.2561816664298568e+00 +5.6741543793824558e+00 +1.2293311213271586e+01 -9.0291027981632069e+03 -4.8191221977691288e+05 +4.6978109635928802e+07 
-5.9999999999999998e-01 -5.5317325798562589e-01 +7.2567536559416661e+00 +5.6641190149449603e+00 +1.1887228327257837e+01 -9.0620232154786372e+03 -4.7860802674714866e+05 +4.7154457600431934e+07 
-6.5000000000000002e-01 -5.5318461581616085e-01 +7.2573443804655433e+00 +5.6533762873693654e+00 +1.1494740325706839e+01 -9.0881465364981505e+03 -4.7536056550081883e+05 +4.7291359316708095e+07 
-7.0000000000000007e-01 -5.5319632835073695e-01 +7.2579537211969543e+00 +5.6419363912731297e+00 +1.1116287945443666e+01 -9.1076866634870621e+03 -4.7217332214385970e+05 +4.7390217047001034e+07 
-7.5000000000000011e-01 -5.5320839426948831e-01 +7.2585815593266743e+00 +5.6298095268200026e+00 +1.0752312150454811e+01 -9.1208576470705502e+03 -4.6904978468980506e+05 +4.7452434051333576e+07 
-8.0000000000000016e-01 -5.5322081225252862e-01 +7.2592277760454378e+00 +5.6170058881600262e+00 +1.0403253921930103e+01 -9.1278733767467129e+03 -4.6599344127989304e+05 +4.7479412501821332e+07 
-8.5000000000000020e-01 -5.5323358098000708e-01 +7.2598922525515466e+00 +5.6035356728035755e+00 +1.0069553963235318e+01 -9.1289478339208999e+03 -4.6300777779899829e+05 +4.7472555198573597e+07 
-9.0000000000000024e-01 -5.5324669913208979e-01 +7.2605748700371553e+00 +5.5894090785916122e+00 +9.7516532484258107e+00 -9.1242950098894562e+03 -4.6009628235656454e+05 +4.7433265011840262e+07 
-9.5000000000000029e-01 -5.5326016538893719e-01 +7.2612755097003054e+00 +5.5746363001833448e+00 +9.4499925444013329e+00 -9.1141288120930094e+03 -4.5726244140089664e+05 +4.7362944247846842e+07 
-1.0000000000000002e+00 -5.5327397843074766e-01 +7.2619940527381237e+00 +5.5592275357483407e+00 +9.1650126686181004e+00 -9.0986632415100630e+03 -4.5450974177294056e+05 +4.7262995846567303e+07 
-1.0500000000000003e+00 -5.5328813693772350e-01 +7.2627303803444381e+00 +5.5431929817685441e+00 +8.8971546061210010e+00 -9.0781122536605944e+03 -4.5184167172315228e+05 +4.7134822435085028e+07 
-1.1000000000000003e+00 -5.5330263959006509e-01 +7.2634843737220711e+00 +5.5265428317890590e+00 +8.6468589934835602e+00 -9.0526897251509326e+03 -4.4926171664213127e+05 +4.6979826109782368e+07 
-1.1500000000000004e+00 -5.5331748506803413e-01 +7.2642559140684657e+00 +5.5092872881273989e+00 +8.4145667196618312e+00 -9.0226097758740925e+03 -4.4677336404756596e+05 +4.6799410636610731e+07 
-1.2000000000000004e+00 -5.5333267205185155e-01 +7.2650448825821776e+00 +5.4914365427382181e+00 +8.2007186473774745e+00 -8.9880862405335902e+03 -4.4438010123062722e+05 +4.6594977832932457e+07 
-1.2500000000000004e+00 -5.5334819922177547e-01 +7.2658511604655232e+00 +5.4730007919315504e+00 +8.0057555050248528e+00 -8.9493330730694688e+03 -4.4208541437515151e+05 +4.6367930326554649e+07 
-1.3000000000000005e+00 -5.5336406525807980e-01 +7.2666746289165394e+00 +5.4539902327169827e+00 +7.8301182299193828e+00 -8.9065642520041711e+03 -4.3989279144777940e+05 +4.6119670934647255e+07 
-1.3500000000000005e+00 -5.5338026884105096e-01 +7.2675151691410758e+00 +5.4344150612986919e+00 +7.6742474554019262e+00 -8.8599937294539013e+03 -4.3780571789749974e+05 +4.5851602277966782e+07 
-1.4000000000000006e+00 -5.5339680865098395e-01 +7.2683726623392548e+00 +5.4142854735198682e+00 +7.5385840833360849e+00 -8.8098354522764057e+03 -4.3582768144176574e+05 +4.5565126957546003e+07 
-1.4500000000000006e+00 -5.5341368336819363e-01 +7.2692469897146434e+00 +5.3936116658958051e+00 +7.4235688843626679e+00 -8.7563033829061696e+03 -4.3396216868528904e+05 +4.5261647671317473e+07 
-1.5000000000000007e+00 -5.5343089167299298e-01 +7.2701380324692710e+00 +5.3724038329779003e+00 +7.3296427359496459e+00 -8.6996114378816965e+03 -4.3221266721003427e+05 +4.4942566832835957e+07 
-1.5500000000000007e+00 -5.5344843224571982e-01 +7.2710456718101559e+00 +5.3506721706927634e+00 +7.2572463087106467e+00 -8.6399735659209327e+03 -4.3058266281265841e+05 +4.4609287056568339e+07 
-1.6000000000000008e+00 -5.5346630376673334e-01 +7.2719697889419370e+00 +5.3284268768642926e+00 +7.2068204254006485e+00 -8.5776037702532922e+03 -4.2907564269743446e+05 +4.4263211335143544e+07 
-1.6500000000000008e+00 -5.5348450491637224e-01 +7.2729102650693207e+00 +5.3056781433324520e+00 +7.1788059069349792e+00 -8.5127158938457087e+03 -4.2769509397759917e+05 +4.3905741585946701e+07 
-1.7000000000000008e+00 -5.5350303437502746e-01 +7.2738669813966883e+00 +5.2824361687239563e+00 +7.1736436145373821e+00 -8.4455239632093671e+03 -4.2644450413679041e+05 +4.3538280968751714e+07 
-1.7500000000000009e+00 -5.5352189082306769e-01 +7.2748398191315955e+00 +5.2587111461446501e+00 +7.1917743142994297e+00 -8.3762418596215521e+03 -4.2532735995607945e+05 +4.3162231674341656e+07 
-1.8000000000000009e+00 -5.5354107294089161e-01 +7.2758286594809833e+00 +5.2345132713292077e+00 +7.2336388107435585e+00 -8.3050835333761297e+03 -4.2434714851163252e+05 +4.2778996353524946e+07 
-1.8500000000000010e+00 -5.5356057940891457e-01 +7.2768333836541990e+00 +5.2098527409445721e+00 +7.2996778355826653e+00 -8.2322629627938368e+03 -4.2350735631752288e+05 +4.2389977859704465e+07 
-1.9000000000000010e+00 -5.5358040890754301e-01 +7.2778538728554274e+00 +5.1847397478924346e+00 +7.3903323577889752e+00 -8.1579940236133243e+03 -4.2281147187974973e+05 +4.1996578348306000e+07 
-1.9500000000000011e+00 -5.5360056011721781e-01 +7.2788900082954138e+00 +5.1591844895409142e+00 +7.5060430978186004e+00 -8.0824907189366868e+03 -4.2226298168146925e+05 +4.1600200862444155e+07 
-2.0000000000000009e+00 -5.5362103171836829e-01 +7.2799416711814526e+00 +5.1331971583544131e+00 +7.6472509487263123e+00 -8.0059669126096260e+03 -4.2186537367365556e+05 +4.1202247480144620e+07 
-2.0500000000000007e+00 -5.5364182222715119e-01 +7.2810087388646112e+00 +5.1067893750103801e+00 +7.8141723762854305e+00 -7.9286376934075770e+03 -4.2162052315029356e+05 +4.0804055216907218e+07 
-2.1000000000000005e+00 -5.5366292950262053e-01 +7.2820910690716811e+00 +5.0799785928675369e+00 +8.0060736898415215e+00 -7.8507170188376194e+03 -4.2152353368936799e+05 +4.0406657688816659e+07 
-2.1500000000000004e+00 -5.5368435123955817e-01 +7.2831885135903143e+00 +5.0527837589891460e+00 +8.2219693298460932e+00 -7.7724169331815165e+03 -4.2156773005329911e+05 +4.0011001104306109e+07 
-2.2000000000000002e+00 -5.5370608513277886e-01 +7.2843009242018999e+00 +5.0252238250115715e+00 +8.4608740063604539e+00 -7.6939496071867497e+03 -4.2174643924936495e+05 +3.9618032538013265e+07 
-2.2500000000000000e+00 -5.5372812887710554e-01 +7.2854281526927203e+00 +4.9973177419206580e+00 +8.7218022385992278e+00 -7.6155271930928729e+03 -4.2205298669554584e+05 +3.9228698938227274e+07 
-2.2999999999999998e+00 -5.5375048016736517e-01 +7.2865700508476774e+00 +4.9690844599291815e+00 +9.0037685994147960e+00 -7.5373618206947831e+03 -4.2248069820615207e+05 +3.8843947092925139e+07 
-2.3499999999999996e+00 -5.5377313669837358e-01 +7.2877264704480549e+00 +4.9405429260695630e+00 +9.3057878172657045e+00 -7.4596655388948093e+03 -4.2302290084868920e+05 +3.8464723260875210e+07 
-2.3999999999999995e+00 -5.5379609616500092e-01 +7.2888972632815028e+00 +4.9117120951610875e+00 +9.6268743681175000e+00 -7.3826506024568862e+03 -4.2367291960910265e+05 +3.8091975075188957e+07 
-2.4499999999999993e+00 -5.5381935626208023e-01 +7.2900822811253585e+00 +4.8826109136766380e+00 +9.9660431442226098e+00 -7.3065290389740667e+03 -4.2442408283035673e+05 +3.7726648625953048e+07 
-2.4999999999999991e+00 -5.5384291468449076e-01 +7.2912813757679995e+00 +4.8532583353406542e+00 +1.0322308593444342e+01 -7.2315130775858534e+03 -4.2526971519243158e+05 +3.7369691386786811e+07 
-2.5499999999999989e+00 -5.5386676912708643e-01 +7.2924943989878157e+00 +4.8236733076092912e+00 +1.0694685573802078e+01 -7.1578147717550664e+03 -4.2620314471170102e+05 +3.7022049616038874e+07 
-2.5999999999999988e+00 -5.5389091728476580e-01 +7.2937212025672435e+00 +4.7938747844342151e+00 +1.1082188765737005e+01 -7.0856463534239901e+03 -4.2721769786599843e+05 +3.6684670793561451e+07 
-2.6499999999999986e+00 -5.5391535685237980e-01 +7.2949616382876501e+00 +4.7638817104482438e+00 +1.1483832906231221e+01 -7.0152198027198929e+03 -4.2830670160685462e+05 +3.6358500690238677e+07 
-2.6999999999999984e+00 -5.5394008552486163e-01 +7.2962155579293366e+00 +4.7337130432388959e+00 +1.1898632763756561e+01 -6.9467474493967784e+03 -4.2946348306963750e+05 +3.6044487442636311e+07 
-2.7499999999999982e+00 -5.5396510099709062e-01 +7.2974828132702427e+00 +4.7033877294954110e+00 +1.2325603211840511e+01 -6.8804413252873437e+03 -4.3068137024778593e+05 +3.5743577155960597e+07 
-2.7999999999999980e+00 -5.5399040096398056e-01 +7.2987632560909876e+00 +4.6729247209703155e+00 +1.2763758993954665e+01 -6.8165136014305363e+03 -4.3195368996611889e+05 +3.5456716885435544e+07 
-2.8499999999999979e+00 -5.5401598312044953e-01 +7.3000567381687205e+00 +4.6423429690004427e+00 +1.3212115000079917e+01 -6.7551764369129305e+03 -4.3327377023031417e+05 +3.5184853602345139e+07 
-2.8999999999999977e+00 -5.5404184516141908e-01 +7.3013631112806623e+00 +4.6116614246270498e+00 +1.3669686111214418e+01 -6.6966419823755550e+03 -4.3463493892736995e+05 +3.4928934215792537e+07 
-2.9499999999999975e+00 -5.5406798478181529e-01 +7.3026822272037899e+00 +4.5808990381337864e+00 +1.4135487203499190e+01 -6.6411223651680211e+03 -4.3603052382306621e+05 +3.4689905466685839e+07 
-2.9999999999999973e+00 -5.5409439967657947e-01 +7.3040139377115709e+00 +4.5500747617007891e+00 +1.4608533299561891e+01 -6.5888297642310372e+03 -4.3745385387398716e+05 +3.4468714445212573e+07 
-3.0499999999999972e+00 -5.5412108754064915e-01 +7.3053580945805683e+00 +4.5192075461144920e+00 +1.5087839272820089e+01 -6.5399763240355269e+03 -4.3889825669487944e+05 +3.4266308019173153e+07 
-3.0999999999999970e+00 -5.5414804606897483e-01 +7.3067145495819208e+00 +4.4883163430420385e+00 +1.5572420220935678e+01 -6.4947742051118948e+03 -4.4035706173651555e+05 +3.4083633132184461e+07 
-3.1499999999999968e+00 -5.5417527295651436e-01 +7.3080831544901201e+00 +4.4574201047825035e+00 +1.6061291088235407e+01 -6.4534355898751619e+03 -4.4182359710952907e+05 +3.3921636895971291e+07 
-3.1999999999999966e+00 -5.5420276589822592e-01 +7.3094637610738946e+00 +4.4265377828400121e+00 +1.6553467038433691e+01 -6.4161726355764777e+03 -4.4329119263936509e+05 +3.3781266233919442e+07 
-3.2499999999999964e+00 -5.5423052258906436e-01 +7.3108562211040500e+00 +4.3956883270797977e+00 +1.7047963139425704e+01 -6.3831974544314517e+03 -4.4475317730778054e+05 +3.3663467762053005e+07 
-3.2999999999999963e+00 -5.5425854072401959e-01 +7.3122603863501325e+00 +4.3648906929220006e+00 +1.7543794499635975e+01 -6.3547223080523981e+03 -4.4620288037587598e+05 +3.3569189101853736e+07 
-3.3499999999999961e+00 -5.5428681799806290e-01 +7.3136761085781909e+00 +4.3341638320209190e+00 +1.8039976356934883e+01 -6.3309593581974950e+03 -4.4763363210080011e+05 +3.3499377205405209e+07 
-3.3999999999999959e+00 -5.5431535210616378e-01 +7.3151032395531503e+00 +4.3035266944811781e+00 +1.8535523966655198e+01 -6.3121207185850099e+03 -4.4903876276061987e+05 +3.3454978674718305e+07 
-3.4499999999999957e+00 -5.5434414074332150e-01 +7.3165416310433598e+00 +4.2729982352217872e+00 +1.9029452442761620e+01 -6.2984186338793324e+03 -4.5041160145620612e+05 +3.3436940998915516e+07 
-3.4999999999999956e+00 -5.5437318160451476e-01 +7.3179911348086621e+00 +4.2425974053155997e+00 +1.9520777216663063e+01 -6.2900652474517647e+03 -4.5174547977406211e+05 +3.3446210990787618e+07 
-3.5499999999999954e+00 -5.5440247238475160e-01 +7.3194516026116716e+00 +4.2123431596666903e+00 +2.0008513597672387e+01 -6.2872727993399449e+03 -4.5303372824786720e+05 +3.3483736090062398e+07 
-3.5999999999999952e+00 -5.5443201077902526e-01 +7.3209228862125943e+00 +4.1822544505967105e+00 +2.0491676967038586e+01 -6.2902534607158577e+03 -4.5426967790841620e+05 +3.3550463269836862e+07 
-3.6499999999999950e+00 -5.5446179448232868e-01 +7.3224048373701018e+00 +4.1523502295761006e+00 +2.0969282746654454e+01 -6.2992193791094287e+03 -4.5544666001866310e+05 +3.3647339342246950e+07 
-3.6999999999999948e+00 -5.5449182118967721e-01 +7.3238973078418423e+00 +4.1226494519134631e+00 +2.1440346382814955e+01 -6.3143828051953315e+03 -4.5655800597457186e+05 +3.3775311811103120e+07 
-3.7499999999999947e+00 -5.5452208859608509e-01 +7.3254001493807808e+00 +4.0931710719008914e+00 +2.1903883485684897e+01 -6.3359559568404802e+03 -4.5759704841610539e+05 +3.3935327935302682e+07 
-3.7999999999999945e+00 -5.5455259439655458e-01 +7.3269132137432553e+00 +4.0639340414368004e+00 +2.2358909510038270e+01 -6.3641509894862384e+03 -4.5855711864146113e+05 +3.4128334562009841e+07 
-3.8499999999999943e+00 -5.5458333628611178e-01 +7.3284363526799403e+00 +4.0349573169248698e+00 +2.2804440104953276e+01 -6.3991801823099258e+03 -4.5943154938703118e+05 +3.4355279377480358e+07 
-3.8999999999999941e+00 -5.5461431195976751e-01 +7.3299694179402275e+00 +4.0062598505859164e+00 +2.3239490966954740e+01 -6.4412556884354453e+03 -4.6021367378974502e+05 +3.4617109164977558e+07 
-3.9499999999999940e+00 -5.5464551911255477e-01 +7.3315122612731116e+00 +3.9778605993156138e+00 +2.3663077754721499e+01 -6.4905897972407993e+03 -4.6089682445055270e+05 +3.4914771666266911e+07 
-3.9999999999999938e+00 -5.5467695543949014e-01 +7.3330647344242186e+00 +3.9497785165176968e+00 +2.4074216268301409e+01 -6.5473946955686351e+03 -4.6147433514760842e+05 +3.5249213895973161e+07 
-4.0499999999999936e+00 -5.5470861849870745e-01 +7.3346266871477779e+00 +3.9220261219311379e+00 +2.4472008741071797e+01 -6.6117709220797115e+03 -4.6194040036002483e+05 +3.5620815942829177e+07 
-4.0999999999999934e+00 -5.5474050530001806e-01 +7.3361979567195350e+00 +3.8945901785925630e+00 +2.4856006532280407e+01 -6.6833731567991545e+03 -4.6229354007102014e+05 +3.6027709866552092e+07 
-4.1499999999999932e+00 -5.5477261271593614e-01 +7.3377783761642039e+00 +3.8674510155579931e+00 +2.5225899376869673e+01 -6.7617450179558982e+03 -4.6253358209349163e+05 +3.6467472693262085e+07 
-4.1999999999999931e+00 -5.5480493761895300e-01 +7.3393677784992368e+00 +3.8405889581691977e+00 +2.5581377325578536e+01 -6.8464300275065252e+03 -4.6266035698052769e+05 +3.6937680820355847e+07 
-4.2499999999999929e+00 -5.5483747688157081e-01 +7.3409659967511782e+00 +3.8139843330780785e+00 +2.5922130029325785e+01 -6.9369717343703824e+03 -4.6267369193463592e+05 +3.7435910796729967e+07 
-4.2999999999999927e+00 -5.5487022737630565e-01 +7.3425728639449890e+00 +3.7876174694569809e+00 +2.6247847236596236e+01 -7.0329137515098182e+03 -4.6257341513112269e+05 +3.7959739589171268e+07 
-4.3499999999999925e+00 -5.5490318597564892e-01 +7.3441882131064373e+00 +3.7614686928465848e+00 +2.6558218640424226e+01 -7.1337996001694937e+03 -4.6235935424717434e+05 +3.8506743571885489e+07 
-4.3999999999999924e+00 -5.5493634955210691e-01 +7.3458118772600649e+00 +3.7355183310993669e+00 +2.6852933982196692e+01 -7.2391728567402524e+03 -4.6203133741140645e+05 +3.9074499466112450e+07 
-4.4499999999999922e+00 -5.5496971497818282e-01 +7.3474436894367035e+00 +3.7097467120639624e+00 +2.7131682754648914e+01 -7.3485770999419237e+03 -4.6158919078588986e+05 +3.9660584020963460e+07 
-4.4999999999999920e+00 -5.5500327912637226e-01 +7.3490834826655211e+00 +3.6841341616824765e+00 +2.7394154509046622e+01 -7.4615558472593648e+03 -4.6103274103533826e+05 +4.0262573536341533e+07 
-4.5499999999999918e+00 -5.5503703886917855e-01 +7.3507310899785248e+00 +3.6586610087991862e+00 +2.7640038691375800e+01 -7.5776527020412886e+03 -4.6036181405826961e+05 +4.0878044921063147e+07 
-4.5999999999999917e+00 -5.5507099107910007e-01 +7.3523863444045388e+00 +3.6333075806580215e+00 +2.7869024861755150e+01 -7.6964112161198955e+03 -4.5957623669189017e+05 +4.1504574710841708e+07 
-4.6499999999999915e+00 -5.5510513262863215e-01 +7.3540490789818369e+00 +3.6080542046935222e+00 +2.8080802200321571e+01 -7.8173749452029479e+03 -4.5867583273798489e+05 +4.2139739462175928e+07 
-4.6999999999999913e+00 -5.5513946039026019e-01 +7.3557191267430131e+00 +3.5828812073155429e+00 +2.8275060120377614e+01 -7.9400874195785482e+03 -4.5766042797871283e+05 +4.2781115570985749e+07 
-4.7499999999999911e+00 -5.5517397123648859e-01 +7.3573963207259450e+00 +3.5577689179471230e+00 +2.8451487799901297e+01 -8.0640922410821313e+03 -4.5652984625644272e+05 +4.3426279883871920e+07 
-4.7999999999999909e+00 -5.5520866203979913e-01 +7.3590804939699419e+00 +3.5326976635441811e+00 +2.8609774392127214e+01 -8.1889329512633367e+03 -4.5528391142126027e+05 +4.4072808864766121e+07 
-4.8499999999999908e+00 -5.5524352967268398e-01 +7.3607714795142334e+00 +3.5076477724544022e+00 +2.8749609016148995e+01 -8.3141531202909046e+03 -4.5392244695857953e+05 +4.4718279142149568e+07 
-4.8999999999999906e+00 -5.5527857100761724e-01 +7.3624691103996582e+00 +3.4825995710367361e+00 +2.8870680746245160e+01 -8.4392962665836822e+03 -4.5244527614239248e+05 +4.5360267002760537e+07 
-4.9499999999999904e+00 -5.5531378291708355e-01 +7.3641732196715903e+00 +3.4575333878872145e+00 +2.8972678450638082e+01 -8.5639059629128678e+03 -4.5085222055698239e+05 +4.5996349080461964e+07 
-4.9999999999999902e+00 -5.5534916227356868e-01 +7.3658836403751016e+00 +3.4324295524520370e+00 +2.9055291025501504e+01 -8.6875258055352770e+03 -4.4914310215467971e+05 +4.6624102175660573e+07 
-5.0499999999999901e+00 -5.5538470594953038e-01 +7.3676002055550596e+00 +3.4072683900487322e+00 +2.9118207361897646e+01 -8.8096992770033958e+03 -4.4731774287173239e+05 +4.7241102313138530e+07 
