# field on trajectory
# s[mm] rx[mm] ry[mm] rz[mm] bx[T] by[T] bz[T]
0.0000000000000000e+00 +8.2850000000000001e+00 +0.0000000000000000e+00 +0.0000000000000000e+00 -2.8939711838852866e-02 -5.5365972749465486e-01 +5.4738851912752634e-03
-5.0000000000000003e-02 +8.2849999311424423e+00 +0.0000000000000000e+00 -4.9999999999936776e-02 -2.8939726059436264e-02 -5.5366002734286746e-01 +5.4748655183333265e-03
-1.0000000000000001e-01 +8.2849997245697029e+00 +0.0000000000000000e+00 -9.9999999999494243e-02 -2.8939764789091927e-02 -5.5366074162544765e-01 +5.4758471272065229e-03
-1.5000000000000002e-01 +8.2849993802816027e+00 +0.0000000000000000e+00 -1.4999999999829311e-01 -2.8939828060883712e-02 -5.5366186952908947e-01 +5.4768299367183313e-03
-2.0000000000000001e-01 +8.2849988982778626e+00 +0.0000000000000000e+00 -1.9999999999595403e-01 -2.8939915907876999e-02 -5.5366341024050592e-01 +5.4778138656921991e-03
-2.5000000000000000e-01 +8.2849982785580991e+00 +0.0000000000000000e+00 -2.4999999999209768e-01 -2.8940028363138633e-02 -5.5366536294642987e-01 +5.4787988329515272e-03
-2.9999999999999999e-01 +8.2849975211218272e+00 +0.0000000000000000e+00 -2.9999999998634475e-01 -2.8940165459736850e-02 -5.5366772683361165e-01 +5.4797847573196667e-03
-3.4999999999999998e-01 +8.2849966259684571e+00 +0.0000000000000000e+00 -3.4999999997831593e-01 -2.8940327230741320e-02 -5.5367050108882188e-01 +5.4807715576199005e-03
-3.9999999999999997e-01 +8.2849955930972996e+00 +0.0000000000000000e+00 -3.9999999996763191e-01 -2.8940513709223098e-02 -5.5367368489884927e-01 +5.4817591526754410e-03
-4.4999999999999996e-01 +8.2849944225075642e+00 +0.0000000000000000e+00 -4.4999999995391332e-01 -2.8940724928254533e-02 -5.5367727745050155e-01 +5.4827474613094044e-03
-4.9999999999999994e-01 +8.2849931141983557e+00 +0.0000000000000000e+00 -4.9999999993678079e-01 -2.8940960920909326e-02 -5.5368127793060484e-01 +5.4837364023448271e-03
-5.4999999999999993e-01 +8.2849916681686793e+00 +0.0000000000000000e+00 -5.4999999991585491e-01 -2.8941221720262433e-02 -5.5368568552600417e-01 +5.4847258946046197e-03
-5.9999999999999998e-01 +8.2849900844174389e+00 +0.0000000000000000e+00 -5.9999999989075636e-01 -2.8941507359390075e-02 -5.5369049942356274e-01 +5.4857158569115872e-03
-6.5000000000000002e-01 +8.2849883629434373e+00 +0.0000000000000000e+00 -6.4999999986110579e-01 -2.8941817871369683e-02 -5.5369571881016244e-01 +5.4867062080883999e-03
-7.0000000000000007e-01 +8.2849865037453760e+00 +0.0000000000000000e+00 -6.9999999982652383e-01 -2.8942153289279852e-02 -5.5370134287270312e-01 +5.4876968669575867e-03
-7.5000000000000011e-01 +8.2849845068218553e+00 +0.0000000000000000e+00 -7.4999999978663101e-01 -2.8942513646200402e-02 -5.5370737079810328e-01 +5.4886877523415301e-03
-8.0000000000000016e-01 +8.2849823721713776e+00 +0.0000000000000000e+00 -7.9999999974104785e-01 -2.8942898975212236e-02 -5.5371380177329943e-01 +5.4896787830624495e-03
-8.5000000000000020e-01 +8.2849800997923424e+00 +0.0000000000000000e+00 -8.4999999968939499e-01 -2.8943309309397348e-02 -5.5372063498524615e-01 +5.4906698779423864e-03
-9.0000000000000024e-01 +8.2849776896830498e+00 +0.0000000000000000e+00 -8.9999999963129285e-01 -2.8943744681838832e-02 -5.5372786962091602e-01 +5.4916609558032141e-03
-9.5000000000000029e-01 +8.2849751418417004e+00 +0.0000000000000000e+00 -9.4999999956636205e-01 -2.8944205125620799e-02 -5.5373550486729972e-01 +5.4926519354665942e-03
-1.0000000000000002e+00 +8.2849724562663951e+00 +0.0000000000000000e+00 -9.9999999949422302e-01 -2.8944690673828384e-02 -5.5374353991140624e-01 +5.4936427357539994e-03
-1.0500000000000003e+00 +8.2849696329551357e+00 +0.0000000000000000e+00 -1.0499999994144964e+00 -2.8945201359547666e-02 -5.5375197394026088e-01 +5.4946332754866756e-03
-1.1000000000000003e+00 +8.2849666719058259e+00 +0.0000000000000000e+00 -1.0999999993268024e+00 -2.8945737215865734e-02 -5.5376080614090806e-01 +5.4956234734856455e-03
-1.1500000000000004e+00 +8.2849635731162667e+00 +0.0000000000000000e+00 -1.1499999992307617e+00 -2.8946298275870534e-02 -5.5377003570040995e-01 +5.4966132485716997e-03
-1.2000000000000004e+00 +8.2849603365841631e+00 +0.0000000000000000e+00 -1.1999999991259944e+00 -2.8946884572650919e-02 -5.5377966180584437e-01 +5.4976025195653732e-03
-1.2500000000000004e+00 +8.2849569623071204e+00 +0.0000000000000000e+00 -1.2499999990121211e+00 -2.8947496139296619e-02 -5.5378968364430914e-01 +5.4985912052869530e-03
-1.3000000000000005e+00 +8.2849534502826465e+00 +0.0000000000000000e+00 -1.2999999988887621e+00 -2.8948133008898175e-02 -5.5380010040291794e-01 +5.4995792245564473e-03
-1.3500000000000005e+00 +8.2849498005081497e+00 +0.0000000000000000e+00 -1.3499999987555378e+00 -2.8948795214546928e-02 -5.5381091126880189e-01 +5.5005664961935924e-03
-1.4000000000000006e+00 +8.2849460129809405e+00 +0.0000000000000000e+00 -1.3999999986120684e+00 -2.8949482789334985e-02 -5.5382211542910997e-01 +5.5015529390178225e-03
-1.4500000000000006e+00 +8.2849420876982336e+00 +0.0000000000000000e+00 -1.4499999984579741e+00 -2.8950195766355175e-02 -5.5383371207100740e-01 +5.5025384718482805e-03
-1.5000000000000007e+00 +8.2849380246571442e+00 +0.0000000000000000e+00 -1.4999999982928753e+00 -2.8950934178701065e-02 -5.5384570038167746e-01 +5.5035230135037959e-03
-1.5500000000000007e+00 +8.2849338238546899e+00 +0.0000000000000000e+00 -1.5499999981163921e+00 -2.8951698059466895e-02 -5.5385807954832034e-01 +5.5045064828028716e-03
-1.6000000000000008e+00 +8.2849294852877922e+00 +0.0000000000000000e+00 -1.5999999979281447e+00 -2.8952487441747513e-02 -5.5387084875815162e-01 +5.5054887985636781e-03
-1.6500000000000008e+00 +8.2849250089532731e+00 +0.0000000000000000e+00 -1.6499999977277533e+00 -2.8953302358638418e-02 -5.5388400719840625e-01 +5.5064698796040423e-03
-1.7000000000000008e+00 +8.2849203948478625e+00 +0.0000000000000000e+00 -1.6999999975148379e+00 -2.8954142843235709e-02 -5.5389755405633423e-01 +5.5074496447414358e-03
-1.7500000000000009e+00 +8.2849156429681887e+00 +0.0000000000000000e+00 -1.7499999972890183e+00 -2.8955008928635995e-02 -5.5391148851920258e-01 +5.5084280127929586e-03
-1.8000000000000009e+00 +8.2849107533107862e+00 +0.0000000000000000e+00 -1.7999999970499150e+00 -2.8955900647936430e-02 -5.5392580977429495e-01 +5.5094049025753416e-03
-1.8500000000000010e+00 +8.2849057258720933e+00 +0.0000000000000000e+00 -1.8499999967971477e+00 -2.8956818034234701e-02 -5.5394051700891189e-01 +5.5103802329049267e-03
-1.9000000000000010e+00 +8.2849005606484525e+00 +0.0000000000000000e+00 -1.8999999965303365e+00 -2.8957761120628887e-02 -5.5395560941036970e-01 +5.5113539225976459e-03
-1.9500000000000011e+00 +8.2848952576361086e+00 +0.0000000000000000e+00 -1.9499999962491013e+00 -2.8958729940217594e-02 -5.5397108616600210e-01 +5.5123258904690433e-03
-2.0000000000000009e+00 +8.2848898168312122e+00 +0.0000000000000000e+00 -1.9999999959530619e+00 -2.8959724526099725e-02 -5.5398694646315816e-01 +5.5132960553342216e-03
-2.0500000000000007e+00 +8.2848842382298180e+00 +0.0000000000000000e+00 -2.0499999956418380e+00 -2.8960744863945002e-02 -5.5400318925836611e-01 +5.5142643425802077e-03
-2.1000000000000005e+00 +8.2848785218278866e+00 +0.0000000000000000e+00 -2.0999999953150494e+00 -2.8961790749704876e-02 -5.5401981258481814e-01 +5.5152307038829939e-03
-2.1500000000000004e+00 +8.2848726676212845e+00 +0.0000000000000000e+00 -2.1499999949723163e+00 -2.8962861931901843e-02 -5.5403681424488316e-01 +5.5161950974905796e-03
-2.2000000000000002e+00 +8.2848666756057803e+00 +0.0000000000000000e+00 -2.1999999946132580e+00 -2.8963958159059139e-02 -5.5405419204094408e-01 +5.5171574816506455e-03
-2.2500000000000000e+00 +8.2848605457770539e+00 +0.0000000000000000e+00 -2.2499999942374940e+00 -2.8965079179700721e-02 -5.5407194377539792e-01 +5.5181178146105425e-03
-2.2999999999999998e+00 +8.2848542781306893e+00 +0.0000000000000000e+00 -2.2999999938446440e+00 -2.8966224742351280e-02 -5.5409006725065468e-01 +5.5190760546172824e-03
-2.3499999999999996e+00 +8.2848478726621781e+00 +0.0000000000000000e+00 -2.3499999934343281e+00 -2.8967394595536235e-02 -5.5410856026913891e-01 +5.5200321599175534e-03
-2.3999999999999995e+00 +8.2848413293669196e+00 +0.0000000000000000e+00 -2.3999999930061651e+00 -2.8968588487781732e-02 -5.5412742063328813e-01 +5.5209860887576959e-03
-2.4499999999999993e+00 +8.2848346482402242e+00 +0.0000000000000000e+00 -2.4499999925597749e+00 -2.8969806167614597e-02 -5.5414664614555231e-01 +5.5219377993837139e-03
-2.4999999999999991e+00 +8.2848278292773099e+00 +0.0000000000000000e+00 -2.4999999920947764e+00 -2.8971047383562376e-02 -5.5416623460839509e-01 +5.5228872500412635e-03
-2.5499999999999989e+00 +8.2848208724733023e+00 +0.0000000000000000e+00 -2.5499999916107892e+00 -2.8972311884153324e-02 -5.5418618382429252e-01 +5.5238343989756546e-03
-2.5999999999999988e+00 +8.2848137778232420e+00 +0.0000000000000000e+00 -2.5999999911074325e+00 -2.8973599417916388e-02 -5.5420649159573365e-01 +5.5247792044318461e-03
-2.6499999999999986e+00 +8.2848065453220769e+00 +0.0000000000000000e+00 -2.6499999905843259e+00 -2.8974909733381207e-02 -5.5422715572521941e-01 +5.5257216246544418e-03
-2.6999999999999984e+00 +8.2847991749646663e+00 +0.0000000000000000e+00 -2.6999999900410883e+00 -2.8976242579078087e-02 -5.5424817401526272e-01 +5.5266616178876902e-03
-2.7499999999999982e+00 +8.2847916667457842e+00 +0.0000000000000000e+00 -2.7499999894773390e+00 -2.8977597703538069e-02 -5.5426954426838981e-01 +5.5275991423754788e-03
-2.7999999999999980e+00 +8.2847840206601138e+00 +0.0000000000000000e+00 -2.7999999888926967e+00 -2.8978974855292806e-02 -5.5429126428713693e-01 +5.5285341563613265e-03
-2.8499999999999979e+00 +8.2847762367022533e+00 +0.0000000000000000e+00 -2.8499999882867808e+00 -2.8980373782874668e-02 -5.5431333187405352e-01 +5.5294666180883941e-03
-2.8999999999999977e+00 +8.2847683148667137e+00 +0.0000000000000000e+00 -2.8999999876592102e+00 -2.8981794234816650e-02 -5.5433574483169945e-01 +5.5303964857994657e-03
-2.9499999999999975e+00 +8.2847602551479191e+00 +0.0000000000000000e+00 -2.9499999870096039e+00 -2.8983235959652437e-02 -5.5435850096264605e-01 +5.5313237177369509e-03
-2.9999999999999973e+00 +8.2847520575402100e+00 +0.0000000000000000e+00 -2.9999999863375804e+00 -2.8984698705916367e-02 -5.5438159806947629e-01 +5.5322482721428898e-03
-3.0499999999999972e+00 +8.2847437220378417e+00 +0.0000000000000000e+00 -3.0499999856427586e+00 -2.8986182222143431e-02 -5.5440503395478324e-01 +5.5331701072589383e-03
-3.0999999999999970e+00 +8.2847352486349859e+00 +0.0000000000000000e+00 -3.0999999849247573e+00 -2.8987686256869236e-02 -5.5442880642117098e-01 +5.5340891813263678e-03
-3.1499999999999968e+00 +8.2847266373257273e+00 +0.0000000000000000e+00 -3.1499999841831947e+00 -2.8989210558630060e-02 -5.5445291327125457e-01 +5.5350054525860710e-03
-3.1999999999999966e+00 +8.2847178881040708e+00 +0.0000000000000000e+00 -3.1999999834176900e+00 -2.8990754875962827e-02 -5.5447735230765871e-01 +5.5359188792785405e-03
-3.2499999999999964e+00 +8.2847090009639395e+00 +0.0000000000000000e+00 -3.2499999826278616e+00 -2.8992318957405030e-02 -5.5450212133301824e-01 +5.5368294196438857e-03
-3.2999999999999963e+00 +8.2846999758991693e+00 +0.0000000000000000e+00 -3.2999999818133277e+00 -2.8993902551494862e-02 -5.5452721814997874e-01 +5.5377370319218177e-03
-3.3499999999999961e+00 +8.2846908129035199e+00 +0.0000000000000000e+00 -3.3499999809737071e+00 -2.8995505406771087e-02 -5.5455264056119435e-01 +5.5386416743516478e-03
-3.3999999999999959e+00 +8.2846815119706676e+00 +0.0000000000000000e+00 -3.3999999801086176e+00 -2.8997127271773081e-02 -5.5457838636932988e-01 +5.5395433051722860e-03
-3.4499999999999957e+00 +8.2846720730942085e+00 +0.0000000000000000e+00 -3.4499999792176776e+00 -2.8998767895040869e-02 -5.5460445337705933e-01 +5.5404418826222367e-03
-3.4999999999999956e+00 +8.2846624962676589e+00 +0.0000000000000000e+00 -3.4999999783005058e+00 -2.9000427025115044e-02 -5.5463083938706503e-01 +5.5413373649395945e-03
-3.5499999999999954e+00 +8.2846527814844571e+00 +0.0000000000000000e+00 -3.5499999773567197e+00 -2.9002104410536814e-02 -5.5465754220203900e-01 +5.5422297103620470e-03
-3.5999999999999952e+00 +8.2846429287379593e+00 +0.0000000000000000e+00 -3.5999999763859378e+00 -2.9003799799847983e-02 -5.5468455962468266e-01 +5.5431188771268665e-03
-3.6499999999999950e+00 +8.2846329380214456e+00 +0.0000000000000000e+00 -3.6499999753877779e+00 -2.9005512941590945e-02 -5.5471188945770478e-01 +5.5440048234709017e-03
-3.6999999999999948e+00 +8.2846228093281198e+00 +0.0000000000000000e+00 -3.6999999743618579e+00 -2.9007243584308645e-02 -5.5473952950382366e-01 +5.5448875076305826e-03
-3.7499999999999947e+00 +8.2846125426511055e+00 +0.0000000000000000e+00 -3.7499999733077956e+00 -2.9008991476544652e-02 -5.5476747756576517e-01 +5.5457668878419186e-03
-3.7999999999999945e+00 +8.2846021379834518e+00 +0.0000000000000000e+00 -3.7999999722252085e+00 -2.9010756366843096e-02 -5.5479573144626382e-01 +5.5466429223404888e-03
-3.8499999999999943e+00 +8.2845915953181297e+00 +0.0000000000000000e+00 -3.8499999711137147e+00 -2.9012538003748659e-02 -5.5482428894806124e-01 +5.5475155693614428e-03
-3.8999999999999941e+00 +8.2845809146480374e+00 +0.0000000000000000e+00 -3.8999999699729315e+00 -2.9014336135806611e-02 -5.5485314787390749e-01 +5.5483847871394924e-03
-3.9499999999999940e+00 +8.2845700959659965e+00 +0.0000000000000000e+00 -3.9499999688024769e+00 -2.9016150511562748e-02 -5.5488230602656019e-01 +5.5492505339089148e-03
-3.9999999999999938e+00 +8.2845591392647542e+00 +0.0000000000000000e+00 -3.9999999676019682e+00 -2.9017980879563452e-02 -5.5491176120878372e-01 +5.5501127679035527e-03
-4.0499999999999936e+00 +8.2845480445369848e+00 +0.0000000000000000e+00 -4.0499999663710220e+00 -2.9019826995681300e-02 -5.5494151112204348e-01 +5.5509714523294222e-03
-4.0999999999999934e+00 +8.2845368117752880e+00 +0.0000000000000000e+00 -4.0999999651092569e+00 -2.9021688645091945e-02 -5.5497155306258394e-01 +5.5518265702827006e-03
-4.1499999999999932e+00 +8.2845254409721925e+00 +0.0000000000000000e+00 -4.1499999638162892e+00 -2.9023565620296957e-02 -5.5500188422534336e-01 +5.5526781098319093e-03
-4.1999999999999931e+00 +8.2845139321201522e+00 +0.0000000000000000e+00 -4.1999999624917361e+00 -2.9025457713798084e-02 -5.5503250180526054e-01 +5.5535260590452700e-03
-4.2499999999999929e+00 +8.2845022852115520e+00 +0.0000000000000000e+00 -4.2499999611352157e+00 -2.9027364718097203e-02 -5.5506340299727375e-01 +5.5543704059907136e-03
-4.2999999999999927e+00 +8.2844905002387073e+00 +0.0000000000000000e+00 -4.2999999597463443e+00 -2.9029286425696337e-02 -5.5509458499632081e-01 +5.5552111387358822e-03
-4.3499999999999925e+00 +8.2844785771938607e+00 +0.0000000000000000e+00 -4.3499999583247382e+00 -2.9031222629097599e-02 -5.5512604499733720e-01 +5.5560482453481256e-03
-4.3999999999999924e+00 +8.2844665160691875e+00 +0.0000000000000000e+00 -4.3999999568700146e+00 -2.9033173120803286e-02 -5.5515778019525874e-01 +5.5568817138945100e-03
-4.4499999999999922e+00 +8.2844543168567935e+00 +0.0000000000000000e+00 -4.4499999553817906e+00 -2.9035137693315682e-02 -5.5518978778501804e-01 +5.5577115324418128e-03
-4.4999999999999920e+00 +8.2844419795487187e+00 +0.0000000000000000e+00 -4.4999999538596827e+00 -2.9037116139137228e-02 -5.5522206496154625e-01 +5.5585376890565285e-03
-4.5499999999999918e+00 +8.2844295041369342e+00 +0.0000000000000000e+00 -4.5499999523033079e+00 -2.9039108250770367e-02 -5.5525460891977074e-01 +5.5593601718048639e-03
-4.5999999999999917e+00 +8.2844168906133451e+00 +0.0000000000000000e+00 -4.5999999507122826e+00 -2.9041113820717619e-02 -5.5528741685461791e-01 +5.5601789687527541e-03
-4.6499999999999915e+00 +8.2844041389697907e+00 +0.0000000000000000e+00 -4.6499999490862223e+00 -2.9043132641481510e-02 -5.5532048596100869e-01 +5.5609940679658392e-03
-4.6999999999999913e+00 +8.2843912491980465e+00 +0.0000000000000000e+00 -4.6999999474247440e+00 -2.9045164505564557e-02 -5.5535381343386125e-01 +5.5618054575094960e-03
-4.7499999999999911e+00 +8.2843782212898223e+00 +0.0000000000000000e+00 -4.7499999457274642e+00 -2.9047209205469309e-02 -5.5538739646808988e-01 +5.5626131254488120e-03
-4.7999999999999909e+00 +8.2843650552367656e+00 +0.0000000000000000e+00 -4.7999999439939991e+00 -2.9049266533698274e-02 -5.5542123225860329e-01 +5.5634170598486028e-03
-4.8499999999999908e+00 +8.2843517510304601e+00 +0.0000000000000000e+00 -4.8499999422239641e+00 -2.9051336282753915e-02 -5.5545531800030612e-01 +5.5642172487734148e-03
-4.8999999999999906e+00 +8.2843383086624272e+00 +0.0000000000000000e+00 -4.8999999404169756e+00 -2.9053418245138674e-02 -5.5548965088809799e-01 +5.5650136802875170e-03
-4.9499999999999904e+00 +8.2843247281241279e+00 +0.0000000000000000e+00 -4.9499999385726499e+00 -2.9055512213354874e-02 -5.5552422811687163e-01 +5.5658063424549042e-03
-4.9999999999999902e+00 +8.2843110094069612e+00 +0.0000000000000000e+00 -4.9999999366906023e+00 -2.9057617979904762e-02 -5.5555904688151458e-01 +5.5665952233393077e-03
-5.0499999999999901e+00 +8.2842971525022655e+00 +0.0000000000000000e+00 -5.0499999347704483e+00 -2.9059735337290529e-02 -5.5559410437690837e-01 +5.5673803110041836e-03
-5.0999999999999899e+00 +8.2842831574013225e+00 +0.0000000000000000e+00 -5.0999999328118042e+00 -2.9061864078014199e-02 -5.5562939779792631e-01 +5.5681615935127288e-03
-5.1499999999999897e+00 +8.2842690240953534e+00 +0.0000000000000000e+00 -5.1499999308142845e+00 -2.9064003994577668e-02 -5.5566492433943626e-01 +5.5689390589278688e-03
-5.1999999999999895e+00 +8.2842547525755226e+00 +0.0000000000000000e+00 -5.1999999287775056e+00 -2.9066154879482716e-02 -5.5570068119629623e-01 +5.5697126953122662e-03
-5.2499999999999893e+00 +8.2842403428329341e+00 +0.0000000000000000e+00 -5.2499999267010828e+00 -2.9068316525230928e-02 -5.5573666556335888e-01 +5.5704824907283294e-03
-5.2999999999999892e+00 +8.2842257948586386e+00 +0.0000000000000000e+00 -5.2999999245846316e+00 -2.9070488724323707e-02 -5.5577287463546643e-01 +5.5712484332381910e-03
-5.3499999999999890e+00 +8.2842111086436301e+00 +0.0000000000000000e+00 -5.3499999224277666e+00 -2.9072671269262280e-02 -5.5580930560745345e-01 +5.5720105109037322e-03
-5.3999999999999888e+00 +8.2841962841788472e+00 +0.0000000000000000e+00 -5.3999999202301030e+00 -2.9074863952547651e-02 -5.5584595567414508e-01 +5.5727687117865824e-03
-5.4499999999999886e+00 +8.2841813214551721e+00 +0.0000000000000000e+00 -5.4499999179912564e+00 -2.9077066566680593e-02 -5.5588282203035688e-01 +5.5735230239481025e-03
-5.4999999999999885e+00 +8.2841662204634368e+00 +0.0000000000000000e+00 -5.4999999157108412e+00 -2.9079278904161607e-02 -5.5591990187089468e-01 +5.5742734354494016e-03
-5.5499999999999883e+00 +8.2841509811944185e+00 +0.0000000000000000e+00 -5.5499999133884721e+00 -2.9081500757491018e-02 -5.5595719239055397e-01 +5.5750199343513477e-03
-5.5999999999999881e+00 +8.2841356036388412e+00 +0.0000000000000000e+00 -5.5999999110237635e+00 -2.9083731919168784e-02 -5.5599469078411989e-01 +5.5757625087145346e-03
-5.6499999999999879e+00 +8.2841200877873771e+00 +0.0000000000000000e+00 -5.6499999086163308e+00 -2.9085972181694609e-02 -5.5603239424636652e-01 +5.5765011465993284e-03
-5.6999999999999877e+00 +8.2841044336306489e+00 +0.0000000000000000e+00 -5.6999999061657887e+00 -2.9088221337567902e-02 -5.5607029997205515e-01 +5.5772358360658301e-03
-5.7499999999999876e+00 +8.2840886411592294e+00 +0.0000000000000000e+00 -5.7499999036717515e+00 -2.9090479179287723e-02 -5.5610840515593740e-01 +5.5779665651738974e-03
-5.7999999999999874e+00 +8.2840727103636382e+00 +0.0000000000000000e+00 -5.7999999011338330e+00 -2.9092745499352816e-02 -5.5614670699275159e-01 +5.5786933219831476e-03
-5.8499999999999872e+00 +8.2840566412343506e+00 +0.0000000000000000e+00 -5.8499998985516477e+00 -2.9095020090261554e-02 -5.5618520267722327e-01 +5.5794160945529438e-03
