# multipoles
# s[mm] polynom_b[n=0][T/m^n] polynom_b[n=1][T/m^n] polynom_b[n=2][T/m^n] polynom_b[n=3][T/m^n] polynom_b[n=4][T/m^n] polynom_b[n=5][T/m^n] polynom_b[n=6][T/m^n] 
+0.0000000000000000e+00 -5.7929819134946015e-01 +7.5851845170346426e+00 +4.9651308466177335e+00 -1.4701186855616305e+01 +2.6155349027123611e+04 -2.7164688395761215e+05 -1.6147470372535712e+08 
+5.0000000000000003e-02 -5.7929810406964766e-01 +7.5851902255556549e+00 +4.9708078661800030e+00 -1.4298463201555496e+01 +2.6044612726635969e+04 -2.7481551992632396e+05 -1.6093629254717547e+08 
+1.0000000000000001e-01 -5.7929841874374710e-01 +7.5852184632489150e+00 +4.9762136795779490e+00 -1.3913231780565186e+01 +2.5930884659693362e+04 -2.7784741398426407e+05 -1.6038652474655765e+08 
+1.5000000000000002e-01 -5.7929913432985125e-01 +7.5852691480214078e+00 +4.9813318723834801e+00 -1.3545423642858157e+01 +2.5814465194253658e+04 -2.8074268581832125e+05 -1.5982673992072478e+08 
+2.0000000000000001e-01 -5.7930024978606953e-01 +7.5853421977788500e+00 +4.9861460305613328e+00 -1.3194969755817974e+01 +2.5695654677910970e+04 -2.8350145579324558e+05 -1.5925827749054098e+08 
+2.5000000000000000e-01 -5.7930176407053657e-01 +7.5854375304307595e+00 +4.9906397403477545e+00 -1.2861801227076670e+01 +2.5574753458417399e+04 -2.8612384305974317e+05 -1.5868247690642521e+08 
+2.9999999999999999e-01 -5.7930367614141576e-01 +7.5855550638801077e+00 +4.9947965908481731e+00 -1.2545848855296498e+01 +2.5452061798923529e+04 -2.8860996935026831e+05 -1.5810067702324474e+08 
+3.4999999999999998e-01 -5.7930598495686747e-01 +7.5856947160376222e+00 +4.9986001663883171e+00 -1.2247043744002969e+01 +2.5327880100475468e+04 -2.9095995382127457e+05 -1.5751421766118240e+08 
+3.9999999999999997e-01 -5.7930868947508651e-01 +7.5858564048112571e+00 +5.0020340543877113e+00 -1.1965316842302704e+01 +2.5202508677096575e+04 -2.9317391694740922e+05 -1.5692443803922722e+08 
+4.4999999999999996e-01 -5.7931178865427690e-01 +7.5860400481097470e+00 +5.0050818409589990e+00 -1.1700599112320349e+01 +2.5076247877760397e+04 -2.9525197904908290e+05 -1.5633267761326855e+08 
+4.9999999999999994e-01 -5.7931528145266697e-01 +7.5862455638449662e+00 +5.0077271130883938e+00 -1.1452821624206164e+01 +2.4949398027809821e+04 -2.9719425953858049e+05 -1.5574027567880410e+08 
+5.4999999999999993e-01 -5.7931916682851048e-01 +7.5864728699257391e+00 +5.0099534586152075e+00 -1.1221915277555869e+01 +2.4822259434381649e+04 -2.9900087928940717e+05 -1.5514857142739162e+08 
+5.9999999999999998e-01 -5.7932344374007094e-01 +7.5867218842651027e+00 +5.0117444647625247e+00 -1.1007811131435504e+01 +2.4695132416052093e+04 -3.0067195781595656e+05 -1.5455890411168674e+08 
+6.5000000000000002e-01 -5.7932811114562555e-01 +7.5869925247734082e+00 +5.0130837172734548e+00 -1.0810440098517054e+01 +2.4568317336501568e+04 -3.0220761586150341e+05 -1.5397261330690655e+08 
+7.0000000000000007e-01 -5.7933316800347445e-01 +7.5872847093662363e+00 +5.0139548032214236e+00 -1.0629733279371028e+01 +2.4442114521569943e+04 -3.0360797263834311e+05 -1.5339103832882071e+08 
+7.5000000000000011e-01 -5.7933861327195102e-01 +7.5875983559562652e+00 +5.0143413120248290e+00 -1.0465621630099584e+01 +2.4316824235040884e+04 -3.0487314853221388e+05 -1.5281551807534510e+08 
+8.0000000000000016e-01 -5.7934444590937140e-01 +7.5879333824597071e+00 +5.0142268273463726e+00 -1.0318036213993892e+01 +2.4192746895258435e+04 -3.0600326310060068e+05 -1.5224739249030989e+08 
+8.5000000000000020e-01 -5.7935066487410880e-01 +7.5882897067916977e+00 +5.0135949398328643e+00 -1.0186908029653663e+01 +2.4070182732315894e+04 -3.0699843641184032e+05 -1.5168800024708870e+08 
+9.0000000000000024e-01 -5.7935726912453056e-01 +7.5886672468691572e+00 +5.0124292356739710e+00 -1.0072168112167315e+01 +2.3949432099689308e+04 -3.0785878828799399e+05 -1.5113868086437857e+08 
+9.5000000000000029e-01 -5.7936425761901122e-01 +7.5890659206105635e+00 +5.0107132995015862e+00 -9.9737475329897052e+00 +2.3830795391530850e+04 -3.0858443825434952e+05 -1.5060077413242155e+08 
+1.0000000000000002e+00 -5.7937162931598962e-01 +7.5894856459366968e+00 +5.0084307242350237e+00 -9.8915774322977938e+00 +2.3714572779226230e+04 -3.0917550528813555e+05 -1.5007561834069592e+08 
+1.0500000000000003e+00 -5.7937938317386128e-01 +7.5899263407661968e+00 +5.0055650923670427e+00 -9.8255888231624464e+00 +2.3601064713217118e+04 -3.0963210947771283e+05 -1.4956455365574777e+08 
+1.1000000000000003e+00 -5.7938751815108369e-01 +7.5903879230239530e+00 +5.0020999939704778e+00 -9.7757129519347146e+00 +2.3490571443876921e+04 -3.0995436897825217e+05 -1.4906891891151446e+08 
+1.1500000000000004e+00 -5.7939603320612554e-01 +7.5908703106299056e+00 +4.9980190182977058e+00 -9.7418808237633421e+00 +2.3383393241457808e+04 -3.1014240400964185e+05 -1.4859005306713802e+08 
+1.2000000000000004e+00 -5.7940492729744630e-01 +7.5913734215088917e+00 +4.9933057500068783e+00 -9.7240236155455406e+00 +2.3279830502477864e+04 -3.1019633339802612e+05 -1.4812929594711864e+08 
+1.2500000000000004e+00 -5.7941419938354544e-01 +7.5918971735884915e+00 +4.9879437781526255e+00 -9.7220725880897270e+00 +2.3180183501932701e+04 -3.1011627531280275e+05 -1.4768798654455841e+08 
+1.3000000000000005e+00 -5.7942384842293615e-01 +7.5924414847940795e+00 +4.9819166908594159e+00 -9.7359588810822792e+00 +2.3084752542605791e+04 -3.0990234895344853e+05 -1.4726746404888946e+08 
+1.3500000000000005e+00 -5.7943387337414198e-01 +7.5930062730550141e+00 +4.9752080753583030e+00 -9.7656137496246345e+00 +2.2993837953265156e+04 -3.0955467268465075e+05 -1.4686906783748344e+08 
+1.4000000000000006e+00 -5.7944427319570813e-01 +7.5935914563013487e+00 +4.9678015200279368e+00 -9.8109684669039119e+00 +2.2907740027824366e+04 -3.0907336468256317e+05 -1.4649413703572518e+08 
+1.4500000000000006e+00 -5.7945504684619409e-01 +7.5941969524647632e+00 +4.9596806128295832e+00 -9.8719543305531712e+00 +2.2826759075121561e+04 -3.0845854300854483e+05 -1.4614401088782042e+08 
+1.5000000000000007e+00 -5.7946619328418203e-01 +7.5948226794771010e+00 +4.9508289423879237e+00 -9.9485026020963687e+00 +2.2751195386713527e+04 -3.0771032612668339e+05 -1.4582002852008635e+08 
+1.5500000000000007e+00 -5.7947771146825966e-01 +7.5954685552752208e+00 +4.9412300966495604e+00 -1.0040544728879153e+01 +2.2681349267671030e+04 -3.0682883096344548e+05 -1.4552352913995984e+08 
+1.6000000000000008e+00 -5.7948960035703123e-01 +7.5961344977938099e+00 +4.9308676626594128e+00 -1.0148012028204175e+01 +2.2617521052948883e+04 -3.0581417561972170e+05 -1.4525585217334697e+08 
+1.6500000000000008e+00 -5.7950185890913031e-01 +7.5968204249715603e+00 +4.9197252299748095e+00 -1.0270835954812593e+01 +2.2560011011607890e+04 -3.0466647709779802e+05 -1.4501833661292264e+08 
+1.7000000000000008e+00 -5.7951448608319511e-01 +7.5975262547470459e+00 +4.9077863869280955e+00 -1.0408947914200192e+01 +2.2509119437609348e+04 -3.0338585290808341e+05 -1.4481232158905715e+08 
+1.7500000000000009e+00 -5.7952748083788364e-01 +7.5982519050644299e+00 +4.8950347218844499e+00 -1.0562279515982780e+01 +2.2465146632069493e+04 -3.0197241892258060e+05 -1.4463914631072074e+08 
+1.8000000000000009e+00 -5.7954084213186163e-01 +7.5989972938639365e+00 +4.8814538221855486e+00 -1.0730762165000989e+01 +2.2428392921363997e+04 -3.0042629280606675e+05 -1.4450015015301979e+08 
+1.8500000000000010e+00 -5.7955456892382118e-01 +7.5997623390946680e+00 +4.8670272772581988e+00 -1.0914327597520455e+01 +2.2399158573866949e+04 -2.9874758955573145e+05 -1.4439667209272817e+08 
+1.9000000000000010e+00 -5.7956866017246800e-01 +7.6005469587009067e+00 +4.8517386758083090e+00 -1.1112907320715930e+01 +2.2377743882313709e+04 -2.9693642613014294e+05 -1.4433005128934667e+08 
+1.9500000000000011e+00 -5.7958311483653024e-01 +7.6013510706312868e+00 +4.8355716084181868e+00 -1.1326432981362082e+01 +2.2364449084721666e+04 -2.9499291843067179e+05 -1.4430162652331978e+08 
+2.0000000000000009e+00 -5.7959793187471675e-01 +7.6021745928375886e+00 +4.8185096591592362e+00 -1.1554836324326267e+01 +2.2359574596685616e+04 -2.9291718160276790e+05 -1.4431273777705184e+08 
+2.0500000000000007e+00 -5.7961311008157435e-01 +7.6030174278282940e+00 +4.8005421983735816e+00 -1.1797898063618405e+01 +2.2363332818801606e+04 -2.9071049344994489e+05 -1.4436433222915301e+08 
+2.1000000000000005e+00 -5.7962864759468202e-01 +7.6038794110014960e+00 +4.7816821157965173e+00 -1.2054865427546090e+01 +2.2375581804597430e+04 -2.8837820861498528e+05 -1.4445576709767872e+08 
+2.1500000000000004e+00 -5.7964454238733487e-01 +7.6047603596512454e+00 +4.7619482870197736e+00 -1.2324870733024914e+01 +2.2396090466859830e+04 -2.8592655586323305e+05 -1.4458599769676080e+08 
+2.2000000000000002e+00 -5.7966079243288426e-01 +7.6056600910718757e+00 +4.7413595956656778e+00 -1.2607046298002079e+01 +2.2424627499217546e+04 -2.8336176396045386e+05 -1.4475397784697422e+08 
+2.2500000000000000e+00 -5.7967739570465937e-01 +7.6065784225583482e+00 +4.7199349192948166e+00 -1.2900524449520523e+01 +2.2460961759547496e+04 -2.8069006160008581e+05 -1.4495866248506102e+08 
+2.2999999999999998e+00 -5.7969435017602178e-01 +7.6075151714028895e+00 +4.6976931393897017e+00 -1.3204437389366500e+01 +2.2504861995043149e+04 -2.7791767849980464e+05 -1.4519900577934518e+08 
+2.3499999999999996e+00 -5.7971165382033563e-01 +7.6084701549009548e+00 +4.6746531347390352e+00 -1.3517917437487132e+01 +2.2556097035515068e+04 -2.7505084340056672e+05 -1.4547396249368155e+08 
+2.3999999999999995e+00 -5.7972930461097838e-01 +7.6094431903510413e+00 +4.6508337861130915e+00 -1.3840097017937314e+01 +2.2614435643093228e+04 -2.7209578421876364e+05 -1.4578248688531995e+08 
+2.4499999999999993e+00 -5.7974730052133749e-01 +7.6104340950439786e+00 +4.6262539726662961e+00 -1.4170108237501806e+01 +2.2679646633322613e+04 -2.6905873142844310e+05 -1.4612353360542741e+08 
+2.4999999999999991e+00 -5.7976563952481730e-01 +7.6114426862779183e+00 +4.6009325752448662e+00 -1.4507083482825854e+01 +2.2751498772993305e+04 -2.6594591323737765e+05 -1.4649605696848717e+08 
+2.5499999999999989e+00 -5.7978431959479915e-01 +7.6124687813492269e+00 +4.5748884687153071e+00 -1.4850155055657945e+01 +2.2829760985807457e+04 -2.6276355852870480e+05 -1.4689901232878140e+08 
+2.5999999999999988e+00 -5.7980333870473566e-01 +7.6135121975516302e+00 +4.5481405385334286e+00 -1.5198455162595163e+01 +2.2914201913165474e+04 -2.5951789687984349e+05 -1.4733135314916176e+08 
+2.6499999999999986e+00 -5.7982269482803217e-01 +7.6145727521828075e+00 +4.5207076600866163e+00 -1.5551116123683160e+01 +2.3004590465011435e+04 -2.5621515707231103e+05 -1.4779203469304240e+08 
+2.6999999999999984e+00 -5.7984238593813897e-01 +7.6156502625391012e+00 +4.4926087149346969e+00 -1.5907270227310878e+01 +2.3100695384619965e+04 -2.5286156800275733e+05 -1.4828001109956437e+08 
+2.7499999999999982e+00 -5.7986241000849592e-01 +7.6167445459156768e+00 +4.4638625809430748e+00 -1.6266049693280078e+01 +2.3202285514725816e+04 -2.4946335917135072e+05 -1.4879423717806980e+08 
+2.7999999999999980e+00 -5.7988276501255775e-01 +7.6178554196082313e+00 +4.4344881371685894e+00 -1.6626586759459951e+01 +2.3309129663283886e+04 -2.4602675988227755e+05 -1.4933366749305046e+08 
+2.8499999999999979e+00 -5.7990344892379619e-01 +7.6189827009141862e+00 +4.4045042637279446e+00 -1.6988013722350601e+01 +2.3420996611352366e+04 -2.4255799897847051e+05 -1.4989725643460184e+08 
+2.8999999999999977e+00 -5.7992445971567852e-01 +7.6201262071296050e+00 +4.3739298385889986e+00 -1.7349462833772055e+01 +2.3537655194602365e+04 -2.3906330556974249e+05 -1.5048395874832514e+08 
+2.9499999999999975e+00 -5.7994579536168311e-01 +7.6212857555476052e+00 +4.3427837398916092e+00 -1.7710066202229765e+01 +2.3658874244379011e+04 -2.3554890999026920e+05 -1.5109272915184417e+08 
+2.9999999999999973e+00 -5.7996745383530390e-01 +7.6224611634644850e+00 +4.3110848473628023e+00 -1.8068956072449804e+01 +2.3784422544881327e+04 -2.3202104139821063e+05 -1.5172252202704868e+08 
+3.0499999999999972e+00 -5.7998943311003170e-01 +7.6236522481767057e+00 +4.2788520382944064e+00 -1.8425264693095933e+01 +2.3914068950699882e+04 -2.2848592887644577e+05 -1.5237229225183326e+08 
+3.0999999999999970e+00 -5.8001173115938609e-01 +7.6248588269761033e+00 +4.2461041936353956e+00 -1.8778124118865080e+01 +2.4047582213139740e+04 -2.2494980308511798e+05 -1.5304099398494956e+08 
+3.1499999999999968e+00 -5.8003434595685732e-01 +7.6260807171601810e+00 +4.2128601882222050e+00 -1.9126666643684352e+01 +2.4184731245618386e+04 -2.2141889265605385e+05 -1.5372758247277373e+08 
+3.1999999999999966e+00 -5.8005727547598207e-01 +7.6273177360183766e+00 +4.1791389032129871e+00 -1.9470024222093009e+01 +2.4325284793273440e+04 -2.1789942900364421e+05 -1.5443101183179015e+08 
+3.2499999999999964e+00 -5.8008051769027003e-01 +7.6285697008485407e+00 +4.1449592140887761e+00 -1.9807329153964755e+01 +2.4469011748897199e+04 -2.1439764066292840e+05 -1.5515023715459186e+08 
+3.2999999999999963e+00 -5.8010407057326108e-01 +7.6298364289413367e+00 +4.1103399997638101e+00 -2.0137713457187665e+01 +2.4615680918455368e+04 -2.1091975840871321e+05 -1.5588421296950823e+08 
+3.3499999999999961e+00 -5.8012793209849478e-01 +7.6311177375876600e+00 +4.0753001387446011e+00 -2.0460309148647202e+01 +2.4765061107689835e+04 -2.0747201302696529e+05 -1.5663189376062879e+08 
+3.3999999999999959e+00 -5.8015210023950436e-01 +7.6324134440803011e+00 +4.0398585062017807e+00 -2.0774248337926203e+01 +2.4916921222435612e+04 -2.0406063444709935e+05 -1.5739223472627759e+08 
+3.4499999999999957e+00 -5.8017657296984049e-01 +7.6337233657086916e+00 +4.0040339804249916e+00 -2.1078662994186057e+01 +2.5071030069970948e+04 -2.0069185374138650e+05 -1.5816419034289545e+08 
+3.4999999999999956e+00 -5.8020134826306535e-01 +7.6350473197656203e+00 +3.9678454394564051e+00 -2.1372685230861325e+01 +2.5227156474027077e+04 -1.9737190072836194e+05 -1.5894671523562711e+08 
+3.5499999999999954e+00 -5.8022642409273195e-01 +7.6363851235369911e+00 +3.9313117592864315e+00 -2.1655446889549022e+01 +2.5385069306677480e+04 -1.9410700740269505e+05 -1.5973876432840621e+08 
+3.5999999999999952e+00 -5.8025179843240438e-01 +7.6377365943121651e+00 +3.8944518169516655e+00 -2.1926079954171470e+01 +2.5544537409123302e+04 -1.9090340455165278e+05 -1.6053929232794484e+08 
+3.6499999999999950e+00 -5.8027746925565327e-01 +7.6391015493792667e+00 +3.8572844890518567e+00 -2.2183716371092181e+01 +2.5705329637190887e+04 -1.8776732319263087e+05 -1.6134725404696429e+08 
+3.6999999999999948e+00 -5.8030343453604505e-01 +7.6404798060248531e+00 +3.8198286510136099e+00 -2.2427488025975510e+01 +2.5867214873559213e+04 -1.8470499480094301e+05 -1.6216160446417823e+08 
+3.7499999999999947e+00 -5.8032969224716868e-01 +7.6418711815333973e+00 +3.7821031813854589e+00 -2.2656526733622687e+01 +2.6029961913246385e+04 -1.8172265136683034e+05 -1.6298129795062268e+08 
+3.7999999999999945e+00 -5.8035624036258915e-01 +7.6432754931893312e+00 +3.7441269529104035e+00 -2.2869964316714473e+01 +2.6193339711873479e+04 -1.7882652473162630e+05 -1.6380528997475806e+08 
+3.8499999999999943e+00 -5.8038307685589829e-01 +7.6446925582777432e+00 +3.7059188431720913e+00 -2.3066932628199918e+01 +2.6357117088067927e+04 -1.7602284647375674e+05 -1.6463253506025544e+08 
+3.8999999999999941e+00 -5.8041019970068575e-01 +7.6461221940773898e+00 +3.6674977277472371e+00 -2.3246563296396602e+01 +2.6521062914462269e+04 -1.7331784984874987e+05 -1.6546198808812031e+08 
+3.9499999999999940e+00 -5.8043760687052914e-01 +7.6475642178739758e+00 +3.6288824801346391e+00 -2.3407988214406419e+01 +2.6684946115204137e+04 -1.7071776600089835e+05 -1.6629260427289549e+08 
+3.9999999999999938e+00 -5.8046529633903909e-01 +7.6490184469431162e+00 +3.5900919782764542e+00 -2.3550338902118135e+01 +2.6848535498370926e+04 -1.6822882892746563e+05 -1.6712333805584416e+08 
+4.0499999999999936e+00 -5.8049326595282613e-01 +7.6504847010854791e+00 +3.5511447053467058e+00 -2.3672975746597089e+01 +2.7011600056528347e+04 -1.6585578076001737e+05 -1.6795309650260681e+08 
+4.0999999999999934e+00 -5.8052151305114963e-01 +7.6519628032477129e+00 +3.5120576061526676e+00 -2.3776135821493202e+01 +2.7173917801215779e+04 -1.6359783248429777e+05 -1.6878064838759178e+08 
+4.1499999999999932e+00 -5.8055003484654077e-01 +7.6534525754451206e+00 +3.4728472639725281e+00 -2.3860267327289247e+01 +2.7335271210260416e+04 -1.6145292024771194e+05 -1.6960474104503372e+08 
+4.1999999999999931e+00 -5.8057882855154641e-01 +7.6549538396920758e+00 +3.4335302650691557e+00 -2.3925818468393825e+01 +2.7495442676662384e+04 -1.5941898011741546e+05 -1.7042412120990106e+08 
+4.2499999999999929e+00 -5.8060789137869595e-01 +7.6564664180033910e+00 +3.3941231912610403e+00 -2.3973237472495445e+01 +2.7654214723704059e+04 -1.5749394798988412e+05 -1.7123753653421754e+08 
+4.2999999999999927e+00 -5.8063722054053390e-01 +7.6579901323913582e+00 +3.3546426277658981e+00 -2.4002972479329056e+01 +2.7811369772304151e+04 -1.5567576045057797e+05 -1.7204373393541864e+08 
+4.3499999999999925e+00 -5.8066681324960301e-01 +7.6595248048674165e+00 +3.3151051586373166e+00 -2.4015471610388847e+01 +2.7966690283215557e+04 -1.5396235420975389e+05 -1.7284146063271466e+08 
+4.3999999999999924e+00 -5.8069666671844078e-01 +7.6610702574417351e+00 +3.2755273672201577e+00 -2.4011182949735602e+01 +2.8119958731668157e+04 -1.5235166625911338e+05 -1.7362946392183566e+08 
+4.4499999999999922e+00 -5.8072677815958873e-01 +7.6626263121240461e+00 +3.2359258372922439e+00 -2.3990554584380998e+01 +2.8270957581582254e+04 -1.5084163353286119e+05 -1.7440649102207142e+08 
+4.4999999999999920e+00 -5.8075714478560525e-01 +7.6641927909222138e+00 +3.1963171553163461e+00 -2.3954034541672510e+01 +2.8419469229359740e+04 -1.4943019342520312e+05 -1.7517128871425757e+08 
+4.5499999999999918e+00 -5.8078776380903330e-01 +7.6657695158423502e+00 +3.1567179052884873e+00 -2.3902070785364753e+01 +2.8565276134422380e+04 -1.4811528386977449e+05 -1.7592260419052035e+08 
+4.5999999999999917e+00 -5.8081863244240006e-01 +7.6673563088912058e+00 +3.1171446681548751e+00 -2.3835111331598544e+01 +2.8708160840668777e+04 -1.4689484231239380e+05 -1.7665918521682131e+08 
+4.6499999999999915e+00 -5.8084974789827026e-01 +7.6689529920703139e+00 +3.0776140319626140e+00 -2.3753604012533948e+01 +2.8847905697742517e+04 -1.4576680764629829e+05 -1.7737977823889443e+08 
+4.6999999999999913e+00 -5.8088110738918275e-01 +7.6705593873832081e+00 +3.0381425795988375e+00 -2.3657996749269962e+01 +2.8984293200880827e+04 -1.4472911805712391e+05 -1.7808313070335487e+08 
+4.7499999999999911e+00 -5.8091270812768125e-01 +7.6721753168317912e+00 +2.9987468958089396e+00 -2.3548737423384978e+01 +2.9117105787213688e+04 -1.4377971200117291e+05 -1.7876798963591692e+08 
+4.7999999999999909e+00 -5.8094454732631495e-01 +7.6738006024125793e+00 +2.9594435658525735e+00 -2.3426273709424603e+01 +2.9246125889327202e+04 -1.4291652964637915e+05 -1.7943310206479749e+08 
+4.8499999999999908e+00 -5.8097662219762036e-01 +7.6754350661270898e+00 +2.9202491731686839e+00 -2.3291053531120880e+01 +2.9371135984905588e+04 -1.4213750899009491e+05 -1.8007721530412948e+08 
+4.8999999999999906e+00 -5.8100892995414355e-01 +7.6770785299687239e+00 +2.8811803031722030e+00 -2.3143524479074038e+01 +2.9491918498599378e+04 -1.4144059084292813e+05 -1.8069907630616900e+08 
+4.9499999999999904e+00 -5.8104146780842114e-01 +7.6787308159339247e+00 +2.8422535402293461e+00 -2.2984134301275883e+01 +2.9608255883438411e+04 -1.4082371464890472e+05 -1.8129743221805206e+08 
+4.9999999999999902e+00 -5.8107423297299143e-01 +7.6803917460157951e+00 +2.8034854687998672e+00 -2.2813330639557730e+01 +2.9719930594975169e+04 -1.4028482067990678e+05 -1.8187103021706811e+08 
+5.0499999999999901e+00 -5.8110722266039916e-01 +7.6820611422038425e+00 +2.7648926754117200e+00 -2.2631561007453122e+01 +2.9826725027183707e+04 -1.3982185025229852e+05 -1.8241861704005700e+08 
