# multipoles
# s[mm] polynom_b[n=0][T/m^n] polynom_b[n=1][T/m^n] polynom_b[n=2][T/m^n] polynom_b[n=3][T/m^n] polynom_b[n=4][T/m^n] polynom_b[n=5][T/m^n] polynom_b[n=6][T/m^n] 
+0.0000000000000000e+00 -5.5201371396312082e-01 +7.2227823201413086e+00 +5.4952591727978035e+00 -1.8380041299444841e+01 +3.6118409836257160e+03 -1.2836450986429045e+05 +7.0259141100650756e+06 
+5.0000000000000003e-02 -5.5201290485144827e-01 +7.2227696109231561e+00 +5.4962539018263028e+00 -1.8559663126729166e+01 +3.6428056484300841e+03 -1.2662891183323636e+05 +6.7069904298270494e+06 
+1.0000000000000001e-01 -5.5201250795041568e-01 +7.2227785521341330e+00 +5.4973793026960376e+00 -1.8733313929548050e+01 +3.6619916297968343e+03 -1.2489120195005754e+05 +6.4501660948540885e+06 
+1.5000000000000002e-01 -5.5201252227206443e-01 +7.2228091026490358e+00 +5.4986177258706004e+00 -1.8901136680903932e+01 +3.6697292357800820e+03 -1.2315128155407157e+05 +6.2538581431106282e+06 
+2.0000000000000001e-01 -5.5201294682846869e-01 +7.2228612213412546e+00 +5.4999515240989645e+00 -1.9063274259875044e+01 +3.6663487113105816e+03 -1.2140905276043362e+05 +6.1164840454201484e+06 
+2.5000000000000000e-01 -5.5201378063172024e-01 +7.2229348670895366e+00 +5.5013630507671394e+00 -1.9219869733419731e+01 +3.6521802788298892e+03 -1.1966441614587230e+05 +6.0364614418179290e+06 
+2.9999999999999999e-01 -5.5201502269392533e-01 +7.2230299987669824e+00 +5.5028346574846481e+00 -1.9371065934900560e+01 +3.6275542172530572e+03 -1.1791727409034505e+05 +6.0122075586930877e+06 
+3.4999999999999998e-01 -5.5201667202721139e-01 +7.2231465752489763e+00 +5.5043486973206930e+00 -1.9517005743285274e+01 +3.5928007572434763e+03 -1.1616752866347860e+05 +6.0421399805525905e+06 
+3.9999999999999997e-01 -5.5201872764373083e-01 +7.2232845554131808e+00 +5.5058875239150789e+00 -1.9657832114179932e+01 +3.5482501180264053e+03 -1.1441508125282847e+05 +6.1246763539795130e+06 
+4.4999999999999996e-01 -5.5202118855564342e-01 +7.2234438981321105e+00 +5.5074334891956314e+00 -1.9793687766786572e+01 +3.4942325644572238e+03 -1.1265983516544856e+05 +6.2582340186362676e+06 
+4.9999999999999994e-01 -5.5202405377513297e-01 +7.2236245622852531e+00 +5.5089689460989444e+00 -1.9924715671851914e+01 +3.4310783323668702e+03 -1.1090169166034233e+05 +6.4412305170728555e+06 
+5.4999999999999993e-01 -5.5202732231439167e-01 +7.2238265067464544e+00 +5.5104762458590422e+00 -2.0051058552530261e+01 +3.3591177049016246e+03 -1.0914055397507269e+05 +6.6720830640596738e+06 
+5.9999999999999998e-01 -5.5203099318565274e-01 +7.2240496903920830e+00 +5.5119377433437773e+00 -2.0172859199714836e+01 +3.2786808675797024e+03 -1.0737632481858684e+05 +6.9492095364774857e+06 
+6.5000000000000002e-01 -5.5203506540114533e-01 +7.2242940720991307e+00 +5.5133357901259359e+00 -2.0290260408269198e+01 +3.1900980926310399e+03 -1.0560890683779118e+05 +7.2710272268408723e+06 
+7.0000000000000007e-01 -5.5203953797312011e-01 +7.2245596107471881e+00 +5.5146527384142843e+00 -2.0403405049817799e+01 +3.0936996326977824e+03 -1.0383820204801568e+05 +7.6359535737617556e+06 
+7.5000000000000011e-01 -5.5204440991386128e-01 +7.2248462652092424e+00 +5.5158709423851002e+00 -2.0512435687033484e+01 +2.9898156941169304e+03 -1.0206411505378787e+05 +8.0424063010089528e+06 
+8.0000000000000016e-01 -5.5204968023565060e-01 +7.2251539943665541e+00 +5.5169727533027473e+00 -2.0617495211662735e+01 +2.8787765562826639e+03 -1.0028654767199309e+05 +8.4888026590337325e+06 
+8.5000000000000020e-01 -5.5205534795080080e-01 +7.2254827570975602e+00 +5.5179405247121052e+00 -2.0718726357049395e+01 +2.7609124360906239e+03 -9.8505403093950707e+04 +8.9735603242613431e+06 
+9.0000000000000024e-01 -5.5206141207164039e-01 +7.2258325122798537e+00 +5.5187566096586744e+00 -2.0816271797899923e+01 +2.6365535671544940e+03 -9.6720584969754083e+04 +9.4950968469624370e+06 
+9.5000000000000029e-01 -5.5206787161051130e-01 +7.2262032187959369e+00 +5.5194033601963248e+00 -2.0910274387662774e+01 +2.5060302100145082e+03 -9.4931995466015476e+04 +1.0051829595687188e+07 
+1.0000000000000002e+00 -5.5207472557977166e-01 +7.2265948355218077e+00 +5.5198631287012834e+00 -2.1000876667877655e+01 +2.3696726107034074e+03 -9.3139539393559913e+04 +1.0642176058943905e+07 
+1.0500000000000003e+00 -5.5208197299180228e-01 +7.2270073213414774e+00 +5.5201182680012284e+00 -2.1088221491084493e+01 +2.2278110100669714e+03 -9.1343118969068499e+04 +1.1264553731223052e+07 
+1.1000000000000003e+00 -5.5208961285900315e-01 +7.2274406351371638e+00 +5.5201511311225318e+00 -2.1172451605826026e+01 +2.0807756412825097e+03 -8.9542637279314702e+04 +1.1917380169892089e+07 
+1.1500000000000004e+00 -5.5209764419379759e-01 +7.2278947357868892e+00 +5.5199440726182232e+00 -2.1253709546688910e+01 +1.9288966922381635e+03 -8.7737999241413621e+04 +1.2599073254148073e+07 
+1.2000000000000004e+00 -5.5210606600860479e-01 +7.2283695821804015e+00 +5.5194794428204252e+00 -2.1332138320779990e+01 +1.7725044703543174e+03 -8.5929105815114526e+04 +1.3308050031851651e+07 
+1.2500000000000004e+00 -5.5211487731587505e-01 +7.2288651331962841e+00 +5.5187395947913105e+00 -2.1407880420419879e+01 +1.6119292044153083e+03 -8.4115862330125499e+04 +1.4042728103043370e+07 
+1.3000000000000005e+00 -5.5212407712807987e-01 +7.2293813477227404e+00 +5.5177068820465482e+00 -2.1481078718591803e+01 +1.4475011148829517e+03 -8.2298170937130315e+04 +1.4801525108730508e+07 
+1.3500000000000005e+00 -5.5213366445770562e-01 +7.2299181846452170e+00 +5.5163636575519126e+00 -2.1551875938912282e+01 +1.2795504367935584e+03 -8.0475935064082179e+04 +1.5582858592362467e+07 
+1.4000000000000006e+00 -5.5214363831723778e-01 +7.2304756028513752e+00 +5.5146922717646518e+00 -2.1620414865681443e+01 +1.1084074677627982e+03 -7.8649057674389464e+04 +1.6385145693717053e+07 
+1.4500000000000006e+00 -5.5215399771921725e-01 +7.2310535612250888e+00 +5.5126750811340148e+00 -2.1686838091397181e+01 +9.3440234973752274e+02 -7.6817443351794893e+04 +1.7206804583798677e+07 
+1.5000000000000007e+00 -5.5216474167616880e-01 +7.2316520186611895e+00 +5.5102944364316677e+00 -2.1751288628797404e+01 +7.5786537800181225e+02 -7.4980993253523804e+04 +1.8046252394162983e+07 
+1.5500000000000007e+00 -5.5217586920063977e-01 +7.2322709340471762e+00 +5.5075326901735684e+00 -2.1813909159407061e+01 +5.7912679257894035e+02 -7.3139611292142712e+04 +1.8901906662635759e+07 
+1.6000000000000008e+00 -5.5218737930520978e-01 +7.2329102662727891e+00 +5.5043721961678216e+00 -2.1874842421438789e+01 +3.9851681155001199e+02 -7.1293200966948119e+04 +1.9772185028473709e+07 
+1.6500000000000008e+00 -5.5219927100245947e-01 +7.2335699742339239e+00 +5.5007953067354647e+00 -2.1934231364379595e+01 +2.1636568216713599e+02 -6.9441664115315580e+04 +2.0655504973252181e+07 
+1.7000000000000008e+00 -5.5221154330499445e-01 +7.2342500168223527e+00 +5.4967843751808587e+00 -2.1992218756836319e+01 +3.3003628528795829e+01 -6.7584904025790354e+04 +2.1550284123951491e+07 
+1.7500000000000009e+00 -5.5222419522543731e-01 +7.2349503529349706e+00 +5.4923217542736689e+00 -2.2048947516267425e+01 -1.5123910416896661e+02 -6.5722822921966625e+04 +2.2454939938816387e+07 
+1.8000000000000009e+00 -5.5223722577641388e-01 +7.2356709414663190e+00 +5.4873897958338596e+00 -2.2104560455972187e+01 -3.3603226016715632e+02 -6.3855323830473899e+04 +2.3367889864828087e+07 
+1.8500000000000010e+00 -5.5225063397059171e-01 +7.2364117413146216e+00 +5.4819708543984600e+00 -2.2159200485541728e+01 -5.2104563838071533e+02 -6.1982309128779401e+04 +2.4287551645434283e+07 
+1.9000000000000010e+00 -5.5226441882063382e-01 +7.2371727113802642e+00 +5.4760472819600574e+00 -2.2213010585226765e+01 -7.0594898190643471e+02 -6.0103680595821861e+04 +2.5212342698341038e+07 
+1.9500000000000011e+00 -5.5227857933922542e-01 +7.2379538105638517e+00 +5.4696014312025003e+00 -2.2266133688163848e+01 -8.9041204898174874e+02 -5.8219340547654101e+04 +2.6140680531057067e+07 
+2.0000000000000009e+00 -5.5229311453907692e-01 +7.2387549977670353e+00 +5.4626156562047212e+00 -2.2318712757736499e+01 -1.0741046325065822e+03 -5.6329191029154026e+04 +2.7070982873785529e+07 
+2.0500000000000007e+00 -5.5230802322941286e-01 +7.2395762115011379e+00 +5.4550752259695114e+00 -2.2370816416275105e+01 -1.2567330885411943e+03 -5.4433545083771744e+04 +2.8001813393678926e+07 
+2.1000000000000005e+00 -5.5232330340546609e-01 +7.2404173029614025e+00 +5.4469776256045579e+00 -2.2422263534448941e+01 -1.4381517224346962e+03 -5.2534044159189369e+04 +2.8932328382668901e+07 
+2.1500000000000004e+00 -5.5233895285897716e-01 +7.2412781000856299e+00 +5.4383235426937784e+00 -2.2472823689721029e+01 -1.6182521824210128e+03 -5.0632579377436625e+04 +2.9861834129281282e+07 
+2.2000000000000002e+00 -5.5235496938168294e-01 +7.2421584308028173e+00 +5.4291136614917299e+00 -2.2522266075854105e+01 -1.7969260202094524e+03 -4.8731045061472440e+04 +3.0789636243733238e+07 
+2.2500000000000000e+00 -5.5237135076533106e-01 +7.2430581230511493e+00 +5.4193486663136996e+00 -2.2570360246239396e+01 -1.9740647950415305e+03 -4.6831332602085968e+04 +3.1715040413435448e+07 
+2.2999999999999998e+00 -5.5238809480170703e-01 +7.2439770047665570e+00 +5.4090292457190534e+00 -2.2616875645165067e+01 -2.1495601772614700e+03 -4.4935334278727772e+04 +3.2637353058952283e+07 
+2.3499999999999996e+00 -5.5240519928257281e-01 +7.2449149038851104e+00 +5.3981560819695220e+00 -2.2661581697846742e+01 -2.3233036691509874e+03 -4.3044942577167167e+04 +3.3555879476583734e+07 
+2.3999999999999995e+00 -5.5242266199972734e-01 +7.2458716483427290e+00 +5.3867298613403660e+00 -2.2704247803299324e+01 -2.4951868781475769e+03 -4.1162050223767168e+04 +3.4469925660148732e+07 
+2.4499999999999993e+00 -5.5244048074498242e-01 +7.2468470660796820e+00 +5.3747512710421042e+00 -2.2744643521171696e+01 -2.6651014428507160e+03 -3.9288548640839588e+04 +3.5378797835401520e+07 
+2.4999999999999991e+00 -5.5245865331014965e-01 +7.2478409850335366e+00 +5.3622209952248179e+00 -2.2782538285886101e+01 -2.8329389133652339e+03 -3.7426330287351273e+04 +3.6281801611639880e+07 
+2.5499999999999989e+00 -5.5247717748705594e-01 +7.2488532331438380e+00 +5.3491397197111867e+00 -2.2817701597553796e+01 -2.9985908917292568e+03 -3.5577287097765671e+04 +3.7178242970616661e+07 
+2.5999999999999988e+00 -5.5249605106753641e-01 +7.2498836383510534e+00 +5.3355081288124673e+00 -2.2849902964515586e+01 -3.1619489310946051e+03 -3.3743311001669841e+04 +3.8067427535640545e+07 
+2.6499999999999986e+00 -5.5251527184344496e-01 +7.2509320285978118e+00 +5.3213269089031741e+00 -2.2878911971899456e+01 -3.3229046483090351e+03 -3.1926293307834389e+04 +3.8948661392262623e+07 
+2.6999999999999984e+00 -5.5253483760663269e-01 +7.2519982318248815e+00 +5.3065967437006254e+00 -2.2904498126960871e+01 -3.4813495849165738e+03 -3.0128125923069987e+04 +3.9821250102059126e+07 
+2.7499999999999982e+00 -5.5255474614899081e-01 +7.2530820759759500e+00 +5.2913183221373652e+00 -2.2926431021043207e+01 -3.6371754236604816e+03 -2.8350700170287037e+04 +4.0684500182837367e+07 
+2.7999999999999980e+00 -5.5257499526236731e-01 +7.2541833889938312e+00 +5.2754923237270175e+00 -2.2944480208014109e+01 -3.7902735943222146e+03 -2.6595907636458029e+04 +4.1537716449269727e+07 
+2.8499999999999979e+00 -5.5259558273866449e-01 +7.2553019988225858e+00 +5.2591194358982261e+00 -2.2958415270179312e+01 -3.9405357399975042e+03 -2.4865639740828148e+04 +4.2380205154257059e+07 
+2.8999999999999977e+00 -5.5261650636979553e-01 +7.2564377334070693e+00 +5.2422003457033020e+00 -2.2968005816061343e+01 -4.0878534910139997e+03 -2.3161787668671033e+04 +4.3211272458598182e+07 
+2.9499999999999975e+00 -5.5263776394765640e-01 +7.2575904206948447e+00 +5.2247357364701426e+00 -2.2973021547210230e+01 -4.2321183857819478e+03 -2.1486241884460269e+04 +4.4030223932122931e+07 
+2.9999999999999973e+00 -5.5265935326416638e-01 +7.2587598886302178e+00 +5.2067262929913678e+00 -2.2973232018747957e+01 -4.3732219918948103e+03 -1.9840894067477017e+04 +4.4836365302918211e+07 
+3.0499999999999972e+00 -5.5268127211124085e-01 +7.2599459651609131e+00 +5.1881726983167598e+00 -2.2968406919144101e+01 -4.5110558387071542e+03 -1.8227634810771226e+04 +4.5629002077001013e+07 
+3.0999999999999970e+00 -5.5270351828083197e-01 +7.2611484782354578e+00 +5.1690756403390452e+00 -2.2958315948105508e+01 -4.6455115816543084e+03 -1.6648354668193133e+04 +4.6407440590855703e+07 
+3.1499999999999968e+00 -5.5272608956487745e-01 +7.2623672558005028e+00 +5.1494358026950220e+00 -2.2942728729506349e+01 -4.7764807636067599e+03 -1.5104944783381654e+04 +4.7170986433602884e+07 
+3.1999999999999966e+00 -5.5274898375532522e-01 +7.2636021258081902e+00 +5.1292538693908405e+00 -2.2921415093399879e+01 -4.9038549364672554e+03 -1.3599294660758589e+04 +4.7918945250405513e+07 
+3.2499999999999964e+00 -5.5277219864413363e-01 +7.2648529162083761e+00 +5.1085305246277004e+00 -2.2894144774862067e+01 -5.0275256566268854e+03 -1.2133294571050312e+04 +4.8650622714013077e+07 
+3.2999999999999963e+00 -5.5279573202327270e-01 +7.2661194549505268e+00 +5.0872664537968504e+00 -2.2860687469747916e+01 -5.1473845178076117e+03 -1.0708835178987494e+04 +4.9365324770402215e+07 
+3.3499999999999961e+00 -5.5281958168472078e-01 +7.2674015699860917e+00 +5.0654623420770974e+00 -2.2820812954675976e+01 -5.2633231043943397e+03 -9.3278064689269595e+03 +5.0062357288063437e+07 
+3.3999999999999959e+00 -5.5284374542044634e-01 +7.2686990892668497e+00 +5.0431188712385522e+00 -2.2774291019364963e+01 -5.3752329085050096e+03 -7.9920983049302486e+03 +5.0741025513680860e+07 
+3.4499999999999957e+00 -5.5286822102244693e-01 +7.2700118407460268e+00 +5.0202367273769548e+00 -2.2720891492066936e+01 -5.4830055406573147e+03 -6.7036002981807678e+03 +5.1400635497554451e+07 
+3.4999999999999956e+00 -5.5289300628271554e-01 +7.2713396523786606e+00 +4.9968165946096583e+00 -2.2660384269758271e+01 -5.5865325608849062e+03 -5.4642015126288225e+03 +5.2040492962117694e+07 
+3.5499999999999954e+00 -5.5291809899325373e-01 +7.2726823521174868e+00 +4.9728591567729721e+00 -2.2592539160460433e+01 -5.6857055170052772e+03 -4.2757917132026714e+03 +5.2659903530833997e+07 
+3.5999999999999952e+00 -5.5294349694606360e-01 +7.2740397679156379e+00 +4.9483650971693285e+00 -2.2517125963304050e+01 -5.7804159470721679e+03 -3.1402608215927398e+03 +5.3258172779249720e+07 
+3.6499999999999950e+00 -5.5296919793315391e-01 +7.2754117277319290e+00 +4.9233350986904059e+00 -2.2433914725741911e+01 -5.8705553721443484e+03 -2.0594966571876680e+03 +5.3834606142619871e+07 
+3.6999999999999948e+00 -5.5299519974656230e-01 +7.2767980595189190e+00 +4.8977698487805075e+00 -2.2342675217662347e+01 -5.9560154456602668e+03 -1.0353894025202446e+03 +5.4388509992448375e+07 
+3.7499999999999947e+00 -5.5302150017829610e-01 +7.2781985912380147e+00 +4.8716700279916960e+00 -2.2243177575551474e+01 -6.0366876272873196e+03 -6.9826208284057159e+01 +5.4919189358935155e+07 
+3.7999999999999945e+00 -5.5304809702039170e-01 +7.2796131508419792e+00 +4.8450363214722705e+00 -2.2135191573368036e+01 -6.1124635060669852e+03 +8.3530276363619305e+02 +5.5425950166794635e+07 
+3.8499999999999943e+00 -5.5307498806487920e-01 +7.2810415662920818e+00 +4.8178694118241170e+00 -2.2018487338534371e+01 -6.1832346009581743e+03 +1.6781102769732827e+03 +5.5908097865226455e+07 
+3.8999999999999941e+00 -5.5310217110380366e-01 +7.2824836655458363e+00 +4.7901699837737883e+00 -2.1892834831970820e+01 -6.2488924882381098e+03 +2.4567076623396288e+03 +5.6364938287852228e+07 
+3.9499999999999940e+00 -5.5312964392919539e-01 +7.2839392765616866e+00 +4.7619387183276158e+00 -2.1758004047972779e+01 -6.3093286443316838e+03 +3.1692065061773997e+03 +5.6795776597924128e+07 
+3.9999999999999938e+00 -5.5315740433311522e-01 +7.2854082273028338e+00 +4.7331763011637600e+00 -2.1613765189700270e+01 -6.3644346731388760e+03 +3.8137202009094167e+03 +5.7199918830423027e+07 
+4.0499999999999936e+00 -5.5318544999939090e-01 +7.2868903402367851e+00 +4.7038860435161869e+00 -2.1459865469931898e+01 -6.4141566507237158e+03 +4.3881901418131756e+03 +5.7576974198783055e+07 
+4.0999999999999934e+00 -5.5321377817924611e-01 +7.2883854086612825e+00 +4.6740821671853841e+00 -2.1295974108582023e+01 -6.4586616393977538e+03 +4.8900596718854222e+03 +5.7927786292773604e+07 
+4.1499999999999932e+00 -5.5324238601584363e-01 +7.2898932167681822e+00 +4.6437817470239029e+00 -2.1121744786398132e+01 -6.4981726626811142e+03 +5.3166897182345811e+03 +5.8253512002602153e+07 
+4.1999999999999931e+00 -5.5327127065234649e-01 +7.2914135487493228e+00 +4.6130018578493059e+00 -2.0936831199364864e+01 -6.5329127481899777e+03 +5.6654412967878416e+03 +5.8555308279540680e+07 
+4.2499999999999929e+00 -5.5330042923192113e-01 +7.2929461887952387e+00 +4.5817595753455409e+00 -2.0740886984954173e+01 -6.5631049490456116e+03 +5.9336749133769272e+03 +5.8834332250752494e+07 
+4.2999999999999927e+00 -5.5332985889771891e-01 +7.2944909210957869e+00 +4.5500719713963145e+00 -2.0533565766418171e+01 -6.5889722086996226e+03 +6.1187509903855516e+03 +5.9091740280043349e+07 
+4.3499999999999925e+00 -5.5335955679290716e-01 +7.2960475298398766e+00 +4.5179561213061765e+00 -2.0314521142619295e+01 -6.6107375727537838e+03 +6.2180298122247532e+03 +5.9328689459222518e+07 
+4.3999999999999924e+00 -5.5338952006065967e-01 +7.2976157992203188e+00 +4.4854291006809808e+00 -2.0083406872060937e+01 -6.6286240874906707e+03 +6.2288729520540865e+03 +5.9546336857390560e+07 
+4.4499999999999922e+00 -5.5341974584413822e-01 +7.2991955134214601e+00 +4.4525079839955941e+00 -1.9839876381837218e+01 -6.6428547803232841e+03 +6.1486393088203431e+03 +5.9745839462042078e+07 
+4.4999999999999920e+00 -5.5345023128648785e-01 +7.3007864566304361e+00 +4.4192098417227355e+00 -1.9583583214233659e+01 -6.6536525609023747e+03 +5.9746887081387576e+03 +5.9928353427916370e+07 
+4.5499999999999918e+00 -5.5348097353088854e-01 +7.3023884130334826e+00 +4.3855517508906248e+00 -1.9314180895197392e+01 -6.6612405219442071e+03 +5.7043809162059479e+03 +6.0095036173746213e+07 
+4.5999999999999917e+00 -5.5351196972049310e-01 +7.3040011668175007e+00 +4.3515507840888441e+00 -1.9031322985009108e+01 -6.6658416378164984e+03 +5.3350759844203631e+03 +6.0247044323100999e+07 
+4.6499999999999915e+00 -5.5354321699846565e-01 +7.3056245021647168e+00 +4.3172240156410044e+00 -1.8734662867113894e+01 -6.6676789284969082e+03 +4.8641325444221120e+03 +6.0385534805839889e+07 
+4.6999999999999913e+00 -5.5357471250795764e-01 +7.3072582032587832e+00 +4.2825885182176728e+00 -1.8423853991581900e+01 -6.6669753727356892e+03 +4.2889097908295544e+03 +6.0511664287148923e+07 
+4.7499999999999911e+00 -5.5360645339212189e-01 +7.3089020542808125e+00 +4.2476613646123758e+00 -1.8098549722538255e+01 -6.6639539504602189e+03 +3.6067662507798086e+03 +6.0626589431740701e+07 
+4.7999999999999909e+00 -5.5363843679412361e-01 +7.3105558394141337e+00 +4.2124596303455197e+00 -1.7758403530060498e+01 -6.6588377198369599e+03 +2.8150613645187982e+03 +6.0731467455811910e+07 
+4.8499999999999908e+00 -5.5367065985710617e-01 +7.3122193428370501e+00 +4.1770003873693309e+00 -1.7403068690263634e+01 -6.6518496411488659e+03 +1.9111529933750423e+03 +6.0827454905595161e+07 
+4.8999999999999906e+00 -5.5370311972420994e-01 +7.3138923487268821e+00 +4.1413007075819808e+00 -1.7032198452953182e+01 -6.6432126764160403e+03 +8.9239880278143903e+02 +6.0915708355162516e+07 
+4.9499999999999904e+00 -5.5373581353858814e-01 +7.3155746412641056e+00 +4.1053776652836511e+00 -1.6645446220290914e+01 -6.6331498511396867e+03 -2.4384222278715376e+02 +6.0997384803768530e+07 
+4.9999999999999902e+00 -5.5376873844337371e-01 +7.3172660046220033e+00 +4.0692483321990602e+00 -1.6242465109606904e+01 -6.6218841255631005e+03 -1.5002134391616687e+03 +6.1073640825873964e+07 
+5.0499999999999901e+00 -5.5380189158170345e-01 +7.3189662229766430e+00 +4.0329297807785247e+00 -1.5822908376457907e+01 -6.6096384765244229e+03 -2.8793570038306202e+03 +6.1145633099406563e+07 
