# field on trajectory
# s[mm] rx[mm] ry[mm] rz[mm] bx[T] by[T] bz[T]
0.0000000000000000e+00 +8.2850000000000001e+00 +0.0000000000000000e+00 +0.0000000000000000e+00 -2.9151947626976187e-02 -5.2424748822283129e-01 +5.3640835997021902e-03
5.0000000000000003e-02 +8.2849999308891729e+00 +0.0000000000000000e+00 +4.9999999999936318e-02 -2.9151619535796047e-02 -5.2424601640176638e-01 +5.3629377932952966e-03
1.0000000000000001e-01 +8.2849997235569344e+00 +0.0000000000000000e+00 +9.9999999999490524e-02 -2.9151317914536564e-02 -5.2424493170824638e-01 +5.3617899185744323e-03
1.5000000000000002e-01 +8.2849993780035689e+00 +0.0000000000000000e+00 +1.4999999999828054e-01 -2.9151042627048988e-02 -5.2424423329986380e-01 +5.3606401363231904e-03
2.0000000000000001e-01 +8.2849988942292629e+00 +0.0000000000000000e+00 +1.9999999999592424e-01 -2.9150793537184510e-02 -5.2424392033423162e-01 +5.3594886073249984e-03
2.5000000000000000e-01 +8.2849982722340965e+00 +0.0000000000000000e+00 +2.4999999999203953e-01 -2.9150570508794327e-02 -5.2424399196897919e-01 +5.3583354923631091e-03
2.9999999999999999e-01 +8.2849975120180517e+00 +0.0000000000000000e+00 +2.9999999998624433e-01 -2.9150373405729769e-02 -5.2424444736175513e-01 +5.3571809522206613e-03
3.4999999999999998e-01 +8.2849966135810096e+00 +0.0000000000000000e+00 +3.4999999997815651e-01 -2.9150202091842388e-02 -5.2424528567022610e-01 +5.3560251476806788e-03
3.9999999999999997e-01 +8.2849955769227481e+00 +0.0000000000000000e+00 +3.9999999996739399e-01 -2.9150056430983996e-02 -5.2424650605207612e-01 +5.3548682395260895e-03
4.4999999999999996e-01 +8.2849944020429458e+00 +0.0000000000000000e+00 +4.4999999995357465e-01 -2.9149936287006802e-02 -5.2424810766500796e-01 +5.3537103885397744e-03
4.9999999999999994e-01 +8.2849930889411798e+00 +0.0000000000000000e+00 +4.9999999993631639e-01 -2.9149841523763508e-02 -5.2425008966674091e-01 +5.3525517555045605e-03
5.4999999999999993e-01 +8.2849916376169279e+00 +0.0000000000000000e+00 +5.4999999991523707e-01 -2.9149772005107332e-02 -5.2425245121501252e-01 +5.3513925012032577e-03
5.9999999999999998e-01 +8.2849900480695684e+00 +0.0000000000000000e+00 +5.9999999988995456e-01 -2.9149727594892143e-02 -5.2425519146757771e-01 +5.3502327864186896e-03
6.5000000000000002e-01 +8.2849883202983783e+00 +0.0000000000000000e+00 +6.4999999986008672e-01 -2.9149708156972563e-02 -5.2425830958220843e-01 +5.3490727719337017e-03
7.0000000000000007e-01 +8.2849864543025351e+00 +0.0000000000000000e+00 +6.9999999982525141e-01 -2.9149713555204008e-02 -5.2426180471669415e-01 +5.3479126185311879e-03
7.5000000000000011e-01 +8.2849844500811169e+00 +0.0000000000000000e+00 +7.4999999978506648e-01 -2.9149743653442819e-02 -5.2426567602884089e-01 +5.3467524869941279e-03
8.0000000000000016e-01 +8.2849823076331042e+00 +0.0000000000000000e+00 +7.9999999973914970e-01 -2.9149798315546312e-02 -5.2426992267647154e-01 +5.3455925381055850e-03
8.5000000000000020e-01 +8.2849800269573759e+00 +0.0000000000000000e+00 +8.4999999968711892e-01 -2.9149877405372889e-02 -5.2427454381742611e-01 +5.3444329326487461e-03
9.0000000000000024e-01 +8.2849776080527153e+00 +0.0000000000000000e+00 +8.9999999962859201e-01 -2.9149980786782093e-02 -5.2427953860956089e-01 +5.3432738314069441e-03
9.5000000000000029e-01 +8.2849750509178044e+00 +0.0000000000000000e+00 +9.4999999956318670e-01 -2.9150108323634794e-02 -5.2428490621074864e-01 +5.3421153951636784e-03
1.0000000000000002e+00 +8.2849723555512291e+00 +0.0000000000000000e+00 +9.9999999949052076e-01 -2.9150259879793104e-02 -5.2429064577887852e-01 +5.3409577847026261e-03
1.0500000000000003e+00 +8.2849695219514743e+00 +0.0000000000000000e+00 +1.0499999994102120e+00 -2.9150435319120649e-02 -5.2429675647185592e-01 +5.3398011608076917e-03
1.1000000000000003e+00 +8.2849665501169305e+00 +0.0000000000000000e+00 +1.0999999993218781e+00 -2.9150634505482519e-02 -5.2430323744760154e-01 +5.3386456842629991e-03
1.1500000000000004e+00 +8.2849634400458889e+00 +0.0000000000000000e+00 +1.1499999992251368e+00 -2.9150857302745432e-02 -5.2431008786405353e-01 +5.3374915158529461e-03
1.2000000000000004e+00 +8.2849601917365430e+00 +0.0000000000000000e+00 +1.1999999991196058e+00 -2.9151103574777782e-02 -5.2431730687916411e-01 +5.3363388163621892e-03
1.2500000000000004e+00 +8.2849568051869884e+00 +0.0000000000000000e+00 +1.2499999990049027e+00 -2.9151373185449747e-02 -5.2432489365090229e-01 +5.3351877465757074e-03
1.3000000000000005e+00 +8.2849532803952268e+00 +0.0000000000000000e+00 +1.2999999988806452e+00 -2.9151665998633378e-02 -5.2433284733725227e-01 +5.3340384672787965e-03
1.3500000000000005e+00 +8.2849496173591604e+00 +0.0000000000000000e+00 +1.3499999987464510e+00 -2.9151981878202664e-02 -5.2434116709621326e-01 +5.3328911392571052e-03
1.4000000000000006e+00 +8.2849458160765952e+00 +0.0000000000000000e+00 +1.3999999986019376e+00 -2.9152320688033657e-02 -5.2434985208580032e-01 +5.3317459232966489e-03
1.4500000000000006e+00 +8.2849418765452416e+00 +0.0000000000000000e+00 +1.4499999984467227e+00 -2.9152682292004496e-02 -5.2435890146404274e-01 +5.3306029801838415e-03
1.5000000000000007e+00 +8.2849377987627140e+00 +0.0000000000000000e+00 +1.4999999982804237e+00 -2.9153066553995580e-02 -5.2436831438898579e-01 +5.3294624707055155e-03
1.5500000000000007e+00 +8.2849335827265307e+00 +0.0000000000000000e+00 +1.5499999981026582e+00 -2.9153473337889573e-02 -5.2437809001868874e-01 +5.3283245556489415e-03
1.6000000000000008e+00 +8.2849292284341143e+00 +0.0000000000000000e+00 +1.5999999979130437e+00 -2.9153902507571553e-02 -5.2438822751122582e-01 +5.3271893958018578e-03
1.6500000000000008e+00 +8.2849247358827913e+00 +0.0000000000000000e+00 +1.6499999977111977e+00 -2.9154353926929076e-02 -5.2439872602468585e-01 +5.3260571519524865e-03
1.7000000000000008e+00 +8.2849201050697960e+00 +0.0000000000000000e+00 +1.6999999974967375e+00 -2.9154827459852248e-02 -5.2440958471717236e-01 +5.3249279848895563e-03
1.7500000000000009e+00 +8.2849153359922632e+00 +0.0000000000000000e+00 +1.7499999972692806e+00 -2.9155322970233814e-02 -5.2442080274680269e-01 +5.3238020554023371e-03
1.8000000000000009e+00 +8.2849104286472350e+00 +0.0000000000000000e+00 +1.7999999970284444e+00 -2.9155840321969301e-02 -5.2443237927170827e-01 +5.3226795242806418e-03
1.8500000000000010e+00 +8.2849053830316617e+00 +0.0000000000000000e+00 +1.8499999967738461e+00 -2.9156379378957018e-02 -5.2444431345003484e-01 +5.3215605523148756e-03
1.9000000000000010e+00 +8.2849001991423954e+00 +0.0000000000000000e+00 +1.8999999965051031e+00 -2.9156940005098220e-02 -5.2445660443994191e-01 +5.3204453002960337e-03
1.9500000000000011e+00 +8.2848948769761943e+00 +0.0000000000000000e+00 +1.9499999962218326e+00 -2.9157522064297128e-02 -5.2446925139960276e-01 +5.3193339290157427e-03
2.0000000000000009e+00 +8.2848894165297260e+00 +0.0000000000000000e+00 +1.9999999959236519e+00 -2.9158125420461107e-02 -5.2448225348720423e-01 +5.3182265992662717e-03
2.0500000000000007e+00 +8.2848838177995603e+00 +0.0000000000000000e+00 +2.0499999956101780e+00 -2.9158749945672028e-02 -5.2449560967875664e-01 +5.3171234637540438e-03
2.1000000000000005e+00 +8.2848780807821782e+00 +0.0000000000000000e+00 +2.0999999952810282e+00 -2.9159395544699939e-02 -5.2450931822152458e-01 +5.3160246428400120e-03
2.1500000000000004e+00 +8.2848722054739632e+00 +0.0000000000000000e+00 +2.1499999949358197e+00 -2.9160062130487521e-02 -5.2452337718059505e-01 +5.3149302487991252e-03
2.2000000000000002e+00 +8.2848661918712097e+00 +0.0000000000000000e+00 +2.1999999945741697e+00 -2.9160749615978539e-02 -5.2453778462106726e-01 +5.3138403939068431e-03
2.2500000000000000e+00 +8.2848600399701198e+00 +0.0000000000000000e+00 +2.2499999941956950e+00 -2.9161457914117745e-02 -5.2455253860805340e-01 +5.3127551904391468e-03
2.2999999999999998e+00 +8.2848537497668033e+00 +0.0000000000000000e+00 +2.2999999938000126e+00 -2.9162186937850852e-02 -5.2456763720667687e-01 +5.3116747506725395e-03
2.3499999999999996e+00 +8.2848473212572795e+00 +0.0000000000000000e+00 +2.3499999933867395e+00 -2.9162936600124510e-02 -5.2458307848207364e-01 +5.3105991868840777e-03
2.3999999999999995e+00 +8.2848407544374769e+00 +0.0000000000000000e+00 +2.3999999929554923e+00 -2.9163706813886223e-02 -5.2459886049939086e-01 +5.3095286113513619e-03
2.4499999999999993e+00 +8.2848340493032335e+00 +0.0000000000000000e+00 +2.4499999925058882e+00 -2.9164497492084315e-02 -5.2461498132378748e-01 +5.3084631363525571e-03
2.4999999999999991e+00 +8.2848272058503003e+00 +0.0000000000000000e+00 +2.4999999920375435e+00 -2.9165308547667912e-02 -5.2463143902043385e-01 +5.3074028741664000e-03
2.5499999999999989e+00 +8.2848202240743376e+00 +0.0000000000000000e+00 +2.5499999915500755e+00 -2.9166139893586854e-02 -5.2464823165451180e-01 +5.3063479370722083e-03
2.5999999999999988e+00 +8.2848131039709187e+00 +0.0000000000000000e+00 +2.5999999910431009e+00 -2.9166991442791682e-02 -5.2466535729121344e-01 +5.3052984373498898e-03
2.6499999999999986e+00 +8.2848058455355282e+00 +0.0000000000000000e+00 +2.6499999905162359e+00 -2.9167863108233601e-02 -5.2468281399574257e-01 +5.3042544872799625e-03
2.6999999999999984e+00 +8.2847984487635635e+00 +0.0000000000000000e+00 +2.6999999899690974e+00 -2.9168754802864370e-02 -5.2470059983331285e-01 +5.3032161991435449e-03
2.7499999999999982e+00 +8.2847909136503350e+00 +0.0000000000000000e+00 +2.7499999894013021e+00 -2.9169666439636342e-02 -5.2471871286914940e-01 +5.3021836852223938e-03
2.7999999999999980e+00 +8.2847832401910679e+00 +0.0000000000000000e+00 +2.7999999888124663e+00 -2.9170597931502378e-02 -5.2473715116848674e-01 +5.3011570577988889e-03
2.8499999999999979e+00 +8.2847754283809003e+00 +0.0000000000000000e+00 +2.8499999882022067e+00 -2.9171549191415767e-02 -5.2475591279657019e-01 +5.3001364291560514e-03
2.8999999999999977e+00 +8.2847674782148850e+00 +0.0000000000000000e+00 +2.8999999875701392e+00 -2.9172520132330265e-02 -5.2477499581865494e-01 +5.2991219115775664e-03
2.9499999999999975e+00 +8.2847593896879914e+00 +0.0000000000000000e+00 +2.9499999869158806e+00 -2.9173510667199962e-02 -5.2479439830000563e-01 +5.2981136173477755e-03
2.9999999999999973e+00 +8.2847511627951054e+00 +0.0000000000000000e+00 +2.9999999862390472e+00 -2.9174520708979301e-02 -5.2481411830589697e-01 +5.2971116587516975e-03
3.0499999999999972e+00 +8.2847427975310257e+00 +0.0000000000000000e+00 +3.0499999855392548e+00 -2.9175550170623007e-02 -5.2483415390161314e-01 +5.2961161480750384e-03
3.0999999999999970e+00 +8.2847342938904713e+00 +0.0000000000000000e+00 +3.0999999848161197e+00 -2.9176598965086016e-02 -5.2485450315244753e-01 +5.2951271976041893e-03
3.1499999999999968e+00 +8.2847256518680759e+00 +0.0000000000000000e+00 +3.1499999840692583e+00 -2.9177667005323506e-02 -5.2487516412370228e-01 +5.2941449196262577e-03
3.1999999999999966e+00 +8.2847168714583930e+00 +0.0000000000000000e+00 +3.1999999832982864e+00 -2.9178754204290752e-02 -5.2489613488068920e-01 +5.2931694264290608e-03
3.2499999999999964e+00 +8.2847079526558929e+00 +0.0000000000000000e+00 +3.2499999825028199e+00 -2.9179860474943174e-02 -5.2491741348872822e-01 +5.2922008303011433e-03
3.2999999999999963e+00 +8.2846988954549659e+00 +0.0000000000000000e+00 +3.2999999816824750e+00 -2.9180985730236208e-02 -5.2493899801314847e-01 +5.2912392435317847e-03
3.3499999999999961e+00 +8.2846896998499222e+00 +0.0000000000000000e+00 +3.3499999808368677e+00 -2.9182129883125338e-02 -5.2496088651928663e-01 +5.2902847784110103e-03
3.3999999999999959e+00 +8.2846803658349888e+00 +0.0000000000000000e+00 +3.3999999799656133e+00 -2.9183292846565990e-02 -5.2498307707248915e-01 +5.2893375472296061e-03
3.4499999999999957e+00 +8.2846708934043161e+00 +0.0000000000000000e+00 +3.4499999790683278e+00 -2.9184474533513530e-02 -5.2500556773810880e-01 +5.2883976622791215e-03
3.4999999999999956e+00 +8.2846612825519745e+00 +0.0000000000000000e+00 +3.4999999781446269e+00 -2.9185674856923194e-02 -5.2502835658150770e-01 +5.2874652358518848e-03
3.5499999999999954e+00 +8.2846515332719566e+00 +0.0000000000000000e+00 +3.5499999771941262e+00 -2.9186893729750030e-02 -5.2505144166805451e-01 +5.2865403802410046e-03
3.5999999999999952e+00 +8.2846416455581746e+00 +0.0000000000000000e+00 +3.5999999762164414e+00 -2.9188131064948927e-02 -5.2507482106312697e-01 +5.2856232077403984e-03
3.6499999999999950e+00 +8.2846316194044647e+00 +0.0000000000000000e+00 +3.6499999752111880e+00 -2.9189386775474436e-02 -5.2509849283210863e-01 +5.2847138306447855e-03
3.6999999999999948e+00 +8.2846214548045864e+00 +0.0000000000000000e+00 +3.6999999741779810e+00 -2.9190660774280869e-02 -5.2512245504039134e-01 +5.2838123612497043e-03
3.7499999999999947e+00 +8.2846111517522214e+00 +0.0000000000000000e+00 +3.7499999731164362e+00 -2.9191952974322144e-02 -5.2514670575337308e-01 +5.2829189118515215e-03
3.7999999999999945e+00 +8.2846007102409764e+00 +0.0000000000000000e+00 +3.7999999720261686e+00 -2.9193263288551829e-02 -5.2517124303646023e-01 +5.2820335947474451e-03
3.8499999999999943e+00 +8.2845901302643803e+00 +0.0000000000000000e+00 +3.8499999709067936e+00 -2.9194591629923008e-02 -5.2519606495506388e-01 +5.2811565222355278e-03
3.8999999999999941e+00 +8.2845794118158906e+00 +0.0000000000000000e+00 +3.8999999697579262e+00 -2.9195937911388300e-02 -5.2522116957460352e-01 +5.2802878066146889e-03
3.9499999999999940e+00 +8.2845685548888888e+00 +0.0000000000000000e+00 +3.9499999685791813e+00 -2.9197302045899799e-02 -5.2524655496050365e-01 +5.2794275601847091e-03
3.9999999999999938e+00 +8.2845575594766796e+00 +0.0000000000000000e+00 +3.9999999673701745e+00 -2.9198683946409017e-02 -5.2527221917819611e-01 +5.2785758952462545e-03
4.0499999999999936e+00 +8.2845464255724988e+00 +0.0000000000000000e+00 +4.0499999661305202e+00 -2.9200083517011043e-02 -5.2529816015931330e-01 +5.2777329230334884e-03
4.0999999999999934e+00 +8.2845351531695073e+00 +0.0000000000000000e+00 +4.0999999648598333e+00 -2.9201500626377257e-02 -5.2532437530027576e-01 +5.2768987505118553e-03
4.1499999999999932e+00 +8.2845237422607916e+00 +0.0000000000000000e+00 +4.1499999635577289e+00 -2.9202935134322962e-02 -5.2535086186370139e-01 +5.2760734835802124e-03
4.1999999999999931e+00 +8.2845121928393688e+00 +0.0000000000000000e+00 +4.1999999622238215e+00 -2.9204386900663293e-02 -5.2537761711221087e-01 +5.2752572281382212e-03
4.2499999999999929e+00 +8.2845005048981850e+00 +0.0000000000000000e+00 +4.2499999608577257e+00 -2.9205855785213085e-02 -5.2540463830842588e-01 +5.2744500900863689e-03
4.2999999999999927e+00 +8.2844886784301170e+00 +0.0000000000000000e+00 +4.2999999594590559e+00 -2.9207341647786968e-02 -5.2543192271497008e-01 +5.2736521753259527e-03
4.3499999999999925e+00 +8.2844767134279707e+00 +0.0000000000000000e+00 +4.3499999580274267e+00 -2.9208844348199245e-02 -5.2545946759446893e-01 +5.2728635897591122e-03
4.3999999999999924e+00 +8.2844646098844841e+00 +0.0000000000000000e+00 +4.3999999565624526e+00 -2.9210363746263880e-02 -5.2548727020954822e-01 +5.2720844392888083e-03
4.4499999999999922e+00 +8.2844523677923263e+00 +0.0000000000000000e+00 +4.4499999550637481e+00 -2.9211899701794494e-02 -5.2551532782283483e-01 +5.2713148298188552e-03
4.4999999999999920e+00 +8.2844399871441006e+00 +0.0000000000000000e+00 +4.4999999535309279e+00 -2.9213452074604358e-02 -5.2554363769695622e-01 +5.2705548672539139e-03
4.5499999999999918e+00 +8.2844274679323426e+00 +0.0000000000000000e+00 +4.5499999519636054e+00 -2.9215020724506258e-02 -5.2557219709453951e-01 +5.2698046574995005e-03
4.5999999999999917e+00 +8.2844148101495225e+00 +0.0000000000000000e+00 +4.5999999503613944e+00 -2.9216605511312582e-02 -5.2560100327821258e-01 +5.2690643064620011e-03
4.6499999999999915e+00 +8.2844020137880445e+00 +0.0000000000000000e+00 +4.6499999487239094e+00 -2.9218206294835247e-02 -5.2563005351060277e-01 +5.2683339200486658e-03
4.6999999999999913e+00 +8.2843890788402508e+00 +0.0000000000000000e+00 +4.6999999470507650e+00 -2.9219822934885654e-02 -5.2565934505433654e-01 +5.2676136041676256e-03
4.7499999999999911e+00 +8.2843760052984177e+00 +0.0000000000000000e+00 +4.7499999453415738e+00 -2.9221455291274668e-02 -5.2568887517203922e-01 +5.2669034647278967e-03
4.7999999999999909e+00 +8.2843627931547612e+00 +0.0000000000000000e+00 +4.7999999435959504e+00 -2.9223103223812615e-02 -5.2571864112633593e-01 +5.2662036076393881e-03
4.8499999999999908e+00 +8.2843494424014317e+00 +0.0000000000000000e+00 +4.8499999418135085e+00 -2.9224766592309201e-02 -5.2574864017984935e-01 +5.2655141388128993e-03
4.8999999999999906e+00 +8.2843359530305207e+00 +0.0000000000000000e+00 +4.8999999399938607e+00 -2.9226445256573547e-02 -5.2577886959520137e-01 +5.2648351641601480e-03
4.9499999999999904e+00 +8.2843223250340579e+00 +0.0000000000000000e+00 +4.9499999381366218e+00 -2.9228139076414091e-02 -5.2580932663501112e-01 +5.2641667895937565e-03
4.9999999999999902e+00 +8.2843085584040139e+00 +0.0000000000000000e+00 +4.9999999362414043e+00 -2.9229847911638615e-02 -5.2584000856189583e-01 +5.2635091210272685e-03
5.0499999999999901e+00 +8.2842946531322976e+00 +0.0000000000000000e+00 +5.0499999343078228e+00 -2.9231571622054177e-02 -5.2587091263847052e-01 +5.2628622643751521e-03
5.0999999999999899e+00 +8.2842806092107626e+00 +0.0000000000000000e+00 +5.0999999323354892e+00 -2.9233310067467128e-02 -5.2590203612734698e-01 +5.2622263255528148e-03
5.1499999999999897e+00 +8.2842664266312038e+00 +0.0000000000000000e+00 +5.1499999303240171e+00 -2.9235063107683021e-02 -5.2593337629113379e-01 +5.2616014104765983e-03
5.1999999999999895e+00 +8.2842521053853559e+00 +0.0000000000000000e+00 +5.1999999282730203e+00 -2.9236830602506623e-02 -5.2596493039243697e-01 +5.2609876250637923e-03
5.2499999999999893e+00 +8.2842376454649020e+00 +0.0000000000000000e+00 +5.2499999261821113e+00 -2.9238612411741881e-02 -5.2599669569385821e-01 +5.2603850752326467e-03
5.2999999999999892e+00 +8.2842230468614666e+00 +0.0000000000000000e+00 +5.2999999240509030e+00 -2.9240408395191889e-02 -5.2602866945799553e-01 +5.2597938669023672e-03
5.3499999999999890e+00 +8.2842083095666190e+00 +0.0000000000000000e+00 +5.3499999218790082e+00 -2.9242218412658855e-02 -5.2606084894744276e-01 +5.2592141059931248e-03
5.3999999999999888e+00 +8.2841934335718754e+00 +0.0000000000000000e+00 +5.3999999196660395e+00 -2.9244042323944060e-02 -5.2609323142478970e-01 +5.2586458984260733e-03
5.4499999999999886e+00 +8.2841784188686969e+00 +0.0000000000000000e+00 +5.4499999174116107e+00 -2.9245879988847874e-02 -5.2612581415262050e-01 +5.2580893501233458e-03
5.4999999999999885e+00 +8.2841632654484947e+00 +0.0000000000000000e+00 +5.4999999151153336e+00 -2.9247731267169657e-02 -5.2615859439351531e-01 +5.2575445670080614e-03
5.5499999999999883e+00 +8.2841479733026251e+00 +0.0000000000000000e+00 +5.5499999127768200e+00 -2.9249596018707812e-02 -5.2619156941004830e-01 +5.2570116550043414e-03
5.5999999999999881e+00 +8.2841325424223946e+00 +0.0000000000000000e+00 +5.5999999103956837e+00 -2.9251474103259678e-02 -5.2622473646478918e-01 +5.2564907200373032e-03
5.6499999999999879e+00 +8.2841169727990582e+00 +0.0000000000000000e+00 +5.6499999079715355e+00 -2.9253365380621531e-02 -5.2625809282030045e-01 +5.2559818680330784e-03
5.6999999999999877e+00 +8.2841012644238230e+00 +0.0000000000000000e+00 +5.6999999055039892e+00 -2.9255269710588571e-02 -5.2629163573913951e-01 +5.2554852049188153e-03
5.7499999999999876e+00 +8.2840854172878444e+00 +0.0000000000000000e+00 +5.7499999029926556e+00 -2.9257186952954897e-02 -5.2632536248385686e-01 +5.2550008366226879e-03
5.7999999999999874e+00 +8.2840694313822301e+00 +0.0000000000000000e+00 +5.7999999004371476e+00 -2.9259116967513418e-02 -5.2635927031699636e-01 +5.2545288690738897e-03
5.8499999999999872e+00 +8.2840533066980395e+00 +0.0000000000000000e+00 +5.8499998978370771e+00 -2.9261059614055895e-02 -5.2639335650109587e-01 +5.2540694082026697e-03
5.8999999999999870e+00 +8.2840370432262862e+00 +0.0000000000000000e+00 +5.8999998951920558e+00 -2.9263014752372880e-02 -5.2642761829868490e-01 +5.2536225599403080e-03
