# field on trajectory
# s[mm] rx[mm] ry[mm] rz[mm] bx[T] by[T] bz[T]
0.0000000000000000e+00 +8.2850000000000001e+00 +0.0000000000000000e+00 +0.0000000000000000e+00 -2.8568216688183056e-02 -5.5546133795234964e-01 +5.8339476783138191e-03
-5.0000000000000003e-02 +8.2849999309184561e+00 +0.0000000000000000e+00 -4.9999999999936373e-02 -2.8568475832475244e-02 -5.5545976918276152e-01 +5.8339275114679713e-03
-1.0000000000000001e-01 +8.2849997236740709e+00 +0.0000000000000000e+00 -9.9999999999490968e-02 -2.8568757147670834e-02 -5.5545857457075443e-01 +5.8339057829745059e-03
-1.5000000000000002e-01 +8.2849993782671412e+00 +0.0000000000000000e+00 -1.4999999999828201e-01 -2.8569060586381711e-02 -5.5545775357977156e-01 +5.8338825001706830e-03
-2.0000000000000001e-01 +8.2849988946978712e+00 +0.0000000000000000e+00 -1.9999999999592771e-01 -2.8569386101220708e-02 -5.5545730567327134e-01 +5.8338576703935953e-03
-2.5000000000000000e-01 +8.2849982729663711e+00 +0.0000000000000000e+00 -2.4999999999204631e-01 -2.8569733644801601e-02 -5.5545723031472705e-01 +5.8338313009801655e-03
-2.9999999999999999e-01 +8.2849975130726623e+00 +0.0000000000000000e+00 -2.9999999998625598e-01 -2.8570103169739205e-02 -5.5545752696762973e-01 +5.8338033992671639e-03
-3.4999999999999998e-01 +8.2849966150166683e+00 +0.0000000000000000e+00 -3.4999999997817505e-01 -2.8570494628649246e-02 -5.5545819509548422e-01 +5.8337739725911860e-03
-3.9999999999999997e-01 +8.2849955787982239e+00 +0.0000000000000000e+00 -3.9999999996742164e-01 -2.8570907974148445e-02 -5.5545923416181286e-01 +5.8337430282886862e-03
-4.4999999999999996e-01 +8.2849944044170716e+00 +0.0000000000000000e+00 -4.4999999995361400e-01 -2.8571343158854470e-02 -5.5546064363015268e-01 +5.8337105736959516e-03
-4.9999999999999994e-01 +8.2849930918728596e+00 +0.0000000000000000e+00 -4.9999999993637040e-01 -2.8571800135385989e-02 -5.5546242296405668e-01 +5.8336766161491199e-03
-5.4999999999999993e-01 +8.2849916411651456e+00 +0.0000000000000000e+00 -5.4999999991530890e-01 -2.8572278856362598e-02 -5.5546457162709462e-01 +5.8336411629841727e-03
-5.9999999999999998e-01 +8.2849900522933950e+00 +0.0000000000000000e+00 -5.9999999989004782e-01 -2.8572779274404877e-02 -5.5546708908285125e-01 +5.8336042215369486e-03
-6.5000000000000002e-01 +8.2849883252569825e+00 +0.0000000000000000e+00 -6.4999999986020540e-01 -2.8573301342134372e-02 -5.5546997479492710e-01 +5.8335657991431377e-03
-7.0000000000000007e-01 +8.2849864600551903e+00 +0.0000000000000000e+00 -6.9999999982539973e-01 -2.8573845012173565e-02 -5.5547322822693890e-01 +5.8335259031382812e-03
-7.5000000000000011e-01 +8.2849844566872086e+00 +0.0000000000000000e+00 -7.4999999978524901e-01 -2.8574410237145961e-02 -5.5547684884251991e-01 +5.8334845408577821e-03
-8.0000000000000016e-01 +8.2849823151521367e+00 +0.0000000000000000e+00 -7.9999999973937141e-01 -2.8574996969675952e-02 -5.5548083610531862e-01 +5.8334417196369021e-03
-8.5000000000000020e-01 +8.2849800354489833e+00 +0.0000000000000000e+00 -8.4999999968738504e-01 -2.8575605162388940e-02 -5.5548518947899894e-01 +5.8333974468107565e-03
-9.0000000000000024e-01 +8.2849776175766650e+00 +0.0000000000000000e+00 -8.9999999962890809e-01 -2.8576234767911268e-02 -5.5548990842724166e-01 +5.8333517297143381e-03
-9.5000000000000029e-01 +8.2849750615340092e+00 +0.0000000000000000e+00 -9.4999999956355863e-01 -2.8576885738870236e-02 -5.5549499241374345e-01 +5.8333045756824966e-03
-1.0000000000000002e+00 +8.2849723673197495e+00 +0.0000000000000000e+00 -9.9999999949095475e-01 -2.8577558027894110e-02 -5.5550044090221617e-01 +5.8332559920499516e-03
-1.0500000000000003e+00 +8.2849695349325323e+00 +0.0000000000000000e+00 -1.0499999994107148e+00 -2.8578251587612107e-02 -5.5550625335638837e-01 +5.8332059861512962e-03
-1.1000000000000003e+00 +8.2849665643709116e+00 +0.0000000000000000e+00 -1.0999999993224565e+00 -2.8578966370654407e-02 -5.5551242924000455e-01 +5.8331545653209881e-03
-1.1500000000000004e+00 +8.2849634556333509e+00 +0.0000000000000000e+00 -1.1499999992257981e+00 -2.8579702329652137e-02 -5.5551896801682465e-01 +5.8331017368933669e-03
-1.2000000000000004e+00 +8.2849602087182248e+00 +0.0000000000000000e+00 -1.1999999991203576e+00 -2.8580459417237379e-02 -5.5552586915062530e-01 +5.8330475082026484e-03
-1.2500000000000004e+00 +8.2849568236238156e+00 +0.0000000000000000e+00 -1.2499999990057531e+00 -2.8581237586043189e-02 -5.5553313210519850e-01 +5.8329918865829243e-03
-1.3000000000000005e+00 +8.2849533003483167e+00 +0.0000000000000000e+00 -1.2999999988816024e+00 -2.8582036788703531e-02 -5.5554075634435329e-01 +5.8329348793681682e-03
-1.3500000000000005e+00 +8.2849496388898327e+00 +0.0000000000000000e+00 -1.3499999987475237e+00 -2.8582856977853364e-02 -5.5554874133191356e-01 +5.8328764938922421e-03
-1.4000000000000006e+00 +8.2849458392463760e+00 +0.0000000000000000e+00 -1.3999999986031348e+00 -2.8583698106128593e-02 -5.5555708653171998e-01 +5.8328167374888853e-03
-1.4500000000000006e+00 +8.2849419014158716e+00 +0.0000000000000000e+00 -1.4499999984480538e+00 -2.8584560126166021e-02 -5.5556579140762874e-01 +5.8327556174917281e-03
-1.5000000000000007e+00 +8.2849378253961561e+00 +0.0000000000000000e+00 -1.4999999982818986e+00 -2.8585442990603480e-02 -5.5557485542351326e-01 +5.8326931412342959e-03
-1.5500000000000007e+00 +8.2849336111849734e+00 +0.0000000000000000e+00 -1.5499999981042869e+00 -2.8586346652079705e-02 -5.5558427804326171e-01 +5.8326293160499984e-03
-1.6000000000000008e+00 +8.2849292587799788e+00 +0.0000000000000000e+00 -1.5999999979148367e+00 -2.8587271063234387e-02 -5.5559405873077883e-01 +5.8325641492721469e-03
-1.6500000000000008e+00 +8.2849247681787404e+00 +0.0000000000000000e+00 -1.6499999977131659e+00 -2.8588216176708151e-02 -5.5560419694998608e-01 +5.8324976482339421e-03
-1.7000000000000008e+00 +8.2849201393787375e+00 +0.0000000000000000e+00 -1.6999999974988920e+00 -2.8589181945142580e-02 -5.5561469216482007e-01 +5.8324298202684852e-03
-1.7500000000000009e+00 +8.2849153723773590e+00 +0.0000000000000000e+00 -1.7499999972716329e+00 -2.8590168321180210e-02 -5.5562554383923457e-01 +5.8323606727087836e-03
-1.8000000000000009e+00 +8.2849104671719047e+00 +0.0000000000000000e+00 -1.7999999970310065e+00 -2.8591175257464518e-02 -5.5563675143719859e-01 +5.8322902128877434e-03
-1.8500000000000010e+00 +8.2849054237595876e+00 +0.0000000000000000e+00 -1.8499999967766305e+00 -2.8592202706639914e-02 -5.5564831442269769e-01 +5.8322184481381734e-03
-1.9000000000000010e+00 +8.2849002421375317e+00 +0.0000000000000000e+00 -1.8999999965081225e+00 -2.8593250621351752e-02 -5.5566023225973382e-01 +5.8321453857927957e-03
-1.9500000000000011e+00 +8.2848949223027724e+00 +0.0000000000000000e+00 -1.9499999962251000e+00 -2.8594318954246356e-02 -5.5567250441232485e-01 +5.8320710331842369e-03
-2.0000000000000009e+00 +8.2848894642522577e+00 +0.0000000000000000e+00 -1.9999999959271808e+00 -2.8595407657970941e-02 -5.5568513034450495e-01 +5.8319953976450388e-03
-2.0500000000000007e+00 +8.2848838679828471e+00 +0.0000000000000000e+00 -2.0499999956139825e+00 -2.8596516659608377e-02 -5.5569810931832297e-01 +5.8319184907139514e-03
-2.1000000000000005e+00 +8.2848781334913131e+00 +0.0000000000000000e+00 -2.0999999952851227e+00 -2.8597645783981183e-02 -5.5571143978783721e-01 +5.8318403407548727e-03
-2.1500000000000004e+00 +8.2848722607743390e+00 +0.0000000000000000e+00 -2.1499999949402189e+00 -2.8598794830347340e-02 -5.5572512000511853e-01 +5.8317609803380027e-03
-2.2000000000000002e+00 +8.2848662498285215e+00 +0.0000000000000000e+00 -2.1999999945788882e+00 -2.8599963597965617e-02 -5.5573914822225079e-01 +5.8316804420335483e-03
-2.2500000000000000e+00 +8.2848601006503717e+00 +0.0000000000000000e+00 -2.2499999942007483e+00 -2.8601151886095542e-02 -5.5575352269133205e-01 +5.8315987584117322e-03
-2.2999999999999998e+00 +8.2848538132363156e+00 +0.0000000000000000e+00 -2.2999999938054168e+00 -2.8602359493997458e-02 -5.5576824166447270e-01 +5.8315159620428072e-03
-2.3499999999999996e+00 +8.2848473875826905e+00 +0.0000000000000000e+00 -2.3499999933925104e+00 -2.8603586220932439e-02 -5.5578330339379722e-01 +5.8314320854970609e-03
-2.3999999999999995e+00 +8.2848408236857516e+00 +0.0000000000000000e+00 -2.3999999929616469e+00 -2.8604831866162330e-02 -5.5579870613144178e-01 +5.8313471613448201e-03
-2.4499999999999993e+00 +8.2848341215416674e+00 +0.0000000000000000e+00 -2.4499999925124434e+00 -2.8606096228949694e-02 -5.5581444812955727e-01 +5.8312612221564581e-03
-2.4999999999999991e+00 +8.2848272811465211e+00 +0.0000000000000000e+00 -2.4999999920445175e+00 -2.8607379108557845e-02 -5.5583052764030572e-01 +5.8311743005024013e-03
-2.5499999999999989e+00 +8.2848203024963141e+00 +0.0000000000000000e+00 -2.5499999915574860e+00 -2.8608680304250813e-02 -5.5584694291586223e-01 +5.8310864289531465e-03
-2.5999999999999988e+00 +8.2848131855869642e+00 +0.0000000000000000e+00 -2.5999999910509661e+00 -2.8609999615293365e-02 -5.5586369220841447e-01 +5.8309976400792475e-03
-2.6499999999999986e+00 +8.2848059304143042e+00 +0.0000000000000000e+00 -2.6499999905245750e+00 -2.8611336840950945e-02 -5.5588077377016210e-01 +5.8309079664513449e-03
-2.6999999999999984e+00 +8.2847985369740851e+00 +0.0000000000000000e+00 -2.6999999899779294e+00 -2.8612691780489703e-02 -5.5589818585331763e-01 +5.8308174406401618e-03
-2.7499999999999982e+00 +8.2847910052619778e+00 +0.0000000000000000e+00 -2.7499999894106466e+00 -2.8614064233176476e-02 -5.5591592671010459e-01 +5.8307260952165062e-03
-2.7999999999999980e+00 +8.2847833352735680e+00 +0.0000000000000000e+00 -2.7999999888223432e+00 -2.8615453998278799e-02 -5.5593399459275894e-01 +5.8306339627512910e-03
-2.8499999999999979e+00 +8.2847755270043617e+00 +0.0000000000000000e+00 -2.8499999882126366e+00 -2.8616860875064848e-02 -5.5595238775352862e-01 +5.8305410758155334e-03
-2.8999999999999977e+00 +8.2847675804497847e+00 +0.0000000000000000e+00 -2.8999999875811433e+00 -2.8618284662803473e-02 -5.5597110444467224e-01 +5.8304474669803553e-03
-2.9499999999999975e+00 +8.2847594956051811e+00 +0.0000000000000000e+00 -2.9499999869274802e+00 -2.8619725160764168e-02 -5.5599014291846116e-01 +5.8303531688170132e-03
-2.9999999999999973e+00 +8.2847512724658152e+00 +0.0000000000000000e+00 -2.9999999862512641e+00 -2.8621182168217074e-02 -5.5600950142717709e-01 +5.8302582138968799e-03
-3.0499999999999972e+00 +8.2847429110268731e+00 +0.0000000000000000e+00 -3.0499999855521116e+00 -2.8622655484432977e-02 -5.5602917822311282e-01 +5.8301626347914658e-03
-3.0999999999999970e+00 +8.2847344112834591e+00 +0.0000000000000000e+00 -3.0999999848296391e+00 -2.8624144908683251e-02 -5.5604917155857303e-01 +5.8300664640724186e-03
-3.1499999999999968e+00 +8.2847257732306012e+00 +0.0000000000000000e+00 -3.1499999840834634e+00 -2.8625650240239931e-02 -5.5606947968587261e-01 +5.8299697343115473e-03
-3.1999999999999966e+00 +8.2847169968632475e+00 +0.0000000000000000e+00 -3.1999999833132011e+00 -2.8627171278375618e-02 -5.5609010085733757e-01 +5.8298724780808039e-03
-3.2499999999999964e+00 +8.2847080821762695e+00 +0.0000000000000000e+00 -3.2499999825184687e+00 -2.8628707822363521e-02 -5.5611103332530365e-01 +5.8297747279523080e-03
-3.2999999999999963e+00 +8.2846990291644609e+00 +0.0000000000000000e+00 -3.2999999816988823e+00 -2.8630259671477441e-02 -5.5613227534211884e-01 +5.8296765164983517e-03
-3.3499999999999961e+00 +8.2846898378225369e+00 +0.0000000000000000e+00 -3.3499999808540588e+00 -2.8631826624991776e-02 -5.5615382516013989e-01 +5.8295778762914056e-03
-3.3999999999999959e+00 +8.2846805081451382e+00 +0.0000000000000000e+00 -3.3999999799836140e+00 -2.8633408482181450e-02 -5.5617568103173409e-01 +5.8294788399041193e-03
-3.4499999999999957e+00 +8.2846710401268275e+00 +0.0000000000000000e+00 -3.4499999790871643e+00 -2.8635005042321963e-02 -5.5619784120927918e-01 +5.8293794399093390e-03
-3.4999999999999956e+00 +8.2846614337620945e+00 +0.0000000000000000e+00 -3.4999999781643258e+00 -2.8636616104689379e-02 -5.5622030394516231e-01 +5.8292797088801132e-03
-3.5499999999999954e+00 +8.2846516890453508e+00 +0.0000000000000000e+00 -3.5499999772147146e+00 -2.8638241468560300e-02 -5.5624306749178143e-01 +5.8291796793896898e-03
-3.5999999999999952e+00 +8.2846418059709350e+00 +0.0000000000000000e+00 -3.5999999762379469e+00 -2.8639880933211844e-02 -5.5626613010154236e-01 +5.8290793840115405e-03
-3.6499999999999950e+00 +8.2846317845331114e+00 +0.0000000000000000e+00 -3.6499999752336385e+00 -2.8641534297921652e-02 -5.5628949002686212e-01 +5.8289788553193443e-03
-3.6999999999999948e+00 +8.2846216247260696e+00 +0.0000000000000000e+00 -3.6999999742014058e+00 -2.8643201361967900e-02 -5.5631314552016631e-01 +5.8288781258870265e-03
-3.7499999999999947e+00 +8.2846113265439243e+00 +0.0000000000000000e+00 -3.7499999731408642e+00 -2.8644881924629276e-02 -5.5633709483388960e-01 +5.8287772282887276e-03
-3.7999999999999945e+00 +8.2846008899807195e+00 +0.0000000000000000e+00 -3.7999999720516295e+00 -2.8646575785184911e-02 -5.5636133622047623e-01 +5.8286761950988456e-03
-3.8499999999999943e+00 +8.2845903150304245e+00 +0.0000000000000000e+00 -3.8499999709333177e+00 -2.8648282742914467e-02 -5.5638586793237910e-01 +5.8285750588920248e-03
-3.8999999999999941e+00 +8.2845796016869393e+00 +0.0000000000000000e+00 -3.8999999697855445e+00 -2.8650002597098077e-02 -5.5641068822205986e-01 +5.8284738522431682e-03
-3.9499999999999940e+00 +8.2845687499440892e+00 +0.0000000000000000e+00 -3.9499999686079255e+00 -2.8651735147016331e-02 -5.5643579534198873e-01 +5.8283726077274361e-03
-3.9999999999999938e+00 +8.2845577597956304e+00 +0.0000000000000000e+00 -3.9999999674000759e+00 -2.8653480191950284e-02 -5.5646118754464480e-01 +5.8282713579202727e-03
-4.0499999999999936e+00 +8.2845466312352460e+00 +0.0000000000000000e+00 -4.0499999661616117e+00 -2.8655237547292139e-02 -5.5648686294664318e-01 +5.8281701339308375e-03
-4.0999999999999934e+00 +8.2845353642565502e+00 +0.0000000000000000e+00 -4.0999999648921479e+00 -2.8657007092876906e-02 -5.5651281912111528e-01 +5.8280689610022878e-03
-4.1499999999999932e+00 +8.2845239588530859e+00 +0.0000000000000000e+00 -4.1499999635912994e+00 -2.8658788724649342e-02 -5.5653905350532318e-01 +5.8279678629112206e-03
-4.1999999999999931e+00 +8.2845124150183285e+00 +0.0000000000000000e+00 -4.1999999622586826e+00 -2.8660582338552960e-02 -5.5656556353653253e-01 +5.8278668634342166e-03
-4.2499999999999929e+00 +8.2845007327456841e+00 +0.0000000000000000e+00 -4.2499999608939119e+00 -2.8662387830530021e-02 -5.5659234665201107e-01 +5.8277659863478276e-03
-4.2999999999999927e+00 +8.2844889120284915e+00 +0.0000000000000000e+00 -4.2999999594966019e+00 -2.8664205096521417e-02 -5.5661940028902956e-01 +5.8276652554285725e-03
-4.3499999999999925e+00 +8.2844769528600217e+00 +0.0000000000000000e+00 -4.3499999580663689e+00 -2.8666034032466689e-02 -5.5664672188486120e-01 +5.8275646944529538e-03
-4.3999999999999924e+00 +8.2844648552334785e+00 +0.0000000000000000e+00 -4.3999999566028274e+00 -2.8667874534303885e-02 -5.5667430887677993e-01 +5.8274643271974272e-03
-4.4499999999999922e+00 +8.2844526191419998e+00 +0.0000000000000000e+00 -4.4499999551055920e+00 -2.8669726497969599e-02 -5.5670215870206230e-01 +5.8273641774384249e-03
-4.4999999999999920e+00 +8.2844402445786578e+00 +0.0000000000000000e+00 -4.4999999535742781e+00 -2.8671589819398810e-02 -5.5673026879798637e-01 +5.8272642689523348e-03
-4.5499999999999918e+00 +8.2844277315364625e+00 +0.0000000000000000e+00 -4.5499999520085002e+00 -2.8673464394524905e-02 -5.5675863660182989e-01 +5.8271646255155067e-03
-4.5999999999999917e+00 +8.2844150800083565e+00 +0.0000000000000000e+00 -4.5999999504078728e+00 -2.8675350119279575e-02 -5.5678725955087305e-01 +5.8270652709042497e-03
-4.6499999999999915e+00 +8.2844022899872218e+00 +0.0000000000000000e+00 -4.6499999487720105e+00 -2.8677246889592778e-02 -5.5681613508239525e-01 +5.8269662288948339e-03
-4.6999999999999913e+00 +8.2843893614658750e+00 +0.0000000000000000e+00 -4.6999999471005278e+00 -2.8679154601392670e-02 -5.5684526063367668e-01 +5.8268675232634702e-03
-4.7499999999999911e+00 +8.2843762944370720e+00 +0.0000000000000000e+00 -4.7499999453930393e+00 -2.8681073150605578e-02 -5.5687463364199719e-01 +5.8267691777863376e-03
-4.7999999999999909e+00 +8.2843630888935067e+00 +0.0000000000000000e+00 -4.7999999436491594e+00 -2.8683002433155892e-02 -5.5690425154463630e-01 +5.8266712162395448e-03
-4.8499999999999908e+00 +8.2843497448278125e+00 +0.0000000000000000e+00 -4.8499999418685027e+00 -2.8684942344966050e-02 -5.5693411177887298e-01 +5.8265736623991666e-03
-4.8999999999999906e+00 +8.2843362622325625e+00 +0.0000000000000000e+00 -4.8999999400506828e+00 -2.8686892781956443e-02 -5.5696421178198496e-01 +5.8264765400412085e-03
-4.9499999999999904e+00 +8.2843226411002693e+00 +0.0000000000000000e+00 -4.9499999381953144e+00 -2.8688853640045392e-02 -5.5699454899124889e-01 +5.8263798729416222e-03
-4.9999999999999902e+00 +8.2843088814233869e+00 +0.0000000000000000e+00 -4.9999999363020109e+00 -2.8690824815149073e-02 -5.5702512084393996e-01 +5.8262836848762996e-03
-5.0499999999999901e+00 +8.2842949831943127e+00 +0.0000000000000000e+00 -5.0499999343703870e+00 -2.8692806203181473e-02 -5.5705592477733124e-01 +5.8261879996210691e-03
-5.0999999999999899e+00 +8.2842809464053833e+00 +0.0000000000000000e+00 -5.0999999324000562e+00 -2.8694797700054307e-02 -5.5708695822869403e-01 +5.8260928409516934e-03
-5.1499999999999897e+00 +8.2842667710488804e+00 +0.0000000000000000e+00 -5.1499999303906332e+00 -2.8696799201676986e-02 -5.5711821863529709e-01 +5.8259982326438718e-03
-5.1999999999999895e+00 +8.2842524571170273e+00 +0.0000000000000000e+00 -5.1999999283417306e+00 -2.8698810603956518e-02 -5.5714970343440662e-01 +5.8259041984732290e-03
-5.2499999999999893e+00 +8.2842380046019937e+00 +0.0000000000000000e+00 -5.2499999262529631e+00 -2.8700831802797529e-02 -5.5718141006328525e-01 +5.8258107622153193e-03
-5.2999999999999892e+00 +8.2842234134958943e+00 +0.0000000000000000e+00 -5.2999999241239433e+00 -2.8702862694102129e-02 -5.5721333595919331e-01 +5.8257179476456228e-03
-5.3499999999999890e+00 +8.2842086837907871e+00 +0.0000000000000000e+00 -5.3499999219542849e+00 -2.8704903173769870e-02 -5.5724547855938678e-01 +5.8256257785395428e-03
-5.3999999999999888e+00 +8.2841938154786767e+00 +0.0000000000000000e+00 -5.3999999197436015e+00 -2.8706953137697718e-02 -5.5727783530111819e-01 +5.8255342786724049e-03
-5.4499999999999886e+00 +8.2841788085515162e+00 +0.0000000000000000e+00 -5.4499999174915068e+00 -2.8709012481779980e-02 -5.5731040362163620e-01 +5.8254434718194494e-03
-5.4999999999999885e+00 +8.2841636630012037e+00 +0.0000000000000000e+00 -5.4999999151976136e+00 -2.8711081101908214e-02 -5.5734318095818403e-01 +5.8253533817558363e-03
-5.5499999999999883e+00 +8.2841483788195873e+00 +0.0000000000000000e+00 -5.5499999128615354e+00 -2.8713158893971254e-02 -5.5737616474800156e-01 +5.8252640322566359e-03
-5.5999999999999881e+00 +8.2841329559984622e+00 +0.0000000000000000e+00 -5.5999999104828850e+00 -2.8715245753855031e-02 -5.5740935242832279e-01 +5.8251754470968363e-03
-5.6499999999999879e+00 +8.2841173945295736e+00 +0.0000000000000000e+00 -5.6499999080612762e+00 -2.8717341577442618e-02 -5.5744274143637662e-01 +5.8250876500513292e-03
-5.6999999999999877e+00 +8.2841016944046171e+00 +0.0000000000000000e+00 -5.6999999055963206e+00 -2.8719446260614158e-02 -5.5747632920938694e-01 +5.8250006648949137e-03
-5.7499999999999876e+00 +8.2840858556152384e+00 +0.0000000000000000e+00 -5.7499999030876321e+00 -2.8721559699246734e-02 -5.5751011318457078e-01 +5.8249145154022951e-03
-5.7999999999999874e+00 +8.2840698781530335e+00 +0.0000000000000000e+00 -5.7999999005348233e+00 -2.8723681789214410e-02 -5.5754409079913969e-01 +5.8248292253480806e-03
-5.8499999999999872e+00 +8.2840537620095525e+00 +0.0000000000000000e+00 -5.8499998979375061e+00 -2.8725812426388077e-02 -5.5757825949029927e-01 +5.8247448185067769e-03
