# trajectory
# s[mm] rx[mm] ry[mm] rz[mm] px[rad] py[rad] pz[rad]
0.0000000000000000e+00 +8.2850000000000001e+00 +0.0000000000000000e+00 +0.0000000000000000e+00 +0.0000000000000000e+00 +0.0000000000000000e+00 +1.0000000000000000e+00
-5.0000000000000003e-02 +8.2849999309184561e+00 +0.0000000000000000e+00 -4.9999999999936373e-02 +2.7632604291808506e-06 +0.0000000000000000e+00 +9.9999999999618217e-01
-1.0000000000000001e-01 +8.2849997236740709e+00 +0.0000000000000000e+00 -9.9999999999490968e-02 +5.5265139850385457e-06 +0.0000000000000000e+00 +9.9999999998472877e-01
-1.5000000000000002e-01 +8.2849993782671412e+00 +0.0000000000000000e+00 -1.4999999999828201e-01 +8.2897625275464776e-06 +0.0000000000000000e+00 +9.9999999996563982e-01
-2.0000000000000001e-01 +8.2849988946978712e+00 +0.0000000000000000e+00 -1.9999999999592771e-01 +1.1053007914008854e-05 +0.0000000000000000e+00 +9.9999999993891542e-01
-2.5000000000000000e-01 +8.2849982729663711e+00 +0.0000000000000000e+00 -2.4999999999204631e-01 +1.3816251999060778e-05 +0.0000000000000000e+00 +9.9999999990455546e-01
-2.9999999999999999e-01 +8.2849975130726623e+00 +0.0000000000000000e+00 -2.9999999998625598e-01 +1.6579496634668328e-05 +0.0000000000000000e+00 +9.9999999986256005e-01
-3.4999999999999998e-01 +8.2849966150166683e+00 +0.0000000000000000e+00 -3.4999999997817505e-01 +1.9342743670128634e-05 +0.0000000000000000e+00 +9.9999999981292909e-01
-3.9999999999999997e-01 +8.2849955787982239e+00 +0.0000000000000000e+00 -3.9999999996742164e-01 +2.2105994952069951e-05 +0.0000000000000000e+00 +9.9999999975566245e-01
-4.4999999999999996e-01 +8.2849944044170716e+00 +0.0000000000000000e+00 -4.4999999995361400e-01 +2.4869252324451750e-05 +0.0000000000000000e+00 +9.9999999969076014e-01
-4.9999999999999994e-01 +8.2849930918728596e+00 +0.0000000000000000e+00 -4.9999999993637040e-01 +2.7632517628564786e-05 +0.0000000000000000e+00 +9.9999999961822195e-01
-5.4999999999999993e-01 +8.2849916411651456e+00 +0.0000000000000000e+00 -5.4999999991530890e-01 +3.0395792703031183e-05 +0.0000000000000000e+00 +9.9999999953804786e-01
-5.9999999999999998e-01 +8.2849900522933950e+00 +0.0000000000000000e+00 -5.9999999989004782e-01 +3.3159079383804508e-05 +0.0000000000000000e+00 +9.9999999945023765e-01
-6.5000000000000002e-01 +8.2849883252569825e+00 +0.0000000000000000e+00 -6.4999999986020540e-01 +3.5922379504169849e-05 +0.0000000000000000e+00 +9.9999999935479122e-01
-7.0000000000000007e-01 +8.2849864600551903e+00 +0.0000000000000000e+00 -6.9999999982539973e-01 +3.8685694894743906e-05 +0.0000000000000000e+00 +9.9999999925170835e-01
-7.5000000000000011e-01 +8.2849844566872086e+00 +0.0000000000000000e+00 -7.4999999978524901e-01 +4.1449027383475047e-05 +0.0000000000000000e+00 +9.9999999914098892e-01
-8.0000000000000016e-01 +8.2849823151521367e+00 +0.0000000000000000e+00 -7.9999999973937141e-01 +4.4212378795643415e-05 +0.0000000000000000e+00 +9.9999999902263259e-01
-8.5000000000000020e-01 +8.2849800354489833e+00 +0.0000000000000000e+00 -8.4999999968738504e-01 +4.6975750953860988e-05 +0.0000000000000000e+00 +9.9999999889663926e-01
-9.0000000000000024e-01 +8.2849776175766650e+00 +0.0000000000000000e+00 -8.9999999962890809e-01 +4.9739145678071656e-05 +0.0000000000000000e+00 +9.9999999876300849e-01
-9.5000000000000029e-01 +8.2849750615340092e+00 +0.0000000000000000e+00 -9.4999999956355863e-01 +5.2502564785551321e-05 +0.0000000000000000e+00 +9.9999999862174016e-01
-1.0000000000000002e+00 +8.2849723673197495e+00 +0.0000000000000000e+00 -9.9999999949095475e-01 +5.5266010090907950e-05 +0.0000000000000000e+00 +9.9999999847283383e-01
-1.0500000000000003e+00 +8.2849695349325323e+00 +0.0000000000000000e+00 -1.0499999994107148e+00 +5.8029483406081667e-05 +0.0000000000000000e+00 +9.9999999831628927e-01
-1.1000000000000003e+00 +8.2849665643709116e+00 +0.0000000000000000e+00 -1.0999999993224565e+00 +6.0792986540344842e-05 +0.0000000000000000e+00 +9.9999999815210616e-01
-1.1500000000000004e+00 +8.2849634556333509e+00 +0.0000000000000000e+00 -1.1499999992257981e+00 +6.3556521300302160e-05 +0.0000000000000000e+00 +9.9999999798028405e-01
-1.2000000000000004e+00 +8.2849602087182248e+00 +0.0000000000000000e+00 -1.1999999991203576e+00 +6.6320089489890679e-05 +0.0000000000000000e+00 +9.9999999780082260e-01
-1.2500000000000004e+00 +8.2849568236238156e+00 +0.0000000000000000e+00 -1.2499999990057531e+00 +6.9083692910379968e-05 +0.0000000000000000e+00 +9.9999999761372138e-01
-1.3000000000000005e+00 +8.2849533003483167e+00 +0.0000000000000000e+00 -1.2999999988816024e+00 +7.1847333360372122e-05 +0.0000000000000000e+00 +9.9999999741898005e-01
-1.3500000000000005e+00 +8.2849496388898327e+00 +0.0000000000000000e+00 -1.3499999987475237e+00 +7.4611012635801877e-05 +0.0000000000000000e+00 +9.9999999721659805e-01
-1.4000000000000006e+00 +8.2849458392463760e+00 +0.0000000000000000e+00 -1.3999999986031348e+00 +7.7374732529936674e-05 +0.0000000000000000e+00 +9.9999999700657505e-01
-1.4500000000000006e+00 +8.2849419014158716e+00 +0.0000000000000000e+00 -1.4499999984480538e+00 +8.0138494833376773e-05 +0.0000000000000000e+00 +9.9999999678891049e-01
-1.5000000000000007e+00 +8.2849378253961561e+00 +0.0000000000000000e+00 -1.4999999982818986e+00 +8.2902301334055283e-05 +0.0000000000000000e+00 +9.9999999656360383e-01
-1.5500000000000007e+00 +8.2849336111849734e+00 +0.0000000000000000e+00 -1.5499999981042869e+00 +8.5666153817238287e-05 +0.0000000000000000e+00 +9.9999999633065462e-01
-1.6000000000000008e+00 +8.2849292587799788e+00 +0.0000000000000000e+00 -1.5999999979148367e+00 +8.8430054065524876e-05 +0.0000000000000000e+00 +9.9999999609006229e-01
-1.6500000000000008e+00 +8.2849247681787404e+00 +0.0000000000000000e+00 -1.6499999977131659e+00 +9.1194003858847278e-05 +0.0000000000000000e+00 +9.9999999584182631e-01
-1.7000000000000008e+00 +8.2849201393787375e+00 +0.0000000000000000e+00 -1.6999999974988920e+00 +9.3958004974470892e-05 +0.0000000000000000e+00 +9.9999999558594610e-01
-1.7500000000000009e+00 +8.2849153723773590e+00 +0.0000000000000000e+00 -1.7499999972716329e+00 +9.6722059186994403e-05 +0.0000000000000000e+00 +9.9999999532242112e-01
-1.8000000000000009e+00 +8.2849104671719047e+00 +0.0000000000000000e+00 -1.7999999970310065e+00 +9.9486168268349845e-05 +0.0000000000000000e+00 +9.9999999505125070e-01
-1.8500000000000010e+00 +8.2849054237595876e+00 +0.0000000000000000e+00 -1.8499999967766305e+00 +1.0225033398780270e-04 +0.0000000000000000e+00 +9.9999999477243418e-01
-1.9000000000000010e+00 +8.2849002421375317e+00 +0.0000000000000000e+00 -1.8999999965081225e+00 +1.0501455811195194e-04 +0.0000000000000000e+00 +9.9999999448597088e-01
-1.9500000000000011e+00 +8.2848949223027724e+00 +0.0000000000000000e+00 -1.9499999962251000e+00 +1.0777884240473016e-04 +0.0000000000000000e+00 +9.9999999419186014e-01
-2.0000000000000009e+00 +8.2848894642522577e+00 +0.0000000000000000e+00 -1.9999999959271808e+00 +1.1054318862740360e-04 +0.0000000000000000e+00 +9.9999999389010130e-01
-2.0500000000000007e+00 +8.2848838679828471e+00 +0.0000000000000000e+00 -2.0499999956139825e+00 +1.1330759853832106e-04 +0.0000000000000000e+00 +9.9999999358069358e-01
-2.1000000000000005e+00 +8.2848781334913131e+00 +0.0000000000000000e+00 -2.0999999952851227e+00 +1.1607207389015044e-04 +0.0000000000000000e+00 +9.9999999326363631e-01
-2.1500000000000004e+00 +8.2848722607743390e+00 +0.0000000000000000e+00 -2.1499999949402189e+00 +1.1883661642711539e-04 +0.0000000000000000e+00 +9.9999999293892883e-01
-2.2000000000000002e+00 +8.2848662498285215e+00 +0.0000000000000000e+00 -2.1999999945788882e+00 +1.2160122788474413e-04 +0.0000000000000000e+00 +9.9999999260657024e-01
-2.2500000000000000e+00 +8.2848601006503717e+00 +0.0000000000000000e+00 -2.2499999942007483e+00 +1.2436590998986952e-04 +0.0000000000000000e+00 +9.9999999226655978e-01
-2.2999999999999998e+00 +8.2848538132363156e+00 +0.0000000000000000e+00 -2.2999999938054168e+00 +1.2713066446062908e-04 +0.0000000000000000e+00 +9.9999999191889666e-01
-2.3499999999999996e+00 +8.2848473875826905e+00 +0.0000000000000000e+00 -2.3499999933925104e+00 +1.2989549300646518e-04 +0.0000000000000000e+00 +9.9999999156357999e-01
-2.3999999999999995e+00 +8.2848408236857516e+00 +0.0000000000000000e+00 -2.3999999929616469e+00 +1.3266039732812493e-04 +0.0000000000000000e+00 +9.9999999120060901e-01
-2.4499999999999993e+00 +8.2848341215416674e+00 +0.0000000000000000e+00 -2.4499999925124434e+00 +1.3542537911766041e-04 +0.0000000000000000e+00 +9.9999999082998281e-01
-2.4999999999999991e+00 +8.2848272811465211e+00 +0.0000000000000000e+00 -2.4999999920445175e+00 +1.3819044005842864e-04 +0.0000000000000000e+00 +9.9999999045170063e-01
-2.5499999999999989e+00 +8.2848203024963141e+00 +0.0000000000000000e+00 -2.5499999915574860e+00 +1.4095558182509164e-04 +0.0000000000000000e+00 +9.9999999006576146e-01
-2.5999999999999988e+00 +8.2848131855869642e+00 +0.0000000000000000e+00 -2.5999999910509661e+00 +1.4372080608361654e-04 +0.0000000000000000e+00 +9.9999998967216441e-01
-2.6499999999999986e+00 +8.2848059304143042e+00 +0.0000000000000000e+00 -2.6499999905245750e+00 +1.4648611449127562e-04 +0.0000000000000000e+00 +9.9999998927090861e-01
-2.6999999999999984e+00 +8.2847985369740851e+00 +0.0000000000000000e+00 -2.6999999899779294e+00 +1.4925150869664637e-04 +0.0000000000000000e+00 +9.9999998886199304e-01
-2.7499999999999982e+00 +8.2847910052619778e+00 +0.0000000000000000e+00 -2.7499999894106466e+00 +1.5201699033961149e-04 +0.0000000000000000e+00 +9.9999998844541682e-01
-2.7999999999999980e+00 +8.2847833352735680e+00 +0.0000000000000000e+00 -2.7999999888223432e+00 +1.5478256105135911e-04 +0.0000000000000000e+00 +9.9999998802117884e-01
-2.8499999999999979e+00 +8.2847755270043617e+00 +0.0000000000000000e+00 -2.8499999882126366e+00 +1.5754822245438266e-04 +0.0000000000000000e+00 +9.9999998758927822e-01
-2.8999999999999977e+00 +8.2847675804497847e+00 +0.0000000000000000e+00 -2.8999999875811433e+00 +1.6031397616248107e-04 +0.0000000000000000e+00 +9.9999998714971394e-01
-2.9499999999999975e+00 +8.2847594956051811e+00 +0.0000000000000000e+00 -2.9499999869274802e+00 +1.6307982378075872e-04 +0.0000000000000000e+00 +9.9999998670248491e-01
-2.9999999999999973e+00 +8.2847512724658152e+00 +0.0000000000000000e+00 -2.9999999862512641e+00 +1.6584576690562559e-04 +0.0000000000000000e+00 +9.9999998624759012e-01
-3.0499999999999972e+00 +8.2847429110268731e+00 +0.0000000000000000e+00 -3.0499999855521116e+00 +1.6861180712479724e-04 +0.0000000000000000e+00 +9.9999998578502858e-01
-3.0999999999999970e+00 +8.2847344112834591e+00 +0.0000000000000000e+00 -3.0999999848296391e+00 +1.7137794601729492e-04 +0.0000000000000000e+00 +9.9999998531479917e-01
-3.1499999999999968e+00 +8.2847257732306012e+00 +0.0000000000000000e+00 -3.1499999840834634e+00 +1.7414418515344560e-04 +0.0000000000000000e+00 +9.9999998483690078e-01
-3.1999999999999966e+00 +8.2847169968632475e+00 +0.0000000000000000e+00 -3.1999999833132011e+00 +1.7691052609488205e-04 +0.0000000000000000e+00 +9.9999998435133231e-01
-3.2499999999999964e+00 +8.2847080821762695e+00 +0.0000000000000000e+00 -3.2499999825184687e+00 +1.7967697039454283e-04 +0.0000000000000000e+00 +9.9999998385809252e-01
-3.2999999999999963e+00 +8.2846990291644609e+00 +0.0000000000000000e+00 -3.2999999816988823e+00 +1.8244351959667237e-04 +0.0000000000000000e+00 +9.9999998335718043e-01
-3.3499999999999961e+00 +8.2846898378225369e+00 +0.0000000000000000e+00 -3.3499999808540588e+00 +1.8521017523682109e-04 +0.0000000000000000e+00 +9.9999998284859482e-01
-3.3999999999999959e+00 +8.2846805081451382e+00 +0.0000000000000000e+00 -3.3999999799836140e+00 +1.8797693884184535e-04 +0.0000000000000000e+00 +9.9999998233233456e-01
-3.4499999999999957e+00 +8.2846710401268275e+00 +0.0000000000000000e+00 -3.4499999790871643e+00 +1.9074381192990756e-04 +0.0000000000000000e+00 +9.9999998180839844e-01
-3.4999999999999956e+00 +8.2846614337620945e+00 +0.0000000000000000e+00 -3.4999999781643258e+00 +1.9351079601047621e-04 +0.0000000000000000e+00 +9.9999998127678524e-01
-3.5499999999999954e+00 +8.2846516890453508e+00 +0.0000000000000000e+00 -3.5499999772147146e+00 +1.9627789258432597e-04 +0.0000000000000000e+00 +9.9999998073749374e-01
-3.5999999999999952e+00 +8.2846418059709350e+00 +0.0000000000000000e+00 -3.5999999762379469e+00 +1.9904510314353759e-04 +0.0000000000000000e+00 +9.9999998019052272e-01
-3.6499999999999950e+00 +8.2846317845331114e+00 +0.0000000000000000e+00 -3.6499999752336385e+00 +2.0181242917149814e-04 +0.0000000000000000e+00 +9.9999997963587095e-01
-3.6999999999999948e+00 +8.2846216247260696e+00 +0.0000000000000000e+00 -3.6999999742014058e+00 +2.0457987214290096e-04 +0.0000000000000000e+00 +9.9999997907353722e-01
-3.7499999999999947e+00 +8.2846113265439243e+00 +0.0000000000000000e+00 -3.7499999731408642e+00 +2.0734743352374563e-04 +0.0000000000000000e+00 +9.9999997850352018e-01
-3.7999999999999945e+00 +8.2846008899807195e+00 +0.0000000000000000e+00 -3.7999999720516295e+00 +2.1011511477133822e-04 +0.0000000000000000e+00 +9.9999997792581852e-01
-3.8499999999999943e+00 +8.2845903150304245e+00 +0.0000000000000000e+00 -3.8499999709333177e+00 +2.1288291733429109e-04 +0.0000000000000000e+00 +9.9999997734043100e-01
-3.8999999999999941e+00 +8.2845796016869393e+00 +0.0000000000000000e+00 -3.8999999697855445e+00 +2.1565084265252313e-04 +0.0000000000000000e+00 +9.9999997674735630e-01
-3.9499999999999940e+00 +8.2845687499440892e+00 +0.0000000000000000e+00 -3.9499999686079255e+00 +2.1841889215725973e-04 +0.0000000000000000e+00 +9.9999997614659308e-01
-3.9999999999999938e+00 +8.2845577597956304e+00 +0.0000000000000000e+00 -3.9999999674000759e+00 +2.2118706727103279e-04 +0.0000000000000000e+00 +9.9999997553813991e-01
-4.0499999999999936e+00 +8.2845466312352460e+00 +0.0000000000000000e+00 -4.0499999661616117e+00 +2.2395536940751182e-04 +0.0000000000000000e+00 +9.9999997492199555e-01
-4.0999999999999934e+00 +8.2845353642565502e+00 +0.0000000000000000e+00 -4.0999999648921479e+00 +2.2672379996964520e-04 +0.0000000000000000e+00 +9.9999997429815857e-01
-4.1499999999999932e+00 +8.2845239588530859e+00 +0.0000000000000000e+00 -4.1499999635912994e+00 +2.2949236034780135e-04 +0.0000000000000000e+00 +9.9999997366662752e-01
-4.1999999999999931e+00 +8.2845124150183285e+00 +0.0000000000000000e+00 -4.1999999622586826e+00 +2.3226105191959977e-04 +0.0000000000000000e+00 +9.9999997302740107e-01
-4.2499999999999929e+00 +8.2845007327456841e+00 +0.0000000000000000e+00 -4.2499999608939119e+00 +2.3502987604991110e-04 +0.0000000000000000e+00 +9.9999997238047789e-01
-4.2999999999999927e+00 +8.2844889120284915e+00 +0.0000000000000000e+00 -4.2999999594966019e+00 +2.3779883409085709e-04 +0.0000000000000000e+00 +9.9999997172585642e-01
-4.3499999999999925e+00 +8.2844769528600217e+00 +0.0000000000000000e+00 -4.3499999580663689e+00 +2.4056792738181066e-04 +0.0000000000000000e+00 +9.9999997106353533e-01
-4.3999999999999924e+00 +8.2844648552334785e+00 +0.0000000000000000e+00 -4.3999999566028274e+00 +2.4333715724939579e-04 +0.0000000000000000e+00 +9.9999997039351307e-01
-4.4499999999999922e+00 +8.2844526191419998e+00 +0.0000000000000000e+00 -4.4499999551055920e+00 +2.4610652500748768e-04 +0.0000000000000000e+00 +9.9999996971578831e-01
-4.4999999999999920e+00 +8.2844402445786578e+00 +0.0000000000000000e+00 -4.4999999535742781e+00 +2.4887603195721274e-04 +0.0000000000000000e+00 +9.9999996903035948e-01
-4.5499999999999918e+00 +8.2844277315364625e+00 +0.0000000000000000e+00 -4.5499999520085002e+00 +2.5164567938694844e-04 +0.0000000000000000e+00 +9.9999996833722515e-01
-4.5999999999999917e+00 +8.2844150800083565e+00 +0.0000000000000000e+00 -4.5999999504078728e+00 +2.5441546857232349e-04 +0.0000000000000000e+00 +9.9999996763638377e-01
-4.6499999999999915e+00 +8.2844022899872218e+00 +0.0000000000000000e+00 -4.6499999487720105e+00 +2.5718540077621771e-04 +0.0000000000000000e+00 +9.9999996692783388e-01
-4.6999999999999913e+00 +8.2843893614658750e+00 +0.0000000000000000e+00 -4.6999999471005278e+00 +2.5995547724876218e-04 +0.0000000000000000e+00 +9.9999996621157394e-01
-4.7499999999999911e+00 +8.2843762944370720e+00 +0.0000000000000000e+00 -4.7499999453930393e+00 +2.6272569922733912e-04 +0.0000000000000000e+00 +9.9999996548760250e-01
-4.7999999999999909e+00 +8.2843630888935067e+00 +0.0000000000000000e+00 -4.7999999436491594e+00 +2.6549606793658192e-04 +0.0000000000000000e+00 +9.9999996475591790e-01
-4.8499999999999908e+00 +8.2843497448278125e+00 +0.0000000000000000e+00 -4.8499999418685027e+00 +2.6826658458837513e-04 +0.0000000000000000e+00 +9.9999996401651869e-01
-4.8999999999999906e+00 +8.2843362622325625e+00 +0.0000000000000000e+00 -4.8999999400506828e+00 +2.7103725038185448e-04 +0.0000000000000000e+00 +9.9999996326940332e-01
-4.9499999999999904e+00 +8.2843226411002693e+00 +0.0000000000000000e+00 -4.9499999381953144e+00 +2.7380806650340690e-04 +0.0000000000000000e+00 +9.9999996251457024e-01
-4.9999999999999902e+00 +8.2843088814233869e+00 +0.0000000000000000e+00 -4.9999999363020109e+00 +2.7657903412667045e-04 +0.0000000000000000e+00 +9.9999996175201777e-01
-5.0499999999999901e+00 +8.2842949831943127e+00 +0.0000000000000000e+00 -5.0499999343703870e+00 +2.7935015441253429e-04 +0.0000000000000000e+00 +9.9999996098174437e-01
-5.0999999999999899e+00 +8.2842809464053833e+00 +0.0000000000000000e+00 -5.0999999324000562e+00 +2.8212142850913874e-04 +0.0000000000000000e+00 +9.9999996020374848e-01
-5.1499999999999897e+00 +8.2842667710488804e+00 +0.0000000000000000e+00 -5.1499999303906332e+00 +2.8489285755187529e-04 +0.0000000000000000e+00 +9.9999995941802855e-01
-5.1999999999999895e+00 +8.2842524571170273e+00 +0.0000000000000000e+00 -5.1999999283417306e+00 +2.8766444266338655e-04 +0.0000000000000000e+00 +9.9999995862458291e-01
-5.2499999999999893e+00 +8.2842380046019937e+00 +0.0000000000000000e+00 -5.2499999262529631e+00 +2.9043618495356617e-04 +0.0000000000000000e+00 +9.9999995782340989e-01
-5.2999999999999892e+00 +8.2842234134958943e+00 +0.0000000000000000e+00 -5.2999999241239433e+00 +2.9320808551955887e-04 +0.0000000000000000e+00 +9.9999995701450795e-01
-5.3499999999999890e+00 +8.2842086837907871e+00 +0.0000000000000000e+00 -5.3499999219542849e+00 +2.9598014544576052e-04 +0.0000000000000000e+00 +9.9999995619787541e-01
-5.3999999999999888e+00 +8.2841938154786767e+00 +0.0000000000000000e+00 -5.3999999197436015e+00 +2.9875236580381796e-04 +0.0000000000000000e+00 +9.9999995537351061e-01
-5.4499999999999886e+00 +8.2841788085515162e+00 +0.0000000000000000e+00 -5.4499999174915068e+00 +3.0152474765262916e-04 +0.0000000000000000e+00 +9.9999995454141188e-01
-5.4999999999999885e+00 +8.2841636630012037e+00 +0.0000000000000000e+00 -5.4999999151976136e+00 +3.0429729203834298e-04 +0.0000000000000000e+00 +9.9999995370157757e-01
-5.5499999999999883e+00 +8.2841483788195873e+00 +0.0000000000000000e+00 -5.5499999128615354e+00 +3.0706999999435933e-04 +0.0000000000000000e+00 +9.9999995285400600e-01
-5.5999999999999881e+00 +8.2841329559984622e+00 +0.0000000000000000e+00 -5.5999999104828850e+00 +3.0984287254132902e-04 +0.0000000000000000e+00 +9.9999995199869562e-01
-5.6499999999999879e+00 +8.2841173945295736e+00 +0.0000000000000000e+00 -5.6499999080612762e+00 +3.1261591068715392e-04 +0.0000000000000000e+00 +9.9999995113564466e-01
-5.6999999999999877e+00 +8.2841016944046171e+00 +0.0000000000000000e+00 -5.6999999055963206e+00 +3.1538911542698667e-04 +0.0000000000000000e+00 +9.9999995026485133e-01
-5.7499999999999876e+00 +8.2840858556152384e+00 +0.0000000000000000e+00 -5.7499999030876321e+00 +3.1816248774323088e-04 +0.0000000000000000e+00 +9.9999994938631409e-01
-5.7999999999999874e+00 +8.2840698781530335e+00 +0.0000000000000000e+00 -5.7999999005348233e+00 +3.2093602860554097e-04 +0.0000000000000000e+00 +9.9999994850003115e-01
-5.8499999999999872e+00 +8.2840537620095525e+00 +0.0000000000000000e+00 -5.8499998979375061e+00 +3.2370973897082218e-04 +0.0000000000000000e+00 +9.9999994760600075e-01
