# field on trajectory
# s[mm] rx[mm] ry[mm] rz[mm] bx[T] by[T] bz[T]
0.0000000000000000e+00 +8.2850000000000001e+00 +0.0000000000000000e+00 +0.0000000000000000e+00 -2.7983495071237090e-02 -5.2538770926447587e-01 +6.0274186265106260e-03
-5.0000000000000003e-02 +8.2849999309813303e+00 +0.0000000000000000e+00 -4.9999999999936477e-02 -2.7985114093134391e-02 -5.2538794161042368e-01 +6.0291507427159769e-03
-1.0000000000000001e-01 +8.2849997239252655e+00 +0.0000000000000000e+00 -9.9999999999491884e-02 -2.7986754071003019e-02 -5.2538853532708263e-01 +6.0308742146724615e-03
-1.5000000000000002e-01 +8.2849993788316514e+00 +0.0000000000000000e+00 -1.4999999999828512e-01 -2.7988414988174160e-02 -5.2538948994022183e-01 +6.0325888942221705e-03
-2.0000000000000001e-01 +8.2849988957002356e+00 +0.0000000000000000e+00 -1.9999999999593507e-01 -2.7990096827979368e-02 -5.2539080497562651e-01 +6.0342946332066676e-03
-2.5000000000000000e-01 +8.2849982745306718e+00 +0.0000000000000000e+00 -2.4999999999206068e-01 -2.7991799573750684e-02 -5.2539247995909877e-01 +6.0359912834669852e-03
-2.9999999999999999e-01 +8.2849975153225213e+00 +0.0000000000000000e+00 -2.9999999998628085e-01 -2.7993523208820533e-02 -5.2539451441645735e-01 +6.0376786968436014e-03
-3.4999999999999998e-01 +8.2849966180752492e+00 +0.0000000000000000e+00 -3.4999999997821446e-01 -2.7995267716521798e-02 -5.2539690787353710e-01 +6.0393567251764259e-03
-3.9999999999999997e-01 +8.2849955827882269e+00 +0.0000000000000000e+00 -3.9999999996748037e-01 -2.7997033080187760e-02 -5.2539965985618975e-01 +6.0410252203047911e-03
-4.4999999999999996e-01 +8.2849944094607313e+00 +0.0000000000000000e+00 -4.4999999995369749e-01 -2.7998819283152163e-02 -5.2540276989028367e-01 +6.0426840340674299e-03
-4.9999999999999994e-01 +8.2849930980919453e+00 +0.0000000000000000e+00 -4.9999999993648475e-01 -2.8000626308749152e-02 -5.2540623750170312e-01 +6.0443330183024653e-03
-5.4999999999999993e-01 +8.2849916486809576e+00 +0.0000000000000000e+00 -5.4999999991546100e-01 -2.8002454140313326e-02 -5.2541006221634878e-01 +6.0459720248473995e-03
-5.9999999999999998e-01 +8.2849900612267628e+00 +0.0000000000000000e+00 -5.9999999989024499e-01 -2.8004302761179697e-02 -5.2541424356013866e-01 +6.0476009055390884e-03
-6.5000000000000002e-01 +8.2849883357282632e+00 +0.0000000000000000e+00 -6.4999999986045565e-01 -2.8006172154683710e-02 -5.2541878105900575e-01 +6.0492195122137382e-03
-7.0000000000000007e-01 +8.2849864721842668e+00 +0.0000000000000000e+00 -6.9999999982571182e-01 -2.8008062304161255e-02 -5.2542367423890024e-01 +6.0508276967068718e-03
-7.5000000000000011e-01 +8.2849844705934874e+00 +0.0000000000000000e+00 -7.4999999978563225e-01 -2.8009973192948654e-02 -5.2542892262578833e-01 +6.0524253108533493e-03
-8.0000000000000016e-01 +8.2849823309545467e+00 +0.0000000000000000e+00 -7.9999999973983582e-01 -2.8011904804382638e-02 -5.2543452574565241e-01 +6.0540122064873091e-03
-8.5000000000000020e-01 +8.2849800532659721e+00 +0.0000000000000000e+00 -8.4999999968794127e-01 -2.8013857121800399e-02 -5.2544048312449143e-01 +6.0555882354421942e-03
-9.0000000000000024e-01 +8.2849776375261985e+00 +0.0000000000000000e+00 -8.9999999962956745e-01 -2.8015830128539563e-02 -5.2544679428832020e-01 +6.0571532495507117e-03
-9.5000000000000029e-01 +8.2849750837335687e+00 +0.0000000000000000e+00 -9.4999999956433301e-01 -2.8017823807938182e-02 -5.2545345876316962e-01 +6.0587071006448110e-03
-1.0000000000000002e+00 +8.2849723918863312e+00 +0.0000000000000000e+00 -9.9999999949185669e-01 -2.8019838143334745e-02 -5.2546047607508661e-01 +6.0602496405557068e-03
-1.0500000000000003e+00 +8.2849695619826420e+00 +0.0000000000000000e+00 -1.0499999994117573e+00 -2.8021873118068169e-02 -5.2546784575013494e-01 +6.0617807211138233e-03
-1.1000000000000003e+00 +8.2849665940205650e+00 +0.0000000000000000e+00 -1.0999999993236533e+00 -2.8023928715477837e-02 -5.2547556731439371e-01 +6.0633001941488018e-03
-1.1500000000000004e+00 +8.2849634879980716e+00 +0.0000000000000000e+00 -1.1499999992271637e+00 -2.8026004918903537e-02 -5.2548364029395822e-01 +6.0648079114894865e-03
-1.2000000000000004e+00 +8.2849602439130408e+00 +0.0000000000000000e+00 -1.1999999991219070e+00 -2.8028101711685502e-02 -5.2549206421493999e-01 +6.0663037249638913e-03
-1.2500000000000004e+00 +8.2849568617632574e+00 +0.0000000000000000e+00 -1.2499999990075017e+00 -2.8030219077164447e-02 -5.2550083860346619e-01 +6.0677874863992072e-03
-1.3000000000000005e+00 +8.2849533415464194e+00 +0.0000000000000000e+00 -1.2999999988835667e+00 -2.8032356998681465e-02 -5.2550996298567987e-01 +6.0692590476217690e-03
-1.3500000000000005e+00 +8.2849496832601268e+00 +0.0000000000000000e+00 -1.3499999987497202e+00 -2.8034515459578135e-02 -5.2551943688774072e-01 +6.0707182604570649e-03
-1.4000000000000006e+00 +8.2849458869018928e+00 +0.0000000000000000e+00 -1.3999999986055809e+00 -2.8036694443196456e-02 -5.2552925983582344e-01 +6.0721649767296925e-03
-1.4500000000000006e+00 +8.2849419524691346e+00 +0.0000000000000000e+00 -1.4499999984507674e+00 -2.8038893932878853e-02 -5.2553943135611880e-01 +6.0735990482633576e-03
-1.5000000000000007e+00 +8.2849378799591822e+00 +0.0000000000000000e+00 -1.4999999982848982e+00 -2.8041113911968240e-02 -5.2554995097483370e-01 +6.0750203268808657e-03
-1.5500000000000007e+00 +8.2849336693692699e+00 +0.0000000000000000e+00 -1.5499999981075916e+00 -2.8043354363807942e-02 -5.2556081821819078e-01 +6.0764286644040960e-03
-1.6000000000000008e+00 +8.2849293206965431e+00 +0.0000000000000000e+00 -1.5999999979184663e+00 -2.8045615271741726e-02 -5.2557203261242791e-01 +6.0778239126539962e-03
-1.6500000000000008e+00 +8.2849248339380548e+00 +0.0000000000000000e+00 -1.6499999977171405e+00 -2.8047896619113836e-02 -5.2558359368379948e-01 +6.0792059234505589e-03
-1.7000000000000008e+00 +8.2849202090907692e+00 +0.0000000000000000e+00 -1.6999999975032325e+00 -2.8050198389268914e-02 -5.2559550095857499e-01 +6.0805745486128106e-03
-1.7500000000000009e+00 +8.2849154461515564e+00 +0.0000000000000000e+00 -1.7499999972763607e+00 -2.8052520565552061e-02 -5.2560775396303949e-01 +6.0819296399587984e-03
-1.8000000000000009e+00 +8.2849105451171976e+00 +0.0000000000000000e+00 -1.7999999970361433e+00 -2.8054863131308876e-02 -5.2562035222349446e-01 +6.0832710493055808e-03
-1.8500000000000010e+00 +8.2849055059843835e+00 +0.0000000000000000e+00 -1.8499999967821990e+00 -2.8057226069885331e-02 -5.2563329526625602e-01 +6.0845986284691882e-03
-1.9000000000000010e+00 +8.2849003287497123e+00 +0.0000000000000000e+00 -1.8999999965141454e+00 -2.8059609364627893e-02 -5.2564658261765673e-01 +6.0859122292646426e-03
-1.9500000000000011e+00 +8.2848950134096935e+00 +0.0000000000000000e+00 -1.9499999962316010e+00 -2.8062012998883456e-02 -5.2566021380404337e-01 +6.0872117035059188e-03
-2.0000000000000009e+00 +8.2848895599607459e+00 +0.0000000000000000e+00 -1.9999999959341841e+00 -2.8064436955999382e-02 -5.2567418835178048e-01 +6.0884969030059388e-03
-2.0500000000000007e+00 +8.2848839683991979e+00 +0.0000000000000000e+00 -2.0499999956215125e+00 -2.8066881187527849e-02 -5.2568850554245095e-01 +6.0897676952251971e-03
-2.1000000000000005e+00 +8.2848782387212889e+00 +0.0000000000000000e+00 -2.0999999952932047e+00 -2.8069345517839270e-02 -5.2570316367847414e-01 +6.0910240102177646e-03
-2.1500000000000004e+00 +8.2848723709231660e+00 +0.0000000000000000e+00 -2.1499999949488782e+00 -2.8071829739509436e-02 -5.2571816081748668e-01 +6.0922657936854380e-03
-2.2000000000000002e+00 +8.2848663650008909e+00 +0.0000000000000000e+00 -2.1999999945881514e+00 -2.8074333645115267e-02 -5.2573349501713540e-01 +6.0934929913290924e-03
-2.2500000000000000e+00 +8.2848602209504332e+00 +0.0000000000000000e+00 -2.2499999942106421e+00 -2.8076857027234801e-02 -5.2574916433507912e-01 +6.0947055488486737e-03
-2.2999999999999998e+00 +8.2848539387676770e+00 +0.0000000000000000e+00 -2.2999999938159679e+00 -2.8079399678447310e-02 -5.2576516682898777e-01 +6.0959034119432093e-03
-2.3499999999999996e+00 +8.2848475184484176e+00 +0.0000000000000000e+00 -2.3499999934037468e+00 -2.8081961391333222e-02 -5.2578150055654038e-01 +6.0970865263107899e-03
-2.3999999999999995e+00 +8.2848409599883635e+00 +0.0000000000000000e+00 -2.3999999929735969e+00 -2.8084541958474298e-02 -5.2579816357542797e-01 +6.0982548376485746e-03
-2.4499999999999993e+00 +8.2848342633831376e+00 +0.0000000000000000e+00 -2.4499999925251359e+00 -2.8087141172453534e-02 -5.2581515394335099e-01 +6.0994082916527694e-03
-2.4999999999999991e+00 +8.2848274286282759e+00 +0.0000000000000000e+00 -2.4999999920579814e+00 -2.8089758825855272e-02 -5.2583246971801889e-01 +6.1005468340186528e-03
-2.5499999999999989e+00 +8.2848204557192293e+00 +0.0000000000000000e+00 -2.5499999915717511e+00 -2.8092394711265265e-02 -5.2585010895715190e-01 +6.1016704104405461e-03
-2.5999999999999988e+00 +8.2848133446513632e+00 +0.0000000000000000e+00 -2.5999999910660625e+00 -2.8095048621270609e-02 -5.2586806971847877e-01 +6.1027789666118163e-03
-2.6499999999999986e+00 +8.2848060954199578e+00 +0.0000000000000000e+00 -2.6499999905405329e+00 -2.8097720348459910e-02 -5.2588635005973761e-01 +6.1038724482248841e-03
-2.6999999999999984e+00 +8.2847987080202117e+00 +0.0000000000000000e+00 -2.6999999899947804e+00 -2.8100409685423201e-02 -5.2590494803867505e-01 +6.1049508009711987e-03
-2.7499999999999982e+00 +8.2847911824472380e+00 +0.0000000000000000e+00 -2.7499999894284222e+00 -2.8103116424752068e-02 -5.2592386171304628e-01 +6.1060139705412502e-03
-2.7999999999999980e+00 +8.2847835186960683e+00 +0.0000000000000000e+00 -2.7999999888410754e+00 -2.8105840359039631e-02 -5.2594308914061516e-01 +6.1070619026245632e-03
-2.8499999999999979e+00 +8.2847757167616489e+00 +0.0000000000000000e+00 -2.8499999882323577e+00 -2.8108581280880639e-02 -5.2596262837915286e-01 +6.1080945429096804e-03
-2.8999999999999977e+00 +8.2847677766388479e+00 +0.0000000000000000e+00 -2.8999999876018863e+00 -2.8111338982871412e-02 -5.2598247748643889e-01 +6.1091118370841793e-03
-2.9499999999999975e+00 +8.2847596983224499e+00 +0.0000000000000000e+00 -2.9499999869492783e+00 -2.8114113257609992e-02 -5.2600263452025942e-01 +6.1101137308346440e-03
-2.9999999999999973e+00 +8.2847514818071595e+00 +0.0000000000000000e+00 -2.9999999862741511e+00 -2.8116903897696097e-02 -5.2602309753840915e-01 +6.1111001698466822e-03
-3.0499999999999972e+00 +8.2847431270876015e+00 +0.0000000000000000e+00 -3.0499999855761217e+00 -2.8119710695731204e-02 -5.2604386459868813e-01 +6.1120710998049145e-03
-3.0999999999999970e+00 +8.2847346341583172e+00 +0.0000000000000000e+00 -3.0999999848548074e+00 -2.8122533444318549e-02 -5.2606493375890462e-01 +6.1130264663929595e-03
-3.1499999999999968e+00 +8.2847260030137733e+00 +0.0000000000000000e+00 -3.1499999841098250e+00 -2.8125371936063209e-02 -5.2608630307687254e-01 +6.1139662152934447e-03
-3.1999999999999966e+00 +8.2847172336483546e+00 +0.0000000000000000e+00 -3.1999999833407915e+00 -2.8128225963572093e-02 -5.2610797061041181e-01 +6.1148902921879964e-03
-3.2499999999999964e+00 +8.2847083260563679e+00 +0.0000000000000000e+00 -3.2499999825473238e+00 -2.8131095319454014e-02 -5.2612993441734879e-01 +6.1157986427572315e-03
-3.2999999999999963e+00 +8.2846992802320436e+00 +0.0000000000000000e+00 -3.2999999817290386e+00 -2.8133979796319694e-02 -5.2615219255551560e-01 +6.1166912126807606e-03
-3.3499999999999961e+00 +8.2846900961695340e+00 +0.0000000000000000e+00 -3.3499999808855527e+00 -2.8136879186781847e-02 -5.2617474308274903e-01 +6.1175679476371796e-03
-3.3999999999999959e+00 +8.2846807738629131e+00 +0.0000000000000000e+00 -3.3999999800164828e+00 -2.8139793283455162e-02 -5.2619758405689154e-01 +6.1184287933040669e-03
-3.4499999999999957e+00 +8.2846713133061805e+00 +0.0000000000000000e+00 -3.4499999791214457e+00 -2.8142721878956396e-02 -5.2622071353579092e-01 +6.1192736953579801e-03
-3.4999999999999956e+00 +8.2846617144932608e+00 +0.0000000000000000e+00 -3.4999999782000577e+00 -2.8145664765904358e-02 -5.2624412957729849e-01 +6.1201025994744446e-03
-3.5499999999999954e+00 +8.2846519774180010e+00 +0.0000000000000000e+00 -3.5499999772519355e+00 -2.8148621736919992e-02 -5.2626783023927093e-01 +6.1209154513279648e-03
-3.5999999999999952e+00 +8.2846421020741730e+00 +0.0000000000000000e+00 -3.5999999762766954e+00 -2.8151592584626368e-02 -5.2629181357956867e-01 +6.1217121965920045e-03
-3.6499999999999950e+00 +8.2846320884554761e+00 +0.0000000000000000e+00 -3.6499999752739538e+00 -2.8154577101648762e-02 -5.2631607765605615e-01 +6.1224927809389934e-03
-3.6999999999999948e+00 +8.2846219365555367e+00 +0.0000000000000000e+00 -3.6999999742433269e+00 -2.8157575080614682e-02 -5.2634062052660091e-01 +6.1232571500403109e-03
-3.7499999999999947e+00 +8.2846116463679067e+00 +0.0000000000000000e+00 -3.7499999731844316e+00 -2.8160586314153878e-02 -5.2636544024907472e-01 +6.1240052495663017e-03
-3.7999999999999945e+00 +8.2846012178860633e+00 +0.0000000000000000e+00 -3.7999999720968831e+00 -2.8163610594898428e-02 -5.2639053488135201e-01 +6.1247370251862453e-03
-3.8499999999999943e+00 +8.2845906511034144e+00 +0.0000000000000000e+00 -3.8499999709802983e+00 -2.8166647715482704e-02 -5.2641590248130943e-01 +6.1254524225683787e-03
-3.8999999999999941e+00 +8.2845799460132969e+00 +0.0000000000000000e+00 -3.8999999698342926e+00 -2.8169697468543503e-02 -5.2644154110682739e-01 +6.1261513873798745e-03
-3.9499999999999940e+00 +8.2845691026089732e+00 +0.0000000000000000e+00 -3.9499999686584824e+00 -2.8172759646719992e-02 -5.2646744881578744e-01 +6.1268338652868386e-03
-3.9999999999999938e+00 +8.2845581208836361e+00 +0.0000000000000000e+00 -3.9999999674524833e+00 -2.8175834042653825e-02 -5.2649362366607433e-01 +6.1274998019543205e-03
-4.0499999999999936e+00 +8.2845470008304094e+00 +0.0000000000000000e+00 -4.0499999662159114e+00 -2.8178920452405599e-02 -5.2652006356290282e-01 +6.1281491480243118e-03
-4.0999999999999934e+00 +8.2845357424423458e+00 +0.0000000000000000e+00 -4.0999999649483820e+00 -2.8182018685703015e-02 -5.2654676580080340e-01 +6.1287818740500327e-03
-4.1499999999999932e+00 +8.2845243457124305e+00 +0.0000000000000000e+00 -4.1499999636495115e+00 -2.8185128555688908e-02 -5.2657372752163945e-01 +6.1293979555621190e-03
-4.1999999999999931e+00 +8.2845128106335792e+00 +0.0000000000000000e+00 -4.1999999623189153e+00 -2.8188249875504369e-02 -5.2660094586727824e-01 +6.1299973680906230e-03
-4.2499999999999929e+00 +8.2845011371986423e+00 +0.0000000000000000e+00 -4.2499999609562087e+00 -2.8191382458288578e-02 -5.2662841797959092e-01 +6.1305800871650270e-03
-4.2999999999999927e+00 +8.2844893254004006e+00 +0.0000000000000000e+00 -4.2999999595610072e+00 -2.8194526117178768e-02 -5.2665614100045188e-01 +6.1311460883142479e-03
-4.3499999999999925e+00 +8.2844773752315728e+00 +0.0000000000000000e+00 -4.3499999581329263e+00 -2.8197680665310133e-02 -5.2668411207174004e-01 +6.1316953470666622e-03
-4.3999999999999924e+00 +8.2844652866848083e+00 +0.0000000000000000e+00 -4.3999999566715804e+00 -2.8200845915815675e-02 -5.2671232833533699e-01 +6.1322278389501052e-03
-4.4499999999999922e+00 +8.2844530597526926e+00 +0.0000000000000000e+00 -4.4499999551765859e+00 -2.8204021681826213e-02 -5.2674078693312809e-01 +6.1327435394918813e-03
-4.4999999999999920e+00 +8.2844406944277509e+00 +0.0000000000000000e+00 -4.4999999536475572e+00 -2.8207207776470188e-02 -5.2676948500700149e-01 +6.1332424242187770e-03
-4.5499999999999918e+00 +8.2844281907024424e+00 +0.0000000000000000e+00 -4.5499999520841099e+00 -2.8210404012873624e-02 -5.2679841969884755e-01 +6.1337244686570716e-03
-4.5999999999999917e+00 +8.2844155485691662e+00 +0.0000000000000000e+00 -4.5999999504858584e+00 -2.8213610204160071e-02 -5.2682758815056119e-01 +6.1341896483325569e-03
-4.6499999999999915e+00 +8.2844027680202572e+00 +0.0000000000000000e+00 -4.6499999488524182e+00 -2.8216826163450406e-02 -5.2685698750403809e-01 +6.1346379387705267e-03
-4.6999999999999913e+00 +8.2843898490479937e+00 +0.0000000000000000e+00 -4.6999999471834037e+00 -2.8220051703862863e-02 -5.2688661490117694e-01 +6.1350693154958048e-03
-4.7499999999999911e+00 +8.2843767916445898e+00 +0.0000000000000000e+00 -4.7499999454784296e+00 -2.8223286638512861e-02 -5.2691646748387899e-01 +6.1354837540327578e-03
-4.7999999999999909e+00 +8.2843635958022031e+00 +0.0000000000000000e+00 -4.7999999437371113e+00 -2.8226530780512956e-02 -5.2694654239404737e-01 +6.1358812299052911e-03
-4.8499999999999908e+00 +8.2843502615129321e+00 +0.0000000000000000e+00 -4.8499999419590623e+00 -2.8229783942972667e-02 -5.2697683677358664e-01 +6.1362617186368623e-03
-4.8999999999999906e+00 +8.2843367887688171e+00 +0.0000000000000000e+00 -4.8999999401438981e+00 -2.8233045938998537e-02 -5.2700734776440405e-01 +6.1366251957505119e-03
-4.9499999999999904e+00 +8.2843231775618413e+00 +0.0000000000000000e+00 -4.9499999382912323e+00 -2.8236316581693892e-02 -5.2703807250840706e-01 +6.1369716367688501e-03
-4.9999999999999902e+00 +8.2843094278839349e+00 +0.0000000000000000e+00 -4.9999999364006795e+00 -2.8239595684158819e-02 -5.2706900814750579e-01 +6.1373010172140708e-03
-5.0499999999999901e+00 +8.2842955397269673e+00 +0.0000000000000000e+00 -5.0499999344718542e+00 -2.8242883059490045e-02 -5.2710015182361070e-01 +6.1376133126079769e-03
-5.0999999999999899e+00 +8.2842815130827585e+00 +0.0000000000000000e+00 -5.0999999325043710e+00 -2.8246178520780926e-02 -5.2713150067863390e-01 +6.1379084984719791e-03
-5.1499999999999897e+00 +8.2842673479430715e+00 +0.0000000000000000e+00 -5.1499999304978434e+00 -2.8249481881121207e-02 -5.2716305185448742e-01 +6.1381865503271080e-03
-5.1999999999999895e+00 +8.2842530442996161e+00 +0.0000000000000000e+00 -5.1999999284518852e+00 -2.8252792953597072e-02 -5.2719480249308570e-01 +6.1384474436940277e-03
-5.2499999999999893e+00 +8.2842386021440504e+00 +0.0000000000000000e+00 -5.2499999263661108e+00 -2.8256111551290979e-02 -5.2722674973634154e-01 +6.1386911540930421e-03
-5.2999999999999892e+00 +8.2842240214679830e+00 +0.0000000000000000e+00 -5.2999999242401339e+00 -2.8259437487281571e-02 -5.2725889072616972e-01 +6.1389176570441116e-03
-5.3499999999999890e+00 +8.2842093022629673e+00 +0.0000000000000000e+00 -5.3499999220735681e+00 -2.8262770574643624e-02 -5.2729122260448480e-01 +6.1391269280668586e-03
-5.3999999999999888e+00 +8.2841944445205105e+00 +0.0000000000000000e+00 -5.3999999198660271e+00 -2.8266110626447901e-02 -5.2732374251320102e-01 +6.1393189426805789e-03
-5.4499999999999886e+00 +8.2841794482320665e+00 +0.0000000000000000e+00 -5.4499999176171245e+00 -2.8269457455761086e-02 -5.2735644759423261e-01 +6.1394936764042557e-03
-5.4999999999999885e+00 +8.2841643133890450e+00 +0.0000000000000000e+00 -5.4999999153264740e+00 -2.8272810875645718e-02 -5.2738933498949370e-01 +6.1396511047565700e-03
-5.5499999999999883e+00 +8.2841490399828039e+00 +0.0000000000000000e+00 -5.5499999129936883e+00 -2.8276170699160035e-02 -5.2742240184089761e-01 +6.1397912032559012e-03
-5.5999999999999881e+00 +8.2841336280046569e+00 +0.0000000000000000e+00 -5.5999999106183820e+00 -2.8279536739357972e-02 -5.2745564529035771e-01 +6.1399139474203595e-03
-5.6499999999999879e+00 +8.2841180774458696e+00 +0.0000000000000000e+00 -5.6499999082001668e+00 -2.8282908809288958e-02 -5.2748906247978511e-01 +6.1400193127677666e-03
-5.6999999999999877e+00 +8.2841023882976614e+00 +0.0000000000000000e+00 -5.6999999057386574e+00 -2.8286286721997938e-02 -5.2752265055109171e-01 +6.1401072748157003e-03
-5.7499999999999876e+00 +8.2840865605512093e+00 +0.0000000000000000e+00 -5.7499999032334657e+00 -2.8289670290525166e-02 -5.2755640664618675e-01 +6.1401778090814738e-03
-5.7999999999999874e+00 +8.2840705941976438e+00 +0.0000000000000000e+00 -5.7999999006842051e+00 -2.8293059327906208e-02 -5.2759032790697880e-01 +6.1402308910821638e-03
-5.8499999999999872e+00 +8.2840544892280530e+00 +0.0000000000000000e+00 -5.8499998980904886e+00 -2.8296453647171843e-02 -5.2762441147537498e-01 +6.1402664963346202e-03
