# field on trajectory
# s[mm] rx[mm] ry[mm] rz[mm] bx[T] by[T] bz[T]
0.0000000000000000e+00 +8.3650000000000002e+00 +0.0000000000000000e+00 +0.0000000000000000e+00 -2.9527017327775174e-02 -5.5490826437342300e-01 +5.3506908740254665e-03
5.0000000000000003e-02 +8.3649999306156992e+00 +0.0000000000000000e+00 +4.9999999999935811e-02 -2.9527301891965813e-02 -5.5490910402631299e-01 +5.3507783734712700e-03
1.0000000000000001e-01 +8.3649997224626453e+00 +0.0000000000000000e+00 +9.9999999999486486e-02 -2.9527600998297189e-02 -5.5491025493321910e-01 +5.3508768267937776e-03
1.5000000000000002e-01 +8.3649993755405490e+00 +0.0000000000000000e+00 +1.4999999999826688e-01 -2.9527914617429086e-02 -5.5491171632330549e-01 +5.3509862243060055e-03
2.0000000000000001e-01 +8.3649988898490459e+00 +0.0000000000000000e+00 +1.9999999999589188e-01 -2.9528242720021573e-02 -5.5491348742575064e-01 +5.3511065563215882e-03
2.5000000000000000e-01 +8.3649982653876940e+00 +0.0000000000000000e+00 +2.4999999999197631e-01 -2.9528585276735110e-02 -5.5491556746974802e-01 +5.3512378131547675e-03
2.9999999999999999e-01 +8.3649975021559708e+00 +0.0000000000000000e+00 +2.9999999998613502e-01 -2.9528942258230474e-02 -5.5491795568450553e-01 +5.3513799851203697e-03
3.4999999999999998e-01 +8.3649966001532814e+00 +0.0000000000000000e+00 +3.4999999997798287e-01 -2.9529313635168801e-02 -5.5492065129924573e-01 +5.3515330625337641e-03
3.9999999999999997e-01 +8.3649955593789507e+00 +0.0000000000000000e+00 +3.9999999996713470e-01 -2.9529699378211569e-02 -5.5492365354320528e-01 +5.3516970357108716e-03
4.4999999999999996e-01 +8.3649943798322273e+00 +0.0000000000000000e+00 +4.4999999995320533e-01 -2.9530099458020622e-02 -5.5492696164563615e-01 +5.3518718949681094e-03
4.9999999999999994e-01 +8.3649930615122852e+00 +0.0000000000000000e+00 +4.9999999993580962e-01 -2.9530513845258163e-02 -5.5493057483580377e-01 +5.3520576306224001e-03
5.4999999999999993e-01 +8.3649916044182202e+00 +0.0000000000000000e+00 +5.4999999991456239e-01 -2.9530942510586716e-02 -5.5493449234298786e-01 +5.3522542329911176e-03
5.9999999999999998e-01 +8.3649900085490518e+00 +0.0000000000000000e+00 +5.9999999988907837e-01 -2.9531385424669217e-02 -5.5493871339648326e-01 +5.3524616923920918e-03
6.5000000000000002e-01 +8.3649882739037249e+00 +0.0000000000000000e+00 +6.4999999985897239e-01 -2.9531842558168955e-02 -5.5494323722559880e-01 +5.3526799991435708e-03
7.0000000000000007e-01 +8.3649864004811096e+00 +0.0000000000000000e+00 +6.9999999982385919e-01 -2.9532313881749542e-02 -5.5494806305965660e-01 +5.3529091435642025e-03
7.5000000000000011e-01 +8.3649843882799981e+00 +0.0000000000000000e+00 +7.4999999978335363e-01 -2.9532799366075016e-02 -5.5495319012799416e-01 +5.3531491159730113e-03
8.0000000000000016e-01 +8.3649822372991078e+00 +0.0000000000000000e+00 +7.9999999973707037e-01 -2.9533298981809782e-02 -5.5495861765996257e-01 +5.3533999066893772e-03
8.5000000000000020e-01 +8.3649799475370816e+00 +0.0000000000000000e+00 +8.4999999968462425e-01 -2.9533812699618571e-02 -5.5496434488492663e-01 +5.3536615060330098e-03
9.0000000000000024e-01 +8.3649775189924878e+00 +0.0000000000000000e+00 +8.9999999962562993e-01 -2.9534340490166580e-02 -5.5497037103226576e-01 +5.3539339043239343e-03
9.5000000000000029e-01 +8.3649749516638199e+00 +0.0000000000000000e+00 +9.4999999955970216e-01 -2.9534882324119296e-02 -5.5497669533137328e-01 +5.3542170918824579e-03
1.0000000000000002e+00 +8.3649722455494953e+00 +0.0000000000000000e+00 +9.9999999948645557e-01 -2.9535438172142641e-02 -5.5498331701165537e-01 +5.3545110590291472e-03
1.0500000000000003e+00 +8.3649694006478583e+00 +0.0000000000000000e+00 +1.0499999994055049e+00 -2.9536008004902945e-02 -5.5499023530253377e-01 +5.3548157960848245e-03
1.1000000000000003e+00 +8.3649664169571789e+00 +0.0000000000000000e+00 +1.0999999993164649e+00 -2.9536591793066863e-02 -5.5499744943344287e-01 +5.3551312933705205e-03
1.1500000000000004e+00 +8.3649632944756540e+00 +0.0000000000000000e+00 +1.1499999992189498e+00 -2.9537189507301508e-02 -5.5500495863383115e-01 +5.3554575412074661e-03
1.2000000000000004e+00 +8.3649600332014060e+00 +0.0000000000000000e+00 +1.1999999991125747e+00 -2.9537801118274372e-02 -5.5501276213316098e-01 +5.3557945299170708e-03
1.2500000000000004e+00 +8.3649566331324827e+00 +0.0000000000000000e+00 +1.2499999989969539e+00 -2.9538426596653310e-02 -5.5502085916090793e-01 +5.3561422498208883e-03
1.3000000000000005e+00 +8.3649530942668591e+00 +0.0000000000000000e+00 +1.2999999988717021e+00 -2.9539065913106628e-02 -5.5502924894656203e-01 +5.3565006912406100e-03
1.3500000000000005e+00 +8.3649494166024372e+00 +0.0000000000000000e+00 +1.3499999987364339e+00 -2.9539719038303023e-02 -5.5503793071962593e-01 +5.3568698444980247e-03
1.4000000000000006e+00 +8.3649456001370446e+00 +0.0000000000000000e+00 +1.3999999985907639e+00 -2.9540385942911591e-02 -5.5504690370961685e-01 +5.3572496999150180e-03
1.4500000000000006e+00 +8.3649416448684395e+00 +0.0000000000000000e+00 +1.4499999984343064e+00 -2.9541066597601830e-02 -5.5505616714606421e-01 +5.3576402478135235e-03
1.5000000000000007e+00 +8.3649375507943056e+00 +0.0000000000000000e+00 +1.4999999982666758e+00 -2.9541760973043691e-02 -5.5506572025851220e-01 +5.3580414785155250e-03
1.5500000000000007e+00 +8.3649333179122518e+00 +0.0000000000000000e+00 +1.5499999980874868e+00 -2.9542469039907499e-02 -5.5507556227651755e-01 +5.3584533823430218e-03
1.6000000000000008e+00 +8.3649289462198180e+00 +0.0000000000000000e+00 +1.5999999978963537e+00 -2.9543190768864025e-02 -5.5508569242965122e-01 +5.3588759496180022e-03
1.6500000000000008e+00 +8.3649244357144728e+00 +0.0000000000000000e+00 +1.6499999976928912e+00 -2.9543926130584451e-02 -5.5509610994749603e-01 +5.3593091706624291e-03
1.7000000000000008e+00 +8.3649197863936084e+00 +0.0000000000000000e+00 +1.6999999974767133e+00 -2.9544675095740412e-02 -5.5510681405964968e-01 +5.3597530357982178e-03
1.7500000000000009e+00 +8.3649149982545499e+00 +0.0000000000000000e+00 +1.7499999972474345e+00 -2.9545437635003904e-02 -5.5511780399572164e-01 +5.3602075353472072e-03
1.8000000000000009e+00 +8.3649100712945472e+00 +0.0000000000000000e+00 +1.7999999970046692e+00 -2.9546213719047459e-02 -5.5512907898533637e-01 +5.3606726596311400e-03
1.8500000000000010e+00 +8.3649050055107814e+00 +0.0000000000000000e+00 +1.8499999967480314e+00 -2.9547003318543943e-02 -5.5514063825812943e-01 +5.3611483989716427e-03
1.9000000000000010e+00 +8.3648998009003623e+00 +0.0000000000000000e+00 +1.8999999964771357e+00 -2.9547806404166706e-02 -5.5515248104375003e-01 +5.3616347436902020e-03
1.9500000000000011e+00 +8.3648944574603288e+00 +0.0000000000000000e+00 +1.9499999961915961e+00 -2.9548622946589543e-02 -5.5516460657186184e-01 +5.3621316841081408e-03
2.0000000000000009e+00 +8.3648889751876485e+00 +0.0000000000000000e+00 +1.9999999958910268e+00 -2.9549452916486675e-02 -5.5517701407213982e-01 +5.3626392105465930e-03
2.0500000000000007e+00 +8.3648833540792182e+00 +0.0000000000000000e+00 +2.0499999955750421e+00 -2.9550296266888480e-02 -5.5518970264857614e-01 +5.3631573082831814e-03
2.1000000000000005e+00 +8.3648775941318654e+00 +0.0000000000000000e+00 +2.0999999952432562e+00 -2.9551152880248472e-02 -5.5520267090238695e-01 +5.3636859424222279e-03
2.1500000000000004e+00 +8.3648716953423463e+00 +0.0000000000000000e+00 +2.1499999948952828e+00 -2.9552022621376520e-02 -5.5521591730910413e-01 +5.3642250730250064e-03
2.2000000000000002e+00 +8.3648656577073499e+00 +0.0000000000000000e+00 +2.1999999945307365e+00 -2.9552905355083058e-02 -5.5522944034426791e-01 +5.3647746601530747e-03
2.2500000000000000e+00 +8.3648594812234922e+00 +0.0000000000000000e+00 +2.2499999941492308e+00 -2.9553800946179234e-02 -5.5524323848342982e-01 +5.3653346638683121e-03
2.2999999999999998e+00 +8.3648531658873235e+00 +0.0000000000000000e+00 +2.2999999937503799e+00 -2.9554709259476796e-02 -5.5525731020215097e-01 +5.3659050442329149e-03
2.3499999999999996e+00 +8.3648467116953267e+00 +0.0000000000000000e+00 +2.3499999933337978e+00 -2.9555630159788231e-02 -5.5527165397600187e-01 +5.3664857613094060e-03
2.3999999999999995e+00 +8.3648401186439134e+00 +0.0000000000000000e+00 +2.3999999928990983e+00 -2.9556563511926662e-02 -5.5528626828056316e-01 +5.3670767751606563e-03
2.4499999999999993e+00 +8.3648333867294298e+00 +0.0000000000000000e+00 +2.4499999924458953e+00 -2.9557509180705932e-02 -5.5530115159142435e-01 +5.3676780458498715e-03
2.4999999999999991e+00 +8.3648265159481525e+00 +0.0000000000000000e+00 +2.4999999919738030e+00 -2.9558467030940599e-02 -5.5531630238418417e-01 +5.3682895334406285e-03
2.5499999999999989e+00 +8.3648195062962944e+00 +0.0000000000000000e+00 +2.5499999914824345e+00 -2.9559436927445958e-02 -5.5533171913445023e-01 +5.3689111979968625e-03
2.5999999999999988e+00 +8.3648123577699991e+00 +0.0000000000000000e+00 +2.5999999909714040e+00 -2.9560418735038025e-02 -5.5534740031783936e-01 +5.3695429995828875e-03
2.6499999999999986e+00 +8.3648050703653460e+00 +0.0000000000000000e+00 +2.6499999904403251e+00 -2.9561412318533577e-02 -5.5536334440997659e-01 +5.3701848982634099e-03
2.6999999999999984e+00 +8.3647976440783474e+00 +0.0000000000000000e+00 +2.6999999898888114e+00 -2.9562417542750172e-02 -5.5537954988649518e-01 +5.3708368541035270e-03
2.7499999999999982e+00 +8.3647900789049512e+00 +0.0000000000000000e+00 +2.7499999893164770e+00 -2.9563434272506097e-02 -5.5539601522303694e-01 +5.3714988271687369e-03
2.7999999999999980e+00 +8.3647823748410399e+00 +0.0000000000000000e+00 +2.7999999887229348e+00 -2.9564462372620511e-02 -5.5541273889525211e-01 +5.3721707775249610e-03
2.8499999999999979e+00 +8.3647745318824303e+00 +0.0000000000000000e+00 +2.8499999881077986e+00 -2.9565501707913302e-02 -5.5542971937879759e-01 +5.3728526652385474e-03
2.8999999999999977e+00 +8.3647665500248767e+00 +0.0000000000000000e+00 +2.8999999874706819e+00 -2.9566552143205211e-02 -5.5544695514933895e-01 +5.3735444503762676e-03
2.9499999999999975e+00 +8.3647584292640698e+00 +0.0000000000000000e+00 +2.9499999868111981e+00 -2.9567613543317807e-02 -5.5546444468254863e-01 +5.3742460930053439e-03
2.9999999999999973e+00 +8.3647501695956361e+00 +0.0000000000000000e+00 +2.9999999861289610e+00 -2.9568685773073495e-02 -5.5548218645410652e-01 +5.3749575531934525e-03
3.0499999999999972e+00 +8.3647417710151384e+00 +0.0000000000000000e+00 +3.0499999854235833e+00 -2.9569768697295551e-02 -5.5550017893969983e-01 +5.3756787910087247e-03
3.0999999999999970e+00 +8.3647332335180771e+00 +0.0000000000000000e+00 +3.0999999846946786e+00 -2.9570862180808108e-02 -5.5551842061502243e-01 +5.3764097665197751e-03
3.1499999999999968e+00 +8.3647245570998905e+00 +0.0000000000000000e+00 +3.1499999839418602e+00 -2.9571966088436173e-02 -5.5553690995577509e-01 +5.3771504397956927e-03
3.1999999999999966e+00 +8.3647157417559548e+00 +0.0000000000000000e+00 +3.1999999831647412e+00 -2.9573080285005673e-02 -5.5555564543766456e-01 +5.3779007709060557e-03
3.2499999999999964e+00 +8.3647067874815857e+00 +0.0000000000000000e+00 +3.2499999823629349e+00 -2.9574204635343423e-02 -5.5557462553640447e-01 +5.3786607199209514e-03
3.2999999999999963e+00 +8.3646976942720368e+00 +0.0000000000000000e+00 +3.2999999815360543e+00 -2.9575339004277178e-02 -5.5559384872771478e-01 +5.3794302469109719e-03
3.3499999999999961e+00 +8.3646884621224995e+00 +0.0000000000000000e+00 +3.3499999806837124e+00 -2.9576483256635592e-02 -5.5561331348732046e-01 +5.3802093119472271e-03
3.3999999999999959e+00 +8.3646790910281084e+00 +0.0000000000000000e+00 +3.3999999798055223e+00 -2.9577637257248313e-02 -5.5563301829095302e-01 +5.3809978751013605e-03
3.4499999999999957e+00 +8.3646695809839340e+00 +0.0000000000000000e+00 +3.4499999789010967e+00 -2.9578800870945915e-02 -5.5565296161434952e-01 +5.3817958964455558e-03
3.4999999999999956e+00 +8.3646599319849901e+00 +0.0000000000000000e+00 +3.4999999779700488e+00 -2.9579973962559958e-02 -5.5567314193325223e-01 +5.3826033360525379e-03
3.5499999999999954e+00 +8.3646501440262302e+00 +0.0000000000000000e+00 +3.5499999770119914e+00 -2.9581156396923006e-02 -5.5569355772340856e-01 +5.3834201539955983e-03
3.5999999999999952e+00 +8.3646402171025489e+00 +0.0000000000000000e+00 +3.5999999760265373e+00 -2.9582348038868563e-02 -5.5571420746057087e-01 +5.3842463103485850e-03
3.6499999999999950e+00 +8.3646301512087824e+00 +0.0000000000000000e+00 +3.6499999750132992e+00 -2.9583548753231222e-02 -5.5573508962049667e-01 +5.3850817651859388e-03
3.6999999999999948e+00 +8.3646199463397082e+00 +0.0000000000000000e+00 +3.6999999739718894e+00 -2.9584758404846551e-02 -5.5575620267894787e-01 +5.3859264785826692e-03
3.7499999999999947e+00 +8.3646096024900469e+00 +0.0000000000000000e+00 +3.7499999729019211e+00 -2.9585976858551175e-02 -5.5577754511169097e-01 +5.3867804106143948e-03
3.7999999999999945e+00 +8.3645991196544607e+00 +0.0000000000000000e+00 +3.7999999718030066e+00 -2.9587203979182762e-02 -5.5579911539449678e-01 +5.3876435213573333e-03
3.8499999999999943e+00 +8.3645884978275564e+00 +0.0000000000000000e+00 +3.8499999706747583e+00 -2.9588439631580036e-02 -5.5582091200313943e-01 +5.3885157708883193e-03
3.8999999999999941e+00 +8.3645777370038825e+00 +0.0000000000000000e+00 +3.8999999695167888e+00 -2.9589683680582846e-02 -5.5584293341339852e-01 +5.3893971192848153e-03
3.9499999999999940e+00 +8.3645668371779340e+00 +0.0000000000000000e+00 +3.9499999683287106e+00 -2.9590935991032064e-02 -5.5586517810105551e-01 +5.3902875266249126e-03
3.9999999999999938e+00 +8.3645557983441456e+00 +0.0000000000000000e+00 +3.9999999671101358e+00 -2.9592196427769706e-02 -5.5588764454189654e-01 +5.3911869529873506e-03
4.0499999999999936e+00 +8.3645446204969023e+00 +0.0000000000000000e+00 +4.0499999658606773e+00 -2.9593464871256529e-02 -5.5591033108188947e-01 +5.3920953470908729e-03
4.0999999999999934e+00 +8.3645333036305285e+00 +0.0000000000000000e+00 +4.0999999645799470e+00 -2.9594741264424913e-02 -5.5593323554771523e-01 +5.3930126122120059e-03
4.1499999999999932e+00 +8.3645218477392973e+00 +0.0000000000000000e+00 +4.1499999632675566e+00 -2.9596025565825804e-02 -5.5595635563623547e-01 +5.3939386402666115e-03
4.1999999999999931e+00 +8.3645102528174267e+00 +0.0000000000000000e+00 +4.1999999619231181e+00 -2.9597317734011034e-02 -5.5597968904431050e-01 +5.3948733231704909e-03
4.2499999999999929e+00 +8.3644985188590812e+00 +0.0000000000000000e+00 +4.2499999605462442e+00 -2.9598617727533295e-02 -5.5600323346880232e-01 +5.3958165528393952e-03
4.2999999999999927e+00 +8.3644866458583742e+00 +0.0000000000000000e+00 +4.2999999591365468e+00 -2.9599925504946147e-02 -5.5602698660657202e-01 +5.3967682211889939e-03
4.3499999999999925e+00 +8.3644746338093654e+00 +0.0000000000000000e+00 +4.3499999576936377e+00 -2.9601241024804045e-02 -5.5605094615448103e-01 +5.3977282201348783e-03
4.3999999999999924e+00 +8.3644624827060632e+00 +0.0000000000000000e+00 +4.3999999562171288e+00 -2.9602564245662315e-02 -5.5607510980939012e-01 +5.3986964415925391e-03
4.4499999999999922e+00 +8.3644501925424244e+00 +0.0000000000000000e+00 +4.4499999547066311e+00 -2.9603895126077178e-02 -5.5609947526815950e-01 +5.3996727774773580e-03
4.4999999999999920e+00 +8.3644377633123579e+00 +0.0000000000000000e+00 +4.4999999531617574e+00 -2.9605233624605751e-02 -5.5612404022764772e-01 +5.4006571197045897e-03
4.5499999999999918e+00 +8.3644251950097193e+00 +0.0000000000000000e+00 +4.5499999515821186e+00 -2.9606579699806023e-02 -5.5614880238471298e-01 +5.4016493601893676e-03
4.5999999999999917e+00 +8.3644124876283161e+00 +0.0000000000000000e+00 +4.5999999499673274e+00 -2.9607933310236940e-02 -5.5617375943621161e-01 +5.4026493908466700e-03
4.6499999999999915e+00 +8.3643996411619081e+00 +0.0000000000000000e+00 +4.6499999483169940e+00 -2.9609294414458295e-02 -5.5619890907899783e-01 +5.4036571035913222e-03
4.6999999999999913e+00 +8.3643866556042052e+00 +0.0000000000000000e+00 +4.6999999466307312e+00 -2.9610662971030835e-02 -5.5622424900992484e-01 +5.4046723903379817e-03
4.7499999999999911e+00 +8.3643735309488711e+00 +0.0000000000000000e+00 +4.7499999449081489e+00 -2.9612038938516168e-02 -5.5624977692584254e-01 +5.4056951430011147e-03
4.7999999999999909e+00 +8.3643602671895234e+00 +0.0000000000000000e+00 +4.7999999431488600e+00 -2.9613422275476881e-02 -5.5627549052359837e-01 +5.4067252534950047e-03
4.8499999999999908e+00 +8.3643468643197298e+00 +0.0000000000000000e+00 +4.8499999413524746e+00 -2.9614812940476461e-02 -5.5630138750003832e-01 +5.4077626137337296e-03
4.8999999999999906e+00 +8.3643333223330156e+00 +0.0000000000000000e+00 +4.8999999395186045e+00 -2.9616210892079307e-02 -5.5632746555200308e-01 +5.4088071156311408e-03
4.9499999999999904e+00 +8.3643196412228598e+00 +0.0000000000000000e+00 +4.9499999376468606e+00 -2.9617616088850766e-02 -5.5635372237633274e-01 +5.4098586511008712e-03
4.9999999999999902e+00 +8.3643058209826950e+00 +0.0000000000000000e+00 +4.9999999357368541e+00 -2.9619028489357123e-02 -5.5638015566986154e-01 +5.4109171120563047e-03
5.0499999999999901e+00 +8.3642918616059116e+00 +0.0000000000000000e+00 +5.0499999337881958e+00 -2.9620448052165609e-02 -5.5640676312942150e-01 +5.4119823904105781e-03
5.0999999999999899e+00 +8.3642777630858554e+00 +0.0000000000000000e+00 +5.0999999318004967e+00 -2.9621874735844374e-02 -5.5643354245183929e-01 +5.4130543780765523e-03
5.1499999999999897e+00 +8.3642635254158311e+00 +0.0000000000000000e+00 +5.1499999297733678e+00 -2.9623308498962532e-02 -5.5646049133393860e-01 +5.4141329669668229e-03
5.1999999999999895e+00 +8.3642491485890993e+00 +0.0000000000000000e+00 +5.1999999277064202e+00 -2.9624749300090181e-02 -5.5648760747253756e-01 +5.4152180489936939e-03
5.2499999999999893e+00 +8.3642346325988779e+00 +0.0000000000000000e+00 +5.2499999255992646e+00 -2.9626197097798318e-02 -5.5651488856444986e-01 +5.4163095160691564e-03
5.2999999999999892e+00 +8.3642199774383457e+00 +0.0000000000000000e+00 +5.2999999234515114e+00 -2.9627651850658951e-02 -5.5654233230648464e-01 +5.4174072601049046e-03
5.3499999999999890e+00 +8.3642051831006405e+00 +0.0000000000000000e+00 +5.3499999212627705e+00 -2.9629113517245037e-02 -5.5656993639544461e-01 +5.4185111730122954e-03
5.3999999999999888e+00 +8.3641902495788578e+00 +0.0000000000000000e+00 +5.3999999190326538e+00 -2.9630582056130499e-02 -5.5659769852812768e-01 +5.4196211467023520e-03
5.4499999999999886e+00 +8.3641751768660573e+00 +0.0000000000000000e+00 +5.4499999167607704e+00 -2.9632057425890250e-02 -5.5662561640132613e-01 +5.4207370730857503e-03
5.4999999999999885e+00 +8.3641599649552560e+00 +0.0000000000000000e+00 +5.4999999144467315e+00 -2.9633539585100167e-02 -5.5665368771182533e-01 +5.4218588440728029e-03
5.5499999999999883e+00 +8.3641446138394340e+00 +0.0000000000000000e+00 +5.5499999120901480e+00 -2.9635028492337123e-02 -5.5668191015640467e-01 +5.4229863515734460e-03
5.5999999999999881e+00 +8.3641291235115336e+00 +0.0000000000000000e+00 +5.5999999096906290e+00 -2.9636524106178962e-02 -5.5671028143183754e-01 +5.4241194874972351e-03
5.6499999999999879e+00 +8.3641134939644619e+00 +0.0000000000000000e+00 +5.6499999072477856e+00 -2.9638026385204550e-02 -5.5673879923488945e-01 +5.4252581437533275e-03
5.6999999999999877e+00 +8.3640977251910851e+00 +0.0000000000000000e+00 +5.6999999047612269e+00 -2.9639535287993738e-02 -5.5676746126231991e-01 +5.4264022122504701e-03
5.7499999999999876e+00 +8.3640818171842373e+00 +0.0000000000000000e+00 +5.7499999022305639e+00 -2.9641050773127352e-02 -5.5679626521087999e-01 +5.4275515848969860e-03
5.7999999999999874e+00 +8.3640657699367154e+00 +0.0000000000000000e+00 +5.7999998996554059e+00 -2.9642572799187281e-02 -5.5682520877731401e-01 +5.4287061536007668e-03
5.8499999999999872e+00 +8.3640495834412807e+00 +0.0000000000000000e+00 +5.8499998970353628e+00 -2.9644101324756353e-02 -5.5685428965835748e-01 +5.4298658102692587e-03
5.8999999999999870e+00 +8.3640332576906609e+00 +0.0000000000000000e+00 +5.8999998943700449e+00 -2.9645636308418450e-02 -5.5688350555073884e-01 +5.4310304468094513e-03
