# multipoles
# s[mm] polynom_b[n=0][T/m^n] polynom_b[n=1][T/m^n] polynom_b[n=2][T/m^n] polynom_b[n=3][T/m^n] polynom_b[n=4][T/m^n] polynom_b[n=5][T/m^n] polynom_b[n=6][T/m^n] 
+0.0000000000000000e+00 -5.2501868842438781e-01 +6.8624598886156338e+00 +5.7653442757409277e+00 -8.7620893367053966e+01 -3.5405759486906263e+03 +3.5651627751985879e+05 +2.3011792152389996e+07 
+5.0000000000000003e-02 -5.2501111976522452e-01 +6.8620456756968737e+00 +5.7729144946555939e+00 -8.7704065259786560e+01 -3.4838343346302372e+03 +3.5607366558388987e+05 +2.2677748291600782e+07 
+1.0000000000000001e-01 -5.2500391784711509e-01 +6.8616516483602323e+00 +5.7796089464975013e+00 -8.7784239948044188e+01 -3.4183697600210312e+03 +3.5561240230104519e+05 +2.2295075180166353e+07 
+1.5000000000000002e-01 -5.2499708298789038e-01 +6.8612778133382051e+00 +5.7854501609042357e+00 -8.7861747099676705e+01 -3.3446218144390032e+03 +3.5513574747533066e+05 +2.1866143280996166e+07 
+2.0000000000000001e-01 -5.2499061550536663e-01 +6.8609241773691885e+00 +5.7904606616983063e+00 -8.7936916592668766e+01 -3.2630299326545678e+03 +3.5464696261779987e+05 +2.1393322023439318e+07 
+2.5000000000000000e-01 -5.2498451571740190e-01 +6.8605907471877652e+00 +5.7946629765976407e+00 -8.8010078122188602e+01 -3.1740336469998701e+03 +3.5414930773703346e+05 +2.0878981464127835e+07 
+2.9999999999999999e-01 -5.2497878394184150e-01 +6.8602775295320058e+00 +5.7980796283021743e+00 -8.8081561493554659e+01 -3.0780723603516103e+03 +3.5364604372322466e+05 +2.0325490809092257e+07 
+3.4999999999999998e-01 -5.2497342049658591e-01 +6.8599845311416425e+00 +5.8007331463456566e+00 -8.8151696559487846e+01 -2.9755856579281581e+03 +3.5314043188531615e+05 +1.9735220485930119e+07 
+3.9999999999999997e-01 -5.2496842569952384e-01 +6.8597117587548908e+00 +5.8026460549096699e+00 -8.8220813067814959e+01 -2.8670129808964671e+03 +3.5263573260711861e+05 +1.9110539951827552e+07 
+4.4999999999999996e-01 -5.2496379986857689e-01 +6.8594592191152977e+00 +5.8038408807368560e+00 -8.8289240972274854e+01 -2.7527938394822058e+03 +3.5213520802175731e+05 +1.8453819131401677e+07 
+4.9999999999999994e-01 -5.2495954332166972e-01 +6.8592269189612649e+00 +5.8043401482687127e+00 -8.8357309970210508e+01 -2.6333676802541900e+03 +3.5164211809060472e+05 +1.7767427509893648e+07 
+5.4999999999999993e-01 -5.2495565637675545e-01 +6.8590148650369596e+00 +5.8041663838098270e+00 -8.8425349979066908e+01 -2.5091740014971315e+03 +3.5115972462021466e+05 +1.7053734928549878e+07 
+5.9999999999999998e-01 -5.2495213935181473e-01 +6.8588230640844641e+00 +5.8033421154871476e+00 -8.8493690802144229e+01 -2.3806523509372587e+03 +3.5069128848341899e+05 +1.6315111563753838e+07 
+6.5000000000000002e-01 -5.2494899256482286e-01 +6.8586515228490024e+00 +5.8018898674615009e+00 -8.8562662343754482e+01 -2.2482421685796421e+03 +3.5024007137971529e+05 +1.5553926859265408e+07 
+7.0000000000000007e-01 -5.2494621633378280e-01 +6.8585002480739581e+00 +5.7998321654960208e+00 -8.8632594403177521e+01 -2.1123829364224030e+03 +3.4980933414059167e+05 +1.4772550537730213e+07 
+7.5000000000000011e-01 -5.2494381097671394e-01 +6.8583692465040293e+00 +5.7971915354023595e+00 -8.8703816806935336e+01 -1.9735141395987043e+03 +3.4940233783356746e+05 +1.3973352350152632e+07 
+8.0000000000000016e-01 -5.2494177681167109e-01 +6.8582585248872725e+00 +5.7939905061187975e+00 -8.8776659494660962e+01 -1.8320753473797413e+03 +3.4902234446113155e+05 +1.3158702613207230e+07 
+8.5000000000000020e-01 -5.2494011415668951e-01 +6.8581680899676130e+00 +5.7902515995157957e+00 -8.8851452210997536e+01 -1.6885059332754138e+03 +3.4867261444562406e+05 +1.2330970302202698e+07 
+9.0000000000000024e-01 -5.2493882332985231e-01 +6.8580979484925351e+00 +5.7859973439892167e+00 -8.8928524817775639e+01 -1.5432454557315050e+03 +3.4835640916251915e+05 +1.1492525672404578e+07 
+9.5000000000000029e-01 -5.2493790464925683e-01 +6.8580481072090320e+00 +5.7812502664305052e+00 -8.9008207135321967e+01 -1.3967334265181262e+03 +3.4807698968519812e+05 +1.0645738642315125e+07 
+1.0000000000000002e+00 -5.2493735843299372e-01 +6.8580185728646184e+00 +5.7760328896733260e+00 -8.9090828980907361e+01 -1.2494092481690989e+03 +3.4783761707258638e+05 +9.7929783911093175e+06 
+1.0500000000000003e+00 -5.2493718499921682e-01 +6.8580093522068291e+00 +5.7703677447292048e+00 -8.9176720138502347e+01 -1.1017125437238290e+03 +3.4764155209715466e+05 +8.9366155850693267e+06 
+1.1000000000000003e+00 -5.2493738466604634e-01 +6.8580204519847250e+00 +5.7642773537405185e+00 -8.9266210441435106e+01 -9.5408270057462687e+02 +3.4749205599313916e+05 +8.0790193135605948e+06 
+1.1500000000000004e+00 -5.2493795775165475e-01 +6.8580518789456155e+00 +5.7577842445353378e+00 -8.9359629623011202e+01 -8.0695925343254089e+02 +3.4739238918507053e+05 +7.2225596353883585e+06 
+1.2000000000000004e+00 -5.2493890457422232e-01 +6.8581036398373376e+00 +5.7509109438030706e+00 -8.9457307408463237e+01 -6.6078171161321598e+02 +3.4734581202803459e+05 +6.3696064570471281e+06 
+1.2500000000000004e+00 -5.2494022545193875e-01 +6.8581757414097551e+00 +5.7436799765612294e+00 -8.9559573590568235e+01 -5.1598953660808434e+02 +3.4735558548603160e+05 +5.5225293499206891e+06 
+1.3000000000000005e+00 -5.2494192070303003e-01 +6.8582681904094747e+00 +5.7361138709330408e+00 -8.9666757805475044e+01 -3.7302227290729445e+02 +3.4742496926614566e+05 +4.6836984434334720e+06 
+1.3500000000000005e+00 -5.2494399064571873e-01 +6.8583809935870930e+00 +5.7282351516775414e+00 -8.9779189818658523e+01 -2.3231937402362652e+02 +3.4755722412118176e+05 +3.8554832467166046e+06 
+1.4000000000000006e+00 -5.2494643559826415e-01 +6.8585141576889317e+00 +5.7200663470608113e+00 -8.9897199214573661e+01 -9.4320392223720873e+01 +3.4775560940988327e+05 +3.0402539535360355e+06 
+1.4500000000000006e+00 -5.2494925587892238e-01 +6.8586676894649532e+00 +5.7116299812194624e+00 -9.0021115688845100e+01 +4.0535238249884642e+01 +3.4802338537715090e+05 +2.2403799329735222e+06 
+1.5000000000000007e+00 -5.2495245180599304e-01 +6.8588415956623674e+00 +5.7029485832798574e+00 -9.0151268811683821e+01 +1.7180794318259072e+02 +3.4836381130821351e+05 +1.4582315188387369e+06 
+1.5500000000000007e+00 -5.2495602369777483e-01 +6.8590358830302707e+00 +5.6940446791703652e+00 -9.0287988209774937e+01 +2.9905823840588658e+02 +3.4878014698930923e+05 +6.9617841687427985e+05 
+1.6000000000000008e+00 -5.2495997187259213e-01 +6.8592505583150194e+00 +5.6849407962640504e+00 -9.0431603364380805e+01 +4.2184659625498421e+02 +3.4927565100220771e+05 -4.3409352677987765e+04 
+1.6500000000000008e+00 -5.2496429664876842e-01 +6.8594856282639061e+00 +5.6756594581440627e+00 -9.0582443788842198e+01 +5.3973360026653711e+02 +3.4985358229419851e+05 -7.5816255939457740e+05 
+1.7000000000000008e+00 -5.2496899834467858e-01 +6.8597410996256007e+00 +5.6662231952815532e+00 -9.0740839021774022e+01 +6.5227963654272901e+02 +3.5051720001054718e+05 -1.4457105952311414e+06 
+1.7500000000000009e+00 -5.2497407727869505e-01 +6.8600169791447962e+00 +5.6566545338828647e+00 -9.0907118424850424e+01 +7.5904521753209292e+02 +3.5126976191979996e+05 -2.1036837539010774e+06 
+1.8000000000000009e+00 -5.2497953376920226e-01 +6.8603132735692762e+00 +5.6469759997217484e+00 -9.1081611461702337e+01 +8.5959085994197824e+02 +3.5211452665233955e+05 -2.7297123279042556e+06 
+1.8500000000000010e+00 -5.2498536813462238e-01 +6.8606299896449068e+00 +5.6372101218529043e+00 -9.1264647495885541e+01 +9.5347699412855468e+02 +3.5305475205036317e+05 -3.3214260373625010e+06 
+1.9000000000000010e+00 -5.2499158069337593e-01 +6.8609671341149125e+00 +5.6273794261683499e+00 -9.1456555770557529e+01 +1.0402641362684144e+03 +3.5409369505221461e+05 -3.8764551879213690e+06 
+1.9500000000000011e+00 -5.2499817176391306e-01 +6.8613247137241711e+00 +5.6175064404441883e+00 -9.1657665572245762e+01 +1.1195127537965195e+03 +3.5523461297860881e+05 -4.3924297646065755e+06 
+2.0000000000000009e+00 -5.2500514166469614e-01 +6.8617027352182864e+00 +5.6076136918474511e+00 -9.1868306196455222e+01 +1.1907833276438571e+03 +3.5648076327143016e+05 -4.8669798349201791e+06 
+2.0500000000000007e+00 -5.2501249039259024e-01 +6.8621011832570105e+00 +5.5977180841982968e+00 -9.2088589006429089e+01 +1.2537446274125755e+03 +3.5783370729967294e+05 -5.2982865640069973e+06 
+2.1000000000000005e+00 -5.2502021665766008e-01 +6.8625199469907541e+00 +5.5878145664006649e+00 -9.2317722692611738e+01 +1.3084947326658212e+03 +3.5928781185909430e+05 -5.6867034807626745e+06 
+2.1500000000000004e+00 -5.2502831884816759e-01 +6.8629588898887901e+00 +5.5778927401718565e+00 -9.2554682720845648e+01 +1.3552381664582949e+03 +3.6083553732527088e+05 -6.0331193515368775e+06 
+2.2000000000000002e+00 -5.2503679535240799e-01 +6.8634178754226491e+00 +5.5679422106122445e+00 -9.2798444624722649e+01 +1.3941793640819783e+03 +3.6246934459825925e+05 -6.3384223640494095e+06 
+2.2500000000000000e+00 -5.2504564455869318e-01 +6.8638967670610871e+00 +5.5579525829078538e+00 -9.3047983799501779e+01 +1.4255227601241661e+03 +3.6418169342364988e+05 -6.6035007064590184e+06 
+2.2999999999999998e+00 -5.2505486485533026e-01 +6.8643954282811759e+00 +5.5479134593499149e+00 -9.3302275954633600e+01 +1.4494728601321615e+03 +3.6596504609933333e+05 -6.8292430190807423e+06 
+2.3499999999999996e+00 -5.2506445463065221e-01 +6.8649137225505346e+00 +5.5378144442231232e+00 -9.3560296386498408e+01 +1.4662341172824213e+03 +3.6781186151441472e+05 -7.0165375936291963e+06 
+2.3999999999999995e+00 -5.2507441227299512e-01 +6.8654515133451151e+00 +5.5276451396551041e+00 -9.3821020709661994e+01 +1.4760110446879200e+03 +3.6971460116240225e+05 -7.1662731338364072e+06 
+2.4499999999999993e+00 -5.2508473617072726e-01 +6.8660086641363476e+00 +5.5173951513265598e+00 -9.4083424323671267e+01 +1.4790080565671080e+03 +3.7166572472013731e+05 -7.2793376654751115e+06 
+2.4999999999999991e+00 -5.2509542471220483e-01 +6.8665850383997249e+00 +5.5070540802218702e+00 -9.4346482770526478e+01 +1.4754296906460868e+03 +3.7365769301888079e+05 -7.3566200312449522e+06 
+2.5499999999999989e+00 -5.2510647628582818e-01 +6.8671804996106216e+00 +5.4966115326469405e+00 -9.4609171563987061e+01 +1.4654803457581856e+03 +3.7568296664104582e+05 -7.3990081593345571e+06 
+2.5999999999999988e+00 -5.2511788927998182e-01 +6.8677949112441894e+00 +5.4860571101061151e+00 -9.4870466177544444e+01 +1.4493645431528278e+03 +3.7773400578209094e+05 -7.4073907730614627e+06 
+2.6499999999999986e+00 -5.2512966208307377e-01 +6.8684281367765525e+00 +5.4753804156115837e+00 -9.5129342097888880e+01 +1.4272867667580272e+03 +3.7980327071721008e+05 -7.3826563586881021e+06 
+2.6999999999999984e+00 -5.2514179308352082e-01 +6.8690800396866827e+00 +5.4645710517729817e+00 -9.5384774908726015e+01 +1.3994515052875158e+03 +3.8188322249698330e+05 -7.3256934087203201e+06 
+2.7499999999999982e+00 -5.2515428066976544e-01 +6.8697504834528118e+00 +5.4536186231131074e+00 -9.5635740127254849e+01 +1.3660632008201355e+03 +3.8396632156017231e+05 -7.2373901228979435e+06 
+2.7999999999999980e+00 -5.2516712323024017e-01 +6.8704393315524772e+00 +5.4425127304415994e+00 -9.5881213223239726e+01 +1.3273263887782457e+03 +3.8604502794003376e+05 -7.1186353007417955e+06 
+2.8499999999999979e+00 -5.2518031915340446e-01 +6.8711464474665025e+00 +5.4312429771223378e+00 -9.6120169772617388e+01 +1.2834455377567278e+03 +3.8811180249271268e+05 -6.9703173018023567e+06 
+2.8999999999999977e+00 -5.2519386682772307e-01 +6.8718716946760630e+00 +5.4197989650777147e+00 -9.6351585333294707e+01 +1.2346251525360178e+03 +3.9015910586263885e+05 -6.7933247160647074e+06 
+2.9499999999999975e+00 -5.2520776464167573e-01 +6.8726149366628277e+00 +5.4081702968786125e+00 -9.6574435459240974e+01 +1.1810697195986581e+03 +3.9217939861896227e+05 -6.5885460075888764e+06 
+2.9999999999999973e+00 -5.2522201098374999e-01 +6.8733760369086987e+00 +5.3963465745604653e+00 -9.6787695694366462e+01 +1.1229837353885948e+03 +3.9416514123078203e+05 -6.3568696886932105e+06 
+3.0499999999999972e+00 -5.2523660424244745e-01 +6.8741548588990922e+00 +5.3843174001074665e+00 -9.6990341687852933e+01 +1.0605717026392583e+03 +3.9610879493670230e+05 -6.0991843351680180e+06 
+3.0999999999999970e+00 -5.2525154280627795e-01 +6.8749512661164536e+00 +5.3720723753795410e+00 -9.7181348944530598e+01 +9.9403811841091442e+02 +3.9800281975387537e+05 -5.8163784450357379e+06 
+3.1499999999999968e+00 -5.2526682506375932e-01 +6.8757651220497475e+00 +5.3596011012855769e+00 -9.7359693206755225e+01 +9.2358750871570874e+02 +3.9983967758127535e+05 -5.5093407260853732e+06 
+3.1999999999999966e+00 -5.2528244940342161e-01 +6.8765962901834001e+00 +5.3468931792456136e+00 -9.7524350007883797e+01 +8.4942438138773684e+02 +4.0161182856736158e+05 -5.1789597457554247e+06 
+3.2499999999999964e+00 -5.2529841421381906e-01 +6.8774446340053252e+00 +5.3339382124018435e+00 -9.7674294987567677e+01 +7.7175320011379449e+02 +4.0331173363298166e+05 -4.8261237794074286e+06 
+3.2999999999999963e+00 -5.2531471788348516e-01 +6.8783100170057203e+00 +5.3207257988637258e+00 -9.7808503863274822e+01 +6.9077855854113398e+02 +4.0493185432020423e+05 -4.4517219593260707e+06 
+3.3499999999999961e+00 -5.2533135880098369e-01 +6.8791923026729371e+00 +5.3072455401780143e+00 -9.7925952236571533e+01 +6.0670495447414589e+02 +4.0646465111240454e+05 -4.0566427548635583e+06 
+3.3999999999999959e+00 -5.2534833535489334e-01 +6.8800913545023361e+00 +5.2934870382611470e+00 -9.8025615972778809e+01 +5.1973687941966318e+02 +4.0790258660378680e+05 -3.6417746079529785e+06 
+3.4499999999999957e+00 -5.2536564593378521e-01 +6.8810070359822628e+00 +5.2794398919963896e+00 -9.8106470627235254e+01 +4.3007890026278494e+02 +4.0923812079978705e+05 -3.2080064415260325e+06 
+3.4999999999999956e+00 -5.2538328892624764e-01 +6.8819392106091355e+00 +5.2650937014495760e+00 -9.8167492041453031e+01 +3.3793555444986634e+02 +4.1046371591740818e+05 -2.7562269902946632e+06 
+3.5499999999999954e+00 -5.2540126272088039e-01 +6.8828877418770960e+00 +5.2504380670519266e+00 -9.8207655953924601e+01 +2.4351136240005829e+02 +4.1157183332549024e+05 -2.2873248418324911e+06 
+3.5999999999999952e+00 -5.2541956570629211e-01 +6.8838524932817240e+00 +5.2354625890167759e+00 -9.8225938122609151e+01 +1.4701085039419900e+02 +4.1255493443694885e+05 -1.8021886251594590e+06 
+3.6499999999999950e+00 -5.2543819627108523e-01 +6.8848333283236931e+00 +5.2201568647708774e+00 -9.8221314487450101e+01 +4.8638617718584527e+01 +4.1340548208564834e+05 -1.3017074511138855e+06 
+3.6999999999999948e+00 -5.2545715280389393e-01 +6.8858301104982784e+00 +5.2045104953042811e+00 -9.8192760732089695e+01 -5.1400832226751263e+01 +4.1411593689479621e+05 -7.8676978180069616e+05 
+3.7499999999999947e+00 -5.2547643369334140e-01 +6.8868427033071935e+00 +5.1885130785239246e+00 -9.8139252792712213e+01 -1.5290291868058733e+02 +4.1467876154930040e+05 -2.5826458046959399e+05 
+3.7999999999999945e+00 -5.2549603732807004e-01 +6.8878709702536627e+00 +5.1721542135290441e+00 -9.8059766614011252e+01 -2.5566309296817946e+02 +4.1508641862388683e+05 +2.8291941177973320e+05 
+3.8499999999999943e+00 -5.2551596209672369e-01 +6.8889147748397379e+00 +5.1554234986046827e+00 -9.7953278084147655e+01 -3.5947679009728245e+02 +4.1533137021627434e+05 +8.3589336451790109e+05 
+3.8999999999999941e+00 -5.2553620638794962e-01 +6.8899739805703399e+00 +5.1383105305258363e+00 -9.7818763163349715e+01 -4.6413940049794678e+02 +4.1540607886749663e+05 +1.3997681322106773e+06 
+3.9499999999999940e+00 -5.2555676859042044e-01 +6.8910484509508851e+00 +5.1208049091846473e+00 -9.7655197810971146e+01 -5.6944640593622375e+02 +4.1530300705444440e+05 +1.9736552190395670e+06 
+3.9999999999999938e+00 -5.2557764709279375e-01 +6.8921380494895716e+00 +5.1028962304947214e+00 -9.7461558064314744e+01 -6.7519318175065325e+02 +4.1501461782059527e+05 +2.5566654167658896e+06 
+4.0499999999999936e+00 -5.2559884014428926e-01 +6.8932426422585866e+00 +5.0845758371673284e+00 -9.7237205294011119e+01 -7.8118116229695704e+02 +4.1453599438108166e+05 +3.1478637283265344e+06 
+4.0999999999999934e+00 -5.2562034543682290e-01 +6.8943620985035370e+00 +5.0658420676508324e+00 -9.6983160756996028e+01 -8.8721758310523637e+02 +4.1387344798583467e+05 +3.7460076462512161e+06 
+4.1499999999999932e+00 -5.2564216052310975e-01 +6.8954962865280383e+00 +5.0466950357588036e+00 -9.6700893639625392e+01 -9.9310616306599627e+02 +4.1303629039125948e+05 +4.3497445557660367e+06 
+4.1999999999999931e+00 -5.2566428295589751e-01 +6.8966450746399586e+00 +5.0271348596868233e+00 -9.6391873310436750e+01 -1.0986507324153699e+03 +4.1203383469359047e+05 +4.9577225842339247e+06 
+4.2499999999999929e+00 -5.2568671028790614e-01 +6.8978083311457530e+00 +5.0071616518185831e+00 -9.6057569101422459e+01 -1.2036549626835169e+03 +4.1087539376596309e+05 +5.5685887772467136e+06 
+4.2999999999999927e+00 -5.2570944007188503e-01 +6.8989859243529077e+00 +4.9867755285923749e+00 -9.5699450367995240e+01 -1.3079226314690609e+03 +4.0957028059424518e+05 +6.1809908845147369e+06 
+4.3499999999999925e+00 -5.2573246986058664e-01 +6.9001777225698913e+00 +4.9659766059867847e+00 -9.5318986544039589e+01 -1.4112575031151812e+03 +4.0812780893989449e+05 +6.7935765645599291e+06 
+4.3999999999999924e+00 -5.2575579720675825e-01 +6.9013835941030583e+00 +4.9447649986218574e+00 -9.4917646963571954e+01 -1.5134633048296964e+03 +4.0655729169092240e+05 +7.4049932184823845e+06 
+4.4499999999999922e+00 -5.2577941966317698e-01 +6.9026034072623759e+00 +4.9231408250845128e+00 -9.4496901120161510e+01 -1.6143438674461652e+03 +4.0486804306051310e+05 +8.0138889371136306e+06 
+4.4999999999999920e+00 -5.2580333478259489e-01 +6.9038370303566738e+00 +4.9011041987296853e+00 -9.4058218478950749e+01 -1.7137028771390874e+03 +4.0306937708915095e+05 +8.6189108196110651e+06 
+4.5499999999999918e+00 -5.2582754011780253e-01 +6.9050843316962105e+00 +4.8786552389671565e+00 -9.3603068565712334e+01 -1.8113441820978289e+03 +4.0117060830422246e+05 +9.2187070538248383e+06 
+4.5999999999999917e+00 -5.2585203322156671e-01 +6.9063451795890751e+00 +4.8557940604400232e+00 -9.3132920839415590e+01 -1.9070714997524751e+03 +3.9918105074296857e+05 +9.8119249341351110e+06 
+4.6499999999999915e+00 -5.2587681164668287e-01 +6.9076194423469799e+00 +4.8325207819325087e+00 -9.2649244916564413e+01 -2.0006886558563008e+03 +3.9711001975044259e+05 +1.0397212473150954e+07 
+4.6999999999999913e+00 -5.2590187294592783e-01 +6.9089069882795080e+00 +4.8088355183398237e+00 -9.2153510330877367e+01 -2.0919993694826558e+03 +3.9496682997562224e+05 +1.0973216957091056e+07 
+4.7499999999999911e+00 -5.2592721467210324e-01 +6.9102076856977890e+00 +4.7847383884657928e+00 -9.1647186707767332e+01 -2.1808074645894199e+03 +3.9276079691287316e+05 +1.1538586377212208e+07 
+4.7999999999999909e+00 -5.2595283437801077e-01 +6.9115214029132872e+00 +4.7602295099330805e+00 -9.1131743700904664e+01 -2.2669167232052528e+03 +3.9050123629879107e+05 +1.2091968401849318e+07 
+4.8499999999999908e+00 -5.2597872961645209e-01 +6.9128480082370931e+00 +4.7353090007847518e+00 -9.0608650952867194e+01 -2.3501309455737191e+03 +3.8819746377117193e+05 +1.2632010847550331e+07 
+4.8999999999999906e+00 -5.2600489794024641e-01 +6.9141873699838303e+00 +4.7099769805893255e+00 -9.0079378275790290e+01 -2.4302539616127970e+03 +3.8585879641538509e+05 +1.3157361688725157e+07 
+4.9499999999999904e+00 -5.2603133690219672e-01 +6.9155393564608847e+00 +4.6842335667212138e+00 -8.9545395210958517e+01 -2.5070895480070249e+03 +3.8349454915844963e+05 +1.3666668559654554e+07 
+4.9999999999999902e+00 -5.2605804405512047e-01 +6.9169038359855053e+00 +4.6580788771764636e+00 -8.9008171713807414e+01 -2.5804414823632615e+03 +3.8111404031588975e+05 +1.4158579042084645e+07 
+5.0499999999999901e+00 -5.2608501695184318e-01 +6.9182806768691680e+00 +4.6315130325802425e+00 -8.8469177524507572e+01 -2.6501136239699722e+03 +3.7872658648754377e+05 +1.4631741307030581e+07 
