# trajectory
# s[mm] rx[mm] ry[mm] rz[mm] px[rad] py[rad] pz[rad]
0.0000000000000000e+00 +8.2850000000000001e+00 +0.0000000000000000e+00 +0.0000000000000000e+00 +0.0000000000000000e+00 +0.0000000000000000e+00 +1.0000000000000000e+00
-5.0000000000000003e-02 +8.2849999307634761e+00 +0.0000000000000000e+00 -4.9999999999936082e-02 +2.7694605946405173e-06 +0.0000000000000000e+00 +9.9999999999616507e-01
-1.0000000000000001e-01 +8.2849997230539607e+00 +0.0000000000000000e+00 -9.9999999999488665e-02 +5.5389199337368244e-06 +0.0000000000000000e+00 +9.9999999998466016e-01
-1.5000000000000002e-01 +8.2849993768714754e+00 +0.0000000000000000e+00 -1.4999999999827426e-01 +8.3083797056036265e-06 +0.0000000000000000e+00 +9.9999999996548539e-01
-2.0000000000000001e-01 +8.2849988922159543e+00 +0.0000000000000000e+00 -1.9999999999590937e-01 +1.1077841595921105e-05 +0.0000000000000000e+00 +9.9999999993864064e-01
-2.5000000000000000e-01 +8.2849982690872519e+00 +0.0000000000000000e+00 -2.4999999999201050e-01 +1.3847307287735000e-05 +0.0000000000000000e+00 +9.9999999990412591e-01
-2.9999999999999999e-01 +8.2849975074851336e+00 +0.0000000000000000e+00 -2.9999999998619414e-01 +1.6616778461456675e-05 +0.0000000000000000e+00 +9.9999999986194121e-01
-3.4999999999999998e-01 +8.2849966074092851e+00 +0.0000000000000000e+00 -3.4999999997807679e-01 +1.9386256794863206e-05 +0.0000000000000000e+00 +9.9999999981208643e-01
-3.9999999999999997e-01 +8.2849955688593067e+00 +0.0000000000000000e+00 -3.9999999996727498e-01 +2.2155743963097453e-05 +0.0000000000000000e+00 +9.9999999975456144e-01
-4.4999999999999996e-01 +8.2849943918347133e+00 +0.0000000000000000e+00 -4.4999999995340512e-01 +2.4925241638668136e-05 +0.0000000000000000e+00 +9.9999999968936615e-01
-4.9999999999999994e-01 +8.2849930763349384e+00 +0.0000000000000000e+00 -4.9999999993608374e-01 +2.7694751491449909e-05 +0.0000000000000000e+00 +9.9999999961650032e-01
-5.4999999999999993e-01 +8.2849916223593318e+00 +0.0000000000000000e+00 -5.4999999991492732e-01 +3.0464275188683451e-05 +0.0000000000000000e+00 +9.9999999953596397e-01
-5.9999999999999998e-01 +8.2849900299071599e+00 +0.0000000000000000e+00 -5.9999999988955233e-01 +3.3233814394975528e-05 +0.0000000000000000e+00 +9.9999999944775675e-01
-6.5000000000000002e-01 +8.2849882989776056e+00 +0.0000000000000000e+00 -6.4999999985957513e-01 +3.6003370772299067e-05 +0.0000000000000000e+00 +9.9999999935187855e-01
-7.0000000000000007e-01 +8.2849864295697682e+00 +0.0000000000000000e+00 -6.9999999982461225e-01 +3.8772945979993260e-05 +0.0000000000000000e+00 +9.9999999924832927e-01
-7.5000000000000011e-01 +8.2849844216826654e+00 +0.0000000000000000e+00 -7.4999999978428011e-01 +4.1542541674763613e-05 +0.0000000000000000e+00 +9.9999999913710858e-01
-8.0000000000000016e-01 +8.2849822753152313e+00 +0.0000000000000000e+00 -7.9999999973819524e-01 +4.4312159510682026e-05 +0.0000000000000000e+00 +9.9999999901821623e-01
-8.5000000000000020e-01 +8.2849799904663168e+00 +0.0000000000000000e+00 -8.4999999968597395e-01 +4.7081801139186890e-05 +0.0000000000000000e+00 +9.9999999889165192e-01
-9.0000000000000024e-01 +8.2849775671346926e+00 +0.0000000000000000e+00 -8.9999999962723254e-01 +4.9851468209083152e-05 +0.0000000000000000e+00 +9.9999999875741552e-01
-9.5000000000000029e-01 +8.2849750053190441e+00 +0.0000000000000000e+00 -9.4999999956158754e-01 +5.2621162366542388e-05 +0.0000000000000000e+00 +9.9999999861550659e-01
-1.0000000000000002e+00 +8.2849723050179769e+00 +0.0000000000000000e+00 -9.9999999948865526e-01 +5.5390885255102882e-05 +0.0000000000000000e+00 +9.9999999846592491e-01
-1.0500000000000003e+00 +8.2849694662300131e+00 +0.0000000000000000e+00 -1.0499999994080520e+00 +5.8160638515669712e-05 +0.0000000000000000e+00 +9.9999999830867004e-01
-1.1000000000000003e+00 +8.2849664889535930e+00 +0.0000000000000000e+00 -1.0999999993193943e+00 +6.0930423786514827e-05 +0.0000000000000000e+00 +9.9999999814374174e-01
-1.1500000000000004e+00 +8.2849633731870735e+00 +0.0000000000000000e+00 -1.1499999992222982e+00 +6.3700242703277116e-05 +0.0000000000000000e+00 +9.9999999797113959e-01
-1.2000000000000004e+00 +8.2849601189287334e+00 +0.0000000000000000e+00 -1.1999999991163803e+00 +6.6470096898962492e-05 +0.0000000000000000e+00 +9.9999999779086313e-01
-1.2500000000000004e+00 +8.2849567261767678e+00 +0.0000000000000000e+00 -1.2499999990012567e+00 +6.9239988003943977e-05 +0.0000000000000000e+00 +9.9999999760291203e-01
-1.3000000000000005e+00 +8.2849531949292903e+00 +0.0000000000000000e+00 -1.2999999988765436e+00 +7.2009917645961762e-05 +0.0000000000000000e+00 +9.9999999740728585e-01
-1.3500000000000005e+00 +8.2849495251843344e+00 +0.0000000000000000e+00 -1.3499999987418574e+00 +7.4779887450123286e-05 +0.0000000000000000e+00 +9.9999999720398414e-01
-1.4000000000000006e+00 +8.2849457169398502e+00 +0.0000000000000000e+00 -1.3999999985968141e+00 +7.7549899038903341e-05 +0.0000000000000000e+00 +9.9999999699300646e-01
-1.4500000000000006e+00 +8.2849417701937078e+00 +0.0000000000000000e+00 -1.4499999984410301e+00 +8.0319954032144125e-05 +0.0000000000000000e+00 +9.9999999677435236e-01
-1.5000000000000007e+00 +8.2849376849436975e+00 +0.0000000000000000e+00 -1.4999999982741214e+00 +8.3090054047055343e-05 +0.0000000000000000e+00 +9.9999999654802130e-01
-1.5500000000000007e+00 +8.2849334611875260e+00 +0.0000000000000000e+00 -1.5499999980957042e+00 +8.5860200698214241e-05 +0.0000000000000000e+00 +9.9999999631401282e-01
-1.6000000000000008e+00 +8.2849290989228237e+00 +0.0000000000000000e+00 -1.5999999979053947e+00 +8.8630395597565743e-05 +0.0000000000000000e+00 +9.9999999607232637e-01
-1.6500000000000008e+00 +8.2849245981471356e+00 +0.0000000000000000e+00 -1.6499999977028088e+00 +9.1400640354422481e-05 +0.0000000000000000e+00 +9.9999999582296140e-01
-1.7000000000000008e+00 +8.2849199588579303e+00 +0.0000000000000000e+00 -1.6999999974875628e+00 +9.4170936575464903e-05 +0.0000000000000000e+00 +9.9999999556591723e-01
-1.7500000000000009e+00 +8.2849151810525932e+00 +0.0000000000000000e+00 -1.7499999972592726e+00 +9.6941285864741335e-05 +0.0000000000000000e+00 +9.9999999530119343e-01
-1.8000000000000009e+00 +8.2849102647284329e+00 +0.0000000000000000e+00 -1.7999999970175542e+00 +9.9711689823668071e-05 +0.0000000000000000e+00 +9.9999999502878933e-01
-1.8500000000000010e+00 +8.2849052098826732e+00 +0.0000000000000000e+00 -1.8499999967620235e+00 +1.0248215005102945e-04 +0.0000000000000000e+00 +9.9999999474870438e-01
-1.9000000000000010e+00 +8.2849000165124629e+00 +0.0000000000000000e+00 -1.8999999964922967e+00 +1.0525266814297793e-04 +0.0000000000000000e+00 +9.9999999446093779e-01
-1.9500000000000011e+00 +8.2848946846148674e+00 +0.0000000000000000e+00 -1.9499999962079893e+00 +1.0802324569303416e-04 +0.0000000000000000e+00 +9.9999999416548901e-01
-2.0000000000000009e+00 +8.2848892141868760e+00 +0.0000000000000000e+00 -1.9999999959087174e+00 +1.1079388429208709e-04 +0.0000000000000000e+00 +9.9999999386235738e-01
-2.0500000000000007e+00 +8.2848836052253940e+00 +0.0000000000000000e+00 -2.0499999955940971e+00 +1.1356458552811371e-04 +0.0000000000000000e+00 +9.9999999355154223e-01
-2.1000000000000005e+00 +8.2848778577272526e+00 +0.0000000000000000e+00 -2.0999999952637438e+00 +1.1633535098309582e-04 +0.0000000000000000e+00 +9.9999999323304278e-01
-2.1500000000000004e+00 +8.2848719716891992e+00 +0.0000000000000000e+00 -2.1499999949172732e+00 +1.1910618222993678e-04 +0.0000000000000000e+00 +9.9999999290685837e-01
-2.2000000000000002e+00 +8.2848659471079067e+00 +0.0000000000000000e+00 -2.1999999945543016e+00 +1.2187708083218127e-04 +0.0000000000000000e+00 +9.9999999257298833e-01
-2.2500000000000000e+00 +8.2848597839799680e+00 +0.0000000000000000e+00 -2.2499999941744440e+00 +1.2464804834401530e-04 +0.0000000000000000e+00 +9.9999999223143177e-01
-2.2999999999999998e+00 +8.2848534823018980e+00 +0.0000000000000000e+00 -2.2999999937773166e+00 +1.2741908631026634e-04 +0.0000000000000000e+00 +9.9999999188218791e-01
-2.3499999999999996e+00 +8.2848470420701368e+00 +0.0000000000000000e+00 -2.3499999933625348e+00 +1.3019019626640333e-04 +0.0000000000000000e+00 +9.9999999152525609e-01
-2.3999999999999995e+00 +8.2848404632810464e+00 +0.0000000000000000e+00 -2.3999999929297142e+00 +1.3296137973853669e-04 +0.0000000000000000e+00 +9.9999999116063543e-01
-2.4499999999999993e+00 +8.2848337459309125e+00 +0.0000000000000000e+00 -2.4499999924784701e+00 +1.3573263824341846e-04 +0.0000000000000000e+00 +9.9999999078832513e-01
-2.4999999999999991e+00 +8.2848268900159461e+00 +0.0000000000000000e+00 -2.4999999920084184e+00 +1.3850397328844230e-04 +0.0000000000000000e+00 +9.9999999040832432e-01
-2.5499999999999989e+00 +8.2848198955322836e+00 +0.0000000000000000e+00 -2.5499999915191744e+00 +1.4127538637164351e-04 +0.0000000000000000e+00 +9.9999999002063222e-01
-2.5999999999999988e+00 +8.2848127624759851e+00 +0.0000000000000000e+00 -2.5999999910103533e+00 +1.4404687898169914e-04 +0.0000000000000000e+00 +9.9999998962524794e-01
-2.6499999999999986e+00 +8.2848054908430360e+00 +0.0000000000000000e+00 -2.6499999904815708e+00 +1.4681845259792800e-04 +0.0000000000000000e+00 +9.9999998922217059e-01
-2.6999999999999984e+00 +8.2847980806293506e+00 +0.0000000000000000e+00 -2.6999999899324418e+00 +1.4959010869029072e-04 +0.0000000000000000e+00 +9.9999998881139929e-01
-2.7499999999999982e+00 +8.2847905318307689e+00 +0.0000000000000000e+00 -2.7499999893625824e+00 +1.5236184871938977e-04 +0.0000000000000000e+00 +9.9999998839293314e-01
-2.7999999999999980e+00 +8.2847828444430558e+00 +0.0000000000000000e+00 -2.7999999887716069e+00 +1.5513367413646955e-04 +0.0000000000000000e+00 +9.9999998796677114e-01
-2.8499999999999979e+00 +8.2847750184619073e+00 +0.0000000000000000e+00 -2.8499999881591309e+00 +1.5790558638341636e-04 +0.0000000000000000e+00 +9.9999998753291242e-01
-2.8999999999999977e+00 +8.2847670538829465e+00 +0.0000000000000000e+00 -2.8999999875247697e+00 +1.6067758689275848e-04 +0.0000000000000000e+00 +9.9999998709135607e-01
-2.9499999999999975e+00 +8.2847589507017236e+00 +0.0000000000000000e+00 -2.9499999868681384e+00 +1.6344967708766621e-04 +0.0000000000000000e+00 +9.9999998664210110e-01
-2.9999999999999973e+00 +8.2847507089137196e+00 +0.0000000000000000e+00 -2.9999999861888518e+00 +1.6622185838195192e-04 +0.0000000000000000e+00 +9.9999998618514652e-01
-3.0499999999999972e+00 +8.2847423285143442e+00 +0.0000000000000000e+00 -3.0499999854865250e+00 +1.6899413218007009e-04 +0.0000000000000000e+00 +9.9999998572049120e-01
-3.0999999999999970e+00 +8.2847338094989365e+00 +0.0000000000000000e+00 -3.0999999847607729e+00 +1.7176649987711725e-04 +0.0000000000000000e+00 +9.9999998524813427e-01
-3.1499999999999968e+00 +8.2847251518627676e+00 +0.0000000000000000e+00 -3.1499999840112101e+00 +1.7453896285883218e-04 +0.0000000000000000e+00 +9.9999998476807472e-01
-3.1999999999999966e+00 +8.2847163556010397e+00 +0.0000000000000000e+00 -3.1999999832374519e+00 +1.7731152250159579e-04 +0.0000000000000000e+00 +9.9999998428031145e-01
-3.2499999999999964e+00 +8.2847074207088838e+00 +0.0000000000000000e+00 -3.2499999824391130e+00 +1.8008418017243123e-04 +0.0000000000000000e+00 +9.9999998378484345e-01
-3.2999999999999963e+00 +8.2846983471813651e+00 +0.0000000000000000e+00 -3.2999999816158079e+00 +1.8285693722900389e-04 +0.0000000000000000e+00 +9.9999998328166961e-01
-3.3499999999999961e+00 +8.2846891350134815e+00 +0.0000000000000000e+00 -3.3499999807671514e+00 +1.8562979501962149e-04 +0.0000000000000000e+00 +9.9999998277078894e-01
-3.3999999999999959e+00 +8.2846797842001614e+00 +0.0000000000000000e+00 -3.3999999798927583e+00 +1.8840275488323400e-04 +0.0000000000000000e+00 +9.9999998225220033e-01
-3.4499999999999957e+00 +8.2846702947362694e+00 +0.0000000000000000e+00 -3.4499999789922429e+00 +1.9117581814943375e-04 +0.0000000000000000e+00 +9.9999998172590265e-01
-3.4999999999999956e+00 +8.2846606666166007e+00 +0.0000000000000000e+00 -3.4999999780652198e+00 +1.9394898613845542e-04 +0.0000000000000000e+00 +9.9999998119189470e-01
-3.5499999999999954e+00 +8.2846508998358885e+00 +0.0000000000000000e+00 -3.5499999771113036e+00 +1.9672226016117611e-04 +0.0000000000000000e+00 +9.9999998065017548e-01
-3.5999999999999952e+00 +8.2846409943887966e+00 +0.0000000000000000e+00 -3.5999999761301087e+00 +1.9949564151911531e-04 +0.0000000000000000e+00 +9.9999998010074376e-01
-3.6499999999999950e+00 +8.2846309502699267e+00 +0.0000000000000000e+00 -3.6499999751212493e+00 +2.0226913150443493e-04 +0.0000000000000000e+00 +9.9999997954359843e-01
-3.6999999999999948e+00 +8.2846207674738146e+00 +0.0000000000000000e+00 -3.6999999740843399e+00 +2.0504273139993932e-04 +0.0000000000000000e+00 +9.9999997897873838e-01
-3.7499999999999947e+00 +8.2846104459949341e+00 +0.0000000000000000e+00 -3.7499999730189946e+00 +2.0781644247907532e-04 +0.0000000000000000e+00 +9.9999997840616228e-01
-3.7999999999999945e+00 +8.2845999858276933e+00 +0.0000000000000000e+00 -3.7999999719248274e+00 +2.1059026600593223e-04 +0.0000000000000000e+00 +9.9999997782586914e-01
-3.8499999999999943e+00 +8.2845893869664380e+00 +0.0000000000000000e+00 -3.8499999708014530e+00 +2.1336420323524191e-04 +0.0000000000000000e+00 +9.9999997723785761e-01
-3.8999999999999941e+00 +8.2845786494054536e+00 +0.0000000000000000e+00 -3.8999999696484848e+00 +2.1613825541237869e-04 +0.0000000000000000e+00 +9.9999997664212648e-01
-3.9499999999999940e+00 +8.2845677731389600e+00 +0.0000000000000000e+00 -3.9499999684655371e+00 +2.1891242377335943e-04 +0.0000000000000000e+00 +9.9999997603867452e-01
-3.9999999999999938e+00 +8.2845567581611181e+00 +0.0000000000000000e+00 -3.9999999672522235e+00 +2.2168670954484358e-04 +0.0000000000000000e+00 +9.9999997542750052e-01
-4.0499999999999936e+00 +8.2845456044660271e+00 +0.0000000000000000e+00 -4.0499999660081585e+00 +2.2446111394403624e-04 +0.0000000000000000e+00 +9.9999997480860325e-01
-4.0999999999999934e+00 +8.2845343120477253e+00 +0.0000000000000000e+00 -4.0999999647329552e+00 +2.2723563817762305e-04 +0.0000000000000000e+00 +9.9999997418198150e-01
-4.1499999999999932e+00 +8.2845228809001910e+00 +0.0000000000000000e+00 -4.1499999634262279e+00 +2.3001028344070488e-04 +0.0000000000000000e+00 +9.9999997354763381e-01
-4.1999999999999931e+00 +8.2845113110173436e+00 +0.0000000000000000e+00 -4.1999999620875901e+00 +2.3278505091670098e-04 +0.0000000000000000e+00 +9.9999997290555909e-01
-4.2499999999999929e+00 +8.2844996023930424e+00 +0.0000000000000000e+00 -4.2499999607166554e+00 +2.3555994177734902e-04 +0.0000000000000000e+00 +9.9999997225575599e-01
-4.2999999999999927e+00 +8.2844877550210896e+00 +0.0000000000000000e+00 -4.2999999593130367e+00 +2.3833495718270510e-04 +0.0000000000000000e+00 +9.9999997159822318e-01
-4.3499999999999925e+00 +8.2844757688952289e+00 +0.0000000000000000e+00 -4.3499999578763484e+00 +2.4111009828114372e-04 +0.0000000000000000e+00 +9.9999997093295934e-01
-4.3999999999999924e+00 +8.2844636440091470e+00 +0.0000000000000000e+00 -4.3999999564062033e+00 +2.4388536620935790e-04 +0.0000000000000000e+00 +9.9999997025996312e-01
-4.4499999999999922e+00 +8.2844513803564741e+00 +0.0000000000000000e+00 -4.4499999549022151e+00 +2.4666076209235900e-04 +0.0000000000000000e+00 +9.9999996957923321e-01
-4.4999999999999920e+00 +8.2844389779307850e+00 +0.0000000000000000e+00 -4.4999999533639974e+00 +2.4943628704347689e-04 +0.0000000000000000e+00 +9.9999996889076836e-01
-4.5499999999999918e+00 +8.2844264367255995e+00 +0.0000000000000000e+00 -4.5499999517911629e+00 +2.5221194216435984e-04 +0.0000000000000000e+00 +9.9999996819456716e-01
-4.5999999999999917e+00 +8.2844137567343807e+00 +0.0000000000000000e+00 -4.5999999501833253e+00 +2.5498772854497454e-04 +0.0000000000000000e+00 +9.9999996749062814e-01
-4.6499999999999915e+00 +8.2844009379505383e+00 +0.0000000000000000e+00 -4.6499999485400973e+00 +2.5776364726360620e-04 +0.0000000000000000e+00 +9.9999996677895009e-01
-4.6999999999999913e+00 +8.2843879803674305e+00 +0.0000000000000000e+00 -4.6999999468610918e+00 +2.6053969938685844e-04 +0.0000000000000000e+00 +9.9999996605953156e-01
-4.7499999999999911e+00 +8.2843748839783586e+00 +0.0000000000000000e+00 -4.7499999451459214e+00 +2.6331588596965330e-04 +0.0000000000000000e+00 +9.9999996533237112e-01
-4.7999999999999909e+00 +8.2843616487765743e+00 +0.0000000000000000e+00 -4.7999999433941998e+00 +2.6609220805523125e-04 +0.0000000000000000e+00 +9.9999996459746743e-01
-4.8499999999999908e+00 +8.2843482747552777e+00 +0.0000000000000000e+00 -4.8499999416055388e+00 +2.6886866667515124e-04 +0.0000000000000000e+00 +9.9999996385481904e-01
-4.8999999999999906e+00 +8.2843347619076155e+00 +0.0000000000000000e+00 -4.8999999397795522e+00 +2.7164526284929056e-04 +0.0000000000000000e+00 +9.9999996310442452e-01
-4.9499999999999904e+00 +8.2843211102266849e+00 +0.0000000000000000e+00 -4.9499999379158517e+00 +2.7442199758584494e-04 +0.0000000000000000e+00 +9.9999996234628252e-01
-4.9999999999999902e+00 +8.2843073197055315e+00 +0.0000000000000000e+00 -4.9999999360140510e+00 +2.7719887188132857e-04 +0.0000000000000000e+00 +9.9999996158039162e-01
-5.0499999999999901e+00 +8.2842933903371545e+00 +0.0000000000000000e+00 -5.0499999340737620e+00 +2.7997588672057399e-04 +0.0000000000000000e+00 +9.9999996080675035e-01
-5.0999999999999899e+00 +8.2842793221145019e+00 +0.0000000000000000e+00 -5.0999999320945975e+00 +2.8275304307673213e-04 +0.0000000000000000e+00 +9.9999996002535718e-01
-5.1499999999999897e+00 +8.2842651150304736e+00 +0.0000000000000000e+00 -5.1499999300761692e+00 +2.8553034191127228e-04 +0.0000000000000000e+00 +9.9999995923621077e-01
-5.1999999999999895e+00 +8.2842507690779215e+00 +0.0000000000000000e+00 -5.1999999280180891e+00 +2.8830778417398211e-04 +0.0000000000000000e+00 +9.9999995843930956e-01
-5.2499999999999893e+00 +8.2842362842496513e+00 +0.0000000000000000e+00 -5.2499999259199708e+00 +2.9108537080296760e-04 +0.0000000000000000e+00 +9.9999995763465221e-01
-5.2999999999999892e+00 +8.2842216605384209e+00 +0.0000000000000000e+00 -5.2999999237814253e+00 +2.9386310272465311e-04 +0.0000000000000000e+00 +9.9999995682223719e-01
-5.3499999999999890e+00 +8.2842068979369419e+00 +0.0000000000000000e+00 -5.3499999216020653e+00 +2.9664098085378120e-04 +0.0000000000000000e+00 +9.9999995600206293e-01
-5.3999999999999888e+00 +8.2841919964378832e+00 +0.0000000000000000e+00 -5.3999999193815027e+00 +2.9941900609341287e-04 +0.0000000000000000e+00 +9.9999995517412810e-01
-5.4499999999999886e+00 +8.2841769560338658e+00 +0.0000000000000000e+00 -5.4499999171193494e+00 +3.0219717933492731e-04 +0.0000000000000000e+00 +9.9999995433843103e-01
-5.4999999999999885e+00 +8.2841617767174682e+00 +0.0000000000000000e+00 -5.4999999148152163e+00 +3.0497550145802194e-04 +0.0000000000000000e+00 +9.9999995349497039e-01
-5.5499999999999883e+00 +8.2841464584812243e+00 +0.0000000000000000e+00 -5.5499999124687163e+00 +3.0775397333071243e-04 +0.0000000000000000e+00 +9.9999995264374453e-01
-5.5999999999999881e+00 +8.2841310013176255e+00 +0.0000000000000000e+00 -5.5999999100794611e+00 +3.1053259580933273e-04 +0.0000000000000000e+00 +9.9999995178475198e-01
-5.6499999999999879e+00 +8.2841154052191204e+00 +0.0000000000000000e+00 -5.6499999076470617e+00 +3.1331136973853486e-04 +0.0000000000000000e+00 +9.9999995091799132e-01
-5.6999999999999877e+00 +8.2840996701781151e+00 +0.0000000000000000e+00 -5.6999999051711301e+00 +3.1609029595128902e-04 +0.0000000000000000e+00 +9.9999995004346087e-01
-5.7499999999999876e+00 +8.2840837961869749e+00 +0.0000000000000000e+00 -5.7499999026512780e+00 +3.1886937526888362e-04 +0.0000000000000000e+00 +9.9999994916115920e-01
-5.7999999999999874e+00 +8.2840677832380241e+00 +0.0000000000000000e+00 -5.7999999000871165e+00 +3.2164860850092506e-04 +0.0000000000000000e+00 +9.9999994827108474e-01
-5.8499999999999872e+00 +8.2840516313235462e+00 +0.0000000000000000e+00 -5.8499998974782565e+00 +3.2442799644533793e-04 +0.0000000000000000e+00 +9.9999994737323594e-01
