# field on trajectory
# s[mm] rx[mm] ry[mm] rz[mm] bx[T] by[T] bz[T]
0.0000000000000000e+00 +8.5270000000000206e+00 +0.0000000000000000e+00 +0.0000000000000000e+00 -2.7467423290795493e-02 -5.2492116720658122e-01 +5.1020676218929695e-03
5.0000000000000003e-02 +8.5269999309457507e+00 +0.0000000000000000e+00 +4.9999999999936401e-02 -2.7467282218690551e-02 -5.2491875700695223e-01 +5.0996689530133227e-03
1.0000000000000001e-01 +8.5269997237846802e+00 +0.0000000000000000e+00 +9.9999999999491399e-02 -2.7467166452776647e-02 -5.2491668842848827e-01 +5.0972779266342944e-03
1.4999999999999999e-01 +8.5269993785186706e+00 +0.0000000000000000e+00 +1.4999999999828301e-01 -2.7467075849708401e-02 -5.2491496049729713e-01 +5.0948946872504701e-03
2.0000000000000001e-01 +8.5269988951477007e+00 +0.0000000000000000e+00 +1.9999999999593099e-01 -2.7467010266142105e-02 -5.2491357223951474e-01 +5.0925193793568743e-03
2.5000000000000000e-01 +8.5269982736681396e+00 +0.0000000000000000e+00 +2.4999999999205300e-01 -2.7466969558736259e-02 -5.2491252268131716e-01 +5.0901521474491273e-03
2.9999999999999999e-01 +8.5269975140799907e+00 +0.0000000000000000e+00 +2.9999999998626697e-01 -2.7466953584148936e-02 -5.2491181084887051e-01 +5.0877931360229535e-03
3.4999999999999998e-01 +8.5269966163905302e+00 +0.0000000000000000e+00 +3.4999999997819298e-01 -2.7466962199036375e-02 -5.2491143576830668e-01 +5.0854424895739577e-03
4.0000000000000002e-01 +8.5269955805888493e+00 +0.0000000000000000e+00 +3.9999999996744801e-01 -2.7466995260062462e-02 -5.2491139646589824e-01 +5.0831003525993517e-03
4.5000000000000001e-01 +8.5269944066858407e+00 +0.0000000000000000e+00 +4.4999999995365197e-01 -2.7467052623883752e-02 -5.2491169196778142e-01 +5.0807668695952686e-03
5.0000000000000000e-01 +8.5269930946742498e+00 +0.0000000000000000e+00 +4.9999999993642202e-01 -2.7467134147164420e-02 -5.2491232130023369e-01 +5.0784421850594745e-03
5.5000000000000004e-01 +8.5269916445577092e+00 +0.0000000000000000e+00 +5.4999999991537796e-01 -2.7467239686565375e-02 -5.2491328348947230e-01 +5.0761264434894199e-03
5.9999999999999998e-01 +8.5269900563289394e+00 +0.0000000000000000e+00 +5.9999999989013697e-01 -2.7467369098752407e-02 -5.2491457756180482e-01 +5.0738197893837270e-03
6.5000000000000002e-01 +8.5269883299988596e+00 +0.0000000000000000e+00 +6.4999999986031898e-01 -2.7467522240385213e-02 -5.2491620254342786e-01 +5.0715223672402358e-03
6.9999999999999996e-01 +8.5269864655601904e+00 +0.0000000000000000e+00 +6.9999999982554195e-01 -2.7467698968131084e-02 -5.2491815746067849e-01 +5.0692343215584662e-03
7.5000000000000000e-01 +8.5269844630165608e+00 +0.0000000000000000e+00 +7.4999999978542398e-01 -2.7467899138653933e-02 -5.2492044133983418e-01 +5.0669557968376867e-03
8.0000000000000004e-01 +8.5269823223679904e+00 +0.0000000000000000e+00 +7.9999999973958402e-01 -2.7468122608619763e-02 -5.2492305320721033e-01 +5.0646869375778874e-03
8.4999999999999998e-01 +8.5269800436108198e+00 +0.0000000000000000e+00 +8.4999999968764095e-01 -2.7468369234696585e-02 -5.2492599208916413e-01 +5.0624278882798043e-03
9.0000000000000002e-01 +8.5269776267450705e+00 +0.0000000000000000e+00 +8.9999999962921295e-01 -2.7468638873551759e-02 -5.2492925701204096e-01 +5.0601787934444397e-03
9.4999999999999996e-01 +8.5269750717743609e+00 +0.0000000000000000e+00 +9.4999999956391801e-01 -2.7468931381851899e-02 -5.2493284700217624e-01 +5.0579397975730727e-03
1.0000000000000000e+00 +8.5269723786986997e+00 +0.0000000000000000e+00 +9.9999999949137597e-01 -2.7469246616265635e-02 -5.2493676108594489e-01 +5.0557110451677715e-03
1.0500000000000000e+00 +8.5269695475144491e+00 +0.0000000000000000e+00 +1.0499999994111999e+00 -2.7469584433463545e-02 -5.2494099828976093e-01 +5.0534926807313902e-03
1.1000000000000001e+00 +8.5269665782288904e+00 +0.0000000000000000e+00 +1.0999999993230201e+00 -2.7469944690112755e-02 -5.2494555763997841e-01 +5.0512848487666261e-03
1.1499999999999999e+00 +8.5269634708311095e+00 +0.0000000000000000e+00 +1.1499999992264500e+00 -2.7470327242887723e-02 -5.2495043816309039e-01 +5.0490876937779568e-03
1.2000000000000000e+00 +8.5269602253283701e+00 +0.0000000000000000e+00 +1.1999999991210999e+00 -2.7470731948456676e-02 -5.2495563888547869e-01 +5.0469013602692445e-03
1.2500000000000000e+00 +8.5269568417206791e+00 +0.0000000000000000e+00 +1.2499999990065900e+00 -2.7471158663491112e-02 -5.2496115883359007e-01 +5.0447259927454378e-03
1.3000000000000000e+00 +8.5269533200044005e+00 +0.0000000000000000e+00 +1.2999999988825499e+00 -2.7471607244664405e-02 -5.2496699703391037e-01 +5.0425617357123375e-03
1.3500000000000001e+00 +8.5269496601795307e+00 +0.0000000000000000e+00 +1.3499999987485900e+00 -2.7472077548649020e-02 -5.2497315251291399e-01 +5.0404087336761360e-03
1.3999999999999999e+00 +8.5269458622533403e+00 +0.0000000000000000e+00 +1.3999999986043401e+00 -2.7472569432115245e-02 -5.2497962429703993e-01 +5.0382671311431900e-03
1.4500000000000000e+00 +8.5269419262185693e+00 +0.0000000000000000e+00 +1.4499999984494001e+00 -2.7473082751739205e-02 -5.2498641141284019e-01 +5.0361370726214622e-03
1.5000000000000000e+00 +8.5269378520752106e+00 +0.0000000000000000e+00 +1.4999999982833900e+00 -2.7473617364194802e-02 -5.2499351288683205e-01 +5.0340187026191117e-03
1.5500000000000000e+00 +8.5269336398268898e+00 +0.0000000000000000e+00 +1.5499999981059500e+00 -2.7474173126154963e-02 -5.2500092774552032e-01 +5.0319121656447361e-03
1.6000000000000001e+00 +8.5269292894736299e+00 +0.0000000000000000e+00 +1.5999999979166799e+00 -2.7474749894294374e-02 -5.2500865501544980e-01 +5.0298176062078658e-03
1.6499999999999999e+00 +8.5269248010117700e+00 +0.0000000000000000e+00 +1.6499999977152000e+00 -2.7475347525289500e-02 -5.2501669372320303e-01 +5.0277351688189807e-03
1.7000000000000000e+00 +8.5269201744449692e+00 +0.0000000000000000e+00 +1.6999999975011300e+00 -2.7475965875814409e-02 -5.2502504289532648e-01 +5.0256649979887975e-03
1.7500000000000000e+00 +8.5269154097695701e+00 +0.0000000000000000e+00 +1.7499999972740901e+00 -2.7476604802546257e-02 -5.2503370155843077e-01 +5.0236072382292482e-03
1.8000000000000000e+00 +8.5269105069892195e+00 +0.0000000000000000e+00 +1.7999999970336999e+00 -2.7477264162159797e-02 -5.2504266873908922e-01 +5.0215620340525319e-03
1.8500000000000001e+00 +8.5269054661039299e+00 +0.0000000000000000e+00 +1.8499999967795799e+00 -2.7477943811331437e-02 -5.2505194346391371e-01 +5.0195295299718451e-03
1.8999999999999999e+00 +8.5269002871100401e+00 +0.0000000000000000e+00 +1.8999999965113501e+00 -2.7478643606739284e-02 -5.2506152475955581e-01 +5.0175098705013957e-03
1.9500000000000000e+00 +8.5268949700112007e+00 +0.0000000000000000e+00 +1.9499999962286201e+00 -2.7479363405058937e-02 -5.2507141165262894e-01 +5.0155032001557029e-03
2.0000000000000000e+00 +8.5268895148037700e+00 +0.0000000000000000e+00 +1.9999999959310100e+00 -2.7480103062968997e-02 -5.2508160316981045e-01 +5.0135096634505560e-03
2.0499999999999998e+00 +8.5268839213858900e+00 +0.0000000000000000e+00 +2.0499999956181298e+00 -2.7480862445032058e-02 -5.2509209823097791e-01 +5.0115293911178280e-03
2.1000000000000001e+00 +8.5268781896593300e+00 +0.0000000000000000e+00 +2.0999999952895898e+00 -2.7481641447197745e-02 -5.2510289532602950e-01 +5.0095624587254608e-03
2.1499999999999999e+00 +8.5268723196240899e+00 +0.0000000000000000e+00 +2.1499999949449999e+00 -2.7482439973226646e-02 -5.2511399283670235e-01 +5.0076089280444757e-03
2.2000000000000002e+00 +8.5268663112729008e+00 +0.0000000000000000e+00 +2.1999999945839801e+00 -2.7483257926883043e-02 -5.2512538914479390e-01 +5.0056688608469376e-03
2.2500000000000000e+00 +8.5268601646093902e+00 +0.0000000000000000e+00 +2.2499999942061502e+00 -2.7484095211928176e-02 -5.2513708263203596e-01 +5.0037423189047631e-03
2.2999999999999998e+00 +8.5268538796335598e+00 +0.0000000000000000e+00 +2.2999999938111202e+00 -2.7484951732125607e-02 -5.2514907168019320e-01 +5.0018293639906685e-03
2.3500000000000001e+00 +8.5268474563490599e+00 +0.0000000000000000e+00 +2.3499999933985198e+00 -2.7485827391238629e-02 -5.2516135467101588e-01 +4.9999300578777005e-03
2.3999999999999999e+00 +8.5268408947522403e+00 +0.0000000000000000e+00 +2.3999999929679601e+00 -2.7486722093034339e-02 -5.2517392998631285e-01 +4.9980444623399234e-03
2.4500000000000002e+00 +8.5268341948467405e+00 +0.0000000000000000e+00 +2.4499999925190501e+00 -2.7487635741278153e-02 -5.2518679600785012e-01 +4.9961726391514888e-03
2.5000000000000000e+00 +8.5268273566252901e+00 +0.0000000000000000e+00 +2.4999999920514302e+00 -2.7488568239740777e-02 -5.2519995111747897e-01 +4.9943146500878036e-03
2.5499999999999998e+00 +8.5268203800987994e+00 +0.0000000000000000e+00 +2.5499999915646900e+00 -2.7489519492187212e-02 -5.2521339369693165e-01 +4.9924705569236475e-03
2.6000000000000001e+00 +8.5268132652563509e+00 +0.0000000000000000e+00 +2.5999999910584699e+00 -2.7490489402391804e-02 -5.2522712212809952e-01 +4.9906404214357528e-03
2.6499999999999999e+00 +8.5268060121015896e+00 +0.0000000000000000e+00 +2.6499999905323701e+00 -2.7491477874124693e-02 -5.2524113479278189e-01 +4.9888243054004647e-03
2.7000000000000002e+00 +8.5267986206345103e+00 +0.0000000000000000e+00 +2.6999999899860101e+00 -2.7492484811158548e-02 -5.2525543007280817e-01 +4.9870222705948848e-03
2.7500000000000000e+00 +8.5267910908551094e+00 +0.0000000000000000e+00 +2.7499999894190199e+00 -2.7493510117267361e-02 -5.2527000635001675e-01 +4.9852343787966684e-03
2.7999999999999998e+00 +8.5267834227670392e+00 +0.0000000000000000e+00 +2.7999999888310101e+00 -2.7494553696224965e-02 -5.2528486200622670e-01 +4.9834606917837617e-03
2.8500000000000001e+00 +8.5267756163666508e+00 +0.0000000000000000e+00 +2.8499999882215898e+00 -2.7495615451809265e-02 -5.2529999542331418e-01 +4.9817012713351148e-03
2.8999999999999999e+00 +8.5267676716539391e+00 +0.0000000000000000e+00 +2.8999999875903901e+00 -2.7496695287798141e-02 -5.2531540498313667e-01 +4.9799561792299701e-03
2.9500000000000002e+00 +8.5267595886289200e+00 +0.0000000000000000e+00 +2.9499999869370299e+00 -2.7497793107970802e-02 -5.2533108906755721e-01 +4.9782254772480954e-03
3.0000000000000000e+00 +8.5267513672915793e+00 +0.0000000000000000e+00 +2.9999999862611100e+00 -2.7498908816107850e-02 -5.2534704605844496e-01 +4.9765092271697835e-03
3.0499999999999998e+00 +8.5267430076455604e+00 +0.0000000000000000e+00 +3.0499999855622502e+00 -2.7500042315989917e-02 -5.2536327433764951e-01 +4.9748074907756167e-03
3.1000000000000001e+00 +8.5267345096872305e+00 +0.0000000000000000e+00 +3.0999999848400801e+00 -2.7501193511401806e-02 -5.2537977228707544e-01 +4.9731203298471515e-03
3.1499999999999999e+00 +8.5267258734165807e+00 +0.0000000000000000e+00 +3.1499999840942201e+00 -2.7502362306128396e-02 -5.2539653828860788e-01 +4.9714478061662400e-03
3.2000000000000002e+00 +8.5267170988336094e+00 +0.0000000000000000e+00 +3.1999999833242700e+00 -2.7503548603956089e-02 -5.2541357072413675e-01 +4.9697899815152359e-03
3.2500000000000000e+00 +8.5267081859419704e+00 +0.0000000000000000e+00 +3.2499999825298600e+00 -2.7504752308671353e-02 -5.2543086797553051e-01 +4.9681469176767737e-03
3.2999999999999998e+00 +8.5266991347380099e+00 +0.0000000000000000e+00 +3.2999999817106000e+00 -2.7505973324064993e-02 -5.2544842842471362e-01 +4.9665186764344619e-03
3.3500000000000001e+00 +8.5266899452181004e+00 +0.0000000000000000e+00 +3.3499999808661101e+00 -2.7507211553929330e-02 -5.2546625045361339e-01 +4.9649053195724019e-03
3.3999999999999999e+00 +8.5266806173895002e+00 +0.0000000000000000e+00 +3.3999999799960099e+00 -2.7508466902054187e-02 -5.2548433244408566e-01 +4.9633069088745171e-03
3.4500000000000002e+00 +8.5266711512522306e+00 +0.0000000000000000e+00 +3.4499999790999101e+00 -2.7509739272233723e-02 -5.2550267277804064e-01 +4.9617235061256834e-03
3.5000000000000000e+00 +8.5266615468026394e+00 +0.0000000000000000e+00 +3.4999999781774398e+00 -2.7511028568265084e-02 -5.2552126983741654e-01 +4.9601551731115016e-03
3.5499999999999998e+00 +8.5266518040407409e+00 +0.0000000000000000e+00 +3.5499999772282100e+00 -2.7512334693945727e-02 -5.2554012200412992e-01 +4.9586019716178374e-03
3.6000000000000001e+00 +8.5266419229665207e+00 +0.0000000000000000e+00 +3.5999999762518402e+00 -2.7513657553074795e-02 -5.2555922766009944e-01 +4.9570639634310461e-03
3.6499999999999999e+00 +8.5266319035799807e+00 +0.0000000000000000e+00 +3.6499999752479400e+00 -2.7514997049453118e-02 -5.2557858518724732e-01 +4.9555412103379718e-03
3.6999999999999900e+00 +8.5266217458847695e+00 +0.0000000000000000e+00 +3.6999999742161398e+00 -2.7516353086881898e-02 -5.2559819296747157e-01 +4.9540337741257098e-03
3.7499999999999898e+00 +8.5266114498736005e+00 +0.0000000000000000e+00 +3.7499999731560498e+00 -2.7517725569168257e-02 -5.2561804938274947e-01 +4.9525417165825324e-03
3.7999999999999901e+00 +8.5266010155537497e+00 +0.0000000000000000e+00 +3.7999999720672801e+00 -2.7519114400115532e-02 -5.2563815281495807e-01 +4.9510650994962681e-03
3.8499999999999899e+00 +8.5265904429179500e+00 +0.0000000000000000e+00 +3.8499999709494599e+00 -2.7520519483534435e-02 -5.2565850164607730e-01 +4.9496039846561399e-03
3.8999999999999901e+00 +8.5265797319771099e+00 +0.0000000000000000e+00 +3.8999999698022001e+00 -2.7521940723230599e-02 -5.2567909425796211e-01 +4.9481584338507013e-03
3.9499999999999900e+00 +8.5265688827203103e+00 +0.0000000000000000e+00 +3.9499999686251202e+00 -2.7523378023019806e-02 -5.2569992903262031e-01 +4.9467285088703444e-03
3.9999999999999898e+00 +8.5265578951548395e+00 +0.0000000000000000e+00 +3.9999999674178399e+00 -2.7524831286712813e-02 -5.2572100435193392e-01 +4.9453142715047936e-03
4.0499999999999901e+00 +8.5265467692734092e+00 +0.0000000000000000e+00 +4.0499999661799704e+00 -2.7526300411306718e-02 -5.2574231848241748e-01 +4.9439157807940285e-03
4.0999999999999899e+00 +8.5265355050833005e+00 +0.0000000000000000e+00 +4.0999999649111301e+00 -2.7527785266509720e-02 -5.2576386922860807e-01 +4.9425330847732126e-03
4.1499999999999897e+00 +8.5265241025808791e+00 +0.0000000000000000e+00 +4.1499999636109504e+00 -2.7529285715212334e-02 -5.2578565427965096e-01 +4.9411662287278451e-03
4.1999999999999904e+00 +8.5265125617697795e+00 +0.0000000000000000e+00 +4.1999999622790298e+00 -2.7530801620301425e-02 -5.2580767132464146e-01 +4.9398152579438175e-03
4.2499999999999902e+00 +8.5265008826427202e+00 +0.0000000000000000e+00 +4.2499999609149901e+00 -2.7532332844666919e-02 -5.2582991805275281e-01 +4.9384802177085373e-03
4.2999999999999901e+00 +8.5264890652069898e+00 +0.0000000000000000e+00 +4.2999999595184599e+00 -2.7533879251192186e-02 -5.2585239215305868e-01 +4.9371611533093468e-03
4.3499999999999899e+00 +8.5264771094589396e+00 +0.0000000000000000e+00 +4.3499999580890396e+00 -2.7535440702763602e-02 -5.2587509131470900e-01 +4.9358581100351342e-03
4.3999999999999897e+00 +8.5264650153985695e+00 +0.0000000000000000e+00 +4.3999999566263703e+00 -2.7537017062264940e-02 -5.2589801322682983e-01 +4.9345711331754182e-03
4.4499999999999904e+00 +8.5264527830295300e+00 +0.0000000000000000e+00 +4.4499999551300400e+00 -2.7538608192577342e-02 -5.2592115557852226e-01 +4.9333002680203714e-03
4.4999999999999902e+00 +8.5264404123481707e+00 +0.0000000000000000e+00 +4.4999999535996897e+00 -2.7540213956583407e-02 -5.2594451605893899e-01 +4.9320455598615004e-03
4.5499999999999901e+00 +8.5264279033544899e+00 +0.0000000000000000e+00 +4.5499999520349199e+00 -2.7541834217162952e-02 -5.2596809235720687e-01 +4.9308070539909703e-03
4.5999999999999899e+00 +8.5264152560448601e+00 +0.0000000000000000e+00 +4.5999999504353601e+00 -2.7543468837195734e-02 -5.2599188216247861e-01 +4.9295847957020701e-03
4.6499999999999897e+00 +8.5264024704301793e+00 +0.0000000000000000e+00 +4.6499999488006196e+00 -2.7545117679554514e-02 -5.2601588316380610e-01 +4.9283788302880993e-03
4.6999999999999904e+00 +8.5263895464995603e+00 +0.0000000000000000e+00 +4.6999999471303298e+00 -2.7546780607118723e-02 -5.2604009305039179e-01 +4.9271892030446169e-03
4.7499999999999902e+00 +8.5263764842602505e+00 +0.0000000000000000e+00 +4.7499999454240900e+00 -2.7548457482759293e-02 -5.2606450951131167e-01 +4.9260159592669842e-03
4.7999999999999901e+00 +8.5263632837050007e+00 +0.0000000000000000e+00 +4.7999999436815299e+00 -2.7550148169351002e-02 -5.2608913023574233e-01 +4.9248591442523923e-03
4.8499999999999899e+00 +8.5263499448447000e+00 +0.0000000000000000e+00 +4.8499999419022597e+00 -2.7551852529759956e-02 -5.2611395291273300e-01 +4.9237188032978472e-03
4.8999999999999897e+00 +8.5263364676684397e+00 +0.0000000000000000e+00 +4.8999999400859000e+00 -2.7553570426858718e-02 -5.2613897523148290e-01 +4.9225949817026512e-03
4.9499999999999904e+00 +8.5263228521798702e+00 +0.0000000000000000e+00 +4.9499999382320699e+00 -2.7555301723512497e-02 -5.2616419488109023e-01 +4.9214877247661633e-03
4.9999999999999902e+00 +8.5263090983826295e+00 +0.0000000000000000e+00 +4.9999999363403900e+00 -2.7557046282584544e-02 -5.2618960955065008e-01 +4.9203970777887069e-03
5.0499999999999901e+00 +8.5262952059529198e+00 +0.0000000000000000e+00 +5.0499999344103799e+00 -2.7558803967060272e-02 -5.2621521693154205e-01 +4.9193230860918513e-03
5.0999999999999899e+00 +8.5262811745706095e+00 +0.0000000000000000e+00 +5.0999999324415599e+00 -2.7560574639921748e-02 -5.2624101471511930e-01 +4.9182657949978842e-03
5.1499999999999897e+00 +8.5262670042357094e+00 +0.0000000000000000e+00 +5.1499999304335597e+00 -2.7562358164027644e-02 -5.2626700059050069e-01 +4.9172252498102444e-03
5.1999999999999904e+00 +8.5262526949518396e+00 +0.0000000000000000e+00 +5.1999999283859903e+00 -2.7564154402233077e-02 -5.2629317224677719e-01 +4.9162014958331439e-03
5.2499999999999902e+00 +8.5262382467153692e+00 +0.0000000000000000e+00 +5.2499999262984600e+00 -2.7565963217393664e-02 -5.2631952737308763e-01 +4.9151945783722575e-03
5.2999999999999901e+00 +8.5262236595299292e+00 +0.0000000000000000e+00 +5.2999999241705797e+00 -2.7567784472359975e-02 -5.2634606365851788e-01 +4.9142045427338216e-03
5.3499999999999899e+00 +8.5262089333882596e+00 +0.0000000000000000e+00 +5.3499999220019703e+00 -2.7569618029984370e-02 -5.2637277879222699e-01 +4.9132314342257774e-03
5.3999999999999897e+00 +8.5261940682976292e+00 +0.0000000000000000e+00 +5.3999999197922497e+00 -2.7571463753111241e-02 -5.2639967046327008e-01 +4.9122752981561983e-03
5.4499999999999904e+00 +8.5261790642507496e+00 +0.0000000000000000e+00 +5.4499999175410201e+00 -2.7573321504588015e-02 -5.2642673636079962e-01 +4.9113361798350987e-03
5.4999999999999902e+00 +8.5261639212585596e+00 +0.0000000000000000e+00 +5.4999999152479004e+00 -2.7575191147252726e-02 -5.2645397417383888e-01 +4.9104141245724158e-03
5.5499999999999901e+00 +8.5261486393137602e+00 +0.0000000000000000e+00 +5.5499999129125097e+00 -2.7577072543947645e-02 -5.2648138159153346e-01 +4.9095091776802779e-03
5.5999999999999899e+00 +8.5261332184127205e+00 +0.0000000000000000e+00 +5.5999999105344500e+00 -2.7578965557511034e-02 -5.2650895630300065e-01 +4.9086213844716509e-03
5.6499999999999897e+00 +8.5261176585627307e+00 +0.0000000000000000e+00 +5.6499999081133403e+00 -2.7580870050774246e-02 -5.2653669599727693e-01 +4.9077507902598946e-03
5.6999999999999904e+00 +8.5261019597637606e+00 +0.0000000000000000e+00 +5.6999999056488004e+00 -2.7582785886568640e-02 -5.2656459836344605e-01 +4.9068974403599129e-03
5.7499999999999902e+00 +8.5260861220122006e+00 +0.0000000000000000e+00 +5.7499999031404396e+00 -2.7584712927724065e-02 -5.2659266109061220e-01 +4.9060613800879158e-03
5.7999999999999901e+00 +8.5260701453080401e+00 +0.0000000000000000e+00 +5.7999999005878804e+00 -2.7586651037066121e-02 -5.2662088186785028e-01 +4.9052426547609995e-03
5.8499999999999899e+00 +8.5260540296512808e+00 +0.0000000000000000e+00 +5.8499998979907204e+00 -2.7588600077417400e-02 -5.2664925838422971e-01 +4.9044413096973587e-03
5.8999999999999897e+00 +8.5260377750455500e+00 +0.0000000000000000e+00 +5.8999998953485804e+00 -2.7590559911596080e-02 -5.2667778832879009e-01 +4.9036573902160856e-03
