# multipoles
# s[mm] polynom_b[n=0][T/m^n] polynom_b[n=1][T/m^n] polynom_b[n=2][T/m^n] polynom_b[n=3][T/m^n] polynom_b[n=4][T/m^n] polynom_b[n=5][T/m^n] polynom_b[n=6][T/m^n] 
+0.0000000000000000e+00 -5.2328942456571426e-01 +6.8609024414763313e+00 +4.3853862612816652e+00 -1.3954716202367803e+02 +6.6286460807043668e+03 +4.6566731856702699e+05 -3.2308140195988901e+07 
+5.0000000000000003e-02 -5.2328789023251565e-01 +6.8608437082984031e+00 +4.3883460885469852e+00 -1.3976551989913557e+02 +6.6139584712588749e+03 +4.6723127129064995e+05 -3.2253988231336683e+07 
+1.0000000000000001e-01 -5.2328672718584635e-01 +6.8608051206028779e+00 +4.3908682506018772e+00 -1.3998884040444679e+02 +6.5993658928875893e+03 +4.6888663904976367e+05 -3.2201240765391313e+07 
+1.4999999999999999e-01 -5.2328593467050410e-01 +6.8607866344279040e+00 +4.3929454915991171e+00 -1.4021666902794666e+02 +6.5849913927538691e+03 +4.7062810414045840e+05 -3.2150411418073155e+07 
+2.0000000000000001e-01 -5.2328551193130080e-01 +6.8607882058076788e+00 +4.3945705529586112e+00 -1.4044855107407560e+02 +6.5709580914011231e+03 +4.7245034737580706e+05 -3.2102014304680884e+07 
+2.5000000000000000e-01 -5.2328545821312078e-01 +6.8608097907778998e+00 +4.3957361821284158e+00 -1.4068403187358348e+02 +6.5573889436859681e+03 +4.7434804976477998e+05 -3.2056562414954670e+07 
+2.9999999999999999e-01 -5.2328577276080079e-01 +6.8608513453760844e+00 +4.3964351187773110e+00 -1.4092265680666901e+02 +6.5444071192307465e+03 +4.7631589274086762e+05 -3.2014570205988009e+07 
+3.4999999999999998e-01 -5.2328645481917169e-01 +6.8609128256434166e+00 +4.3966601081178593e+00 -1.4116397136769490e+02 +6.5321356340604971e+03 +4.7834855866299663e+05 -3.1976551086065523e+07 
+4.0000000000000002e-01 -5.2328750363319410e-01 +6.8609941876141303e+00 +4.3964038931732041e+00 -1.4140752074297157e+02 +6.5206975638280692e+03 +4.8044072735511127e+05 -3.1943018868513886e+07 
+4.5000000000000001e-01 -5.2328891844769987e-01 +6.8610953873288114e+00 +4.3956592176729190e+00 -1.4165285033501414e+02 +6.5102159658107439e+03 +4.8258708039365779e+05 -3.1914487247582547e+07 
+5.0000000000000000e-01 -5.2329069850766008e-01 +6.8612163808301165e+00 +4.3944188251455518e+00 -1.4189950561797937e+02 +6.5008139024290540e+03 +4.8478229997388902e+05 -3.1891469952195127e+07 
+5.5000000000000004e-01 -5.2329284305798496e-01 +6.8613571241586300e+00 +4.3926754588318646e+00 -1.4214703193683957e+02 +6.4926144421362451e+03 +4.8702106718739943e+05 -3.1874480745762955e+07 
+5.9999999999999998e-01 -5.2329535134367855e-01 +6.8615175733552558e+00 +4.3904218621100544e+00 -1.4239497462946659e+02 +6.4857406518914831e+03 +4.8929806307991588e+05 -3.1864033391765241e+07 
+6.5000000000000002e-01 -5.2329822260963654e-01 +6.8616976844654305e+00 +4.3876507788141348e+00 -1.4264287917821468e+02 +6.4803155830712249e+03 +4.9160796986481344e+05 -3.1860641534635011e+07 
+6.9999999999999996e-01 -5.2330145610088963e-01 +6.8618974135320556e+00 +4.3843549513775457e+00 -1.4289029093620272e+02 +6.4764623293968516e+03 +4.9394546867249656e+05 -3.1864819126083612e+07 
+7.5000000000000000e-01 -5.2330505106243341e-01 +6.8621167166004673e+00 +4.3805271267126624e+00 -1.4313675532621974e+02 +6.4743038584902206e+03 +4.9630524121578247e+05 -3.1877079244489938e+07 
+8.0000000000000004e-01 -5.2330900673925840e-01 +6.8623555497164936e+00 +4.3761600436734058e+00 -1.4338181774698555e+02 +6.4739633563629122e+03 +4.9868196893706050e+05 -3.1897936448051114e+07 
+8.4999999999999998e-01 -5.2331332237643735e-01 +6.8626138689277445e+00 +4.3712464479515338e+00 -1.4362502365470814e+02 +6.4755638289819790e+03 +5.0107033378676308e+05 -3.1927904095407654e+07 
+9.0000000000000002e-01 -5.2331799721901451e-01 +6.8628916302816796e+00 +4.3657790821056519e+00 -1.4386591846021923e+02 +6.4792283616353270e+03 +5.0346501731062366e+05 -3.1967496060694247e+07 
+9.4999999999999996e-01 -5.2332303051204010e-01 +6.8631887898287980e+00 +4.3597506915583359e+00 -1.4410404766733387e+02 +6.4850799626575763e+03 +5.0586070179338590e+05 -3.2017225701203290e+07 
+1.0000000000000000e+00 -5.2332842150058367e-01 +6.8635053036168125e+00 +4.3531540176036350e+00 -1.4433895662444530e+02 +6.4932417540838733e+03 +5.0825206819043844e+05 -3.2077607149826244e+07 
+1.0500000000000000e+00 -5.2333416942976663e-01 +6.8638411276993319e+00 +4.3459818037589244e+00 -1.4457019091113020e+02 +6.5038367941356128e+03 +5.1063379940528073e+05 -3.2149154092145812e+07 
+1.1000000000000001e+00 -5.2334027354465407e-01 +6.8641962181269225e+00 +4.3382267936907439e+00 -1.4479729592139554e+02 +6.5169881421974396e+03 +5.1300057670032483e+05 -3.2232380242658772e+07 
+1.1499999999999999e+00 -5.2334673309043755e-01 +6.8645705309538334e+00 +4.3298817289042226e+00 -1.4501981719458209e+02 +6.5328189111592965e+03 +5.1534708257887093e+05 -3.2327799657071006e+07 
+1.2000000000000000e+00 -5.2335354731222949e-01 +6.8649640222346919e+00 +4.3209393561820280e+00 -1.4523730022782513e+02 +6.5514520733951895e+03 +5.1766799910679442e+05 -3.2435925449258838e+07 
+1.2500000000000000e+00 -5.2336071545517138e-01 +6.8653766480246601e+00 +4.3113924159389398e+00 -1.4544929052624985e+02 +6.5730107710756001e+03 +5.1995800845334906e+05 -3.2557271870685764e+07 
+1.3000000000000000e+00 -5.2336823676445432e-01 +6.8658083643809080e+00 +4.3012336497825281e+00 -1.4565533363459733e+02 +6.5976181184136467e+03 +5.2221179301955656e+05 -3.2692352999429133e+07 
+1.3500000000000001e+00 -5.2337611048528443e-01 +6.8662591273610767e+00 +4.2904558042220877e+00 -1.4585497508048456e+02 +6.6253970921021319e+03 +5.2442403504561319e+05 -3.2841681963290375e+07 
+1.3999999999999999e+00 -5.2338433586280597e-01 +6.8667288930237662e+00 +4.2790516203840809e+00 -1.4604776040567120e+02 +6.6564708180180896e+03 +5.2658941688745760e+05 -3.3005772910565481e+07 
+1.4500000000000000e+00 -5.2339291214228689e-01 +6.8672176174307253e+00 +4.2670138413984660e+00 -1.4623323524099177e+02 +6.6909623642947436e+03 +5.2870262155233405e+05 -3.3185139584101319e+07 
+1.5000000000000000e+00 -5.2340183856895350e-01 +6.8677252566428537e+00 +4.2543352088292874e+00 -1.4641094515065546e+02 +6.7289948435091774e+03 +5.3075833148450591e+05 -3.3380296034567878e+07 
+1.5500000000000000e+00 -5.2341111438803356e-01 +6.8682517667227501e+00 +4.2410084663122793e+00 -1.4658043573031480e+02 +6.7706913118975126e+03 +5.3275122933111235e+05 -3.3591755928860649e+07 
+1.6000000000000001e+00 -5.2342073884478513e-01 +6.8687971037343045e+00 +4.2270263557403656e+00 -1.4674125259891170e+02 +6.8161748709485419e+03 +5.3467599790582783e+05 -3.3820033227706581e+07 
+1.6499999999999999e+00 -5.2343071118451490e-01 +6.8693612237437831e+00 +4.2123816202514197e+00 -1.4689294143513598e+02 +6.8655685933934810e+03 +5.3652732044839987e+05 -3.4065641718000181e+07 
+1.7000000000000000e+00 -5.2344103065248426e-01 +6.8699440828165139e+00 +4.1970670015029885e+00 -1.4703504785001758e+02 +6.9189955859199936e+03 +5.3829987963683717e+05 -3.4329095388638586e+07 
+1.7500000000000000e+00 -5.2345169649402812e-01 +6.8705456370217437e+00 +4.1810752425755009e+00 -1.4716711756898073e+02 +6.9765789185530666e+03 +5.3998835898022831e+05 -3.4610907985067874e+07 
+1.8000000000000000e+00 -5.2346270795444683e-01 +6.8711658424278594e+00 +4.1643990865528684e+00 -1.4728869625883257e+02 +7.0384416608856754e+03 +5.4158744152061152e+05 -3.4911593246158749e+07 
+1.8500000000000001e+00 -5.2347406427906185e-01 +6.8718046551067813e+00 +4.1470312729221117e+00 -1.4739932969059817e+02 +7.1047069825478638e+03 +5.4309181107905798e+05 -3.5231665595900208e+07 
+1.8999999999999999e+00 -5.2348576471325214e-01 +6.8724620311279452e+00 +4.1289645446132424e+00 -1.4749856349607512e+02 +7.1754979566795500e+03 +5.4449615026630845e+05 -3.5571638788312487e+07 
+1.9500000000000000e+00 -5.2349780850236738e-01 +6.8731379265680737e+00 +4.1101916452478902e+00 -1.4758594356977446e+02 +7.2509376412698102e+03 +5.4579514380849537e+05 -3.5932026487541549e+07 
+2.0000000000000000e+00 -5.2351019489179318e-01 +6.8738322974997983e+00 +4.0907053140367680e+00 -1.4766101560931526e+02 +7.3311492063600626e+03 +5.4698347478622792e+05 -3.6313343083243020e+07 
+2.0499999999999998e+00 -5.2352292296224756e-01 +6.8745450809230322e+00 +4.0705024285892382e+00 -1.4772340605918814e+02 +7.4162021198287966e+03 +5.4805700884838984e+05 -3.6715872043391488e+07 
+2.1000000000000001e+00 -5.2353599113316995e-01 +6.8752761389078820e+00 +4.0495966012520785e+00 -1.4777311733971285e+02 +7.5059521772323351e+03 +5.4901673376476124e+05 -3.7138997649568029e+07 
+2.1499999999999999e+00 -5.2354939765811792e-01 +6.8760253120410733e+00 +4.0280058639656620e+00 -1.4781026459408071e+02 +7.6002018874900323e+03 +5.4986502570083609e+05 -3.7581884303516492e+07 
+2.2000000000000002e+00 -5.2356314079068678e-01 +6.8767924409074395e+00 +4.0057482448122270e+00 -1.4783496287863989e+02 +7.6987538622796628e+03 +5.5060426009957818e+05 -3.8043697097542554e+07 
+2.2500000000000000e+00 -5.2357721878441454e-01 +6.8775773660948500e+00 +3.9828417726208594e+00 -1.4784732735175257e+02 +7.8014106955357593e+03 +5.5123681324261776e+05 -3.8523601012793973e+07 
+2.2999999999999998e+00 -5.2359162989289854e-01 +6.8783799281894327e+00 +3.9593044804869728e+00 -1.4784747309090449e+02 +7.9079748630629010e+03 +5.5176506077756407e+05 -3.9020760220258817e+07 
+2.3500000000000001e+00 -5.2360637236969065e-01 +6.8791999677792113e+00 +3.9351543958603434e+00 -1.4783551523721204e+02 +8.0182489956943291e+03 +5.5219137887572451e+05 -3.9534339951764904e+07 
+2.3999999999999999e+00 -5.2362144446841963e-01 +6.8800373254492335e+00 +3.9104095490573010e+00 -1.4781156879638544e+02 +8.1320356455312549e+03 +5.5251814262136922e+05 -4.0063504901552342e+07 
+2.4500000000000002e+00 -5.2363684444266256e-01 +6.8808918417879967e+00 +3.8850879686820159e+00 -1.4777574891141248e+02 +8.2491374061940733e+03 +5.5274772826359328e+05 -4.0607420027783990e+07 
+2.5000000000000000e+00 -5.2365257054610104e-01 +6.8817633573810149e+00 +3.8592076861242646e+00 -1.4772817058491745e+02 +8.3693568025949844e+03 +5.5288251088462851e+05 -4.1165249850065559e+07 
+2.5499999999999998e+00 -5.2366862103227874e-01 +6.8826517128170170e+00 +3.8327867293873892e+00 -1.4766894895063552e+02 +8.4924964449397321e+03 +5.5292486672580906e+05 -4.1736159444457769e+07 
+2.6000000000000001e+00 -5.2368499415492109e-01 +6.8835567486827118e+00 +3.8058431296772381e+00 -1.4759819904039531e+02 +8.6183588598147653e+03 +5.5287717114593799e+05 -4.2319313329735398e+07 
+2.6499999999999999e+00 -5.2370168816764906e-01 +6.8844783055646603e+00 +3.7783949164021822e+00 -1.4751603588880107e+02 +8.7467466201636580e+03 +5.5274179963332950e+05 -4.2913876336948365e+07 
+2.7000000000000002e+00 -5.2371870132411602e-01 +6.8854162240491839e+00 +3.7504601181975898e+00 -1.4742257450321543e+02 +8.8774623213456744e+03 +5.5252112744026969e+05 -4.3519013451617859e+07 
+2.7500000000000000e+00 -5.2373603187798756e-01 +6.8863703447228293e+00 +3.7220567644404987e+00 -1.4731792989495483e+02 +9.0103085345957115e+03 +5.5221752988770511e+05 -4.4133889483283341e+07 
+2.7999999999999998e+00 -5.2375367808292117e-01 +6.8873405081720707e+00 +3.6932028859978372e+00 -1.4720221707218408e+02 +9.1450877932037056e+03 +5.5183338232186507e+05 -4.4757668997062214e+07 
+2.8500000000000001e+00 -5.2377163819262329e-01 +6.8883265549823705e+00 +3.6639165117935155e+00 -1.4707555100055225e+02 +9.2816026836039036e+03 +5.5137105977902689e+05 -4.5389516920939073e+07 
+2.8999999999999999e+00 -5.2378991046078771e-01 +6.8893283257397480e+00 +3.6342156717540584e+00 -1.4693804666681305e+02 +9.4196557611221306e+03 +5.5083293751335214e+05 -4.6028597958447523e+07 
+2.9500000000000002e+00 -5.2380849314110955e-01 +6.8903456610278866e+00 +3.6041183944530295e+00 -1.4678981895662471e+02 +9.5590496189477108e+03 +5.5022138998710853e+05 -4.6674077077874817e+07 
+3.0000000000000000e+00 -5.2382738448730726e-01 +6.8913784014331911e+00 +3.5736427111735285e+00 -1.4663098286766831e+02 +9.6995867769051420e+03 +5.4953879262113222e+05 -4.7325118751741290e+07 
+3.0499999999999998e+00 -5.2384658275306151e-01 +6.8924263875387206e+00 +3.5428066496787265e+00 -1.4646165326514799e+02 +9.8410698482030475e+03 +5.4878751981582714e+05 -4.7980888079882920e+07 
+3.1000000000000001e+00 -5.2386608619212371e-01 +6.8934894599276468e+00 +3.5116282400828562e+00 -1.4628194502321352e+02 +9.9833013818360887e+03 +5.4796994610601407e+05 -4.8640549728607051e+07 
+3.1499999999999999e+00 -5.2388589305822375e-01 +6.8945674591829631e+00 +3.4801255118219463e+00 -1.4609197300285487e+02 +1.0126083944560349e+04 +5.4708844593021204e+05 -4.9303268482621111e+07 
+3.2000000000000002e+00 -5.2390600160510326e-01 +6.8956602258888315e+00 +3.4483164947113147e+00 -1.4589185212342889e+02 +1.0269220096987730e+04 +5.4614539429747174e+05 -4.9968209105645999e+07 
+3.2500000000000000e+00 -5.2392641008648166e-01 +6.8967676006240906e+00 +3.4162192188171909e+00 -1.4568169709103944e+02 +1.0412512384245412e+04 +5.4514316452100093e+05 -5.0634536226303175e+07 
+3.2999999999999998e+00 -5.2394711675612926e-01 +6.8978894239709012e+00 +3.3838517123532039e+00 -1.4546162275406283e+02 +1.0555763406022930e+04 +5.4408413114292780e+05 -5.1301414858350545e+07 
+3.3500000000000001e+00 -5.2396811986782676e-01 +6.8990255365092361e+00 +3.3512320049355147e+00 -1.4523174387392390e+02 +1.0698775720881566e+04 +5.4297066802839539e+05 -5.1968009733842775e+07 
+3.3999999999999999e+00 -5.2398941767530072e-01 +6.9001757788191664e+00 +3.3183781280929114e+00 -1.4499217522995670e+02 +1.0841351837991651e+04 +5.4180514930308366e+05 -5.2633485257655509e+07 
+3.4500000000000002e+00 -5.2401100843230497e-01 +6.9013399914756217e+00 +3.2853081088834619e+00 -1.4474303139437518e+02 +1.0983294384582698e+04 +5.4058994741747389e+05 -5.3297006628626838e+07 
+3.5000000000000000e+00 -5.2403289039264633e-01 +6.9025180150592318e+00 +3.2520399778884972e+00 -1.4448442719164461e+02 +1.1124405892727027e+04 +5.3932743700293661e+05 -5.3957738403213181e+07 
+3.5499999999999998e+00 -5.2405506181010997e-01 +6.9037096901452539e+00 +3.2185917656090859e+00 -1.4421647722296100e+02 +1.1264488895961109e+04 +5.3801999087757058e+05 -5.4614845150618024e+07 
+3.6000000000000001e+00 -5.2407752093847348e-01 +6.9049148573095094e+00 +3.1849815003032247e+00 -1.4393929614071180e+02 +1.1403345985727405e+04 +5.3666998241476051e+05 -5.5267491822993390e+07 
+3.6499999999999999e+00 -5.2410026603153059e-01 +6.9061333571255048e+00 +3.1512272118974387e+00 -1.4365299850326849e+02 +1.1540779711742092e+04 +5.3527978425013751e+05 -5.5914843107180223e+07 
+3.6999999999999900e+00 -5.2412329534305557e-01 +6.9073650301661207e+00 +3.1173469307910278e+00 -1.4335769886470158e+02 +1.1676592606071730e+04 +5.3385176909303945e+05 -5.6556063555658340e+07 
+3.7499999999999898e+00 -5.2414660712688255e-01 +6.9086097170042295e+00 +3.0833586839328895e+00 -1.4305351178804855e+02 +1.1810587294006735e+04 +5.3238830977895344e+05 -5.7190318355256677e+07 
+3.7999999999999901e+00 -5.2417019963679023e-01 +6.9098672582089238e+00 +3.0492805048687019e+00 -1.4274055169973505e+02 +1.1942566226665491e+04 +5.3089177812792943e+05 -5.7816771534276180e+07 
+3.8499999999999899e+00 -5.2419407112661842e-01 +6.9111374943513253e+00 +3.0151304203260616e+00 -1.4241893313101883e+02 +1.2072332029987549e+04 +5.2936454691081296e+05 -5.8434588270131059e+07 
+3.8999999999999901e+00 -5.2421821985011796e-01 +6.9124202659983718e+00 +2.9809264620865381e+00 -1.4208877045335606e+02 +1.2199687201574354e+04 +5.2780898767592467e+05 -5.9042932910133600e+07 
+3.9499999999999900e+00 -5.2424264406116827e-01 +6.9137154137176848e+00 +2.9466866580034923e+00 -1.4175017808253119e+02 +1.2324434335101309e+04 +5.2622747238332650e+05 -5.9640970413508549e+07 
+3.9999999999999898e+00 -5.2426734201354530e-01 +6.9150227780746487e+00 +2.9124290384948406e+00 -1.4140327037025151e+02 +1.2446375965936651e+04 +5.2462237265314686e+05 -6.0227865391918764e+07 
+4.0499999999999901e+00 -5.2429231181153124e-01 +6.9163421998668824e+00 +2.8781690671655982e+00 -1.4104817919354952e+02 +1.2565351846576117e+04 +5.2299578283538116e+05 -6.0802944410811961e+07 
+4.0999999999999899e+00 -5.2431755096070765e-01 +6.9176735136872223e+00 +2.8439119297869833e+00 -1.4068503897436682e+02 +1.2681352458802387e+04 +5.2134814409008570e+05 -6.1366173366905615e+07 
+4.1499999999999897e+00 -5.2434305681703752e-01 +6.9190165507759129e+00 +2.8096602659381698e+00 -1.4031396713943943e+02 +1.2794406125887621e+04 +5.1967933259046538e+05 -6.1917673420848422e+07 
+4.1999999999999904e+00 -5.2436882673643670e-01 +6.9203711423796044e+00 +2.7754167151572782e+00 -1.3993508137729279e+02 +1.2904541173334841e+04 +5.1798922658083227e+05 -6.2457565742580764e+07 
+4.2499999999999902e+00 -5.2439485807487807e-01 +6.9217371197361812e+00 +2.7411839136131069e+00 -1.3954849904096170e+02 +1.3011786016857315e+04 +5.1627770161561418e+05 -6.2985972109096840e+07 
+4.2999999999999901e+00 -5.2442114818825580e-01 +6.9231143140916211e+00 +2.7069645008803049e+00 -1.3915433779775682e+02 +1.3116168981661103e+04 +5.1454463576677098e+05 -6.3503013690559477e+07 
+4.3499999999999899e+00 -5.2444769443253769e-01 +6.9245025566869929e+00 +2.6727611158247093e+00 -1.3875271513907319e+02 +1.3217718414473125e+04 +5.1278990573160199e+05 -6.4008811811262012e+07 
+4.3999999999999897e+00 -5.2447449416365655e-01 +6.9259016787644487e+00 +2.6385763957224797e+00 -1.3834374859876760e+02 +1.3316462699604972e+04 +5.1101338853971066e+05 -6.4503488025473200e+07 
+4.4499999999999904e+00 -5.2450154473752830e-01 +6.9273115115647590e+00 +2.6044129791427548e+00 -1.3792755566718796e+02 +1.3412430188117296e+04 +5.0921496089544502e+05 -6.4987163671021253e+07 
+4.4999999999999902e+00 -5.2452884351011264e-01 +6.9287318863311933e+00 +2.5702735030033281e+00 -1.3750425394177307e+02 +1.3505649280483500e+04 +5.0739450037197053e+05 -6.5459960436152846e+07 
+4.5499999999999901e+00 -5.2455638783737712e-01 +6.9301626343021283e+00 +2.5361606103808718e+00 -1.3707396083402483e+02 +1.3596148203758157e+04 +5.0555188305200968e+05 -6.5921998807485148e+07 
+4.5999999999999899e+00 -5.2458417507526311e-01 +6.9316035867196844e+00 +2.5020769349431542e+00 -1.3663679390904483e+02 +1.3683955445114065e+04 +5.0368698624999431e+05 -6.6373401052889705e+07 
+4.6499999999999897e+00 -5.2461220257965091e-01 +6.9330545748251398e+00 +2.4680251175958219e+00 -1.3619287071361470e+02 +1.3769099293216708e+04 +5.0179968718783726e+05 -6.6814288085651048e+07 
+4.6999999999999904e+00 -5.2464046770654882e-01 +6.9345154298563640e+00 +2.4340077948036627e+00 -1.3574230866128096e+02 +1.3851608160938247e+04 +4.9988986195486254e+05 -6.7244781672102943e+07 
+4.7499999999999902e+00 -5.2466896781185390e-01 +6.9359859830558275e+00 +2.4000276065027970e+00 -1.3528522536548735e+02 +1.3931510359772996e+04 +4.9795738832106756e+05 -6.7665002864834011e+07 
+4.7999999999999901e+00 -5.2469770025155293e-01 +6.9374660656591747e+00 +2.3660871899176610e+00 -1.3482173817603012e+02 +1.4008834281808469e+04 +4.9600214190175396e+05 -6.8075073284418389e+07 
+4.8499999999999899e+00 -5.2472666238151178e-01 +6.9389555089096131e+00 +2.3321891839696791e+00 -1.3435196475482448e+02 +1.4083608271115645e+04 +4.9402400086951116e+05 -6.8475114222146228e+07 
+4.8999999999999897e+00 -5.2475585155774973e-01 +6.9404541440432190e+00 +2.2983362279093429e+00 -1.3387602249304757e+02 +1.4155860662044064e+04 +4.9202284119222482e+05 -6.8865246893674299e+07 
+4.9499999999999904e+00 -5.2478526513616963e-01 +6.9419618022978975e+00 +2.2645309586908406e+00 -1.3339402886167963e+02 +1.4225619851976517e+04 +4.8999853948961158e+05 -6.9245592947160840e+07 
+4.9999999999999902e+00 -5.2481490047268176e-01 +6.9434783149143735e+00 +2.2307760144683053e+00 -1.3290610146195391e+02 +1.4292914208097609e+04 +4.8795097346888541e+05 -6.9616273829851180e+07 
+5.0499999999999901e+00 -5.2484475492547866e-01 +6.9450035054463246e+00 +2.1970744277247758e+00 -1.3241236559079212e+02 +1.4357772161531404e+04 +4.8588001993645198e+05 -6.9977411082449585e+07 
