# field on trajectory
# s[mm] rx[mm] ry[mm] rz[mm] bx[T] by[T] bz[T]
0.0000000000000000e+00 +8.5270000000000206e+00 +0.0000000000000000e+00 +0.0000000000000000e+00 -2.6869695600044558e-02 -5.2247888527020581e-01 +4.9803925260791552e-03
5.0000000000000003e-02 +8.5269999309457507e+00 +0.0000000000000000e+00 +4.9999999999936401e-02 -2.6870112763894966e-02 -5.2247847988338880e-01 +4.9794994881695179e-03
1.0000000000000001e-01 +8.5269997237846802e+00 +0.0000000000000000e+00 +9.9999999999491399e-02 -2.6870553194653330e-02 -5.2247845758592726e-01 +4.9786136408164431e-03
1.4999999999999999e-01 +8.5269993785186706e+00 +0.0000000000000000e+00 +1.4999999999828301e-01 -2.6871016791153848e-02 -5.2247881758255277e-01 +4.9777350277897432e-03
2.0000000000000001e-01 +8.5269988951477007e+00 +0.0000000000000000e+00 +1.9999999999593099e-01 -2.6871503452232451e-02 -5.2247955907802712e-01 +4.9768636928596809e-03
2.5000000000000000e-01 +8.5269982736681396e+00 +0.0000000000000000e+00 +2.4999999999205300e-01 -2.6872013076727427e-02 -5.2248068127715153e-01 +4.9759996797970945e-03
2.9999999999999999e-01 +8.5269975140799907e+00 +0.0000000000000000e+00 +2.9999999998626697e-01 -2.6872545563476780e-02 -5.2248218338471941e-01 +4.9751430323729477e-03
3.4999999999999998e-01 +8.5269966163905302e+00 +0.0000000000000000e+00 +3.4999999997819298e-01 -2.6873100811316827e-02 -5.2248406460549013e-01 +4.9742937943581091e-03
4.0000000000000002e-01 +8.5269955805888493e+00 +0.0000000000000000e+00 +3.9999999996744801e-01 -2.6873678719091684e-02 -5.2248632414436302e-01 +4.9734520095248815e-03
4.5000000000000001e-01 +8.5269944066858407e+00 +0.0000000000000000e+00 +4.4999999995365197e-01 -2.6874279185638377e-02 -5.2248896120610488e-01 +4.9726177216445977e-03
5.0000000000000000e-01 +8.5269930946742498e+00 +0.0000000000000000e+00 +4.9999999993642202e-01 -2.6874902109801729e-02 -5.2249197499562217e-01 +4.9717909744900132e-03
5.5000000000000004e-01 +8.5269916445577092e+00 +0.0000000000000000e+00 +5.4999999991537796e-01 -2.6875547390423516e-02 -5.2249536471776281e-01 +4.9709718118335633e-03
5.9999999999999998e-01 +8.5269900563289394e+00 +0.0000000000000000e+00 +5.9999999989013697e-01 -2.6876214926350651e-02 -5.2249912957746603e-01 +4.9701602774486747e-03
6.5000000000000002e-01 +8.5269883299988596e+00 +0.0000000000000000e+00 +6.4999999986031898e-01 -2.6876904616424266e-02 -5.2250326877956188e-01 +4.9693564151079943e-03
6.9999999999999996e-01 +8.5269864655601904e+00 +0.0000000000000000e+00 +6.9999999982554195e-01 -2.6877616359493279e-02 -5.2250778152902044e-01 +4.9685602685855977e-03
7.5000000000000000e-01 +8.5269844630165608e+00 +0.0000000000000000e+00 +7.4999999978542398e-01 -2.6878350054403612e-02 -5.2251266703075450e-01 +4.9677718816552247e-03
8.0000000000000004e-01 +8.5269823223679904e+00 +0.0000000000000000e+00 +7.9999999973958402e-01 -2.6879105600003533e-02 -5.2251792448971612e-01 +4.9669912980911451e-03
8.4999999999999998e-01 +8.5269800436108198e+00 +0.0000000000000000e+00 +8.4999999968764095e-01 -2.6879882895143693e-02 -5.2252355311089882e-01 +4.9662185616681795e-03
9.0000000000000002e-01 +8.5269776267450705e+00 +0.0000000000000000e+00 +8.9999999962921295e-01 -2.6880681838674439e-02 -5.2252955209928764e-01 +4.9654537161612266e-03
9.4999999999999996e-01 +8.5269750717743609e+00 +0.0000000000000000e+00 +9.4999999956391801e-01 -2.6881502329445726e-02 -5.2253592065985699e-01 +4.9646968053452846e-03
1.0000000000000000e+00 +8.5269723786986997e+00 +0.0000000000000000e+00 +9.9999999949137597e-01 -2.6882344266309945e-02 -5.2254265799762389e-01 +4.9639478729958776e-03
1.0500000000000000e+00 +8.5269695475144491e+00 +0.0000000000000000e+00 +1.0499999994111999e+00 -2.6883207548121818e-02 -5.2254976331764513e-01 +4.9632069628890493e-03
1.1000000000000001e+00 +8.5269665782288904e+00 +0.0000000000000000e+00 +1.0999999993230201e+00 -2.6884092073733046e-02 -5.2255723582491898e-01 +4.9624741188005030e-03
1.1499999999999999e+00 +8.5269634708311095e+00 +0.0000000000000000e+00 +1.1499999992264500e+00 -2.6884997742003099e-02 -5.2256507472458402e-01 +4.9617493845073172e-03
1.2000000000000000e+00 +8.5269602253283701e+00 +0.0000000000000000e+00 +1.1999999991210999e+00 -2.6885924451785725e-02 -5.2257327922166985e-01 +4.9610328037857877e-03
1.2500000000000000e+00 +8.5269568417206791e+00 +0.0000000000000000e+00 +1.2499999990065900e+00 -2.6886872101938360e-02 -5.2258184852127176e-01 +4.9603244204129340e-03
1.3000000000000000e+00 +8.5269533200044005e+00 +0.0000000000000000e+00 +1.2999999988825499e+00 -2.6887840591320808e-02 -5.2259078182852647e-01 +4.9596242781662905e-03
1.3500000000000001e+00 +8.5269496601795307e+00 +0.0000000000000000e+00 +1.3499999987485900e+00 -2.6888829818792582e-02 -5.2260007834856093e-01 +4.9589324208234595e-03
1.3999999999999999e+00 +8.5269458622533403e+00 +0.0000000000000000e+00 +1.3999999986043401e+00 -2.6889839683211431e-02 -5.2260973728646842e-01 +4.9582488921618914e-03
1.4500000000000000e+00 +8.5269419262185693e+00 +0.0000000000000000e+00 +1.4499999984494001e+00 -2.6890870083441567e-02 -5.2261975784745673e-01 +4.9575737359601963e-03
1.5000000000000000e+00 +8.5269378520752106e+00 +0.0000000000000000e+00 +1.4999999982833900e+00 -2.6891920918345510e-02 -5.2263013923670087e-01 +4.9569069959968246e-03
1.5500000000000000e+00 +8.5269336398268898e+00 +0.0000000000000000e+00 +1.5499999981059500e+00 -2.6892992086785410e-02 -5.2264088065936609e-01 +4.9562487160502919e-03
1.6000000000000001e+00 +8.5269292894736299e+00 +0.0000000000000000e+00 +1.5999999979166799e+00 -2.6894083487625800e-02 -5.2265198132065849e-01 +4.9555989398995968e-03
1.6499999999999999e+00 +8.5269248010117700e+00 +0.0000000000000000e+00 +1.6499999977152000e+00 -2.6895195019733573e-02 -5.2266344042582447e-01 +4.9549577113242428e-03
1.7000000000000000e+00 +8.5269201744449692e+00 +0.0000000000000000e+00 +1.6999999975011300e+00 -2.6896326581973901e-02 -5.2267525718007635e-01 +4.9543250741035513e-03
1.7500000000000000e+00 +8.5269154097695701e+00 +0.0000000000000000e+00 +1.7499999972740901e+00 -2.6897478073215693e-02 -5.2268743078869329e-01 +4.9537010720175573e-03
1.8000000000000000e+00 +8.5269105069892195e+00 +0.0000000000000000e+00 +1.7999999970336999e+00 -2.6898649392326134e-02 -5.2269996045691813e-01 +4.9530857488461217e-03
1.8500000000000001e+00 +8.5269054661039299e+00 +0.0000000000000000e+00 +1.8499999967795799e+00 -2.6899840438174755e-02 -5.2271284539003582e-01 +4.9524791483695823e-03
1.8999999999999999e+00 +8.5269002871100401e+00 +0.0000000000000000e+00 +1.8999999965113501e+00 -2.6901051109633502e-02 -5.2272608479337179e-01 +4.9518813143687558e-03
1.9500000000000000e+00 +8.5268949700112007e+00 +0.0000000000000000e+00 +1.9499999962286201e+00 -2.6902281305572557e-02 -5.2273967787221709e-01 +4.9512922906242759e-03
2.0000000000000000e+00 +8.5268895148037700e+00 +0.0000000000000000e+00 +1.9999999959310100e+00 -2.6903530924865821e-02 -5.2275362383192847e-01 +4.9507121209174682e-03
2.0499999999999998e+00 +8.5268839213858900e+00 +0.0000000000000000e+00 +2.0499999956181298e+00 -2.6904799863873105e-02 -5.2276792164102281e-01 +4.9501408435916302e-03
2.1000000000000001e+00 +8.5268781896593300e+00 +0.0000000000000000e+00 +2.0999999952895898e+00 -2.6906088008746734e-02 -5.2278256931789246e-01 +4.9495784752136875e-03
2.1499999999999999e+00 +8.5268723196240899e+00 +0.0000000000000000e+00 +2.1499999949449999e+00 -2.6907395243051167e-02 -5.2279756464273797e-01 +4.9490250269010067e-03
2.2000000000000002e+00 +8.5268663112729008e+00 +0.0000000000000000e+00 +2.1999999945839801e+00 -2.6908721450354132e-02 -5.2281290539582148e-01 +4.9484805097718470e-03
2.2500000000000000e+00 +8.5268601646093902e+00 +0.0000000000000000e+00 +2.2499999942061502e+00 -2.6910066514219858e-02 -5.2282858935734233e-01 +4.9479449349442645e-03
2.2999999999999998e+00 +8.5268538796335598e+00 +0.0000000000000000e+00 +2.2999999938111202e+00 -2.6911430318214389e-02 -5.2284461430753559e-01 +4.9474183135370005e-03
2.3500000000000001e+00 +8.5268474563490599e+00 +0.0000000000000000e+00 +2.3499999933985198e+00 -2.6912812745902907e-02 -5.2286097802662168e-01 +4.9469006566690470e-03
2.3999999999999999e+00 +8.5268408947522403e+00 +0.0000000000000000e+00 +2.3999999929679601e+00 -2.6914213680853772e-02 -5.2287767829488263e-01 +4.9463919754603120e-03
2.4500000000000002e+00 +8.5268341948467405e+00 +0.0000000000000000e+00 +2.4499999925190501e+00 -2.6915633006633043e-02 -5.2289471289256029e-01 +4.9458922810307632e-03
2.5000000000000000e+00 +8.5268273566252901e+00 +0.0000000000000000e+00 +2.4999999920514302e+00 -2.6917070606811269e-02 -5.2291207959998154e-01 +4.9454015845015100e-03
2.5499999999999998e+00 +8.5268203800987994e+00 +0.0000000000000000e+00 +2.5499999915646900e+00 -2.6918526364952573e-02 -5.2292977619735892e-01 +4.9449198969930917e-03
2.6000000000000001e+00 +8.5268132652563509e+00 +0.0000000000000000e+00 +2.5999999910584699e+00 -2.6920000164629587e-02 -5.2294780046506395e-01 +4.9444472296278560e-03
2.6499999999999999e+00 +8.5268060121015896e+00 +0.0000000000000000e+00 +2.6499999905323701e+00 -2.6921491889409857e-02 -5.2296615018337844e-01 +4.9439835935278145e-03
2.7000000000000002e+00 +8.5267986206345103e+00 +0.0000000000000000e+00 +2.6999999899860101e+00 -2.6923001422862514e-02 -5.2298482313261763e-01 +4.9435289998157189e-03
2.7500000000000000e+00 +8.5267910908551094e+00 +0.0000000000000000e+00 +2.7499999894190199e+00 -2.6924528648557065e-02 -5.2300381709310617e-01 +4.9430834596148722e-03
2.7999999999999998e+00 +8.5267834227670392e+00 +0.0000000000000000e+00 +2.7999999888310101e+00 -2.6926073450061816e-02 -5.2302312984515242e-01 +4.9426469840489025e-03
2.8500000000000001e+00 +8.5267756163666508e+00 +0.0000000000000000e+00 +2.8499999882215898e+00 -2.6927635710948084e-02 -5.2304275916912324e-01 +4.9422195842424308e-03
2.8999999999999999e+00 +8.5267676716539391e+00 +0.0000000000000000e+00 +2.8999999875903901e+00 -2.6929215314785974e-02 -5.2306270284536893e-01 +4.9418012713204314e-03
2.9500000000000002e+00 +8.5267595886289200e+00 +0.0000000000000000e+00 +2.9499999869370299e+00 -2.6930812145145807e-02 -5.2308295865424781e-01 +4.9413920564084510e-03
3.0000000000000000e+00 +8.5267513672915793e+00 +0.0000000000000000e+00 +2.9999999862611100e+00 -2.6932426085598014e-02 -5.2310352437612617e-01 +4.9409919506326226e-03
3.0499999999999998e+00 +8.5267430076455604e+00 +0.0000000000000000e+00 +3.0499999855622502e+00 -2.6934057019711796e-02 -5.2312439779135256e-01 +4.9406009651194512e-03
3.1000000000000001e+00 +8.5267345096872305e+00 +0.0000000000000000e+00 +3.0999999848400801e+00 -2.6935704831059191e-02 -5.2314557668033279e-01 +4.9402191109964785e-03
3.1499999999999999e+00 +8.5267258734165807e+00 +0.0000000000000000e+00 +3.1499999840942201e+00 -2.6937369403210933e-02 -5.2316705882345560e-01 +4.9398463993916399e-03
3.2000000000000002e+00 +8.5267170988336094e+00 +0.0000000000000000e+00 +3.1999999833242700e+00 -2.6939050619737795e-02 -5.2318884200111593e-01 +4.9394828414334856e-03
3.2500000000000000e+00 +8.5267081859419704e+00 +0.0000000000000000e+00 +3.2499999825298600e+00 -2.6940748364209208e-02 -5.2321092399369007e-01 +4.9391284482509816e-03
3.2999999999999998e+00 +8.5266991347380099e+00 +0.0000000000000000e+00 +3.2999999817106000e+00 -2.6942462520197344e-02 -5.2323330258161216e-01 +4.9387832309741603e-03
3.3500000000000001e+00 +8.5266899452181004e+00 +0.0000000000000000e+00 +3.3499999808661101e+00 -2.6944192971274303e-02 -5.2325597554532044e-01 +4.9384472007336913e-03
3.3999999999999999e+00 +8.5266806173895002e+00 +0.0000000000000000e+00 +3.3999999799960099e+00 -2.6945939601008082e-02 -5.2327894066518610e-01 +4.9381203686602610e-03
3.4500000000000002e+00 +8.5266711512522306e+00 +0.0000000000000000e+00 +3.4499999790999101e+00 -2.6947702292969285e-02 -5.2330219572163472e-01 +4.9378027458856395e-03
3.5000000000000000e+00 +8.5266615468026394e+00 +0.0000000000000000e+00 +3.4999999781774398e+00 -2.6949480930729797e-02 -5.2332573849512309e-01 +4.9374943435424850e-03
3.5499999999999998e+00 +8.5266518040407409e+00 +0.0000000000000000e+00 +3.5499999772282100e+00 -2.6951275397859981e-02 -5.2334956676608768e-01 +4.9371951727639196e-03
3.6000000000000001e+00 +8.5266419229665207e+00 +0.0000000000000000e+00 +3.5999999762518402e+00 -2.6953085577930067e-02 -5.2337367831497050e-01 +4.9369052446837508e-03
3.6499999999999999e+00 +8.5266319035799807e+00 +0.0000000000000000e+00 +3.6499999752479400e+00 -2.6954911354510079e-02 -5.2339807092221802e-01 +4.9366245704364833e-03
3.6999999999999900e+00 +8.5266217458847695e+00 +0.0000000000000000e+00 +3.6999999742161398e+00 -2.6956752611168464e-02 -5.2342274236825637e-01 +4.9363531611571069e-03
3.7499999999999898e+00 +8.5266114498736005e+00 +0.0000000000000000e+00 +3.7499999731560498e+00 -2.6958609231477561e-02 -5.2344769043359052e-01 +4.9360910279819771e-03
3.7999999999999901e+00 +8.5266010155537497e+00 +0.0000000000000000e+00 +3.7999999720672801e+00 -2.6960481099003949e-02 -5.2347291289863029e-01 +4.9358381820473014e-03
3.8499999999999899e+00 +8.5265904429179500e+00 +0.0000000000000000e+00 +3.8499999709494599e+00 -2.6962368097319393e-02 -5.2349840754388888e-01 +4.9355946344908858e-03
3.8999999999999901e+00 +8.5265797319771099e+00 +0.0000000000000000e+00 +3.8999999698022001e+00 -2.6964270109988513e-02 -5.2352417214975777e-01 +4.9353603964501953e-03
3.9499999999999900e+00 +8.5265688827203103e+00 +0.0000000000000000e+00 +3.9499999686251202e+00 -2.6966187020583801e-02 -5.2355020449678258e-01 +4.9351354790647317e-03
3.9999999999999898e+00 +8.5265578951548395e+00 +0.0000000000000000e+00 +3.9999999674178399e+00 -2.6968118712670533e-02 -5.2357650236538678e-01 +4.9349198934736816e-03
4.0499999999999901e+00 +8.5265467692734092e+00 +0.0000000000000000e+00 +4.0499999661799704e+00 -2.6970065071255812e-02 -5.2360306347379793e-01 +4.9347136482776046e-03
4.0999999999999899e+00 +8.5265355050833005e+00 +0.0000000000000000e+00 +4.0999999649111301e+00 -2.6972025987087953e-02 -5.2362988529095389e-01 +4.9345167419158568e-03
4.1499999999999897e+00 +8.5265241025808791e+00 +0.0000000000000000e+00 +4.1499999636109504e+00 -2.6974001352356360e-02 -5.2365696522356875e-01 +4.9343291702885674e-03
4.1999999999999904e+00 +8.5265125617697795e+00 +0.0000000000000000e+00 +4.1999999622790298e+00 -2.6975991059247972e-02 -5.2368430067830818e-01 +4.9341509292957948e-03
4.2499999999999902e+00 +8.5265008826427202e+00 +0.0000000000000000e+00 +4.2499999609149901e+00 -2.6977994999954111e-02 -5.2371188906191291e-01 +4.9339820148385869e-03
4.2999999999999901e+00 +8.5264890652069898e+00 +0.0000000000000000e+00 +4.2999999595184599e+00 -2.6980013066660879e-02 -5.2373972778102273e-01 +4.9338224228174755e-03
4.3499999999999899e+00 +8.5264771094589396e+00 +0.0000000000000000e+00 +4.3499999580890396e+00 -2.6982045151558769e-02 -5.2376781424235264e-01 +4.9336721491339847e-03
4.3999999999999897e+00 +8.5264650153985695e+00 +0.0000000000000000e+00 +4.3999999566263703e+00 -2.6984091146837169e-02 -5.2379614585259227e-01 +4.9335311896897471e-03
4.4499999999999904e+00 +8.5264527830295300e+00 +0.0000000000000000e+00 +4.4499999551300400e+00 -2.6986150944684338e-02 -5.2382472001840441e-01 +4.9333995403865200e-03
4.4999999999999902e+00 +8.5264404123481707e+00 +0.0000000000000000e+00 +4.4999999535996897e+00 -2.6988224437291573e-02 -5.2385353414650138e-01 +4.9332771971268190e-03
4.5499999999999901e+00 +8.5264279033544899e+00 +0.0000000000000000e+00 +4.5499999520349199e+00 -2.6990311516849021e-02 -5.2388258564356838e-01 +4.9331641558132602e-03
4.5999999999999899e+00 +8.5264152560448601e+00 +0.0000000000000000e+00 +4.5999999504353601e+00 -2.6992412075548436e-02 -5.2391187191631483e-01 +4.9330604123489974e-03
4.6499999999999897e+00 +8.5264024704301793e+00 +0.0000000000000000e+00 +4.6499999488006196e+00 -2.6994526005576395e-02 -5.2394139037134624e-01 +4.9329659626366372e-03
4.6999999999999904e+00 +8.5263895464995603e+00 +0.0000000000000000e+00 +4.6999999471303298e+00 -2.6996653199127869e-02 -5.2397113841541754e-01 +4.9328808025803899e-03
4.7499999999999902e+00 +8.5263764842602505e+00 +0.0000000000000000e+00 +4.7499999454240900e+00 -2.6998793548391256e-02 -5.2400111345515432e-01 +4.9328049280836879e-03
4.7999999999999901e+00 +8.5263632837050007e+00 +0.0000000000000000e+00 +4.7999999436815299e+00 -2.7000946945560676e-02 -5.2403131289728078e-01 +4.9327383350511352e-03
4.8499999999999899e+00 +8.5263499448447000e+00 +0.0000000000000000e+00 +4.8499999419022597e+00 -2.7003113282823614e-02 -5.2406173414839163e-01 +4.9326810193865553e-03
4.8999999999999897e+00 +8.5263364676684397e+00 +0.0000000000000000e+00 +4.8999999400859000e+00 -2.7005292452376005e-02 -5.2409237461522884e-01 +4.9326329769953450e-03
4.9499999999999904e+00 +8.5263228521798702e+00 +0.0000000000000000e+00 +4.9499999382320699e+00 -2.7007484346408518e-02 -5.2412323170442998e-01 +4.9325942037823402e-03
4.9999999999999902e+00 +8.5263090983826295e+00 +0.0000000000000000e+00 +4.9999999363403900e+00 -2.7009688857112076e-02 -5.2415430282262887e-01 +4.9325646956526557e-03
5.0499999999999901e+00 +8.5262952059529198e+00 +0.0000000000000000e+00 +5.0499999344103799e+00 -2.7011905876801766e-02 -5.2418558537872606e-01 +4.9325444485309611e-03
5.0999999999999899e+00 +8.5262811745706095e+00 +0.0000000000000000e+00 +5.0999999324415599e+00 -2.7014135297791661e-02 -5.2421707678159435e-01 +4.9325334583419835e-03
5.1499999999999897e+00 +8.5262670042357094e+00 +0.0000000000000000e+00 +5.1499999304335597e+00 -2.7016377012274887e-02 -5.2424877443788165e-01 +4.9325317209918968e-03
5.1999999999999904e+00 +8.5262526949518396e+00 +0.0000000000000000e+00 +5.1999999283859903e+00 -2.7018630912443373e-02 -5.2428067575420534e-01 +4.9325392323869245e-03
5.2499999999999902e+00 +8.5262382467153692e+00 +0.0000000000000000e+00 +5.2499999262984600e+00 -2.7020896890492037e-02 -5.2431277813722754e-01 +4.9325559884339891e-03
5.2999999999999901e+00 +8.5262236595299292e+00 +0.0000000000000000e+00 +5.2999999241705797e+00 -2.7023174838613211e-02 -5.2434507899355409e-01 +4.9325819850398354e-03
5.3499999999999899e+00 +8.5262089333882596e+00 +0.0000000000000000e+00 +5.3499999220019703e+00 -2.7025464649003583e-02 -5.2437757572986077e-01 +4.9326172181121172e-03
5.3999999999999897e+00 +8.5261940682976292e+00 +0.0000000000000000e+00 +5.3999999197922497e+00 -2.7027766213854502e-02 -5.2441026575271588e-01 +4.9326616835578766e-03
5.4499999999999904e+00 +8.5261790642507496e+00 +0.0000000000000000e+00 +5.4499999175410201e+00 -2.7030079425363021e-02 -5.2444314646878154e-01 +4.9327153772852619e-03
5.4999999999999902e+00 +8.5261639212585596e+00 +0.0000000000000000e+00 +5.4999999152479004e+00 -2.7032404175719504e-02 -5.2447621528458777e-01 +4.9327782952015972e-03
5.5499999999999901e+00 +8.5261486393137602e+00 +0.0000000000000000e+00 +5.5499999129125097e+00 -2.7034740357121358e-02 -5.2450946960678224e-01 +4.9328504332155059e-03
5.5999999999999899e+00 +8.5261332184127205e+00 +0.0000000000000000e+00 +5.5999999105344500e+00 -2.7037087861764834e-02 -5.2454290684198079e-01 +4.9329317872356480e-03
5.6499999999999897e+00 +8.5261176585627307e+00 +0.0000000000000000e+00 +5.6499999081133403e+00 -2.7039446581842170e-02 -5.2457652439671532e-01 +4.9330223531702522e-03
5.6999999999999904e+00 +8.5261019597637606e+00 +0.0000000000000000e+00 +5.6999999056488004e+00 -2.7041816409548572e-02 -5.2461031967756022e-01 +4.9331221269282169e-03
5.7499999999999902e+00 +8.5260861220122006e+00 +0.0000000000000000e+00 +5.7499999031404396e+00 -2.7044197237080739e-02 -5.2464429009110647e-01 +4.9332311044188691e-03
5.7999999999999901e+00 +8.5260701453080401e+00 +0.0000000000000000e+00 +5.7999999005878804e+00 -2.7046588956634230e-02 -5.2467843304391182e-01 +4.9333492815515408e-03
5.8499999999999899e+00 +8.5260540296512808e+00 +0.0000000000000000e+00 +5.8499998979907204e+00 -2.7048991460404702e-02 -5.2471274594252382e-01 +4.9334766542357749e-03
5.8999999999999897e+00 +8.5260377750455500e+00 +0.0000000000000000e+00 +5.8999998953485804e+00 -2.7051404640586609e-02 -5.2474722619345693e-01 +4.9336132183811126e-03
