# trajectory
# s[mm] rx[mm] ry[mm] rz[mm] px[rad] py[rad] pz[rad]
0.0000000000000000e+00 +8.5389999999999997e+00 +0.0000000000000000e+00 +0.0000000000000000e+00 +0.0000000000000000e+00 +0.0000000000000000e+00 +1.0000000000000000e+00
5.0000000000000003e-02 +8.5389999311584344e+00 +0.0000000000000000e+00 +4.9999999999936803e-02 -2.7536614303984964e-06 +0.0000000000000000e+00 +9.9999999999620870e-01
1.0000000000000001e-01 +8.5389997246339622e+00 +0.0000000000000000e+00 +9.9999999999494493e-02 -5.5073165615145437e-06 +0.0000000000000000e+00 +9.9999999998483480e-01
1.5000000000000002e-01 +8.5389993804268496e+00 +0.0000000000000000e+00 +1.4999999999829391e-01 -8.2609674112309832e-06 +0.0000000000000000e+00 +9.9999999996587829e-01
2.0000000000000001e-01 +8.5389988985372600e+00 +0.0000000000000000e+00 +1.9999999999595594e-01 -1.1014615993412508e-05 +0.0000000000000000e+00 +9.9999999993933919e-01
2.5000000000000000e-01 +8.5389982789652557e+00 +0.0000000000000000e+00 +2.4999999999210146e-01 -1.3768264317905753e-05 +0.0000000000000000e+00 +9.9999999990521748e-01
2.9999999999999999e-01 +8.5389975217107992e+00 +0.0000000000000000e+00 +2.9999999998635130e-01 -1.6521914390539394e-05 +0.0000000000000000e+00 +9.9999999986351318e-01
3.4999999999999998e-01 +8.5389966267737538e+00 +0.0000000000000000e+00 +3.4999999997832637e-01 -1.9275568213124248e-05 +0.0000000000000000e+00 +9.9999999981422627e-01
3.9999999999999997e-01 +8.5389955941538815e+00 +0.0000000000000000e+00 +3.9999999996764757e-01 -2.2029227783453356e-05 +0.0000000000000000e+00 +9.9999999975735665e-01
4.4999999999999996e-01 +8.5389944238508466e+00 +0.0000000000000000e+00 +4.4999999995393569e-01 -2.4782895095302085e-05 +0.0000000000000000e+00 +9.9999999969290410e-01
4.9999999999999994e-01 +8.5389931158642103e+00 +0.0000000000000000e+00 +4.9999999993681160e-01 -2.7536572138428219e-05 +0.0000000000000000e+00 +9.9999999962086861e-01
5.4999999999999993e-01 +8.5389916701934379e+00 +0.0000000000000000e+00 +5.4999999991589621e-01 -3.0290260898572057e-05 +0.0000000000000000e+00 +9.9999999954125007e-01
5.9999999999999998e-01 +8.5389900868378934e+00 +0.0000000000000000e+00 +5.9999999989081032e-01 -3.3043963357456506e-05 +0.0000000000000000e+00 +9.9999999945404827e-01
6.5000000000000002e-01 +8.5389883657968415e+00 +0.0000000000000000e+00 +6.4999999986117474e-01 -3.5797681492787166e-05 +0.0000000000000000e+00 +9.9999999935926298e-01
7.0000000000000007e-01 +8.5389865070694491e+00 +0.0000000000000000e+00 +6.9999999982661021e-01 -3.8551417278252429e-05 +0.0000000000000000e+00 +9.9999999925689409e-01
7.5000000000000011e-01 +8.5389845106547853e+00 +0.0000000000000000e+00 +7.4999999978673770e-01 -4.1305172683523573e-05 +0.0000000000000000e+00 +9.9999999914694138e-01
8.0000000000000016e-01 +8.5389823765518198e+00 +0.0000000000000000e+00 +7.9999999974117797e-01 -4.4058949674254862e-05 +0.0000000000000000e+00 +9.9999999902940451e-01
8.5000000000000020e-01 +8.5389801047594247e+00 +0.0000000000000000e+00 +8.4999999968955176e-01 -4.6812750212083609e-05 +0.0000000000000000e+00 +9.9999999890428326e-01
9.0000000000000024e-01 +8.5389776952763725e+00 +0.0000000000000000e+00 +8.9999999963147992e-01 -4.9566576254630310e-05 +0.0000000000000000e+00 +9.9999999877157730e-01
9.5000000000000029e-01 +8.5389751481013416e+00 +0.0000000000000000e+00 +9.4999999956658310e-01 -5.2320429755498692e-05 +0.0000000000000000e+00 +9.9999999863128641e-01
1.0000000000000002e+00 +8.5389724632329074e+00 +0.0000000000000000e+00 +9.9999999949448215e-01 -5.5074312664275840e-05 +0.0000000000000000e+00 +9.9999999848341015e-01
1.0500000000000003e+00 +8.5389696406695528e+00 +0.0000000000000000e+00 +1.0499999994147977e+00 -5.7828226926532269e-05 +0.0000000000000000e+00 +9.9999999832794817e-01
1.1000000000000003e+00 +8.5389666804096596e+00 +0.0000000000000000e+00 +1.0999999993271505e+00 -6.0582174483822014e-05 +0.0000000000000000e+00 +9.9999999816490015e-01
1.1500000000000004e+00 +8.5389635824515171e+00 +0.0000000000000000e+00 +1.1499999992311614e+00 -6.3336157273682729e-05 +0.0000000000000000e+00 +9.9999999799426564e-01
1.2000000000000004e+00 +8.5389603467933135e+00 +0.0000000000000000e+00 +1.1999999991264507e+00 -6.6090177229635765e-05 +0.0000000000000000e+00 +9.9999999781604432e-01
1.2500000000000004e+00 +8.5389569734331427e+00 +0.0000000000000000e+00 +1.2499999990126394e+00 -6.8844236281186274e-05 +0.0000000000000000e+00 +9.9999999763023562e-01
1.3000000000000005e+00 +8.5389534623690011e+00 +0.0000000000000000e+00 +1.2999999988893478e+00 -7.1598336353823294e-05 +0.0000000000000000e+00 +9.9999999743683921e-01
1.3500000000000005e+00 +8.5389498135987907e+00 +0.0000000000000000e+00 +1.3499999987561968e+00 -7.4352479369019830e-05 +0.0000000000000000e+00 +9.9999999723585453e-01
1.4000000000000006e+00 +8.5389460271203159e+00 +0.0000000000000000e+00 +1.3999999986128069e+00 -7.7106667244232946e-05 +0.0000000000000000e+00 +9.9999999702728104e-01
1.4500000000000006e+00 +8.5389421029312871e+00 +0.0000000000000000e+00 +1.4499999984587986e+00 -7.9860901892903863e-05 +0.0000000000000000e+00 +9.9999999681111829e-01
1.5000000000000007e+00 +8.5389380410293168e+00 +0.0000000000000000e+00 +1.4999999982937924e+00 -8.2615185224458039e-05 +0.0000000000000000e+00 +9.9999999658736571e-01
1.5500000000000007e+00 +8.5389338414119216e+00 +0.0000000000000000e+00 +1.5499999981174086e+00 -8.5369519144305251e-05 +0.0000000000000000e+00 +9.9999999635602277e-01
1.6000000000000008e+00 +8.5389295040765276e+00 +0.0000000000000000e+00 +1.5999999979292681e+00 -8.8123905553839688e-05 +0.0000000000000000e+00 +9.9999999611708879e-01
1.6500000000000008e+00 +8.5389250290204597e+00 +0.0000000000000000e+00 +1.6499999977289910e+00 -9.0878346350440047e-05 +0.0000000000000000e+00 +9.9999999587056321e-01
1.7000000000000008e+00 +8.5389204162409538e+00 +0.0000000000000000e+00 +1.6999999975161979e+00 -9.3632843427469617e-05 +0.0000000000000000e+00 +9.9999999561644548e-01
1.7500000000000009e+00 +8.5389156657351482e+00 +0.0000000000000000e+00 +1.7499999972905091e+00 -9.6387398674276342e-05 +0.0000000000000000e+00 +9.9999999535473483e-01
1.8000000000000009e+00 +8.5389107775000852e+00 +0.0000000000000000e+00 +1.7999999970515450e+00 -9.9142013976192959e-05 +0.0000000000000000e+00 +9.9999999508543069e-01
1.8500000000000010e+00 +8.5389057515327167e+00 +0.0000000000000000e+00 +1.8499999967989258e+00 -1.0189669121453701e-04 +0.0000000000000000e+00 +9.9999999480853230e-01
1.9000000000000010e+00 +8.5389005878299002e+00 +0.0000000000000000e+00 +1.8999999965322718e+00 -1.0465143226661101e-04 +0.0000000000000000e+00 +9.9999999452403898e-01
1.9500000000000011e+00 +8.5388952863883958e+00 +0.0000000000000000e+00 +1.9499999962512031e+00 -1.0740623900570247e-04 +0.0000000000000000e+00 +9.9999999423195007e-01
2.0000000000000009e+00 +8.5388898472048727e+00 +0.0000000000000000e+00 +1.9999999959553401e+00 -1.1016111330108400e-04 +0.0000000000000000e+00 +9.9999999393226469e-01
2.0500000000000007e+00 +8.5388842702759078e+00 +0.0000000000000000e+00 +2.0499999956443027e+00 -1.1291605701772155e-04 +0.0000000000000000e+00 +9.9999999362498215e-01
2.1000000000000005e+00 +8.5388785555979823e+00 +0.0000000000000000e+00 +2.0999999953177113e+00 -1.1567107201306395e-04 +0.0000000000000000e+00 +9.9999999331010170e-01
2.1500000000000004e+00 +8.5388727031674865e+00 +0.0000000000000000e+00 +2.1499999949751860e+00 -1.1842616013383258e-04 +0.0000000000000000e+00 +9.9999999298762243e-01
2.2000000000000002e+00 +8.5388667129807185e+00 +0.0000000000000000e+00 +2.1999999946163467e+00 -1.2118132321572944e-04 +0.0000000000000000e+00 +9.9999999265754358e-01
2.2500000000000000e+00 +8.5388605850338841e+00 +0.0000000000000000e+00 +2.2499999942408135e+00 -1.2393656308343730e-04 +0.0000000000000000e+00 +9.9999999231986425e-01
2.2999999999999998e+00 +8.5388543193231001e+00 +0.0000000000000000e+00 +2.2999999938482065e+00 -1.2669188155061976e-04 +0.0000000000000000e+00 +9.9999999197458367e-01
2.3499999999999996e+00 +8.5388479158443893e+00 +0.0000000000000000e+00 +2.3499999934381455e+00 -1.2944728041992123e-04 +0.0000000000000000e+00 +9.9999999162170083e-01
2.3999999999999995e+00 +8.5388413745936873e+00 +0.0000000000000000e+00 +2.3999999930102502e+00 -1.3220276148296706e-04 +0.0000000000000000e+00 +9.9999999126121497e-01
2.4499999999999993e+00 +8.5388346955668410e+00 +0.0000000000000000e+00 +2.4499999925641402e+00 -1.3495832652036361e-04 +0.0000000000000000e+00 +9.9999999089312508e-01
2.4999999999999991e+00 +8.5388278787596068e+00 +0.0000000000000000e+00 +2.4999999920994358e+00 -1.3771397730169820e-04 +0.0000000000000000e+00 +9.9999999051743027e-01
2.5499999999999989e+00 +8.5388209241676520e+00 +0.0000000000000000e+00 +2.5499999916157563e+00 -1.4046971558553926e-04 +0.0000000000000000e+00 +9.9999999013412955e-01
2.5999999999999988e+00 +8.5388138317865607e+00 +0.0000000000000000e+00 +2.5999999911127216e+00 -1.4322554311943633e-04 +0.0000000000000000e+00 +9.9999998974322191e-01
2.6499999999999986e+00 +8.5388066016118245e+00 +0.0000000000000000e+00 +2.6499999905899516e+00 -1.4598146163992014e-04 +0.0000000000000000e+00 +9.9999998934470646e-01
2.6999999999999984e+00 +8.5387992336388514e+00 +0.0000000000000000e+00 +2.6999999900470657e+00 -1.4873747287250260e-04 +0.0000000000000000e+00 +9.9999998893858211e-01
2.7499999999999982e+00 +8.5387917278629626e+00 +0.0000000000000000e+00 +2.7499999894836833e+00 -1.5149357853167696e-04 +0.0000000000000000e+00 +9.9999998852484784e-01
2.7999999999999980e+00 +8.5387840842793956e+00 +0.0000000000000000e+00 +2.7999999888994238e+00 -1.5424978032091768e-04 +0.0000000000000000e+00 +9.9999998810350266e-01
2.8499999999999979e+00 +8.5387763028833010e+00 +0.0000000000000000e+00 +2.8499999882939067e+00 -1.5700607993268065e-04 +0.0000000000000000e+00 +9.9999998767454545e-01
2.8999999999999977e+00 +8.5387683836697441e+00 +0.0000000000000000e+00 +2.8999999876667513e+00 -1.5976247904840311e-04 +0.0000000000000000e+00 +9.9999998723797512e-01
2.9499999999999975e+00 +8.5387603266337102e+00 +0.0000000000000000e+00 +2.9499999870175770e+00 -1.6251897933850374e-04 +0.0000000000000000e+00 +9.9999998679379065e-01
2.9999999999999973e+00 +8.5387521317700976e+00 +0.0000000000000000e+00 +2.9999999863460034e+00 -1.6527558246238265e-04 +0.0000000000000000e+00 +9.9999998634199094e-01
3.0499999999999972e+00 +8.5387437990737229e+00 +0.0000000000000000e+00 +3.0499999856516493e+00 -1.6803229006842149e-04 +0.0000000000000000e+00 +9.9999998588257477e-01
3.0999999999999970e+00 +8.5387353285393228e+00 +0.0000000000000000e+00 +3.0999999849341338e+00 -1.7078910379398344e-04 +0.0000000000000000e+00 +9.9999998541554103e-01
3.1499999999999968e+00 +8.5387267201615487e+00 +0.0000000000000000e+00 +3.1499999841930761e+00 -1.7354602526541320e-04 +0.0000000000000000e+00 +9.9999998494088860e-01
3.1999999999999966e+00 +8.5387179739349737e+00 +0.0000000000000000e+00 +3.1999999834280954e+00 -1.7630305609803713e-04 +0.0000000000000000e+00 +9.9999998445861626e-01
3.2499999999999964e+00 +8.5387090898540894e+00 +0.0000000000000000e+00 +3.2499999826388106e+00 -1.7906019789616314e-04 +0.0000000000000000e+00 +9.9999998396872281e-01
3.2999999999999963e+00 +8.5387000679133074e+00 +0.0000000000000000e+00 +3.2999999818248407e+00 -1.8181745225308088e-04 +0.0000000000000000e+00 +9.9999998347120711e-01
3.3499999999999961e+00 +8.5386909081069611e+00 +0.0000000000000000e+00 +3.3499999809858041e+00 -1.8457482075106161e-04 +0.0000000000000000e+00 +9.9999998296606785e-01
3.3999999999999959e+00 +8.5386816104293040e+00 +0.0000000000000000e+00 +3.3999999801213203e+00 -1.8733230496135835e-04 +0.0000000000000000e+00 +9.9999998245330379e-01
3.4499999999999957e+00 +8.5386721748745114e+00 +0.0000000000000000e+00 +3.4499999792310074e+00 -1.9008990644420578e-04 +0.0000000000000000e+00 +9.9999998193291373e-01
3.4999999999999956e+00 +8.5386626014366804e+00 +0.0000000000000000e+00 +3.4999999783144844e+00 -1.9284762674882036e-04 +0.0000000000000000e+00 +9.9999998140489643e-01
3.5499999999999954e+00 +8.5386528901098302e+00 +0.0000000000000000e+00 +3.5499999773713697e+00 -1.9560546741340034e-04 +0.0000000000000000e+00 +9.9999998086925057e-01
3.5999999999999952e+00 +8.5386430408879068e+00 +0.0000000000000000e+00 +3.5999999764012820e+00 -1.9836342996512572e-04 +0.0000000000000000e+00 +9.9999998032597481e-01
3.6499999999999950e+00 +8.5386330537647765e+00 +0.0000000000000000e+00 +3.6499999754038397e+00 -2.0112151592015828e-04 +0.0000000000000000e+00 +9.9999997977506794e-01
3.6999999999999948e+00 +8.5386229287342328e+00 +0.0000000000000000e+00 +3.6999999743786613e+00 -2.0387972678364170e-04 +0.0000000000000000e+00 +9.9999997921652850e-01
3.7499999999999947e+00 +8.5386126657899926e+00 +0.0000000000000000e+00 +3.7499999733253651e+00 -2.0663806404970140e-04 +0.0000000000000000e+00 +9.9999997865035528e-01
3.7999999999999945e+00 +8.5386022649256965e+00 +0.0000000000000000e+00 +3.7999999722435693e+00 -2.0939652920144470e-04 +0.0000000000000000e+00 +9.9999997807654684e-01
3.8499999999999943e+00 +8.5385917261349160e+00 +0.0000000000000000e+00 +3.8499999711328923e+00 -2.1215512371096075e-04 +0.0000000000000000e+00 +9.9999997749510183e-01
3.8999999999999941e+00 +8.5385810494111460e+00 +0.0000000000000000e+00 +3.8999999699929520e+00 -2.1491384903932057e-04 +0.0000000000000000e+00 +9.9999997690601883e-01
3.9499999999999940e+00 +8.5385702347478087e+00 +0.0000000000000000e+00 +3.9499999688233665e+00 -2.1767270663657705e-04 +0.0000000000000000e+00 +9.9999997630929649e-01
3.9999999999999938e+00 +8.5385592821382552e+00 +0.0000000000000000e+00 +3.9999999676237539e+00 -2.2043169794176492e-04 +0.0000000000000000e+00 +9.9999997570493337e-01
4.0499999999999936e+00 +8.5385481915757637e+00 +0.0000000000000000e+00 +4.0499999663937318e+00 -2.2319082438275125e-04 +0.0000000000000000e+00 +9.9999997509292804e-01
4.0999999999999934e+00 +8.5385369630535415e+00 +0.0000000000000000e+00 +4.0999999651329189e+00 -2.2595008737459008e-04 +0.0000000000000000e+00 +9.9999997447327904e-01
4.1499999999999932e+00 +8.5385255965647264e+00 +0.0000000000000000e+00 +4.1499999638409326e+00 -2.2870948831787706e-04 +0.0000000000000000e+00 +9.9999997384598505e-01
4.1999999999999931e+00 +8.5385140921023872e+00 +0.0000000000000000e+00 +4.1999999625173903e+00 -2.3146902859859993e-04 +0.0000000000000000e+00 +9.9999997321104450e-01
4.2499999999999929e+00 +8.5385024496595214e+00 +0.0000000000000000e+00 +4.2499999611619099e+00 -2.3422870958813853e-04 +0.0000000000000000e+00 +9.9999997256845585e-01
4.2999999999999927e+00 +8.5384906692290610e+00 +0.0000000000000000e+00 +4.2999999597741088e+00 -2.3698853264326474e-04 +0.0000000000000000e+00 +9.9999997191821777e-01
4.3499999999999925e+00 +8.5384787508038684e+00 +0.0000000000000000e+00 +4.3499999583536040e+00 -2.3974849910614259e-04 +0.0000000000000000e+00 +9.9999997126032869e-01
4.3999999999999924e+00 +8.5384666943767389e+00 +0.0000000000000000e+00 +4.3999999569000137e+00 -2.4250861030432821e-04 +0.0000000000000000e+00 +9.9999997059478707e-01
4.4499999999999922e+00 +8.5384544999404035e+00 +0.0000000000000000e+00 +4.4499999554129550e+00 -2.4526886755076981e-04 +0.0000000000000000e+00 +9.9999996992159135e-01
4.4999999999999920e+00 +8.5384421674875277e+00 +0.0000000000000000e+00 +4.4999999538920452e+00 -2.4802927214380779e-04 +0.0000000000000000e+00 +9.9999996924074008e-01
4.5499999999999918e+00 +8.5384296970107112e+00 +0.0000000000000000e+00 +4.5499999523369015e+00 -2.5078982536717458e-04 +0.0000000000000000e+00 +9.9999996855223172e-01
4.5999999999999917e+00 +8.5384170885024915e+00 +0.0000000000000000e+00 +4.5999999507471410e+00 -2.5355052848999472e-04 +0.0000000000000000e+00 +9.9999996785606471e-01
4.6499999999999915e+00 +8.5384043419553421e+00 +0.0000000000000000e+00 +4.6499999491223800e+00 -2.5631138276678502e-04 +0.0000000000000000e+00 +9.9999996715223749e-01
4.6999999999999913e+00 +8.5383914573616746e+00 +0.0000000000000000e+00 +4.6999999474622367e+00 -2.5907238943745424e-04 +0.0000000000000000e+00 +9.9999996644074840e-01
4.7499999999999911e+00 +8.5383784347138381e+00 +0.0000000000000000e+00 +4.7499999457663273e+00 -2.6183354972730334e-04 +0.0000000000000000e+00 +9.9999996572159600e-01
4.7999999999999909e+00 +8.5383652740041214e+00 +0.0000000000000000e+00 +4.7999999440342682e+00 -2.6459486484702532e-04 +0.0000000000000000e+00 +9.9999996499477861e-01
4.8499999999999908e+00 +8.5383519752247530e+00 +0.0000000000000000e+00 +4.8499999422656774e+00 -2.6735633599270540e-04 +0.0000000000000000e+00 +9.9999996426029469e-01
4.8999999999999906e+00 +8.5383385383679027e+00 +0.0000000000000000e+00 +4.8999999404601704e+00 -2.7011796434582086e-04 +0.0000000000000000e+00 +9.9999996351814258e-01
4.9499999999999904e+00 +8.5383249634256799e+00 +0.0000000000000000e+00 +4.9499999386173643e+00 -2.7287975107324110e-04 +0.0000000000000000e+00 +9.9999996276832059e-01
4.9999999999999902e+00 +8.5383112503901373e+00 +0.0000000000000000e+00 +4.9999999367368746e+00 -2.7564169732722751e-04 +0.0000000000000000e+00 +9.9999996201082719e-01
5.0499999999999901e+00 +8.5382973992532705e+00 +0.0000000000000000e+00 +5.0499999348183184e+00 -2.7840380424543363e-04 +0.0000000000000000e+00 +9.9999996124566071e-01
5.0999999999999899e+00 +8.5382834100070166e+00 +0.0000000000000000e+00 +5.0999999328613121e+00 -2.8116607295090515e-04 +0.0000000000000000e+00 +9.9999996047281947e-01
5.1499999999999897e+00 +8.5382692826432596e+00 +0.0000000000000000e+00 +5.1499999308654720e+00 -2.8392850455207966e-04 +0.0000000000000000e+00 +9.9999995969230193e-01
5.1999999999999895e+00 +8.5382550171538281e+00 +0.0000000000000000e+00 +5.1999999288304144e+00 -2.8669110014278685e-04 +0.0000000000000000e+00 +9.9999995890410631e-01
5.2499999999999893e+00 +8.5382406135304940e+00 +0.0000000000000000e+00 +5.2499999267557547e+00 -2.8945386080224850e-04 +0.0000000000000000e+00 +9.9999995810823095e-01
5.2999999999999892e+00 +8.5382260717649778e+00 +0.0000000000000000e+00 +5.2999999246411091e+00 -2.9221678759507838e-04 +0.0000000000000000e+00 +9.9999995730467417e-01
5.3499999999999890e+00 +8.5382113918489466e+00 +0.0000000000000000e+00 +5.3499999224860941e+00 -2.9497988157128218e-04 +0.0000000000000000e+00 +9.9999995649343432e-01
5.3999999999999888e+00 +8.5381965737740160e+00 +0.0000000000000000e+00 +5.3999999202903251e+00 -2.9774314376625769e-04 +0.0000000000000000e+00 +9.9999995567450972e-01
5.4499999999999886e+00 +8.5381816175317482e+00 +0.0000000000000000e+00 +5.4499999180534173e+00 -3.0050657520079457e-04 +0.0000000000000000e+00 +9.9999995484789861e-01
5.4999999999999885e+00 +8.5381665231136576e+00 +0.0000000000000000e+00 +5.4999999157749873e+00 -3.0327017688107442e-04 +0.0000000000000000e+00 +9.9999995401359931e-01
5.5499999999999883e+00 +8.5381512905112054e+00 +0.0000000000000000e+00 +5.5499999134546494e+00 -3.0603394979867085e-04 +0.0000000000000000e+00 +9.9999995317161017e-01
5.5999999999999881e+00 +8.5381359197158062e+00 +0.0000000000000000e+00 +5.5999999110920200e+00 -3.0879789493054930e-04 +0.0000000000000000e+00 +9.9999995232192940e-01
5.6499999999999879e+00 +8.5381204107188253e+00 +0.0000000000000000e+00 +5.6499999086867145e+00 -3.1156201323906705e-04 +0.0000000000000000e+00 +9.9999995146455523e-01
5.6999999999999877e+00 +8.5381047635115799e+00 +0.0000000000000000e+00 +5.6999999062383475e+00 -3.1432630567197327e-04 +0.0000000000000000e+00 +9.9999995059948599e-01
5.7499999999999876e+00 +8.5380889780853408e+00 +0.0000000000000000e+00 +5.7499999037465344e+00 -3.1709077316240895e-04 +0.0000000000000000e+00 +9.9999994972671991e-01
5.7999999999999874e+00 +8.5380730544313312e+00 +0.0000000000000000e+00 +5.7999999012108905e+00 -3.1985541662890685e-04 +0.0000000000000000e+00 +9.9999994884625532e-01
5.8499999999999872e+00 +8.5380569925407297e+00 +0.0000000000000000e+00 +5.8499998986310313e+00 -3.2262023697539154e-04 +0.0000000000000000e+00 +9.9999994795809044e-01
5.8999999999999870e+00 +8.5380407924046704e+00 +0.0000000000000000e+00 +5.8999998960065714e+00 -3.2538523509117930e-04 +0.0000000000000000e+00 +9.9999994706222339e-01
