# trajectory
# s[mm] rx[mm] ry[mm] rz[mm] px[rad] py[rad] pz[rad]
0.0000000000000000e+00 +8.2850000000000001e+00 +0.0000000000000000e+00 +0.0000000000000000e+00 +0.0000000000000000e+00 +0.0000000000000000e+00 +1.0000000000000000e+00
5.0000000000000003e-02 +8.2849999309295281e+00 +0.0000000000000000e+00 +4.9999999999936394e-02 -2.7628205909846169e-06 +0.0000000000000000e+00 +9.9999999999618339e-01
1.0000000000000001e-01 +8.2849997237177568e+00 +0.0000000000000000e+00 +9.9999999999491121e-02 -5.5256522321465213e-06 +0.0000000000000000e+00 +9.9999999998473355e-01
1.5000000000000002e-01 +8.2849993783640894e+00 +0.0000000000000000e+00 +1.4999999999828251e-01 -8.2884967976539074e-06 +0.0000000000000000e+00 +9.9999999996565037e-01
2.0000000000000001e-01 +8.2849988948678313e+00 +0.0000000000000000e+00 +1.9999999999592891e-01 -1.1051356155631361e-05 +0.0000000000000000e+00 +9.9999999993893374e-01
2.5000000000000000e-01 +8.2849982732281973e+00 +0.0000000000000000e+00 +2.4999999999204864e-01 -1.3814232168159947e-05 +0.0000000000000000e+00 +9.9999999990458344e-01
2.9999999999999999e-01 +8.2849975134443063e+00 +0.0000000000000000e+00 +2.9999999998626004e-01 -1.6577126691277299e-05 +0.0000000000000000e+00 +9.9999999986259935e-01
3.4999999999999998e-01 +8.2849966155151886e+00 +0.0000000000000000e+00 +3.4999999997818138e-01 -1.9340041574977698e-05 +0.0000000000000000e+00 +9.9999999981298127e-01
3.9999999999999997e-01 +8.2849955794397783e+00 +0.0000000000000000e+00 +3.9999999996743096e-01 -2.2102978663212162e-05 +0.0000000000000000e+00 +9.9999999975572906e-01
4.4999999999999996e-01 +8.2849944052169207e+00 +0.0000000000000000e+00 +4.4999999995362705e-01 -2.4865939793888530e-05 +0.0000000000000000e+00 +9.9999999969084241e-01
4.9999999999999994e-01 +8.2849930928453670e+00 +0.0000000000000000e+00 +4.9999999993638794e-01 -2.7628926798871545e-05 +0.0000000000000000e+00 +9.9999999961832109e-01
5.4999999999999993e-01 +8.2849916423237779e+00 +0.0000000000000000e+00 +5.4999999991533188e-01 -3.0391941503982935e-05 +0.0000000000000000e+00 +9.9999999953816487e-01
5.9999999999999998e-01 +8.2849900536507235e+00 +0.0000000000000000e+00 +5.9999999989007713e-01 -3.3154985729001497e-05 +0.0000000000000000e+00 +9.9999999945037343e-01
6.5000000000000002e-01 +8.2849883268246831e+00 +0.0000000000000000e+00 +6.4999999986024193e-01 -3.5918061287663174e-05 +0.0000000000000000e+00 +9.9999999935494643e-01
7.0000000000000007e-01 +8.2849864618440439e+00 +0.0000000000000000e+00 +6.9999999982544447e-01 -3.8681169987661138e-05 +0.0000000000000000e+00 +9.9999999925188354e-01
7.5000000000000011e-01 +8.2849844587071022e+00 +0.0000000000000000e+00 +7.4999999978530296e-01 -4.1444313630645880e-05 +0.0000000000000000e+00 +9.9999999914118443e-01
8.0000000000000016e-01 +8.2849823174120676e+00 +0.0000000000000000e+00 +7.9999999973943559e-01 -4.4207494012225277e-05 +0.0000000000000000e+00 +9.9999999902284875e-01
8.5000000000000020e-01 +8.2849800379570588e+00 +0.0000000000000000e+00 +8.4999999968746054e-01 -4.6970712921964667e-05 +0.0000000000000000e+00 +9.9999999889687607e-01
9.0000000000000024e-01 +8.2849776203401042e+00 +0.0000000000000000e+00 +8.9999999962899591e-01 -4.9733972143386942e-05 +0.0000000000000000e+00 +9.9999999876326606e-01
9.5000000000000029e-01 +8.2849750645591431e+00 +0.0000000000000000e+00 +9.4999999956365988e-01 -5.2497273453972610e-05 +0.0000000000000000e+00 +9.9999999862201816e-01
1.0000000000000002e+00 +8.2849723706120280e+00 +0.0000000000000000e+00 +9.9999999949107043e-01 -5.5260618625159883e-05 +0.0000000000000000e+00 +9.9999999847313203e-01
1.0500000000000003e+00 +8.2849695384965205e+00 +0.0000000000000000e+00 +1.0499999994108458e+00 -5.8024009422344746e-05 +0.0000000000000000e+00 +9.9999999831660713e-01
1.1000000000000003e+00 +8.2849665682102955e+00 +0.0000000000000000e+00 +1.0999999993226039e+00 -6.0787447604881043e-05 +0.0000000000000000e+00 +9.9999999815244311e-01
1.1500000000000004e+00 +8.2849634597509407e+00 +0.0000000000000000e+00 +1.1499999992259629e+00 -6.3550934926080523e-05 +0.0000000000000000e+00 +9.9999999798063932e-01
1.2000000000000004e+00 +8.2849602131159550e+00 +0.0000000000000000e+00 +1.1999999991205406e+00 -6.6314473133212963e-05 +0.0000000000000000e+00 +9.9999999780119531e-01
1.2500000000000004e+00 +8.2849568283027502e+00 +0.0000000000000000e+00 +1.2499999990059552e+00 -6.9078063967506183e-05 +0.0000000000000000e+00 +9.9999999761411051e-01
1.3000000000000005e+00 +8.2849533053086528e+00 +0.0000000000000000e+00 +1.2999999988818243e+00 -7.1841709164146154e-05 +0.0000000000000000e+00 +9.9999999741938439e-01
1.3500000000000005e+00 +8.2849496441308990e+00 +0.0000000000000000e+00 +1.3499999987477662e+00 -7.4605410452277074e-05 +0.0000000000000000e+00 +9.9999999721701638e-01
1.4000000000000006e+00 +8.2849458447666429e+00 +0.0000000000000000e+00 +1.3999999986033986e+00 -7.7369169555001411e-05 +0.0000000000000000e+00 +9.9999999700700581e-01
1.4500000000000006e+00 +8.2849419072129500e+00 +0.0000000000000000e+00 +1.4499999984483394e+00 -8.0132988189380013e-05 +0.0000000000000000e+00 +9.9999999678935214e-01
1.5000000000000007e+00 +8.2849378314668023e+00 +0.0000000000000000e+00 +1.4999999982822063e+00 -8.2896868066432132e-05 +0.0000000000000000e+00 +9.9999999656405469e-01
1.5500000000000007e+00 +8.2849336175250947e+00 +0.0000000000000000e+00 +1.5499999981046173e+00 -8.5660810891135533e-05 +0.0000000000000000e+00 +9.9999999633111281e-01
1.6000000000000008e+00 +8.2849292653846369e+00 +0.0000000000000000e+00 +1.5999999979151902e+00 -8.8424818362426523e-05 +0.0000000000000000e+00 +9.9999999609052581e-01
1.6500000000000008e+00 +8.2849247750421533e+00 +0.0000000000000000e+00 +1.6499999977135424e+00 -9.1188892173200059e-05 +0.0000000000000000e+00 +9.9999999584229304e-01
1.7000000000000008e+00 +8.2849201464942865e+00 +0.0000000000000000e+00 +1.6999999974992919e+00 -9.3953034010309786e-05 +0.0000000000000000e+00 +9.9999999558641373e-01
1.7500000000000009e+00 +8.2849153797375905e+00 +0.0000000000000000e+00 +1.7499999972720564e+00 -9.6717245554568123e-05 +0.0000000000000000e+00 +9.9999999532288719e-01
1.8000000000000009e+00 +8.2849104747685409e+00 +0.0000000000000000e+00 +1.7999999970314533e+00 -9.9481528480746312e-05 +0.0000000000000000e+00 +9.9999999505171278e-01
1.8500000000000010e+00 +8.2849054315835247e+00 +0.0000000000000000e+00 +1.8499999967771001e+00 -1.0224588445757448e-04 +0.0000000000000000e+00 +9.9999999477288959e-01
1.9000000000000010e+00 +8.2849002501788487e+00 +0.0000000000000000e+00 +1.8999999965086147e+00 -1.0501031514774172e-04 +0.0000000000000000e+00 +9.9999999448641685e-01
1.9500000000000011e+00 +8.2848949305507364e+00 +0.0000000000000000e+00 +1.9499999962256145e+00 -1.0777482220789616e-04 +0.0000000000000000e+00 +9.9999999419229380e-01
2.0000000000000009e+00 +8.2848894726953279e+00 +0.0000000000000000e+00 +1.9999999959277166e+00 -1.1053940728864498e-04 +0.0000000000000000e+00 +9.9999999389051963e-01
2.0500000000000007e+00 +8.2848838766086796e+00 +0.0000000000000000e+00 +2.0499999956145389e+00 -1.1330407203436491e-04 +0.0000000000000000e+00 +9.9999999358109359e-01
2.1000000000000005e+00 +8.2848781422867681e+00 +0.0000000000000000e+00 +2.0999999952856987e+00 -1.1606881808111605e-04 +0.0000000000000000e+00 +9.9999999326401467e-01
2.1500000000000004e+00 +8.2848722697254882e+00 +0.0000000000000000e+00 +2.1499999949408131e+00 -1.1883364705455586e-04 +0.0000000000000000e+00 +9.9999999293928210e-01
2.2000000000000002e+00 +8.2848662589206530e+00 +0.0000000000000000e+00 +2.1999999945794992e+00 -1.2159856056974958e-04 +0.0000000000000000e+00 +9.9999999260689498e-01
2.2500000000000000e+00 +8.2848601098679957e+00 +0.0000000000000000e+00 +2.2499999942013749e+00 -1.2436356023117021e-04 +0.0000000000000000e+00 +9.9999999226685243e-01
2.2999999999999998e+00 +8.2848538225631678e+00 +0.0000000000000000e+00 +2.2999999938060571e+00 -1.2712864763269867e-04 +0.0000000000000000e+00 +9.9999999191915345e-01
2.3499999999999996e+00 +8.2848473970017427e+00 +0.0000000000000000e+00 +2.3499999933931628e+00 -1.2989382435762373e-04 +0.0000000000000000e+00 +9.9999999156379715e-01
2.3999999999999995e+00 +8.2848408331792154e+00 +0.0000000000000000e+00 +2.3999999929623090e+00 -1.3265909197864213e-04 +0.0000000000000000e+00 +9.9999999120078265e-01
2.4499999999999993e+00 +8.2848341310910030e+00 +0.0000000000000000e+00 +2.4499999925131131e+00 -1.3542445205785860e-04 +0.0000000000000000e+00 +9.9999999083010893e-01
2.4999999999999991e+00 +8.2848272907324425e+00 +0.0000000000000000e+00 +2.4999999920451921e+00 -1.3818990614678596e-04 +0.0000000000000000e+00 +9.9999999045177490e-01
2.5499999999999989e+00 +8.2848203120987947e+00 +0.0000000000000000e+00 +2.5499999915581628e+00 -1.4095545578634509e-04 +0.0000000000000000e+00 +9.9999999006577966e-01
2.5999999999999988e+00 +8.2848131951852455e+00 +0.0000000000000000e+00 +2.5999999910516425e+00 -1.4372110250686503e-04 +0.0000000000000000e+00 +9.9999998967212222e-01
2.6499999999999986e+00 +8.2848059399869012e+00 +0.0000000000000000e+00 +2.6499999905252474e+00 -1.4648684782808300e-04 +0.0000000000000000e+00 +9.9999998927080158e-01
2.6999999999999984e+00 +8.2847985464987950e+00 +0.0000000000000000e+00 +2.6999999899785947e+00 -1.4925269325914445e-04 +0.0000000000000000e+00 +9.9999998886181662e-01
2.7499999999999982e+00 +8.2847910147158821e+00 +0.0000000000000000e+00 +2.7499999894113012e+00 -1.5201864029860311e-04 +0.0000000000000000e+00 +9.9999998844516635e-01
2.7999999999999980e+00 +8.2847833446330466e+00 +0.0000000000000000e+00 +2.7999999888229836e+00 -1.5478469043442099e-04 +0.0000000000000000e+00 +9.9999998802084966e-01
2.8499999999999979e+00 +8.2847755362450961e+00 +0.0000000000000000e+00 +2.8499999882132583e+00 -1.5755084514396849e-04 +0.0000000000000000e+00 +9.9999998758886544e-01
2.8999999999999977e+00 +8.2847675895467656e+00 +0.0000000000000000e+00 +2.8999999875817424e+00 -1.6031710589402436e-04 +0.0000000000000000e+00 +9.9999998714921257e-01
2.9499999999999975e+00 +8.2847595045327154e+00 +0.0000000000000000e+00 +2.9499999869280518e+00 -1.6308347414077581e-04 +0.0000000000000000e+00 +9.9999998670189005e-01
2.9999999999999973e+00 +8.2847512811975363e+00 +0.0000000000000000e+00 +2.9999999862518032e+00 -1.6584995132981847e-04 +0.0000000000000000e+00 +9.9999998624689668e-01
3.0499999999999972e+00 +8.2847429195357432e+00 +0.0000000000000000e+00 +3.0499999855526134e+00 -1.6861653889615653e-04 +0.0000000000000000e+00 +9.9999998578423122e-01
3.0999999999999970e+00 +8.2847344195417829e+00 +0.0000000000000000e+00 +3.0999999848300983e+00 -1.7138323826420263e-04 +0.0000000000000000e+00 +9.9999998531389267e-01
3.1499999999999968e+00 +8.2847257812100299e+00 +0.0000000000000000e+00 +3.1499999840838746e+00 -1.7415005084777806e-04 +0.0000000000000000e+00 +9.9999998483587971e-01
3.1999999999999966e+00 +8.2847170045347873e+00 +0.0000000000000000e+00 +3.1999999833135582e+00 -1.7691697805011266e-04 +0.0000000000000000e+00 +9.9999998435019122e-01
3.2499999999999964e+00 +8.2847080895102909e+00 +0.0000000000000000e+00 +3.2499999825187658e+00 -1.7968402126384493e-04 +0.0000000000000000e+00 +9.9999998385682598e-01
3.2999999999999963e+00 +8.2846990361307054e+00 +0.0000000000000000e+00 +3.2999999816991128e+00 -1.8245118187102199e-04 +0.0000000000000000e+00 +9.9999998335578288e-01
3.3499999999999961e+00 +8.2846898443901260e+00 +0.0000000000000000e+00 +3.3499999808542160e+00 -1.8521846124309966e-04 +0.0000000000000000e+00 +9.9999998284706060e-01
3.3999999999999959e+00 +8.2846805142825790e+00 +0.0000000000000000e+00 +3.3999999799836909e+00 -1.8798586074094249e-04 +0.0000000000000000e+00 +9.9999998233065790e-01
3.4499999999999957e+00 +8.2846710458020265e+00 +0.0000000000000000e+00 +3.4499999790871536e+00 -1.9075338171482378e-04 +0.0000000000000000e+00 +9.9999998180657346e-01
3.4999999999999956e+00 +8.2846614389423614e+00 +0.0000000000000000e+00 +3.4999999781642201e+00 -1.9352102550442558e-04 +0.0000000000000000e+00 +9.9999998127480616e-01
3.5499999999999954e+00 +8.2846516936974073e+00 +0.0000000000000000e+00 +3.5499999772145063e+00 -1.9628879343883872e-04 +0.0000000000000000e+00 +9.9999998073535457e-01
3.5999999999999952e+00 +8.2846418100609256e+00 +0.0000000000000000e+00 +3.5999999762376276e+00 -1.9905668683656288e-04 +0.0000000000000000e+00 +9.9999998018821745e-01
3.6499999999999950e+00 +8.2846317880266103e+00 +0.0000000000000000e+00 +3.6499999752331997e+00 -2.0182470700550657e-04 +0.0000000000000000e+00 +9.9999997963339360e-01
3.6999999999999948e+00 +8.2846216275880895e+00 +0.0000000000000000e+00 +3.6999999742008387e+00 -2.0459285524298716e-04 +0.0000000000000000e+00 +9.9999997907088156e-01
3.7499999999999947e+00 +8.2846113287389294e+00 +0.0000000000000000e+00 +3.7499999731401599e+00 -2.0736113283573087e-04 +0.0000000000000000e+00 +9.9999997850068001e-01
3.7999999999999945e+00 +8.2846008914726283e+00 +0.0000000000000000e+00 +3.7999999720507787e+00 -2.1012954105987286e-04 +0.0000000000000000e+00 +9.9999997792278772e-01
3.8499999999999943e+00 +8.2845903157826246e+00 +0.0000000000000000e+00 +3.8499999709323105e+00 -2.1289808118095719e-04 +0.0000000000000000e+00 +9.9999997733720325e-01
3.8999999999999941e+00 +8.2845796016622906e+00 +0.0000000000000000e+00 +3.8999999697843708e+00 -2.1566675445393687e-04 +0.0000000000000000e+00 +9.9999997674392527e-01
3.9499999999999940e+00 +8.2845687491049382e+00 +0.0000000000000000e+00 +3.9499999686065750e+00 -2.1843556212317386e-04 +0.0000000000000000e+00 +9.9999997614295233e-01
3.9999999999999938e+00 +8.2845577581038174e+00 +0.0000000000000000e+00 +3.9999999673985380e+00 -2.2120450542243908e-04 +0.0000000000000000e+00 +9.9999997553428310e-01
4.0499999999999936e+00 +8.2845466286521159e+00 +0.0000000000000000e+00 +4.0499999661598753e+00 -2.2397358557475080e-04 +0.0000000000000000e+00 +9.9999997491791615e-01
4.0999999999999934e+00 +8.2845353607429590e+00 +0.0000000000000000e+00 +4.0999999648902019e+00 -2.2674280379059679e-04 +0.0000000000000000e+00 +9.9999997429385012e-01
4.1499999999999932e+00 +8.2845239543694156e+00 +0.0000000000000000e+00 +4.1499999635891323e+00 -2.2951216126615646e-04 +0.0000000000000000e+00 +9.9999997366208360e-01
4.1999999999999931e+00 +8.2845124095244920e+00 +0.0000000000000000e+00 +4.1999999622562818e+00 -2.3228165918313918e-04 +0.0000000000000000e+00 +9.9999997302261512e-01
4.2499999999999929e+00 +8.2845007262011379e+00 +0.0000000000000000e+00 +4.2499999608912651e+00 -2.3505129870878433e-04 +0.0000000000000000e+00 +9.9999997237544314e-01
4.2999999999999927e+00 +8.2844889043922425e+00 +0.0000000000000000e+00 +4.2999999594936975e+00 -2.3782108099586129e-04 +0.0000000000000000e+00 +9.9999997172056632e-01
4.3499999999999925e+00 +8.2844769440906401e+00 +0.0000000000000000e+00 +4.3499999580631936e+00 -2.4059100718266940e-04 +0.0000000000000000e+00 +9.9999997105798322e-01
4.3999999999999924e+00 +8.2844648452891079e+00 +0.0000000000000000e+00 +4.3999999565993679e+00 -2.4336107839303801e-04 +0.0000000000000000e+00 +9.9999997038769228e-01
4.4499999999999922e+00 +8.2844526079803664e+00 +0.0000000000000000e+00 +4.4499999551018350e+00 -2.4613129573632645e-04 +0.0000000000000000e+00 +9.9999996970969218e-01
4.4999999999999920e+00 +8.2844402321570811e+00 +0.0000000000000000e+00 +4.4999999535702093e+00 -2.4890166030742397e-04 +0.0000000000000000e+00 +9.9999996902398125e-01
4.5499999999999918e+00 +8.2844277178118642e+00 +0.0000000000000000e+00 +4.5499999520041046e+00 -2.5167217318674981e-04 +0.0000000000000000e+00 +9.9999996833055815e-01
4.5999999999999917e+00 +8.2844150649372725e+00 +0.0000000000000000e+00 +4.5999999504031361e+00 -2.5444283544025323e-04 +0.0000000000000000e+00 +9.9999996762942123e-01
4.6499999999999915e+00 +8.2844022735258118e+00 +0.0000000000000000e+00 +4.6499999487669177e+00 -2.5721364811941329e-04 +0.0000000000000000e+00 +9.9999996692056903e-01
4.6999999999999913e+00 +8.2843893435699361e+00 +0.0000000000000000e+00 +4.6999999470950637e+00 -2.5998461226123905e-04 +0.0000000000000000e+00 +9.9999996620400011e-01
4.7499999999999911e+00 +8.2843762750620442e+00 +0.0000000000000000e+00 +4.7499999453871888e+00 -2.6275572888826944e-04 +0.0000000000000000e+00 +9.9999996547971282e-01
4.7999999999999909e+00 +8.2843630679944891e+00 +0.0000000000000000e+00 +4.7999999436429066e+00 -2.6552699900857333e-04 +0.0000000000000000e+00 +9.9999996474770569e-01
4.8499999999999908e+00 +8.2843497223595683e+00 +0.0000000000000000e+00 +4.8499999418618307e+00 -2.6829842361574945e-04 +0.0000000000000000e+00 +9.9999996400797719e-01
4.8999999999999906e+00 +8.2843362381495353e+00 +0.0000000000000000e+00 +4.8999999400435756e+00 -2.7107000368892638e-04 +0.0000000000000000e+00 +9.9999996326052576e-01
4.9499999999999904e+00 +8.2843226153565919e+00 +0.0000000000000000e+00 +4.9499999381877551e+00 -2.7384174019276253e-04 +0.0000000000000000e+00 +9.9999996250534984e-01
4.9999999999999902e+00 +8.2843088539728935e+00 +0.0000000000000000e+00 +4.9999999362939826e+00 -2.7661363407744608e-04 +0.0000000000000000e+00 +9.9999996174244787e-01
5.0499999999999901e+00 +8.2842949539905462e+00 +0.0000000000000000e+00 +5.0499999343618711e+00 -2.7938568627869511e-04 +0.0000000000000000e+00 +9.9999996097181831e-01
5.0999999999999899e+00 +8.2842809154016113e+00 +0.0000000000000000e+00 +5.0999999323910350e+00 -2.8215789771775734e-04 +0.0000000000000000e+00 +9.9999996019345949e-01
5.1499999999999897e+00 +8.2842667381981041e+00 +0.0000000000000000e+00 +5.1499999303810879e+00 -2.8493026930141030e-04 +0.0000000000000000e+00 +9.9999995940736985e-01
5.1999999999999895e+00 +8.2842524223719956e+00 +0.0000000000000000e+00 +5.1999999283316427e+00 -2.8770280192196121e-04 +0.0000000000000000e+00 +9.9999995861354785e-01
5.2499999999999893e+00 +8.2842379679152121e+00 +0.0000000000000000e+00 +5.2499999262423138e+00 -2.9047549645724700e-04 +0.0000000000000000e+00 +9.9999995781199191e-01
5.2999999999999892e+00 +8.2842233748196357e+00 +0.0000000000000000e+00 +5.2999999241127131e+00 -2.9324835377063417e-04 +0.0000000000000000e+00 +9.9999995700270039e-01
5.3499999999999890e+00 +8.2842086430771076e+00 +0.0000000000000000e+00 +5.3499999219424543e+00 -2.9602137471101899e-04 +0.0000000000000000e+00 +9.9999995618567172e-01
5.3999999999999888e+00 +8.2841937726794246e+00 +0.0000000000000000e+00 +5.3999999197311510e+00 -2.9879456011282717e-04 +0.0000000000000000e+00 +9.9999995536090425e-01
5.4499999999999886e+00 +8.2841787636183426e+00 +0.0000000000000000e+00 +5.4499999174784159e+00 -3.0156791079601406e-04 +0.0000000000000000e+00 +9.9999995452839641e-01
5.4999999999999885e+00 +8.2841636158855767e+00 +0.0000000000000000e+00 +5.4999999151838619e+00 -3.0434142756606450e-04 +0.0000000000000000e+00 +9.9999995368814654e-01
5.5499999999999883e+00 +8.2841483294728047e+00 +0.0000000000000000e+00 +5.5499999128471016e+00 -3.0711511121399282e-04 +0.0000000000000000e+00 +9.9999995284015297e-01
5.5999999999999881e+00 +8.2841329043716616e+00 +0.0000000000000000e+00 +5.5999999104677478e+00 -3.0988896251634280e-04 +0.0000000000000000e+00 +9.9999995198441416e-01
5.6499999999999879e+00 +8.2841173405737454e+00 +0.0000000000000000e+00 +5.6499999080454133e+00 -3.1266298223518762e-04 +0.0000000000000000e+00 +9.9999995112092843e-01
5.6999999999999877e+00 +8.2841016380706183e+00 +0.0000000000000000e+00 +5.6999999055797108e+00 -3.1543717111812977e-04 +0.0000000000000000e+00 +9.9999995024969413e-01
5.7499999999999876e+00 +8.2840857968538018e+00 +0.0000000000000000e+00 +5.7499999030702531e+00 -3.1821152989830112e-04 +0.0000000000000000e+00 +9.9999994937070968e-01
5.7999999999999874e+00 +8.2840698169147835e+00 +0.0000000000000000e+00 +5.7999999005166529e+00 -3.2098605929436282e-04 +0.0000000000000000e+00 +9.9999994848397333e-01
5.8499999999999872e+00 +8.2840536982450157e+00 +0.0000000000000000e+00 +5.8499998979185213e+00 -3.2376076001050519e-04 +0.0000000000000000e+00 +9.9999994758948352e-01
5.8999999999999870e+00 +8.2840374408359150e+00 +0.0000000000000000e+00 +5.8999998952754718e+00 -3.2653563273644779e-04 +0.0000000000000000e+00 +9.9999994668723857e-01
