# field on trajectory
# s[mm] rx[mm] ry[mm] rz[mm] bx[T] by[T] bz[T]
0.0000000000000000e+00 +8.5389999999999997e+00 +0.0000000000000000e+00 +0.0000000000000000e+00 -2.8916253026148836e-02 -5.5030313179072654e-01 +5.2864787311040842e-03
-5.0000000000000003e-02 +8.5389999310326594e+00 +0.0000000000000000e+00 -4.9999999999936581e-02 -2.8916089001754269e-02 -5.5030707185223016e-01 +5.2877887854654781e-03
-1.0000000000000001e-01 +8.5389997241299653e+00 +0.0000000000000000e+00 -9.9999999999492648e-02 -2.8915949657634218e-02 -5.5031139208634727e-01 +5.2891051862355050e-03
-1.5000000000000002e-01 +8.5389993792908339e+00 +0.0000000000000000e+00 -1.4999999999828767e-01 -2.8915834908231273e-02 -5.5031609143287319e-01 +5.2904278309682104e-03
-2.0000000000000001e-01 +8.5389988965140855e+00 +0.0000000000000000e+00 -1.9999999999594109e-01 -2.8915744667988935e-02 -5.5032116883162041e-01 +5.2917566172179546e-03
-2.5000000000000000e-01 +8.5389982757984502e+00 +0.0000000000000000e+00 -2.4999999999207237e-01 -2.8915678851351531e-02 -5.5032662322241699e-01 +5.2930914425393730e-03
-2.9999999999999999e-01 +8.5389975171425601e+00 +0.0000000000000000e+00 -2.9999999998630095e-01 -2.8915637372764320e-02 -5.5033245354510885e-01 +5.2944322044873940e-03
-3.4999999999999998e-01 +8.5389966205449532e+00 +0.0000000000000000e+00 -3.4999999997824621e-01 -2.8915620146673392e-02 -5.5033865873955778e-01 +5.2957788006172089e-03
-3.9999999999999997e-01 +8.5389955860040736e+00 +0.0000000000000000e+00 -3.9999999996752761e-01 -2.8915627087525687e-02 -5.5034523774564204e-01 +5.2971311284842615e-03
-4.4999999999999996e-01 +8.5389944135182745e+00 +0.0000000000000000e+00 -4.4999999995376450e-01 -2.8915658109769017e-02 -5.5035218950325604e-01 +5.2984890856442521e-03
-4.9999999999999994e-01 +8.5389931030858115e+00 +0.0000000000000000e+00 -4.9999999993657629e-01 -2.8915713127851989e-02 -5.5035951295231067e-01 +5.2998525696531075e-03
-5.4999999999999993e-01 +8.5389916547048497e+00 +0.0000000000000000e+00 -5.4999999991558235e-01 -2.8915792056224087e-02 -5.5036720703273190e-01 +5.3012214780669854e-03
-5.9999999999999998e-01 +8.5389900683734599e+00 +0.0000000000000000e+00 -5.9999999989040198e-01 -2.8915894809335596e-02 -5.5037527068446235e-01 +5.3025957084422547e-03
-6.5000000000000002e-01 +8.5389883440896224e+00 +0.0000000000000000e+00 -6.4999999986065460e-01 -2.8916021301637590e-02 -5.5038370284745941e-01 +5.3039751583354861e-03
-7.0000000000000007e-01 +8.5389864818512233e+00 +0.0000000000000000e+00 -6.9999999982595940e-01 -2.8916171447582000e-02 -5.5039250246169624e-01 +5.3053597253034440e-03
-7.5000000000000011e-01 +8.5389844816560565e+00 +0.0000000000000000e+00 -7.4999999978593568e-01 -2.8916345161621511e-02 -5.5040166846716143e-01 +5.3067493069030710e-03
-8.0000000000000016e-01 +8.5389823435018251e+00 +0.0000000000000000e+00 -7.9999999974020275e-01 -2.8916542358209625e-02 -5.5041119980385866e-01 +5.3081438006914814e-03
-8.5000000000000020e-01 +8.5389800673861398e+00 +0.0000000000000000e+00 -8.4999999968837980e-01 -2.8916762951800599e-02 -5.5042109541180639e-01 +5.3095431042259455e-03
-9.0000000000000024e-01 +8.5389776533065191e+00 +0.0000000000000000e+00 -8.9999999963008614e-01 -2.8917006856849496e-02 -5.5043135423103817e-01 +5.3109471150638880e-03
-9.5000000000000029e-01 +8.5389751012603927e+00 +0.0000000000000000e+00 -9.4999999956494086e-01 -2.8917273987812100e-02 -5.5044197520160176e-01 +5.3123557307628621e-03
-1.0000000000000002e+00 +8.5389724112450995e+00 +0.0000000000000000e+00 -9.9999999949256313e-01 -2.8917564259145018e-02 -5.5045295726356047e-01 +5.3137688488805535e-03
-1.0500000000000003e+00 +8.5389695832578862e+00 +0.0000000000000000e+00 -1.0499999994125722e+00 -2.8917877585305524e-02 -5.5046429935699071e-01 +5.3151863669747574e-03
-1.1000000000000003e+00 +8.5389666172959089e+00 +0.0000000000000000e+00 -1.0999999993245870e+00 -2.8918213880751688e-02 -5.5047600042198397e-01 +5.3166081826033756e-03
-1.1500000000000004e+00 +8.5389635133562365e+00 +0.0000000000000000e+00 -1.1499999992282268e+00 -2.8918573059942297e-02 -5.5048805939864565e-01 +5.3180341933244061e-03
-1.2000000000000004e+00 +8.5389602714358439e+00 +0.0000000000000000e+00 -1.1999999991231105e+00 -2.8918955037336866e-02 -5.5050047522709489e-01 +5.3194642966959181e-03
-1.2500000000000004e+00 +8.5389568915316207e+00 +0.0000000000000000e+00 -1.2499999990088571e+00 -2.8919359727395632e-02 -5.5051324684746494e-01 +5.3208983902760685e-03
-1.3000000000000005e+00 +8.5389533736403660e+00 +0.0000000000000000e+00 -1.2999999988850857e+00 -2.8919787044579499e-02 -5.5052637319990216e-01 +5.3223363716230565e-03
-1.3500000000000005e+00 +8.5389497177587899e+00 +0.0000000000000000e+00 -1.3499999987514151e+00 -2.8920236903350133e-02 -5.5053985322456700e-01 +5.3237781382951439e-03
-1.4000000000000006e+00 +8.5389459238835119e+00 +0.0000000000000000e+00 -1.3999999986074643e+00 -2.8920709218169846e-02 -5.5055368586163311e-01 +5.3252235878506211e-03
-1.4500000000000006e+00 +8.5389419920110665e+00 +0.0000000000000000e+00 -1.4499999984528522e+00 -2.8921203903501655e-02 -5.5056787005128638e-01 +5.3266726178478104e-03
-1.5000000000000007e+00 +8.5389379221378992e+00 +0.0000000000000000e+00 -1.4999999982871977e+00 -2.8921720873809242e-02 -5.5058240473372766e-01 +5.3281251258450509e-03
-1.5500000000000007e+00 +8.5389337142603647e+00 +0.0000000000000000e+00 -1.5499999981101193e+00 -2.8922260043556962e-02 -5.5059728884916825e-01 +5.3295810094006841e-03
-1.6000000000000008e+00 +8.5389293683747347e+00 +0.0000000000000000e+00 -1.5999999979212363e+00 -2.8922821327209827e-02 -5.5061252133783445e-01 +5.3310401660730472e-03
-1.6500000000000008e+00 +8.5389248844771899e+00 +0.0000000000000000e+00 -1.6499999977201669e+00 -2.8923404639233489e-02 -5.5062810113996374e-01 +5.3325024934204584e-03
-1.7000000000000008e+00 +8.5389202625638241e+00 +0.0000000000000000e+00 -1.6999999975065303e+00 -2.8924009894094268e-02 -5.5064402719580607e-01 +5.3339678890012114e-03
-1.7500000000000009e+00 +8.5389155026306476e+00 +0.0000000000000000e+00 -1.7499999972799447e+00 -2.8924637006259104e-02 -5.5066029844562481e-01 +5.3354362503735603e-03
-1.8000000000000009e+00 +8.5389106046735801e+00 +0.0000000000000000e+00 -1.7999999970400289e+00 -2.8925285890195551e-02 -5.5067691382969397e-01 +5.3369074750957077e-03
-1.8500000000000010e+00 +8.5389055686884578e+00 +0.0000000000000000e+00 -1.8499999967864016e+00 -2.8925956460371813e-02 -5.5069387228830069e-01 +5.3383814607257940e-03
-1.9000000000000010e+00 +8.5389003946710300e+00 +0.0000000000000000e+00 -1.8999999965186811e+00 -2.8926648631256657e-02 -5.5071117276174308e-01 +5.3398581048218893e-03
-1.9500000000000011e+00 +8.5388950826169623e+00 +0.0000000000000000e+00 -1.9499999962364860e+00 -2.8927362317319502e-02 -5.5072881419033126e-01 +5.3413373049419829e-03
-2.0000000000000009e+00 +8.5388896325218298e+00 +0.0000000000000000e+00 -1.9999999959394348e+00 -2.8928097433030344e-02 -5.5074679551438732e-01 +5.3428189586439733e-03
-2.0500000000000007e+00 +8.5388840443811276e+00 +0.0000000000000000e+00 -2.0499999956271457e+00 -2.8928853878834766e-02 -5.5076511547847951e-01 +5.3443029599518415e-03
-2.1000000000000005e+00 +8.5388783181902639e+00 +0.0000000000000000e+00 -2.0999999952992372e+00 -2.8929631499078998e-02 -5.5078377204412854e-01 +5.3457891887542155e-03
-2.1500000000000004e+00 +8.5388724539445615e+00 +0.0000000000000000e+00 -2.1499999949553277e+00 -2.8930430124084649e-02 -5.5080276297710284e-01 +5.3472775214056896e-03
-2.2000000000000002e+00 +8.5388664516392598e+00 +0.0000000000000000e+00 -2.1999999945950353e+00 -2.8931249584173792e-02 -5.5082208604318206e-01 +5.3487678342606076e-03
-2.2500000000000000e+00 +8.5388603112695165e+00 +0.0000000000000000e+00 -2.2499999942179780e+00 -2.8932089709668828e-02 -5.5084173900815858e-01 +5.3502600036730453e-03
-2.2999999999999998e+00 +8.5388540328304057e+00 +0.0000000000000000e+00 -2.2999999938237741e+00 -2.8932950330892538e-02 -5.5086171963783614e-01 +5.3517539059967931e-03
-2.3499999999999996e+00 +8.5388476163169198e+00 +0.0000000000000000e+00 -2.3499999934120419e+00 -2.8933831278168044e-02 -5.5088202569803035e-01 +5.3532494175853379e-03
-2.3999999999999995e+00 +8.5388410617239678e+00 +0.0000000000000000e+00 -2.3999999929823992e+00 -2.8934732381818779e-02 -5.5090265495456814e-01 +5.3547464147918463e-03
-2.4499999999999993e+00 +8.5388343690463806e+00 +0.0000000000000000e+00 -2.4499999925344640e+00 -2.8935653472168504e-02 -5.5092360517328820e-01 +5.3562447739691436e-03
-2.4999999999999991e+00 +8.5388275382789054e+00 +0.0000000000000000e+00 -2.4999999920678544e+00 -2.8936594379541256e-02 -5.5094487412004078e-01 +5.3577443714697050e-03
-2.5499999999999989e+00 +8.5388205694162131e+00 +0.0000000000000000e+00 -2.5499999915821880e+00 -2.8937554934261357e-02 -5.5096645956068713e-01 +5.3592450836456289e-03
-2.5999999999999988e+00 +8.5388134624528913e+00 +0.0000000000000000e+00 -2.5999999910770830e+00 -2.8938534966653363e-02 -5.5098835926110001e-01 +5.3607467868486336e-03
-2.6499999999999986e+00 +8.5388062173834527e+00 +0.0000000000000000e+00 -2.6499999905521570e+00 -2.8939534307042082e-02 -5.5101057098716311e-01 +5.3622493574300148e-03
-2.6999999999999984e+00 +8.5387988342023284e+00 +0.0000000000000000e+00 -2.6999999900070275e+00 -2.8940552785752544e-02 -5.5103309250477173e-01 +5.3637526717406521e-03
-2.7499999999999982e+00 +8.5387913129038751e+00 +0.0000000000000000e+00 -2.7499999894413123e+00 -2.8941590233109972e-02 -5.5105592157983097e-01 +5.3652566061309914e-03
-2.7999999999999980e+00 +8.5387836534823691e+00 +0.0000000000000000e+00 -2.7999999888546290e+00 -2.8942646479439789e-02 -5.5107905597825824e-01 +5.3667610369510033e-03
-2.8499999999999979e+00 +8.5387758559320126e+00 +0.0000000000000000e+00 -2.8499999882465952e+00 -2.8943721355067554e-02 -5.5110249346598050e-01 +5.3682658405501934e-03
-2.8999999999999977e+00 +8.5387679202469311e+00 +0.0000000000000000e+00 -2.8999999876168281e+00 -2.8944814690319010e-02 -5.5112623180893616e-01 +5.3697708932775659e-03
-2.9499999999999975e+00 +8.5387598464211756e+00 +0.0000000000000000e+00 -2.9499999869649454e+00 -2.8945926315520003e-02 -5.5115026877307416e-01 +5.3712760714816231e-03
-2.9999999999999973e+00 +8.5387516344487207e+00 +0.0000000000000000e+00 -2.9999999862905646e+00 -2.8947056060996533e-02 -5.5117460212435354e-01 +5.3727812515103326e-03
-3.0499999999999972e+00 +8.5387432843234663e+00 +0.0000000000000000e+00 -3.0499999855933027e+00 -2.8948203757074655e-02 -5.5119922962874401e-01 +5.3742863097111159e-03
-3.0999999999999970e+00 +8.5387347960392415e+00 +0.0000000000000000e+00 -3.0999999848727771e+00 -2.8949369234080514e-02 -5.5122414905222561e-01 +5.3757911224308315e-03
-3.1499999999999968e+00 +8.5387261695897987e+00 +0.0000000000000000e+00 -3.1499999841286046e+00 -2.8950552322340336e-02 -5.5124935816078813e-01 +5.3772955660157584e-03
-3.1999999999999966e+00 +8.5387174049688195e+00 +0.0000000000000000e+00 -3.1999999833604029e+00 -2.8951752852180383e-02 -5.5127485472043269e-01 +5.3787995168115815e-03
-3.2499999999999964e+00 +8.5387085021699125e+00 +0.0000000000000000e+00 -3.2499999825677888e+00 -2.8952970653926931e-02 -5.5130063649716898e-01 +5.3803028511633664e-03
-3.2999999999999963e+00 +8.5386994611866172e+00 +0.0000000000000000e+00 -3.2999999817503789e+00 -2.8954205557906287e-02 -5.5132670125701777e-01 +5.3818054454155420e-03
-3.3499999999999961e+00 +8.5386902820124000e+00 +0.0000000000000000e+00 -3.3499999809077905e+00 -2.8955457394444734e-02 -5.5135304676600883e-01 +5.3833071759118991e-03
-3.3999999999999959e+00 +8.5386809646406583e+00 +0.0000000000000000e+00 -3.3999999800396403e+00 -2.8956725993868535e-02 -5.5137967079018246e-01 +5.3848079189955482e-03
-3.4499999999999957e+00 +8.5386715090647165e+00 +0.0000000000000000e+00 -3.4499999791455451e+00 -2.8958011186503901e-02 -5.5140657109558777e-01 +5.3863075510089233e-03
-3.4999999999999956e+00 +8.5386619152778334e+00 +0.0000000000000000e+00 -3.4999999782251217e+00 -2.8959312802676992e-02 -5.5143374544828427e-01 +5.3878059482937541e-03
-3.5499999999999954e+00 +8.5386521832731983e+00 +0.0000000000000000e+00 -3.5499999772779867e+00 -2.8960630672713907e-02 -5.5146119161434048e-01 +5.3893029871910532e-03
-3.5999999999999952e+00 +8.5386423130439315e+00 +0.0000000000000000e+00 -3.5999999763037565e+00 -2.8961964626940596e-02 -5.5148890735983447e-01 +5.3907985440410887e-03
-3.6499999999999950e+00 +8.5386323045830874e+00 +0.0000000000000000e+00 -3.6499999753020478e+00 -2.8963314495682967e-02 -5.5151689045085295e-01 +5.3922924951833864e-03
-3.6999999999999948e+00 +8.5386221578836512e+00 +0.0000000000000000e+00 -3.6999999742724770e+00 -2.8964680109266745e-02 -5.5154513865349397e-01 +5.3937847169566932e-03
-3.7499999999999947e+00 +8.5386118729385423e+00 +0.0000000000000000e+00 -3.7499999732146598e+00 -2.8966061298017515e-02 -5.5157364973386147e-01 +5.3952750856989633e-03
-3.7999999999999945e+00 +8.5386014497406144e+00 +0.0000000000000000e+00 -3.7999999721282132e+00 -2.8967457892260715e-02 -5.5160242145807070e-01 +5.3967634777473536e-03
-3.8499999999999943e+00 +8.5385908882826556e+00 +0.0000000000000000e+00 -3.8499999710127533e+00 -2.8968869722321603e-02 -5.5163145159224525e-01 +5.3982497694381988e-03
-3.8999999999999941e+00 +8.5385801885573898e+00 +0.0000000000000000e+00 -3.8999999698678960e+00 -2.8970296618525189e-02 -5.5166073790251746e-01 +5.3997338371069804e-03
-3.9499999999999940e+00 +8.5385693505574771e+00 +0.0000000000000000e+00 -3.9499999686932576e+00 -2.8971738411196320e-02 -5.5169027815502847e-01 +5.4012155570883303e-03
-3.9999999999999938e+00 +8.5385583742755120e+00 +0.0000000000000000e+00 -3.9999999674884541e+00 -2.8973194930659585e-02 -5.5172007011592783e-01 +5.4026948057160039e-03
-4.0499999999999936e+00 +8.5385472597040284e+00 +0.0000000000000000e+00 -4.0499999662531012e+00 -2.8974666010362235e-02 -5.5175011144378983e-01 +5.4041714656367324e-03
-4.0999999999999934e+00 +8.5385360068354963e+00 +0.0000000000000000e+00 -4.0999999649868144e+00 -2.8976151496243458e-02 -5.5178039936685652e-01 +5.4056454447520552e-03
-4.1499999999999932e+00 +8.5385246156623236e+00 +0.0000000000000000e+00 -4.1499999636892104e+00 -2.8977651237366387e-02 -5.5181093100578738e-01 +5.4071166572769785e-03
-4.1999999999999931e+00 +8.5385130861768577e+00 +0.0000000000000000e+00 -4.1999999623599038e+00 -2.8979165082795431e-02 -5.5184170348124462e-01 +5.4085850174261331e-03
-4.2499999999999929e+00 +8.5385014183713874e+00 +0.0000000000000000e+00 -4.2499999609985109e+00 -2.8980692881596139e-02 -5.5187271391389070e-01 +5.4100504394137654e-03
-4.2999999999999927e+00 +8.5384896122381377e+00 +0.0000000000000000e+00 -4.2999999596046470e+00 -2.8982234482835351e-02 -5.5190395942438963e-01 +5.4115128374537455e-03
-4.3499999999999925e+00 +8.5384776677692784e+00 +0.0000000000000000e+00 -4.3499999581779276e+00 -2.8983789735581196e-02 -5.5193543713340587e-01 +5.4129721257595532e-03
-4.3999999999999924e+00 +8.5384655849569189e+00 +0.0000000000000000e+00 -4.3999999567179682e+00 -2.8985358488903070e-02 -5.5196714416160453e-01 +5.4144282185442909e-03
-4.4499999999999922e+00 +8.5384533637931135e+00 +0.0000000000000000e+00 -4.4499999552243841e+00 -2.8986940591871745e-02 -5.5199907762965084e-01 +5.4158810300206795e-03
-4.4999999999999920e+00 +8.5384410042698562e+00 +0.0000000000000000e+00 -4.4999999536967898e+00 -2.8988535893559309e-02 -5.5203123465820947e-01 +5.4173304744010459e-03
-4.5499999999999918e+00 +8.5384285063790877e+00 +0.0000000000000000e+00 -4.5499999521348009e+00 -2.8990144243039251e-02 -5.5206361236794566e-01 +5.4187764658973434e-03
-4.5999999999999917e+00 +8.5384158701126918e+00 +0.0000000000000000e+00 -4.5999999505380327e+00 -2.8991765489386496e-02 -5.5209620787952307e-01 +5.4202189187211305e-03
-4.6499999999999915e+00 +8.5384030954625008e+00 +0.0000000000000000e+00 -4.6499999489060997e+00 -2.8993399481677350e-02 -5.5212901831360428e-01 +5.4216577470835798e-03
-4.6999999999999913e+00 +8.5383901824202884e+00 +0.0000000000000000e+00 -4.6999999472386174e+00 -2.8995046068989644e-02 -5.5216204079085118e-01 +5.4230928651954838e-03
-4.7499999999999911e+00 +8.5383771309777785e+00 +0.0000000000000000e+00 -4.7499999455352002e+00 -2.8996705100402673e-02 -5.5219527243192390e-01 +5.4245241872672365e-03
-4.7999999999999909e+00 +8.5383639411266419e+00 +0.0000000000000000e+00 -4.7999999437954628e+00 -2.8998376424997231e-02 -5.5222871035748056e-01 +5.4259516275088487e-03
-4.8499999999999908e+00 +8.5383506128584976e+00 +0.0000000000000000e+00 -4.8499999420190196e+00 -2.9000059891855692e-02 -5.5226235168817694e-01 +5.4273751001299416e-03
-4.8999999999999906e+00 +8.5383371461649133e+00 +0.0000000000000000e+00 -4.8999999402054852e+00 -2.9001755350061983e-02 -5.5229619354466652e-01 +5.4287945193397438e-03
-4.9499999999999904e+00 +8.5383235410374070e+00 +0.0000000000000000e+00 -4.9499999383544742e+00 -2.9003462648701631e-02 -5.5233023304760009e-01 +5.4302097993470886e-03
-4.9999999999999902e+00 +8.5383097974674467e+00 +0.0000000000000000e+00 -4.9999999364656009e+00 -2.9005181636861783e-02 -5.5236446731762556e-01 +5.4316208543604286e-03
-5.0499999999999901e+00 +8.5382959154464526e+00 +0.0000000000000000e+00 -5.0499999345384801e+00 -2.9006912163631264e-02 -5.5239889347538695e-01 +5.4330275985878113e-03
-5.0999999999999899e+00 +8.5382818949657935e+00 +0.0000000000000000e+00 -5.0999999325727252e+00 -2.9008654078100549e-02 -5.5243350864152529e-01 +5.4344299462368972e-03
-5.1499999999999897e+00 +8.5382677360167953e+00 +0.0000000000000000e+00 -5.1499999305679509e+00 -2.9010407229361827e-02 -5.5246830993667739e-01 +5.4358278115149540e-03
-5.1999999999999895e+00 +8.5382534385907345e+00 +0.0000000000000000e+00 -5.1999999285237708e+00 -2.9012171466509005e-02 -5.5250329448147573e-01 +5.4372211086288428e-03
-5.2499999999999893e+00 +8.5382390026788428e+00 +0.0000000000000000e+00 -5.2499999264397994e+00 -2.9013946638637805e-02 -5.5253845939654855e-01 +5.4386097517850470e-03
-5.2999999999999892e+00 +8.5382244282723043e+00 +0.0000000000000000e+00 -5.2999999243156504e+00 -2.9015732594845651e-02 -5.5257380180251925e-01 +5.4399936551896341e-03
-5.3499999999999890e+00 +8.5382097153622620e+00 +0.0000000000000000e+00 -5.3499999221509373e+00 -2.9017529184231859e-02 -5.5260931882000597e-01 +5.4413727330482912e-03
-5.3999999999999888e+00 +8.5381948639398146e+00 +0.0000000000000000e+00 -5.3999999199452740e+00 -2.9019336255897529e-02 -5.5264500756962154e-01 +5.4427468995662922e-03
-5.4499999999999886e+00 +8.5381798739960146e+00 +0.0000000000000000e+00 -5.4499999176982739e+00 -2.9021153658945652e-02 -5.5268086517197335e-01 +5.4441160689485246e-03
-5.4999999999999885e+00 +8.5381647455218772e+00 +0.0000000000000000e+00 -5.4999999154095507e+00 -2.9022981242481097e-02 -5.5271688874766234e-01 +5.4454801553994675e-03
-5.5499999999999883e+00 +8.5381494785083714e+00 +0.0000000000000000e+00 -5.5499999130787172e+00 -2.9024818855610694e-02 -5.5275307541728402e-01 +5.4468390731232047e-03
-5.5999999999999881e+00 +8.5381340729464270e+00 +0.0000000000000000e+00 -5.5999999107053879e+00 -2.9026666347443171e-02 -5.5278942230142702e-01 +5.4481927363234130e-03
-5.6499999999999879e+00 +8.5381185288269350e+00 +0.0000000000000000e+00 -5.6499999082891756e+00 -2.9028523567089230e-02 -5.5282592652067197e-01 +5.4495410592033727e-03
-5.6999999999999877e+00 +8.5381028461407436e+00 +0.0000000000000000e+00 -5.6999999058296931e+00 -2.9030390363661632e-02 -5.5286258519559417e-01 +5.4508839559659602e-03
-5.7499999999999876e+00 +8.5380870248786653e+00 +0.0000000000000000e+00 -5.7499999033265539e+00 -2.9032266586275092e-02 -5.5289939544676081e-01 +5.4522213408136457e-03
-5.7999999999999874e+00 +8.5380710650314757e+00 +0.0000000000000000e+00 -5.7999999007793708e+00 -2.9034152084046441e-02 -5.5293635439473121e-01 +5.4535531279484972e-03
-5.8499999999999872e+00 +8.5380549665899093e+00 +0.0000000000000000e+00 -5.8499998981877566e+00 -2.9036046706094540e-02 -5.5297345916005647e-01 +5.4548792315721739e-03
