# trajectory
# s[mm] rx[mm] ry[mm] rz[mm] px[rad] py[rad] pz[rad]
0.0000000000000000e+00 +8.2850000000000001e+00 +0.0000000000000000e+00 +0.0000000000000000e+00 +0.0000000000000000e+00 +0.0000000000000000e+00 +1.0000000000000000e+00
5.0000000000000003e-02 +8.2849999306673290e+00 +0.0000000000000000e+00 +4.9999999999935901e-02 -2.7733063816304267e-06 +0.0000000000000000e+00 +9.9999999999615441e-01
1.0000000000000001e-01 +8.2849997226693937e+00 +0.0000000000000000e+00 +9.9999999999487249e-02 -5.5466108321471151e-06 +0.0000000000000000e+00 +9.9999999998461753e-01
1.5000000000000002e-01 +8.2849993760062475e+00 +0.0000000000000000e+00 +1.4999999999826946e-01 -8.3199151431565107e-06 +0.0000000000000000e+00 +9.9999999996538946e-01
2.0000000000000001e-01 +8.2849988906778513e+00 +0.0000000000000000e+00 +1.9999999999589799e-01 -1.1093221104028294e-05 +0.0000000000000000e+00 +9.9999999993847022e-01
2.5000000000000000e-01 +8.2849982666840791e+00 +0.0000000000000000e+00 +2.4999999999198830e-01 -1.3866530501895472e-05 +0.0000000000000000e+00 +9.9999999990385968e-01
2.9999999999999999e-01 +8.2849975040247141e+00 +0.0000000000000000e+00 +2.9999999998615579e-01 -1.6639845121654463e-05 +0.0000000000000000e+00 +9.9999999986155774e-01
3.4999999999999998e-01 +8.2849966026994508e+00 +0.0000000000000000e+00 +3.4999999997801590e-01 -1.9413166745965172e-05 +0.0000000000000000e+00 +9.9999999981156440e-01
3.9999999999999997e-01 +8.2849955627078931e+00 +0.0000000000000000e+00 +3.9999999996718405e-01 -2.2186497155251097e-05 +0.0000000000000000e+00 +9.9999999975387954e-01
4.4999999999999996e-01 +8.2849943840495595e+00 +0.0000000000000000e+00 +4.4999999995327566e-01 -2.4959838127699397e-05 +0.0000000000000000e+00 +9.9999999968850306e-01
4.9999999999999994e-01 +8.2849930667238763e+00 +0.0000000000000000e+00 +4.9999999993590616e-01 -2.7733191439260979e-05 +0.0000000000000000e+00 +9.9999999961543484e-01
5.4999999999999993e-01 +8.2849916107301809e+00 +0.0000000000000000e+00 +5.4999999991469095e-01 -3.0506558863650584e-05 +0.0000000000000000e+00 +9.9999999953467478e-01
5.9999999999999998e-01 +8.2849900160677254e+00 +0.0000000000000000e+00 +5.9999999988924546e-01 -3.3279942172346872e-05 +0.0000000000000000e+00 +9.9999999944622253e-01
6.5000000000000002e-01 +8.2849882827356698e+00 +0.0000000000000000e+00 +6.4999999985918500e-01 -3.6053343134592506e-05 +0.0000000000000000e+00 +9.9999999935007799e-01
7.0000000000000007e-01 +8.2849864107330884e+00 +0.0000000000000000e+00 +6.9999999982412497e-01 -3.8826763517394224e-05 +0.0000000000000000e+00 +9.9999999924624094e-01
7.5000000000000011e-01 +8.2849844000589652e+00 +0.0000000000000000e+00 +7.4999999978368082e-01 -4.1600205085522934e-05 +0.0000000000000000e+00 +9.9999999913471116e-01
8.0000000000000016e-01 +8.2849822507121971e+00 +0.0000000000000000e+00 +7.9999999973746783e-01 -4.4373669601513800e-05 +0.0000000000000000e+00 +9.9999999901548842e-01
8.5000000000000020e-01 +8.2849799626915939e+00 +0.0000000000000000e+00 +8.4999999968510143e-01 -4.7147158825666304e-05 +0.0000000000000000e+00 +9.9999999888857238e-01
9.0000000000000024e-01 +8.2849775359958748e+00 +0.0000000000000000e+00 +8.9999999962619681e-01 -4.9920674516044347e-05 +0.0000000000000000e+00 +9.9999999875396284e-01
9.5000000000000029e-01 +8.2849749706236722e+00 +0.0000000000000000e+00 +9.4999999956036940e-01 -5.2694218428476309e-05 +0.0000000000000000e+00 +9.9999999861165934e-01
1.0000000000000002e+00 +8.2849722665735328e+00 +0.0000000000000000e+00 +9.9999999948723450e-01 -5.5467792316555155e-05 +0.0000000000000000e+00 +9.9999999846166165e-01
1.0500000000000003e+00 +8.2849694238439131e+00 +0.0000000000000000e+00 +1.0499999994064073e+00 -5.8241397931638501e-05 +0.0000000000000000e+00 +9.9999999830396946e-01
1.1000000000000003e+00 +8.2849664424331824e+00 +0.0000000000000000e+00 +1.0999999993175031e+00 -6.1015037022848679e-05 +0.0000000000000000e+00 +9.9999999813858231e-01
1.1500000000000004e+00 +8.2849633223396246e+00 +0.0000000000000000e+00 +1.1499999992201373e+00 -6.3788711337072856e-05 +0.0000000000000000e+00 +9.9999999796549988e-01
1.2000000000000004e+00 +8.2849600635614333e+00 +0.0000000000000000e+00 +1.1999999991139250e+00 -6.6562422618963063e-05 +0.0000000000000000e+00 +9.9999999778472171e-01
1.2500000000000004e+00 +8.2849566660967167e+00 +0.0000000000000000e+00 +1.2499999989984814e+00 -6.9336172610936315e-05 +0.0000000000000000e+00 +9.9999999759624736e-01
1.3000000000000005e+00 +8.2849531299434975e+00 +0.0000000000000000e+00 +1.2999999988734214e+00 -7.2109963053174666e-05 +0.0000000000000000e+00 +9.9999999740007639e-01
1.3500000000000005e+00 +8.2849494550997083e+00 +0.0000000000000000e+00 +1.3499999987383606e+00 -7.4883795683625292e-05 +0.0000000000000000e+00 +9.9999999719620836e-01
1.4000000000000006e+00 +8.2849456415631977e+00 +0.0000000000000000e+00 +1.3999999985929139e+00 -7.7657672238000582e-05 +0.0000000000000000e+00 +9.9999999698464270e-01
1.4500000000000006e+00 +8.2849416893317240e+00 +0.0000000000000000e+00 +1.4499999984366965e+00 -8.0431594449778182e-05 +0.0000000000000000e+00 +9.9999999676537898e-01
1.5000000000000007e+00 +8.2849375984029621e+00 +0.0000000000000000e+00 +1.4999999982693235e+00 -8.3205564050201119e-05 +0.0000000000000000e+00 +9.9999999653841676e-01
1.5500000000000007e+00 +8.2849333687744995e+00 +0.0000000000000000e+00 +1.5499999980904098e+00 -8.5979582768277819e-05 +0.0000000000000000e+00 +9.9999999630375536e-01
1.6000000000000008e+00 +8.2849290004438370e+00 +0.0000000000000000e+00 +1.5999999978995707e+00 -8.8753652330782228e-05 +0.0000000000000000e+00 +9.9999999606139434e-01
1.6500000000000008e+00 +8.2849244934083899e+00 +0.0000000000000000e+00 +1.6499999976964210e+00 -9.1527774462253883e-05 +0.0000000000000000e+00 +9.9999999581133303e-01
1.7000000000000008e+00 +8.2849198476654866e+00 +0.0000000000000000e+00 +1.6999999974805757e+00 -9.4301950884997956e-05 +0.0000000000000000e+00 +9.9999999555357078e-01
1.7500000000000009e+00 +8.2849150632123685e+00 +0.0000000000000000e+00 +1.7499999972516498e+00 -9.7076183319085366e-05 +0.0000000000000000e+00 +9.9999999528810701e-01
1.8000000000000009e+00 +8.2849101400461933e+00 +0.0000000000000000e+00 +1.7999999970092582e+00 -9.9850473482352827e-05 +0.0000000000000000e+00 +9.9999999501494119e-01
1.8500000000000010e+00 +8.2849050781640301e+00 +0.0000000000000000e+00 +1.8499999967530156e+00 -1.0262482309040294e-04 +0.0000000000000000e+00 +9.9999999473407253e-01
1.9000000000000010e+00 +8.2848998775628644e+00 +0.0000000000000000e+00 +1.8999999964825371e+00 -1.0539923385660423e-04 +0.0000000000000000e+00 +9.9999999444550047e-01
1.9500000000000011e+00 +8.2848945382395964e+00 +0.0000000000000000e+00 +1.9499999961974375e+00 -1.0817370749209129e-04 +0.0000000000000000e+00 +9.9999999414922425e-01
2.0000000000000009e+00 +8.2848890601910394e+00 +0.0000000000000000e+00 +1.9999999958973314e+00 -1.1094824570576477e-04 +0.0000000000000000e+00 +9.9999999384524307e-01
2.0500000000000007e+00 +8.2848834434139214e+00 +0.0000000000000000e+00 +2.0499999955818335e+00 -1.1372285020394182e-04 +0.0000000000000000e+00 +9.9999999353355640e-01
2.1000000000000005e+00 +8.2848776879048867e+00 +0.0000000000000000e+00 +2.0999999952505588e+00 -1.1649752268650933e-04 +0.0000000000000000e+00 +9.9999999321416333e-01
2.1500000000000004e+00 +8.2848717936604928e+00 +0.0000000000000000e+00 +2.1499999949031214e+00 -1.1927226484307734e-04 +0.0000000000000000e+00 +9.9999999288706309e-01
2.2000000000000002e+00 +8.2848657606772136e+00 +0.0000000000000000e+00 +2.1999999945391364e+00 -1.2204707835262934e-04 +0.0000000000000000e+00 +9.9999999255225502e-01
2.2500000000000000e+00 +8.2848595889514396e+00 +0.0000000000000000e+00 +2.2499999941582183e+00 -1.2482196488352229e-04 +0.0000000000000000e+00 +9.9999999220973823e-01
2.2999999999999998e+00 +8.2848532784794795e+00 +0.0000000000000000e+00 +2.2999999937599815e+00 -1.2759692609348678e-04 +0.0000000000000000e+00 +9.9999999185951194e-01
2.3499999999999996e+00 +8.2848468292575586e+00 +0.0000000000000000e+00 +2.3499999933440407e+00 -1.3037196362962700e-04 +0.0000000000000000e+00 +9.9999999150157526e-01
2.3999999999999995e+00 +8.2848402412818185e+00 +0.0000000000000000e+00 +2.3999999929100104e+00 -1.3314707912842079e-04 +0.0000000000000000e+00 +9.9999999113592741e-01
2.4499999999999993e+00 +8.2848335145483194e+00 +0.0000000000000000e+00 +2.4499999924575051e+00 -1.3592227421571976e-04 +0.0000000000000000e+00 +9.9999999076256740e-01
2.4999999999999991e+00 +8.2848266490530431e+00 +0.0000000000000000e+00 +2.4999999919861389e+00 -1.3869755050674925e-04 +0.0000000000000000e+00 +9.9999999038149445e-01
2.5499999999999989e+00 +8.2848196447918880e+00 +0.0000000000000000e+00 +2.5499999914955263e+00 -1.4147290960610850e-04 +0.0000000000000000e+00 +9.9999998999270767e-01
2.5999999999999988e+00 +8.2848125017606744e+00 +0.0000000000000000e+00 +2.5999999909852813e+00 -1.4424835310777051e-04 +0.0000000000000000e+00 +9.9999998959620606e-01
2.6499999999999986e+00 +8.2848052199551425e+00 +0.0000000000000000e+00 +2.6499999904550182e+00 -1.4702388259508231e-04 +0.0000000000000000e+00 +9.9999998919198874e-01
2.6999999999999984e+00 +8.2847977993709545e+00 +0.0000000000000000e+00 +2.6999999899043514e+00 -1.4979949964076484e-04 +0.0000000000000000e+00 +9.9999998878005469e-01
2.7499999999999982e+00 +8.2847902400036926e+00 +0.0000000000000000e+00 +2.7499999893328950e+00 -1.5257520580691308e-04 +0.0000000000000000e+00 +9.9999998836040305e-01
2.7999999999999980e+00 +8.2847825418488625e+00 +0.0000000000000000e+00 +2.7999999887402631e+00 -1.5535100264499604e-04 +0.0000000000000000e+00 +9.9999998793303280e-01
2.8499999999999979e+00 +8.2847747049018921e+00 +0.0000000000000000e+00 +2.8499999881260698e+00 -1.5812689169585683e-04 +0.0000000000000000e+00 +9.9999998749794283e-01
2.8999999999999977e+00 +8.2847667291581306e+00 +0.0000000000000000e+00 +2.8999999874899287e+00 -1.6090287448971272e-04 +0.0000000000000000e+00 +9.9999998705513227e-01
2.9499999999999975e+00 +8.2847586146128549e+00 +0.0000000000000000e+00 +2.9499999868314544e+00 -1.6367895254615513e-04 +0.0000000000000000e+00 +9.9999998660459999e-01
2.9999999999999973e+00 +8.2847503612612634e+00 +0.0000000000000000e+00 +2.9999999861502600e+00 -1.6645512737414970e-04 +0.0000000000000000e+00 +9.9999998614634500e-01
3.0499999999999972e+00 +8.2847419690984800e+00 +0.0000000000000000e+00 +3.0499999854459601e+00 -1.6923140047203633e-04 +0.0000000000000000e+00 +9.9999998568036630e-01
3.0999999999999970e+00 +8.2847334381195541e+00 +0.0000000000000000e+00 +3.0999999847181678e+00 -1.7200777332752922e-04 +0.0000000000000000e+00 +9.9999998520666267e-01
3.1499999999999968e+00 +8.2847247683194603e+00 +0.0000000000000000e+00 +3.1499999839664974e+00 -1.7478424741771689e-04 +0.0000000000000000e+00 +9.9999998472523310e-01
3.1999999999999966e+00 +8.2847159596931004e+00 +0.0000000000000000e+00 +3.1999999831905623e+00 -1.7756082420906219e-04 +0.0000000000000000e+00 +9.9999998423607650e-01
3.2499999999999964e+00 +8.2847070122353035e+00 +0.0000000000000000e+00 +3.2499999823899763e+00 -1.8033750515740240e-04 +0.0000000000000000e+00 +9.9999998373919174e-01
3.2999999999999963e+00 +8.2846979259408240e+00 +0.0000000000000000e+00 +3.2999999815643526e+00 -1.8311429170794920e-04 +0.0000000000000000e+00 +9.9999998323457773e-01
3.3499999999999961e+00 +8.2846887008043471e+00 +0.0000000000000000e+00 +3.3499999807133052e+00 -1.8589118529528870e-04 +0.0000000000000000e+00 +9.9999998272223323e-01
3.3999999999999959e+00 +8.2846793368204867e+00 +0.0000000000000000e+00 +3.3999999798364473e+00 -1.8866818734338155e-04 +0.0000000000000000e+00 +9.9999998220215713e-01
3.4499999999999957e+00 +8.2846698339837825e+00 +0.0000000000000000e+00 +3.4499999789333922e+00 -1.9144529926556285e-04 +0.0000000000000000e+00 +9.9999998167434823e-01
3.4999999999999956e+00 +8.2846601922887064e+00 +0.0000000000000000e+00 +3.4999999780037534e+00 -1.9422252246454228e-04 +0.0000000000000000e+00 +9.9999998113880539e-01
3.5499999999999954e+00 +8.2846504117296593e+00 +0.0000000000000000e+00 +3.5499999770471438e+00 -1.9699985833240404e-04 +0.0000000000000000e+00 +9.9999998059552742e-01
3.5999999999999952e+00 +8.2846404923009729e+00 +0.0000000000000000e+00 +3.5999999760631769e+00 -1.9977730825060697e-04 +0.0000000000000000e+00 +9.9999998004451307e-01
3.6499999999999950e+00 +8.2846304339969112e+00 +0.0000000000000000e+00 +3.6499999750514660e+00 -2.0255487358998448e-04 +0.0000000000000000e+00 +9.9999997948576114e-01
3.6999999999999948e+00 +8.2846202368116675e+00 +0.0000000000000000e+00 +3.6999999740116238e+00 -2.0533255571074458e-04 +0.0000000000000000e+00 +9.9999997891927028e-01
3.7499999999999947e+00 +8.2846099007393708e+00 +0.0000000000000000e+00 +3.7499999729432640e+00 -2.0811035596247004e-04 +0.0000000000000000e+00 +9.9999997834503940e-01
3.7999999999999945e+00 +8.2845994257740809e+00 +0.0000000000000000e+00 +3.7999999718459989e+00 -2.1088827568411820e-04 +0.0000000000000000e+00 +9.9999997776306715e-01
3.8499999999999943e+00 +8.2845888119097904e+00 +0.0000000000000000e+00 +3.8499999707194417e+00 -2.1366631620402111e-04 +0.0000000000000000e+00 +9.9999997717335221e-01
3.8999999999999941e+00 +8.2845780591404257e+00 +0.0000000000000000e+00 +3.8999999695632050e+00 -2.1644447883988554e-04 +0.0000000000000000e+00 +9.9999997657589335e-01
3.9499999999999940e+00 +8.2845671674598496e+00 +0.0000000000000000e+00 +3.9499999683769018e+00 -2.1922276489879300e-04 +0.0000000000000000e+00 +9.9999997597068924e-01
3.9999999999999938e+00 +8.2845561368618572e+00 +0.0000000000000000e+00 +3.9999999671601447e+00 -2.2200117567719972e-04 +0.0000000000000000e+00 +9.9999997535773855e-01
4.0499999999999936e+00 +8.2845449673401816e+00 +0.0000000000000000e+00 +4.0499999659125461e+00 -2.2477971246085641e-04 +0.0000000000000000e+00 +9.9999997473703994e-01
4.0999999999999934e+00 +8.2845336588884901e+00 +0.0000000000000000e+00 +4.0999999646337191e+00 -2.2755837652392507e-04 +0.0000000000000000e+00 +9.9999997410859209e-01
4.1499999999999932e+00 +8.2845222115003878e+00 +0.0000000000000000e+00 +4.1499999633232756e+00 -2.3033716912809591e-04 +0.0000000000000000e+00 +9.9999997347239367e-01
4.1999999999999931e+00 +8.2845106251694141e+00 +0.0000000000000000e+00 +4.1999999619808293e+00 -2.3311609152250706e-04 +0.0000000000000000e+00 +9.9999997282844333e-01
4.2499999999999929e+00 +8.2844988998890514e+00 +0.0000000000000000e+00 +4.2499999606059911e+00 -2.3589514494374452e-04 +0.0000000000000000e+00 +9.9999997217673964e-01
4.2999999999999927e+00 +8.2844870356527167e+00 +0.0000000000000000e+00 +4.2999999591983737e+00 -2.3867433061584232e-04 +0.0000000000000000e+00 +9.9999997151728126e-01
4.3499999999999925e+00 +8.2844750324537664e+00 +0.0000000000000000e+00 +4.3499999577575901e+00 -2.4145364975028231e-04 +0.0000000000000000e+00 +9.9999997085006676e-01
4.3999999999999924e+00 +8.2844628902854982e+00 +0.0000000000000000e+00 +4.3999999562832510e+00 -2.4423310354599437e-04 +0.0000000000000000e+00 +9.9999997017509479e-01
4.4499999999999922e+00 +8.2844506091411478e+00 +0.0000000000000000e+00 +4.4499999547749702e+00 -2.4701269318935635e-04 +0.0000000000000000e+00 +9.9999996949236392e-01
4.4999999999999920e+00 +8.2844381890138958e+00 +0.0000000000000000e+00 +4.4999999532323587e+00 -2.4979241985419404e-04 +0.0000000000000000e+00 +9.9999996880187270e-01
4.5499999999999918e+00 +8.2844256298968606e+00 +0.0000000000000000e+00 +4.5499999516550282e+00 -2.5257228470178125e-04 +0.0000000000000000e+00 +9.9999996810361969e-01
4.5999999999999917e+00 +8.2844129317831037e+00 +0.0000000000000000e+00 +4.5999999500425908e+00 -2.5535228888083969e-04 +0.0000000000000000e+00 +9.9999996739760344e-01
4.6499999999999915e+00 +8.2844000946656315e+00 +0.0000000000000000e+00 +4.6499999483946590e+00 -2.5813243352753912e-04 +0.0000000000000000e+00 +9.9999996668382252e-01
4.6999999999999913e+00 +8.2843871185373921e+00 +0.0000000000000000e+00 +4.6999999467108440e+00 -2.6091271976549723e-04 +0.0000000000000000e+00 +9.9999996596227547e-01
4.7499999999999911e+00 +8.2843740033912781e+00 +0.0000000000000000e+00 +4.7499999449907575e+00 -2.6369314870577980e-04 +0.0000000000000000e+00 +9.9999996523296075e-01
4.7999999999999909e+00 +8.2843607492201254e+00 +0.0000000000000000e+00 +4.7999999432340106e+00 -2.6647372144690047e-04 +0.0000000000000000e+00 +9.9999996449587691e-01
4.8499999999999908e+00 +8.2843473560167187e+00 +0.0000000000000000e+00 +4.8499999414402151e+00 -2.6925443907482101e-04 +0.0000000000000000e+00 +9.9999996375102251e-01
4.8999999999999906e+00 +8.2843338237737854e+00 +0.0000000000000000e+00 +4.8999999396089828e+00 -2.7203530266295108e-04 +0.0000000000000000e+00 +9.9999996299839600e-01
4.9499999999999904e+00 +8.2843201524840016e+00 +0.0000000000000000e+00 +4.9499999377399249e+00 -2.7481631327214834e-04 +0.0000000000000000e+00 +9.9999996223799592e-01
4.9999999999999902e+00 +8.2843063421399901e+00 +0.0000000000000000e+00 +4.9999999358326530e+00 -2.7759747195071850e-04 +0.0000000000000000e+00 +9.9999996146982073e-01
5.0499999999999901e+00 +8.2842923927343222e+00 +0.0000000000000000e+00 +5.0499999338867774e+00 -2.8037877973441518e-04 +0.0000000000000000e+00 +9.9999996069386887e-01
5.0999999999999899e+00 +8.2842783042595158e+00 +0.0000000000000000e+00 +5.0999999319019098e+00 -2.8316023764643998e-04 +0.0000000000000000e+00 +9.9999995991013879e-01
5.1499999999999897e+00 +8.2842640767080393e+00 +0.0000000000000000e+00 +5.1499999298776613e+00 -2.8594184669744252e-04 +0.0000000000000000e+00 +9.9999995911862904e-01
5.1999999999999895e+00 +8.2842497100723111e+00 +0.0000000000000000e+00 +5.1999999278136428e+00 -2.8872360788552030e-04 +0.0000000000000000e+00 +9.9999995831933797e-01
5.2499999999999893e+00 +8.2842352043446983e+00 +0.0000000000000000e+00 +5.2499999257094654e+00 -2.9150552219621884e-04 +0.0000000000000000e+00 +9.9999995751226411e-01
5.2999999999999892e+00 +8.2842205595175216e+00 +0.0000000000000000e+00 +5.2999999235647399e+00 -2.9428759060253157e-04 +0.0000000000000000e+00 +9.9999995669740582e-01
5.3499999999999890e+00 +8.2842057755830520e+00 +0.0000000000000000e+00 +5.3499999213790765e+00 -2.9706981406489987e-04 +0.0000000000000000e+00 +9.9999995587476154e-01
5.3999999999999888e+00 +8.2841908525335146e+00 +0.0000000000000000e+00 +5.3999999191520862e+00 -2.9985219353121300e-04 +0.0000000000000000e+00 +9.9999995504432970e-01
5.4499999999999886e+00 +8.2841757903610844e+00 +0.0000000000000000e+00 +5.4499999168833799e+00 -3.0263472993680818e-04 +0.0000000000000000e+00 +9.9999995420610877e-01
5.4999999999999885e+00 +8.2841605890578904e+00 +0.0000000000000000e+00 +5.4999999145725678e+00 -3.0541742420447048e-04 +0.0000000000000000e+00 +9.9999995336009706e-01
5.5499999999999883e+00 +8.2841452486160172e+00 +0.0000000000000000e+00 +5.5499999122192598e+00 -3.0820027724443288e-04 +0.0000000000000000e+00 +9.9999995250629303e-01
5.5999999999999881e+00 +8.2841297690275049e+00 +0.0000000000000000e+00 +5.5999999098230671e+00 -3.1098328995437618e-04 +0.0000000000000000e+00 +9.9999995164469513e-01
5.6499999999999879e+00 +8.2841141502843456e+00 +0.0000000000000000e+00 +5.6499999073835996e+00 -3.1376646321942901e-04 +0.0000000000000000e+00 +9.9999995077530168e-01
5.6999999999999877e+00 +8.2840983923784925e+00 +0.0000000000000000e+00 +5.6999999049004675e+00 -3.1654979791216788e-04 +0.0000000000000000e+00 +9.9999994989811103e-01
5.7499999999999876e+00 +8.2840824953018508e+00 +0.0000000000000000e+00 +5.7499999023732808e+00 -3.1933329489261709e-04 +0.0000000000000000e+00 +9.9999994901312161e-01
5.7999999999999874e+00 +8.2840664590462847e+00 +0.0000000000000000e+00 +5.7999998998016498e+00 -3.2211695500824870e-04 +0.0000000000000000e+00 +9.9999994812033188e-01
5.8499999999999872e+00 +8.2840502836036176e+00 +0.0000000000000000e+00 +5.8499998971851843e+00 -3.2490077909398251e-04 +0.0000000000000000e+00 +9.9999994721974006e-01
5.8999999999999870e+00 +8.2840339689656286e+00 +0.0000000000000000e+00 +5.8999998945234937e+00 -3.2768476797218613e-04 +0.0000000000000000e+00 +9.9999994631134459e-01
