# multipoles
# s[mm] polynom_b[n=0][T/m^n] polynom_b[n=1][T/m^n] polynom_b[n=2][T/m^n] polynom_b[n=3][T/m^n] polynom_b[n=4][T/m^n] polynom_b[n=5][T/m^n] polynom_b[n=6][T/m^n] 
+0.0000000000000000e+00 -5.2404632702151632e-01 +6.8930159460228397e+00 +4.4773432315233164e+00 -1.1633059441153257e+02 +1.7751085999747182e+04 +2.6617154670201783e+05 -1.0760520944237158e+08 
+5.0000000000000003e-02 -5.2404525164661431e-01 +6.8929580122951100e+00 +4.4814465945843471e+00 -1.1605753991317818e+02 +1.7715327368676706e+04 +2.6415317050643696e+05 -1.0753879753315768e+08 
+1.0000000000000001e-01 -5.2404452954658198e-01 +6.8929186581053399e+00 +4.4856618353283890e+00 -1.1576207662901744e+02 +1.7667480514468803e+04 +2.6200922157817383e+05 -1.0740481088420929e+08 
+1.4999999999999999e-01 -5.2404416004736576e-01 +6.8928978789254556e+00 +4.4899717125107781e+00 -1.1544559543634951e+02 +1.7607943593259915e+04 +2.5974845632423583e+05 -1.0720534725657672e+08 
+2.0000000000000001e-01 -5.2404414247500586e-01 +6.8928956702226021e+00 +4.4943589878866215e+00 -1.1510948698620516e+02 +1.7537114675897774e+04 +2.5737962930072827e+05 -1.0694250381730194e+08 
+2.5000000000000000e-01 -5.2404447615545735e-01 +6.8929120274647362e+00 +4.4988064223680597e+00 -1.1475514194059126e+02 +1.7455391860116189e+04 +2.5491149521056938e+05 -1.0661837792985778e+08 
+2.9999999999999999e-01 -5.2404516041475646e-01 +6.8929469461232307e+00 +4.5032967755886926e+00 -1.1438395106061422e+02 +1.7363173275057143e+04 +2.5235280952210387e+05 -1.0623506715936598e+08 
+3.4999999999999998e-01 -5.2404619457896406e-01 +6.8930004216663745e+00 +4.5078128089645491e+00 -1.1399730496182700e+02 +1.7260857001148055e+04 +2.4971232655301256e+05 -1.0579466874215096e+08 
+4.0000000000000002e-01 -5.2404757797407520e-01 +6.8930724495631530e+00 +4.5123372827743555e+00 -1.1359659425369392e+02 +1.7148841145519182e+04 +2.4699880058296700e+05 -1.0529928007510830e+08 
+4.5000000000000001e-01 -5.2404930992618071e-01 +6.8931630252833518e+00 +4.5168529579394248e+00 -1.1318320954977389e+02 +1.7027523803325461e+04 +2.4422098590235374e+05 -1.0475099849953431e+08 
+5.0000000000000000e-01 -5.2405138976137033e-01 +6.8932721442983640e+00 +4.5213425969675294e+00 -1.1275854150495334e+02 +1.6897303024121898e+04 +2.4138763717650142e+05 -1.0415192103551665e+08 
+5.5000000000000004e-01 -5.2405381680568908e-01 +6.8933998020786538e+00 +4.5257889563148153e+00 -1.1232398070643771e+02 +1.6758577020452507e+04 +2.3850750851811457e+05 -1.0350414580547953e+08 
+5.9999999999999998e-01 -5.2405659038532426e-01 +6.8935459940934356e+00 +4.5301748015654875e+00 -1.1188091766068905e+02 +1.6611743756953481e+04 +2.3558935335124604e+05 -1.0280976924952240e+08 
+6.5000000000000002e-01 -5.2405970982635641e-01 +6.8937107158151569e+00 +4.5344828898365614e+00 -1.1143074298015692e+02 +1.6457201429138513e+04 +2.3264192599899336e+05 -1.0207088937852724e+08 
+6.9999999999999996e-01 -5.2406317445490469e-01 +6.8938939627143867e+00 +4.5386959827754465e+00 -1.1097484716424772e+02 +1.6295348107167449e+04 +2.2967397982133538e+05 -1.0128960334411913e+08 
+7.5000000000000000e-01 -5.2406698359716308e-01 +6.8940957302629142e+00 +4.5427968429683077e+00 -1.1051462075163472e+02 +1.6126581842134945e+04 +2.2669426855321386e+05 -1.0046800819437735e+08 
+8.0000000000000004e-01 -5.2407113657928772e-01 +6.8943160139351178e+00 +4.5467682288759601e+00 -1.1005145434076267e+02 +1.5951300788654022e+04 +2.2371154634570490e+05 -9.9608201646006897e+07 
+8.4999999999999998e-01 -5.2407563272747792e-01 +6.8945548092041724e+00 +4.5505929034146009e+00 -1.0958673846232021e+02 +1.5769902986571396e+04 +2.2073456682788214e+05 -9.8712280662704691e+07 
+9.0000000000000002e-01 -5.2408047136791980e-01 +6.8948121115426968e+00 +4.5542536248085383e+00 -1.0912186359652689e+02 +1.5582786598655392e+04 +2.1777208320059217e+05 -9.7782343024117649e+07 
+9.4999999999999996e-01 -5.2408565182682376e-01 +6.8950879164259442e+00 +4.5577331568208503e+00 -1.0865822029840083e+02 +1.5390349645836141e+04 +2.1483284925571532e+05 -9.6820485582790881e+07 
+1.0000000000000000e+00 -5.2409117343045908e-01 +6.8953822193291270e+00 +4.5610142585317108e+00 -1.0819719910576914e+02 +1.5192990265249126e+04 +2.1192561865246342e+05 -9.5828805936224192e+07 
+1.0500000000000000e+00 -5.2409703550505793e-01 +6.8956950157266448e+00 +4.5640796921816493e+00 -1.0774019048182326e+02 +1.4991106519766219e+04 +2.0905914439196486e+05 -9.4809401223368153e+07 
+1.1000000000000001e+00 -5.2410323737685593e-01 +6.8960263010966658e+00 +4.5669122187137408e+00 -1.0728858502305106e+02 +1.4785096500481161e+04 +2.0624218058226595e+05 -9.3764368748996228e+07 
+1.1499999999999999e+00 -5.2410977837215456e-01 +6.8963760709180377e+00 +4.5694945987532822e+00 -1.0684377332904916e+02 +1.4575358311006468e+04 +2.0348348132435171e+05 -9.2695805916667596e+07 
+1.2000000000000000e+00 -5.2411665781725381e-01 +6.8967443206661763e+00 +4.5718095946839679e+00 -1.0640714582976446e+02 +1.4362290009173306e+04 +2.0079179930971406e+05 -9.1605809829624519e+07 
+1.2500000000000000e+00 -5.2412387503846247e-01 +6.8971310458224151e+00 +4.5738399678044583e+00 -1.0598009316933798e+02 +1.4146289680084230e+04 +1.9817588896167101e+05 -9.0496477765554965e+07 
+1.3000000000000000e+00 -5.2413142936210755e-01 +6.8975362418654180e+00 +4.5755684798584637e+00 -1.0556400585959547e+02 +1.3927755401577895e+04 +1.9564450361689355e+05 -8.9369906974649191e+07 
+1.3500000000000001e+00 -5.2413932011452502e-01 +6.8979599042763171e+00 +4.5769778916935522e+00 -1.0516027448120573e+02 +1.3707085273719236e+04 +1.9320639711044857e+05 -8.8228194846789449e+07 
+1.3999999999999999e+00 -5.2414754662205176e-01 +6.8984020285395555e+00 +4.5780509665705447e+00 -1.0477028973093684e+02 +1.3484677330301409e+04 +1.9087032425413403e+05 -8.7073438324061379e+07 
+1.4500000000000000e+00 -5.2415610821110159e-01 +6.8988626101350299e+00 +4.5787704647358618e+00 -1.0439544208556319e+02 +1.3260929693625945e+04 +1.8864503797070976e+05 -8.5907734971727297e+07 
+1.5000000000000000e+00 -5.2416500420802425e-01 +6.8993416445492937e+00 +4.5791191507181006e+00 -1.0403712227231921e+02 +1.3036240368727269e+04 +1.8653929325292361e+05 -8.4733181558524638e+07 
+1.5500000000000000e+00 -5.2417423393923324e-01 +6.8998391272669348e+00 +4.5790797842198989e+00 -1.0369672091151260e+02 +1.2811007491668242e+04 +1.8456184415766696e+05 -8.3551875740113407e+07 
+1.6000000000000001e+00 -5.2418379673115822e-01 +6.9003550537745051e+00 +4.5786351298159556e+00 -1.0337562867904434e+02 +1.2585629070239042e+04 +1.8272144518118000e+05 -8.2365914320625842e+07 
+1.6499999999999999e+00 -5.2419369191022158e-01 +6.9008894195601185e+00 +4.5777679481403997e+00 -1.0307523628728177e+02 +1.2360503218166417e+04 +1.8102685107508179e+05 -8.1177394816522181e+07 
+1.7000000000000000e+00 -5.2420391880288231e-01 +6.9014422201124024e+00 +4.5764610038012004e+00 -1.0279693444163149e+02 +1.2136027946113434e+04 +1.7948681648801584e+05 -7.9988414067379266e+07 
+1.7500000000000000e+00 -5.2421447673559640e-01 +6.9020134509201299e+00 +4.5746970584314770e+00 -1.0254211383640796e+02 +1.1912601342776732e+04 +1.7811009596982936e+05 -7.8801069429229990e+07 
+1.8000000000000000e+00 -5.2422536503482242e-01 +6.9026031074782157e+00 +4.5724588759561993e+00 -1.0231216537723803e+02 +1.1690621439947477e+04 +1.7690544571656012e+05 -7.7617457895608246e+07 
+1.8500000000000001e+00 -5.2423658302707898e-01 +6.9032111852771658e+00 +4.5697292192110082e+00 -1.0210847977984253e+02 +1.1470486301413321e+04 +1.7588162037177384e+05 -7.6439676684302598e+07 
+1.8999999999999999e+00 -5.2424813003890458e-01 +6.9038376798114003e+00 +4.5664908525210341e+00 -1.0193244788138975e+02 +1.1252593950284305e+04 +1.7504737547501235e+05 -7.5269822740070030e+07 
+1.9500000000000000e+00 -5.2426000539677031e-01 +6.9044825865780819e+00 +4.5627265388153608e+00 -1.0178546061296773e+02 +1.1037342450001535e+04 +1.7441146734330707e+05 -7.4109993287960261e+07 
+2.0000000000000000e+00 -5.2427220842723843e-01 +6.9051459010731060e+00 +4.5584190412577401e+00 -1.0166890883506076e+02 +1.0825129860353396e+04 +1.7398265167197911e+05 -7.2962285539378092e+07 
+2.0499999999999998e+00 -5.2428473824811084e-01 +6.9058275905051039e+00 +4.5535542680603482e+00 -1.0158376919224176e+02 +1.0616287868316018e+04 +1.7376712422981576e+05 -7.1828433243126556e+07 
+2.1000000000000001e+00 -5.2429759313925495e-01 +6.9065275086918980e+00 +4.5481310727606772e+00 -1.0152936047388681e+02 +1.0410872682051153e+04 +1.7376098890238375e+05 -7.0708656037428021e+07 
+2.1499999999999999e+00 -5.2431077117022884e-01 +6.9072454779689627e+00 +4.5421518213512027e+00 -1.0150459003922282e+02 +1.0208868998035914e+04 +1.7395785407845775e+05 -6.9602779043211415e+07 
+2.2000000000000002e+00 -5.2432427041068952e-01 +6.9079813206835752e+00 +4.5356188814477294e+00 -1.0150836571024098e+02 +1.0010261476626469e+04 +1.7435133187912963e+05 -6.8510627166634619e+07 
+2.2500000000000000e+00 -5.2433808893025236e-01 +6.9087348591775468e+00 +4.5285346161740785e+00 -1.0153959506655244e+02 +9.8150348932445850e+03 +1.7493503242162848e+05 -6.7432026066658363e+07 
+2.2999999999999998e+00 -5.2435222479860044e-01 +6.9095059157937637e+00 +4.5209013944720322e+00 -1.0159718570906502e+02 +9.6231738667189638e+03 +1.7570256596243673e+05 -6.6366800347876191e+07 
+2.3500000000000001e+00 -5.2436667608532928e-01 +6.9102943128801959e+00 +4.5127215810280843e+00 -1.0168004541859497e+02 +9.4346631311962719e+03 +1.7664754418479139e+05 -6.5314775396637790e+07 
+2.3999999999999999e+00 -5.2438144086012572e-01 +6.9110998727802251e+00 +4.5039975415948872e+00 -1.0178708177098629e+02 +9.2494873931083785e+03 +1.7776357706027661e+05 -6.4275776417702578e+07 
+2.4500000000000002e+00 -5.2439651719264135e-01 +6.9119224178424776e+00 +4.4947316431475626e+00 -1.0191720252605410e+02 +9.0676313217079769e+03 +1.7904427601203742e+05 -6.3249628349512748e+07 
+2.5000000000000000e+00 -5.2441190315260489e-01 +6.9127617704133142e+00 +4.4849262510802061e+00 -1.0206931534461671e+02 +8.8890796312074308e+03 +1.8048325165473251e+05 -6.2236156444730401e+07 
+2.5499999999999998e+00 -5.2442759680967999e-01 +6.9136177528404996e+00 +4.4745837311140502e+00 -1.0224232790690742e+02 +8.7138170220616867e+03 +1.8207411466862276e+05 -6.1235185843541324e+07 
+2.6000000000000001e+00 -5.2444359623354186e-01 +6.9144901874740139e+00 +4.4637064489774589e+00 -1.0243514797392071e+02 +8.5418282009252598e+03 +1.8381047641516745e+05 -6.0246541756366037e+07 
+2.6499999999999999e+00 -5.2445989949395422e-01 +6.9153788966642269e+00 +4.4522967715219064e+00 -1.0264668329574783e+02 +8.3730978382737212e+03 +1.8568594807921810e+05 -5.9270049127127275e+07 
+2.7000000000000002e+00 -5.2447650466057671e-01 +6.9162837027596202e+00 +4.4403570635253802e+00 -1.0287584152153623e+02 +8.2076106583839628e+03 +1.8769413999081298e+05 -5.8305533255223766e+07 
+2.7500000000000000e+00 -5.2449340980316705e-01 +6.9172044281127345e+00 +4.4278896918240429e+00 -1.0312153044801568e+02 +8.0453513336247843e+03 +1.8982866364388273e+05 -5.7352819105356492e+07 
+2.7999999999999998e+00 -5.2451061299147383e-01 +6.9181408950754806e+00 +4.4148970206553617e+00 -1.0338265783357141e+02 +7.8863046016354901e+03 +1.9208313020166667e+05 -5.6411732066614754e+07 
+2.8500000000000001e+00 -5.2452811229519547e-01 +6.9190929260017455e+00 +4.4013814170517040e+00 -1.0365813148322928e+02 +7.7304551246221845e+03 +1.9445115113565666e+05 -5.5482097018474050e+07 
+2.8999999999999999e+00 -5.2454590578410831e-01 +6.9200603432434251e+00 +4.3873452472231511e+00 -1.0394685910114522e+02 +7.5777875862738274e+03 +1.9692633703189917e+05 -5.4563738986178629e+07 
+2.9500000000000002e+00 -5.2456399152794975e-01 +6.9210429691554634e+00 +4.3727908735013648e+00 -1.0424774851162707e+02 +7.4282867727877010e+03 +1.9950229948211883e+05 -5.3656483678700745e+07 
+3.0000000000000000e+00 -5.2458236759649945e-01 +6.9220406260920031e+00 +4.3577206644935655e+00 -1.0455970746654275e+02 +7.2819372993535872e+03 +2.0217264936363313e+05 -5.2760155645560429e+07 
+3.0499999999999998e+00 -5.2460103205949493e-01 +6.9230531364111281e+00 +4.3421369844380102e+00 -1.0488164387128295e+02 +7.1387238993452056e+03 +2.0493099881692076e+05 -5.1874580238444053e+07 
+3.1000000000000001e+00 -5.2461998298675583e-01 +6.9240803224664553e+00 +4.3260421973891221e+00 -1.0521246542935248e+02 +6.9986313105519284e+03 +2.0777095827200526e+05 -5.0999582836878069e+07 
+3.1499999999999999e+00 -5.2463921844805195e-01 +6.9251220066167392e+00 +4.3094386711187020e+00 -1.0555108002625278e+02 +6.8616441642836689e+03 +2.1068613957489445e+05 -5.0134988078879766e+07 
+3.2000000000000002e+00 -5.2465873651314887e-01 +6.9261780112201299e+00 +4.2923287667970600e+00 -1.0589639551013821e+02 +6.7277472707850029e+03 +2.1367015425455704e+05 -4.9280621816700742e+07 
+3.2500000000000000e+00 -5.2467853525183961e-01 +6.9272481586354129e+00 +4.2747148537139807e+00 -1.0624731973136414e+02 +6.5969252241829445e+03 +2.1671661378199322e+05 -4.8436308457633756e+07 
+3.2999999999999998e+00 -5.2469861273393026e-01 +6.9283322712195732e+00 +4.2565992939308357e+00 -1.0660276045349835e+02 +6.4691628019691807e+03 +2.1981912888333353e+05 -4.7601873600538172e+07 
+3.3500000000000001e+00 -5.2471896702925547e-01 +6.9294301713344257e+00 +4.2379844527737909e+00 -1.0696162561901515e+02 +6.3444447014708931e+03 +2.2297131170030922e+05 -4.6777142335907176e+07 
+3.3999999999999999e+00 -5.2473959620757338e-01 +6.9305416813406682e+00 +4.2188726950813109e+00 -1.0732282309680944e+02 +6.2227556255180325e+03 +2.2616677370537232e+05 -4.5961939765763521e+07 
+3.4500000000000002e+00 -5.2476049833872063e-01 +6.9316666235999440e+00 +4.1992663851236394e+00 -1.0768526078615692e+02 +6.1040802909022186e+03 +2.2939912658752635e+05 -4.5156091082395412e+07 
+3.5000000000000000e+00 -5.2478167149251065e-01 +6.9328048204719321e+00 +4.1791678864131594e+00 -1.0804784648846318e+02 +5.9884034349694339e+03 +2.3266198118796560e+05 -4.4359421617645659e+07 
+3.5499999999999998e+00 -5.2480311373877053e-01 +6.9339560943222569e+00 +4.1585795641209335e+00 -1.0840948821949125e+02 +5.8757097461777794e+03 +2.3594895001266542e+05 -4.3571756359889276e+07 
+3.6000000000000001e+00 -5.2482482314735002e-01 +6.9351202675137777e+00 +4.1375037820816347e+00 -1.0876909387885054e+02 +5.7659839487663621e+03 +2.3925364461321762e+05 -4.2792920541192807e+07 
+3.6499999999999999e+00 -5.2484679778800225e-01 +6.9362971624080707e+00 +4.1159429039340534e+00 -1.0912557127952569e+02 +5.6592107701132909e+03 +2.4256967572929495e+05 -4.2022739407018684e+07 
+3.6999999999999900e+00 -5.2486903573062960e-01 +6.9374866013722425e+00 +4.0938992924903133e+00 -1.0947782845978162e+02 +5.5553749540213767e+03 +2.4589065593367632e+05 -4.1261038292140715e+07 
+3.7499999999999898e+00 -5.2489153504504549e-01 +6.9386884067698897e+00 +4.0713753118946228e+00 -1.0982477328837332e+02 +5.4544612089936254e+03 +2.4921019633253955e+05 -4.0507642300193965e+07 
+3.7999999999999901e+00 -5.2491429380107002e-01 +6.9399024009683972e+00 +4.0483733266264528e+00 -1.1016531377355255e+02 +5.3564542316507068e+03 +2.5252190913147185e+05 -3.9762376443483569e+07 
+3.8499999999999899e+00 -5.2493731006858568e-01 +6.9411284063329752e+00 +4.0248956979690629e+00 -1.1049835781469329e+02 +5.2613388043121549e+03 +2.5581940555468816e+05 -3.9025066313132949e+07 
+3.8999999999999901e+00 -5.2496058191738715e-01 +6.9423662452317760e+00 +4.0009447896037500e+00 -1.1082281342529356e+02 +5.1690996365034298e+03 +2.5909629776839746e+05 -3.8295536981297418e+07 
+3.9499999999999900e+00 -5.2498410741737678e-01 +6.9436157400326426e+00 +3.9765229650051777e+00 -1.1113758857874657e+02 +5.0797214478087262e+03 +2.6234619748480723e+05 -3.7573613604905695e+07 
+3.9999999999999898e+00 -5.2500788463834425e-01 +6.9448767131036098e+00 +3.9516325857737278e+00 -1.1144159123933318e+02 +4.9931889996604486e+03 +2.6556271635041479e+05 -3.6859121590309665e+07 
+4.0499999999999901e+00 -5.2503191157675289e-01 +6.9461489868543609e+00 +3.9262777157370454e+00 -1.1173384022654200e+02 +4.9094893037410457e+03 +2.6873995212886319e+05 -3.6152005254897006e+07 
+4.0999999999999899e+00 -5.2505618593518966e-01 +6.9474323805672924e+00 +3.9004691964416476e+00 -1.1201394024542709e+02 +4.8286266890679744e+03 +2.7187488151829608e+05 -3.5452726969117559e+07 
+4.1499999999999897e+00 -5.2508070534259743e-01 +6.9487267119347029e+00 +3.8742195661431893e+00 -1.1228167935434982e+02 +4.7506123738546339e+03 +2.7496543132878485e+05 -3.4761892306333594e+07 
+4.1999999999999904e+00 -5.2510546742807895e-01 +6.9500317986473608e+00 +3.8475413637042952e+00 -1.1253684559848026e+02 +4.6754575659022439e+03 +2.7800952828735090e+05 -3.4080106780778699e+07 
+4.2499999999999902e+00 -5.2513046982063405e-01 +6.9513474583948893e+00 +3.8204471274860463e+00 -1.1277922699451072e+02 +4.6031734858290320e+03 +2.8100509896984778e+05 -3.3407975990271643e+07 
+4.2999999999999901e+00 -5.2515571014929185e-01 +6.9526735088650362e+00 +3.7929493968140719e+00 -1.1300861151344569e+02 +4.5337713236386635e+03 +2.8395006967573561e+05 -3.2746105308292925e+07 
+4.3499999999999899e+00 -5.2518118604307373e-01 +6.9540097677482420e+00 +3.7650607089144890e+00 -1.1322478725244298e+02 +4.4672623333198153e+03 +2.8684236778374837e+05 -3.2095100570288487e+07 
+4.3999999999999897e+00 -5.2520689513097885e-01 +6.9553560527296936e+00 +3.7367936020795822e+00 -1.1342754214158215e+02 +4.4036577313604867e+03 +2.8967991947707854e+05 -3.1455567323828712e+07 
+4.4499999999999904e+00 -5.2523283504208962e-01 +6.9567121814991992e+00 +3.7081606157650202e+00 -1.1361666432294032e+02 +4.3429687057471492e+03 +2.9246065272706014e+05 -3.0828110935523231e+07 
+4.4999999999999902e+00 -5.2525900340539555e-01 +6.9580779717412611e+00 +3.6791742863391312e+00 -1.1379194175144870e+02 +4.2852065279224180e+03 +2.9518249408869090e+05 -3.0213337337264217e+07 
+4.5499999999999901e+00 -5.2528539784989725e-01 +6.9594532411403671e+00 +3.6498471523228551e+00 -1.1395316241914409e+02 +4.2303824100057418e+03 +2.9784337053334032e+05 -2.9611852055730931e+07 
+4.5999999999999899e+00 -5.2531201600464561e-01 +6.9608378073818979e+00 +3.6201917523405438e+00 -1.1410011439253121e+02 +4.1785075597706382e+03 +3.0044120976000308e+05 -2.9024260582370851e+07 
+4.6499999999999897e+00 -5.2533885549865134e-01 +6.9622314881494116e+00 +3.5902206224108451e+00 -1.1423258569743027e+02 +4.1295932567415721e+03 +3.0297393925206707e+05 -2.8451168897770755e+07 
+4.6999999999999904e+00 -5.2536591396096410e-01 +6.9636341011225653e+00 +3.5599463010857275e+00 -1.1435036423821782e+02 +4.0836507120111055e+03 +3.0543948559528531e+05 -2.7893182521490369e+07 
+4.7499999999999902e+00 -5.2539318902054288e-01 +6.9650454639855504e+00 +3.5293813249955353e+00 -1.1445323814115915e+02 +4.0406911843663579e+03 +3.0783577733314480e+05 -2.7350907279334173e+07 
+4.7999999999999901e+00 -5.2542067830642614e-01 +6.9664653944159234e+00 +3.4985382313646292e+00 -1.1454099531297641e+02 +4.0007259196124642e+03 +3.1016074135805509e+05 -2.6824948921015017e+07 
+4.8499999999999899e+00 -5.2544837944760436e-01 +6.9678937100934757e+00 +3.4674295581750907e+00 -1.1461342378237718e+02 +3.9637661416321148e+03 +3.1241230566162104e+05 -2.6315913042374451e+07 
+4.8999999999999897e+00 -5.2547629007315444e-01 +6.9693302286959993e+00 +3.4360678415139683e+00 -1.1467031154543031e+02 +3.9298231243324421e+03 +3.1458839810003655e+05 -2.5824405573868196e+07 
+4.9499999999999904e+00 -5.2550440781197794e-01 +6.9707747678991749e+00 +3.4044656180335973e+00 -1.1471144655638705e+02 +3.8989081237781747e+03 +3.1668694635653513e+05 -2.5351032313252009e+07 
+4.9999999999999902e+00 -5.2553273029315417e-01 +6.9722271453801188e+00 +3.3726354247162442e+00 -1.1473661687429005e+02 +3.8710323932022011e+03 +3.1870587908169732e+05 -2.4896399065854225e+07 
+5.0499999999999901e+00 -5.2556125514784857e-01 +6.9736871715307212e+00 +3.3405901686545127e+00 -1.1474561942356763e+02 +3.8462072652245042e+03 +3.2064313572664221e+05 -2.4461111682534590e+07 
