# field on trajectory
# s[mm] rx[mm] ry[mm] rz[mm] bx[T] by[T] bz[T]
0.0000000000000000e+00 +8.3650000000000002e+00 +0.0000000000000000e+00 +0.0000000000000000e+00 -3.0431095731909458e-02 -5.8027281109032358e-01 +5.6724554780264629e-03
-5.0000000000000003e-02 +8.3649999308431475e+00 +0.0000000000000000e+00 -4.9999999999936227e-02 -3.0431244311735765e-02 -5.8027595571615465e-01 +5.6751268283337748e-03
-1.0000000000000001e-01 +8.3649997233720743e+00 +0.0000000000000000e+00 -9.9999999999489844e-02 -3.0431418205503123e-02 -5.8027947940883418e-01 +5.6778056497942958e-03
-1.5000000000000002e-01 +8.3649993775859421e+00 +0.0000000000000000e+00 -1.4999999999827823e-01 -3.0431617407398526e-02 -5.8028338134482538e-01 +5.6804917406577176e-03
-2.0000000000000001e-01 +8.3649988934838184e+00 +0.0000000000000000e+00 -1.9999999999591875e-01 -3.0431841911610330e-02 -5.8028766070060878e-01 +5.6831848991739393e-03
-2.5000000000000000e-01 +8.3649982710646853e+00 +0.0000000000000000e+00 -2.4999999999202877e-01 -3.0432091712328288e-02 -5.8029231665268211e-01 +5.6858849235930506e-03
-2.9999999999999999e-01 +8.3649975103274326e+00 +0.0000000000000000e+00 -2.9999999998622562e-01 -3.0432366803743505e-02 -5.8029734837756086e-01 +5.6885916121653217e-03
-3.4999999999999998e-01 +8.3649966112708611e+00 +0.0000000000000000e+00 -3.4999999997812664e-01 -3.0432667180048389e-02 -5.8030275505177698e-01 +5.6913047631411799e-03
-3.9999999999999997e-01 +8.3649955738936814e+00 +0.0000000000000000e+00 -3.9999999996734920e-01 -3.0432992835436740e-02 -5.8030853585187980e-01 +5.6940241747712060e-03
-4.4999999999999996e-01 +8.3649943981945150e+00 +0.0000000000000000e+00 -4.4999999995351059e-01 -3.0433343764103695e-02 -5.8031468995443602e-01 +5.6967496453061263e-03
-4.9999999999999994e-01 +8.3649930841718962e+00 +0.0000000000000000e+00 -4.9999999993622812e-01 -3.0433719960245690e-02 -5.8032121653602919e-01 +5.6994809729967776e-03
-5.4999999999999993e-01 +8.3649916318242692e+00 +0.0000000000000000e+00 -5.4999999991511905e-01 -3.0434121418060511e-02 -5.8032811477325941e-01 +5.7022179560941187e-03
-5.9999999999999998e-01 +8.3649900411499907e+00 +0.0000000000000000e+00 -5.9999999988980068e-01 -3.0434548131747254e-02 -5.8033538384274397e-01 +5.7049603928492005e-03
-6.5000000000000002e-01 +8.3649883121473270e+00 +0.0000000000000000e+00 -6.4999999985989021e-01 -3.0435000095506318e-02 -5.8034302292111639e-01 +5.7077080815131527e-03
-7.0000000000000007e-01 +8.3649864448144573e+00 +0.0000000000000000e+00 -6.9999999982500494e-01 -3.0435477303539415e-02 -5.8035103118502751e-01 +5.7104608203371937e-03
-7.5000000000000011e-01 +8.3649844391494721e+00 +0.0000000000000000e+00 -7.4999999978476206e-01 -3.0435979750049559e-02 -5.8035940781114448e-01 +5.7132184075725755e-03
-8.0000000000000016e-01 +8.3649822951503765e+00 +0.0000000000000000e+00 -7.9999999973877878e-01 -3.0436507429241009e-02 -5.8036815197614999e-01 +5.7159806414706065e-03
-8.5000000000000020e-01 +8.3649800128150851e+00 +0.0000000000000000e+00 -8.4999999968667228e-01 -3.0437060335319392e-02 -5.8037726285674440e-01 +5.7187473202826317e-03
-9.0000000000000024e-01 +8.3649775921414253e+00 +0.0000000000000000e+00 -8.9999999962805977e-01 -3.0437638462491538e-02 -5.8038673962964415e-01 +5.7215182422599969e-03
-9.5000000000000029e-01 +8.3649750331271395e+00 +0.0000000000000000e+00 -9.4999999956255832e-01 -3.0438241804965578e-02 -5.8039658147158113e-01 +5.7242932056540650e-03
-1.0000000000000002e+00 +8.3649723357698829e+00 +0.0000000000000000e+00 -9.9999999948978502e-01 -3.0438870356950899e-02 -5.8040678755930397e-01 +5.7270720087161803e-03
-1.0500000000000003e+00 +8.3649695000672217e+00 +0.0000000000000000e+00 -1.0499999994093570e+00 -3.0439524112658153e-02 -5.8041735706957753e-01 +5.7298544496976744e-03
-1.1000000000000003e+00 +8.3649665260166355e+00 +0.0000000000000000e+00 -1.0999999993208913e+00 -3.0440203066299215e-02 -5.8042828917918188e-01 +5.7326403268498248e-03
-1.1500000000000004e+00 +8.3649634136155200e+00 +0.0000000000000000e+00 -1.1499999992240049e+00 -3.0440907212087233e-02 -5.8043958306491383e-01 +5.7354294384238808e-03
-1.2000000000000004e+00 +8.3649601628611840e+00 +0.0000000000000000e+00 -1.1999999991183148e+00 -3.0441636544236608e-02 -5.8045123790358577e-01 +5.7382215826710129e-03
-1.2500000000000004e+00 +8.3649567737508477e+00 +0.0000000000000000e+00 -1.2499999990034381e+00 -3.0442391056962899e-02 -5.8046325287202549e-01 +5.7410165578423182e-03
-1.3000000000000005e+00 +8.3649532462816474e+00 +0.0000000000000000e+00 -1.2999999988789916e+00 -3.0443170744482963e-02 -5.8047562714707657e-01 +5.7438141621888057e-03
-1.3500000000000005e+00 +8.3649495804506344e+00 +0.0000000000000000e+00 -1.3499999987445925e+00 -3.0443975601014844e-02 -5.8048835990559877e-01 +5.7466141939613823e-03
-1.4000000000000006e+00 +8.3649457762547748e+00 +0.0000000000000000e+00 -1.3999999985998575e+00 -3.0444805620777775e-02 -5.8050145032446610e-01 +5.7494164514108343e-03
-1.4500000000000006e+00 +8.3649418336909456e+00 +0.0000000000000000e+00 -1.4499999984444034e+00 -3.0445660797992224e-02 -5.8051489758056896e-01 +5.7522207327878171e-03
-1.5000000000000007e+00 +8.3649377527559441e+00 +0.0000000000000000e+00 -1.4999999982778471e+00 -3.0446541126879854e-02 -5.8052870085081298e-01 +5.7550268363428525e-03
-1.5500000000000007e+00 +8.3649335334464787e+00 +0.0000000000000000e+00 -1.5499999980998054e+00 -3.0447446601663496e-02 -5.8054285931211891e-01 +5.7578345603262878e-03
-1.6000000000000008e+00 +8.3649291757591762e+00 +0.0000000000000000e+00 -1.5999999979098951e+00 -3.0448377216567159e-02 -5.8055737214142256e-01 +5.7606437029883144e-03
-1.6500000000000008e+00 +8.3649246796905761e+00 +0.0000000000000000e+00 -1.6499999977077329e+00 -3.0449332965816093e-02 -5.8057223851567474e-01 +5.7634540625789354e-03
-1.7000000000000008e+00 +8.3649200452371346e+00 +0.0000000000000000e+00 -1.6999999974929354e+00 -3.0450313843636615e-02 -5.8058745761184161e-01 +5.7662654373479543e-03
-1.7500000000000009e+00 +8.3649152723952245e+00 +0.0000000000000000e+00 -1.7499999972651192e+00 -3.0451319844256274e-02 -5.8060302860690394e-01 +5.7690776255449674e-03
-1.8000000000000009e+00 +8.3649103611611348e+00 +0.0000000000000000e+00 -1.7999999970239011e+00 -3.0452350961903782e-02 -5.8061895067785729e-01 +5.7718904254193447e-03
-1.8500000000000010e+00 +8.3649053115310696e+00 +0.0000000000000000e+00 -1.8499999967688976e+00 -3.0453407190808954e-02 -5.8063522300171244e-01 +5.7747036352202193e-03
-1.9000000000000010e+00 +8.3649001235011511e+00 +0.0000000000000000e+00 -1.8999999964997252e+00 -3.0454488525202779e-02 -5.8065184475549447e-01 +5.7775170531964726e-03
-1.9500000000000011e+00 +8.3648947970674179e+00 +0.0000000000000000e+00 -1.9499999962160002e+00 -3.0455594959317368e-02 -5.8066881511624335e-01 +5.7803304775967271e-03
-2.0000000000000009e+00 +8.3648893322258235e+00 +0.0000000000000000e+00 -1.9999999959173393e+00 -3.0456726487385979e-02 -5.8068613326101304e-01 +5.7831437066693204e-03
-2.0500000000000007e+00 +8.3648837289722415e+00 +0.0000000000000000e+00 -2.0499999956033590e+00 -3.0457883064091550e-02 -5.8070379814074224e-01 +5.7859565459184113e-03
-2.1000000000000005e+00 +8.3648779873024601e+00 +0.0000000000000000e+00 -2.0999999952736754e+00 -3.0459064485912291e-02 -5.8072180780186233e-01 +5.7887688298722687e-03
-2.1500000000000004e+00 +8.3648721072121877e+00 +0.0000000000000000e+00 -2.1499999949279047e+00 -3.0460270509775771e-02 -5.8074016006468776e-01 +5.7915804003149341e-03
-2.2000000000000002e+00 +8.3648660886970490e+00 +0.0000000000000000e+00 -2.1999999945656636e+00 -3.0461500892610266e-02 -5.8075885274954619e-01 +5.7943910990300778e-03
-2.2500000000000000e+00 +8.3648599317525889e+00 +0.0000000000000000e+00 -2.2499999941865680e+00 -3.0462755391344774e-02 -5.8077788367677774e-01 +5.7972007678009909e-03
-2.2999999999999998e+00 +8.3648536363742725e+00 +0.0000000000000000e+00 -2.2999999937902342e+00 -3.0464033762908956e-02 -5.8079725066673527e-01 +5.8000092484105708e-03
-2.3499999999999996e+00 +8.3648472025574812e+00 +0.0000000000000000e+00 -2.3499999933762781e+00 -3.0465335764233159e-02 -5.8081695153978508e-01 +5.8028163826412977e-03
-2.3999999999999995e+00 +8.3648406302975218e+00 +0.0000000000000000e+00 -2.3999999929443159e+00 -3.0466661152248296e-02 -5.8083698411630491e-01 +5.8056220122752310e-03
-2.4499999999999993e+00 +8.3648339195896178e+00 +0.0000000000000000e+00 -2.4499999924939639e+00 -3.0468009683885897e-02 -5.8085734621668472e-01 +5.8084259790939854e-03
-2.4999999999999991e+00 +8.3648270704289160e+00 +0.0000000000000000e+00 -2.4999999920248381e+00 -3.0469381116078081e-02 -5.8087803566132756e-01 +5.8112281248787218e-03
-2.5499999999999989e+00 +8.3648200828104855e+00 +0.0000000000000000e+00 -2.5499999915365539e+00 -3.0470775205757479e-02 -5.8089905027064825e-01 +5.8140282914101249e-03
-2.5999999999999988e+00 +8.3648129567293168e+00 +0.0000000000000000e+00 -2.5999999910287275e+00 -3.0472191709857238e-02 -5.8092038786507205e-01 +5.8168263204683946e-03
-2.6499999999999986e+00 +8.3648056921803242e+00 +0.0000000000000000e+00 -2.6499999905009748e+00 -3.0473630385311014e-02 -5.8094204626503809e-01 +5.8196220538332252e-03
-2.6999999999999984e+00 +8.3647982891583439e+00 +0.0000000000000000e+00 -2.6999999899529112e+00 -3.0475090989052881e-02 -5.8096402329099550e-01 +5.8224153332837895e-03
-2.7499999999999982e+00 +8.3647907476581391e+00 +0.0000000000000000e+00 -2.7499999893841531e+00 -3.0476573278017383e-02 -5.8098631676340529e-01 +5.8252060005987375e-03
-2.7999999999999980e+00 +8.3647830676743968e+00 +0.0000000000000000e+00 -2.7999999887943154e+00 -3.0478077009139425e-02 -5.8100892450273967e-01 +5.8279938975561605e-03
-2.8499999999999979e+00 +8.3647752492017275e+00 +0.0000000000000000e+00 -2.8499999881830145e+00 -3.0479601939354325e-02 -5.8103184432948218e-01 +5.8307788659335835e-03
-2.8999999999999977e+00 +8.3647672922346672e+00 +0.0000000000000000e+00 -2.8999999875498652e+00 -3.0481147825597712e-02 -5.8105507406412693e-01 +5.8335607475079590e-03
-2.9499999999999975e+00 +8.3647591967676806e+00 +0.0000000000000000e+00 -2.9499999868944835e+00 -3.0482714424805581e-02 -5.8107861152717943e-01 +5.8363393840556452e-03
-2.9999999999999973e+00 +8.3647509627951564e+00 +0.0000000000000000e+00 -2.9999999862164843e+00 -3.0484301493914168e-02 -5.8110245453915477e-01 +5.8391146173523778e-03
-3.0499999999999972e+00 +8.3647425903114119e+00 +0.0000000000000000e+00 -3.0499999855154836e+00 -3.0485908789860010e-02 -5.8112660092057977e-01 +5.8418862891732809e-03
-3.0999999999999970e+00 +8.3647340793106917e+00 +0.0000000000000000e+00 -3.0999999847910962e+00 -3.0487536069579872e-02 -5.8115104849199117e-01 +5.8446542412928281e-03
-3.1499999999999968e+00 +8.3647254297871676e+00 +0.0000000000000000e+00 -3.1499999840429376e+00 -3.0489183090010724e-02 -5.8117579507393546e-01 +5.8474183154848397e-03
-3.1999999999999966e+00 +8.3647166417349421e+00 +0.0000000000000000e+00 -3.1999999832706227e+00 -3.0490849608089735e-02 -5.8120083848696991e-01 +5.8501783535224667e-03
-3.2499999999999964e+00 +8.3647077151480449e+00 +0.0000000000000000e+00 -3.2499999824737671e+00 -3.0492535380754204e-02 -5.8122617655166120e-01 +5.8529341971781642e-03
-3.2999999999999963e+00 +8.3646986500204381e+00 +0.0000000000000000e+00 -3.2999999816519856e+00 -3.0494240164941580e-02 -5.8125180708858593e-01 +5.8556856882236961e-03
-3.3499999999999961e+00 +8.3646894463460129e+00 +0.0000000000000000e+00 -3.3499999808048933e+00 -3.0495963717589392e-02 -5.8127772791833032e-01 +5.8584326684300954e-03
-3.3999999999999959e+00 +8.3646801041185892e+00 +0.0000000000000000e+00 -3.3999999799321050e+00 -3.0497705795635276e-02 -5.8130393686149051e-01 +5.8611749795676737e-03
-3.4499999999999957e+00 +8.3646706233319215e+00 +0.0000000000000000e+00 -3.4499999790332359e+00 -3.0499466156016876e-02 -5.8133043173867116e-01 +5.8639124634059896e-03
-3.4999999999999956e+00 +8.3646610039796929e+00 +0.0000000000000000e+00 -3.4999999781079003e+00 -3.0501244555671870e-02 -5.8135721037048682e-01 +5.8666449617138317e-03
-3.5499999999999954e+00 +8.3646512460555211e+00 +0.0000000000000000e+00 -3.5499999771557134e+00 -3.0503040751537949e-02 -5.8138427057756059e-01 +5.8693723162592179e-03
-3.5999999999999952e+00 +8.3646413495529579e+00 +0.0000000000000000e+00 -3.5999999761762895e+00 -3.0504854500552719e-02 -5.8141161018052478e-01 +5.8720943688093637e-03
-3.6499999999999950e+00 +8.3646313144654840e+00 +0.0000000000000000e+00 -3.6499999751692438e+00 -3.0506685559653766e-02 -5.8143922700002004e-01 +5.8748109611306823e-03
-3.6999999999999948e+00 +8.3646211407865199e+00 +0.0000000000000000e+00 -3.6999999741341902e+00 -3.0508533685778581e-02 -5.8146711885669589e-01 +5.8775219349887532e-03
-3.7499999999999947e+00 +8.3646108285094147e+00 +0.0000000000000000e+00 -3.7499999730707438e+00 -3.0510398635864498e-02 -5.8149528357121083e-01 +5.8802271321483210e-03
-3.7999999999999945e+00 +8.3646003776274558e+00 +0.0000000000000000e+00 -3.7999999719785187e+00 -3.0512280166848735e-02 -5.8152371896423050e-01 +5.8829263943732668e-03
-3.8499999999999943e+00 +8.3645897881338662e+00 +0.0000000000000000e+00 -3.8499999708571289e+00 -3.0514178035668364e-02 -5.8155242285642939e-01 +5.8856195634266065e-03
-3.8999999999999941e+00 +8.3645790600218053e+00 +0.0000000000000000e+00 -3.8999999697061889e+00 -3.0516091999260173e-02 -5.8158139306848999e-01 +5.8883064810704667e-03
-3.9499999999999940e+00 +8.3645681932843665e+00 +0.0000000000000000e+00 -3.9499999685253129e+00 -3.0518021814560821e-02 -5.8161062742110270e-01 +5.8909869890660703e-03
-3.9999999999999938e+00 +8.3645571879145812e+00 +0.0000000000000000e+00 -3.9999999673141153e+00 -3.0519967238506650e-02 -5.8164012373496532e-01 +5.8936609291737234e-03
-4.0499999999999936e+00 +8.3645460439054187e+00 +0.0000000000000000e+00 -4.0499999660722095e+00 -3.0521928047064516e-02 -5.8166987970896555e-01 +5.8963281522592444e-03
-4.0999999999999934e+00 +8.3645347612497876e+00 +0.0000000000000000e+00 -4.0999999647992098e+00 -3.0523904092324312e-02 -5.8169989255472621e-01 +5.8989885456134025e-03
-4.1499999999999932e+00 +8.3645233399405328e+00 +0.0000000000000000e+00 -4.1499999634947304e+00 -3.0525895245406512e-02 -5.8173015936205352e-01 +5.9016420056326171e-03
-4.1999999999999931e+00 +8.3645117799704423e+00 +0.0000000000000000e+00 -4.1999999621583850e+00 -3.0527901377431350e-02 -5.8176067722075520e-01 +5.9042884287124819e-03
-4.2499999999999929e+00 +8.3645000813322401e+00 +0.0000000000000000e+00 -4.2499999607897880e+00 -3.0529922359518697e-02 -5.8179144322063892e-01 +5.9069277112477397e-03
-4.2999999999999927e+00 +8.3644882440185935e+00 +0.0000000000000000e+00 -4.2999999593885523e+00 -3.0531958062788103e-02 -5.8182245445151448e-01 +5.9095597496322868e-03
-4.3499999999999925e+00 +8.3644762680221110e+00 +0.0000000000000000e+00 -4.3499999579542914e+00 -3.0534008358358778e-02 -5.8185370800319047e-01 +5.9121844402591469e-03
-4.3999999999999924e+00 +8.3644641533353425e+00 +0.0000000000000000e+00 -4.3999999564866190e+00 -3.0536073117349551e-02 -5.8188520096547580e-01 +5.9148016795204745e-03
-4.4499999999999922e+00 +8.3644518999507831e+00 +0.0000000000000000e+00 -4.4499999549851488e+00 -3.0538152210878786e-02 -5.8191693042817894e-01 +5.9174113638075284e-03
-4.4999999999999920e+00 +8.3644395078608689e+00 +0.0000000000000000e+00 -4.4999999534494934e+00 -3.0540245510064460e-02 -5.8194889348110701e-01 +5.9200133895106798e-03
-4.5499999999999918e+00 +8.3644269770579811e+00 +0.0000000000000000e+00 -4.5499999518792675e+00 -3.0542352886024086e-02 -5.8198108721406716e-01 +5.9226076530193832e-03
-4.5999999999999917e+00 +8.3644143075344459e+00 +0.0000000000000000e+00 -4.5999999502740829e+00 -3.0544474209874672e-02 -5.8201350871686408e-01 +5.9251940507221755e-03
-4.6499999999999915e+00 +8.3644014992825362e+00 +0.0000000000000000e+00 -4.6499999486335533e+00 -3.0546609352732727e-02 -5.8204615507930102e-01 +5.9277724790066620e-03
-4.6999999999999913e+00 +8.3643885522944714e+00 +0.0000000000000000e+00 -4.6999999469572922e+00 -3.0548758185714221e-02 -5.8207902339117912e-01 +5.9303428342595051e-03
-4.7499999999999911e+00 +8.3643754665624162e+00 +0.0000000000000000e+00 -4.7499999452449124e+00 -3.0550920579934533e-02 -5.8211211074229707e-01 +5.9329050128664141e-03
-4.7999999999999909e+00 +8.3643622420784833e+00 +0.0000000000000000e+00 -4.7999999434960268e+00 -3.0553096406508520e-02 -5.8214541422245114e-01 +5.9354589112121329e-03
-4.8499999999999908e+00 +8.3643488788347362e+00 +0.0000000000000000e+00 -4.8499999417102480e+00 -3.0555285536550368e-02 -5.8217893092143391e-01 +5.9380044256804303e-03
-4.8999999999999906e+00 +8.3643353768231847e+00 +0.0000000000000000e+00 -4.8999999398871887e+00 -3.0557487841173642e-02 -5.8221265792903465e-01 +5.9405414526540901e-03
-4.9499999999999904e+00 +8.3643217360357909e+00 +0.0000000000000000e+00 -4.9499999380264619e+00 -3.0559703191491261e-02 -5.8224659233503950e-01 +5.9430698885148932e-03
-4.9999999999999902e+00 +8.3643079564644669e+00 +0.0000000000000000e+00 -4.9999999361276801e+00 -3.0561931458615424e-02 -5.8228073122923019e-01 +5.9455896296436170e-03
-5.0499999999999901e+00 +8.3642940381010735e+00 +0.0000000000000000e+00 -5.0499999341904553e+00 -3.0564172513657641e-02 -5.8231507170138386e-01 +5.9481005724200189e-03
-5.0999999999999899e+00 +8.3642799809374271e+00 +0.0000000000000000e+00 -5.0999999322144003e+00 -3.0566426227728680e-02 -5.8234961084127301e-01 +5.9506026132228156e-03
-5.1499999999999897e+00 +8.3642657849652942e+00 +0.0000000000000000e+00 -5.1499999301991277e+00 -3.0568692471938535e-02 -5.8238434573866527e-01 +5.9530956484296965e-03
-5.1999999999999895e+00 +8.3642514501763969e+00 +0.0000000000000000e+00 -5.1999999281442495e+00 -3.0570971117396414e-02 -5.8241927348332345e-01 +5.9555795744172888e-03
-5.2499999999999893e+00 +8.3642369765624078e+00 +0.0000000000000000e+00 -5.2499999260493784e+00 -3.0573262035210706e-02 -5.8245439116500353e-01 +5.9580542875611519e-03
-5.2999999999999892e+00 +8.3642223641149585e+00 +0.0000000000000000e+00 -5.2999999239141262e+00 -3.0575565096488979e-02 -5.8248969587345578e-01 +5.9605196842357783e-03
-5.3499999999999890e+00 +8.3642076128256324e+00 +0.0000000000000000e+00 -5.3499999217381049e+00 -3.0577880172337920e-02 -5.8252518469842518e-01 +5.9629756608145668e-03
-5.3999999999999888e+00 +8.3641927226859725e+00 +0.0000000000000000e+00 -5.3999999195209263e+00 -3.0580207133863314e-02 -5.8256085472964880e-01 +5.9654221136698294e-03
-5.4499999999999886e+00 +8.3641776936874752e+00 +0.0000000000000000e+00 -5.4499999172622022e+00 -3.0582545852170059e-02 -5.8259670305685762e-01 +5.9678589391727530e-03
-5.4999999999999885e+00 +8.3641625258215964e+00 +0.0000000000000000e+00 -5.4999999149615446e+00 -3.0584896198362084e-02 -5.8263272676977451e-01 +5.9702860336934161e-03
-5.5499999999999883e+00 +8.3641472190797490e+00 +0.0000000000000000e+00 -5.5499999126185653e+00 -3.0587258043542367e-02 -5.8266892295811534e-01 +5.9727032936007663e-03
-5.5999999999999881e+00 +8.3641317734533072e+00 +0.0000000000000000e+00 -5.5999999102328752e+00 -3.0589631258812890e-02 -5.8270528871158789e-01 +5.9751106152626035e-03
-5.6499999999999879e+00 +8.3641161889336004e+00 +0.0000000000000000e+00 -5.6499999078040863e+00 -3.0592015715274614e-02 -5.8274182111989103e-01 +5.9775078950455767e-03
-5.6999999999999877e+00 +8.3641004655119229e+00 +0.0000000000000000e+00 -5.6999999053318104e+00 -3.0594411284027477e-02 -5.8277851727271646e-01 +5.9798950293151716e-03
-5.7499999999999876e+00 +8.3640846031795277e+00 +0.0000000000000000e+00 -5.7499999028156585e+00 -3.0596817836170312e-02 -5.8281537425974561e-01 +5.9822719144357007e-03
-5.7999999999999874e+00 +8.3640686019276291e+00 +0.0000000000000000e+00 -5.7999999002552416e+00 -3.0599235242800879e-02 -5.8285238917065030e-01 +5.9846384467702810e-03
-5.8499999999999872e+00 +8.3640524617474057e+00 +0.0000000000000000e+00 -5.8499998976501715e+00 -3.0601663375015836e-02 -5.8288955909509477e-01 +5.9869945226808429e-03
