# multipoles
# s[mm] polynom_b[n=0][T/m^n] polynom_b[n=1][T/m^n] polynom_b[n=2][T/m^n] polynom_b[n=3][T/m^n] polynom_b[n=4][T/m^n] polynom_b[n=5][T/m^n] polynom_b[n=6][T/m^n] 
-0.0000000000000000e+00 -5.7765359222033807e-01 +7.5503383954728545e+00 +7.1513704739190009e+00 +4.4330888460961866e+01 -1.9771572373694085e+04 -6.0544994319116138e+05 +1.1876851983153635e+08 
-5.0000000000000003e-02 -5.7765378194982275e-01 +7.5503387198768728e+00 +7.1446050950123157e+00 +4.4265390847447257e+01 -1.9622880822730720e+04 -6.0476913794376759e+05 +1.1787021323661764e+08 
-1.0000000000000001e-01 -5.7765438166250460e-01 +7.5503623598490988e+00 +7.1373795669507443e+00 +4.4187434383522501e+01 -1.9473558602071931e+04 -6.0404945302774187e+05 +1.1696190962381835e+08 
-1.4999999999999999e-01 -5.7765539056633686e-01 +7.5504092270212935e+00 +7.1296971195832919e+00 +4.4097388721935779e+01 -1.9323680259773981e+04 -6.0329115394445090e+05 +1.1604422680705130e+08 
-2.0000000000000001e-01 -5.7765680786932083e-01 +7.5504792330304209e+00 +7.1215609854260293e+00 +4.3995623329651764e+01 -1.9173320414780603e+04 -6.0249450464191241e+05 +1.1511778307474862e+08 
-2.5000000000000000e-01 -5.7765863277949014e-01 +7.5505722895109155e+00 +7.1129743943464430e+00 +4.3882507801002362e+01 -1.9022553611795378e+04 -6.0165977007166366e+05 +1.1418319620487055e+08 
-2.9999999999999999e-01 -5.7766086450487997e-01 +7.5506883080990885e+00 +7.1039405781788023e+00 +4.3758411689919015e+01 -1.8871454450219957e+04 -6.0078721485292213e+05 +1.1324108435233009e+08 
-3.4999999999999998e-01 -5.7766350225348972e-01 +7.5508272004322086e+00 +7.0944627687823489e+00 +4.3623704538324361e+01 -1.8720097529670991e+04 -5.9987710345935053e+05 +1.1229206567200698e+08 
-4.0000000000000002e-01 -5.7766654523346395e-01 +7.5509888781480683e+00 +7.0845441958710103e+00 +4.3478755898169524e+01 -1.8568557387171881e+04 -5.9892970047707506e+05 +1.1133675787792076e+08 
-4.5000000000000001e-01 -5.7766999265282193e-01 +7.5511732528835074e+00 +7.0741880934130084e+00 +4.3323935388244664e+01 -1.8416908680524863e+04 -5.9794527096746315e+05 +1.1037577952303906e+08 
-5.0000000000000000e-01 -5.7767384371970520e-01 +7.5513802362794245e+00 +7.0633976893583625e+00 +4.3159612494938820e+01 -1.8265225903073744e+04 -5.9692407893999002e+05 +1.0940974804275036e+08 
-5.5000000000000004e-01 -5.7767809764223388e-01 +7.5516097399754338e+00 +7.0521762181309251e+00 +4.2986156782537847e+01 -1.8113583712770429e+04 -5.9586638899223949e+05 +1.0843928194533022e+08 
-5.9999999999999998e-01 -5.7768275362858923e-01 +7.5518616756101231e+00 +7.0405269090746154e+00 +4.2803937889025050e+01 -1.7962056645820045e+04 -5.9477246634223033e+05 +1.0746499897469717e+08 
-6.5000000000000002e-01 -5.7768781088685450e-01 +7.5521359548242950e+00 +7.0284529937177265e+00 +4.2613325400896834e+01 -1.7810719286295542e+04 -5.9364257577437942e+05 +1.0648751715809785e+08 
-6.9999999999999996e-01 -5.7769326862526604e-01 +7.5524324892601733e+00 +7.0159577040199226e+00 +4.2414688855311489e+01 -1.7659646232253137e+04 -5.9247698160305584e+05 +1.0550745462178607e+08 
-7.5000000000000000e-01 -5.7769912605199225e-01 +7.5527511905606666e+00 +7.0030442709159173e+00 +4.2208397813515610e+01 -1.7508912053423919e+04 -5.9127594840476930e+05 +1.0452542930265652e+08 
-8.0000000000000004e-01 -5.7770538237524938e-01 +7.5530919703671344e+00 +6.9897159265845552e+00 +4.1994821920690868e+01 -1.7358591358032369e+04 -5.9003974140284071e+05 +1.0354205941173521e+08 
-8.4999999999999998e-01 -5.7771203680329131e-01 +7.5534547403238284e+00 +6.9759759008805728e+00 +4.1774330724125043e+01 -1.7208758683652624e+04 -5.8876862498271815e+05 +1.0255796265518139e+08 
-9.0000000000000002e-01 -5.7771908854436815e-01 +7.5538394120750336e+00 +6.9618274252628725e+00 +4.1547293812441296e+01 -1.7059488614174232e+04 -5.8746286390147917e+05 +1.0157375706147519e+08 
-9.4999999999999996e-01 -5.7772653680672437e-01 +7.5542458972656350e+00 +6.9472737321737679e+00 +4.1314080780343573e+01 -1.6910855762285140e+04 -5.8612272295752331e+05 +1.0059006086193918e+08 
-1.0000000000000000e+00 -5.7773438079864647e-01 +7.5546741075400590e+00 +6.9323180532496735e+00 +4.1075061260996911e+01 -1.6762934716997614e+04 -5.8474846723192930e+05 +9.9607492120078176e+07 
-1.0500000000000000e+00 -5.7774261972845775e-01 +7.5551239545443831e+00 +6.9169636190837505e+00 +4.0830604852180755e+01 -1.6615800039585702e+04 -5.8334036152927065e+05 +9.8626668711512506e+07 
-1.1000000000000001e+00 -5.7775125280442219e-01 +7.5555953499256283e+00 +6.9012136611735277e+00 +4.0581081152653688e+01 -1.6469526315974297e+04 -5.8189867067522020e+05 +9.7648208679325864e+07 
-1.1499999999999999e+00 -5.7776027923496487e-01 +7.5560882053304024e+00 +6.8850714120019836e+00 +4.0326859787556010e+01 -1.6324188158199664e+04 -5.8042365966154460e+05 +9.6672730241149023e+07 
-1.2000000000000000e+00 -5.7776969822837232e-01 +7.5566024324068684e+00 +6.8685401014809164e+00 +4.0068310373751963e+01 -1.6179860110877553e+04 -5.7891559349417104e+05 +9.5700851162073761e+07 
-1.2500000000000000e+00 -5.7777950899301855e-01 +7.5571379428056957e+00 +6.8516229616188919e+00 +3.9805802430376716e+01 -1.6036616772438801e+04 -5.7737473627327615e+05 +9.4733189562269002e+07 
-1.3000000000000000e+00 -5.7778971073731078e-01 +7.5576946481708100e+00 +6.8343232228060664e+00 +3.9539705801561993e+01 -1.5894532698778465e+04 -5.7580135486850841e+05 +9.3770363276437014e+07 
-1.3500000000000001e+00 -5.7780030266965787e-01 +7.5582724601557878e+00 +6.8166441184487017e+00 +3.9270389943815630e+01 -1.5753682534500971e+04 -5.7419571286751190e+05 +9.2812990762818992e+07 
-1.3999999999999999e+00 -5.7781128399842641e-01 +7.5588712904099324e+00 +6.7985888798514766e+00 +3.8998224550708635e+01 -1.5614140855743670e+04 -5.7255807593014138e+05 +9.1861689974176764e+07 
-1.4500000000000000e+00 -5.7782265393209042e-01 +7.5594910505845574e+00 +6.7801607361797123e+00 +3.8723579230198119e+01 -1.5475982190734763e+04 -5.7088870891218237e+05 +9.0917078573035762e+07 
-1.5000000000000000e+00 -5.7783441167911409e-01 +7.5601316523288133e+00 +6.7613629215717097e+00 +3.8446823722445203e+01 -1.5339281201469012e+04 -5.6918787780243391e+05 +8.9979775122501150e+07 
-1.5500000000000000e+00 -5.7784655644793048e-01 +7.5607930072972129e+00 +6.7421986660970488e+00 +3.8168327579702797e+01 -1.5204112435153376e+04 -5.6745584706285771e+05 +8.9050397389296681e+07 
-1.6000000000000001e+00 -5.7785908744701620e-01 +7.5614750271411717e+00 +6.7226712004728615e+00 +3.7888460501759305e+01 -1.5070550462754503e+04 -5.6569288233834074e+05 +8.8129563323266387e+07 
-1.6499999999999999e+00 -5.7787200388490723e-01 +7.5621776235131746e+00 +6.7027837582020080e+00 +3.7607592181202691e+01 -1.4938669929592666e+04 -5.6389924926929583e+05 +8.7217891370252788e+07 
-1.7000000000000000e+00 -5.7788530497008828e-01 +7.5629007080681028e+00 +6.6825395704289550e+00 +3.7326092236947900e+01 -1.4808545417272398e+04 -5.6207521286576916e+05 +8.6315999543696657e+07 
-1.7500000000000000e+00 -5.7789898991110866e-01 +7.5636441924609938e+00 +6.6619418675604116e+00 +3.7044330314094076e+01 -1.4680251489332863e+04 -5.6022103838501964e+05 +8.5424505739304304e+07 
-1.8000000000000000e+00 -5.7791305791649195e-01 +7.5644079883449571e+00 +6.6409938821814638e+00 +3.6762676167800393e+01 -1.4553862767655508e+04 -5.5833699200317136e+05 +8.4544028243812382e+07 
-1.8500000000000001e+00 -5.7792750819478911e-01 +7.5651920073750079e+00 +6.6196988444852058e+00 +3.6481499493696212e+01 -1.4429453811871326e+04 -5.5642333938088443e+05 +8.3675184926771060e+07 
-1.8999999999999999e+00 -5.7794233995461342e-01 +7.5659961612075843e+00 +6.5980599879040840e+00 +3.6201169969076005e+01 -1.4307099269806204e+04 -5.5448034609292960e+05 +8.2818594257925957e+07 
-1.9500000000000000e+00 -5.7795755240451729e-01 +7.5668203614992544e+00 +6.5760805422257143e+00 +3.5922057284451313e+01 -1.4186873690373899e+04 -5.5250827778636501e+05 +8.1974874030910864e+07 
-2.0000000000000000e+00 -5.7797314475313732e-01 +7.5676645199098784e+00 +6.5537637396723687e+00 +3.5644531040248985e+01 -1.4068851689939393e+04 -5.5050739944825612e+05 +8.1144642500701711e+07 
-2.0499999999999998e+00 -5.7798911597074165e-01 +7.5685285325830067e+00 +6.5311133037268219e+00 +3.5368952667899379e+01 -1.3953099994465720e+04 -5.4847823845077504e+05 +8.0328450083038718e+07 
-2.1000000000000001e+00 -5.7800546407096820e-01 +7.5694122353932176e+00 +6.5081348655728100e+00 +3.5095630707517316e+01 -1.3839652546778112e+04 -5.4642225921656354e+05 +7.9526575579917580e+07 
-2.1499999999999999e+00 -5.7802218682751461e-01 +7.5703154456793937e+00 +6.4848347369254089e+00 +3.4824851435570139e+01 -1.3728534758345118e+04 -5.4434114423919853e+05 +7.8739229887811378e+07 
-2.2000000000000002e+00 -5.7803928201415955e-01 +7.5712379807776156e+00 +6.4612192313315289e+00 +3.4556901274716083e+01 -1.3619772087047884e+04 -5.4223657732474280e+05 +7.7966624208961546e+07 
-2.2500000000000000e+00 -5.7805674740461266e-01 +7.5721796580319118e+00 +6.4372946632072914e+00 +3.4292066348597899e+01 -1.3513390019430231e+04 -5.4011023984060402e+05 +7.7208969956637815e+07 
-2.2999999999999998e+00 -5.7807458077261431e-01 +7.5731402947779269e+00 +6.4130673449865494e+00 +3.4030633123420628e+01 -1.3409413982695674e+04 -5.3796381590237049e+05 +7.6466478117656901e+07 
-2.3500000000000001e+00 -5.7809277989189234e-01 +7.5741197083591247e+00 +6.3885435899485437e+00 +3.3772887772335750e+01 -1.3307869432554262e+04 -5.3579898727713421e+05 +7.5739359895943016e+07 
-2.3999999999999999e+00 -5.7811134253623941e-01 +7.5751177161135921e+00 +6.3637297111748028e+00 +3.3519116705827699e+01 -1.3208781819972684e+04 -5.3361743769327935e+05 +7.5027826461456940e+07 
-2.4500000000000002e+00 -5.7813026647940413e-01 +7.5761341353821718e+00 +6.3386320219559318e+00 +3.3269606232400562e+01 -1.3112176602082682e+04 -5.3142085002729157e+05 +7.4332089026413053e+07 
-2.5000000000000000e+00 -5.7814954949524078e-01 +7.5771687835076387e+00 +6.3132568372720215e+00 +3.3024642597844064e+01 -1.3018079278909730e+04 -5.2921090667871374e+05 +7.3652359081800550e+07 
-2.5499999999999998e+00 -5.7816918935744033e-01 +7.5782214778309447e+00 +6.2876104662567611e+00 +3.2784512142927234e+01 -1.2926515198728172e+04 -5.2698929081256548e+05 +7.2988847115082130e+07 
-2.6000000000000001e+00 -5.7818918383992057e-01 +7.5792920356908491e+00 +6.2616992266665328e+00 +3.2549501295281537e+01 -1.2837509940345841e+04 -5.2475768630811246e+05 +7.2341765162789449e+07 
-2.6499999999999999e+00 -5.7820953071645853e-01 +7.5803802744303539e+00 +6.2355294295122077e+00 +3.2319896337008771e+01 -1.2751088901288613e+04 -5.2251777588401997e+05 +7.1711324034212023e+07 
-2.7000000000000002e+00 -5.7823022776088018e-01 +7.5814860113911555e+00 +6.2091073877319207e+00 +3.2095983610821925e+01 -1.2667277534464032e+04 -5.2027124275329750e+05 +7.1097734929502502e+07 
-2.7500000000000000e+00 -5.7825127274702759e-01 +7.5826090639156138e+00 +6.1824394156079920e+00 +3.1878049453254874e+01 -1.2586101329548243e+04 -5.1801977012819517e+05 +7.0501209294205949e+07 
-2.7999999999999998e+00 -5.7827266344870820e-01 +7.5837492493438035e+00 +6.1555318242373058e+00 +3.1666380290863472e+01 -1.2507585689051821e+04 -5.1576504190661345e+05 +6.9921957980314657e+07 
-2.8500000000000001e+00 -5.7829439763980572e-01 +7.5849063850201413e+00 +6.1283909270037995e+00 +3.1461262387492926e+01 -1.2431756078809412e+04 -5.1350874068904493e+05 +6.9360192273042753e+07 
-2.8999999999999999e+00 -5.7831647309419276e-01 +7.5860802882851459e+00 +6.1010230389569955e+00 +3.1262982183655989e+01 -1.2358638013007021e+04 -5.1125255056528025e+05 +6.8816123794041485e+07 
-2.9500000000000002e+00 -5.7833888758574448e-01 +7.5872707764806018e+00 +6.0734344738265902e+00 +3.1071826070420613e+01 -1.2288256969233318e+04 -5.0899815519893356e+05 +6.8289963913595945e+07 
-3.0000000000000000e+00 -5.7836163888831948e-01 +7.5884776669509417e+00 +6.0456315407112573e+00 +3.0888080343843402e+01 -1.2220638299905548e+04 -5.0674723750138754e+05 +6.7781923156975329e+07 
-3.0499999999999998e+00 -5.7838472477578862e-01 +7.5897007770367475e+00 +6.0176205550748580e+00 +3.0712031459591753e+01 -1.2155807533841980e+04 -5.0450148168518959e+05 +6.7292213252379000e+07 
-3.1000000000000001e+00 -5.7840814302207444e-01 +7.5909399240816402e+00 +5.9894078300557192e+00 +3.0543965763112503e+01 -1.2093790137403414e+04 -5.0226257111024676e+05 +6.6821045508937277e+07 
-3.1499999999999999e+00 -5.7843189140107343e-01 +7.5921949254272043e+00 +5.9609996772869511e+00 +3.0384169687772083e+01 -1.2034611534368427e+04 -5.0003218983952381e+05 +6.6368630941892371e+07 
-3.2000000000000002e+00 -5.7845596768669594e-01 +7.5934655984152428e+00 +5.9324024104458717e+00 +3.0232929662827921e+01 -1.1978297207108510e+04 -4.9781202193106199e+05 +6.5935180966815330e+07 
-3.2500000000000000e+00 -5.7848036965283123e-01 +7.5947517603909089e+00 +5.9036223426902739e+00 +3.0090531989247481e+01 -1.1924872627199920e+04 -4.9560375039510761e+05 +6.5520906943225183e+07 
-3.2999999999999998e+00 -5.7850509507342440e-01 +7.5960532286939477e+00 +5.8746657860602793e+00 +2.9957263191163182e+01 -1.1874363234950561e+04 -4.9340906009822508e+05 +6.5126020014208846e+07 
-3.3500000000000001e+00 -5.7853014172243122e-01 +7.5973698206690701e+00 +5.8455390532141269e+00 +2.9833409597717242e+01 -1.1826794485186727e+04 -4.9122963432682696e+05 +6.4750731407269172e+07 
-3.3999999999999999e+00 -5.7855550737373962e-01 +7.5987013536562591e+00 +5.8162484587497216e+00 +2.9719257729009509e+01 -1.1782191892491626e+04 -4.8906715791109885e+05 +6.4395252783813842e+07 
-3.4500000000000002e+00 -5.7858118980127604e-01 +7.6000476450000960e+00 +5.7868003133110175e+00 +2.9615093934241674e+01 -1.1740580865198677e+04 -4.8692331436155736e+05 +6.4059795086901098e+07 
-3.5000000000000000e+00 -5.7860718677902090e-01 +7.6014085120413224e+00 +5.7572009305586684e+00 +2.9521204704149056e+01 -1.1701986889236801e+04 -4.8479978829804325e+05 +6.3744569768444054e+07 
-3.5499999999999998e+00 -5.7863349608091519e-01 +7.6027837721229350e+00 +5.7274566218005116e+00 +2.9437876447551442e+01 -1.1666435393105658e+04 -4.8269826371011400e+05 +6.3449787912390418e+07 
-3.6000000000000001e+00 -5.7866011548092389e-01 +7.6041732425863957e+00 +5.6975737013810104e+00 +2.9365395646867942e+01 -1.1633951888155400e+04 -4.8062042524832708e+05 +6.3175661167844199e+07 
-3.6499999999999999e+00 -5.7868704275299754e-01 +7.6055767407720838e+00 +5.6675584801094034e+00 +2.9304048808924932e+01 -1.1604561789087207e+04 -4.7856795769375795e+05 +6.2922400521474749e+07 
-3.6999999999999900e+00 -5.7871427567108225e-01 +7.6069940840260566e+00 +5.6374172724967213e+00 +2.9254122235228561e+01 -1.1578290616579763e+04 -4.7654254425903311e+05 +6.2690217700799376e+07 
-3.7499999999999898e+00 -5.7874181200920383e-01 +7.6084250896858574e+00 +5.6071563909924258e+00 +2.9215902549630528e+01 -1.1555163830561065e+04 -4.7454587074541888e+05 +6.2479324000146449e+07 
-3.7999999999999901e+00 -5.7876964954126531e-01 +7.6098695750947103e+00 +5.5767821459107356e+00 +2.9189676159718484e+01 -1.1535206840754712e+04 -4.7257962122567662e+05 +6.2289930401608363e+07 
-3.8499999999999899e+00 -5.7879778604130849e-01 +7.6113273575928275e+00 +5.5463008513071363e+00 +2.9175729583147984e+01 -1.1518445156534799e+04 -4.7064548068812041e+05 +6.2122248556787044e+07 
-3.8999999999999901e+00 -5.7882621928322664e-01 +7.6127982545242388e+00 +5.5157188189373789e+00 +2.9174349195080239e+01 -1.1504904225183273e+04 -4.6874513298319426e+05 +6.1976489692556918e+07 
-3.9499999999999900e+00 -5.7885494704107776e-01 +7.6142820832248077e+00 +5.4850423598360534e+00 +2.9185821680774168e+01 -1.1494609480770925e+04 -4.6688026450293354e+05 +6.1852864973641552e+07 
-3.9999999999999898e+00 -5.7888396708881151e-01 +7.6157786610410572e+00 +5.4542777895864027e+00 +2.9210433314298754e+01 -1.1487586475220483e+04 -4.6505255830422812e+05 +6.1751586339165382e+07 
-4.0499999999999901e+00 -5.7891327706837858e-01 +7.6172878061800162e+00 +5.4234308235899800e+00 +2.9248416849437774e+01 -1.1483849169769284e+04 -4.6326374180820212e+05 +6.1672782533652589e+07 
-4.0999999999999899e+00 -5.7894287409306777e-01 +7.6188093337429361e+00 +5.3925047474848657e+00 +2.9299785584197316e+01 -1.1483361386468518e+04 -4.6151559480173921e+05 +6.1616244296645246e+07 
-4.1499999999999897e+00 -5.7897275514398905e-01 +7.6203430563998991e+00 +5.3615022370826235e+00 +2.9364497157241097e+01 -1.1486073022191411e+04 -4.5980989407997392e+05 +6.1581673373756200e+07 
-4.1999999999999904e+00 -5.7900291720221475e-01 +7.6218887868225877e+00 +5.3304259704245132e+00 +2.9442509126332912e+01 -1.1491934027187061e+04 -4.5814841581395862e+05 +6.1568771856096856e+07 
-4.2499999999999902e+00 -5.7903335724890104e-01 +7.6234463376821902e+00 +5.2992786259282809e+00 +2.9533779064316892e+01 -1.1500894364503945e+04 -4.5653293632813083e+05 +6.1577241932738677e+07 
-4.2999999999999901e+00 -5.7906407226509315e-01 +7.6250155216464481e+00 +5.2680628816708905e+00 +2.9638264689422119e+01 -1.1512903988807931e+04 -4.5496523316712870e+05 +6.1606785743269928e+07 
-4.3499999999999899e+00 -5.7909505923191762e-01 +7.6265961513888607e+00 +5.2367814149945433e+00 +2.9755923476395388e+01 -1.1527912831475529e+04 -4.5344708190111938e+05 +6.1657105258606732e+07 
-4.3999999999999897e+00 -5.7912631513046609e-01 +7.6281880395775712e+00 +5.2054369019693674e+00 +2.9886713112114929e+01 -1.1545870793170408e+04 -4.5198025983378856e+05 +6.1727902261023544e+07 
-4.4499999999999904e+00 -5.7915783694181755e-01 +7.6297909988835375e+00 +5.1740320212774202e+00 +3.0030591158207933e+01 -1.1566727841481230e+04 -4.5056654324209830e+05 +6.1818878971696496e+07 
-4.4999999999999902e+00 -5.7918962164710441e-01 +7.6314048419759768e+00 +5.1425694512264357e+00 +3.0187515252889867e+01 -1.1590433937107771e+04 -4.4920770910577779e+05 +6.1929737583371781e+07 
-4.5499999999999901e+00 -5.7922166622741278e-01 +7.6330293815272183e+00 +5.1110518666554396e+00 +3.0357442881017114e+01 -1.1616938943895902e+04 -4.4790553307435266e+05 +6.2060179624492288e+07 
-4.5999999999999899e+00 -5.7925396766388226e-01 +7.6346644302037001e+00 +5.0794819469882952e+00 +3.0540331772706605e+01 -1.1646192847973902e+04 -4.4666179288767988e+05 +6.2209907446474008e+07 
-4.6499999999999897e+00 -5.7928652293752358e-01 +7.6363098006769032e+00 +5.0478623688249655e+00 +3.0736139455979469e+01 -1.1678145564916616e+04 -4.4547826466208766e+05 +6.2378622953501925e+07 
-4.6999999999999904e+00 -5.7931932902951755e-01 +7.6379653056156007e+00 +5.0161958093888135e+00 +3.0944823528728755e+01 -1.1712747019810478e+04 -4.4435672501269937e+05 +6.2566028083711199e+07 
-4.7499999999999902e+00 -5.7935238292090729e-01 +7.6396307576886464e+00 +4.9844849460928460e+00 +3.1166341609775632e+01 -1.1749947147132239e+04 -4.4329895084536949e+05 +6.2771824864865229e+07 
-4.7999999999999901e+00 -5.7938568159283477e-01 +7.6413059695644154e+00 +4.9527324549330221e+00 +3.1400651301932019e+01 -1.1789695841230909e+04 -4.4230671887077368e+05 +6.2995715045304954e+07 
-4.8499999999999899e+00 -5.7941922202631602e-01 +7.6429907539123763e+00 +4.9209410140791876e+00 +3.1647710170499916e+01 -1.1831943056981530e+04 -4.4138180554959760e+05 +6.3237400797933325e+07 
-4.8999999999999897e+00 -5.7945300120252496e-01 +7.6446849233988283e+00 +4.8891133002954374e+00 +3.1907475888834654e+01 -1.1876638704935762e+04 -4.4052598823906039e+05 +6.3496583972913630e+07 
-4.9499999999999904e+00 -5.7948701610251807e-01 +7.6463882906954099e+00 +4.8572519898609716e+00 +3.2179905897019765e+01 -1.1923732686311803e+04 -4.3974104235988279e+05 +6.3772966378072329e+07 
-4.9999999999999902e+00 -5.7952126370734991e-01 +7.6481006684661654e+00 +4.8253597591124056e+00 +3.2464957954090835e+01 -1.1973174903790041e+04 -4.3902874604603654e+05 +6.4066249834460735e+07 
-5.0499999999999901e+00 -5.7955574100057916e-01 +7.6498218605287782e+00 +4.7934397267906421e+00 +3.2762580738971252e+01 -1.2024915182176437e+04 -4.3839087529821013e+05 +6.4376136313959934e+07 
