# multipoles
# s[mm] polynom_b[n=0][T/m^n] polynom_b[n=1][T/m^n] polynom_b[n=2][T/m^n] polynom_b[n=3][T/m^n] polynom_b[n=4][T/m^n] polynom_b[n=5][T/m^n] polynom_b[n=6][T/m^n] 
+0.0000000000000000e+00 -5.5096460287253368e-01 +7.2262403090595582e+00 +5.6097375332883201e+00 -3.9973341898589446e+01 -1.6840679606449851e+03 -5.1066289419036475e+03 +1.5369057624627579e+07 
-5.0000000000000003e-02 -5.5096468294468981e-01 +7.2262405199075248e+00 +5.6086700203719468e+00 -3.9958081783601138e+01 -1.6514370220455482e+03 -5.0177437899279093e+03 +1.5149400089653501e+07 
-1.0000000000000001e-01 -5.5096514142327258e-01 +7.2262618784963122e+00 +5.6068239885169104e+00 -3.9950546052017728e+01 -1.6115560010080399e+03 -4.8828632058265675e+03 +1.4887824493515676e+07 
-1.5000000000000002e-01 -5.5096597755738830e-01 +7.2263043072500919e+00 +5.6042088067770939e+00 -3.9949948743522270e+01 -1.5646065943141014e+03 -4.7076888791636902e+03 +1.4585397299117524e+07 
-2.0000000000000001e-01 -5.5096719059615962e-01 +7.2263677285895467e+00 +5.6008338429686058e+00 -3.9955503705123917e+01 -1.5107704583280465e+03 -4.4979241848008860e+03 +1.4243184673750460e+07 
-2.5000000000000000e-01 -5.5096877978871561e-01 +7.2264520649396449e+00 +5.5967084633155135e+00 -3.9966424943305682e+01 -1.4502292072861301e+03 -4.2592711401475526e+03 +1.3862252499513393e+07 
-2.9999999999999999e-01 -5.5097074438424010e-01 +7.2265572387239807e+00 +5.5918420408240532e+00 -3.9981926370723137e+01 -1.3831646440214347e+03 -3.9974325781817734e+03 +1.3443667957313849e+07 
-3.4999999999999998e-01 -5.5097308363189090e-01 +7.2266831723695599e+00 +5.5862439402013351e+00 -4.0001222021161801e+01 -1.3097583387290856e+03 -3.7181103051145760e+03 +1.2988496621176811e+07 
-3.9999999999999997e-01 -5.5097579678087583e-01 +7.2268297883022852e+00 +5.5799235320911960e+00 -4.0023525852701347e+01 -1.2301920244373284e+03 -3.4270067690946180e+03 +1.2497805175509458e+07 
-4.4999999999999996e-01 -5.5097888308039700e-01 +7.2269970089500619e+00 +5.5728901835868188e+00 -4.0048051873961782e+01 -1.1446473440691591e+03 -3.1298240190078122e+03 +1.1972659719246155e+07 
-4.9999999999999994e-01 -5.5098234177969108e-01 +7.2271847567413721e+00 +5.5651532637965113e+00 -4.0074014092561754e+01 -1.0533059843195495e+03 -2.8322641157341054e+03 +1.1414126607234817e+07 
-5.4999999999999993e-01 -5.5098617212800816e-01 +7.2273929541061177e+00 +5.5567221418149266e+00 -4.0100626544403688e+01 -9.5634963860373784e+02 -2.5400288886831563e+03 +1.0823272265839983e+07 
-5.9999999999999998e-01 -5.5099037337460621e-01 +7.2276215234744408e+00 +5.5476061848405296e+00 -4.0127103254265258e+01 -8.5395994601031987e+02 -2.2588202528207771e+03 +1.0201162743516862e+07 
-6.5000000000000002e-01 -5.5099494476877475e-01 +7.2278703872785171e+00 +5.5378147627074714e+00 -4.0152658294481107e+01 -7.4631861822233782e+02 -1.9943397681047168e+03 +9.5488645847368501e+06 
-7.0000000000000007e-01 -5.5099988555980517e-01 +7.2281394679500997e+00 +5.5273572424825899e+00 -4.0176505702953726e+01 -6.3360729211289583e+02 -1.7522892391342946e+03 +8.8674438307392597e+06 
-7.5000000000000011e-01 -5.5100519499701706e-01 +7.2284286879227482e+00 +5.5162429931576691e+00 -4.0197859553061093e+01 -5.1600765402221123e+02 -1.5383702312586920e+03 +8.1579668440694967e+06 
-8.0000000000000016e-01 -5.5101087232973955e-01 +7.2287379696284031e+00 +5.5044813825367163e+00 -4.0215933830297914e+01 -3.9370136161645996e+02 -1.3582850277841367e+03 +7.4214998122768709e+06 
-8.5000000000000020e-01 -5.5101691680732612e-01 +7.2290672355056422e+00 +5.4920817797496655e+00 -4.0229942773573008e+01 -2.6687010704681234e+02 -1.2177337853497781e+03 +6.6591091468761358e+06 
-9.0000000000000024e-01 -5.5102332767913054e-01 +7.2294164079869025e+00 +5.4790535508585645e+00 -4.0239100334063338e+01 -1.3569549860734563e+02 -1.1224190790879911e+03 +5.8718606928861486e+06 
-9.5000000000000029e-01 -5.5103010419455134e-01 +7.2297854095102005e+00 +5.4654060670074385e+00 -4.0242620659954035e+01 -3.5928335002480105e-01 -1.0780418866202979e+03 +5.0608212381649371e+06 
-1.0000000000000002e+00 -5.5103724560297040e-01 +7.2301741625114930e+00 +5.4511486936209792e+00 -4.0239717798344152e+01 +1.3895694454245202e+02 -1.0903039816046180e+03 +4.2270565445710169e+06 
-1.0500000000000003e+00 -5.5104475115381646e-01 +7.2305825894282059e+00 +5.4362908009977220e+00 -4.0229605831703239e+01 +2.8207146375633965e+02 -1.1649068554083970e+03 +3.3716332173532327e+06 
-1.1000000000000003e+00 -5.5105262009650213e-01 +7.2310106127004881e+00 +5.4208417541869540e+00 -4.0211498918328274e+01 +4.2880268995309012e+02 -1.3075514071202801e+03 +2.4956169551749858e+06 
-1.1500000000000004e+00 -5.5106085168048247e-01 +7.2314581547663863e+00 +5.4048109227752832e+00 -4.0184611116442476e+01 +5.7896891672031427e+02 -1.5239393248473348e+03 +1.6000742802411835e+06 
-1.2000000000000004e+00 -5.5106944515521572e-01 +7.2319251380677025e+00 +5.3882076735468436e+00 -4.0148156601537181e+01 +7.3238851683098994e+02 -1.8197713766710460e+03 +6.8607116897078860e+05 
-1.2500000000000004e+00 -5.5107839977018447e-01 +7.2324114850423387e+00 +5.3710413753313100e+00 -4.0101349368263492e+01 +8.8887980147625296e+02 -2.2007497984004722e+03 -2.4532596125175411e+05 
-1.3000000000000005e+00 -5.5108771477487339e-01 +7.2329171181330656e+00 +5.3533213942897167e+00 -4.0043403582034067e+01 +1.0482611586015953e+03 -2.6725754498859005e+03 -1.1930512311476707e+06 
-1.3500000000000005e+00 -5.5109738941879716e-01 +7.2334419597805208e+00 +5.3350570988873320e+00 -3.9973533303128491e+01 +1.2103509107023481e+03 -3.2409500176014994e+03 -2.1560383012145716e+06 
-1.4000000000000006e+00 -5.5110742295147541e-01 +7.2339859324288529e+00 +5.3162578561284306e+00 -3.9890952700024791e+01 +1.3749674174317790e+03 -3.9115743510851662e+03 -3.1332210755236936e+06 
-1.4500000000000006e+00 -5.5111781462244436e-01 +7.2345489585187250e+00 +5.2969330324925226e+00 -3.9794875778534703e+01 +1.5419290582865760e+03 -4.6901506154925446e+03 -4.1235336130857305e+06 
-1.5000000000000007e+00 -5.5112856368126562e-01 +7.2351309604958267e+00 +5.2770919967211203e+00 -3.9684516728285161e+01 +1.7110541441416153e+03 -5.5823794606888396e+03 -5.1259094764697747e+06 
-1.5500000000000007e+00 -5.5113966937750047e-01 +7.2357318608013772e+00 +5.2567441142430198e+00 -3.9559089523839866e+01 +1.8821610803118656e+03 -6.5939633349964843e+03 -6.1392828854779396e+06 
-1.6000000000000008e+00 -5.5115113096073864e-01 +7.2363515818831878e+00 +5.2358987532478221e+00 -3.9417808392197017e+01 +2.0550681924571913e+03 -7.7306025811735108e+03 -7.1625875006670654e+06 
-1.6500000000000008e+00 -5.5116294768056573e-01 +7.2369900461830614e+00 +5.2145652782569583e+00 -3.9259887277695213e+01 +2.2295939080368207e+03 -8.9979999278248197e+03 -8.1947576812292552e+06 
-1.7000000000000008e+00 -5.5117511878660552e-01 +7.2376471761479833e+00 +5.1927530576872636e+00 -3.9084540320528689e+01 +2.4055565471370974e+03 -1.0401856455958592e+04 -9.2347270469763465e+06 
-1.7500000000000009e+00 -5.5118764352848870e-01 +7.2383228942265427e+00 +5.1704714586900833e+00 -3.8890981708312630e+01 +2.5827744625014379e+03 -1.1947872835280676e+04 -1.0281429433622476e+07 
-1.8000000000000009e+00 -5.5120052115584706e-01 +7.2390171228583648e+00 +5.1477298458884349e+00 -3.8678425224785272e+01 +2.7610660746771878e+03 -1.3641753112523995e+04 -1.1333799131003644e+07 
-1.8500000000000010e+00 -5.5121375091834424e-01 +7.2397297844960899e+00 +5.1245375867955554e+00 -3.8446085173752529e+01 +2.9402497254553191e+03 -1.5489197017904336e+04 -1.2390769891695160e+07 
-1.9000000000000010e+00 -5.5122733206565111e-01 +7.2404608015846321e+00 +5.1009040473586200e+00 -3.8193175503627216e+01 +3.1201438010747938e+03 -1.7495907261035787e+04 -1.3451275776122861e+07 
-1.9500000000000011e+00 -5.5124126384744199e-01 +7.2412100965713009e+00 +5.0768385920028871e+00 -3.7918910249575774e+01 +3.3005667212858316e+03 -1.9667585792588630e+04 -1.4514251039065717e+07 
-2.0000000000000009e+00 -5.5125554551342382e-01 +7.2419775919018798e+00 +5.0523505878381867e+00 -3.7622503355906169e+01 +3.4813368383310308e+03 -2.2009935328755175e+04 -1.5578629496923605e+07 
-2.0500000000000007e+00 -5.5127017610330631e-01 +7.2427631994651902e+00 +5.0274499349390895e+00 -3.7303409133836041e+01 +3.6622730858842538e+03 -2.4526659677609328e+04 -1.6643349385383638e+07 
-2.1000000000000005e+00 -5.5128515381718646e-01 +7.2435667833472870e+00 +5.0021490466060099e+00 -3.6962059550603904e+01 +3.8432008139675072e+03 -2.7213464849705328e+04 -1.7707403365640376e+07 
-2.1500000000000004e+00 -5.5130047664532489e-01 +7.2443881943000816e+00 +4.9764610604280186e+00 -3.6599136295812968e+01 +4.0239482569946936e+03 -3.0064052536358966e+04 -1.8769808441337354e+07 
-2.2000000000000002e+00 -5.5131614257801331e-01 +7.2452272830858400e+00 +4.9503991173172848e+00 -3.6215321476160192e+01 +4.2043435620596347e+03 -3.3072120979574793e+04 -1.9829581031115454e+07 
-2.2500000000000000e+00 -5.5133214960554566e-01 +7.2460839004600865e+00 +4.9239763569196535e+00 -3.5811296910471576e+01 +4.3842149034482391e+03 -3.6231370782737169e+04 -2.0885737712298524e+07 
-2.2999999999999998e+00 -5.5134849571822275e-01 +7.2469578971796986e+00 +4.8972059173059952e+00 -3.5387744443941088e+01 +4.5633905066088337e+03 -3.9535502377338293e+04 -2.1937295441045813e+07 
-2.3499999999999996e+00 -5.5136517890637238e-01 +7.2478491240018856e+00 +4.8701009401503477e+00 -3.4945345936782502e+01 +4.7416984920187087e+03 -4.2978216016654231e+04 -2.2983270438172400e+07 
-2.3999999999999995e+00 -5.5138219716031278e-01 +7.2487574316849592e+00 +4.8426745631191057e+00 -3.4484783273494763e+01 +4.9189670901462305e+03 -4.6553211772943279e+04 -2.4022679672314785e+07 
-2.4499999999999993e+00 -5.5139954847039463e-01 +7.2496826709841207e+00 +4.8149399274974076e+00 -3.4006738205185044e+01 +5.0950244357453757e+03 -5.0254190786483523e+04 -2.5054539476559930e+07 
-2.4999999999999991e+00 -5.5141723082696892e-01 +7.2506246926583291e+00 +4.7869101729866665e+00 -3.3511892620358239e+01 +5.2696987046429103e+03 -5.4074853082397400e+04 -2.6077866455739409e+07 
-2.5499999999999989e+00 -5.5143524222039453e-01 +7.2515833474636127e+00 +4.7585984389089422e+00 -3.3000928274193946e+01 +5.4428180802102952e+03 -5.8008899781142492e+04 -2.7091677255852453e+07 
-2.5999999999999988e+00 -5.5145358064104133e-01 +7.2525584861586863e+00 +4.7300178645778006e+00 -3.2474527034852549e+01 +5.6142107496232966e+03 -6.2050031014397297e+04 -2.8094988565068442e+07 
-2.6499999999999986e+00 -5.5147224407930073e-01 +7.2535499594984447e+00 +4.7011815915576021e+00 -3.1933370587810309e+01 +5.7837048356511159e+03 -6.6191948470950359e+04 -2.9086816623717520e+07 
-2.6999999999999984e+00 -5.5149123052556048e-01 +7.2545576182380227e+00 +4.6721027586999098e+00 -3.1378140630542347e+01 +5.9511285375973621e+03 -7.0428353689895346e+04 -3.0066178203115474e+07 
-2.7499999999999982e+00 -5.5151053797022132e-01 +7.2555813131376992e+00 +4.6427945061909446e+00 -3.0809519052496693e+01 +6.1163100135711966e+03 -7.4752946660354602e+04 -3.1032089779661939e+07 
-2.7999999999999980e+00 -5.5153016440369085e-01 +7.2566208949501636e+00 +4.6132699726954485e+00 -3.0228187431930653e+01 +6.2790774690820363e+03 -7.9159429886951373e+04 -3.1983568173336737e+07 
-2.8499999999999979e+00 -5.5155010781641522e-01 +7.2576762144332028e+00 +4.5835423032462357e+00 -2.9634827549096428e+01 +6.4392589300791478e+03 -8.3641504209394494e+04 -3.2919628966041896e+07 
-2.8999999999999977e+00 -5.5157036619880406e-01 +7.2587471223401465e+00 +4.5536246340188491e+00 -2.9030120987303000e+01 +6.5966826678529060e+03 -8.8192872091387195e+04 -3.3839289423000611e+07 
-2.9499999999999975e+00 -5.5159093754129884e-01 +7.2598334694293962e+00 +4.5235301059951984e+00 -2.8414749541873267e+01 +6.7511768181257739e+03 -9.2807234215110569e+04 -3.4741565872473046e+07 
-2.9999999999999973e+00 -5.5161181983435370e-01 +7.2609351064533660e+00 +4.4932718604982531e+00 -2.7789394745585788e+01 +6.9025695109740400e+03 -9.7478293447670600e+04 -3.5625474621873125e+07 
-3.0499999999999972e+00 -5.5163301106842844e-01 +7.2620518841660564e+00 +4.4628630384857342e+00 -2.7154738196791410e+01 +7.0506888850842006e+03 -1.0219975208365989e+05 -3.6490032033793062e+07 
-3.0999999999999970e+00 -5.5165450923398729e-01 +7.2631836533228160e+00 +4.4323167802577714e+00 -2.6511461556319901e+01 +7.1953630985176060e+03 -1.0696531184387965e+05 -3.7334254610344753e+07 
-3.1499999999999968e+00 -5.5167631232150682e-01 +7.2643302646771337e+00 +4.4016462273798318e+00 -2.5860246377153850e+01 +7.3364202682958676e+03 -1.1176867543093358e+05 -3.8157158551653109e+07 
-3.1999999999999966e+00 -5.5169841832146438e-01 +7.2654915689813322e+00 +4.3708645196710352e+00 -2.5201774186771171e+01 +7.4736885669389858e+03 -1.1660354565020061e+05 -3.8957760470367566e+07 
-3.2499999999999964e+00 -5.5172082522435439e-01 +7.2666674169888852e+00 +4.3399847991795504e+00 -2.4536726544036568e+01 +7.6069960996063401e+03 -1.2146362508100946e+05 -3.9735076496049233e+07 
-3.2999999999999963e+00 -5.5174353102067364e-01 +7.2678576594518338e+00 +4.3090202066033187e+00 -2.3865784955166124e+01 +7.7361710145787047e+03 -1.2634261668205899e+05 -4.0488123079825453e+07 
-3.3499999999999961e+00 -5.5176653370093898e-01 +7.2690621471188068e+00 +4.2779838858201469e+00 -2.3189630776972606e+01 +7.8610413652290417e+03 -1.3123422467442116e+05 -4.1215916000177532e+07 
-3.3999999999999959e+00 -5.5178983125564596e-01 +7.2702807307447568e+00 +4.2468889749717436e+00 -2.2508945628749014e+01 +7.9814353683004820e+03 -1.3613215106775213e+05 -4.1917472174618438e+07 
-3.4499999999999957e+00 -5.5181342167532554e-01 +7.2715132610762652e+00 +4.2157486178759536e+00 -2.1824410785382987e+01 +8.0971810817781070e+03 -1.4103010070926449e+05 -4.2591807429939903e+07 
-3.4999999999999956e+00 -5.5183730295050870e-01 +7.2727595888654246e+00 +4.1845759570769250e+00 -2.1136707752945931e+01 +8.2081066001005020e+03 -1.4592177649805672e+05 -4.3237937850951575e+07 
-3.5499999999999954e+00 -5.5186147307171796e-01 +7.2740195648604056e+00 +4.1533841328466092e+00 -2.0446517869885518e+01 +8.3140400764325677e+03 -1.5080088272867285e+05 -4.3854879912131287e+07 
-3.5999999999999952e+00 -5.5188593002950148e-01 +7.2752930398083748e+00 +4.1221862885925686e+00 -1.9754522433225553e+01 +8.4148095828697606e+03 -1.5566112403086462e+05 -4.4441649557564981e+07 
-3.6499999999999950e+00 -5.5191067181440545e-01 +7.2765798644581254e+00 +4.0909955671035734e+00 -1.9061402821609903e+01 +8.5102432033537316e+03 -1.6049620428241658e+05 -4.4997262798841134e+07 
-3.6999999999999948e+00 -5.5193569641698204e-01 +7.2778798895550274e+00 +4.0598251105132599e+00 -1.8367840263289438e+01 +8.6001690436958106e+03 -1.6529982864045011e+05 -4.5520735809419848e+07 
-3.7499999999999947e+00 -5.5196100182779495e-01 +7.2791929658461783e+00 +4.0286880626952737e+00 -1.7674516068191689e+01 +8.6844151605970656e+03 -1.7006570153329469e+05 -4.6011084432295315e+07 
-3.7999999999999945e+00 -5.5198658603739548e-01 +7.2805189440755589e+00 +3.9975975644429389e+00 -1.6982111423992521e+01 +8.7628096933764409e+03 -1.7478752837837164e+05 -4.6467325068412155e+07 
-3.8499999999999943e+00 -5.5201244703636410e-01 +7.2818576749880641e+00 +3.9665667607613959e+00 -1.6291307546711138e+01 +8.8351806685666943e+03 -1.7945901438647186e+05 -4.6888473364221424e+07 
-3.8999999999999941e+00 -5.5203858281527562e-01 +7.2832090093252146e+00 +3.9356087950632106e+00 -1.5602785530012989e+01 +8.9013561548432554e+03 -1.8407386571525779e+05 -4.7273545251465283e+07 
-3.9499999999999940e+00 -5.5206499136471088e-01 +7.2845727978302222e+00 +3.9047368110636018e+00 -1.4917226551251542e+01 +8.9611642116229468e+03 -1.8862578777376251e+05 -4.7621556598188721e+07 
-3.9999999999999938e+00 -5.5209167067525633e-01 +7.2859488912459556e+00 +3.8739639530972427e+00 -1.4235311758576113e+01 +9.0144328836128316e+03 -1.9310848624758975e+05 -4.7931523187722802e+07 
-4.0499999999999936e+00 -5.5211861860726719e-01 +7.2873371370544113e+00 +3.8432996525458334e+00 -1.3557713090711751e+01 +9.0610742120757623e+03 -1.9751597160347088e+05 -4.8202955902920939e+07 
-4.0999999999999934e+00 -5.5214583249942151e-01 +7.2887373652290561e+00 +3.8127385435551004e+00 -1.2885079756890891e+01 +9.1013401275603392e+03 -2.0184351275005288e+05 -4.8437359868805945e+07 
-4.1499999999999932e+00 -5.5217330955973032e-01 +7.2901494002416722e+00 +3.7822715774572648e+00 -1.2218059060370406e+01 +9.1355688779612556e+03 -2.0608671153540380e+05 -4.8636744261047408e+07 
-4.1999999999999931e+00 -5.5220104699622208e-01 +7.2915730665663885e+00 +3.7518897079553839e+00 -1.1557298409667915e+01 +9.1640986543652507e+03 -2.1024116903395386e+05 -4.8803117894699968e+07 
-4.2499999999999929e+00 -5.5222904201692591e-01 +7.2930081886759144e+00 +3.7215838881318462e+00 -1.0903445166817969e+01 +9.1872676682979454e+03 -2.1430248669294547e+05 -4.8938489738828823e+07 
-4.2999999999999927e+00 -5.5225729182986483e-01 +7.2944545910453860e+00 +3.6913450707646294e+00 -1.0257146800919449e+01 +9.2054141323872554e+03 -2.1826626508004591e+05 -4.9044868746294424e+07 
-4.3499999999999925e+00 -5.5228579364306996e-01 +7.2959120981506551e+00 +3.6611642091989238e+00 -9.6190508314893908e+00 +9.2188762509963690e+03 -2.2212810431316172e+05 -4.9124263843127497e+07 
-4.3999999999999924e+00 -5.5231454466457253e-01 +7.2973805344660096e+00 +3.6310322570957294e+00 -8.9898047164956534e+00 +9.2279922175771317e+03 -2.2588360504303474e+05 -4.9178683877158143e+07 
-4.4499999999999922e+00 -5.5234354210240066e-01 +7.2988597244684543e+00 +3.6009401671669261e+00 -8.3700560421349621e+00 +9.2331002556982639e+03 -2.2952836684694048e+05 -4.9210137919923432e+07 
-4.4999999999999920e+00 -5.5237278316459604e-01 +7.3003494926331003e+00 +3.5708788947612664e+00 -7.7604523239577174e+00 +9.2345385161466529e+03 -2.3305798990648446e+05 -4.9220634546673156e+07 
-4.5499999999999918e+00 -5.5240226505918488e-01 +7.3018496634398833e+00 +3.5408393921267476e+00 -7.1616413036037923e+00 +9.2326452375957797e+03 -2.3646807247869813e+05 -4.9212182947002515e+07 
-4.5999999999999917e+00 -5.5243198499421076e-01 +7.3033600613641587e+00 +3.5108126150241810e+00 -6.5742705329659152e+00 +9.2277585620866848e+03 -2.3975421443848035e+05 -4.9186791653334029e+07 
-4.6499999999999915e+00 -5.5246194017770089e-01 +7.3048805108844075e+00 +3.4807895164077376e+00 -5.9989877143767218e+00 +9.2202167113231480e+03 -2.4291201440127098e+05 -4.9146469756403245e+07 
-4.6999999999999913e+00 -5.5249212781769497e-01 +7.3064108364824483e+00 +3.4507610514586040e+00 -5.4364407086502906e+00 +9.2103578455283732e+03 -2.4593706964035559e+05 -4.9093225927536197e+07 
-4.7499999999999911e+00 -5.5252254512222321e-01 +7.3079508626363383e+00 +3.4207181738841403e+00 -4.8872772312399055e+00 +9.1985201692416576e+03 -2.4882497865915342e+05 -4.9029069159271151e+07 
-4.7999999999999909e+00 -5.5255318929932451e-01 +7.3095004138258908e+00 +3.3906518392914249e+00 -4.3521450854663470e+00 +9.1850418350131931e+03 -2.5157133923650184e+05 -4.8956008094166964e+07 
-4.8499999999999908e+00 -5.5258405755703743e-01 +7.3110593145321516e+00 +3.3605530034124969e+00 -3.8316921483132980e+00 +9.1702609940062575e+03 -2.5417174851673387e+05 -4.8876051374831855e+07 
-4.8999999999999906e+00 -5.5261514710337900e-01 +7.3126273892389948e+00 +3.3304126188105347e+00 -3.3265664320964947e+00 +9.1545158824937025e+03 -2.5662180252651460e+05 -4.8791208222187735e+07 
-4.9499999999999904e+00 -5.5264645514639943e-01 +7.3142044624270932e+00 +3.3002216435411449e+00 -2.8374158330012369e+00 +9.1381445978302727e+03 -2.5891709825683277e+05 -4.8703486957952224e+07 
-4.9999999999999902e+00 -5.5267797889411718e-01 +7.3157903585801227e+00 +3.2699710315082586e+00 -2.3648883886312584e+00 +9.1214853399507028e+03 -2.6105323154217450e+05 -4.8614896564219519e+07 
-5.0499999999999901e+00 -5.5270971555456128e-01 +7.3173849021830737e+00 +3.2396517382976295e+00 -1.9096322153012799e+00 +9.1048762724212538e+03 -2.6302579753994220e+05 -4.8527445815008566e+07 
