# multipoles
# s[mm] polynom_b[n=0][T/m^n] polynom_b[n=1][T/m^n] polynom_b[n=2][T/m^n] polynom_b[n=3][T/m^n] polynom_b[n=4][T/m^n] polynom_b[n=5][T/m^n] polynom_b[n=6][T/m^n] 
-0.0000000000000000e+00 -5.7691426694983228e-01 +7.5554180004708238e+00 +5.4167260694066028e+00 -3.2091930665181366e+01 +1.3029030085932560e+04 -1.3810777355052190e+05 -7.8954230821125552e+07 
-5.0000000000000003e-02 -5.7692324129539874e-01 +7.5558751575384964e+00 +5.4025153309309522e+00 -3.2489361502849192e+01 +1.3143000885169897e+04 -1.3581137568098842e+05 -7.9587351093156144e+07 
-1.0000000000000001e-01 -5.7693261139028595e-01 +7.5563534981655662e+00 +5.3876128352164141e+00 -3.2875224653939178e+01 +1.3263523739672082e+04 -1.3358243642180270e+05 -8.0264946188675344e+07 
-1.4999999999999999e-01 -5.7694237573879370e-01 +7.5568528923493092e+00 +5.3720371488703744e+00 -3.3249346815494818e+01 +1.3390198650059532e+04 -1.3142083005057971e+05 -8.0984470330026805e+07 
-2.0000000000000001e-01 -5.7695253284528347e-01 +7.5573732100856192e+00 +5.3558068433067776e+00 -3.3611554620699970e+01 +1.3522625492537278e+04 -1.2932643127426440e+05 -8.1743376923185125e+07 
-2.5000000000000000e-01 -5.7696308121408979e-01 +7.5579143213701361e+00 +5.3389404777612910e+00 -3.3961674647311675e+01 +1.3660404467319062e+04 -1.2729911530785949e+05 -8.2539121544244170e+07 
-2.9999999999999999e-01 -5.7697401934961512e-01 +7.5584760961966726e+00 +5.3214566249502520e+00 -3.4299533374041104e+01 +1.3803135413375003e+04 -1.2533875815414953e+05 -8.3369157340350062e+07 
-3.4999999999999998e-01 -5.7698534575617133e-01 +7.5590584045690292e+00 +5.3033738486879125e+00 -3.4624957662290356e+01 +1.3950418406582121e+04 -1.2344523262367251e+05 -8.4230939048905164e+07 
-4.0000000000000002e-01 -5.7699705893825326e-01 +7.5596611164847438e+00 +5.2847107173245380e+00 -3.4937774097716428e+01 +1.4101853403678597e+04 -1.2161841379079829e+05 -8.5121920612755805e+07 
-4.5000000000000001e-01 -5.7700915740018799e-01 +7.5602841019429441e+00 +5.2654857960278516e+00 -3.5237809297196527e+01 +1.4257040445434903e+04 -1.1985817643513854e+05 -8.6039556538970754e+07 
-5.0000000000000000e-01 -5.7702163964646147e-01 +7.5609272309430695e+00 +5.2457176512464629e+00 -3.5524889859530425e+01 +1.4415579532426440e+04 -1.1816439552814790e+05 -8.6981301040500849e+07 
-5.5000000000000004e-01 -5.7703450418149405e-01 +7.5615903734884480e+00 +5.2254248485986032e+00 -3.5798842516750760e+01 +1.4577070697518719e+04 -1.1653694490786793e+05 -8.7944608589922041e+07 
-5.9999999999999998e-01 -5.7704774950980675e-01 +7.5622733995797624e+00 +5.2046259550258416e+00 -3.6059493879577566e+01 +1.4741113928161656e+04 -1.1497569936377656e+05 -8.8926933315763563e+07 
-6.5000000000000002e-01 -5.7706137413581238e-01 +7.5629761792177002e+00 +5.1833395392133834e+00 -3.6306670514359794e+01 +1.4907309167874097e+04 -1.1348053407971472e+05 -8.9925729061076105e+07 
-6.9999999999999996e-01 -5.7707537656404206e-01 +7.5636985824089527e+00 +5.1615841637478477e+00 -3.6540199212670174e+01 +1.5075256526101248e+04 -1.1205132238239610e+05 -9.0938450799263999e+07 
-7.5000000000000000e-01 -5.7708975529898621e-01 +7.5644404791542081e+00 +5.1393783963316126e+00 -3.6759906501333489e+01 +1.5244555966603924e+04 -1.1068793972466850e+05 -9.1962552489961416e+07 
-8.0000000000000004e-01 -5.7710450884517384e-01 +7.5652017394576108e+00 +5.1167408032462331e+00 -3.6965619007298010e+01 +1.5414807499352853e+04 -1.0939026079106017e+05 -9.2995488436272502e+07 
-8.4999999999999998e-01 -5.7711963570717040e-01 +7.5659822333257605e+00 +5.0936899499791739e+00 -3.7157163454290121e+01 +1.5585611150891355e+04 -1.0815815939303597e+05 -9.4034713037499234e+07 
-9.0000000000000002e-01 -5.7713513438953701e-01 +7.5667818307602532e+00 +5.0702444034454608e+00 -3.7334366314650865e+01 +1.5756566906364396e+04 -1.0699151145550128e+05 -9.5077680399611697e+07 
-9.4999999999999996e-01 -5.7715100339681591e-01 +7.5676004017686909e+00 +5.0464227296999136e+00 -3.7497054291934546e+01 +1.5927274775660233e+04 -1.0589019096766975e+05 -9.6121844808945894e+07 
-1.0000000000000000e+00 -5.7716724123358831e-01 +7.5684378163568216e+00 +5.0222434937174727e+00 -3.7645053975673783e+01 +1.6097334798050195e+04 -1.0485407290296699e+05 -9.7164660748037592e+07 
-1.0500000000000000e+00 -5.7718384640448750e-01 +7.5692939445279057e+00 +4.9977252626027289e+00 -3.7778191844153405e+01 +1.6266346952115522e+04 -1.0388303308868998e+05 -9.8203582279408664e+07 
-1.1000000000000001e+00 -5.7720081741406981e-01 +7.5701686562918731e+00 +4.9728866017887388e+00 -3.7896294612050241e+01 +1.6433911262725724e+04 -1.0297694542767070e+05 -9.9236063786238179e+07 
-1.1499999999999999e+00 -5.7721815276703714e-01 +7.5710618216521590e+00 +4.9477460757938045e+00 -3.7999188713258285e+01 +1.6599627774999008e+04 -1.0213568613328809e+05 -1.0025955976980899e+08 
-1.2000000000000000e+00 -5.7723585096798857e-01 +7.5719733106161700e+00 +4.9223222525618233e+00 -3.8086700711927591e+01 +1.6763096445364539e+04 -1.0135913033224214e+05 -1.0127152415172267e+08 
-1.2500000000000000e+00 -5.7725391052157082e-01 +7.5729029931914127e+00 +4.8966336962959129e+00 -3.8158657151048700e+01 +1.6923917326963132e+04 -1.0064715334677081e+05 -1.0226941148843803e+08 
-1.3000000000000000e+00 -5.7727232993248390e-01 +7.5738507393823520e+00 +4.8706989737423463e+00 -3.8214884421160015e+01 +1.7081690403278324e+04 -9.9999631778416107e+04 -1.0325067586742660e+08 
-1.3500000000000001e+00 -5.7729110770541237e-01 +7.5748164191985454e+00 +4.8445366508522696e+00 -3.8255209099590175e+01 +1.7236015680191769e+04 -9.9416440665865579e+04 -1.0421277153002097e+08 
-1.3999999999999999e+00 -5.7731024234499173e-01 +7.5757999026473382e+00 +4.8181652928069507e+00 -3.8279457653527977e+01 +1.7386493179963505e+04 -9.8897455933556397e+04 -1.0515315281392445e+08 
-1.4500000000000000e+00 -5.7732973235598684e-01 +7.5768010597320572e+00 +4.7916034654871211e+00 -3.8287456356355982e+01 +1.7532722908686974e+04 -9.8442555149414111e+04 -1.0606927395943066e+08 
-1.5000000000000000e+00 -5.7734957624311278e-01 +7.5778197604634636e+00 +4.7648697337999959e+00 -3.8279031760201171e+01 +1.7674304891614502e+04 -9.8051613579900630e+04 -1.0695858930977757e+08 
-1.5500000000000000e+00 -5.7736977251108101e-01 +7.5788558748457309e+00 +4.7379826642245613e+00 -3.8254010130305055e+01 +1.7810839117161129e+04 -9.7724508834239852e+04 -1.0781855298519748e+08 
-1.6000000000000001e+00 -5.7739031966463938e-01 +7.5799092728874315e+00 +4.7109608230723836e+00 -3.8212217872468855e+01 +1.7941925571963577e+04 -9.7461117435919819e+04 -1.0864661906969969e+08 
-1.6499999999999999e+00 -5.7741121620856417e-01 +7.5809798245939515e+00 +4.6838227739545433e+00 -3.8153481258018985e+01 +1.8067164317718263e+04 -9.7261316954496913e+04 -1.0944024216398402e+08 
-1.7000000000000000e+00 -5.7743246064760889e-01 +7.5820673999725905e+00 +4.6565870847823154e+00 -3.8077626596798837e+01 +1.8186155295205728e+04 -9.7124984700029861e+04 -1.1019687603650221e+08 
-1.7500000000000000e+00 -5.7745405148657503e-01 +7.5831718690297940e+00 +4.6292723194151479e+00 -3.7984480150123687e+01 +1.8298498557903564e+04 -9.7051998361995211e+04 -1.1091397523097062e+08 
-1.8000000000000000e+00 -5.7747598723023241e-01 +7.5842931017702773e+00 +4.6018970445434348e+00 -3.7873868080389755e+01 +1.8403794073814519e+04 -9.7042236469800337e+04 -1.1158899368135686e+08 
-1.8500000000000001e+00 -5.7749826638338286e-01 +7.5854309682010319e+00 +4.5744798249096039e+00 -3.7745616611710005e+01 +1.8501641868828054e+04 -9.7095577089561310e+04 -1.1221938573442076e+08 
-1.8999999999999999e+00 -5.7752088745086927e-01 +7.5865853383262332e+00 +4.5470392258506820e+00 -3.7599551849903790e+01 +1.8591641948821511e+04 -9.7211899209480791e+04 -1.1280260558895834e+08 
-1.9500000000000000e+00 -5.7754384893749822e-01 +7.5877560821522021e+00 +4.5195938139583500e+00 -3.7435499944395602e+01 +1.8673394285550155e+04 -9.7391081532241122e+04 -1.1333610721314241e+08 
-2.0000000000000000e+00 -5.7756714934813125e-01 +7.5889430696815765e+00 +4.4921621542598640e+00 -3.7253286888959117e+01 +1.8746498886631565e+04 -9.7633003995512554e+04 -1.1381734479653592e+08 
-2.0499999999999998e+00 -5.7759078697382082e-01 +7.5901461641564714e+00 +4.4647590115149871e+00 -3.7052882575502011e+01 +1.8810663273168728e+04 -9.7936993579023067e+04 -1.1424445263066922e+08 
-2.1000000000000001e+00 -5.7761475924682826e-01 +7.5913652094155042e+00 +4.4373833967554077e+00 -3.6834860950323225e+01 +1.8866031647052176e+04 -9.8299987114748772e+04 -1.1461832026547268e+08 
-2.1499999999999999e+00 -5.7763906338387827e-01 +7.5926000405883212e+00 +4.4100305487771267e+00 -3.6599961015504419e+01 +1.8912859069566530e+04 -9.8718278765581534e+04 -1.1494053459846997e+08 
-2.2000000000000002e+00 -5.7766369660176353e-01 +7.5938504927998425e+00 +4.3826957069487786e+00 -3.6348921587186581e+01 +1.8951400587422595e+04 -9.9188164183198896e+04 -1.1521268243012166e+08 
-2.2500000000000000e+00 -5.7768865611719311e-01 +7.5951164011804844e+00 +4.3553741082506487e+00 -3.6082481676559333e+01 +1.8981911317532598e+04 -9.9705937463130584e+04 -1.1543635105758788e+08 
-2.2999999999999998e+00 -5.7771393914691971e-01 +7.5963976008543188e+00 +4.3280609918864323e+00 -3.5801380031146479e+01 +1.9004646307349940e+04 -1.0026789484815461e+05 -1.1561312727327868e+08 
-2.3500000000000001e+00 -5.7773954290767882e-01 +7.5976939269526724e+00 +4.3007515969244627e+00 -3.5506355689299042e+01 +1.9019860615395697e+04 -1.0087033016466134e+05 -1.1574459797537942e+08 
-2.3999999999999999e+00 -5.7776546461626122e-01 +7.5990052146014122e+00 +4.2734411609857776e+00 -3.5198147448053611e+01 +1.9027809335654521e+04 -1.0150953925739952e+05 -1.1583235028521909e+08 
-2.4500000000000002e+00 -5.7779170148941905e-01 +7.6003312989295724e+00 +4.2461249231596376e+00 -3.4877494238634341e+01 +1.9028747526879772e+04 -1.0218181680667539e+05 -1.1587797110769413e+08 
-2.5000000000000000e+00 -5.7781825074398607e-01 +7.6016720150669297e+00 +4.2187981212930579e+00 -3.4545135007505081e+01 +1.9022930274800055e+04 -1.0288345740479972e+05 -1.1588304750076370e+08 
-2.5499999999999998e+00 -5.7784510959666835e-01 +7.6030271981398272e+00 +4.1914559935215667e+00 -3.4201808549589330e+01 +1.9010612663233671e+04 -1.0361075687497990e+05 -1.1584916653661513e+08 
-2.6000000000000001e+00 -5.7787227526436158e-01 +7.6043966832787779e+00 +4.1640937807133351e+00 -3.3848253831493032e+01 +1.8992049702625569e+04 -1.0436000961936006e+05 -1.1577791479210539e+08 
-2.6499999999999999e+00 -5.7789974496382590e-01 +7.6057803056132167e+00 +4.1367067183974982e+00 -3.3485209769289774e+01 +1.8967496545820210e+04 -1.0512751044265840e+05 -1.1567087980000605e+08 
-2.7000000000000002e+00 -5.7792751591189939e-01 +7.6071779002731077e+00 +4.1092900495651516e+00 -3.3113415298183959e+01 +1.8937208146146600e+04 -1.0590955396728044e+05 -1.1552964775312413e+08 
-2.7500000000000000e+00 -5.7795558532537161e-01 +7.6085893023853135e+00 +4.0818390076919213e+00 -3.2733609206075741e+01 +1.8901439713407566e+04 -1.0670243609375109e+05 -1.1535580657533181e+08 
-2.7999999999999998e+00 -5.7798395042106532e-01 +7.6100143470828385e+00 +4.0543488361128457e+00 -3.2346530554290901e+01 +1.8860446189382779e+04 -1.0750245035195517e+05 -1.1515094237475425e+08 
-2.8500000000000001e+00 -5.7801260841583302e-01 +7.6114528694952019e+00 +4.0268147717189064e+00 -3.1952918234738227e+01 +1.8814482699166339e+04 -1.0830589177729700e+05 -1.1491664253230426e+08 
-2.8999999999999999e+00 -5.7804155652651390e-01 +7.6129047047529514e+00 +3.9992320537702315e+00 -3.1553511210673090e+01 +1.8763804294472509e+04 -1.0910905466468654e+05 -1.1465449389642361e+08 
-2.9500000000000002e+00 -5.7807079196995437e-01 +7.6143696879847447e+00 +3.9715959216005410e+00 -3.1149048327554780e+01 +1.8708666031921970e+04 -1.0990823443641746e+05 -1.1436608337910315e+08 
-3.0000000000000000e+00 -5.7810031196300316e-01 +7.6158476543253064e+00 +3.9439016136908585e+00 -3.0740268708270992e+01 +1.8649322991973044e+04 -1.1069972409534513e+05 -1.1405299805362234e+08 
-3.0499999999999998e+00 -5.7813011372249357e-01 +7.6173384389033121e+00 +3.9161443702399605e+00 -3.0327911216234614e+01 +1.8586030205905910e+04 -1.1147981882059136e+05 -1.1371682465055391e+08 
-3.1000000000000001e+00 -5.7816019446530331e-01 +7.6188418768510076e+00 +3.8883194285264140e+00 -2.9912714865310829e+01 +1.8519042787499333e+04 -1.1224481253678334e+05 -1.1335915047334440e+08 
-3.1499999999999999e+00 -5.7819055140830677e-01 +7.6203578032993713e+00 +3.8604220291760103e+00 -2.9495418622838624e+01 +1.8448615763046826e+04 -1.1299099952398441e+05 -1.1298156224645182e+08 
-3.2000000000000002e+00 -5.7822118176838233e-01 +7.6218860533821893e+00 +3.8324474130660433e+00 -2.9076761565284816e+01 +1.8375004147430271e+04 -1.1371467318352424e+05 -1.1258564659633154e+08 
-3.2500000000000000e+00 -5.7825208276236462e-01 +7.6234264622296024e+00 +3.8043908168518383e+00 -2.8657482626631584e+01 +1.8298463077991262e+04 -1.1441212805874462e+05 -1.1217299100970627e+08 
-3.2999999999999998e+00 -5.7828325160716487e-01 +7.6249788649788082e+00 +3.7762474812577138e+00 -2.8238321034770639e+01 +1.8219247577302445e+04 -1.1507965627290255e+05 -1.1174518218268704e+08 
-3.3500000000000001e+00 -5.7831468551970733e-01 +7.6265430967570547e+00 +3.7480126478810383e+00 -2.7820015624556053e+01 +1.8137612649962568e+04 -1.1571355312318145e+05 -1.1130380670851249e+08 
-3.3999999999999999e+00 -5.7834638171680197e-01 +7.6281189927016104e+00 +3.7196815524530007e+00 -2.7403305620906227e+01 +1.8053813457545777e+04 -1.1631011078123195e+05 -1.1085045223439814e+08 
-3.4500000000000002e+00 -5.7837833741535327e-01 +7.6297063879433820e+00 +3.6912494373860376e+00 -2.6988930020218088e+01 +1.7968104982666606e+04 -1.1686562319011470e+05 -1.1038670520666528e+08 
-3.5000000000000000e+00 -5.7841054983229345e-01 +7.6313051176204869e+00 +3.6627115439604450e+00 -2.6577628113864915e+01 +1.7880742243795430e+04 -1.1737638188813522e+05 -1.0991415233155274e+08 
-3.5499999999999998e+00 -5.7844301618450034e-01 +7.6329150168619853e+00 +3.6340631088943476e+00 -2.6170138826554108e+01 +1.7791980378943648e+04 -1.1783868141729172e+05 -1.0943438111009239e+08 
-3.6000000000000001e+00 -5.7847573368888205e-01 +7.6345359208062957e+00 +3.6052993734702667e+00 -2.5767201465852828e+01 +1.7702074409109540e+04 -1.1824881319686923e+05 -1.0894897827674313e+08 
-3.6499999999999999e+00 -5.7850869956233841e-01 +7.6361676645860248e+00 +3.5764155775301418e+00 -2.5369555127030910e+01 +1.7611279389925006e+04 -1.1860307031095801e+05 -1.0845953078183255e+08 
-3.6999999999999900e+00 -5.7854191102176711e-01 +7.6378100833369054e+00 +3.5474069645518553e+00 -2.4977939032675224e+01 +1.7519850287594323e+04 -1.1889774481943391e+05 -1.0796762500506958e+08 
-3.7499999999999898e+00 -5.7857536528410747e-01 +7.6394630121946836e+00 +3.5182687706929427e+00 -2.4593092422473141e+01 +1.7428042264365879e+04 -1.1912912861225472e+05 -1.0747484864510198e+08 
-3.7999999999999901e+00 -5.7860905956622255e-01 +7.6411262862961555e+00 +3.4889962381020467e+00 -2.4215754591569155e+01 +1.7336110321356002e+04 -1.1929351308373618e+05 -1.0698278831214547e+08 
-3.8499999999999899e+00 -5.7864299108507733e-01 +7.6427997407754988e+00 +3.4595846071823120e+00 -2.3846664726187598e+01 +1.7244309509486346e+04 -1.1938719059218394e+05 -1.0649303096552850e+08 
-3.8999999999999901e+00 -5.7867715705751399e-01 +7.6444832107720320e+00 +3.4300291204180087e+00 -2.3486562250639494e+01 +1.7152894827739306e+04 -1.1940645142080387e+05 -1.0600716322452112e+08 
-3.9499999999999900e+00 -5.7871155470052038e-01 +7.6461765314194814e+00 +3.4003250172665442e+00 -2.3136186368154043e+01 +1.7062121356724401e+04 -1.1934758771824291e+05 -1.0552677226560444e+08 
-3.9999999999999898e+00 -5.7874618123095734e-01 +7.6478795378574187e+00 +3.3704675387417482e+00 -2.2796276535301107e+01 +1.6972244136540088e+04 -1.1920688947669030e+05 -1.0505344498819071e+08 
-4.0499999999999901e+00 -5.7878103383584956e-01 +7.6495920628474199e+00 +3.3404533412334536e+00 -2.2467456199264998e+01 +1.6883482501668714e+04 -1.1898144326445639e+05 -1.0458853796164471e+08 
-4.0999999999999899e+00 -5.7881610958244323e-01 +7.6513139269094221e+00 +3.3102849125438083e+00 -2.2149861577530800e+01 +1.6795905889970127e+04 -1.1867168722464993e+05 -1.0413243751772802e+08 
-4.1499999999999897e+00 -5.7885140550821412e-01 +7.6530449468007031e+00 +3.2799662556963489e+00 -2.1843500410382578e+01 +1.6709544268428850e+04 -1.1827894414680859e+05 -1.0368527368784852e+08 
-4.1999999999999904e+00 -5.7888691865059394e-01 +7.6547849392792724e+00 +3.2495013760694538e+00 -2.1548380457543043e+01 +1.6624427537976408e+04 -1.1780453676480525e+05 -1.0324717604308394e+08 
-4.2499999999999902e+00 -5.7892264604708121e-01 +7.6565337211009030e+00 +3.2188942765497122e+00 -2.1264509436014265e+01 +1.6540585665679111e+04 -1.1724978803803006e+05 -1.0281827459451243e+08 
-4.2999999999999901e+00 -5.7895858473507111e-01 +7.6582911090241303e+00 +3.1881489613552034e+00 -2.0991895165038603e+01 +1.6458048586191890e+04 -1.1661602018075332e+05 -1.0239869914509827e+08 
-4.3499999999999899e+00 -5.7899473175202265e-01 +7.6600569198061228e+00 +3.1572694317467898e+00 -2.0730545435494385e+01 +1.6376846312835589e+04 -1.1590455560560306e+05 -1.0198858002168828e+08 
-4.3999999999999897e+00 -5.7903108413539273e-01 +7.6618309702018852e+00 +3.1262596934749620e+00 -2.0480467961509206e+01 +1.6297008742713206e+04 -1.1511671736092168e+05 -1.0158804678447601e+08 
-4.4499999999999904e+00 -5.7906763892258739e-01 +7.6636130769704796e+00 +3.0951237493025126e+00 -2.0241670638073366e+01 +1.6218565846936457e+04 -1.1425382703642634e+05 -1.0119722946131012e+08 
-4.4999999999999902e+00 -5.7910439315108397e-01 +7.6654030568669125e+00 +3.0638656044566330e+00 -2.0014161222690081e+01 +1.6141547539485955e+04 -1.1331720730057526e+05 -1.0081625773248677e+08 
-4.5499999999999901e+00 -5.7914134385830496e-01 +7.6672007266481081e+00 +3.0324892602751037e+00 -1.9797947543838706e+01 +1.6065983832593254e+04 -1.1230818035325108e+05 -1.0044526190700759e+08 
-4.5999999999999899e+00 -5.7917848808171490e-01 +7.6690059030692117e+00 +3.0009987208037918e+00 -1.9593037414479060e+01 +1.5991904673732741e+04 -1.1122806836727430e+05 -1.0008437189036119e+08 
-4.6499999999999897e+00 -5.7921582285866535e-01 +7.6708184028852138e+00 +2.9693979909493327e+00 -1.9399438624665979e+01 +1.5919339979977814e+04 -1.1007819384010324e+05 -9.9733717350145429e+07 
-4.6999999999999904e+00 -5.7925334522667116e-01 +7.6726380428529728e+00 +2.9376910748343845e+00 -1.9217159079474573e+01 +1.5848319697743742e+04 -1.0885987827216893e+05 -9.9393428179851472e+07 
-4.7499999999999902e+00 -5.7929105222308352e-01 +7.6744646397266507e+00 +2.9058819733295342e+00 -1.9046206582081609e+01 +1.5778873857612283e+04 -1.0757444404974306e+05 -9.9063634824340954e+07 
-4.7999999999999901e+00 -5.7932894088539799e-01 +7.6762980102622240e+00 +2.8739746937367872e+00 -1.8886589047623168e+01 +1.5711032319619204e+04 -1.0622321257403439e+05 -9.8744466584885865e+07 
-4.8499999999999899e+00 -5.7936700825093779e-01 +7.6781379712125553e+00 +2.8419732383688419e+00 -1.8738314265168658e+01 +1.5644825076718502e+04 -1.0480750636111903e+05 -9.8436053649807051e+07 
-4.8999999999999897e+00 -5.7940525135719467e-01 +7.6799843393345393e+00 +2.8098816099990640e+00 -1.8601390239727952e+01 +1.5580282118340796e+04 -1.0332864606529516e+05 -9.8138526216510758e+07 
-4.9499999999999904e+00 -5.7944366724154717e-01 +7.6818369313794213e+00 +2.7777038127952771e+00 -1.8475824737198732e+01 +1.5517433385344073e+04 -1.0178795441802184e+05 -9.7852014104696974e+07 
-4.9999999999999902e+00 -5.7948225294138545e-01 +7.6836955641024982e+00 +2.7454438534346375e+00 -1.8361625726401378e+01 +1.5456308758728710e+04 -1.0018675244321449e+05 -9.7576646758929953e+07 
-5.0499999999999901e+00 -5.7952100549657015e-01 +7.6855600443180387e+00 +2.7131062096871403e+00 -1.8258809940581259e+01 +1.5396938352849716e+04 -9.8526365634417976e+04 -9.7312554607719466e+07 
