# field on trajectory
# s[mm] rx[mm] ry[mm] rz[mm] bx[T] by[T] bz[T]
-0.0000000000000000e+00 +8.5270000000000206e+00 +0.0000000000000000e+00 -0.0000000000000000e+00 -2.9356307494462244e-02 -5.5079470824137378e-01 +6.3291957266890103e-03
-5.0000000000000003e-02 +8.5269999309457507e+00 +0.0000000000000000e+00 -4.9999999999936401e-02 -2.9357983609167589e-02 -5.5079504494052201e-01 +6.3309932996404123e-03
-1.0000000000000001e-01 +8.5269997237846802e+00 +0.0000000000000000e+00 -9.9999999999491399e-02 -2.9359680225038206e-02 -5.5079576361336335e-01 +6.3327819156773733e-03
-1.4999999999999999e-01 +8.5269993785186706e+00 +0.0000000000000000e+00 -1.4999999999828301e-01 -2.9361397359062215e-02 -5.5079686347448353e-01 +6.3345614307464384e-03
-2.0000000000000001e-01 +8.5269988951477007e+00 +0.0000000000000000e+00 -1.9999999999593099e-01 -2.9363135028229289e-02 -5.5079834373849856e-01 +6.3363317007937830e-03
-2.5000000000000000e-01 +8.5269982736681396e+00 +0.0000000000000000e+00 -2.4999999999205300e-01 -2.9364893249531399e-02 -5.5080020362006754e-01 +6.3380925817653911e-03
-2.9999999999999999e-01 +8.5269975140799907e+00 +0.0000000000000000e+00 -2.9999999998626697e-01 -2.9366672039959879e-02 -5.5080244233384035e-01 +6.3398439296062986e-03
-3.4999999999999998e-01 +8.5269966163905302e+00 +0.0000000000000000e+00 -3.4999999997819298e-01 -2.9368471416503946e-02 -5.5080505909443134e-01 +6.3415856002601934e-03
-4.0000000000000002e-01 +8.5269955805888493e+00 +0.0000000000000000e+00 -3.9999999996744801e-01 -2.9370291396161076e-02 -5.5080805311660197e-01 +6.3433174496720949e-03
-4.5000000000000001e-01 +8.5269944066858407e+00 +0.0000000000000000e+00 -4.4999999995365197e-01 -2.9372131995920678e-02 -5.5081142361497393e-01 +6.3450393337841247e-03
-5.0000000000000000e-01 +8.5269930946742498e+00 +0.0000000000000000e+00 -4.9999999993642202e-01 -2.9373993232780442e-02 -5.5081516980431544e-01 +6.3467511085397244e-03
-5.5000000000000004e-01 +8.5269916445577092e+00 +0.0000000000000000e+00 -5.4999999991537796e-01 -2.9375875123734504e-02 -5.5081929089933279e-01 +6.3484526298805731e-03
-5.9999999999999998e-01 +8.5269900563289394e+00 +0.0000000000000000e+00 -5.9999999989013697e-01 -2.9377777685782293e-02 -5.5082378611482719e-01 +6.3501437537489009e-03
-6.5000000000000002e-01 +8.5269883299988596e+00 +0.0000000000000000e+00 -6.4999999986031898e-01 -2.9379700935916700e-02 -5.5082865466548503e-01 +6.3518243360843711e-03
-6.9999999999999996e-01 +8.5269864655601904e+00 +0.0000000000000000e+00 -6.9999999982554195e-01 -2.9381644891138915e-02 -5.5083389576613828e-01 +6.3534942328279604e-03
-7.5000000000000000e-01 +8.5269844630165608e+00 +0.0000000000000000e+00 -7.4999999978542398e-01 -2.9383609568446600e-02 -5.5083950863155851e-01 +6.3551532999188507e-03
-8.0000000000000004e-01 +8.5269823223679904e+00 +0.0000000000000000e+00 -7.9999999973958402e-01 -2.9385594984839735e-02 -5.5084549247655668e-01 +6.3568013932959605e-03
-8.4999999999999998e-01 +8.5269800436108198e+00 +0.0000000000000000e+00 -8.4999999968764095e-01 -2.9387601157320763e-02 -5.5085184651598773e-01 +6.3584383688979557e-03
-9.0000000000000002e-01 +8.5269776267450705e+00 +0.0000000000000000e+00 -8.9999999962921295e-01 -2.9389628102891488e-02 -5.5085856996469451e-01 +6.3600640826624527e-03
-9.4999999999999996e-01 +8.5269750717743609e+00 +0.0000000000000000e+00 -9.4999999956391801e-01 -2.9391675838553177e-02 -5.5086566203750897e-01 +6.3616783905260177e-03
-1.0000000000000000e+00 +8.5269723786986997e+00 +0.0000000000000000e+00 -9.9999999949137597e-01 -2.9393744381309494e-02 -5.5087312194930516e-01 +6.3632811484249357e-03
-1.0500000000000000e+00 +8.5269695475144491e+00 +0.0000000000000000e+00 -1.0499999994111999e+00 -2.9395833748166504e-02 -5.5088094891499806e-01 +6.3648722122952028e-03
-1.1000000000000001e+00 +8.5269665782288904e+00 +0.0000000000000000e+00 -1.0999999993230201e+00 -2.9397943956126774e-02 -5.5088914214943907e-01 +6.3664514380709653e-03
-1.1499999999999999e+00 +8.5269634708311095e+00 +0.0000000000000000e+00 -1.1499999992264500e+00 -2.9400075022201239e-02 -5.5089770086762568e-01 +6.3680186816876209e-03
-1.2000000000000000e+00 +8.5269602253283701e+00 +0.0000000000000000e+00 -1.1999999991210999e+00 -2.9402226963394323e-02 -5.5090662428443882e-01 +6.3695737990779261e-03
-1.2500000000000000e+00 +8.5269568417206791e+00 +0.0000000000000000e+00 -1.2499999990065900e+00 -2.9404399796714383e-02 -5.5091591161482656e-01 +6.3711166461747114e-03
-1.3000000000000000e+00 +8.5269533200044005e+00 +0.0000000000000000e+00 -1.2999999988825499e+00 -2.9406593539172254e-02 -5.5092556207377752e-01 +6.3726470789104844e-03
-1.3500000000000001e+00 +8.5269496601795307e+00 +0.0000000000000000e+00 -1.3499999987485900e+00 -2.9408808207778220e-02 -5.5093557487626932e-01 +6.3741649532166435e-03
-1.3999999999999999e+00 +8.5269458622533403e+00 +0.0000000000000000e+00 -1.3999999986043401e+00 -2.9411043819540572e-02 -5.5094594923724050e-01 +6.3756701250230856e-03
-1.4500000000000000e+00 +8.5269419262185693e+00 +0.0000000000000000e+00 -1.4499999984494001e+00 -2.9413300391474505e-02 -5.5095668437174850e-01 +6.3771624502605212e-03
-1.5000000000000000e+00 +8.5269378520752106e+00 +0.0000000000000000e+00 -1.4999999982833900e+00 -2.9415577940593251e-02 -5.5096777949481335e-01 +6.3786417848581620e-03
-1.5500000000000000e+00 +8.5269336398268898e+00 +0.0000000000000000e+00 -1.5499999981059500e+00 -2.9417876483909550e-02 -5.5097923382144187e-01 +6.3801079847440661e-03
-1.6000000000000001e+00 +8.5269292894736299e+00 +0.0000000000000000e+00 -1.5999999979166799e+00 -2.9420196038438578e-02 -5.5099104656668152e-01 +6.3815609058459335e-03
-1.6499999999999999e+00 +8.5269248010117700e+00 +0.0000000000000000e+00 -1.6499999977152000e+00 -2.9422536621198078e-02 -5.5100321694561938e-01 +6.3830004040910989e-03
-1.7000000000000000e+00 +8.5269201744449692e+00 +0.0000000000000000e+00 -1.6999999975011300e+00 -2.9424898249203742e-02 -5.5101574417330335e-01 +6.3844263354053384e-03
-1.7500000000000000e+00 +8.5269154097695701e+00 +0.0000000000000000e+00 -1.7499999972740901e+00 -2.9427280939475327e-02 -5.5102862746484815e-01 +6.3858385557144437e-03
-1.8000000000000000e+00 +8.5269105069892195e+00 +0.0000000000000000e+00 -1.7999999970336999e+00 -2.9429684709030582e-02 -5.5104186603532845e-01 +6.3872369209426435e-03
-1.8500000000000001e+00 +8.5269054661039299e+00 +0.0000000000000000e+00 -1.8499999967795799e+00 -2.9432109574889783e-02 -5.5105545909985854e-01 +6.3886212870137571e-03
-1.8999999999999999e+00 +8.5269002871100401e+00 +0.0000000000000000e+00 -1.8999999965113501e+00 -2.9434555554075773e-02 -5.5106940587359288e-01 +6.3899915098512231e-03
-1.9500000000000000e+00 +8.5268949700112007e+00 +0.0000000000000000e+00 -1.9499999962286201e+00 -2.9437022663609393e-02 -5.5108370557164510e-01 +6.3913474453768685e-03
-2.0000000000000000e+00 +8.5268895148037700e+00 +0.0000000000000000e+00 -1.9999999959310100e+00 -2.9439510920515562e-02 -5.5109835740919522e-01 +6.3926889495125152e-03
-2.0499999999999998e+00 +8.5268839213858900e+00 +0.0000000000000000e+00 -2.0499999956181298e+00 -2.9442020316946614e-02 -5.5111336039557113e-01 +6.3940158894426526e-03
-2.1000000000000001e+00 +8.5268781896593300e+00 +0.0000000000000000e+00 -2.0999999952895898e+00 -2.9444550745398767e-02 -5.5112871271379082e-01 +6.3953281773620561e-03
-2.1499999999999999e+00 +8.5268723196240899e+00 +0.0000000000000000e+00 -2.1499999949449999e+00 -2.9447102073414843e-02 -5.5114441233959766e-01 +6.3966257367067420e-03
-2.2000000000000002e+00 +8.5268663112729008e+00 +0.0000000000000000e+00 -2.1999999945839801e+00 -2.9449674168541596e-02 -5.5116045724880025e-01 +6.3979084909124790e-03
-2.2500000000000000e+00 +8.5268601646093902e+00 +0.0000000000000000e+00 -2.2499999942061502e+00 -2.9452266898322223e-02 -5.5117684541714007e-01 +6.3991763634127898e-03
-2.2999999999999998e+00 +8.5268538796335598e+00 +0.0000000000000000e+00 -2.2999999938111202e+00 -2.9454880130302251e-02 -5.5119357482039555e-01 +6.4004292776404974e-03
-2.3500000000000001e+00 +8.5268474563490599e+00 +0.0000000000000000e+00 -2.3499999933985198e+00 -2.9457513732026687e-02 -5.5121064343433035e-01 +6.4016671570269424e-03
-2.3999999999999999e+00 +8.5268408947522403e+00 +0.0000000000000000e+00 -2.3999999929679601e+00 -2.9460167571044377e-02 -5.5122804923477198e-01 +6.4028899250031307e-03
-2.4500000000000002e+00 +8.5268341948467405e+00 +0.0000000000000000e+00 -2.4499999925190501e+00 -2.9462841514902090e-02 -5.5124579019750675e-01 +6.4040975049981389e-03
-2.5000000000000000e+00 +8.5268273566252901e+00 +0.0000000000000000e+00 -2.4999999920514302e+00 -2.9465535431151990e-02 -5.5126386429840923e-01 +6.4052898204410673e-03
-2.5499999999999998e+00 +8.5268203800987994e+00 +0.0000000000000000e+00 -2.5499999915646900e+00 -2.9468249187339628e-02 -5.5128226951323456e-01 +6.4064667947578780e-03
-2.6000000000000001e+00 +8.5268132652563509e+00 +0.0000000000000000e+00 -2.5999999910584699e+00 -2.9470982651020432e-02 -5.5130100381790559e-01 +6.4076283513756997e-03
-2.6499999999999999e+00 +8.5268060121015896e+00 +0.0000000000000000e+00 -2.6499999905323701e+00 -2.9473735689744734e-02 -5.5132006518825039e-01 +6.4087744137188759e-03
-2.7000000000000002e+00 +8.5267986206345103e+00 +0.0000000000000000e+00 -2.6999999899860101e+00 -2.9476508171065216e-02 -5.5133945160013309e-01 +6.4099049052109012e-03
-2.7500000000000000e+00 +8.5267910908551094e+00 +0.0000000000000000e+00 -2.7499999894190199e+00 -2.9479299962535486e-02 -5.5135916102942839e-01 +6.4110197492740408e-03
-2.7999999999999998e+00 +8.5267834227670392e+00 +0.0000000000000000e+00 -2.7999999888310101e+00 -2.9482110931708480e-02 -5.5137919145199432e-01 +6.4121188693288759e-03
-2.8500000000000001e+00 +8.5267756163666508e+00 +0.0000000000000000e+00 -2.8499999882215898e+00 -2.9484940946141031e-02 -5.5139954084375065e-01 +6.4132021887955068e-03
-2.8999999999999999e+00 +8.5267676716539391e+00 +0.0000000000000000e+00 -2.8999999875903901e+00 -2.9487789873389347e-02 -5.5142020718060170e-01 +6.4142696310923323e-03
-2.9500000000000002e+00 +8.5267595886289200e+00 +0.0000000000000000e+00 -2.9499999869370299e+00 -2.9490657581010504e-02 -5.5144118843845946e-01 +6.4153211196364222e-03
-3.0000000000000000e+00 +8.5267513672915793e+00 +0.0000000000000000e+00 -2.9999999862611100e+00 -2.9493543936562415e-02 -5.5146248259324671e-01 +6.4163565778435081e-03
-3.0499999999999998e+00 +8.5267430076455604e+00 +0.0000000000000000e+00 -3.0499999855622502e+00 -2.9496448807602407e-02 -5.5148408762086798e-01 +6.4173759291275626e-03
-3.1000000000000001e+00 +8.5267345096872305e+00 +0.0000000000000000e+00 -3.0999999848400801e+00 -2.9499372061691592e-02 -5.5150600149728979e-01 +6.4183790969019727e-03
-3.1499999999999999e+00 +8.5267258734165807e+00 +0.0000000000000000e+00 -3.1499999840942201e+00 -2.9502313566390517e-02 -5.5152822219846076e-01 +6.4193660045783361e-03
-3.2000000000000002e+00 +8.5267170988336094e+00 +0.0000000000000000e+00 -3.1999999833242700e+00 -2.9505273189260533e-02 -5.5155074770033830e-01 +6.4203365755668325e-03
-3.2500000000000000e+00 +8.5267081859419704e+00 +0.0000000000000000e+00 -3.2499999825298600e+00 -2.9508250797862352e-02 -5.5157357597886214e-01 +6.4212907332758026e-03
-3.2999999999999998e+00 +8.5266991347380099e+00 +0.0000000000000000e+00 -3.2999999817106000e+00 -2.9511246259760537e-02 -5.5159670501003266e-01 +6.4222284011129427e-03
-3.3500000000000001e+00 +8.5266899452181004e+00 +0.0000000000000000e+00 -3.3499999808661101e+00 -2.9514259442520497e-02 -5.5162013276985811e-01 +6.4231495024844650e-03
-3.3999999999999999e+00 +8.5266806173895002e+00 +0.0000000000000000e+00 -3.3999999799960099e+00 -2.9517290213704004e-02 -5.5164385723427645e-01 +6.4240539607939087e-03
-3.4500000000000002e+00 +8.5266711512522306e+00 +0.0000000000000000e+00 -3.4499999790999101e+00 -2.9520338440876606e-02 -5.5166787637928527e-01 +6.4249416994440938e-03
-3.5000000000000000e+00 +8.5266615468026394e+00 +0.0000000000000000e+00 -3.4999999781774398e+00 -2.9523403991606263e-02 -5.5169218818091703e-01 +6.4258126418367126e-03
-3.5499999999999998e+00 +8.5266518040407409e+00 +0.0000000000000000e+00 -3.5499999772282100e+00 -2.9526486733460207e-02 -5.5171679061518419e-01 +6.4266667113715174e-03
-3.6000000000000001e+00 +8.5266419229665207e+00 +0.0000000000000000e+00 -3.5999999762518402e+00 -2.9529586534006554e-02 -5.5174168165810833e-01 +6.4275038314466947e-03
-3.6499999999999999e+00 +8.5266319035799807e+00 +0.0000000000000000e+00 -3.6499999752479400e+00 -2.9532703260814201e-02 -5.5176685928571600e-01 +6.4283239254588447e-03
-3.6999999999999900e+00 +8.5266217458847695e+00 +0.0000000000000000e+00 -3.6999999742161398e+00 -2.9535836781451396e-02 -5.5179232147401602e-01 +6.4291269168025725e-03
-3.7499999999999898e+00 +8.5266114498736005e+00 +0.0000000000000000e+00 -3.7499999731560498e+00 -2.9538986963491720e-02 -5.5181806619910290e-01 +6.4299127288720594e-03
-3.7999999999999901e+00 +8.5266010155537497e+00 +0.0000000000000000e+00 -3.7999999720672801e+00 -2.9542153674503527e-02 -5.5184409143697200e-01 +6.4306812850582597e-03
-3.8499999999999899e+00 +8.5265904429179500e+00 +0.0000000000000000e+00 -3.8499999709494599e+00 -2.9545336782062049e-02 -5.5187039516373071e-01 +6.4314325087520500e-03
-3.8999999999999901e+00 +8.5265797319771099e+00 +0.0000000000000000e+00 -3.8999999698022001e+00 -2.9548536153735760e-02 -5.5189697535536109e-01 +6.4321663233406585e-03
-3.9499999999999900e+00 +8.5265688827203103e+00 +0.0000000000000000e+00 -3.9499999686251202e+00 -2.9551751657103043e-02 -5.5192382998801026e-01 +6.4328826522119962e-03
-3.9999999999999898e+00 +8.5265578951548395e+00 +0.0000000000000000e+00 -3.9999999674178399e+00 -2.9554983159735475e-02 -5.5195095703769859e-01 +6.4335814187502765e-03
-4.0499999999999901e+00 +8.5265467692734092e+00 +0.0000000000000000e+00 -4.0499999661799704e+00 -2.9558230500504334e-02 -5.5197835437408027e-01 +6.4342625578329739e-03
-4.0999999999999899e+00 +8.5265355050833005e+00 +0.0000000000000000e+00 -4.0999999649111301e+00 -2.9561493403446253e-02 -5.5200601944079597e-01 +6.4349260503083032e-03
-4.1499999999999897e+00 +8.5265241025808791e+00 +0.0000000000000000e+00 -4.1499999636109504e+00 -2.9564771563894671e-02 -5.5203394957508922e-01 +6.4355718885184057e-03
-4.1999999999999904e+00 +8.5265125617697795e+00 +0.0000000000000000e+00 -4.1999999622790298e+00 -2.9568064677179574e-02 -5.5206214211415328e-01 +6.4362000648040514e-03
-4.2499999999999902e+00 +8.5265008826427202e+00 +0.0000000000000000e+00 -4.2499999609149901e+00 -2.9571372438634870e-02 -5.5209059439526209e-01 +6.4368105715066236e-03
-4.2999999999999901e+00 +8.5264890652069898e+00 +0.0000000000000000e+00 -4.2999999595184599e+00 -2.9574694543587854e-02 -5.5211930375558560e-01 +6.4374034009653577e-03
-4.3499999999999899e+00 +8.5264771094589396e+00 +0.0000000000000000e+00 -4.3499999580890396e+00 -2.9578030687369729e-02 -5.5214826753237412e-01 +6.4379785455201503e-03
-4.3999999999999897e+00 +8.5264650153985695e+00 +0.0000000000000000e+00 -4.3999999566263703e+00 -2.9581380565309491e-02 -5.5217748306285241e-01 +6.4385359975099648e-03
-4.4499999999999904e+00 +8.5264527830295300e+00 +0.0000000000000000e+00 -4.4499999551300400e+00 -2.9584743872733920e-02 -5.5220694768422018e-01 +6.4390757492728780e-03
-4.4999999999999902e+00 +8.5264404123481707e+00 +0.0000000000000000e+00 -4.4999999535996897e+00 -2.9588120304972067e-02 -5.5223665873372996e-01 +6.4395977931472571e-03
-4.5499999999999901e+00 +8.5264279033544899e+00 +0.0000000000000000e+00 -4.5499999520349199e+00 -2.9591509557350695e-02 -5.5226661354860873e-01 +6.4401021214706153e-03
-4.5999999999999899e+00 +8.5264152560448601e+00 +0.0000000000000000e+00 -4.5999999504353601e+00 -2.9594911325197176e-02 -5.5229680946610893e-01 +6.4405887265803910e-03
-4.6499999999999897e+00 +8.5264024704301793e+00 +0.0000000000000000e+00 -4.6499999488006196e+00 -2.9598325303832003e-02 -5.5232724382337772e-01 +6.4410576008120026e-03
-4.6999999999999904e+00 +8.5263895464995603e+00 +0.0000000000000000e+00 -4.6999999471303298e+00 -2.9601751188583825e-02 -5.5235791395771983e-01 +6.4415087365028330e-03
-4.7499999999999902e+00 +8.5263764842602505e+00 +0.0000000000000000e+00 -4.7499999454240900e+00 -2.9605188674772714e-02 -5.5238881720630728e-01 +6.4419421259878677e-03
-4.7999999999999901e+00 +8.5263632837050007e+00 +0.0000000000000000e+00 -4.7999999436815299e+00 -2.9608637457723866e-02 -5.5241995090641771e-01 +6.4423577616032944e-03
-4.8499999999999899e+00 +8.5263499448447000e+00 +0.0000000000000000e+00 -4.8499999419022597e+00 -2.9612097232753810e-02 -5.5245131239519329e-01 +6.4427556356829443e-03
-4.8999999999999897e+00 +8.5263364676684397e+00 +0.0000000000000000e+00 -4.8999999400859000e+00 -2.9615567695187073e-02 -5.5248289900993486e-01 +6.4431357405626720e-03
-4.9499999999999904e+00 +8.5263228521798702e+00 +0.0000000000000000e+00 -4.9499999382320699e+00 -2.9619048540341020e-02 -5.5251470808783543e-01 +6.4434980685764125e-03
-4.9999999999999902e+00 +8.5263090983826295e+00 +0.0000000000000000e+00 -4.9999999363403900e+00 -2.9622539463531834e-02 -5.5254673696608547e-01 +6.4438426120577673e-03
-5.0499999999999901e+00 +8.5262952059529198e+00 +0.0000000000000000e+00 -5.0499999344103799e+00 -2.9626040160211246e-02 -5.5257898298426522e-01 +6.4441693633758047e-03
-5.0999999999999899e+00 +8.5262811745706095e+00 +0.0000000000000000e+00 -5.0999999324415599e+00 -2.9629550325828424e-02 -5.5261144348192859e-01 +6.4444783148988717e-03
-5.1499999999999897e+00 +8.5262670042357094e+00 +0.0000000000000000e+00 -5.1499999304335597e+00 -2.9633069655697588e-02 -5.5264411579628792e-01 +6.4447694589600691e-03
-5.1999999999999904e+00 +8.5262526949518396e+00 +0.0000000000000000e+00 -5.1999999283859903e+00 -2.9636597845130105e-02 -5.5267699726452624e-01 +6.4450427878918410e-03
-5.2499999999999902e+00 +8.5262382467153692e+00 +0.0000000000000000e+00 -5.2499999262984600e+00 -2.9640134589439020e-02 -5.5271008522387610e-01 +6.4452982940271753e-03
-5.2999999999999901e+00 +8.5262236595299292e+00 +0.0000000000000000e+00 -5.2999999241705797e+00 -2.9643679583932901e-02 -5.5274337701151333e-01 +6.4455359696980524e-03
-5.3499999999999899e+00 +8.5262089333882596e+00 +0.0000000000000000e+00 -5.3499999220019703e+00 -2.9647232523923452e-02 -5.5277686996469011e-01 +6.4457558072374245e-03
-5.3999999999999897e+00 +8.5261940682976292e+00 +0.0000000000000000e+00 -5.3999999197922497e+00 -2.9650793104714770e-02 -5.5281056142054774e-01 +6.4459577989764696e-03
-5.4499999999999904e+00 +8.5261790642507496e+00 +0.0000000000000000e+00 -5.4499999175410201e+00 -2.9654361021615495e-02 -5.5284444871632954e-01 +6.4461419372477732e-03
-5.4999999999999902e+00 +8.5261639212585596e+00 +0.0000000000000000e+00 -5.4999999152479004e+00 -2.9657935969925098e-02 -5.5287852918914138e-01 +6.4463082143817827e-03
-5.5499999999999901e+00 +8.5261486393137602e+00 +0.0000000000000000e+00 -5.5499999129125097e+00 -2.9661517644949027e-02 -5.5291280017621780e-01 +6.4464566227107880e-03
-5.5999999999999899e+00 +8.5261332184127205e+00 +0.0000000000000000e+00 -5.5999999105344500e+00 -2.9665105741989547e-02 -5.5294725901476027e-01 +6.4465871545665585e-03
-5.6499999999999897e+00 +8.5261176585627307e+00 +0.0000000000000000e+00 -5.6499999081133403e+00 -2.9668699956342633e-02 -5.5298190304188599e-01 +6.4466998022795529e-03
-5.6999999999999904e+00 +8.5261019597637606e+00 +0.0000000000000000e+00 -5.6999999056488004e+00 -2.9672299983305585e-02 -5.5301672959476000e-01 +6.4467945581809499e-03
-5.7499999999999902e+00 +8.5260861220122006e+00 +0.0000000000000000e+00 -5.7499999031404396e+00 -2.9675905518175418e-02 -5.5305173601056701e-01 +6.4468714146022378e-03
-5.7999999999999901e+00 +8.5260701453080401e+00 +0.0000000000000000e+00 -5.7999999005878804e+00 -2.9679516256245812e-02 -5.5308691962645995e-01 +6.4469303638744575e-03
-5.8499999999999899e+00 +8.5260540296512808e+00 +0.0000000000000000e+00 -5.8499998979907204e+00 -2.9683131892808561e-02 -5.5312227777958500e-01 +6.4469713983286011e-03
