# trajectory
# s[mm] rx[mm] ry[mm] rz[mm] px[rad] py[rad] pz[rad]
0.0000000000000000e+00 +8.2850000000000001e+00 +0.0000000000000000e+00 +0.0000000000000000e+00 +0.0000000000000000e+00 +0.0000000000000000e+00 +1.0000000000000000e+00
5.0000000000000003e-02 +8.2849999307701143e+00 +0.0000000000000000e+00 +4.9999999999936096e-02 -2.7691960896168816e-06 +0.0000000000000000e+00 +9.9999999999616573e-01
1.0000000000000001e-01 +8.2849997230803147e+00 +0.0000000000000000e+00 +9.9999999999488762e-02 -5.5383968145855969e-06 +0.0000000000000000e+00 +9.9999999998466305e-01
1.5000000000000002e-01 +8.2849993769303278e+00 +0.0000000000000000e+00 +1.4999999999827457e-01 -8.3076038599623832e-06 +0.0000000000000000e+00 +9.9999999996549183e-01
2.0000000000000001e-01 +8.2849988923197948e+00 +0.0000000000000000e+00 +1.9999999999591012e-01 -1.1076818906105917e-05 +0.0000000000000000e+00 +9.9999999993865196e-01
2.5000000000000000e-01 +8.2849982692482751e+00 +0.0000000000000000e+00 +2.4999999999201195e-01 -1.3846043628677390e-05 +0.0000000000000000e+00 +9.9999999990414346e-01
2.9999999999999999e-01 +8.2849975077152429e+00 +0.0000000000000000e+00 +2.9999999998619664e-01 -1.6615279698640574e-05 +0.0000000000000000e+00 +9.9999999986196619e-01
3.4999999999999998e-01 +8.2849966077200889e+00 +0.0000000000000000e+00 +3.4999999997808073e-01 -1.9384528782261907e-05 +0.0000000000000000e+00 +9.9999999981211996e-01
3.9999999999999997e-01 +8.2849955692621204e+00 +0.0000000000000000e+00 +3.9999999996728081e-01 -2.2153792541110555e-05 +0.0000000000000000e+00 +9.9999999975460463e-01
4.4999999999999996e-01 +8.2849943923405629e+00 +0.0000000000000000e+00 +4.4999999995341339e-01 -2.4923072632058501e-05 +0.0000000000000000e+00 +9.9999999968942010e-01
4.9999999999999994e-01 +8.2849930769545583e+00 +0.0000000000000000e+00 +4.9999999993609501e-01 -2.7692370707280599e-05 +0.0000000000000000e+00 +9.9999999961656616e-01
5.4999999999999993e-01 +8.2849916231031653e+00 +0.0000000000000000e+00 +5.4999999991494219e-01 -3.0461688414254657e-05 +0.0000000000000000e+00 +9.9999999953604257e-01
5.9999999999999998e-01 +8.2849900307853623e+00 +0.0000000000000000e+00 +5.9999999988957142e-01 -3.3231027395761509e-05 +0.0000000000000000e+00 +9.9999999944784923e-01
6.5000000000000002e-01 +8.2849883000000446e+00 +0.0000000000000000e+00 +6.4999999985959922e-01 -3.6000389289885078e-05 +0.0000000000000000e+00 +9.9999999935198580e-01
7.0000000000000007e-01 +8.2849864307460255e+00 +0.0000000000000000e+00 +6.9999999982464212e-01 -3.8769775730012453e-05 +0.0000000000000000e+00 +9.9999999924845207e-01
7.5000000000000011e-01 +8.2849844230220366e+00 +0.0000000000000000e+00 +7.4999999978431653e-01 -4.1539188344833961e-05 +0.0000000000000000e+00 +9.9999999913724769e-01
8.0000000000000016e-01 +8.2849822768267281e+00 +0.0000000000000000e+00 +7.9999999973823899e-01 -4.4308628758343225e-05 +0.0000000000000000e+00 +9.9999999901837244e-01
8.5000000000000020e-01 +8.2849799921586698e+00 +0.0000000000000000e+00 +8.4999999968602591e-01 -4.7078098589837248e-05 +0.0000000000000000e+00 +9.9999999889182600e-01
9.0000000000000024e-01 +8.2849775690163519e+00 +0.0000000000000000e+00 +8.9999999962729371e-01 -4.9847599453916463e-05 +0.0000000000000000e+00 +9.9999999875760814e-01
9.5000000000000029e-01 +8.2849750073981809e+00 +0.0000000000000000e+00 +9.4999999956165881e-01 -5.2617132960484820e-05 +0.0000000000000000e+00 +9.9999999861571842e-01
1.0000000000000002e+00 +8.2849723073024855e+00 +0.0000000000000000e+00 +9.9999999948873763e-01 -5.5386700714749836e-05 +0.0000000000000000e+00 +9.9999999846615650e-01
1.0500000000000003e+00 +8.2849694687275122e+00 +0.0000000000000000e+00 +1.0499999994081466e+00 -5.8156304317222670e-05 +0.0000000000000000e+00 +9.9999999830892194e-01
1.1000000000000003e+00 +8.2849664916714296e+00 +0.0000000000000000e+00 +1.0999999993195020e+00 -6.0925945363718193e-05 +0.0000000000000000e+00 +9.9999999814401441e-01
1.1500000000000004e+00 +8.2849633761323247e+00 +0.0000000000000000e+00 +1.1499999992224201e+00 -6.3695625445355045e-05 +0.0000000000000000e+00 +9.9999999797143346e-01
1.2000000000000004e+00 +8.2849601221082079e+00 +0.0000000000000000e+00 +1.1999999991165173e+00 -6.6465346148555709e-05 +0.0000000000000000e+00 +9.9999999779117865e-01
1.2500000000000004e+00 +8.2849567295970061e+00 +0.0000000000000000e+00 +1.2499999990014101e+00 -6.9235109055046566e-05 +0.0000000000000000e+00 +9.9999999760324965e-01
1.3000000000000005e+00 +8.2849531985965719e+00 +0.0000000000000000e+00 +1.2999999988767146e+00 -7.2004915741857964e-05 +0.0000000000000000e+00 +9.9999999740764589e-01
1.3500000000000005e+00 +8.2849495291046757e+00 +0.0000000000000000e+00 +1.3499999987420468e+00 -7.4774767781324276e-05 +0.0000000000000000e+00 +9.9999999720436694e-01
1.4000000000000006e+00 +8.2849457211190121e+00 +0.0000000000000000e+00 +1.3999999985970233e+00 -7.7544666741083976e-05 +0.0000000000000000e+00 +9.9999999699341224e-01
1.4500000000000006e+00 +8.2849417746371934e+00 +0.0000000000000000e+00 +1.4499999984412602e+00 -8.0314614184079684e-05 +0.0000000000000000e+00 +9.9999999677478124e-01
1.5000000000000007e+00 +8.2849376896567595e+00 +0.0000000000000000e+00 +1.4999999982743735e+00 -8.3084611668558231e-05 +0.0000000000000000e+00 +9.9999999654847349e-01
1.5500000000000007e+00 +8.2849334661751666e+00 +0.0000000000000000e+00 +1.5499999980959795e+00 -8.5854660748070741e-05 +0.0000000000000000e+00 +9.9999999631448844e-01
1.6000000000000008e+00 +8.2849291041897981e+00 +0.0000000000000000e+00 +1.5999999979056945e+00 -8.8624762971472673e-05 +0.0000000000000000e+00 +9.9999999607282553e-01
1.6500000000000008e+00 +8.2849246036979576e+00 +0.0000000000000000e+00 +1.6499999977031341e+00 -9.1394919882923875e-05 +0.0000000000000000e+00 +9.9999999582348409e-01
1.7000000000000008e+00 +8.2849199646968721e+00 +0.0000000000000000e+00 +1.6999999974879147e+00 -9.4165133021888661e-05 +0.0000000000000000e+00 +9.9999999556646368e-01
1.7500000000000009e+00 +8.2849151871836924e+00 +0.0000000000000000e+00 +1.7499999972596525e+00 -9.6935403923135858e-05 +0.0000000000000000e+00 +9.9999999530176353e-01
1.8000000000000009e+00 +8.2849102711554909e+00 +0.0000000000000000e+00 +1.7999999970179632e+00 -9.9705734116738870e-05 +0.0000000000000000e+00 +9.9999999502938308e-01
1.8500000000000010e+00 +8.2849052166092658e+00 +0.0000000000000000e+00 +1.8499999967624627e+00 -1.0247612512807572e-04 +0.0000000000000000e+00 +9.9999999474932166e-01
1.9000000000000010e+00 +8.2849000235419386e+00 +0.0000000000000000e+00 +1.8999999964927672e+00 -1.0524657847782916e-04 +0.0000000000000000e+00 +9.9999999446157861e-01
1.9500000000000011e+00 +8.2848946919503543e+00 +0.0000000000000000e+00 +1.9499999962084924e+00 -1.0801709568198665e-04 +0.0000000000000000e+00 +9.9999999416615326e-01
2.0000000000000009e+00 +8.2848892218312820e+00 +0.0000000000000000e+00 +1.9999999959092545e+00 -1.1078767825184047e-04 +0.0000000000000000e+00 +9.9999999386304494e-01
2.0500000000000007e+00 +8.2848836131814156e+00 +0.0000000000000000e+00 +2.0499999955946691e+00 -1.1355832769377840e-04 +0.0000000000000000e+00 +9.9999999355225289e-01
2.1000000000000005e+00 +8.2848778659973732e+00 +0.0000000000000000e+00 +2.0999999952643518e+00 -1.1632904550698078e-04 +0.0000000000000000e+00 +9.9999999323377642e-01
2.1500000000000004e+00 +8.2848719802756996e+00 +0.0000000000000000e+00 +2.1499999949179185e+00 -1.1909983318111758e-04 +0.0000000000000000e+00 +9.9999999290761465e-01
2.2000000000000002e+00 +8.2848659560128652e+00 +0.0000000000000000e+00 +2.1999999945549851e+00 -1.2187069219613909e-04 +0.0000000000000000e+00 +9.9999999257376693e-01
2.2500000000000000e+00 +8.2848597932052659e+00 +0.0000000000000000e+00 +2.2499999941751669e+00 -1.2464162402227598e-04 +0.0000000000000000e+00 +9.9999999223223246e-01
2.2999999999999998e+00 +8.2848534918492245e+00 +0.0000000000000000e+00 +2.2999999937780800e+00 -1.2741263012003932e-04 +0.0000000000000000e+00 +9.9999999188301048e-01
2.3499999999999996e+00 +8.2848470519409911e+00 +0.0000000000000000e+00 +2.3499999933633395e+00 -1.3018371194022072e-04 +0.0000000000000000e+00 +9.9999999152610020e-01
2.3999999999999995e+00 +8.2848404734767449e+00 +0.0000000000000000e+00 +2.3999999929305615e+00 -1.3295487092389226e-04 +0.0000000000000000e+00 +9.9999999116150073e-01
2.4499999999999993e+00 +8.2848337564525902e+00 +0.0000000000000000e+00 +2.4499999924793614e+00 -1.3572610850240668e-04 +0.0000000000000000e+00 +9.9999999078921131e-01
2.4999999999999991e+00 +8.2848269008645623e+00 +0.0000000000000000e+00 +2.4999999920093545e+00 -1.3849742609739731e-04 +0.0000000000000000e+00 +9.9999999040923104e-01
2.5499999999999989e+00 +8.2848199067086234e+00 +0.0000000000000000e+00 +2.5499999915201563e+00 -1.4126882512077821e-04 +0.0000000000000000e+00 +9.9999999002155904e-01
2.5999999999999988e+00 +8.2848127739806685e+00 +0.0000000000000000e+00 +2.5999999910113822e+00 -1.4404030697474419e-04 +0.0000000000000000e+00 +9.9999998962619452e-01
2.6499999999999986e+00 +8.2848055026765213e+00 +0.0000000000000000e+00 +2.6499999904826477e+00 -1.4681187305177083e-04 +0.0000000000000000e+00 +9.9999998922313649e-01
2.6999999999999984e+00 +8.2847980927919362e+00 +0.0000000000000000e+00 +2.6999999899335676e+00 -1.4958352473461455e-04 +0.0000000000000000e+00 +9.9999998881238406e-01
2.7499999999999982e+00 +8.2847905443225986e+00 +0.0000000000000000e+00 +2.7499999893637579e+00 -1.5235526339631270e-04 +0.0000000000000000e+00 +9.9999998839393633e-01
2.7999999999999980e+00 +8.2847828572641244e+00 +0.0000000000000000e+00 +2.7999999887728331e+00 -1.5512709040018359e-04 +0.0000000000000000e+00 +9.9999998796779244e-01
2.8499999999999979e+00 +8.2847750316120639e+00 +0.0000000000000000e+00 +2.8499999881604086e+00 -1.5789900709982651e-04 +0.0000000000000000e+00 +9.9999998753395125e-01
2.8999999999999977e+00 +8.2847670673618978e+00 +0.0000000000000000e+00 +2.8999999875260998e+00 -1.6067101483912180e-04 +0.0000000000000000e+00 +9.9999998709241200e-01
2.9499999999999975e+00 +8.2847589645090416e+00 +0.0000000000000000e+00 +2.9499999868695217e+00 -1.6344311495223091e-04 +0.0000000000000000e+00 +9.9999998664317358e-01
2.9999999999999973e+00 +8.2847507230488411e+00 +0.0000000000000000e+00 +2.9999999861902888e+00 -1.6621530876359642e-04 +0.0000000000000000e+00 +9.9999998618623509e-01
3.0499999999999972e+00 +8.2847423429765801e+00 +0.0000000000000000e+00 +3.0499999854880167e+00 -1.6898759758794210e-04 +0.0000000000000000e+00 +9.9999998572159543e-01
3.0999999999999970e+00 +8.2847338242874766e+00 +0.0000000000000000e+00 +3.0999999847623201e+00 -1.7175998273027298e-04 +0.0000000000000000e+00 +9.9999998524925371e-01
3.1499999999999968e+00 +8.2847251669766813e+00 +0.0000000000000000e+00 +3.1499999840128137e+00 -1.7453246548587535e-04 +0.0000000000000000e+00 +9.9999998476920882e-01
3.1999999999999966e+00 +8.2847163710392806e+00 +0.0000000000000000e+00 +3.1999999832391124e+00 -1.7730504714031685e-04 +0.0000000000000000e+00 +9.9999998428145964e-01
3.2499999999999964e+00 +8.2847074364702973e+00 +0.0000000000000000e+00 +3.2499999824408312e+00 -1.8007772896944650e-04 +0.0000000000000000e+00 +9.9999998378600530e-01
3.2999999999999963e+00 +8.2846983632646918e+00 +0.0000000000000000e+00 +3.2999999816175847e+00 -1.8285051223939473e-04 +0.0000000000000000e+00 +9.9999998328284456e-01
3.3499999999999961e+00 +8.2846891514173606e+00 +0.0000000000000000e+00 +3.3499999807689873e+00 -1.8562339820657345e-04 +0.0000000000000000e+00 +9.9999998277197644e-01
3.3999999999999959e+00 +8.2846798009231382e+00 +0.0000000000000000e+00 +3.3999999798946536e+00 -1.8839638811767606e-04 +0.0000000000000000e+00 +9.9999998225339992e-01
3.4499999999999957e+00 +8.2846703117767966e+00 +0.0000000000000000e+00 +3.4499999789941986e+00 -1.9116948320967755e-04 +0.0000000000000000e+00 +9.9999998172711380e-01
3.4999999999999956e+00 +8.2846606839730441e+00 +0.0000000000000000e+00 +3.4999999780672364e+00 -1.9394268470983449e-04 +0.0000000000000000e+00 +9.9999998119311695e-01
3.5499999999999954e+00 +8.2846509175065322e+00 +0.0000000000000000e+00 +3.5499999771133814e+00 -1.9671599383568511e-04 +0.0000000000000000e+00 +9.9999998065140827e-01
3.5999999999999952e+00 +8.2846410123718481e+00 +0.0000000000000000e+00 +3.5999999761322483e+00 -1.9948941179504930e-04 +0.0000000000000000e+00 +9.9999998010198665e-01
3.6499999999999950e+00 +8.2846309685635191e+00 +0.0000000000000000e+00 +3.6499999751234515e+00 -2.0226293978602868e-04 +0.0000000000000000e+00 +9.9999997954485098e-01
3.6999999999999948e+00 +8.2846207860760153e+00 +0.0000000000000000e+00 +3.6999999740866047e+00 -2.0503657899700666e-04 +0.0000000000000000e+00 +9.9999997898000004e-01
3.7499999999999947e+00 +8.2846104649037464e+00 +0.0000000000000000e+00 +3.7499999730213229e+00 -2.0781033060664845e-04 +0.0000000000000000e+00 +9.9999997840743260e-01
3.7999999999999945e+00 +8.2846000050410620e+00 +0.0000000000000000e+00 +3.7999999719272197e+00 -2.1058419578390110e-04 +0.0000000000000000e+00 +9.9999997782714756e-01
3.8499999999999943e+00 +8.2845894064822563e+00 +0.0000000000000000e+00 +3.8499999708039092e+00 -2.1335817568799356e-04 +0.0000000000000000e+00 +9.9999997723914369e-01
3.8999999999999941e+00 +8.2845786692215633e+00 +0.0000000000000000e+00 +3.8999999696510055e+00 -2.1613227146843669e-04 +0.0000000000000000e+00 +9.9999997664341989e-01
3.9499999999999940e+00 +8.2845677932531601e+00 +0.0000000000000000e+00 +3.9499999684681226e+00 -2.1890648426502334e-04 +0.0000000000000000e+00 +9.9999997603997481e-01
3.9999999999999938e+00 +8.2845567785711687e+00 +0.0000000000000000e+00 +3.9999999672548743e+00 -2.2168081520782836e-04 +0.0000000000000000e+00 +9.9999997542880736e-01
4.0499999999999936e+00 +8.2845456251696525e+00 +0.0000000000000000e+00 +4.0499999660108745e+00 -2.2445526541708545e-04 +0.0000000000000000e+00 +9.9999997480991620e-01
4.0999999999999934e+00 +8.2845343330426218e+00 +0.0000000000000000e+00 +4.0999999647357370e+00 -2.2722983600183209e-04 +0.0000000000000000e+00 +9.9999997418330011e-01
4.1499999999999932e+00 +8.2845229021840279e+00 +0.0000000000000000e+00 +4.1499999634290754e+00 -2.3000452805855442e-04 +0.0000000000000000e+00 +9.9999997354895787e-01
4.1999999999999931e+00 +8.2845113325877726e+00 +0.0000000000000000e+00 +4.1999999620905033e+00 -2.3277934267106404e-04 +0.0000000000000000e+00 +9.9999997290688813e-01
4.2499999999999929e+00 +8.2844996242477009e+00 +0.0000000000000000e+00 +4.2499999607196353e+00 -2.3555428091049795e-04 +0.0000000000000000e+00 +9.9999997225708970e-01
4.2999999999999927e+00 +8.2844877771576044e+00 +0.0000000000000000e+00 +4.2999999593160840e+00 -2.3832934383531863e-04 +0.0000000000000000e+00 +9.9999997159956122e-01
4.3499999999999925e+00 +8.2844757913112215e+00 +0.0000000000000000e+00 +4.3499999578794633e+00 -2.4110453249131394e-04 +0.0000000000000000e+00 +9.9999997093430149e-01
4.3999999999999924e+00 +8.2844636667022424e+00 +0.0000000000000000e+00 +4.3999999564093857e+00 -2.4387984791159712e-04 +0.0000000000000000e+00 +9.9999997026130916e-01
4.4499999999999922e+00 +8.2844514033243009e+00 +0.0000000000000000e+00 +4.4499999549054650e+00 -2.4665529111660676e-04 +0.0000000000000000e+00 +9.9999996958058290e-01
4.4999999999999920e+00 +8.2844390011709841e+00 +0.0000000000000000e+00 +4.4999999533673147e+00 -2.4943086311410685e-04 +0.0000000000000000e+00 +9.9999996889212150e-01
4.5499999999999918e+00 +8.2844264602358262e+00 +0.0000000000000000e+00 +4.5499999517945477e+00 -2.5220656489918661e-04 +0.0000000000000000e+00 +9.9999996819592352e-01
4.5999999999999917e+00 +8.2844137805123150e+00 +0.0000000000000000e+00 +4.5999999501867777e+00 -2.5498239745426059e-04 +0.0000000000000000e+00 +9.9999996749198772e-01
4.6499999999999915e+00 +8.2844009619938852e+00 +0.0000000000000000e+00 +4.6499999485436172e+00 -2.5775836174906855e-04 +0.0000000000000000e+00 +9.9999996678031267e-01
4.6999999999999913e+00 +8.2843880046739287e+00 +0.0000000000000000e+00 +4.6999999468646800e+00 -2.6053445874067553e-04 +0.0000000000000000e+00 +9.9999996606089703e-01
4.7499999999999911e+00 +8.2843749085457841e+00 +0.0000000000000000e+00 +4.7499999451495780e+00 -2.6331068937347166e-04 +0.0000000000000000e+00 +9.9999996533373958e-01
4.7999999999999909e+00 +8.2843616736027474e+00 +0.0000000000000000e+00 +4.7999999433979248e+00 -2.6608705457917232e-04 +0.0000000000000000e+00 +9.9999996459883878e-01
4.8499999999999908e+00 +8.2843482998380669e+00 +0.0000000000000000e+00 +4.8499999416093331e+00 -2.6886355527681790e-04 +0.0000000000000000e+00 +9.9999996385619339e-01
4.8999999999999906e+00 +8.2843347872449460e+00 +0.0000000000000000e+00 +4.8999999397834149e+00 -2.7164019237277398e-04 +0.0000000000000000e+00 +9.9999996310580197e-01
4.9499999999999904e+00 +8.2843211358165423e+00 +0.0000000000000000e+00 +4.9499999379197837e+00 -2.7441696676073102e-04 +0.0000000000000000e+00 +9.9999996234766320e-01
4.9999999999999902e+00 +8.2843073455459670e+00 +0.0000000000000000e+00 +4.9999999360180523e+00 -2.7719387932170460e-04 +0.0000000000000000e+00 +9.9999996158177562e-01
5.0499999999999901e+00 +8.2842934164262925e+00 +0.0000000000000000e+00 +5.0499999340778325e+00 -2.7997093092403512e-04 +0.0000000000000000e+00 +9.9999996080813791e-01
5.0999999999999899e+00 +8.2842793484505428e+00 +0.0000000000000000e+00 +5.0999999320987373e+00 -2.8274812242338793e-04 +0.0000000000000000e+00 +9.9999996002674862e-01
5.1499999999999897e+00 +8.2842651416117032e+00 +0.0000000000000000e+00 +5.1499999300803783e+00 -2.8552545466275321e-04 +0.0000000000000000e+00 +9.9999995923760632e-01
5.1999999999999895e+00 +8.2842507959027163e+00 +0.0000000000000000e+00 +5.1999999280223683e+00 -2.8830292847244589e-04 +0.0000000000000000e+00 +9.9999995844070966e-01
5.2499999999999893e+00 +8.2842363113164819e+00 +0.0000000000000000e+00 +5.2499999259243202e+00 -2.9108054467010566e-04 +0.0000000000000000e+00 +9.9999995763605720e-01
5.2999999999999892e+00 +8.2842216878458625e+00 +0.0000000000000000e+00 +5.2999999237858448e+00 -2.9385830406069690e-04 +0.0000000000000000e+00 +9.9999995682364751e-01
5.3499999999999890e+00 +8.2842069254836765e+00 +0.0000000000000000e+00 +5.3499999216065550e+00 -2.9663620743650859e-04 +0.0000000000000000e+00 +9.9999995600347913e-01
5.3999999999999888e+00 +8.2841920242227065e+00 +0.0000000000000000e+00 +5.3999999193860635e+00 -2.9941425557715424e-04 +0.0000000000000000e+00 +9.9999995517555063e-01
5.4499999999999886e+00 +8.2841769840556942e+00 +0.0000000000000000e+00 +5.4499999171239812e+00 -3.0219244924957185e-04 +0.0000000000000000e+00 +9.9999995433986066e-01
5.4999999999999885e+00 +8.2841618049753443e+00 +0.0000000000000000e+00 +5.4999999148199201e+00 -3.0497078920802386e-04 +0.0000000000000000e+00 +9.9999995349640769e-01
5.5499999999999883e+00 +8.2841464869743238e+00 +0.0000000000000000e+00 +5.5499999124734920e+00 -3.0774927619409712e-04 +0.0000000000000000e+00 +9.9999995264519026e-01
5.5999999999999881e+00 +8.2841310300452626e+00 +0.0000000000000000e+00 +5.5999999100843096e+00 -3.1052791093670270e-04 +0.0000000000000000e+00 +9.9999995178620693e-01
5.6499999999999879e+00 +8.2841154341807552e+00 +0.0000000000000000e+00 +5.6499999076519840e+00 -3.1330669415207595e-04 +0.0000000000000000e+00 +9.9999995091945637e-01
5.6999999999999877e+00 +8.2840996993733604e+00 +0.0000000000000000e+00 +5.6999999051761261e+00 -3.1608562654377635e-04 +0.0000000000000000e+00 +9.9999995004493702e-01
5.7499999999999876e+00 +8.2840838256156033e+00 +0.0000000000000000e+00 +5.7499999026563477e+00 -3.1886470880268747e-04 +0.0000000000000000e+00 +9.9999994916264734e-01
5.7999999999999874e+00 +8.2840678128999716e+00 +0.0000000000000000e+00 +5.7999999000922609e+00 -3.2164394160701690e-04 +0.0000000000000000e+00 +9.9999994827258598e-01
5.8499999999999872e+00 +8.2840516612189230e+00 +0.0000000000000000e+00 +5.8499998974834764e+00 -3.2442332562229606e-04 +0.0000000000000000e+00 +9.9999994737475140e-01
5.8999999999999870e+00 +8.2840353705648795e+00 +0.0000000000000000e+00 +5.8999998948296062e+00 -3.2720286150138034e-04 +0.0000000000000000e+00 +9.9999994646914214e-01
