# trajectory
# s[mm] rx[mm] ry[mm] rz[mm] px[rad] py[rad] pz[rad]
0.0000000000000000e+00 +8.5980000000000008e+00 +0.0000000000000000e+00 +0.0000000000000000e+00 +0.0000000000000000e+00 +0.0000000000000000e+00 +1.0000000000000000e+00
-5.0000000000000003e-02 +8.5979999308451625e+00 +0.0000000000000000e+00 -4.9999999999936227e-02 +2.7661945765730848e-06 +0.0000000000000000e+00 +9.9999999999617406e-01
-1.0000000000000001e-01 +8.5979997233804273e+00 +0.0000000000000000e+00 -9.9999999999489872e-02 +5.5323961007076761e-06 +0.0000000000000000e+00 +9.9999999998469624e-01
-1.5000000000000002e-01 +8.5979993776054062e+00 +0.0000000000000000e+00 -1.4999999999827832e-01 +8.2986063454752965e-06 +0.0000000000000000e+00 +9.9999999996556654e-01
-2.0000000000000001e-01 +8.5979988935196179e+00 +0.0000000000000000e+00 -1.9999999999591900e-01 +1.1064827079722865e-05 +0.0000000000000000e+00 +9.9999999993878474e-01
-2.5000000000000000e-01 +8.5979982711224938e+00 +0.0000000000000000e+00 -2.4999999999202926e-01 +1.3831060068072769e-05 +0.0000000000000000e+00 +9.9999999990435084e-01
-2.9999999999999999e-01 +8.5979975104133768e+00 +0.0000000000000000e+00 -2.9999999998622656e-01 +1.6597307070922953e-05 +0.0000000000000000e+00 +9.9999999986226462e-01
-3.4999999999999998e-01 +8.5979966113915225e+00 +0.0000000000000000e+00 -3.4999999997812820e-01 +1.9363569844446987e-05 +0.0000000000000000e+00 +9.9999999981252596e-01
-3.9999999999999997e-01 +8.5979955740560996e+00 +0.0000000000000000e+00 -3.9999999996735158e-01 +2.2129850140594157e-05 +0.0000000000000000e+00 +9.9999999975513476e-01
-4.4999999999999996e-01 +8.5979943984061880e+00 +0.0000000000000000e+00 -4.4999999995351414e-01 +2.4896149707089533e-05 +0.0000000000000000e+00 +9.9999999969009079e-01
-4.9999999999999994e-01 +8.5979930844407786e+00 +0.0000000000000000e+00 -4.9999999993623312e-01 +2.7662470287434050e-05 +0.0000000000000000e+00 +9.9999999961739383e-01
-5.4999999999999993e-01 +8.5979916321587790e+00 +0.0000000000000000e+00 -5.4999999991512594e-01 +3.0428813620904598e-05 +0.0000000000000000e+00 +9.9999999953704366e-01
-5.9999999999999998e-01 +8.5979900415590080e+00 +0.0000000000000000e+00 -5.9999999988980990e-01 +3.3195181442554079e-05 +0.0000000000000000e+00 +9.9999999944903994e-01
-6.5000000000000002e-01 +8.5979883126401973e+00 +0.0000000000000000e+00 -6.4999999985990231e-01 +3.5961575483211496e-05 +0.0000000000000000e+00 +9.9999999935338257e-01
-7.0000000000000007e-01 +8.5979864454009931e+00 +0.0000000000000000e+00 -6.9999999982502059e-01 +3.8727997469482042e-05 +0.0000000000000000e+00 +9.9999999925007110e-01
-7.5000000000000011e-01 +8.5979844398399550e+00 +0.0000000000000000e+00 -7.4999999978478193e-01 +4.1494449123747151e-05 +0.0000000000000000e+00 +9.9999999913910531e-01
-8.0000000000000016e-01 +8.5979822959555570e+00 +0.0000000000000000e+00 -7.9999999973880354e-01 +4.4260932164164597e-05 +0.0000000000000000e+00 +9.9999999902048486e-01
-8.5000000000000020e-01 +8.5979800137461861e+00 +0.0000000000000000e+00 -8.4999999968670281e-01 +4.7027448304668557e-05 +0.0000000000000000e+00 +9.9999999889420943e-01
-9.0000000000000024e-01 +8.5979775932101461e+00 +0.0000000000000000e+00 -8.9999999962809696e-01 +4.9793999254969692e-05 +0.0000000000000000e+00 +9.9999999876027867e-01
-9.5000000000000029e-01 +8.5979750343456516e+00 +0.0000000000000000e+00 -9.4999999956260317e-01 +5.2560586720555229e-05 +0.0000000000000000e+00 +9.9999999861869227e-01
-1.0000000000000002e+00 +8.5979723371508356e+00 +0.0000000000000000e+00 -9.9999999948983864e-01 +5.5327212402689025e-05 +0.0000000000000000e+00 +9.9999999846944965e-01
-1.0500000000000003e+00 +8.5979695016237461e+00 +0.0000000000000000e+00 -1.0499999994094205e+00 +5.8093877998411653e-05 +0.0000000000000000e+00 +9.9999999831255049e-01
-1.1000000000000003e+00 +8.5979665277623436e+00 +0.0000000000000000e+00 -1.0999999993209659e+00 +6.0860585200540475e-05 +0.0000000000000000e+00 +9.9999999814799445e-01
-1.1500000000000004e+00 +8.5979634155645055e+00 +0.0000000000000000e+00 -1.1499999992240921e+00 +6.3627335697669701e-05 +0.0000000000000000e+00 +9.9999999797578099e-01
-1.2000000000000004e+00 +8.5979601650280237e+00 +0.0000000000000000e+00 -1.1999999991184163e+00 +6.6394131174170486e-05 +0.0000000000000000e+00 +9.9999999779590953e-01
-1.2500000000000004e+00 +8.5979567761506104e+00 +0.0000000000000000e+00 -1.2499999990035553e+00 +6.9160973310190997e-05 +0.0000000000000000e+00 +9.9999999760837976e-01
-1.3000000000000005e+00 +8.5979532489298887e+00 +0.0000000000000000e+00 -1.2999999988791264e+00 +7.1927863781656490e-05 +0.0000000000000000e+00 +9.9999999741319112e-01
-1.3500000000000005e+00 +8.5979495833634001e+00 +0.0000000000000000e+00 -1.3499999987447466e+00 +7.4694804260269372e-05 +0.0000000000000000e+00 +9.9999999721034305e-01
-1.4000000000000006e+00 +8.5979457794486027e+00 +0.0000000000000000e+00 -1.3999999986000331e+00 +7.7461796413509274e-05 +0.0000000000000000e+00 +9.9999999699983499e-01
-1.4500000000000006e+00 +8.5979418371828711e+00 +0.0000000000000000e+00 -1.4499999984446026e+00 +8.0228841904633145e-05 +0.0000000000000000e+00 +9.9999999678166640e-01
-1.5000000000000007e+00 +8.5979377565634962e+00 +0.0000000000000000e+00 -1.4999999982780721e+00 +8.2995942392675317e-05 +0.0000000000000000e+00 +9.9999999655583671e-01
-1.5500000000000007e+00 +8.5979335375876875e+00 +0.0000000000000000e+00 -1.5499999981000585e+00 +8.5763099532447563e-05 +0.0000000000000000e+00 +9.9999999632234526e-01
-1.6000000000000008e+00 +8.5979291802525708e+00 +0.0000000000000000e+00 -1.5999999979101789e+00 +8.8530314974539175e-05 +0.0000000000000000e+00 +9.9999999608119150e-01
-1.6500000000000008e+00 +8.5979246845551902e+00 +0.0000000000000000e+00 -1.6499999977080499e+00 +9.1297590365317047e-05 +0.0000000000000000e+00 +9.9999999583237487e-01
-1.7000000000000008e+00 +8.5979200504925082e+00 +0.0000000000000000e+00 -1.6999999974932887e+00 +9.4064927346925757e-05 +0.0000000000000000e+00 +9.9999999557589458e-01
-1.7500000000000009e+00 +8.5979152780614019e+00 +0.0000000000000000e+00 -1.7499999972655118e+00 +9.6832327557287606e-05 +0.0000000000000000e+00 +9.9999999531174999e-01
-1.8000000000000009e+00 +8.5979103672586703e+00 +0.0000000000000000e+00 -1.7999999970243361e+00 +9.9599792630102700e-05 +0.0000000000000000e+00 +9.9999999503994053e-01
-1.8500000000000010e+00 +8.5979053180810308e+00 +0.0000000000000000e+00 -1.8499999967693781e+00 +1.0236732419484904e-04 +0.0000000000000000e+00 +9.9999999476046530e-01
-1.9000000000000010e+00 +8.5979001305251170e+00 +0.0000000000000000e+00 -1.8999999965002548e+00 +1.0513492387678259e-04 +0.0000000000000000e+00 +9.9999999447332377e-01
-1.9500000000000011e+00 +8.5978948045874812e+00 +0.0000000000000000e+00 -1.9499999962165826e+00 +1.0790259329693731e-04 +0.0000000000000000e+00 +9.9999999417851504e-01
-2.0000000000000009e+00 +8.5978893402645973e+00 +0.0000000000000000e+00 -1.9999999959179784e+00 +1.1067033407212528e-04 +0.0000000000000000e+00 +9.9999999387603844e-01
-2.0500000000000007e+00 +8.5978837375528574e+00 +0.0000000000000000e+00 -2.0499999956040584e+00 +1.1343814781468553e-04 +0.0000000000000000e+00 +9.9999999356589320e-01
-2.1000000000000005e+00 +8.5978779964485721e+00 +0.0000000000000000e+00 -2.0999999952744397e+00 +1.1620603612972109e-04 +0.0000000000000000e+00 +9.9999999324807842e-01
-2.1500000000000004e+00 +8.5978721169479737e+00 +0.0000000000000000e+00 -2.1499999949287383e+00 +1.1897400061233586e-04 +0.0000000000000000e+00 +9.9999999292259345e-01
-2.2000000000000002e+00 +8.5978660990472147e+00 +0.0000000000000000e+00 -2.1999999945665709e+00 +1.2174204284738353e-04 +0.0000000000000000e+00 +9.9999999258943739e-01
-2.2500000000000000e+00 +8.5978599427423674e+00 +0.0000000000000000e+00 -2.2499999941875539e+00 +1.2451016440946766e-04 +0.0000000000000000e+00 +9.9999999224860936e-01
-2.2999999999999998e+00 +8.5978536480294263e+00 +0.0000000000000000e+00 -2.2999999937913040e+00 +1.2727836686294167e-04 +0.0000000000000000e+00 +9.9999999190010858e-01
-2.3499999999999996e+00 +8.5978472149043075e+00 +0.0000000000000000e+00 -2.3499999933774371e+00 +1.3004665176190891e-04 +0.0000000000000000e+00 +9.9999999154393404e-01
-2.3999999999999995e+00 +8.5978406433628507e+00 +0.0000000000000000e+00 -2.3999999929455695e+00 +1.3281502065022274e-04 +0.0000000000000000e+00 +9.9999999118008498e-01
-2.4499999999999993e+00 +8.5978339334008176e+00 +0.0000000000000000e+00 -2.4499999924953175e+00 +1.3558347506148656e-04 +0.0000000000000000e+00 +9.9999999080856050e-01
-2.4999999999999991e+00 +8.5978270850138934e+00 +0.0000000000000000e+00 -2.4999999920262974e+00 +1.3835201651905382e-04 +0.0000000000000000e+00 +9.9999999042935961e-01
-2.5499999999999989e+00 +8.5978200981976887e+00 +0.0000000000000000e+00 -2.5499999915381255e+00 +1.4112064653602809e-04 +0.0000000000000000e+00 +9.9999999004248141e-01
-2.5999999999999988e+00 +8.5978129729477377e+00 +0.0000000000000000e+00 -2.5999999910304177e+00 +1.4388936661526315e-04 +0.0000000000000000e+00 +9.9999998964792491e-01
-2.6499999999999986e+00 +8.5978057092595002e+00 +0.0000000000000000e+00 -2.6499999905027902e+00 +1.4665817824936297e-04 +0.0000000000000000e+00 +9.9999998924568922e-01
-2.6999999999999984e+00 +8.5977983071283610e+00 +0.0000000000000000e+00 -2.6999999899548586e+00 +1.4942708292068179e-04 +0.0000000000000000e+00 +9.9999998883577323e-01
-2.7499999999999982e+00 +8.5977907665496325e+00 +0.0000000000000000e+00 -2.7499999893862395e+00 +1.5219608210132412e-04 +0.0000000000000000e+00 +9.9999998841817606e-01
-2.7999999999999980e+00 +8.5977830875185521e+00 +0.0000000000000000e+00 -2.7999999887965483e+00 +1.5496517725314482e-04 +0.0000000000000000e+00 +9.9999998799289669e-01
-2.8499999999999979e+00 +8.5977752700302847e+00 +0.0000000000000000e+00 -2.8499999881854010e+00 +1.5773436982774913e-04 +0.0000000000000000e+00 +9.9999998755993402e-01
-2.8999999999999977e+00 +8.5977673140799222e+00 +0.0000000000000000e+00 -2.8999999875524134e+00 +1.6050366126649270e-04 +0.0000000000000000e+00 +9.9999998711928706e-01
-2.9499999999999975e+00 +8.5977592196624872e+00 +0.0000000000000000e+00 -2.9499999868972013e+00 +1.6327305300048157e-04 +0.0000000000000000e+00 +9.9999998667095480e-01
-2.9999999999999973e+00 +8.5977509867729278e+00 +0.0000000000000000e+00 -2.9999999862193807e+00 +1.6604254645057235e-04 +0.0000000000000000e+00 +9.9999998621493613e-01
-3.0499999999999972e+00 +8.5977426154061227e+00 +0.0000000000000000e+00 -3.0499999855185669e+00 +1.6881214302737213e-04 +0.0000000000000000e+00 +9.9999998575122995e-01
-3.0999999999999970e+00 +8.5977341055568814e+00 +0.0000000000000000e+00 -3.0999999847943753e+00 +1.7158184413123851e-04 +0.0000000000000000e+00 +9.9999998527983514e-01
-3.1499999999999968e+00 +8.5977254572199442e+00 +0.0000000000000000e+00 -3.1499999840464219e+00 +1.7435165115227969e-04 +0.0000000000000000e+00 +9.9999998480075059e-01
-3.1999999999999966e+00 +8.5977166703899783e+00 +0.0000000000000000e+00 -3.1999999832743220e+00 +1.7712156547035452e-04 +0.0000000000000000e+00 +9.9999998431397519e-01
-3.2499999999999964e+00 +8.5977077450615855e+00 +0.0000000000000000e+00 -3.2499999824776911e+00 +1.7989158845507241e-04 +0.0000000000000000e+00 +9.9999998381950783e-01
-3.2999999999999963e+00 +8.5976986812292981e+00 +0.0000000000000000e+00 -3.2999999816561445e+00 +1.8266172146579350e-04 +0.0000000000000000e+00 +9.9999998331734741e-01
-3.3499999999999961e+00 +8.5976894788875828e+00 +0.0000000000000000e+00 -3.3499999808092977e+00 +1.8543196585162861e-04 +0.0000000000000000e+00 +9.9999998280749269e-01
-3.3999999999999959e+00 +8.5976801380308352e+00 +0.0000000000000000e+00 -3.3999999799367657e+00 +1.8820232295143924e-04 +0.0000000000000000e+00 +9.9999998228994247e-01
-3.4499999999999957e+00 +8.5976706586533869e+00 +0.0000000000000000e+00 -3.4499999790381639e+00 +1.9097279409383764e-04 +0.0000000000000000e+00 +9.9999998176469562e-01
-3.4999999999999956e+00 +8.5976610407495038e+00 +0.0000000000000000e+00 -3.4999999781131073e+00 +1.9374338059718687e-04 +0.0000000000000000e+00 +9.9999998123175093e-01
-3.5499999999999954e+00 +8.5976512843133825e+00 +0.0000000000000000e+00 -3.5499999771612107e+00 +1.9651408376960069e-04 +0.0000000000000000e+00 +9.9999998069110707e-01
-3.5999999999999952e+00 +8.5976413893391594e+00 +0.0000000000000000e+00 -3.5999999761820898e+00 +1.9928490490894377e-04 +0.0000000000000000e+00 +9.9999998014276292e-01
-3.6499999999999950e+00 +8.5976313558209032e+00 +0.0000000000000000e+00 -3.6499999751753589e+00 +2.0205584530283153e-04 +0.0000000000000000e+00 +9.9999997958671727e-01
-3.6999999999999948e+00 +8.5976211837526204e+00 +0.0000000000000000e+00 -3.6999999741406331e+00 +2.0482690622863024e-04 +0.0000000000000000e+00 +9.9999997902296878e-01
-3.7499999999999947e+00 +8.5976108731282501e+00 +0.0000000000000000e+00 -3.7499999730775273e+00 +2.0759808895345707e-04 +0.0000000000000000e+00 +9.9999997845151622e-01
-3.7999999999999945e+00 +8.5976004239416728e+00 +0.0000000000000000e+00 -3.7999999719856561e+00 +2.1036939473418001e-04 +0.0000000000000000e+00 +9.9999997787235839e-01
-3.8499999999999943e+00 +8.5975898361867049e+00 +0.0000000000000000e+00 -3.8499999708646344e+00 +2.1314082481741799e-04 +0.0000000000000000e+00 +9.9999997728549395e-01
-3.8999999999999941e+00 +8.5975791098570991e+00 +0.0000000000000000e+00 -3.8999999697140768e+00 +2.1591238043954081e-04 +0.0000000000000000e+00 +9.9999997669092155e-01
-3.9499999999999940e+00 +8.5975682449465474e+00 +0.0000000000000000e+00 -3.9499999685335978e+00 +2.1868406282666921e-04 +0.0000000000000000e+00 +9.9999997608863989e-01
-3.9999999999999938e+00 +8.5975572414486834e+00 +0.0000000000000000e+00 -3.9999999673228119e+00 +2.2145587319467486e-04 +0.0000000000000000e+00 +9.9999997547864761e-01
-4.0499999999999936e+00 +8.5975460993570749e+00 +0.0000000000000000e+00 -4.0499999660813337e+00 +2.2422781274905837e-04 +0.0000000000000000e+00 +9.9999997486094350e-01
-4.0999999999999934e+00 +8.5975348186652347e+00 +0.0000000000000000e+00 -4.0999999648087773e+00 +2.2699988268360722e-04 +0.0000000000000000e+00 +9.9999997423552611e-01
-4.1499999999999932e+00 +8.5975233993666134e+00 +0.0000000000000000e+00 -4.1499999635047571e+00 +2.2977208417905386e-04 +0.0000000000000000e+00 +9.9999997360239412e-01
-4.1999999999999931e+00 +8.5975118414546046e+00 +0.0000000000000000e+00 -4.1999999621688877e+00 +2.3254441840295367e-04 +0.0000000000000000e+00 +9.9999997296154619e-01
-4.2499999999999929e+00 +8.5975001449225417e+00 +0.0000000000000000e+00 -4.2499999608007828e+00 +2.3531688650968492e-04 +0.0000000000000000e+00 +9.9999997231298088e-01
-4.2999999999999927e+00 +8.5974883097637029e+00 +0.0000000000000000e+00 -4.2999999594000569e+00 +2.3808948964044888e-04 +0.0000000000000000e+00 +9.9999997165669685e-01
-4.3499999999999925e+00 +8.5974763359713080e+00 +0.0000000000000000e+00 -4.3499999579663235e+00 +2.4086222892326974e-04 +0.0000000000000000e+00 +9.9999997099269267e-01
-4.3999999999999924e+00 +8.5974642235385215e+00 +0.0000000000000000e+00 -4.3999999564991974e+00 +2.4363510547299467e-04 +0.0000000000000000e+00 +9.9999997032096699e-01
-4.4499999999999922e+00 +8.5974519724584528e+00 +0.0000000000000000e+00 -4.4499999549982920e+00 +2.4640812039129382e-04 +0.0000000000000000e+00 +9.9999996964151838e-01
-4.4999999999999920e+00 +8.5974395827241565e+00 +0.0000000000000000e+00 -4.4999999534632211e+00 +2.4918127476666034e-04 +0.0000000000000000e+00 +9.9999996895434540e-01
-4.5499999999999918e+00 +8.5974270543286337e+00 +0.0000000000000000e+00 -4.5499999518935983e+00 +2.5195456967441033e-04 +0.0000000000000000e+00 +9.9999996825944659e-01
-4.5999999999999917e+00 +8.5974143872648288e+00 +0.0000000000000000e+00 -4.5999999502890372e+00 +2.5472800617668294e-04 +0.0000000000000000e+00 +9.9999996755682063e-01
-4.6499999999999915e+00 +8.5974015815256379e+00 +0.0000000000000000e+00 -4.6499999486491514e+00 +2.5750158532244024e-04 +0.0000000000000000e+00 +9.9999996684646597e-01
-4.6999999999999913e+00 +8.5973886371039026e+00 +0.0000000000000000e+00 -4.6999999469735547e+00 +2.6027530814746737e-04 +0.0000000000000000e+00 +9.9999996612838116e-01
-4.7499999999999911e+00 +8.5973755539924124e+00 +0.0000000000000000e+00 -4.7499999452618606e+00 +2.6304917567437241e-04 +0.0000000000000000e+00 +9.9999996540256475e-01
-4.7999999999999909e+00 +8.5973623321839074e+00 +0.0000000000000000e+00 -4.7999999435136820e+00 +2.6582318891258658e-04 +0.0000000000000000e+00 +9.9999996466901531e-01
-4.8499999999999908e+00 +8.5973489716710763e+00 +0.0000000000000000e+00 -4.8499999417286332e+00 +2.6859734885836394e-04 +0.0000000000000000e+00 +9.9999996392773127e-01
-4.8999999999999906e+00 +8.5973354724465594e+00 +0.0000000000000000e+00 -4.8999999399063263e+00 +2.7137165649478162e-04 +0.0000000000000000e+00 +9.9999996317871120e-01
-4.9499999999999904e+00 +8.5973218345029494e+00 +0.0000000000000000e+00 -4.9499999380463748e+00 +2.7414611279173983e-04 +0.0000000000000000e+00 +9.9999996242195355e-01
-4.9999999999999902e+00 +8.5973080578327874e+00 +0.0000000000000000e+00 -4.9999999361483924e+00 +2.7692071870596166e-04 +0.0000000000000000e+00 +9.9999996165745686e-01
-5.0499999999999901e+00 +8.5972941424285700e+00 +0.0000000000000000e+00 -5.0499999342119919e+00 +2.7969547518099324e-04 +0.0000000000000000e+00 +9.9999996088521959e-01
-5.0999999999999899e+00 +8.5972800882827443e+00 +0.0000000000000000e+00 -5.0999999322367859e+00 +2.8247038314720374e-04 +0.0000000000000000e+00 +9.9999996010524028e-01
-5.1499999999999897e+00 +8.5972658953877144e+00 +0.0000000000000000e+00 -5.1499999302223873e+00 +2.8524544352178527e-04 +0.0000000000000000e+00 +9.9999995931751740e-01
-5.1999999999999895e+00 +8.5972515637358367e+00 +0.0000000000000000e+00 -5.1999999281684088e+00 +2.8802065720875291e-04 +0.0000000000000000e+00 +9.9999995852204937e-01
-5.2499999999999893e+00 +8.5972370933194231e+00 +0.0000000000000000e+00 -5.2499999260744632e+00 +2.9079602509894480e-04 +0.0000000000000000e+00 +9.9999995771883476e-01
-5.2999999999999892e+00 +8.5972224841307412e+00 +0.0000000000000000e+00 -5.2999999239401632e+00 +2.9357154807002194e-04 +0.0000000000000000e+00 +9.9999995690787191e-01
-5.3499999999999890e+00 +8.5972077361620158e+00 +0.0000000000000000e+00 -5.3499999217651215e+00 +2.9634722698646833e-04 +0.0000000000000000e+00 +9.9999995608915937e-01
-5.3999999999999888e+00 +8.5971928494054293e+00 +0.0000000000000000e+00 -5.3999999195489501e+00 +2.9912306269959090e-04 +0.0000000000000000e+00 +9.9999995526269547e-01
-5.4499999999999886e+00 +8.5971778238531193e+00 +0.0000000000000000e+00 -5.4499999172912617e+00 +3.0189905604751949e-04 +0.0000000000000000e+00 +9.9999995442847878e-01
-5.4999999999999885e+00 +8.5971626594971831e+00 +0.0000000000000000e+00 -5.4999999149916690e+00 +3.0467520785520697e-04 +0.0000000000000000e+00 +9.9999995358650762e-01
-5.5499999999999883e+00 +8.5971473563296783e+00 +0.0000000000000000e+00 -5.5499999126497839e+00 +3.0745151893442899e-04 +0.0000000000000000e+00 +9.9999995273678044e-01
-5.5999999999999881e+00 +8.5971319143426221e+00 +0.0000000000000000e+00 -5.5999999102652183e+00 +3.1022799008378416e-04 +0.0000000000000000e+00 +9.9999995187929569e-01
-5.6499999999999879e+00 +8.5971163335279890e+00 +0.0000000000000000e+00 -5.6499999078375840e+00 +3.1300462208869395e-04 +0.0000000000000000e+00 +9.9999995101405181e-01
-5.6999999999999877e+00 +8.5971006138777195e+00 +0.0000000000000000e+00 -5.6999999053664938e+00 +3.1578141572140267e-04 +0.0000000000000000e+00 +9.9999995014104726e-01
-5.7499999999999876e+00 +8.5970847553837118e+00 +0.0000000000000000e+00 -5.7499999028515596e+00 +3.1855837174097750e-04 +0.0000000000000000e+00 +9.9999994926028035e-01
-5.7999999999999874e+00 +8.5970687580378264e+00 +0.0000000000000000e+00 -5.7999999002923923e+00 +3.2133549089330844e-04 +0.0000000000000000e+00 +9.9999994837174955e-01
-5.8499999999999872e+00 +8.5970526218318906e+00 +0.0000000000000000e+00 -5.8499998976886047e+00 +3.2411277391110831e-04 +0.0000000000000000e+00 +9.9999994747545329e-01
