# trajectory
# s[mm] rx[mm] ry[mm] rz[mm] px[rad] py[rad] pz[rad]
0.0000000000000000e+00 +8.2850000000000001e+00 +0.0000000000000000e+00 +0.0000000000000000e+00 +0.0000000000000000e+00 +0.0000000000000000e+00 +1.0000000000000000e+00
5.0000000000000003e-02 +8.2849999311197582e+00 +0.0000000000000000e+00 +4.9999999999936734e-02 -2.7552101238156062e-06 +0.0000000000000000e+00 +9.9999999999620437e-01
1.0000000000000001e-01 +8.2849997244789240e+00 +0.0000000000000000e+00 +9.9999999999493910e-02 -5.5104240416620537e-06 +0.0000000000000000e+00 +9.9999999998481759e-01
1.5000000000000002e-01 +8.2849993800772577e+00 +0.0000000000000000e+00 +1.4999999999829197e-01 -8.2656437340797962e-06 +0.0000000000000000e+00 +9.9999999996583955e-01
2.0000000000000001e-01 +8.2849988979144218e+00 +0.0000000000000000e+00 +1.9999999999595133e-01 -1.1020871177605921e-05 +0.0000000000000000e+00 +9.9999999993927013e-01
2.5000000000000000e-01 +8.2849982779899776e+00 +0.0000000000000000e+00 +2.4999999999209246e-01 -1.3776108344774248e-05 +0.0000000000000000e+00 +9.9999999990510935e-01
2.9999999999999999e-01 +8.2849975203033921e+00 +0.0000000000000000e+00 +2.9999999998633575e-01 -1.6531357204115419e-05 +0.0000000000000000e+00 +9.9999999986335708e-01
3.4999999999999998e-01 +8.2849966248540294e+00 +0.0000000000000000e+00 +3.4999999997830167e-01 -1.9286619720156995e-05 +0.0000000000000000e+00 +9.9999999981401311e-01
3.9999999999999997e-01 +8.2849955916411595e+00 +0.0000000000000000e+00 +3.9999999996761054e-01 -2.2041897853423541e-05 +0.0000000000000000e+00 +9.9999999975707732e-01
4.4999999999999996e-01 +8.2849944206639510e+00 +0.0000000000000000e+00 +4.4999999995388285e-01 -2.4797193560436732e-05 +0.0000000000000000e+00 +9.9999999969254949e-01
4.9999999999999994e-01 +8.2849931119214784e+00 +0.0000000000000000e+00 +4.9999999993673894e-01 -2.7552508793715421e-05 +0.0000000000000000e+00 +9.9999999962042951e-01
5.4999999999999993e-01 +8.2849916654127149e+00 +0.0000000000000000e+00 +5.4999999991579929e-01 -3.0307845501775750e-05 +0.0000000000000000e+00 +9.9999999954071717e-01
5.9999999999999998e-01 +8.2849900811365380e+00 +0.0000000000000000e+00 +5.9999999989068420e-01 -3.3063205629131227e-05 +0.0000000000000000e+00 +9.9999999945341211e-01
6.5000000000000002e-01 +8.2849883590917290e+00 +0.0000000000000000e+00 +6.4999999986101398e-01 -3.5818591116292824e-05 +0.0000000000000000e+00 +9.9999999935851414e-01
7.0000000000000007e-01 +8.2849864992769717e+00 +0.0000000000000000e+00 +6.9999999982640904e-01 -3.8574003899769051e-05 +0.0000000000000000e+00 +9.9999999925602301e-01
7.5000000000000011e-01 +8.2849845016908521e+00 +0.0000000000000000e+00 +7.4999999978648968e-01 -4.1329445912066051e-05 +0.0000000000000000e+00 +9.9999999914593840e-01
8.0000000000000016e-01 +8.2849823663318602e+00 +0.0000000000000000e+00 +7.9999999974087632e-01 -4.4084919081687689e-05 +0.0000000000000000e+00 +9.9999999902825987e-01
8.5000000000000020e-01 +8.2849800931983921e+00 +0.0000000000000000e+00 +8.4999999968918916e-01 -4.6840425333135620e-05 +0.0000000000000000e+00 +9.9999999890298719e-01
9.0000000000000024e-01 +8.2849776822887442e+00 +0.0000000000000000e+00 +8.9999999963104849e-01 -4.9595966586909398e-05 +0.0000000000000000e+00 +9.9999999877011991e-01
9.5000000000000029e-01 +8.2849751336011188e+00 +0.0000000000000000e+00 +9.4999999956607462e-01 -5.2351544759506535e-05 +0.0000000000000000e+00 +9.9999999862965772e-01
1.0000000000000002e+00 +8.2849724471336224e+00 +0.0000000000000000e+00 +9.9999999949388774e-01 -5.5107161763422603e-05 +0.0000000000000000e+00 +9.9999999848160015e-01
1.0500000000000003e+00 +8.2849696228842635e+00 +0.0000000000000000e+00 +1.0499999994141080e+00 -5.7862819507151310e-05 +0.0000000000000000e+00 +9.9999999832594688e-01
1.1000000000000003e+00 +8.2849666608509605e+00 +0.0000000000000000e+00 +1.0999999993263558e+00 -6.0618519895184569e-05 +0.0000000000000000e+00 +9.9999999816269736e-01
1.1500000000000004e+00 +8.2849635610315318e+00 +0.0000000000000000e+00 +1.1499999992302512e+00 -6.3374264828012594e-05 +0.0000000000000000e+00 +9.9999999799185113e-01
1.2000000000000004e+00 +8.2849603234237037e+00 +0.0000000000000000e+00 +1.1999999991254144e+00 -6.6130056202123974e-05 +0.0000000000000000e+00 +9.9999999781340765e-01
1.2500000000000004e+00 +8.2849569480251066e+00 +0.0000000000000000e+00 +1.2499999990114654e+00 -6.8885895910005758e-05 +0.0000000000000000e+00 +9.9999999762736647e-01
1.3000000000000005e+00 +8.2849534348332767e+00 +0.0000000000000000e+00 +1.2999999988880244e+00 -7.1641785840143501e-05 +0.0000000000000000e+00 +9.9999999743372703e-01
1.3500000000000005e+00 +8.2849497838456543e+00 +0.0000000000000000e+00 +1.3499999987547115e+00 -7.4397727877021378e-05 +0.0000000000000000e+00 +9.9999999723248878e-01
1.4000000000000006e+00 +8.2849459950595890e+00 +0.0000000000000000e+00 +1.3999999986111467e+00 -7.7153723901122258e-05 +0.0000000000000000e+00 +9.9999999702365117e-01
1.4500000000000006e+00 +8.2849420684723327e+00 +0.0000000000000000e+00 +1.4499999984569500e+00 -7.9909775788927765e-05 +0.0000000000000000e+00 +9.9999999680721363e-01
1.5000000000000007e+00 +8.2849380040810470e+00 +0.0000000000000000e+00 +1.4999999982917414e+00 -8.2665885412918340e-05 +0.0000000000000000e+00 +9.9999999658317551e-01
1.5500000000000007e+00 +8.2849338018827972e+00 +0.0000000000000000e+00 +1.5499999981151409e+00 -8.5422054641573353e-05 +0.0000000000000000e+00 +9.9999999635153614e-01
1.6000000000000008e+00 +8.2849294618745581e+00 +0.0000000000000000e+00 +1.5999999979267683e+00 -8.8178285339371131e-05 +0.0000000000000000e+00 +9.9999999611229484e-01
1.6500000000000008e+00 +8.2849249840532089e+00 +0.0000000000000000e+00 +1.6499999977262436e+00 -9.0934579366789076e-05 +0.0000000000000000e+00 +9.9999999586545096e-01
1.7000000000000008e+00 +8.2849203684155359e+00 +0.0000000000000000e+00 +1.6999999975131868e+00 -9.3690938580303694e-05 +0.0000000000000000e+00 +9.9999999561100383e-01
1.7500000000000009e+00 +8.2849156149582335e+00 +0.0000000000000000e+00 +1.7499999972872173e+00 -9.6447364832390691e-05 +0.0000000000000000e+00 +9.9999999534895267e-01
1.8000000000000009e+00 +8.2849107236779034e+00 +0.0000000000000000e+00 +1.7999999970479552e+00 -9.9203859971525041e-05 +0.0000000000000000e+00 +9.9999999507929682e-01
1.8500000000000010e+00 +8.2849056945710569e+00 +0.0000000000000000e+00 +1.8499999967950203e+00 -1.0196042584218105e-04 +0.0000000000000000e+00 +9.9999999480203550e-01
1.9000000000000010e+00 +8.2849005276341092e+00 +0.0000000000000000e+00 +1.8999999965280321e+00 -1.0471706428483243e-04 +0.0000000000000000e+00 +9.9999999451716792e-01
1.9500000000000011e+00 +8.2848952228633870e+00 +0.0000000000000000e+00 +1.9499999962466104e+00 -1.0747377713595234e-04 +0.0000000000000000e+00 +9.9999999422469332e-01
2.0000000000000009e+00 +8.2848897802551242e+00 +0.0000000000000000e+00 +1.9999999959503747e+00 -1.1023056622801350e-04 +0.0000000000000000e+00 +9.9999999392461081e-01
2.0500000000000007e+00 +8.2848841998054628e+00 +0.0000000000000000e+00 +2.0499999956389447e+00 -1.1298743338922575e-04 +0.0000000000000000e+00 +9.9999999361691960e-01
2.1000000000000005e+00 +8.2848784815104537e+00 +0.0000000000000000e+00 +2.0999999953119399e+00 -1.1574438044064902e-04 +0.0000000000000000e+00 +9.9999999330161882e-01
2.1500000000000004e+00 +8.2848726253660576e+00 +0.0000000000000000e+00 +2.1499999949689799e+00 -1.1850140919330626e-04 +0.0000000000000000e+00 +9.9999999297870767e-01
2.2000000000000002e+00 +8.2848666313681427e+00 +0.0000000000000000e+00 +2.1999999946096840e+00 -1.2125852144792107e-04 +0.0000000000000000e+00 +9.9999999264818518e-01
2.2500000000000000e+00 +8.2848604995124902e+00 +0.0000000000000000e+00 +2.2499999942336717e+00 -1.2401571899491775e-04 +0.0000000000000000e+00 +9.9999999231005043e-01
2.2999999999999998e+00 +8.2848542297947922e+00 +0.0000000000000000e+00 +2.2999999938405624e+00 -1.2677300361442134e-04 +0.0000000000000000e+00 +9.9999999196430245e-01
2.3499999999999996e+00 +8.2848478222106490e+00 +0.0000000000000000e+00 +2.3499999934299751e+00 -1.2953037707625774e-04 +0.0000000000000000e+00 +9.9999999161094033e-01
2.3999999999999995e+00 +8.2848412767555750e+00 +0.0000000000000000e+00 +2.3999999930015292e+00 -1.3228784113995370e-04 +0.0000000000000000e+00 +9.9999999124996319e-01
2.4499999999999993e+00 +8.2848345934249963e+00 +0.0000000000000000e+00 +2.4499999925548441e+00 -1.3504539755473691e-04 +0.0000000000000000e+00 +9.9999999088136993e-01
2.4999999999999991e+00 +8.2848277722142516e+00 +0.0000000000000000e+00 +2.4999999920895393e+00 -1.3780304805953610e-04 +0.0000000000000000e+00 +9.9999999050515964e-01
2.5499999999999989e+00 +8.2848208131185928e+00 +0.0000000000000000e+00 +2.5499999916052332e+00 -1.4056079438298102e-04 +0.0000000000000000e+00 +9.9999999012133123e-01
2.5999999999999988e+00 +8.2848137161331863e+00 +0.0000000000000000e+00 +2.5999999911015452e+00 -1.4331863824340260e-04 +0.0000000000000000e+00 +9.9999998972988369e-01
2.6499999999999986e+00 +8.2848064812531135e+00 +0.0000000000000000e+00 +2.6499999905780944e+00 -1.4607658134883287e-04 +0.0000000000000000e+00 +9.9999998933081591e-01
2.6999999999999984e+00 +8.2847991084733685e+00 +0.0000000000000000e+00 +2.6999999900344998e+00 -1.4883462539700518e-04 +0.0000000000000000e+00 +9.9999998892412689e-01
2.7499999999999982e+00 +8.2847915977888622e+00 +0.0000000000000000e+00 +2.7499999894703802e+00 -1.5159277207535415e-04 +0.0000000000000000e+00 +9.9999998850981542e-01
2.7999999999999980e+00 +8.2847839491944217e+00 +0.0000000000000000e+00 +2.7999999888853542e+00 -1.5435102306101574e-04 +0.0000000000000000e+00 +9.9999998808788049e-01
2.8499999999999979e+00 +8.2847761626847891e+00 +0.0000000000000000e+00 +2.8499999882790408e+00 -1.5710938002082731e-04 +0.0000000000000000e+00 +9.9999998765832099e-01
2.8999999999999977e+00 +8.2847682382546246e+00 +0.0000000000000000e+00 +2.8999999876510589e+00 -1.5986784461132769e-04 +0.0000000000000000e+00 +9.9999998722113581e-01
2.9499999999999975e+00 +8.2847601758985068e+00 +0.0000000000000000e+00 +2.9499999870010272e+00 -1.6262641847875721e-04 +0.0000000000000000e+00 +9.9999998677632373e-01
2.9999999999999973e+00 +8.2847519756109289e+00 +0.0000000000000000e+00 +2.9999999863285640e+00 -1.6538510325905776e-04 +0.0000000000000000e+00 +9.9999998632388354e-01
3.0499999999999972e+00 +8.2847436373863061e+00 +0.0000000000000000e+00 +3.0499999856332884e+00 -1.6814390057787290e-04 +0.0000000000000000e+00 +9.9999998586381411e-01
3.0999999999999970e+00 +8.2847351612189701e+00 +0.0000000000000000e+00 +3.0999999849148185e+00 -1.7090281205054780e-04 +0.0000000000000000e+00 +9.9999998539611412e-01
3.1499999999999968e+00 +8.2847265471031726e+00 +0.0000000000000000e+00 +3.1499999841727728e+00 -1.7366183928212937e-04 +0.0000000000000000e+00 +9.9999998492078246e-01
3.1999999999999966e+00 +8.2847177950330853e+00 +0.0000000000000000e+00 +3.1999999834067698e+00 -1.7642098386736629e-04 +0.0000000000000000e+00 +9.9999998443781790e-01
3.2499999999999964e+00 +8.2847089050028035e+00 +0.0000000000000000e+00 +3.2499999826164276e+00 -1.7918024739070905e-04 +0.0000000000000000e+00 +9.9999998394721912e-01
3.2999999999999963e+00 +8.2846998770063394e+00 +0.0000000000000000e+00 +3.2999999818013643e+00 -1.8193963142631002e-04 +0.0000000000000000e+00 +9.9999998344898489e-01
3.3499999999999961e+00 +8.2846907110376264e+00 +0.0000000000000000e+00 +3.3499999809611984e+00 -1.8469913753802348e-04 +0.0000000000000000e+00 +9.9999998294311387e-01
3.3999999999999959e+00 +8.2846814070905239e+00 +0.0000000000000000e+00 +3.3999999800955480e+00 -1.8745876727940564e-04 +0.0000000000000000e+00 +9.9999998242960486e-01
3.4499999999999957e+00 +8.2846719651588110e+00 +0.0000000000000000e+00 +3.4499999792040312e+00 -1.9021852219371478e-04 +0.0000000000000000e+00 +9.9999998190845651e-01
3.4999999999999956e+00 +8.2846623852361923e+00 +0.0000000000000000e+00 +3.4999999782862661e+00 -1.9297840381391119e-04 +0.0000000000000000e+00 +9.9999998137966739e-01
3.5499999999999954e+00 +8.2846526673162924e+00 +0.0000000000000000e+00 +3.5499999773418707e+00 -1.9573841366265726e-04 +0.0000000000000000e+00 +9.9999998084323627e-01
3.5999999999999952e+00 +8.2846428113926631e+00 +0.0000000000000000e+00 +3.5999999763704627e+00 -1.9849855325231752e-04 +0.0000000000000000e+00 +9.9999998029916171e-01
3.6499999999999950e+00 +8.2846328174587800e+00 +0.0000000000000000e+00 +3.6499999753716597e+00 -2.0125882408495867e-04 +0.0000000000000000e+00 +9.9999997974744237e-01
3.6999999999999948e+00 +8.2846226855080420e+00 +0.0000000000000000e+00 +3.6999999743450793e+00 -2.0401922765234966e-04 +0.0000000000000000e+00 +9.9999997918807682e-01
3.7499999999999947e+00 +8.2846124155337773e+00 +0.0000000000000000e+00 +3.7499999732903397e+00 -2.0677976543596172e-04 +0.0000000000000000e+00 +9.9999997862106371e-01
3.7999999999999945e+00 +8.2846020075292373e+00 +0.0000000000000000e+00 +3.7999999722070581e+00 -2.0954043890696834e-04 +0.0000000000000000e+00 +9.9999997804640162e-01
3.8499999999999943e+00 +8.2845914614876008e+00 +0.0000000000000000e+00 +3.8499999710948520e+00 -2.1230124952624540e-04 +0.0000000000000000e+00 +9.9999997746408908e-01
3.8999999999999941e+00 +8.2845807774019740e+00 +0.0000000000000000e+00 +3.8999999699533392e+00 -2.1506219874437116e-04 +0.0000000000000000e+00 +9.9999997687412467e-01
3.9499999999999940e+00 +8.2845699552653915e+00 +0.0000000000000000e+00 +3.9499999687821368e+00 -2.1782328800162631e-04 +0.0000000000000000e+00 +9.9999997627650694e-01
3.9999999999999938e+00 +8.2845589950708156e+00 +0.0000000000000000e+00 +3.9999999675808624e+00 -2.2058451872799398e-04 +0.0000000000000000e+00 +9.9999997567123433e-01
4.0499999999999936e+00 +8.2845478968111372e+00 +0.0000000000000000e+00 +4.0499999663491328e+00 -2.2334589234299410e-04 +0.0000000000000000e+00 +9.9999997505830540e-01
4.0999999999999934e+00 +8.2845366604791764e+00 +0.0000000000000000e+00 +4.0999999650865657e+00 -2.2610741025386091e-04 +0.0000000000000000e+00 +9.9999997443771871e-01
4.1499999999999932e+00 +8.2845252860676837e+00 +0.0000000000000000e+00 +4.1499999637927774e+00 -2.2886907385372027e-04 +0.0000000000000000e+00 +9.9999997380947270e-01
4.1999999999999931e+00 +8.2845137735693406e+00 +0.0000000000000000e+00 +4.1999999624673849e+00 -2.3163088452142402e-04 +0.0000000000000000e+00 +9.9999997317356581e-01
4.2499999999999929e+00 +8.2845021229767575e+00 +0.0000000000000000e+00 +4.2499999611100057e+00 -2.3439284362155005e-04 +0.0000000000000000e+00 +9.9999997252999651e-01
4.2999999999999927e+00 +8.2844903342824807e+00 +0.0000000000000000e+00 +4.2999999597202567e+00 -2.3715495250440217e-04 +0.0000000000000000e+00 +9.9999997187876333e-01
4.3499999999999925e+00 +8.2844784074789874e+00 +0.0000000000000000e+00 +4.3499999582977544e+00 -2.3991721250601027e-04 +0.0000000000000000e+00 +9.9999997121986461e-01
4.3999999999999924e+00 +8.2844663425586891e+00 +0.0000000000000000e+00 +4.3999999568421151e+00 -2.4267962494813020e-04 +0.0000000000000000e+00 +9.9999997055329881e-01
4.4499999999999922e+00 +8.2844541395139295e+00 +0.0000000000000000e+00 +4.4499999553529559e+00 -2.4544219113824386e-04 +0.0000000000000000e+00 +9.9999996987906437e-01
4.4999999999999920e+00 +8.2844417983369905e+00 +0.0000000000000000e+00 +4.4999999538298932e+00 -2.4820491236955910e-04 +0.0000000000000000e+00 +9.9999996919715972e-01
4.5499999999999918e+00 +8.2844293190200879e+00 +0.0000000000000000e+00 +4.5499999522725441e+00 -2.5096778992100984e-04 +0.0000000000000000e+00 +9.9999996850758321e-01
4.5999999999999917e+00 +8.2844167015553722e+00 +0.0000000000000000e+00 +4.5999999506805240e+00 -2.5373082505725599e-04 +0.0000000000000000e+00 +9.9999996781033318e-01
4.6499999999999915e+00 +8.2844039459349350e+00 +0.0000000000000000e+00 +4.6499999490534494e+00 -2.5649401902868348e-04 +0.0000000000000000e+00 +9.9999996710540806e-01
4.6999999999999913e+00 +8.2843910521508022e+00 +0.0000000000000000e+00 +4.6999999473909364e+00 -2.5925737307140416e-04 +0.0000000000000000e+00 +9.9999996639280619e-01
4.7499999999999911e+00 +8.2843780201949393e+00 +0.0000000000000000e+00 +4.7499999456926014e+00 -2.6202088840725598e-04 +0.0000000000000000e+00 +9.9999996567252591e-01
4.7999999999999909e+00 +8.2843648500592533e+00 +0.0000000000000000e+00 +4.7999999439580607e+00 -2.6478456624380277e-04 +0.0000000000000000e+00 +9.9999996494456556e-01
4.8499999999999908e+00 +8.2843515417355871e+00 +0.0000000000000000e+00 +4.8499999421869298e+00 -2.6754840777433442e-04 +0.0000000000000000e+00 +9.9999996420892356e-01
4.8999999999999906e+00 +8.2843380952157268e+00 +0.0000000000000000e+00 +4.8999999403788248e+00 -2.7031241417786668e-04 +0.0000000000000000e+00 +9.9999996346559816e-01
4.9499999999999904e+00 +8.2843245104914018e+00 +0.0000000000000000e+00 +4.9499999385333613e+00 -2.7307658661914136e-04 +0.0000000000000000e+00 +9.9999996271458769e-01
4.9999999999999902e+00 +8.2843107875542792e+00 +0.0000000000000000e+00 +4.9999999366501555e+00 -2.7584092624862615e-04 +0.0000000000000000e+00 +9.9999996195589047e-01
5.0499999999999901e+00 +8.2842969263959709e+00 +0.0000000000000000e+00 +5.0499999347288220e+00 -2.7860543420251462e-04 +0.0000000000000000e+00 +9.9999996118950474e-01
5.0999999999999899e+00 +8.2842829270080340e+00 +0.0000000000000000e+00 +5.0999999327689771e+00 -2.8137011160272627e-04 +0.0000000000000000e+00 +9.9999996041542882e-01
5.1499999999999897e+00 +8.2842687893819686e+00 +0.0000000000000000e+00 +5.1499999307702362e+00 -2.8413495955690649e-04 +0.0000000000000000e+00 +9.9999995963366106e-01
5.1999999999999895e+00 +8.2842545135092180e+00 +0.0000000000000000e+00 +5.1999999287322147e+00 -2.8689997915842650e-04 +0.0000000000000000e+00 +9.9999995884419968e-01
5.2499999999999893e+00 +8.2842400993811740e+00 +0.0000000000000000e+00 +5.2499999266545281e+00 -2.8966517148638340e-04 +0.0000000000000000e+00 +9.9999995804704289e-01
5.2999999999999892e+00 +8.2842255469891732e+00 +0.0000000000000000e+00 +5.2999999245367908e+00 -2.9243053760560006e-04 +0.0000000000000000e+00 +9.9999995724218893e-01
5.3499999999999890e+00 +8.2842108563244992e+00 +0.0000000000000000e+00 +5.3499999223786183e+00 -2.9519607856662511e-04 +0.0000000000000000e+00 +9.9999995642963613e-01
5.3999999999999888e+00 +8.2841960273783855e+00 +0.0000000000000000e+00 +5.3999999201796260e+00 -2.9796179540573299e-04 +0.0000000000000000e+00 +9.9999995560938271e-01
5.4499999999999886e+00 +8.2841810601420107e+00 +0.0000000000000000e+00 +5.4499999179394285e+00 -3.0072768914492389e-04 +0.0000000000000000e+00 +9.9999995478142689e-01
5.4999999999999885e+00 +8.2841659546065056e+00 +0.0000000000000000e+00 +5.4999999156576402e+00 -3.0349376079192360e-04 +0.0000000000000000e+00 +9.9999995394576691e-01
5.5499999999999883e+00 +8.2841507107629493e+00 +0.0000000000000000e+00 +5.5499999133338767e+00 -3.0626001134018371e-04 +0.0000000000000000e+00 +9.9999995310240097e-01
5.5999999999999881e+00 +8.2841353286023729e+00 +0.0000000000000000e+00 +5.5999999109677523e+00 -3.0902644176888136e-04 +0.0000000000000000e+00 +9.9999995225132732e-01
5.6499999999999879e+00 +8.2841198081157579e+00 +0.0000000000000000e+00 +5.6499999085588808e+00 -3.1179305304291933e-04 +0.0000000000000000e+00 +9.9999995139254416e-01
5.6999999999999877e+00 +8.2841041492940377e+00 +0.0000000000000000e+00 +5.6999999061068776e+00 -3.1455984611292593e-04 +0.0000000000000000e+00 +9.9999995052604973e-01
5.7499999999999876e+00 +8.2840883521280997e+00 +0.0000000000000000e+00 +5.7499999036113572e+00 -3.1732682191525503e-04 +0.0000000000000000e+00 +9.9999994965184213e-01
5.7999999999999874e+00 +8.2840724166087849e+00 +0.0000000000000000e+00 +5.7999999010719332e+00 -3.2009398137198598e-04 +0.0000000000000000e+00 +9.9999994876991960e-01
5.8499999999999872e+00 +8.2840563427268865e+00 +0.0000000000000000e+00 +5.8499998984882202e+00 -3.2286132539092354e-04 +0.0000000000000000e+00 +9.9999994788028024e-01
5.8999999999999870e+00 +8.2840401304731550e+00 +0.0000000000000000e+00 +5.8999998958598328e+00 -3.2562885486559797e-04 +0.0000000000000000e+00 +9.9999994698292238e-01
