# field on trajectory
# s[mm] rx[mm] ry[mm] rz[mm] bx[T] by[T] bz[T]
0.0000000000000000e+00 +8.5269999999999904e+00 +0.0000000000000000e+00 +0.0000000000000000e+00 -2.7997929981094519e-02 -5.2366641903604061e-01 +5.0591661432747778e-03
5.0000000000000003e-02 +8.5269999309457507e+00 +0.0000000000000000e+00 +4.9999999999936401e-02 -2.7998065524398333e-02 -5.2366815380491760e-01 +5.0596435801715444e-03
1.0000000000000001e-01 +8.5269997237883199e+00 +0.0000000000000000e+00 +9.9999999999491399e-02 -2.7998223176084941e-02 -5.2367025169175807e-01 +5.0601298889301786e-03
1.4999999999999999e-01 +8.5269993785295792e+00 +0.0000000000000000e+00 +1.4999999999828301e-01 -2.7998402814419170e-02 -5.2367271181848740e-01 +5.0606250513233206e-03
2.0000000000000001e-01 +8.5269988951622508e+00 +0.0000000000000000e+00 +1.9999999999593099e-01 -2.7998604317670817e-02 -5.2367553330711081e-01 +5.0611290491246984e-03
2.5000000000000000e-01 +8.5269982736936107e+00 +0.0000000000000000e+00 +2.4999999999205300e-01 -2.7998827564105738e-02 -5.2367871527954846e-01 +5.0616418641075463e-03
2.9999999999999999e-01 +8.5269975141200103e+00 +0.0000000000000000e+00 +2.9999999998626797e-01 -2.7999072431995287e-02 -5.2368225685781289e-01 +5.0621634780463080e-03
3.4999999999999998e-01 +8.5269966164378292e+00 +0.0000000000000000e+00 +3.4999999997819298e-01 -2.7999338799612170e-02 -5.2368615716393208e-01 +5.0626938727159169e-03
4.0000000000000002e-01 +8.5269955806543294e+00 +0.0000000000000000e+00 +3.9999999996744900e-01 -2.7999626545226326e-02 -5.2369041531987537e-01 +5.0632330298910500e-03
4.5000000000000001e-01 +8.5269944067658798e+00 +0.0000000000000000e+00 +4.4999999995365297e-01 -2.7999935547112956e-02 -5.2369503044770205e-01 +5.0637809313476018e-03
5.0000000000000000e-01 +8.5269930947724806e+00 +0.0000000000000000e+00 +4.9999999993642402e-01 -2.8000265683547070e-02 -5.2370000166946362e-01 +5.0643375588616995e-03
5.5000000000000004e-01 +8.5269916446777607e+00 +0.0000000000000000e+00 +5.4999999991537996e-01 -2.8000616832803360e-02 -5.2370532810720050e-01 +5.0649028942097128e-03
5.9999999999999998e-01 +8.5269900564744603e+00 +0.0000000000000000e+00 +5.9999999989013997e-01 -2.8000988873161620e-02 -5.2371100888304578e-01 +5.0654769191692244e-03
6.5000000000000002e-01 +8.5269883301661995e+00 +0.0000000000000000e+00 +6.4999999986032297e-01 -2.8001381682898490e-02 -5.2371704311907186e-01 +5.0660596155175765e-03
6.9999999999999996e-01 +8.5269864657566394e+00 +0.0000000000000000e+00 +6.9999999982554695e-01 -2.8001795140291479e-02 -5.2372342993736631e-01 +5.0666509650325797e-03
7.5000000000000000e-01 +8.5269844632421208e+00 +0.0000000000000000e+00 +7.4999999978543097e-01 -2.8002229123621571e-02 -5.2373016846008258e-01 +5.0672509494930299e-03
8.0000000000000004e-01 +8.5269823226226400e+00 +0.0000000000000000e+00 +7.9999999973959202e-01 -2.8002683511169160e-02 -5.2373725780936520e-01 +5.0678595506779582e-03
8.4999999999999998e-01 +8.5269800438982202e+00 +0.0000000000000000e+00 +8.4999999968765005e-01 -2.8003158181215220e-02 -5.2374469710737204e-01 +5.0684767503668725e-03
9.0000000000000002e-01 +8.5269776270688507e+00 +0.0000000000000000e+00 +8.9999999962922395e-01 -2.8003653012041343e-02 -5.2375248547627751e-01 +5.0691025303397806e-03
9.4999999999999996e-01 +8.5269750721381605e+00 +0.0000000000000000e+00 +9.4999999956393100e-01 -2.8004167881928291e-02 -5.2376062203824592e-01 +5.0697368723769190e-03
1.0000000000000000e+00 +8.5269723790988792e+00 +0.0000000000000000e+00 +9.9999999949139096e-01 -2.8004702669161267e-02 -5.2376910591553083e-01 +5.0703797582597483e-03
1.0500000000000000e+00 +8.5269695479546499e+00 +0.0000000000000000e+00 +1.0499999994112199e+00 -2.8005257252021819e-02 -5.2377793623032609e-01 +5.0710311697694790e-03
1.1000000000000001e+00 +8.5269665787091107e+00 +0.0000000000000000e+00 +1.0999999993230400e+00 -2.8005831508791750e-02 -5.2378711210484052e-01 +5.0716910886878051e-03
1.1499999999999999e+00 +8.5269634713586093e+00 +0.0000000000000000e+00 +1.1499999992264700e+00 -2.8006425317755827e-02 -5.2379663266134702e-01 +5.0723594967974047e-03
1.2000000000000000e+00 +8.5269602259031707e+00 +0.0000000000000000e+00 +1.1999999991211201e+00 -2.8007038557197599e-02 -5.2380649702210869e-01 +5.0730363758811859e-03
1.2500000000000000e+00 +8.5269568423427700e+00 +0.0000000000000000e+00 +1.2499999990066200e+00 -2.8007671105400686e-02 -5.2381670430940264e-01 +5.0737217077225522e-03
1.3000000000000000e+00 +8.5269533206774195e+00 +0.0000000000000000e+00 +1.2999999988825901e+00 -2.8008322840648726e-02 -5.2382725364552063e-01 +5.0744154741053926e-03
1.3500000000000001e+00 +8.5269496609071194e+00 +0.0000000000000000e+00 +1.3499999987486300e+00 -2.8008993641225305e-02 -5.2383814415276941e-01 +5.0751176568140854e-03
1.3999999999999999e+00 +8.5269458630355093e+00 +0.0000000000000000e+00 +1.3999999986043801e+00 -2.8009683385412480e-02 -5.2384937495344353e-01 +5.0758282376332422e-03
1.4500000000000000e+00 +8.5269419270553009e+00 +0.0000000000000000e+00 +1.4499999984494401e+00 -2.8010391951496221e-02 -5.2386094516992798e-01 +5.0765471983487097e-03
1.5000000000000000e+00 +8.5269378529737896e+00 +0.0000000000000000e+00 +1.4999999982834400e+00 -2.8011119217756748e-02 -5.2387285392452076e-01 +5.0772745207458324e-03
1.5500000000000000e+00 +8.5269336407873197e+00 +0.0000000000000000e+00 +1.5499999981060000e+00 -2.8011865062478037e-02 -5.2388510033961044e-01 +5.0780101866111857e-03
1.6000000000000001e+00 +8.5269292904959002e+00 +0.0000000000000000e+00 +1.5999999979167401e+00 -2.8012629363942308e-02 -5.2389768353757260e-01 +5.0787541777315894e-03
1.6499999999999999e+00 +8.5269248020995292e+00 +0.0000000000000000e+00 +1.6499999977152600e+00 -2.8013412000431247e-02 -5.2391060264079814e-01 +5.0795064758943458e-03
1.7000000000000000e+00 +8.5269201755982102e+00 +0.0000000000000000e+00 +1.6999999975011999e+00 -2.8014212850226004e-02 -5.2392385677169095e-01 +5.0802670628872539e-03
1.7500000000000000e+00 +8.5269154109919292e+00 +0.0000000000000000e+00 +1.7499999972741700e+00 -2.8015031791607102e-02 -5.2393744505266837e-01 +5.0810359204985960e-03
1.8000000000000000e+00 +8.5269105082843506e+00 +0.0000000000000000e+00 +1.7999999970337901e+00 -2.8015868702852966e-02 -5.2395136660613717e-01 +5.0818130305169008e-03
1.8500000000000001e+00 +8.5269054674718099e+00 +0.0000000000000000e+00 +1.8499999967796801e+00 -2.8016723462244052e-02 -5.2396562055456697e-01 +5.0825983747316917e-03
1.8999999999999999e+00 +8.5269002885506797e+00 +0.0000000000000000e+00 +1.8999999965114500e+00 -2.8017595948059887e-02 -5.2398020602044093e-01 +5.0833919349329544e-03
1.9500000000000000e+00 +8.5268949715282396e+00 +0.0000000000000000e+00 +1.9499999962287300e+00 -2.8018486038575048e-02 -5.2399512212618016e-01 +5.0841936929104589e-03
2.0000000000000000e+00 +8.5268895164008391e+00 +0.0000000000000000e+00 +1.9999999959311201e+00 -2.8019393612067203e-02 -5.2401036799429490e-01 +5.0850036304551805e-03
2.0499999999999998e+00 +8.5268839230666291e+00 +0.0000000000000000e+00 +2.0499999956182600e+00 -2.8020318544665315e-02 -5.2402594256879109e-01 +5.0858217240823192e-03
2.1000000000000001e+00 +8.5268781914164702e+00 +0.0000000000000000e+00 +2.0999999952897199e+00 -2.8021260703762776e-02 -5.2404184407696330e-01 +5.0866479291762712e-03
2.1499999999999999e+00 +8.5268723214576294e+00 +0.0000000000000000e+00 +2.1499999949451398e+00 -2.8022219954525220e-02 -5.2405807056611919e-01 +5.0874821958308810e-03
2.2000000000000002e+00 +8.5268663131864706e+00 +0.0000000000000000e+00 +2.1999999945841302e+00 -2.8023196162122836e-02 -5.2407462008365369e-01 +5.0883244741409140e-03
2.2500000000000000e+00 +8.5268601666030008e+00 +0.0000000000000000e+00 +2.2499999942063100e+00 -2.8024189191724887e-02 -5.2409149067694583e-01 +5.0891747142010613e-03
2.2999999999999998e+00 +8.5268538817035697e+00 +0.0000000000000000e+00 +2.2999999938113000e+00 -2.8025198908502542e-02 -5.2410868039341052e-01 +5.0900328661064222e-03
2.3500000000000001e+00 +8.5268474584954692e+00 +0.0000000000000000e+00 +2.3499999933987001e+00 -2.8026225177623387e-02 -5.2412618728039684e-01 +5.0908988799514823e-03
2.3999999999999999e+00 +8.5268408969750507e+00 +0.0000000000000000e+00 +2.3999999929681501e+00 -2.8027267864259627e-02 -5.2414400938533867e-01 +5.0917727058315985e-03
2.4500000000000002e+00 +8.5268341971459396e+00 +0.0000000000000000e+00 +2.4499999925192602e+00 -2.8028326833581349e-02 -5.2416214475563039e-01 +5.0926542938417394e-03
2.5000000000000000e+00 +8.5268273590008903e+00 +0.0000000000000000e+00 +2.4999999920516398e+00 -2.8029401950763293e-02 -5.2418059143874940e-01 +5.0935435940776983e-03
2.5499999999999998e+00 +8.5268203825435194e+00 +0.0000000000000000e+00 +2.5499999915649201e+00 -2.8030493080976764e-02 -5.2419934748210728e-01 +5.0944405566345991e-03
2.6000000000000001e+00 +8.5268132677774702e+00 +0.0000000000000000e+00 +2.5999999910586999e+00 -2.8031600089393680e-02 -5.2421841093312549e-01 +5.0953451316076244e-03
2.6499999999999999e+00 +8.5268060146954703e+00 +0.0000000000000000e+00 +2.6499999905326099e+00 -2.8032722841190745e-02 -5.2423777983930786e-01 +5.0962572690927349e-03
2.7000000000000002e+00 +8.5267986233047797e+00 +0.0000000000000000e+00 +2.6999999899862699e+00 -2.8033861201539900e-02 -5.2425745224806686e-01 +5.0971769191849219e-03
2.7500000000000000e+00 +8.5267910936017905e+00 +0.0000000000000000e+00 +2.7499999894192899e+00 -2.8035015035617887e-02 -5.2427742620689843e-01 +5.0981040319799283e-03
2.7999999999999998e+00 +8.5267834255828294e+00 +0.0000000000000000e+00 +2.7999999888312899e+00 -2.8036184208602228e-02 -5.2429769976330709e-01 +5.0990385575734832e-03
2.8500000000000001e+00 +8.5267756192552007e+00 +0.0000000000000000e+00 +2.8499999882218900e+00 -2.8037368585667050e-02 -5.2431827096472861e-01 +5.0999804460605414e-03
2.8999999999999999e+00 +8.5267676746152592e+00 +0.0000000000000000e+00 +2.8999999875907001e+00 -2.8038568031991441e-02 -5.2433913785868203e-01 +5.1009296475367618e-03
2.9500000000000002e+00 +8.5267595916629908e+00 +0.0000000000000000e+00 +2.9499999869373399e+00 -2.8039782412753903e-02 -5.2436029849266907e-01 +5.1018861120974909e-03
3.0000000000000000e+00 +8.5267513703984203e+00 +0.0000000000000000e+00 +2.9999999862614302e+00 -2.8041011593133811e-02 -5.2438175091419792e-01 +5.1028497898379941e-03
3.0499999999999998e+00 +8.5267430108251592e+00 +0.0000000000000000e+00 +3.0499999855625899e+00 -2.8042255438309995e-02 -5.2440349317075885e-01 +5.1038206308532024e-03
3.1000000000000001e+00 +8.5267345129359509e+00 +0.0000000000000000e+00 +3.0999999848404300e+00 -2.8043513813466307e-02 -5.2442552330992376e-01 +5.1047985852386698e-03
3.1499999999999999e+00 +8.5267258767344192e+00 +0.0000000000000000e+00 +3.1499999840945798e+00 -2.8044786583783440e-02 -5.2444783937919659e-01 +5.1057836030890804e-03
3.2000000000000002e+00 +8.5267171022205694e+00 +0.0000000000000000e+00 +3.1999999833246400e+00 -2.8046073614444358e-02 -5.2447043942611160e-01 +5.1067756344992284e-03
3.2500000000000000e+00 +8.5267081893980503e+00 +0.0000000000000000e+00 +3.2499999825302401e+00 -2.8047374770631635e-02 -5.2449332149818351e-01 +5.1077746295634888e-03
3.2999999999999998e+00 +8.5266991382632096e+00 +0.0000000000000000e+00 +3.2999999817109900e+00 -2.8048689917531556e-02 -5.2451648364298498e-01 +5.1087805383765606e-03
3.3500000000000001e+00 +8.5266899488124199e+00 +0.0000000000000000e+00 +3.3499999808665200e+00 -2.8050018920331463e-02 -5.2453992390809256e-01 +5.1097933110329456e-03
3.3999999999999999e+00 +8.5266806210529502e+00 +0.0000000000000000e+00 +3.3999999799964300e+00 -2.8051361644215598e-02 -5.2456364034101322e-01 +5.1108128976261888e-03
3.4500000000000002e+00 +8.5266711549811607e+00 +0.0000000000000000e+00 +3.4499999791003502e+00 -2.8052717954373370e-02 -5.2458763098933459e-01 +5.1118392482503560e-03
3.5000000000000000e+00 +8.5266615505970496e+00 +0.0000000000000000e+00 +3.4999999781778901e+00 -2.8054087715993940e-02 -5.2461189390062435e-01 +5.1128723129990113e-03
3.5499999999999998e+00 +8.5266518079006293e+00 +0.0000000000000000e+00 +3.5499999772286701e+00 -2.8055470794267564e-02 -5.2463642712245384e-01 +5.1139120419654684e-03
3.6000000000000001e+00 +8.5266419268882601e+00 +0.0000000000000000e+00 +3.5999999762523198e+00 -2.8056867054386994e-02 -5.2466122870242526e-01 +5.1149583852430043e-03
3.6499999999999999e+00 +8.5266319075708505e+00 +0.0000000000000000e+00 +3.6499999752484298e+00 -2.8058276361540672e-02 -5.2468629668804367e-01 +5.1160112929236022e-03
3.6999999999999900e+00 +8.5266217499374797e+00 +0.0000000000000000e+00 +3.6999999742166398e+00 -2.8059698580926478e-02 -5.2471162912696956e-01 +5.1170707151004394e-03
3.7499999999999898e+00 +8.5266114539917908e+00 +0.0000000000000000e+00 +3.7499999731565601e+00 -2.8061133577737981e-02 -5.2473722406676659e-01 +5.1181366018653593e-03
3.7999999999999901e+00 +8.5266010197374307e+00 +0.0000000000000000e+00 +3.7999999720678099e+00 -2.8062581217170018e-02 -5.2476307955500157e-01 +5.1192089033098619e-03
3.8499999999999899e+00 +8.5265904471671092e+00 +0.0000000000000000e+00 +3.8499999709499999e+00 -2.8064041364422775e-02 -5.2478919363932053e-01 +5.1202875695258348e-03
3.8999999999999901e+00 +8.5265797362881095e+00 +0.0000000000000000e+00 +3.8999999698027499e+00 -2.8065513884692261e-02 -5.2481556436727228e-01 +5.1213725506037882e-03
3.9499999999999900e+00 +8.5265688870931609e+00 +0.0000000000000000e+00 +3.9499999686256899e+00 -2.8066998643181258e-02 -5.2484218978650887e-01 +5.1224637966348413e-03
3.9999999999999898e+00 +8.5265578995895304e+00 +0.0000000000000000e+00 +3.9999999674184199e+00 -2.8068495505088428e-02 -5.2486906794458432e-01 +5.1235612577086925e-03
4.0499999999999901e+00 +8.5265467737735907e+00 +0.0000000000000000e+00 +4.0499999661805601e+00 -2.8070004327189722e-02 -5.2489619680286170e-01 +5.1246648736049966e-03
4.0999999999999899e+00 +8.5265355096416897e+00 +0.0000000000000000e+00 +4.0999999649117402e+00 -2.8071524932549358e-02 -5.2492357397762690e-01 +5.1257745428616519e-03
4.1499999999999897e+00 +8.5265241072047502e+00 +0.0000000000000000e+00 +4.1499999636115703e+00 -2.8073057135798250e-02 -5.2495119699879755e-01 +5.1268901537054158e-03
4.1999999999999904e+00 +8.5265125664518600e+00 +0.0000000000000000e+00 +4.1999999622796604e+00 -2.8074600751575772e-02 -5.2497906339644484e-01 +5.1280115943649245e-03
4.2499999999999902e+00 +8.5265008873866499e+00 +0.0000000000000000e+00 +4.2499999609156403e+00 -2.8076155594516053e-02 -5.2500717070054093e-01 +5.1291387530681730e-03
4.2999999999999901e+00 +8.5264890700091200e+00 +0.0000000000000000e+00 +4.2999999595191198e+00 -2.8077721479254830e-02 -5.2503551644108548e-01 +5.1302715180437837e-03
4.3499999999999899e+00 +8.5264771143192792e+00 +0.0000000000000000e+00 +4.3499999580897200e+00 -2.8079298220428057e-02 -5.2506409814807953e-01 +5.1314097775207648e-03
4.3999999999999897e+00 +8.5264650203207601e+00 +0.0000000000000000e+00 +4.3999999566270596e+00 -2.8080885632670530e-02 -5.2509291335150055e-01 +5.1325534197282658e-03
4.4499999999999904e+00 +8.5264527880062797e+00 +0.0000000000000000e+00 +4.4499999551307496e+00 -2.8082483530621351e-02 -5.2512195958140229e-01 +5.1337023328965935e-03
4.4999999999999902e+00 +8.5264404173794901e+00 +0.0000000000000000e+00 +4.4999999536004101e+00 -2.8084091728915683e-02 -5.2515123436776423e-01 +5.1348564052557059e-03
4.5499999999999901e+00 +8.5264279084440204e+00 +0.0000000000000000e+00 +4.5499999520356598e+00 -2.8085710042188922e-02 -5.2518073524056663e-01 +5.1360155250359798e-03
4.5999999999999899e+00 +8.5264152611962292e+00 +0.0000000000000000e+00 +4.5999999504361098e+00 -2.8087338285079311e-02 -5.2521045972984126e-01 +5.1371795804687230e-03
4.6499999999999897e+00 +8.5264024756361305e+00 +0.0000000000000000e+00 +4.6499999488013897e+00 -2.8088976272223905e-02 -5.2524040536559391e-01 +5.1383484597854147e-03
4.6999999999999904e+00 +8.5263895517600794e+00 +0.0000000000000000e+00 +4.6999999471311096e+00 -2.8090623818261315e-02 -5.2527056967785735e-01 +5.1395220512182411e-03
4.7499999999999902e+00 +8.5263764895753393e+00 +0.0000000000000000e+00 +4.7499999454248902e+00 -2.8092280737826096e-02 -5.2530095019658674e-01 +5.1407002429990712e-03
4.7999999999999901e+00 +8.5263632890782901e+00 +0.0000000000000000e+00 +4.7999999436823400e+00 -2.8093946845557119e-02 -5.2533154445181451e-01 +5.1418829233609905e-03
4.8499999999999899e+00 +8.5263499502725608e+00 +0.0000000000000000e+00 +4.8499999419030901e+00 -2.8095621956090583e-02 -5.2536234997352105e-01 +5.1430699805370432e-03
4.8999999999999897e+00 +8.5263364731472393e+00 +0.0000000000000000e+00 +4.8999999400867402e+00 -2.8097305884068325e-02 -5.2539336429178796e-01 +5.1442613027617660e-03
4.9499999999999904e+00 +8.5263228577168793e+00 +0.0000000000000000e+00 +4.9499999382329296e+00 -2.8098998444122624e-02 -5.2542458493651834e-01 +5.1454567782683929e-03
4.9999999999999902e+00 +8.5263091039705596e+00 +0.0000000000000000e+00 +4.9999999363412497e+00 -2.8100699450895494e-02 -5.2545600943779136e-01 +5.1466562952924332e-03
5.0499999999999901e+00 +8.5262952115954196e+00 +0.0000000000000000e+00 +5.0499999344112600e+00 -2.8102408719143320e-02 -5.2548763532778964e-01 +5.1478597420910157e-03
5.0999999999999899e+00 +8.5262811802713294e+00 +0.0000000000000000e+00 +5.0999999324424596e+00 -2.8104126063625424e-02 -5.2551946013874618e-01 +5.1490670069223622e-03
5.1499999999999897e+00 +8.5262670100019005e+00 +0.0000000000000000e+00 +5.1499999304344799e+00 -2.8105851298978662e-02 -5.2555148140063856e-01 +5.1502779780225605e-03
5.1999999999999904e+00 +8.5262527007798798e+00 +0.0000000000000000e+00 +5.1999999283869203e+00 -2.8107584239844090e-02 -5.2558369664351701e-01 +5.1514925436289896e-03
5.2499999999999902e+00 +8.5262382526088896e+00 +0.0000000000000000e+00 +5.2499999262994104e+00 -2.8109324700858637e-02 -5.2561610339735421e-01 +5.1527105919787972e-03
5.2999999999999901e+00 +8.5262236654925800e+00 +0.0000000000000000e+00 +5.2999999241715603e+00 -2.8111072496659281e-02 -5.2564869919212120e-01 +5.1539320113096676e-03
5.3499999999999899e+00 +8.5262089394273097e+00 +0.0000000000000000e+00 +5.3499999220029704e+00 -2.8112827441885757e-02 -5.2568148155783612e-01 +5.1551566898603357e-03
5.3999999999999897e+00 +8.5261940744130698e+00 +0.0000000000000000e+00 +5.3999999197932702e+00 -2.8114589351176444e-02 -5.2571444802449008e-01 +5.1563845158698442e-03
5.4499999999999904e+00 +8.5261790704498708e+00 +0.0000000000000000e+00 +5.4499999175420601e+00 -2.8116358039169724e-02 -5.2574759612207089e-01 +5.1576153775778006e-03
5.4999999999999902e+00 +8.5261639275377092e+00 +0.0000000000000000e+00 +5.4999999152489698e+00 -2.8118133320503943e-02 -5.2578092338056326e-01 +5.1588491632243707e-03
5.5499999999999901e+00 +8.5261486456802196e+00 +0.0000000000000000e+00 +5.5499999129136004e+00 -2.8119915009816053e-02 -5.2581442732992323e-01 +5.1600857610500520e-03
5.5999999999999899e+00 +8.5261332248737691e+00 +0.0000000000000000e+00 +5.5999999105355700e+00 -2.8121702921745723e-02 -5.2584810550015404e-01 +5.1613250592964389e-03
5.6499999999999897e+00 +8.5261176651147306e+00 +0.0000000000000000e+00 +5.6499999081144896e+00 -2.8123496870932598e-02 -5.2588195542125538e-01 +5.1625669462057235e-03
5.6999999999999904e+00 +8.5261019664103497e+00 +0.0000000000000000e+00 +5.6999999056499897e+00 -2.8125296672012117e-02 -5.2591597462314743e-01 +5.1638113100199289e-03
5.7499999999999902e+00 +8.5260861287570204e+00 +0.0000000000000000e+00 +5.7499999031416600e+00 -2.8127102139623789e-02 -5.2595016063582078e-01 +5.1650580389824572e-03
5.7999999999999901e+00 +8.5260701521547198e+00 +0.0000000000000000e+00 +5.7999999005891203e+00 -2.8128913088405663e-02 -5.2598451098923793e-01 +5.1663070213370764e-03
5.8499999999999899e+00 +8.5260540366070892e+00 +0.0000000000000000e+00 +5.8499998979920003e+00 -2.8130729332994341e-02 -5.2601902321333072e-01 +5.1675581453279251e-03
5.8999999999999897e+00 +8.5260377821068705e+00 +0.0000000000000000e+00 +5.8999998953498896e+00 -2.8132550688030462e-02 -5.2605369483810238e-01 +5.1688112992005425e-03
