# multipoles
# s[mm] polynom_b[n=0][T/m^n] polynom_b[n=1][T/m^n] polynom_b[n=2][T/m^n] polynom_b[n=3][T/m^n] polynom_b[n=4][T/m^n] polynom_b[n=5][T/m^n] polynom_b[n=6][T/m^n] 
+0.0000000000000000e+00 -5.2366717828669651e-01 +6.8807416433371698e+00 +5.0612248669172715e+00 -2.6260845099509321e+01 +5.4009024641824635e+03 -2.7637108473940514e+05 -3.3786745139029920e+07 
+5.0000000000000003e-02 -5.2366896117994499e-01 +6.8807596389338981e+00 +5.0646435315409022e+00 -2.6087157062772121e+01 +5.3587659389946230e+03 -2.7755963592949096e+05 -3.3609281059616782e+07 
+1.0000000000000001e-01 -5.2367112584419873e-01 +6.8807983006051687e+00 +5.0677851282017929e+00 -2.5916360495332977e+01 +5.3140511558133476e+03 -2.7866130872029264e+05 -3.3421651750636555e+07 
+1.4999999999999999e-01 -5.2367367134464837e-01 +6.8808575713731077e+00 +5.0706400339682274e+00 -2.5748174880285369e+01 +5.2669266447624213e+03 -2.7967995818182535e+05 -3.3224614540911447e+07 
+2.0000000000000001e-01 -5.2367659674640965e-01 +6.8809373942624070e+00 +5.0731986249222629e+00 -2.5582319761361639e+01 +5.2175609622791862e+03 -2.8061943890135287e+05 -3.3018926939822800e+07 
+2.5000000000000000e-01 -5.2367990111472540e-01 +6.8810377122948578e+00 +5.0754512787211770e+00 -2.5418514563868889e+01 +5.1661226247890754e+03 -2.8148360633358301e+05 -3.2805346198493045e+07 
+2.9999999999999999e-01 -5.2368358351475319e-01 +6.8811584684960216e+00 +5.0773883683240211e+00 -2.5256478809242338e+01 +5.1127802695601531e+03 -2.8227631521701947e+05 -3.2584630362465609e+07 
+3.4999999999999998e-01 -5.2368764301174509e-01 +6.8812996058886569e+00 +5.0790002755561705e+00 -2.5095931897496410e+01 +5.0577022999996871e+03 -2.8300142119689920e+05 -3.2357535921167206e+07 
+4.0000000000000002e-01 -5.2369207867091150e-01 +6.8814610674981722e+00 +5.0802773720082950e+00 -2.4936593290358363e+01 +5.0010573917634938e+03 -2.8366277945351182e+05 -3.2124821191349339e+07 
+4.5000000000000001e-01 -5.2369688955755245e-01 +6.8816427963522688e+00 +5.0812100375685434e+00 -2.4778182527212447e+01 +4.9430139978542438e+03 -2.8426424448053795e+05 -3.1887242989512820e+07 
+5.0000000000000000e-01 -5.2370207473690988e-01 +6.8818447354766752e+00 +5.0817886473163316e+00 -2.4620419031272892e+01 +4.8837407016015695e+03 -2.8480967171942117e+05 -3.1645559018067785e+07 
+5.5000000000000004e-01 -5.2370763327425385e-01 +6.8820668278993145e+00 +5.0820035786800410e+00 -2.4463022276325603e+01 +4.8234060195889215e+03 -2.8530291622559389e+05 -3.1400526517643347e+07 
+5.9999999999999998e-01 -5.2371356423493642e-01 +6.8823090166467686e+00 +5.0818452069864346e+00 -2.4305711669360541e+01 +4.7621785284817279e+03 -2.8574783354710543e+05 -3.1152903148249310e+07 
+6.5000000000000002e-01 -5.2371986668427140e-01 +6.8825712447480232e+00 +5.0813039110653211e+00 -2.4148206670946593e+01 +4.7002267066376289e+03 -2.8614827881167457e+05 -3.0903445891931638e+07 
+6.9999999999999996e-01 -5.2372653968761196e-01 +6.8828534552339953e+00 +5.0803700650297197e+00 -2.3990226793190399e+01 +4.6377191612184733e+03 -2.8650810673410707e+05 -3.0652912609890744e+07 
+7.5000000000000000e-01 -5.2373358231028500e-01 +6.8831555911346891e+00 +5.0790340480946048e+00 -2.3831491481460027e+01 +4.5748243651571156e+03 -2.8683117254583916e+05 -3.0402060270456482e+07 
+8.0000000000000004e-01 -5.2374099361770265e-01 +6.8834775954816534e+00 +5.0772862347797343e+00 -2.3671720210506493e+01 +4.5117109076948573e+03 -2.8712133127540961e+05 -3.0151646586867876e+07 
+8.4999999999999998e-01 -5.2374877267523445e-01 +6.8838194113065745e+00 +5.0751170011303604e+00 -2.3510632431778863e+01 +4.4485473497962430e+03 -2.8738243811293098e+05 -2.9902429134663060e+07 
+9.0000000000000002e-01 -5.2375691854830264e-01 +6.8841809816428361e+00 +5.0725167261138440e+00 -2.3347947630135323e+01 +4.3855021626794132e+03 -2.8761834800675919e+05 -2.9655164838514615e+07 
+9.4999999999999996e-01 -5.2376543030234957e-01 +6.8845622495233840e+00 +5.0694757845883442e+00 -2.3183385250974460e+01 +4.3227439317205444e+03 -2.8783291620074410e+05 -2.9410611411577690e+07 
+1.0000000000000000e+00 -5.2377430700277339e-01 +6.8849631579831376e+00 +5.0659845534651593e+00 -2.3016664770142466e+01 +4.2604411909899090e+03 -2.8802999775034160e+05 -2.9169526233395938e+07 
+1.0500000000000000e+00 -5.2378354771506408e-01 +6.8853836500603451e+00 +5.0620334104259834e+00 -2.2847505783600955e+01 +4.1987624468806598e+03 -2.8821344669043284e+05 -2.8932666472205125e+07 
+1.1000000000000001e+00 -5.2379315150470773e-01 +6.8858236687891541e+00 +5.0576127287857684e+00 -2.2675627684350658e+01 +4.1378763278427286e+03 -2.8838711874771450e+05 -2.8700790135144167e+07 
+1.1499999999999999e+00 -5.2380311743718599e-01 +6.8862831572083136e+00 +5.0527128877095846e+00 -2.2500750007916487e+01 +4.0779513031487913e+03 -2.8855486852343212e+05 -2.8474654153264903e+07 
+1.2000000000000000e+00 -5.2381344457800361e-01 +6.8867620583571734e+00 +5.0473242625106884e+00 -2.2322592302843656e+01 +4.0191559455106221e+03 -2.8872055046542030e+05 -2.8255016149545271e+07 
+1.2500000000000000e+00 -5.2382413199268818e-01 +6.8872603152741769e+00 +5.0414372301512644e+00 -2.2140874022973165e+01 +3.9616587827456196e+03 -2.8888801990039879e+05 -2.8042633445949093e+07 
+1.3000000000000000e+00 -5.2383517874680441e-01 +6.8877778710019850e+00 +5.0350421666866723e+00 -2.1955314783626452e+01 +3.9056283675448194e+03 -2.8906113077530416e+05 -2.7838263532419194e+07 
+1.3500000000000001e+00 -5.2384658390586158e-01 +6.8883146685807919e+00 +5.0281294485517876e+00 -2.1765634042767680e+01 +3.8512332436777260e+03 -2.8924373841772613e+05 -2.7642663843352489e+07 
+1.3999999999999999e+00 -5.2385834653547814e-01 +6.8888706510556679e+00 +5.0206894512066924e+00 -2.1571551444146376e+01 +3.7986419783784622e+03 -2.8943969660273468e+05 -2.7456591959409319e+07 
+1.4500000000000000e+00 -5.2387046570122076e-01 +6.8894457614705615e+00 +5.0127125512814041e+00 -2.1372786542721773e+01 +3.7480231095539684e+03 -2.8965285987425741e+05 -2.7280805273042575e+07 
+1.5000000000000000e+00 -5.2388294046869199e-01 +6.8900399428700698e+00 +5.0041891244443857e+00 -2.1169058883468900e+01 +3.6995452011913103e+03 -2.8988708290689660e+05 -2.7116061351528201e+07 
+1.5500000000000000e+00 -5.2389576990351361e-01 +6.8906531383018379e+00 +4.9951095471381084e+00 -2.0960088107315169e+01 +3.6533767932805499e+03 -2.9014621958619560e+05 -2.6963117587263606e+07 
+1.6000000000000001e+00 -5.2390895307134711e-01 +6.8912852908130695e+00 +4.9854641957263057e+00 -2.0745593792765330e+01 +3.6096864285790143e+03 -2.9043412439466669e+05 -2.6822731393623520e+07 
+1.6499999999999999e+00 -5.2392248903779226e-01 +6.8919363434526675e+00 +4.9752434455142760e+00 -2.0525295557691820e+01 +3.5686426835611937e+03 -2.9075465148124611e+05 -2.6695660429829676e+07 
+1.7000000000000000e+00 -5.2393637686855554e-01 +6.8926062392724186e+00 +4.9644376706681204e+00 -2.0298913109952963e+01 +3.5304141616379043e+03 -2.9111165429431893e+05 -2.6582662521902274e+07 
+1.7500000000000000e+00 -5.2395061562933443e-01 +6.8932949213230952e+00 +4.9530372500775766e+00 -2.0066166068679628e+01 +3.4951693352105949e+03 -2.9150898707678472e+05 -2.6484494595067002e+07 
+1.8000000000000000e+00 -5.2396520438576799e-01 +6.8940023326579913e+00 +4.9410325579871230e+00 -1.9826774126754312e+01 +3.4630768078312080e+03 -2.9195050347345858e+05 -2.6401914483167686e+07 
+1.8500000000000001e+00 -5.2398014220359335e-01 +6.8947284163327751e+00 +4.9284139701031666e+00 -1.9580457030807871e+01 +3.4343051401991070e+03 -2.9244005677835335e+05 -2.6335679713055696e+07 
+1.8999999999999999e+00 -5.2399542814855504e-01 +6.8954731154003497e+00 +4.9151718606425456e+00 -1.9326934390076993e+01 +3.4090229364640245e+03 -2.9298150140229677e+05 -2.6286548119139504e+07 
+1.9500000000000000e+00 -5.2401106128635477e-01 +6.8962363729206020e+00 +4.9012966069351451e+00 -1.9065926052343322e+01 +3.3873987141589901e+03 -2.9357868986975076e+05 -2.6255276935880028e+07 
+2.0000000000000000e+00 -5.2402690362302706e-01 +6.8970114115518335e+00 +4.8869069656017619e+00 -1.8799509150593178e+01 +3.3697100001338026e+03 -2.9422899369601440e+05 -2.6242565550138537e+07 
+2.0499999999999998e+00 -5.2404308432710534e-01 +6.8978044801196967e+00 +4.8718918434608582e+00 -1.8525505475099905e+01 +3.3557956737946588e+03 -2.9493741420476121e+05 -2.6248395410776328e+07 
+2.1000000000000001e+00 -5.2405960134990059e-01 +6.8986154167919835e+00 +4.8562579225350735e+00 -1.8243989369628903e+01 +3.3456685044447145e+03 -2.9570332857240521e+05 -2.6273010663953677e+07 
+2.1499999999999999e+00 -5.2407645264271996e-01 +6.8994440597411808e+00 +4.8400118867315296e+00 -1.7955035340744566e+01 +3.3393412071199232e+03 -2.9652611271437549e+05 -2.6316655071935914e+07 
+2.2000000000000002e+00 -5.2409363615690674e-01 +6.9002902471353442e+00 +4.8231604199517806e+00 -1.7658717709032796e+01 +3.3368264975000056e+03 -2.9740514401915553e+05 -2.6379572404000934e+07 
+2.2500000000000000e+00 -5.2411114984384144e-01 +6.9011538171482547e+00 +4.8057102058112502e+00 -1.7355111014262349e+01 +3.3381371027395762e+03 -2.9833979807598219e+05 -2.6462006520976633e+07 
+2.2999999999999998e+00 -5.2412899165486060e-01 +6.9020346079510055e+00 +4.7876679278528123e+00 -1.7044289656903910e+01 +3.3432857463026216e+03 -2.9932945165545389e+05 -2.6564201240070853e+07 
+2.3500000000000001e+00 -5.2414715954138946e-01 +6.9029324577143587e+00 +4.7690402693162683e+00 -1.6726328026185328e+01 +3.3522851638218908e+03 -3.0037348156488151e+05 -2.6686400471003599e+07 
+2.3999999999999999e+00 -5.2416565145474159e-01 +6.9038472046126751e+00 +4.7498339145512940e+00 -1.6401300630566677e+01 +3.3651480591767076e+03 -3.0147126365183800e+05 -2.6828847906026229e+07 
+2.4500000000000002e+00 -5.2418446534635654e-01 +6.9047786868196130e+00 +4.7300555461600924e+00 -1.6069281945142670e+01 +3.3818871835167570e+03 -3.0262217402386788e+05 -2.6991787558234833e+07 
+2.5000000000000000e+00 -5.2420359916761983e-01 +6.9057267425106259e+00 +4.7097118484114651e+00 -1.5730346501569214e+01 +3.4025152437018551e+03 -3.0382558832309447e+05 -2.7175463141305562e+07 
+2.5499999999999998e+00 -5.2422305086993837e-01 +6.9066912098570237e+00 +4.6888095033438262e+00 -1.5384568657656519e+01 +3.4270450071293199e+03 -3.0508088357046829e+05 -2.7380118780535098e+07 
+2.6000000000000001e+00 -5.2424281840478615e-01 +6.9076719270349676e+00 +4.6673551946056246e+00 -1.5032022949123025e+01 +3.4554891954468853e+03 -3.0638743538415199e+05 -2.7605998286131620e+07 
+2.6499999999999999e+00 -5.2426289972355344e-01 +6.9086687322202387e+00 +4.6453556066858068e+00 -1.4672783896308651e+01 +3.4878605094359509e+03 -3.0774461941318837e+05 -2.7853345329853680e+07 
+2.7000000000000002e+00 -5.2428329277768226e-01 +6.9096814635895702e+00 +4.6228174226352898e+00 -1.4306926033890429e+01 +3.5241716925453352e+03 -3.0915181127117737e+05 -2.8122403890690282e+07 
+2.7500000000000000e+00 -5.2430399551863893e-01 +6.9107099593168204e+00 +4.5997473245654925e+00 -1.3934523793223422e+01 +3.5644355045654843e+03 -3.1060838729572127e+05 -2.8413418022628084e+07 
+2.7999999999999998e+00 -5.2432500589786402e-01 +6.9117540575814589e+00 +4.5761519965971447e+00 -1.3555651810854913e+01 +3.6086646594215908e+03 -3.1211372220299015e+05 -2.8726631502112295e+07 
+2.8500000000000001e+00 -5.2434632186684049e-01 +6.9128135965567967e+00 +4.5520381205928215e+00 -1.3170384467702615e+01 +3.6568719265346585e+03 -3.1366719277206174e+05 -2.9062288460369766e+07 
+2.8999999999999999e+00 -5.2436794137706222e-01 +6.9138884144213550e+00 +4.5274123827337762e+00 -1.2778796354710163e+01 +3.7090699634054449e+03 -3.1526817403026856e+05 -2.9420632289759021e+07 
+2.9500000000000002e+00 -5.2438986237994312e-01 +6.9149783493550023e+00 +4.5022814629089298e+00 -1.2380962114258404e+01 +3.7652715949872008e+03 -3.1691604055064177e+05 -2.9801907505762558e+07 
+3.0000000000000000e+00 -5.2441208282702667e-01 +6.9160832395332257e+00 +4.4766520450366363e+00 -1.1976956200887994e+01 +3.8254895348976988e+03 -3.1861016846119688e+05 -3.0206357862379409e+07 
+3.0499999999999998e+00 -5.2443460066981540e-01 +6.9172029231344112e+00 +4.4505308127563490e+00 -1.1566853193218314e+01 +3.8897365101292921e+03 -3.2034993280485907e+05 -3.0634227226472162e+07 
+3.1000000000000001e+00 -5.2445741385979305e-01 +6.9183372383364690e+00 +4.4239244498967887e+00 -1.1150727635571251e+01 +3.9580252397199761e+03 -3.2213470892465633e+05 -3.1085759401341885e+07 
+3.1499999999999999e+00 -5.2448052034850556e-01 +6.9194860233198163e+00 +4.3968396369331337e+00 -1.0728654179266758e+01 +4.0303685296400695e+03 -3.2396387125672406e+05 -3.1561198762134686e+07 
+3.2000000000000002e+00 -5.2450391808740537e-01 +6.9206491162604378e+00 +4.3692830583904829e+00 -1.0300707299682623e+01 +4.1067790845540094e+03 -3.2583679560110136e+05 -3.2060789035586208e+07 
+3.2500000000000000e+00 -5.2452760502804585e-01 +6.9218263553389692e+00 +4.3412613981128478e+00 -9.8669616480708768e+00 +4.1872696188631180e+03 -3.2775285636577551e+05 -3.2584773975534748e+07 
+3.2999999999999998e+00 -5.2455157912197303e-01 +6.9230175787331882e+00 +4.3127813370280510e+00 -9.4274917724638438e+00 +4.2718529345354164e+03 -3.2971142872495536e+05 -3.3133397965218060e+07 
+3.3500000000000001e+00 -5.2457583832073429e-01 +6.9242226246250569e+00 +4.2838495602086128e+00 -8.9823723885334399e+00 +4.3605417150232806e+03 -3.3171188646402798e+05 -3.3706904562603250e+07 
+3.3999999999999999e+00 -5.2460038057583458e-01 +6.9254413311909637e+00 +4.2544727483966991e+00 -8.5316779876308768e+00 +4.4533487627992145e+03 -3.3375360517295054e+05 -3.4305538136125572e+07 
+3.4500000000000002e+00 -5.2462520383885347e-01 +6.9266735366112897e+00 +4.2246575857445725e+00 -8.0754832226923838e+00 +4.5502867892478807e+03 -3.3583595910494111e+05 -3.4929542446450375e+07 
+3.5000000000000000e+00 -5.2465030606130669e-01 +6.9279190790651688e+00 +4.1944107529286194e+00 -7.6138627041121270e+00 +4.6513685993339823e+03 -3.3795832281241019e+05 -3.5579161882871673e+07 
+3.5499999999999998e+00 -5.2467568519477337e-01 +6.9291777967312722e+00 +4.1637389365533233e+00 -7.1468910330477575e+00 +4.7566068376250496e+03 -3.4012007086215197e+05 -3.6254639752151169e+07 
+3.6000000000000001e+00 -5.2470133919084283e-01 +6.9304495277916605e+00 +4.1326488151561183e+00 -6.6746429480673859e+00 +4.8660143681145873e+03 -3.4232057671076612e+05 -3.6956220848544098e+07 
+3.6499999999999999e+00 -5.2472726600101671e-01 +6.9317341104232657e+00 +4.1011470735260378e+00 -6.1971929775397392e+00 +4.9796038826039103e+03 -3.4455921549541340e+05 -3.7684148792288706e+07 
+3.6999999999999900e+00 -5.2475346357694497e-01 +6.9330313828067167e+00 +4.0692403948206435e+00 -5.7146158324127878e+00 +5.0973881211964163e+03 -3.4683536075310293e+05 -3.8438667546608202e+07 
+3.7499999999999898e+00 -5.2477992987011790e-01 +6.9343411831221493e+00 +4.0369354603802536e+00 -5.2269861833401263e+00 +5.2193798686891123e+03 -3.4914838639703963e+05 -3.9220021359896876e+07 
+3.7999999999999901e+00 -5.2480666283217003e-01 +6.9356633495474069e+00 +4.0042389533699110e+00 -4.7343786321126826e+00 +5.3455918670780502e+03 -3.5149766683054186e+05 -4.0028454216643684e+07 
+3.8499999999999899e+00 -5.2483366041467849e-01 +6.9369977202623829e+00 +3.9711575558598202e+00 -4.2368678703062557e+00 +5.4760368812396646e+03 -3.5388257567359920e+05 -4.0864210232141651e+07 
+3.8999999999999901e+00 -5.2486092056921319e-01 +6.9383441334463285e+00 +3.9376979518591169e+00 -3.7345285772646024e+00 +5.6107276289969677e+03 -3.5630248659987375e+05 -4.1727533222925462e+07 
+3.9499999999999900e+00 -5.2488844121871681e-01 +6.9397024273090375e+00 +3.9038673444090954e+00 -3.2274602484348169e+00 +5.7496633164510804e+03 -3.5875658780074742e+05 -4.2618574298536919e+07 
+3.9999999999999898e+00 -5.2491621995403426e-01 +6.9410724335811915e+00 +3.8696792181990070e+00 -2.7160120444758706e+00 +5.8926851092196894e+03 -3.6124230006618990e+05 -4.3536401315696292e+07 
+4.0499999999999901e+00 -5.2494425415195900e-01 +6.9424539765814606e+00 +3.8351512462232482e+00 -2.2006773911916411e+00 +6.0395319676115805e+03 -3.6375608496496291e+05 -4.4479381294284381e+07 
+4.0999999999999899e+00 -5.2497254118577752e-01 +6.9438468803617841e+00 +3.8003011820471331e+00 -1.6819515398760838e+00 +6.1899410597452579e+03 -3.6629439557536331e+05 -4.5445868907756127e+07 
+4.1499999999999897e+00 -5.2500107842886123e-01 +6.9452509689685336e+00 +3.7651467762953126e+00 -1.1603295337523314e+00 +6.3436496373912387e+03 -3.6885368668441795e+05 -4.6434219415808626e+07 
+4.1999999999999904e+00 -5.2502986325447110e-01 +6.9466660664505824e+00 +3.7297057825640194e+00 -6.3630652413585775e-01 +6.5003948649003059e+03 -3.7143041219834110e+05 -4.7442787456111409e+07 
+4.2499999999999902e+00 -5.2505889303593223e-01 +6.9480919968542212e+00 +3.6939959515061602e+00 -1.1037758046648412e-01 +6.6599139961455867e+03 -3.7402102667018882e+05 -4.8469928310544983e+07 
+4.2999999999999901e+00 -5.2508816514653789e-01 +6.9495285842261643e+00 +3.6580350378036193e+00 +4.1696220551625313e-01 +6.8219441695611267e+03 -3.7662198450260027e+05 -4.9513996456557952e+07 
+4.3499999999999899e+00 -5.2511767695957590e-01 +6.9509756526102500e+00 +3.6218407905713574e+00 +9.4521783905456525e-01 +6.9862226744441705e+03 -3.7922974088767741e+05 -5.0573347391295247e+07 
+4.3999999999999897e+00 -5.2514742584840901e-01 +6.9524330260507980e+00 +3.5854309671990410e+00 +1.4738942880174484e+00 +7.1524865817094123e+03 -3.8184075071124348e+05 -5.1646335154238768e+07 
+4.4499999999999904e+00 -5.2517740918633260e-01 +6.9539005285902098e+00 +3.5488233184855025e+00 +2.0024965869051785e+00 +7.3204731356612720e+03 -3.8445146941961785e+05 -5.2731314942089900e+07 
+4.4999999999999902e+00 -5.2520762434660151e-01 +6.9553779842719399e+00 +3.5120355966408670e+00 +2.5305297056108178e+00 +7.4899195467681566e+03 -3.8705835191349988e+05 -5.3826641736601621e+07 
+4.5499999999999901e+00 -5.2523806870264067e-01 +6.9568652171337124e+00 +3.4750855573825898e+00 +3.0574988250950601e+00 +7.6605629281088686e+03 -3.8965785484077374e+05 -5.4930669849183112e+07 
+4.5999999999999899e+00 -5.2526873962762777e-01 +6.9583620512157465e+00 +3.4379909534553121e+00 +3.5829090122082872e+00 +7.8321404747280803e+03 -3.9224643390153226e+05 -5.6041754156128772e+07 
+4.6499999999999897e+00 -5.2529963449494232e-01 +6.9598683105574706e+00 +3.4007695373964801e+00 +4.1062653428144804e+00 +8.0043893889740020e+03 -3.9482054490213713e+05 -5.7158249584100209e+07 
+4.6999999999999904e+00 -5.2533075067789281e-01 +6.9613838191947242e+00 +3.3634390631901785e+00 +4.6270730150635915e+00 +8.1770468336331905e+03 -3.9737664462397085e+05 -5.8278510793704174e+07 
+4.7499999999999902e+00 -5.2536208554977459e-01 +6.9629084011617648e+00 +3.3260172874468177e+00 +5.1448372765236554e+00 +8.3498498985834449e+03 -3.9991119028534868e+05 -5.9400891943010852e+07 
+4.7999999999999901e+00 -5.2539363648390314e-01 +6.9644418804951957e+00 +3.2885219614274774e+00 +5.6590632545556065e+00 +8.5225358230089787e+03 -4.0242063812209578e+05 -6.0523748217294000e+07 
+4.8499999999999899e+00 -5.2542540085361311e-01 +6.9659840812254243e+00 +3.2509708406250950e+00 +6.1692563007968815e+00 +8.6948417294222909e+03 -4.0490144619281852e+05 -6.1645434005360886e+07 
+4.8999999999999897e+00 -5.2545737603210618e-01 +6.9675348273854389e+00 +3.2133816799499169e+00 +6.6749216476370936e+00 +8.8665047561404517e+03 -4.0735007160301157e+05 -6.2764303801074699e+07 
+4.9499999999999904e+00 -5.2548934198170627e-01 +6.9690834080716657e+00 +3.1760259262663042e+00 +7.1722038770215049e+00 +9.0361158115067756e+03 -4.0974685557555890e+05 -6.3871226240815565e+07 
+4.9999999999999902e+00 -5.2552151074964448e-01 +6.9706400733286964e+00 +3.1386675622507787e+00 +7.6640464312202328e+00 +9.2045757093281118e+03 -4.1210492375341692e+05 -6.4972134681970604e+07 
+5.0499999999999901e+00 -5.2555387976192813e-01 +6.9722046507167690e+00 +3.1013239866449762e+00 +8.1499646377491963e+00 +9.3716268591236421e+03 -4.1442080567849678e+05 -6.6065416625354670e+07 
