# field on trajectory
# s[mm] rx[mm] ry[mm] rz[mm] bx[T] by[T] bz[T]
0.0000000000000000e+00 +8.5389999999999997e+00 +0.0000000000000000e+00 +0.0000000000000000e+00 -2.8378898707278419e-02 -5.5576468568822390e-01 +5.5360583815781544e-03
5.0000000000000003e-02 +8.5389999306543185e+00 +0.0000000000000000e+00 +4.9999999999935880e-02 -2.8378967707159572e-02 -5.5576458809075791e-01 +5.5359459148918398e-03
1.0000000000000001e-01 +8.5389997226172785e+00 +0.0000000000000000e+00 +9.9999999999487055e-02 -2.8379049340684751e-02 -5.5576482260850246e-01 +5.5358379888087528e-03
1.5000000000000002e-01 +8.5389993758888210e+00 +0.0000000000000000e+00 +1.4999999999826882e-01 -2.8379143671503175e-02 -5.5576538854200308e-01 +5.5357345715562837e-03
2.0000000000000001e-01 +8.5389988904688039e+00 +0.0000000000000000e+00 +1.9999999999589646e-01 -2.8379250763264547e-02 -5.5576628519182159e-01 +5.5356356313619745e-03
2.5000000000000000e-01 +8.5389982663570052e+00 +0.0000000000000000e+00 +2.4999999999198527e-01 -2.8379370679619015e-02 -5.5576751185853590e-01 +5.5355411364535010e-03
2.9999999999999999e-01 +8.5389975035531176e+00 +0.0000000000000000e+00 +2.9999999998615057e-01 -2.8379503484217299e-02 -5.5576906784273905e-01 +5.5354510550586749e-03
3.4999999999999998e-01 +8.5389966020567538e+00 +0.0000000000000000e+00 +3.4999999997800757e-01 -2.8379649240710604e-02 -5.5577095244504049e-01 +5.5353653554054355e-03
3.9999999999999997e-01 +8.5389955618674431e+00 +0.0000000000000000e+00 +3.9999999996717162e-01 -2.8379808012750682e-02 -5.5577316496606333e-01 +5.5352840057218290e-03
4.4999999999999996e-01 +8.5389943829846331e+00 +0.0000000000000000e+00 +4.4999999995325796e-01 -2.8379979863989886e-02 -5.5577570470644821e-01 +5.5352069742360182e-03
4.9999999999999994e-01 +8.5389930654076895e+00 +0.0000000000000000e+00 +4.9999999993588184e-01 -2.8380164858081116e-02 -5.5577857096685024e-01 +5.5351342291762636e-03
5.4999999999999993e-01 +8.5389916091358966e+00 +0.0000000000000000e+00 +5.4999999991465853e-01 -2.8380363058677881e-02 -5.5578176304793980e-01 +5.5350657387709268e-03
5.9999999999999998e-01 +8.5389900141684603e+00 +0.0000000000000000e+00 +5.9999999988920327e-01 -2.8380574529434294e-02 -5.5578528025040286e-01 +5.5350014712484442e-03
6.5000000000000002e-01 +8.5389882805045012e+00 +0.0000000000000000e+00 +6.4999999985913137e-01 -2.8380799334005110e-02 -5.5578912187494056e-01 +5.5349413948373371e-03
7.0000000000000007e-01 +8.5389864081430602e+00 +0.0000000000000000e+00 +6.9999999982405792e-01 -2.8381037536045713e-02 -5.5579328722226873e-01 +5.5348854777661971e-03
7.5000000000000011e-01 +8.5389843970830981e+00 +0.0000000000000000e+00 +7.4999999978359821e-01 -2.8381289199212168e-02 -5.5579777559311916e-01 +5.5348336882636738e-03
8.0000000000000016e-01 +8.5389822473234958e+00 +0.0000000000000000e+00 +7.9999999973736746e-01 -2.8381554387161202e-02 -5.5580258628823809e-01 +5.5347859945584811e-03
8.5000000000000020e-01 +8.5389799588630524e+00 +0.0000000000000000e+00 +8.4999999968498097e-01 -2.8381833163550266e-02 -5.5580771860838751e-01 +5.5347423648793772e-03
9.0000000000000024e-01 +8.5389775317004872e+00 +0.0000000000000000e+00 +8.9999999962605370e-01 -2.8382125592037517e-02 -5.5581317185434354e-01 +5.5347027674551592e-03
9.5000000000000029e-01 +8.5389749658344396e+00 +0.0000000000000000e+00 +9.4999999956020098e-01 -2.8382431736281816e-02 -5.5581894532689802e-01 +5.5346671705146571e-03
1.0000000000000002e+00 +8.5389722612634671e+00 +0.0000000000000000e+00 +9.9999999948703788e-01 -2.8382751659942813e-02 -5.5582503832685692e-01 +5.5346355422867246e-03
1.0500000000000003e+00 +8.5389694179860509e+00 +0.0000000000000000e+00 +1.0499999994061795e+00 -2.8383085426680887e-02 -5.5583145015504198e-01 +5.5346078510002342e-03
1.1000000000000003e+00 +8.5389664360005906e+00 +0.0000000000000000e+00 +1.0999999993172411e+00 -2.8383433100157229e-02 -5.5583818011228858e-01 +5.5345840648840725e-03
1.1500000000000004e+00 +8.5389633153054074e+00 +0.0000000000000000e+00 +1.1499999992198378e+00 -2.8383794744033804e-02 -5.5584522749944809e-01 +5.5345641521671188e-03
1.2000000000000004e+00 +8.5389600558987429e+00 +0.0000000000000000e+00 +1.1999999991135843e+00 -2.8384170421973404e-02 -5.5585259161738554e-01 +5.5345480810782537e-03
1.2500000000000004e+00 +8.5389566577787583e+00 +0.0000000000000000e+00 +1.2499999989980961e+00 -2.8384560197639654e-02 -5.5586027176698116e-01 +5.5345358198463455e-03
1.3000000000000005e+00 +8.5389531209435372e+00 +0.0000000000000000e+00 +1.2999999988729880e+00 -2.8384964134697023e-02 -5.5586826724912930e-01 +5.5345273367002346e-03
1.3500000000000005e+00 +8.5389494453910846e+00 +0.0000000000000000e+00 +1.3499999987378750e+00 -2.8385382296810858e-02 -5.5587657736473917e-01 +5.5345225998687424e-03
1.4000000000000006e+00 +8.5389456311193257e+00 +0.0000000000000000e+00 +1.3999999985923723e+00 -2.8385814747647359e-02 -5.5588520141473463e-01 +5.5345215775806427e-03
1.4500000000000006e+00 +8.5389416781261094e+00 +0.0000000000000000e+00 +1.4499999984360947e+00 -2.8386261550873673e-02 -5.5589413870005389e-01 +5.5345242380646781e-03
1.5000000000000007e+00 +8.5389375864092063e+00 +0.0000000000000000e+00 +1.4999999982686572e+00 -2.8386722770157823e-02 -5.5590338852164900e-01 +5.5345305495495328e-03
1.5500000000000007e+00 +8.5389333559663072e+00 +0.0000000000000000e+00 +1.5499999980896746e+00 -2.8387198469168786e-02 -5.5591295018048692e-01 +5.5345404802638306e-03
1.6000000000000008e+00 +8.5389289867950264e+00 +0.0000000000000000e+00 +1.5999999978987620e+00 -2.8387688711576469e-02 -5.5592282297754836e-01 +5.5345539984361300e-03
1.6500000000000008e+00 +8.5389244788929002e+00 +0.0000000000000000e+00 +1.6499999976955342e+00 -2.8388193561051770e-02 -5.5593300621382913e-01 +5.5345710722949247e-03
1.7000000000000008e+00 +8.5389198322573865e+00 +0.0000000000000000e+00 +1.6999999974796058e+00 -2.8388713081266573e-02 -5.5594349919033814e-01 +5.5345916700686067e-03
1.7500000000000009e+00 +8.5389150468858670e+00 +0.0000000000000000e+00 +1.7499999972505920e+00 -2.8389247335893732e-02 -5.5595430120809919e-01 +5.5346157599854978e-03
1.8000000000000009e+00 +8.5389101227756470e+00 +0.0000000000000000e+00 +1.7999999970081073e+00 -2.8389796388607152e-02 -5.5596541156814971e-01 +5.5346433102738133e-03
1.8500000000000010e+00 +8.5389050599239535e+00 +0.0000000000000000e+00 +1.8499999967517666e+00 -2.8390360303081747e-02 -5.5597682957154171e-01 +5.5346742891616632e-03
1.9000000000000010e+00 +8.5388998583279374e+00 +0.0000000000000000e+00 +1.8999999964811844e+00 -2.8390939142993503e-02 -5.5598855451934048e-01 +5.5347086648770494e-03
1.9500000000000011e+00 +8.5388945179846729e+00 +0.0000000000000000e+00 +1.9499999961959757e+00 -2.8391532972019483e-02 -5.5600058571262556e-01 +5.5347464056478522e-03
2.0000000000000009e+00 +8.5388890388911562e+00 +0.0000000000000000e+00 +1.9999999958957551e+00 -2.8392141853837767e-02 -5.5601292245249023e-01 +5.5347874797018167e-03
2.0500000000000007e+00 +8.5388834210443108e+00 +0.0000000000000000e+00 +2.0499999955801371e+00 -2.8392765830334170e-02 -5.5602556383130664e-01 +5.5348318632480612e-03
2.1000000000000005e+00 +8.5388776644409816e+00 +0.0000000000000000e+00 +2.0999999952487363e+00 -2.8393404856221462e-02 -5.5603850810651789e-01 +5.5348795644216174e-03
2.1500000000000004e+00 +8.5388717690779377e+00 +0.0000000000000000e+00 +2.1499999949011670e+00 -2.8394058864419518e-02 -5.5605175332684398e-01 +5.5349305993391282e-03
2.2000000000000002e+00 +8.5388657349518731e+00 +0.0000000000000000e+00 +2.1999999945370443e+00 -2.8394727787848736e-02 -5.5606529754101497e-01 +5.5349849841173767e-03
2.2500000000000000e+00 +8.5388595620594092e+00 +0.0000000000000000e+00 +2.2499999941559823e+00 -2.8395411559430001e-02 -5.5607913879777127e-01 +5.5350427348733024e-03
2.2999999999999998e+00 +8.5388532503970929e+00 +0.0000000000000000e+00 +2.2999999937575955e+00 -2.8396110112084663e-02 -5.5609327514586493e-01 +5.5351038677239964e-03
2.3499999999999996e+00 +8.5388467999613944e+00 +0.0000000000000000e+00 +2.3499999933414983e+00 -2.8396823378734528e-02 -5.5610770463405668e-01 +5.5351683987867276e-03
2.3999999999999995e+00 +8.5388402107487149e+00 +0.0000000000000000e+00 +2.3999999929073050e+00 -2.8397551292301822e-02 -5.5612242531111833e-01 +5.5352363441789369e-03
2.4499999999999993e+00 +8.5388334827553791e+00 +0.0000000000000000e+00 +2.4499999924546301e+00 -2.8398293785709194e-02 -5.5613743522583092e-01 +5.5353077200182470e-03
2.4999999999999991e+00 +8.5388266159776425e+00 +0.0000000000000000e+00 +2.4999999919830875e+00 -2.8399050791879706e-02 -5.5615273242698493e-01 +5.5353825424224925e-03
2.5499999999999989e+00 +8.5388196104116876e+00 +0.0000000000000000e+00 +2.5499999914922920e+00 -2.8399822243736758e-02 -5.5616831496338082e-01 +5.5354608275097004e-03
2.5999999999999988e+00 +8.5388124660536260e+00 +0.0000000000000000e+00 +2.5999999909818574e+00 -2.8400608074204133e-02 -5.5618418088382771e-01 +5.5355425913981094e-03
2.6499999999999986e+00 +8.5388051828994982e+00 +0.0000000000000000e+00 +2.6499999904513980e+00 -2.8401408216205924e-02 -5.5620032823714327e-01 +5.5356278502061897e-03
2.6999999999999984e+00 +8.5387977609452737e+00 +0.0000000000000000e+00 +2.6999999899005278e+00 -2.8402222602666592e-02 -5.5621675507215496e-01 +5.5357166200526442e-03
2.7499999999999982e+00 +8.5387902001868543e+00 +0.0000000000000000e+00 +2.7499999893288609e+00 -2.8403051166510838e-02 -5.5623345943769786e-01 +5.5358089170564062e-03
2.7999999999999980e+00 +8.5387825006200728e+00 +0.0000000000000000e+00 +2.7999999887360114e+00 -2.8403893840663684e-02 -5.5625043938261565e-01 +5.5359047573366677e-03
2.8499999999999979e+00 +8.5387746622406908e+00 +0.0000000000000000e+00 +2.8499999881215934e+00 -2.8404750558050407e-02 -5.5626769295575973e-01 +5.5360041570128790e-03
2.8999999999999977e+00 +8.5387666850444024e+00 +0.0000000000000000e+00 +2.8999999874852209e+00 -2.8405621251596506e-02 -5.5628521820599020e-01 +5.5361071322047551e-03
2.9499999999999975e+00 +8.5387585690268342e+00 +0.0000000000000000e+00 +2.9499999868265072e+00 -2.8406505854227718e-02 -5.5630301318217368e-01 +5.5362136990322929e-03
2.9999999999999973e+00 +8.5387503141835452e+00 +0.0000000000000000e+00 +2.9999999861450668e+00 -2.8407404298869978e-02 -5.5632107593318503e-01 +5.5363238736157684e-03
3.0499999999999972e+00 +8.5387419205100290e+00 +0.0000000000000000e+00 +3.0499999854405133e+00 -2.8408316518449415e-02 -5.5633940450790620e-01 +5.5364376720757552e-03
3.0999999999999970e+00 +8.5387333880017113e+00 +0.0000000000000000e+00 +3.0999999847124604e+00 -2.8409242445892324e-02 -5.5635799695522625e-01 +5.5365551105331402e-03
3.1499999999999968e+00 +8.5387247166539524e+00 +0.0000000000000000e+00 +3.1499999839605217e+00 -2.8410182014125134e-02 -5.5637685132404102e-01 +5.5366762051091102e-03
3.1999999999999966e+00 +8.5387159064620466e+00 +0.0000000000000000e+00 +3.1999999831843109e+00 -2.8411135156074407e-02 -5.5639596566325222e-01 +5.5368009719251824e-03
3.2499999999999964e+00 +8.5387069574212262e+00 +0.0000000000000000e+00 +3.2499999823834416e+00 -2.8412101804666804e-02 -5.5641533802176912e-01 +5.5369294271031995e-03
3.2999999999999963e+00 +8.5386978695266542e+00 +0.0000000000000000e+00 +3.2999999815575274e+00 -2.8413081892829106e-02 -5.5643496644850643e-01 +5.5370615867653492e-03
3.3499999999999961e+00 +8.5386886427734350e+00 +0.0000000000000000e+00 +3.3499999807061815e+00 -2.8414075353488132e-02 -5.5645484899238451e-01 +5.5371974670341655e-03
3.3999999999999959e+00 +8.5386792771566054e+00 +0.0000000000000000e+00 +3.3999999798290177e+00 -2.8415082119570764e-02 -5.5647498370233106e-01 +5.5373370840325464e-03
3.4499999999999957e+00 +8.5386697726711418e+00 +0.0000000000000000e+00 +3.4499999789256490e+00 -2.8416102124003927e-02 -5.5649536862727778e-01 +5.5374804538837474e-03
3.4999999999999956e+00 +8.5386601293119568e+00 +0.0000000000000000e+00 +3.4999999779956892e+00 -2.8417135299714531e-02 -5.5651600181616157e-01 +5.5376275927114084e-03
3.5499999999999954e+00 +8.5386503470739008e+00 +0.0000000000000000e+00 +3.5499999770387514e+00 -2.8418181579629515e-02 -5.5653688131792578e-01 +5.5377785166395490e-03
3.5999999999999952e+00 +8.5386404259517636e+00 +0.0000000000000000e+00 +3.5999999760544488e+00 -2.8419240896675781e-02 -5.5655800518151777e-01 +5.5379332417925895e-03
3.6499999999999950e+00 +8.5386303659402749e+00 +0.0000000000000000e+00 +3.6499999750423942e+00 -2.8420313183780146e-02 -5.5657937145588976e-01 +5.5380917842953476e-03
3.6999999999999948e+00 +8.5386201670341020e+00 +0.0000000000000000e+00 +3.6999999740022012e+00 -2.8421398373869439e-02 -5.5660097818999832e-01 +5.5382541602730572e-03
3.7499999999999947e+00 +8.5386098292278536e+00 +0.0000000000000000e+00 +3.7499999729334825e+00 -2.8422496399870347e-02 -5.5662282343280489e-01 +5.5384203858513730e-03
3.7999999999999945e+00 +8.5385993525160782e+00 +0.0000000000000000e+00 +3.7999999718358515e+00 -2.8423607194709488e-02 -5.5664490523327426e-01 +5.5385904771563764e-03
3.8499999999999943e+00 +8.5385887368932654e+00 +0.0000000000000000e+00 +3.8499999707089207e+00 -2.8424730691313335e-02 -5.5666722164037497e-01 +5.5387644503145910e-03
3.8999999999999941e+00 +8.5385779823538464e+00 +0.0000000000000000e+00 +3.8999999695523035e+00 -2.8425866822608226e-02 -5.5668977070308034e-01 +5.5389423214529934e-03
3.9499999999999940e+00 +8.5385670888921936e+00 +0.0000000000000000e+00 +3.9499999683656122e+00 -2.8427015521520379e-02 -5.5671255047036616e-01 +5.5391241066990102e-03
3.9999999999999938e+00 +8.5385560565026228e+00 +0.0000000000000000e+00 +3.9999999671484598e+00 -2.8428176720975785e-02 -5.5673555899121174e-01 +5.5393098221805364e-03
4.0499999999999936e+00 +8.5385448851793910e+00 +0.0000000000000000e+00 +4.0499999659004589e+00 -2.8429350355475388e-02 -5.5675879423930907e-01 +5.5394994755778252e-03
4.0999999999999934e+00 +8.5385335749167020e+00 +0.0000000000000000e+00 +4.0999999646212224e+00 -2.8430536365820425e-02 -5.5678225388719371e-01 +5.5396930407788170e-03
4.1499999999999932e+00 +8.5385221257087007e+00 +0.0000000000000000e+00 +4.1499999633103624e+00 -2.8431734694386982e-02 -5.5680593553211233e-01 +5.5398904832230922e-03
4.1999999999999931e+00 +8.5385105375494774e+00 +0.0000000000000000e+00 +4.1999999619674915e+00 -2.8432945283550840e-02 -5.5682983677131348e-01 +5.5400917683499813e-03
4.2499999999999929e+00 +8.5384988104330670e+00 +0.0000000000000000e+00 +4.2499999605922225e+00 -2.8434168075687438e-02 -5.5685395520204684e-01 +5.5402968615985218e-03
4.2999999999999927e+00 +8.5384869443534530e+00 +0.0000000000000000e+00 +4.2999999591841682e+00 -2.8435403013171854e-02 -5.5687828842156328e-01 +5.5405057284074570e-03
4.3499999999999925e+00 +8.5384749393045620e+00 +0.0000000000000000e+00 +4.3499999577429405e+00 -2.8436650038378822e-02 -5.5690283402711505e-01 +5.5407183342152198e-03
4.3999999999999924e+00 +8.5384627952802674e+00 +0.0000000000000000e+00 +4.3999999562681511e+00 -2.8437909093682632e-02 -5.5692758961595423e-01 +5.5409346444599272e-03
4.4499999999999922e+00 +8.5384505122743928e+00 +0.0000000000000000e+00 +4.4499999547594129e+00 -2.8439180121457196e-02 -5.5695255278533429e-01 +5.5411546245793530e-03
4.4999999999999920e+00 +8.5384380902807084e+00 +0.0000000000000000e+00 +4.4999999532163377e+00 -2.8440463064075966e-02 -5.5697772113250843e-01 +5.5413782400109256e-03
4.5499999999999918e+00 +8.5384255292929350e+00 +0.0000000000000000e+00 +4.5499999516385374e+00 -2.8441757863911947e-02 -5.5700309225472955e-01 +5.5416054561917057e-03
4.5999999999999917e+00 +8.5384128293047397e+00 +0.0000000000000000e+00 +4.5999999500256239e+00 -2.8443064463337660e-02 -5.5702866374925075e-01 +5.5418362385583802e-03
4.6499999999999915e+00 +8.5383999903097418e+00 +0.0000000000000000e+00 +4.6499999483772099e+00 -2.8444382804725134e-02 -5.5705443321332493e-01 +5.5420705525472446e-03
4.6999999999999913e+00 +8.5383870123015111e+00 +0.0000000000000000e+00 +4.6999999466929063e+00 -2.8445712830445866e-02 -5.5708039824420319e-01 +5.5423083635941861e-03
4.7499999999999911e+00 +8.5383738952735673e+00 +0.0000000000000000e+00 +4.7499999449723260e+00 -2.8447054482870809e-02 -5.5710655643913676e-01 +5.5425496371346748e-03
4.7999999999999909e+00 +8.5383606392193840e+00 +0.0000000000000000e+00 +4.7999999432150799e+00 -2.8448407704370366e-02 -5.5713290539537474e-01 +5.5427943386037537e-03
4.8499999999999908e+00 +8.5383472441323853e+00 +0.0000000000000000e+00 +4.8499999414207799e+00 -2.8449772437314343e-02 -5.5715944271016593e-01 +5.5430424334360160e-03
4.8999999999999906e+00 +8.5383337100059489e+00 +0.0000000000000000e+00 +4.8999999395890379e+00 -2.8451148624071949e-02 -5.5718616598075654e-01 +5.5432938870655949e-03
4.9499999999999904e+00 +8.5383200368334062e+00 +0.0000000000000000e+00 +4.9499999377194657e+00 -2.8452536207011776e-02 -5.5721307280439081e-01 +5.5435486649261520e-03
4.9999999999999902e+00 +8.5383062246080428e+00 +0.0000000000000000e+00 +4.9999999358116742e+00 -2.8453935128501744e-02 -5.5724016077831184e-01 +5.5438067324508613e-03
5.0499999999999901e+00 +8.5382922733230977e+00 +0.0000000000000000e+00 +5.0499999338652746e+00 -2.8455345330909133e-02 -5.5726742749975933e-01 +5.5440680550723981e-03
5.0999999999999899e+00 +8.5382781829717693e+00 +0.0000000000000000e+00 +5.0999999318798785e+00 -2.8456766756600527e-02 -5.5729487056597116e-01 +5.5443325982229225e-03
5.1499999999999897e+00 +8.5382639535472080e+00 +0.0000000000000000e+00 +5.1499999298550971e+00 -2.8458199347941786e-02 -5.5732248757418168e-01 +5.5446003273340681e-03
5.1999999999999895e+00 +8.5382495850425215e+00 +0.0000000000000000e+00 +5.1999999277905413e+00 -2.8459643047298065e-02 -5.5735027612162247e-01 +5.5448712078369228e-03
5.2499999999999893e+00 +8.5382350774507749e+00 +0.0000000000000000e+00 +5.2499999256858230e+00 -2.8461097797033746e-02 -5.5737823380552198e-01 +5.5451452051620258e-03
5.2999999999999892e+00 +8.5382204307649925e+00 +0.0000000000000000e+00 +5.2999999235405530e+00 -2.8462563539512455e-02 -5.5740635822310491e-01 +5.5454222847393445e-03
5.3499999999999890e+00 +8.5382056449781558e+00 +0.0000000000000000e+00 +5.3499999213543417e+00 -2.8464040217097020e-02 -5.5743464697159228e-01 +5.5457024119982580e-03
5.3999999999999888e+00 +8.5381907200832057e+00 +0.0000000000000000e+00 +5.3999999191268007e+00 -2.8465527772149470e-02 -5.5746309764820112e-01 +5.5459855523675630e-03
5.4499999999999886e+00 +8.5381756560730420e+00 +0.0000000000000000e+00 +5.4499999168575401e+00 -2.8467026147030960e-02 -5.5749170785014390e-01 +5.5462716712754339e-03
5.4999999999999885e+00 +8.5381604529405255e+00 +0.0000000000000000e+00 +5.4999999145461720e+00 -2.8468535284101835e-02 -5.5752047517462888e-01 +5.5465607341494251e-03
5.5499999999999883e+00 +8.5381451106784780e+00 +0.0000000000000000e+00 +5.5499999121923054e+00 -2.8470055125721549e-02 -5.5754939721886043e-01 +5.5468527064164597e-03
5.5999999999999881e+00 +8.5381296292796822e+00 +0.0000000000000000e+00 +5.5999999097955522e+00 -2.8471585614248656e-02 -5.5757847158003593e-01 +5.5471475535027980e-03
5.6499999999999879e+00 +8.5381140087368816e+00 +0.0000000000000000e+00 +5.6499999073555225e+00 -2.8473126692040787e-02 -5.5760769585534931e-01 +5.5474452408340496e-03
5.6999999999999877e+00 +8.5380982490427844e+00 +0.0000000000000000e+00 +5.6999999048718264e+00 -2.8474678301454646e-02 -5.5763706764198884e-01 +5.5477457338351348e-03
5.7499999999999876e+00 +8.5380823501900611e+00 +0.0000000000000000e+00 +5.7499999023440749e+00 -2.8476240384845981e-02 -5.5766658453713636e-01 +5.5480489979302895e-03
5.7999999999999874e+00 +8.5380663121713454e+00 +0.0000000000000000e+00 +5.7999998997718780e+00 -2.8477812884569544e-02 -5.5769624413796870e-01 +5.5483549985430383e-03
5.8499999999999872e+00 +8.5380501349792368e+00 +0.0000000000000000e+00 +5.8499998971548459e+00 -2.8479395742979117e-02 -5.5772604404165593e-01 +5.5486637010961929e-03
5.8999999999999870e+00 +8.5380338186062978e+00 +0.0000000000000000e+00 +5.8999998944925895e+00 -2.8480988902427406e-02 -5.5775598184536235e-01 +5.5489750710118234e-03
