# multipoles
# s[mm] polynom_b[n=0][T/m^n] polynom_b[n=1][T/m^n] polynom_b[n=2][T/m^n] polynom_b[n=3][T/m^n] polynom_b[n=4][T/m^n] polynom_b[n=5][T/m^n] polynom_b[n=6][T/m^n] 
+0.0000000000000000e+00 -5.5328603908388407e-01 +7.2693160837731288e+00 +4.8256881199169479e+00 -6.9126763642397279e+01 +1.7750368682946180e+04 +4.3233585789129473e+04 -1.0798661815166122e+08 
+5.0000000000000003e-02 -5.5328589476843493e-01 +7.2693338298342782e+00 +4.8229571364188297e+00 -6.8856843747405051e+01 +1.7805324887259860e+04 +4.1146448927249505e+04 -1.0838014804133545e+08 
+1.0000000000000001e-01 -5.5328612408567679e-01 +7.2693709040586443e+00 +4.8197207870118888e+00 -6.8554189744121601e+01 +1.7857859058343711e+04 +3.8893365061323268e+04 -1.0875128808307962e+08 
+1.4999999999999999e-01 -5.5328672635096565e-01 +7.2694272797205235e+00 +4.8159837774640222e+00 -6.8219664151196383e+01 +1.7908000903768399e+04 +3.6479310360505064e+04 -1.0910039243407384e+08 
+2.0000000000000001e-01 -5.5328770087969725e-01 +7.2695029300909830e+00 +4.8117508048373372e+00 -6.7854129318695655e+01 +1.7955780374619975e+04 +3.3909259569123140e+04 -1.0942781692873953e+08 
+2.5000000000000000e-01 -5.5328904698721937e-01 +7.2695978284422242e+00 +4.8070265740490621e+00 -6.7458447613748760e+01 +1.8001227204867206e+04 +3.1188187617158375e+04 -1.0973391591963075e+08 
+2.9999999999999999e-01 -5.5329076398894395e-01 +7.2697119480476191e+00 +4.8018157847280669e+00 -6.7033481386693651e+01 +1.8044371264604382e+04 +2.8321069137191829e+04 -1.1001904465184987e+08 
+3.4999999999999998e-01 -5.5329285120031801e-01 +7.2698452621802794e+00 +4.7961231396227051e+00 -6.6580092959456465e+01 +1.8085242344927068e+04 +2.5312878583317164e+04 -1.1028355786109082e+08 
+4.0000000000000002e-01 -5.5329530793671033e-01 +7.2699977441187773e+00 +4.7899533383837420e+00 -6.6099144833828746e+01 +1.8123870318879235e+04 +2.2168591854604172e+04 -1.1052781082767422e+08 
+4.5000000000000001e-01 -5.5329813351359636e-01 +7.2701693671360799e+00 +4.7833110833564589e+00 -6.5591499250058703e+01 +1.8160284982382895e+04 +1.8893182677188623e+04 -1.1075215829945695e+08 
+5.0000000000000000e-01 -5.5330132724643244e-01 +7.2703601045118775e+00 +4.7762010746772052e+00 -6.5058018683813359e+01 +1.8194516193460691e+04 +1.5491626678089095e+04 -1.1095695545104843e+08 
+5.5000000000000004e-01 -5.5330488845067960e-01 +7.2705699295215043e+00 +4.7686280155306431e+00 -6.4499565393673819e+01 +1.8226593725853843e+04 +1.1968897670157816e+04 -1.1114255688354754e+08 
+5.9999999999999998e-01 -5.5330881644186747e-01 +7.2707988154453371e+00 +4.7605966046671631e+00 -6.3917001814032247e+01 +1.8256547468297362e+04 +8.3299708839523064e+03 -1.1130931795774107e+08 
+6.5000000000000002e-01 -5.5331311053548660e-01 +7.2710467355607769e+00 +4.7521115442215303e+00 -6.3311190230725821e+01 +1.8284407225842948e+04 +4.5798203625605965e+03 -1.1145759349856564e+08 
+6.9999999999999996e-01 -5.5331777004703353e-01 +7.2713136631501083e+00 +4.7431775355978738e+00 -6.2682993085284664e+01 +1.8310202812353393e+04 +7.2342136667416150e+02 -1.1158773834940580e+08 
+7.5000000000000000e-01 -5.5332279429207221e-01 +7.2715995714930530e+00 +4.7337992792256793e+00 -6.2033272682948237e+01 +1.8333964074936761e+04 -3.2342519900556172e+03 -1.1170010760615531e+08 
+8.0000000000000004e-01 -5.5332818258615457e-01 +7.2719044338693015e+00 +4.7239814758118843e+00 -6.1362891298652777e+01 +1.8355720848919864e+04 -7.2882258419748023e+03 -1.1179505627233352e+08 
+8.4999999999999998e-01 -5.5333393424485022e-01 +7.2722282235643938e+00 +4.7137288261779249e+00 -6.0672711419432659e+01 +1.8375502966741024e+04 -1.1433524576675087e+04 -1.1187293933089632e+08 
+9.0000000000000002e-01 -5.5334004858374464e-01 +7.2725709138590062e+00 +4.7030460311618576e+00 -5.9963595295064948e+01 +1.8393340258754630e+04 -1.5665174573658031e+04 -1.1193411174372725e+08 
+9.4999999999999996e-01 -5.5334652491841452e-01 +7.2729324780375704e+00 +4.6919377921301377e+00 -5.9236405302570574e+01 +1.8409262543475983e+04 -1.9978201158416981e+04 -1.1197892840893160e+08 
+1.0000000000000000e+00 -5.5335336256452761e-01 +7.2733128893840160e+00 +4.6804088094882568e+00 -5.8492003770563684e+01 +1.8423299662558751e+04 -2.4367630085524117e+04 -1.1200774436476494e+08 
+1.0500000000000000e+00 -5.5336056083768825e-01 +7.2737121211857989e+00 +4.6684637842450636e+00 -5.7731253142751406e+01 +1.8435481439347270e+04 -2.8828486142321290e+04 -1.1202091452249759e+08 
+1.1000000000000001e+00 -5.5336811905351801e-01 +7.2741301467232446e+00 +4.6561074171350638e+00 -5.6955015538696607e+01 +1.8445837708572639e+04 -3.3355796812375520e+04 -1.1201879388509808e+08 
+1.1499999999999999e+00 -5.5337603652770329e-01 +7.2745669392880057e+00 +4.6433444087895221e+00 -5.6164153520363776e+01 +1.8454398303664657e+04 -3.7944585946042556e+04 -1.1200173743331318e+08 
+1.2000000000000000e+00 -5.5338431257592580e-01 +7.2750224721630765e+00 +4.6301794607627684e+00 -5.5359529262884934e+01 +1.8461193034005162e+04 -4.2589880577607553e+04 -1.1197009998765029e+08 
+1.2500000000000000e+00 -5.5339294651387616e-01 +7.2754967186377097e+00 +4.6166172732663426e+00 -5.4542005175730061e+01 +1.8466251748321745e+04 -4.7286705819347946e+04 -1.1192423664820698e+08 
+1.3000000000000000e+00 -5.5340193765725931e-01 +7.2759896519978398e+00 +4.6026625470294311e+00 -5.3712443507748603e+01 +1.8469604273596247e+04 -5.2030088093392369e+04 -1.1186450233881088e+08 
+1.3500000000000001e+00 -5.5341128532179951e-01 +7.2765012455339741e+00 +4.5883199828572865e+00 -5.2871706666418881e+01 +1.8471280441466839e+04 -5.6815052540136792e+04 -1.1179125204049577e+08 
+1.3999999999999999e+00 -5.5342098882321167e-01 +7.2770314725356071e+00 +4.5735942821495508e+00 -5.2020656998544396e+01 +1.8471310066309146e+04 -6.1636624768671572e+04 -1.1170484061505692e+08 
+1.4500000000000000e+00 -5.5343104747729976e-01 +7.2775803062916680e+00 +4.5584901455411337e+00 -5.1160156803517332e+01 +1.8469722981143572e+04 -6.6489830802686978e+04 -1.1160562304246284e+08 
+1.5000000000000000e+00 -5.5344146059978228e-01 +7.2781477200908968e+00 +4.5430122745111223e+00 -5.0291068344361626e+01 +1.8466548996186979e+04 -7.1369696961817244e+04 -1.1149395414905426e+08 
+1.5500000000000000e+00 -5.5345222750646905e-01 +7.2787336872253832e+00 +4.5271653699592234e+00 -4.9414254000269281e+01 +1.8461817939804747e+04 -7.6271248617105259e+04 -1.1137018889420220e+08 
+1.6000000000000001e+00 -5.5346334751315085e-01 +7.2793381809859481e+00 +4.5109541315496369e+00 -4.8530576088693934e+01 +1.8455559672176056e+04 -8.1189511593775504e+04 -1.1123468244630629e+08 
+1.6499999999999999e+00 -5.5347481993564884e-01 +7.2799611746631365e+00 +4.4943832616702490e+00 -4.7640896879743131e+01 +1.8447803981179382e+04 -8.6119512158978410e+04 -1.1108778949200000e+08 
+1.7000000000000000e+00 -5.5348664408978854e-01 +7.2806026415515719e+00 +4.4774574611455344e+00 -4.6746078805965148e+01 +1.8438580693244428e+04 -9.1056275171538902e+04 -1.1092986496197593e+08 
+1.7500000000000000e+00 -5.5349881929141276e-01 +7.2812625549409189e+00 +4.4601814304907563e+00 -4.5846984062689124e+01 +1.8427919653325334e+04 -9.5994827497919003e+04 -1.1076126395563282e+08 
+1.8000000000000000e+00 -5.5351134485635656e-01 +7.2819408881252388e+00 +4.4425598722858899e+00 -4.4944475012794555e+01 +1.8415850636816740e+04 -1.0093019457934347e+05 -1.1058234104656151e+08 
+1.8500000000000001e+00 -5.5352422010051905e-01 +7.2826376143972240e+00 +4.4245974870793354e+00 -4.4039413942424204e+01 +1.8402403487406562e+04 -1.0585740249854662e+05 -1.1039345132077298e+08 
+1.8999999999999999e+00 -5.5353744433981278e-01 +7.2833527070507449e+00 +4.4062989765293272e+00 -4.3132663179011949e+01 +1.8387608010015636e+04 -1.1077147694842235e+05 -1.1019494957504876e+08 
+1.9500000000000000e+00 -5.5355101689008923e-01 +7.2840861393818761e+00 +4.3876690417758288e+00 -4.2225085115640638e+01 +1.8371494031456285e+04 -1.1566744308080434e+05 -1.0998719077678688e+08 
+2.0000000000000000e+00 -5.5356493706728449e-01 +7.2848378846824255e+00 +4.3687123832667423e+00 -4.1317541944474769e+01 +1.8354091393730389e+04 -1.2054032773191252e+05 -1.0977052998916574e+08 
+2.0499999999999998e+00 -5.5357920396756577e-01 +7.2856079022651805e+00 +4.3494345299897637e+00 -4.0410923472555986e+01 +1.8335409434481026e+04 -1.2538496366190241e+05 -1.0954518233794880e+08 
+2.1000000000000001e+00 -5.5359381580520151e-01 +7.2863960964538901e+00 +4.3298443081386688e+00 -3.9506210787471652e+01 +1.8315375412979538e+04 -1.3019550199714174e+05 -1.0931080369303453e+08 
+2.1499999999999999e+00 -5.5360877057315694e-01 +7.2872023545515701e+00 +4.3099515670358617e+00 -3.8604408823333337e+01 +1.8293896171460659e+04 -1.3496594267260539e+05 -1.0906691061098219e+08 
+2.2000000000000002e+00 -5.5362406626451044e-01 +7.2880265638663131e+00 +4.2897661602309514e+00 -3.7706522717244994e+01 +1.8270878440221684e+04 -1.3969028394470265e+05 -1.0881301890175346e+08 
+2.2500000000000000e+00 -5.5363970087231562e-01 +7.2888686117030588e+00 +4.2692979390596788e+00 -3.6813557460893612e+01 +1.8246229012286520e+04 -1.4436252527679794e+05 -1.0854864480895254e+08 
+2.2999999999999998e+00 -5.5365567238966718e-01 +7.2897283853671331e+00 +4.2485567556983828e+00 -3.5926518057959306e+01 +1.8219854655539708e+04 -1.4897666598007482e+05 -1.0827330439463992e+08 
+2.3500000000000001e+00 -5.5367197880959285e-01 +7.2906057721663151e+00 +4.2275524626281014e+00 -3.5046409590959314e+01 +1.8191662131139819e+04 -1.5352670474078751e+05 -1.0798651368542959e+08 
+2.3999999999999999e+00 -5.5368861812521020e-01 +7.2915006594053597e+00 +4.2062949113551804e+00 -3.4174237008080404e+01 +1.8161558233465792e+04 -1.5800664135086196e+05 -1.0768778895463471e+08 
+2.4500000000000002e+00 -5.5370558832959171e-01 +7.2924129343901187e+00 +4.1847939541337844e+00 -3.3311005292791954e+01 +1.8129449729213058e+04 -1.6241047528350670e+05 -1.0737664626372190e+08 
+2.5000000000000000e+00 -5.5372288741591202e-01 +7.2933424844281536e+00 +4.1630594442496305e+00 -3.2457719499195548e+01 +1.8095243364439310e+04 -1.6673220540180596e+05 -1.0705260155787624e+08 
+2.5499999999999998e+00 -5.5374051337727337e-01 +7.2942891968222430e+00 +4.1411012348391090e+00 -3.1615384455258543e+01 +1.8058845889557855e+04 -1.7096583247521156e+05 -1.0671517081659596e+08 
+2.6000000000000001e+00 -5.5375846420677932e-01 +7.2952529588823634e+00 +4.1189291775604087e+00 -3.0785005289788725e+01 +1.8020164091469273e+04 -1.7510535473769490e+05 -1.0636387024962243e+08 
+2.6499999999999999e+00 -5.5377673789763560e-01 +7.2962336579116087e+00 +4.0965531259663734e+00 -2.9967586846702421e+01 +1.7979104714101515e+04 -1.7914477273869532e+05 -1.0599821580974662e+08 
+2.7000000000000002e+00 -5.5379533244295531e-01 +7.2972311812161808e+00 +4.0739829342379004e+00 -2.9164134071036607e+01 +1.7935574482838900e+04 -1.8307808624568462e+05 -1.0561772331703122e+08 
+2.7500000000000000e+00 -5.5381424583593053e-01 +7.2982454161026640e+00 +4.0512284549948268e+00 -2.8375651931915769e+01 +1.7889480164141773e+04 -1.8689929476400046e+05 -1.0522190886379856e+08 
+2.7999999999999998e+00 -5.5383347606976929e-01 +7.2992762498752404e+00 +4.0282995417403713e+00 -2.7603145288400956e+01 +1.7840728505257677e+04 -1.9060239871618533e+05 -1.0481028843144760e+08 
+2.8500000000000001e+00 -5.5385302113761770e-01 +7.3003235698401250e+00 +4.0052060493176809e+00 -2.6847619079239244e+01 +1.7789226219990662e+04 -1.9418139782494452e+05 -1.0438237778561565e+08 
+2.8999999999999999e+00 -5.5387287903269500e-01 +7.3013872632989170e+00 +3.9819578299479734e+00 -2.6110078049268569e+01 +1.7734880090299692e+04 -1.9763029341425796e+05 -1.0393769313883178e+08 
+2.9500000000000002e+00 -5.5389304774822534e-01 +7.3024672175617287e+00 +3.9585647398039372e+00 -2.5391527281687758e+01 +1.7677596797812355e+04 -2.0094308402677038e+05 -1.0347575005485667e+08 
+3.0000000000000000e+00 -5.5391352527743265e-01 +7.3035633199292604e+00 +3.9350366336926168e+00 -2.4692971481796743e+01 +1.7617283055219181e+04 -2.0411377124967243e+05 -1.0299606427885561e+08 
+3.0499999999999998e+00 -5.5393430961352075e-01 +7.3046754577079742e+00 +3.9113833652256815e+00 -2.4015415579155789e+01 +1.7553845621592121e+04 -2.0713635484075180e+05 -1.0249815192812583e+08 
+3.1000000000000001e+00 -5.5395539874978195e-01 +7.3058035181997827e+00 +3.8876147886849499e+00 -2.3359864315449130e+01 +1.7487191229477674e+04 -2.1000483609787794e+05 -1.0198152890285699e+08 
+3.1499999999999999e+00 -5.5397679067945049e-01 +7.3069473887103795e+00 +3.8637407609552992e+00 -2.2727322590801723e+01 +1.7417226542824359e+04 -2.1271321496021454e+05 -1.0144571064920631e+08 
+3.2000000000000002e+00 -5.5399848339579039e-01 +7.3081069565411640e+00 +3.8397711371497829e+00 -2.2118795122558410e+01 +1.7343858284179038e+04 -2.1525549288429783e+05 -1.0089021304881953e+08 
+3.2500000000000000e+00 -5.5402047489203743e-01 +7.3092821089951974e+00 +3.8157157714667371e+00 -2.1535286701650978e+01 +1.7266993193592640e+04 -2.1762567066070036e+05 -1.0031455207275502e+08 
+3.2999999999999998e+00 -5.5404276316151058e-01 +7.3104727333742527e+00 +3.7915845217638862e+00 -2.0977802061501812e+01 +1.7186537918771650e+04 -2.1981774957892456e+05 -9.9718243093084455e+07 
+3.3500000000000001e+00 -5.5406534619752690e-01 +7.3116787169822803e+00 +3.7673872440753939e+00 -2.0447346031374895e+01 +1.7102399158423141e+04 -2.2182573009388809e+05 -9.9100801831627071e+07 
+3.3999999999999999e+00 -5.5408822199332419e-01 +7.3128999471190737e+00 +3.7431337933404665e+00 -1.9944923255739941e+01 +1.7014483642524341e+04 -2.2364361419689743e+05 -9.8461744227139100e+07 
+3.4500000000000002e+00 -5.5411138854224884e-01 +7.3141363110868092e+00 +3.7188340281626018e+00 -1.9471538508083789e+01 +1.6922698005338327e+04 -2.2526540270689889e+05 -9.7800585583812147e+07 
+3.5000000000000000e+00 -5.5413484383761180e-01 +7.3153876961855415e+00 +3.6944978043923404e+00 -1.9028196452976140e+01 +1.6826948956996668e+04 -2.2668509740764793e+05 -9.7116841723033175e+07 
+3.5499999999999998e+00 -5.5415858587274558e-01 +7.3166539897140179e+00 +3.6701349807598347e+00 -1.8615901705431433e+01 +1.6727143130147691e+04 -2.2789670046354795e+05 -9.6410027942853957e+07 
+3.6000000000000001e+00 -5.5418261264099866e-01 +7.3179350789724209e+00 +3.6457554124319147e+00 -1.8235658969070791e+01 +1.6623187260341241e+04 -2.2889421319482254e+05 -9.5679660261831552e+07 
+3.6499999999999999e+00 -5.5420692213564959e-01 +7.3192308512599311e+00 +3.6213689603081431e+00 -1.7888472874011153e+01 +1.6514987925828249e+04 -2.2967163762159497e+05 -9.4925253623467028e+07 
+3.6999999999999900e+00 -5.5423151235012513e-01 +7.3205411938742637e+00 +3.5969854817696665e+00 -1.7575348022879641e+01 +1.6402451807805915e+04 -2.3022297589820641e+05 -9.4146323698698491e+07 
+3.7499999999999898e+00 -5.5425638127775045e-01 +7.3218659941139590e+00 +3.5726148340596393e+00 -1.7297289055564910e+01 +1.6285485590507284e+04 -2.3054222982635617e+05 -9.3342386172890455e+07 
+3.7999999999999901e+00 -5.5428152691186228e-01 +7.3232051392745765e+00 +3.5482668758467262e+00 -1.7055300482770420e+01 +1.6163995919749252e+04 -2.3062340231140834e+05 -9.2512956473025262e+07 
+3.8499999999999899e+00 -5.5430694724590346e-01 +7.3245585166526155e+00 +3.5239514686069415e+00 -1.6850386870616937e+01 +1.6037889375567504e+04 -2.3046049574652623e+05 -9.1657549616948843e+07 
+3.8999999999999901e+00 -5.5433264027319440e-01 +7.3259260135433975e+00 +3.4996784709269866e+00 -1.6683552750725664e+01 +1.5907072608316106e+04 -2.3004751274220666e+05 -9.0775681067665026e+07 
+3.9499999999999900e+00 -5.5435860398717218e-01 +7.3273075172435194e+00 +3.4754577410434941e+00 -1.6555802704299900e+01 +1.5771452294613293e+04 -2.2937845553905374e+05 -8.9866866529334143e+07 
+3.9999999999999898e+00 -5.5438483638120062e-01 +7.3287029150430403e+00 +3.4512991434798277e+00 -1.6468141051796877e+01 +1.5630934930367990e+04 -2.2844732845501465e+05 -8.8930620440696761e+07 
+4.0499999999999901e+00 -5.5441133529950770e-01 +7.3301120735643108e+00 +3.4272087992917739e+00 -1.6421188306652436e+01 +1.5485507785967591e+04 -2.2725066629355788e+05 -8.7966936205039769e+07 
+4.0999999999999899e+00 -5.5443809798831289e-01 +7.3315347710819916e+00 +3.4031787624316765e+00 -1.6414033300877932e+01 +1.5335467482052522e+04 -2.2579515452230829e+05 -8.6977635111041084e+07 
+4.1499999999999897e+00 -5.5446512154383221e-01 +7.3329707623439937e+00 +3.3791977931728412e+00 -1.6445384028781742e+01 +1.5181185183891601e+04 -2.2409002363864717e+05 -8.5964977660842821e+07 
+4.1999999999999904e+00 -5.5449240306243530e-01 +7.3344198021015146e+00 +3.3552546508111094e+00 -1.6513948655363368e+01 +1.5023032081946036e+04 -2.2214450273502539e+05 -8.4931224511963382e+07 
+4.2499999999999902e+00 -5.5451993964039126e-01 +7.3358816451069195e+00 +3.3313380959951409e+00 -1.6618435386129612e+01 +1.4861379328844330e+04 -2.1996782061544384e+05 -8.3878636063020855e+07 
+4.2999999999999901e+00 -5.5454772837399890e-01 +7.3373560461099947e+00 +3.3074368891291752e+00 -1.6757552345625026e+01 +1.4696598090503947e+04 -2.1756920668232479e+05 -8.2809472826155886e+07 
+4.3499999999999899e+00 -5.5457576635953620e-01 +7.3388427598625485e+00 +3.2835397879765416e+00 -1.6930007737285692e+01 +1.4529059592169991e+04 -2.1495788973551005e+05 -8.1725995667162895e+07 
+4.3999999999999897e+00 -5.5460405069327623e-01 +7.3403415411186934e+00 +3.2596355533204626e+00 -1.7134509882563986e+01 +1.4359134989481425e+04 -2.1214309753852061e+05 -8.0630465028396815e+07 
+4.4499999999999904e+00 -5.5463257847156000e-01 +7.3418521446314369e+00 +3.2357129447086348e+00 -1.7369767059578411e+01 +1.4187195461477906e+04 -2.0913405825214912e+05 -7.9525141469305262e+07 
+4.4999999999999902e+00 -5.5466134679063539e-01 +7.3433743251555343e+00 +3.2117607193047091e+00 -1.7634487633215443e+01 +1.4013612254047479e+04 -2.0593999928403646e+05 -7.8412286010571525e+07 
+4.5499999999999901e+00 -5.5469035274676248e-01 +7.3449078374450538e+00 +3.1877676365121008e+00 -1.7927379951188460e+01 +1.3838756555598777e+04 -2.0257014818194351e+05 -7.7294159296467215e+07 
+4.5999999999999899e+00 -5.5471959343624888e-01 +7.3464524362565706e+00 +3.1637224554853765e+00 -1.8247152488340941e+01 +1.3662999554386142e+04 -1.9903373139243311e+05 -7.6173021942228660e+07 
+4.6499999999999897e+00 -5.5474906595537044e-01 +7.3480078763454140e+00 +3.1396139344613760e+00 -1.8592513664133772e+01 +1.3486712467716847e+04 -1.9533997588833675e+05 -7.5051134773783088e+07 
+4.6999999999999904e+00 -5.5477876740041243e-01 +7.3495739124665000e+00 +3.1154308293485893e+00 -1.8962171908945354e+01 +1.3310266572870747e+04 -1.9149810847167039e+05 -7.3930759013843074e+07 
+4.7499999999999902e+00 -5.5480869486760198e-01 +7.3511502993825610e+00 +3.0911619001048929e+00 -1.9354835975466933e+01 +1.3134033037550747e+04 -1.8751735334257063e+05 -7.2814155139094338e+07 
+4.7999999999999901e+00 -5.5483884545322204e-01 +7.3527367918492414e+00 +3.0667959032601328e+00 -1.9769214358634240e+01 +1.2958383121322562e+04 -1.8340693673673572e+05 -7.1703584246793643e+07 
+4.8499999999999899e+00 -5.5486921625349472e-01 +7.3543331446241202e+00 +3.0423215945613471e+00 -2.0204015635287384e+01 +1.2783688101749944e+04 -1.7917608425545075e+05 -7.0601307539203525e+07 
+4.8999999999999897e+00 -5.5489980436475506e-01 +7.3559391124717362e+00 +3.0177277311978572e+00 -2.0657948684273077e+01 +1.2610319221561311e+04 -1.7483401902040461e+05 -6.9509586002347708e+07 
+4.9499999999999904e+00 -5.5493060688314466e-01 +7.3575544501498245e+00 +2.9930030703181680e+00 -2.1129722126750526e+01 +1.2438647720093451e+04 -1.7038996621699512e+05 -6.8430680579897091e+07 
+4.9999999999999902e+00 -5.5496162090498158e-01 +7.3591789124218172e+00 +2.9681363677883872e+00 -2.1618044838398593e+01 +1.2269044868661331e+04 -1.6585314893500658e+05 -6.7366852418037906e+07 
+5.0499999999999901e+00 -5.5499284352877387e-01 +7.3608122460969785e+00 +2.9431167913232890e+00 -2.2121634141639177e+01 +1.2101881967670102e+04 -1.6123278863814982e+05 -6.6320362590577997e+07 
