# multipoles
# s[mm] polynom_b[n=0][T/m^n] polynom_b[n=1][T/m^n] polynom_b[n=2][T/m^n] polynom_b[n=3][T/m^n] polynom_b[n=4][T/m^n] polynom_b[n=5][T/m^n] polynom_b[n=6][T/m^n] 
+0.0000000000000000e+00 -5.5372088640439066e-01 +7.3180413727201641e+00 +4.8318034919262489e+00 -1.4584001666660129e+02 -1.6997895859635326e+04 +5.4626338095562090e+05 +1.0125552499138963e+08 
+5.0000000000000003e-02 -5.5372172789514473e-01 +7.3180209196144084e+00 +4.8346838296243853e+00 -1.4592593529195591e+02 -1.7019928512981387e+04 +5.4684477311533433e+05 +1.0134758236216870e+08 
+1.0000000000000001e-01 -5.5372287748888738e-01 +7.3180171566593799e+00 +4.8373580455870195e+00 -1.4601264651624746e+02 -1.7045655503801318e+04 +5.4749778216528543e+05 +1.0146156153256410e+08 
+1.4999999999999999e-01 -5.5372433443901792e-01 +7.3180300570815149e+00 +4.8398146098189327e+00 -1.4610051505174874e+02 -1.7074848925205762e+04 +5.4822363424893783e+05 +1.0159618007680573e+08 
+2.0000000000000001e-01 -5.5372609799896577e-01 +7.3180595941118192e+00 +4.8420419926672551e+00 -1.4618990576433725e+02 -1.7107280878912352e+04 +5.4902355673897220e+05 +1.0175015562477215e+08 
+2.5000000000000000e-01 -5.5372816742220676e-01 +7.3181057409779333e+00 +4.8440286655655322e+00 -1.4628118335926990e+02 -1.7142723496846844e+04 +5.4989877569821803e+05 +1.0192220600978300e+08 
+2.9999999999999999e-01 -5.5373054196219074e-01 +7.3181684709107024e+00 +4.8457630978323660e+00 -1.4637471264585730e+02 -1.7180948854838585e+04 +5.5085051803642185e+05 +1.0211104868867055e+08 
+3.4999999999999998e-01 -5.5373322087233923e-01 +7.3182477571426565e+00 +4.8472337607815676e+00 -1.4647085848281819e+02 -1.7221729084034469e+04 +5.5188001110440202e+05 +1.0231540149593116e+08 
+4.0000000000000002e-01 -5.5373620340621688e-01 +7.3183435729024531e+00 +4.8484291248859792e+00 -1.4656998553209672e+02 -1.7264836290431249e+04 +5.5298848055944790e+05 +1.0253398208444247e+08 
+4.5000000000000001e-01 -5.5373948881724322e-01 +7.3184558914268774e+00 +4.8493376611208934e+00 -1.4667245877461269e+02 -1.7310042597137970e+04 +5.5417715476216096e+05 +1.0276550823391326e+08 
+5.0000000000000000e-01 -5.5374307635898090e-01 +7.3185846859423549e+00 +4.8499478394611346e+00 -1.4677864273889369e+02 -1.7357120096369286e+04 +5.5544725831173884e+05 +1.0300869750005542e+08 
+5.5000000000000004e-01 -5.5374696528493772e-01 +7.3187299296851753e+00 +4.8502481323664339e+00 -1.4688890231817399e+02 -1.7405840951282113e+04 +5.5680001876971044e+05 +1.0326226792869219e+08 
+5.9999999999999998e-01 -5.5375115484869109e-01 +7.3188915958901868e+00 +4.8502270076273533e+00 -1.4700360234589590e+02 -1.7455977195069023e+04 +5.5823666328974464e+05 +1.0352493667160375e+08 
+6.5000000000000002e-01 -5.5375564430372848e-01 +7.3190696577918848e+00 +4.8498729387989608e+00 -1.4712310758602831e+02 -1.7507301022167569e+04 +5.5975841836281901e+05 +1.0379542199162163e+08 
+6.9999999999999996e-01 -5.5376043290366594e-01 +7.3192640886216225e+00 +4.8491743960729350e+00 -1.4724778266609442e+02 -1.7559584531944012e+04 +5.6136650939660682e+05 +1.0407244148840247e+08 
+7.5000000000000000e-01 -5.5376551990205347e-01 +7.3194748616211278e+00 +4.8481198497149407e+00 -1.4737799260753229e+02 -1.7612599827282484e+04 +5.6306216503602907e+05 +1.0435471279006507e+08 
+8.0000000000000004e-01 -5.5377090455247990e-01 +7.3197019500228953e+00 +4.8466977699665099e+00 -1.4751410202077179e+02 -1.7666119010875271e+04 +5.6484661051552289e+05 +1.0464095352491847e+08 
+8.4999999999999998e-01 -5.5377658610858427e-01 +7.3199453270665416e+00 +4.8448966285573789e+00 -1.4765647578392480e+02 -1.7719914223158423e+04 +5.6672107326061733e+05 +1.0492988156532834e+08 
+9.0000000000000002e-01 -5.5378256382399871e-01 +7.3202049659885020e+00 +4.8427048985655015e+00 -1.4780547862151971e+02 -1.7773757641783279e+04 +5.6868677945850918e+05 +1.0522021503572728e+08 
+9.4999999999999996e-01 -5.5378883695230652e-01 +7.3204808400297905e+00 +4.8401110473257791e+00 -1.4796147541869161e+02 -1.7827421294250194e+04 +5.7074495661204320e+05 +1.0551067106355335e+08 
+1.0000000000000000e+00 -5.5379540474716316e-01 +7.3207729224307725e+00 +4.8371035471086872e+00 -1.4812483099405623e+02 -1.7880677331566090e+04 +5.7289683161720727e+05 +1.0579996757056597e+08 
+1.0500000000000000e+00 -5.5380226646227126e-01 +7.3210811864287511e+00 +4.8336708720379518e+00 -1.4829591002677830e+02 -1.7933297962243272e+04 +5.7514363025153661e+05 +1.0608682289834106e+08 
+1.1000000000000001e+00 -5.5380942135122702e-01 +7.3214056052713588e+00 +4.8298014892053747e+00 -1.4847507758189033e+02 -1.7985055203401422e+04 +5.7748658144960599e+05 +1.0636995408395329e+08 
+1.1499999999999999e+00 -5.5381686866781310e-01 +7.3217461521950984e+00 +4.8254838724539200e+00 -1.4866269824672401e+02 -1.8035721248573573e+04 +5.7992691020068014e+05 +1.0664807933554760e+08 
+1.2000000000000000e+00 -5.5382460766565877e-01 +7.3221028004495663e+00 +4.8207064905652501e+00 -1.4885913711363619e+02 -1.8085068163426393e+04 +5.8246584564142383e+05 +1.0691991602647093e+08 
+1.2500000000000000e+00 -5.5383263759849943e-01 +7.3224755232745675e+00 +4.8154578185934298e+00 -1.4906475884173844e+02 -1.8132868175851010e+04 +5.8510461332278780e+05 +1.0718418260272041e+08 
+1.3000000000000000e+00 -5.5384095772006858e-01 +7.3228642939182000e+00 +4.8097263246289508e+00 -1.4927992840830819e+02 -1.8178893325218349e+04 +5.8784444140840811e+05 +1.0743959622722998e+08 
+1.3500000000000001e+00 -5.5384956728411527e-01 +7.3232690856263316e+00 +4.8035004822542646e+00 -1.4950501067141707e+02 -1.8222915803732401e+04 +5.9068655709142494e+05 +1.0768487511718486e+08 
+1.3999999999999999e+00 -5.5385846554432394e-01 +7.3236898716472911e+00 +4.7967687601537703e+00 -1.4974037054989083e+02 -1.8264707665114740e+04 +5.9363218800055049e+05 +1.0791873652593064e+08 
+1.4500000000000000e+00 -5.5386765175452368e-01 +7.3241266252289812e+00 +4.7895196320850486e+00 -1.4998637292415634e+02 -1.8304041103547035e+04 +5.9668256145615771e+05 +1.0813989867062733e+08 
+1.5000000000000000e+00 -5.5387712516848975e-01 +7.3245793196240427e+00 +4.7817415695592596e+00 -1.5024338283827356e+02 -1.8340688252132204e+04 +5.9983890612029959e+05 +1.0834707935024361e+08 
+1.5500000000000000e+00 -5.5388688503997785e-01 +7.3250479280793073e+00 +4.7734230421856969e+00 -1.5051176507271322e+02 -1.8374421186101354e+04 +6.0310244847632712e+05 +1.0853899595007302e+08 
+1.6000000000000001e+00 -5.5389693062280509e-01 +7.3255324238509090e+00 +4.7645525250240990e+00 -1.5079188474946994e+02 -1.8405012136837409e+04 +6.0647441775867145e+05 +1.0871436694023052e+08 
+1.6499999999999999e+00 -5.5390726117080702e-01 +7.3260327801904861e+00 +4.7551184878935144e+00 -1.5108410678244675e+02 -1.8432233183010983e+04 +6.0995604150215024e+05 +1.0887190971969984e+08 
+1.7000000000000000e+00 -5.5391787593777819e-01 +7.3265489703516673e+00 +4.7451094017395166e+00 -1.5138879613811241e+02 -1.8455856441246538e+04 +6.1354854765488661e+05 +1.0901034196903917e+08 
+1.7500000000000000e+00 -5.5392877417759356e-01 +7.3270809675932620e+00 +4.7345137397163404e+00 -1.5170631796478537e+02 -1.8475654084619080e+04 +6.1725316564141470e+05 +1.0912838173808555e+08 
+1.8000000000000000e+00 -5.5393995514407579e-01 +7.3276287451688882e+00 +4.7233199726708497e+00 -1.5203703716640160e+02 -1.8491398217614027e+04 +6.2107112285842036e+05 +1.0922474658708134e+08 
+1.8500000000000001e+00 -5.5395141809108961e-01 +7.3281922763388083e+00 +4.7115165727772581e+00 -1.5238131888736393e+02 -1.8502860990579269e+04 +6.2500364864605037e+05 +1.0929815442699501e+08 
+1.8999999999999999e+00 -5.5396316227254772e-01 +7.3287715343629403e+00 +4.6990920131217528e+00 -1.5273952823268738e+02 -1.8509814568211455e+04 +6.2905197201915353e+05 +1.0934732322308554e+08 
+1.9500000000000000e+00 -5.5397518694230319e-01 +7.3293664925010402e+00 +4.6860347637203965e+00 -1.5311203026204106e+02 -1.8512031033851115e+04 +6.3321732157546340e+05 +1.0937097039651059e+08 
+2.0000000000000000e+00 -5.5398749135429215e-01 +7.3299771240165619e+00 +4.6723332977885423e+00 -1.5349919015935009e+02 -1.8509282559702573e+04 +6.3750092692496337e+05 +1.0936781398243459e+08 
+2.0499999999999998e+00 -5.5400007463494128e-01 +7.3306033842464169e+00 +4.6579802432185957e+00 -1.5390122667081613e+02 -1.8501402962792548e+04 +6.4190310168081732e+05 +1.0933692516239673e+08 
+2.1000000000000001e+00 -5.5401293539787977e-01 +7.3312451587739726e+00 +4.6429850358814866e+00 -1.5431780101802315e+02 -1.8488477335017124e+04 +6.4642055275390856e+05 +1.0927881749262194e+08 
+2.1499999999999999e+00 -5.5402607212785959e-01 +7.3319023131615335e+00 +4.6273615163093762e+00 -1.5474844582906820e+02 -1.8470654670387456e+04 +6.5104909853936778e+05 +1.0919437259226957e+08 
+2.2000000000000002e+00 -5.5403948330971786e-01 +7.3325747129761041e+00 +4.6111235297872799e+00 -1.5519269389590607e+02 -1.8448084094720147e+04 +6.5578455868129188e+05 +1.0908447298220491e+08 
+2.2500000000000000e+00 -5.5405316742820154e-01 +7.3332622237823744e+00 +4.5942849176839688e+00 -1.5565007791043053e+02 -1.8420914629490879e+04 +6.6062275202979823e+05 +1.0895000049097699e+08 
+2.2999999999999998e+00 -5.5406712296810257e-01 +7.3339647111464137e+00 +4.5768595231838312e+00 -1.5612013060698519e+02 -1.8389295343387115e+04 +6.6555949777227629e+05 +1.0879183725481978e+08 
+2.3500000000000001e+00 -5.5408134841419709e-01 +7.3346820406334503e+00 +4.5588611897570059e+00 -1.5660238467649680e+02 -1.8353375312290125e+04 +6.7059061473277851e+05 +1.0861086545836553e+08 
+2.3999999999999999e+00 -5.5409584225132358e-01 +7.3354140778118175e+00 +4.5403037606242824e+00 -1.5709637291906580e+02 -1.8313303606579382e+04 +6.7571192259504925e+05 +1.0840796725776818e+08 
+2.4500000000000002e+00 -5.5411060296426906e-01 +7.3361606882470412e+00 +4.5212010777698710e+00 -1.5760162801557999e+02 -1.8269229259121919e+04 +6.8091924007481232e+05 +1.0818402453670575e+08 
+2.5000000000000000e+00 -5.5412562903791085e-01 +7.3369217375052909e+00 +4.5015669840764874e+00 -1.5811768267514501e+02 -1.8221301335042619e+04 +6.8620838614658208e+05 +1.0793991943114346e+08 
+2.5499999999999998e+00 -5.5414091895701423e-01 +7.3376970911548307e+00 +4.4814153239600865e+00 -1.5864406966759967e+02 -1.8169668931526132e+04 +6.9157518022871716e+05 +1.0767653425676930e+08 
+2.6000000000000001e+00 -5.5415647120649492e-01 +7.3384866147630898e+00 +4.4607599392650394e+00 -1.5918032172446269e+02 -1.8114481086611460e+04 +6.9701544139895553e+05 +1.0739475097437608e+08 
+2.6499999999999999e+00 -5.5417228427117537e-01 +7.3392901738968854e+00 +4.4396146724672851e+00 -1.5972597155992693e+02 -1.8055886846129659e+04 +7.0252498865782586e+05 +1.0709545155761366e+08 
+2.7000000000000002e+00 -5.5418835663591659e-01 +7.3401076341233109e+00 +4.4179933668241942e+00 -1.6028055187024293e+02 -1.7994035282157245e+04 +7.0809964075855643e+05 +1.0677951818259041e+08 
+2.7500000000000000e+00 -5.5420468678557799e-01 +7.3409388610104616e+00 +4.3959098637645937e+00 -1.6084359541608055e+02 -1.7929075415142197e+04 +7.1373521707697201e+05 +1.0644783266876218e+08 
+2.7999999999999998e+00 -5.5422127320502568e-01 +7.3417837201260010e+00 +4.3733780096884045e+00 -1.6141463490786842e+02 -1.7861156401837361e+04 +7.1942753646713612e+05 +1.0610127776445937e+08 
+2.8500000000000001e+00 -5.5423811437914194e-01 +7.3426420770357037e+00 +4.3504116428712010e+00 -1.6199320300430358e+02 -1.7790427179509265e+04 +7.2517241744965932e+05 +1.0574073473748286e+08 
+2.8999999999999999e+00 -5.5425520879283319e-01 +7.3435137973088231e+00 +4.3270246090578999e+00 -1.6257883248046630e+02 -1.7717036885815323e+04 +7.3096567940601590e+05 +1.0536708620882738e+08 
+2.9500000000000002e+00 -5.5427255493098393e-01 +7.3443987465126206e+00 +4.3032307493481854e+00 -1.6317105604863710e+02 -1.7641134534277418e+04 +7.3680314127549622e+05 +1.0498121396263777e+08 
+3.0000000000000000e+00 -5.5429015127850612e-01 +7.3452967902140367e+00 +4.2790439082545246e+00 -1.6376940638496487e+02 -1.7562869231159184e+04 +7.4268062160460849e+05 +1.0458400041737372e+08 
+3.0499999999999998e+00 -5.5430799632026839e-01 +7.3462077939794375e+00 +4.2544779261937711e+00 -1.6437341616540036e+02 -1.7482389970257598e+04 +7.4859393902097363e+05 +1.0417632722342148e+08 
+3.1000000000000001e+00 -5.5432608854121623e-01 +7.3471316233763986e+00 +4.2295466465032474e+00 -1.6498261810341526e+02 -1.7399845827901972e+04 +7.5453891239807208e+05 +1.0375907660991298e+08 
+3.1499999999999999e+00 -5.5434442642627113e-01 +7.3480681439723972e+00 +4.2042639118393810e+00 -1.6559654491046018e+02 -1.7315385858133959e+04 +7.6051136059284338e+05 +1.0333313063812137e+08 
+3.2000000000000002e+00 -5.5436300846035480e-01 +7.3490172213319127e+00 +4.1786435640514359e+00 -1.6621472918582631e+02 -1.7229159096799438e+04 +7.6650710155995004e+05 +1.0289937126446475e+08 
+3.2500000000000000e+00 -5.5438183312838585e-01 +7.3499787210243808e+00 +4.1526994480139257e+00 -1.6683670372785082e+02 -1.7141314661145494e+04 +7.7252195486064476e+05 +1.0245868099639602e+08 
+3.2999999999999998e+00 -5.5440089891530564e-01 +7.3509525086130090e+00 +4.1264454020379127e+00 -1.6746200109142751e+02 -1.7052001490004735e+04 +7.7855173806598678e+05 +1.0201194113307054e+08 
+3.3500000000000001e+00 -5.5442020430610306e-01 +7.3519384496632796e+00 +4.0998952718528843e+00 -1.6809015392842358e+02 -1.6961368724732878e+04 +7.8459226953980676e+05 +1.0156003435535623e+08 
+3.3999999999999999e+00 -5.5443974778566263e-01 +7.3529364097418686e+00 +4.0730628979798658e+00 -1.6872069493624880e+02 -1.6869565363573896e+04 +7.9063936798192572e+05 +1.0110384236648805e+08 
+3.4500000000000002e+00 -5.5445952783893870e-01 +7.3539462544123166e+00 +4.0459621228694349e+00 -1.6935315670213939e+02 -1.6776740460397701e+04 +7.9668885122048995e+05 +1.0064424726686612e+08 
+3.5000000000000000e+00 -5.5447954295091018e-01 +7.3549678492398183e+00 +4.0186067879111125e+00 -1.6998707188709827e+02 -1.6683043039219323e+04 +8.0273653767510084e+05 +1.0018213094770865e+08 
+3.5499999999999998e+00 -5.5449979160655039e-01 +7.3560010597879097e+00 +3.9910107370611039e+00 -1.7062197309054491e+02 -1.6588622193784937e+04 +8.0877824524743960e+05 +9.9718375780516565e+07 
+3.6000000000000001e+00 -5.5452027229081480e-01 +7.3570457516198351e+00 +3.9631878105235736e+00 -1.7125739290788849e+02 -1.6493626919683640e+04 +8.1480979179370496e+05 +9.9253863487839773e+07 
+3.6499999999999999e+00 -5.5454098348868197e-01 +7.3581017902991315e+00 +3.9351518513783104e+00 -1.7189286396276333e+02 -1.6398206283899410e+04 +8.2082699542556878e+05 +9.8789476251470879e+07 
+3.6999999999999900e+00 -5.5456192368509105e-01 +7.3591690413865596e+00 +3.9069167002565961e+00 -1.7252791877779114e+02 -1.6302509295450740e+04 +8.2682567342803034e+05 +9.8326095897853196e+07 
+3.7499999999999898e+00 -5.5458309136507977e-01 +7.3602473704443323e+00 +3.8784961995549194e+00 -1.7316208993134757e+02 -1.6206685004354591e+04 +8.3280164346005849e+05 +9.7864604509446055e+07 
+3.7999999999999901e+00 -5.5460448501357806e-01 +7.3613366430336677e+00 +3.8499041916973891e+00 -1.7379490998949206e+02 -1.6110882469638022e+04 +8.3875072316087491e+05 +9.7405884261200994e+07 
+3.8499999999999899e+00 -5.5462610311562344e-01 +7.3624367247156020e+00 +3.8211545175995054e+00 -1.7442591152639639e+02 -1.6015250701700937e+04 +8.4466873022342683e+05 +9.6950816976029575e+07 
+3.8999999999999901e+00 -5.5464794415611884e-01 +7.3635474810483483e+00 +3.7922610182699725e+00 -1.7505462700619239e+02 -1.5919938722440278e+04 +8.5055148141351901e+05 +9.6500284590158626e+07 
+3.9499999999999900e+00 -5.5467000662013832e-01 +7.3646687775919863e+00 +3.7632375352953549e+00 -1.7568058898397888e+02 -1.5825095563318444e+04 +8.5639479421777721e+05 +9.6055169086401403e+07 
+3.9999999999999898e+00 -5.5469228899262057e-01 +7.3658004799042818e+00 +3.7340979097494387e+00 -1.7630332994002185e+02 -1.5730870245833530e+04 +8.6219448554586445e+05 +9.5616352398801774e+07 
+4.0499999999999901e+00 -5.5471478963198362e-01 +7.3669424479050702e+00 +3.7048549194733695e+00 -1.7692235314715674e+02 -1.5637403692227679e+04 +8.6794621423396620e+05 +9.5184655626782835e+07 
+4.0999999999999899e+00 -5.5473750638969044e-01 +7.3680945125482094e+00 +3.6755173704880293e+00 -1.7753701664943569e+02 -1.5544804442228582e+04 +8.7364512715725729e+05 +9.4760652085860506e+07 
+4.1499999999999897e+00 -5.5476043699055000e-01 +7.3692564959361651e+00 +3.6460931764545075e+00 -1.7814663601340791e+02 -1.5453173273936360e+04 +8.7928627467669151e+05 +9.4344853242275596e+07 
+4.1999999999999904e+00 -5.5478357915928944e-01 +7.3704282201745803e+00 +3.6165902461017820e+00 -1.7875052694405716e+02 -1.5362610833989171e+04 +8.8486470826546464e+05 +9.3937769688405320e+07 
+4.2499999999999902e+00 -5.5480693062073616e-01 +7.3716095073622592e+00 +3.5870164913725184e+00 -1.7934800487061474e+02 -1.5273217856831887e+04 +8.9037547713625885e+05 +9.3539912616682678e+07 
+4.2999999999999901e+00 -5.5483048909959942e-01 +7.3728001796067995e+00 +3.5573798227289015e+00 -1.7993838558990660e+02 -1.5185095040177888e+04 +8.9581363354724029e+05 +9.3151792982995674e+07 
+4.3499999999999899e+00 -5.5485425232066576e-01 +7.3740000590065602e+00 +3.5276881493745056e+00 -1.8052098451803082e+02 -1.5098343044302414e+04 +9.0117422660403186e+05 +9.2773921483041465e+07 
+4.3999999999999897e+00 -5.5487821800869852e-01 +7.3752089676629629e+00 +3.4979493813500362e+00 -1.8109511720532578e+02 -1.5013062554188822e+04 +9.0645230655518139e+05 +9.2406808987491921e+07 
+4.4499999999999904e+00 -5.5490238388844604e-01 +7.3764267276774333e+00 +3.4681714311679084e+00 -1.8166009919821690e+02 -1.4929354326880049e+04 +9.1164292356402671e+05 +9.2050966877137035e+07 
+4.4999999999999902e+00 -5.5492674768467820e-01 +7.3776531611493992e+00 +3.4383622056667300e+00 -1.8221524598530553e+02 -1.4847318966549072e+04 +9.1674112742410076e+05 +9.1706905505778849e+07 
+4.5499999999999901e+00 -5.5495130712216745e-01 +7.3788880901780143e+00 +3.4085296164949788e+00 -1.8275987303414311e+02 -1.4767057202212211e+04 +9.2174196768870647e+05 +9.1375136050139964e+07 
+4.5999999999999899e+00 -5.5497605992569843e-01 +7.3801313368628074e+00 +3.3786815733771989e+00 -1.8329329584046135e+02 -1.4688669719115556e+04 +9.2664049418482545e+05 +9.1056169429071411e+07 
+4.6499999999999897e+00 -5.5500100381992234e-01 +7.3813827233016154e+00 +3.3488259815995263e+00 -1.8381482983232158e+02 -1.4612257081419268e+04 +9.3143175618268037e+05 +9.0750515737618431e+07 
+4.6999999999999904e+00 -5.5502613652970156e-01 +7.3826420715900207e+00 +3.3189707554309402e+00 -1.8432379035195348e+02 -1.4537920097311080e+04 +9.3611080223781976e+05 +9.0458686731349736e+07 
+4.7499999999999902e+00 -5.5505145577971304e-01 +7.3839092038262608e+00 +3.2891238007744112e+00 -1.8481949286167992e+02 -1.4465759353719111e+04 +9.4067268193547125e+05 +9.0181192687193289e+07 
+4.7999999999999901e+00 -5.5507695929475753e-01 +7.3851839421046508e+00 +3.2592930259188648e+00 -1.8530125267628614e+02 -1.4395875496267392e+04 +9.4511244367876311e+05 +8.9918544263434544e+07 
+4.8499999999999899e+00 -5.5510264479950555e-01 +7.3864661085210468e+00 +3.2294863409673344e+00 -1.8576838515822206e+02 -1.4328369226008454e+04 +9.4942513618112565e+05 +8.9671252517643809e+07 
+4.8999999999999897e+00 -5.5512851001877284e-01 +7.3877555251701947e+00 +3.1997116534250747e+00 -1.8622020566057742e+02 -1.4263341176032511e+04 +9.5360580819293438e+05 +8.9439828060314566e+07 
+4.9499999999999904e+00 -5.5515455267727376e-01 +7.3890520141423810e+00 +3.1699768723965134e+00 -1.8665602934563196e+02 -1.4200892022399303e+04 +9.5764950685952825e+05 +8.9224781794486925e+07 
+4.9999999999999902e+00 -5.5518077049969705e-01 +7.3903553975325336e+00 +3.1402899025874227e+00 -1.8707517158063672e+02 -1.4141122322176114e+04 +9.6155128103873448e+05 +8.9026623820039734e+07 
+5.0499999999999901e+00 -5.5520716121316704e-01 +7.3916654906489221e+00 +3.1106589891508705e+00 -1.8747695487617213e+02 -1.4084132836656996e+04 +9.6530618554567394e+05 +8.8845865892463595e+07 
