# trajectory
# s[mm] rx[mm] ry[mm] rz[mm] px[rad] py[rad] pz[rad]
0.0000000000000000e+00 +8.5980000000000008e+00 +0.0000000000000000e+00 +0.0000000000000000e+00 +0.0000000000000000e+00 +0.0000000000000000e+00 +1.0000000000000000e+00
5.0000000000000003e-02 +8.5979999309577853e+00 +0.0000000000000000e+00 +4.9999999999936436e-02 -2.7616873405334376e-06 +0.0000000000000000e+00 +9.9999999999618649e-01
1.0000000000000001e-01 +8.5979997238313768e+00 +0.0000000000000000e+00 +9.9999999999491523e-02 -5.5233680044398124e-06 +0.0000000000000000e+00 +9.9999999998474620e-01
1.5000000000000002e-01 +8.5979993786210649e+00 +0.0000000000000000e+00 +1.4999999999828395e-01 -8.2850437929397669e-06 +0.0000000000000000e+00 +9.9999999996567901e-01
2.0000000000000001e-01 +8.5979988953270485e+00 +0.0000000000000000e+00 +1.9999999999593232e-01 -1.1046716504976885e-05 +0.0000000000000000e+00 +9.9999999993898503e-01
2.5000000000000000e-01 +8.5979982739494361e+00 +0.0000000000000000e+00 +2.4999999999205533e-01 -1.3808387937217776e-05 +0.0000000000000000e+00 +9.9999999990466426e-01
2.9999999999999999e-01 +8.5979975144882470e+00 +0.0000000000000000e+00 +2.9999999998627164e-01 -1.6570059884052150e-05 +0.0000000000000000e+00 +9.9999999986271659e-01
3.4999999999999998e-01 +8.5979966169434103e+00 +0.0000000000000000e+00 +3.4999999997819986e-01 -1.9331734137592906e-05 +0.0000000000000000e+00 +9.9999999981314203e-01
3.9999999999999997e-01 +8.5979955813147662e+00 +0.0000000000000000e+00 +3.9999999996745872e-01 -2.2093412487676201e-05 +0.0000000000000000e+00 +9.9999999975594056e-01
4.4999999999999996e-01 +8.5979944076020640e+00 +0.0000000000000000e+00 +4.4999999995366680e-01 -2.4855096721861543e-05 +0.0000000000000000e+00 +9.9999999969111208e-01
4.9999999999999994e-01 +8.5979930958049664e+00 +0.0000000000000000e+00 +4.9999999993644278e-01 -2.7616788625431859e-05 +0.0000000000000000e+00 +9.9999999961865649e-01
5.4999999999999993e-01 +8.5979916459230452e+00 +0.0000000000000000e+00 +5.4999999991540527e-01 -3.0378489981393576e-05 +0.0000000000000000e+00 +9.9999999953857366e-01
5.9999999999999998e-01 +8.5979900579557818e+00 +0.0000000000000000e+00 +5.9999999989017294e-01 -3.3140202570476707e-05 +0.0000000000000000e+00 +9.9999999945086349e-01
6.5000000000000002e-01 +8.5979883319025703e+00 +0.0000000000000000e+00 +6.4999999986036450e-01 -3.5901928171134929e-05 +0.0000000000000000e+00 +9.9999999935552575e-01
7.0000000000000007e-01 +8.5979864677627180e+00 +0.0000000000000000e+00 +6.9999999982559846e-01 -3.8663668559545655e-05 +0.0000000000000000e+00 +9.9999999925256033e-01
7.5000000000000011e-01 +8.5979844655354398e+00 +0.0000000000000000e+00 +7.4999999978549348e-01 -4.1425425509610115e-05 +0.0000000000000000e+00 +9.9999999914196702e-01
8.0000000000000016e-01 +8.5979823252198617e+00 +0.0000000000000000e+00 +7.9999999973966807e-01 -4.4187200792953447e-05 +0.0000000000000000e+00 +9.9999999902374559e-01
8.5000000000000020e-01 +8.5979800468150245e+00 +0.0000000000000000e+00 +8.4999999968774087e-01 -4.6948996178924763e-05 +0.0000000000000000e+00 +9.9999999889789581e-01
9.0000000000000024e-01 +8.5979776303198783e+00 +0.0000000000000000e+00 +8.9999999962933053e-01 -4.9710813434597224e-05 +0.0000000000000000e+00 +9.9999999876441747e-01
9.5000000000000029e-01 +8.5979750757332862e+00 +0.0000000000000000e+00 +9.4999999956405545e-01 -5.2472654324768137e-05 +0.0000000000000000e+00 +9.9999999862331024e-01
1.0000000000000002e+00 +8.5979723830540227e+00 +0.0000000000000000e+00 +9.9999999949153429e-01 -5.5234520611959006e-05 +0.0000000000000000e+00 +9.9999999847457388e-01
1.0500000000000003e+00 +8.5979695522807731e+00 +0.0000000000000000e+00 +1.0499999994113856e+00 -5.7996414056415644e-05 +0.0000000000000000e+00 +9.9999999831820796e-01
1.1000000000000003e+00 +8.5979665834121359e+00 +0.0000000000000000e+00 +1.0999999993232279e+00 -6.0758336416108218e-05 +0.0000000000000000e+00 +9.9999999815421226e-01
1.1500000000000004e+00 +8.5979634764466208e+00 +0.0000000000000000e+00 +1.1499999992266796e+00 -6.3520289446731355e-05 +0.0000000000000000e+00 +9.9999999798258643e-01
1.2000000000000004e+00 +8.5979602313826504e+00 +0.0000000000000000e+00 +1.1999999991213592e+00 -6.6282274901704197e-05 +0.0000000000000000e+00 +9.9999999780333004e-01
1.2500000000000004e+00 +8.5979568482185602e+00 +0.0000000000000000e+00 +1.2499999990068853e+00 -6.9044294532170488e-05 +0.0000000000000000e+00 +9.9999999761644276e-01
1.3000000000000005e+00 +8.5979533269525987e+00 +0.0000000000000000e+00 +1.2999999988828763e+00 -7.1806350086998667e-05 +0.0000000000000000e+00 +9.9999999742192414e-01
1.3500000000000005e+00 +8.5979496675829239e+00 +0.0000000000000000e+00 +1.3499999987489506e+00 -7.4568443312781919e-05 +0.0000000000000000e+00 +9.9999999721977373e-01
1.4000000000000006e+00 +8.5979458701076101e+00 +0.0000000000000000e+00 +1.3999999986047265e+00 -7.7330575953838258e-05 +0.0000000000000000e+00 +9.9999999700999109e-01
1.4500000000000006e+00 +8.5979419345246431e+00 +0.0000000000000000e+00 +1.4499999984498224e+00 -8.0092749752210611e-05 +0.0000000000000000e+00 +9.9999999679257578e-01
1.5000000000000007e+00 +8.5979378608319212e+00 +0.0000000000000000e+00 +1.4999999982838568e+00 -8.2854966447666907e-05 +0.0000000000000000e+00 +9.9999999656752736e-01
1.5500000000000007e+00 +8.5979336490272544e+00 +0.0000000000000000e+00 +1.5499999981064478e+00 -8.5617227777700134e-05 +0.0000000000000000e+00 +9.9999999633484526e-01
1.6000000000000008e+00 +8.5979292991083707e+00 +0.0000000000000000e+00 +1.5999999979172139e+00 -8.8379535477528436e-05 +0.0000000000000000e+00 +9.9999999609452894e-01
1.6500000000000008e+00 +8.5979248110729056e+00 +0.0000000000000000e+00 +1.6499999977157733e+00 -9.1141891280095152e-05 +0.0000000000000000e+00 +9.9999999584657795e-01
1.7000000000000008e+00 +8.5979201849184115e+00 +0.0000000000000000e+00 +1.6999999975017444e+00 -9.3904296916068921e-05 +0.0000000000000000e+00 +9.9999999559099162e-01
1.7500000000000009e+00 +8.5979154206423534e+00 +0.0000000000000000e+00 +1.7499999972747451e+00 -9.6666754113843784e-05 +0.0000000000000000e+00 +9.9999999532776940e-01
1.8000000000000009e+00 +8.5979105182421112e+00 +0.0000000000000000e+00 +1.7999999970343938e+00 -9.9429264599539192e-05 +0.0000000000000000e+00 +9.9999999505691073e-01
1.8500000000000010e+00 +8.5979054777149759e+00 +0.0000000000000000e+00 +1.8499999967803089e+00 -1.0219183009700015e-04 +0.0000000000000000e+00 +9.9999999477841495e-01
1.9000000000000010e+00 +8.5979002990581552e+00 +0.0000000000000000e+00 +1.8999999965121082e+00 -1.0495445232779725e-04 +0.0000000000000000e+00 +9.9999999449228150e-01
1.9500000000000011e+00 +8.5978949822687696e+00 +0.0000000000000000e+00 +1.9499999962294097e+00 -1.0771713301122676e-04 +0.0000000000000000e+00 +9.9999999419850960e-01
2.0000000000000009e+00 +8.5978895273438525e+00 +0.0000000000000000e+00 +1.9999999959318318e+00 -1.1047987386431072e-04 +0.0000000000000000e+00 +9.9999999389709870e-01
2.0500000000000007e+00 +8.5978839342803521e+00 +0.0000000000000000e+00 +2.0499999956189923e+00 -1.1324267660153368e-04 +0.0000000000000000e+00 +9.9999999358804803e-01
2.1000000000000005e+00 +8.5978782030751315e+00 +0.0000000000000000e+00 +2.0999999952905091e+00 -1.1600554293194686e-04 +0.0000000000000000e+00 +9.9999999327135691e-01
2.1500000000000004e+00 +8.5978723337249701e+00 +0.0000000000000000e+00 +2.1499999949460005e+00 -1.1876847455627213e-04 +0.0000000000000000e+00 +9.9999999294702469e-01
2.2000000000000002e+00 +8.5978663262265602e+00 +0.0000000000000000e+00 +2.1999999945850841e+00 -1.2153147316663880e-04 +0.0000000000000000e+00 +9.9999999261505046e-01
2.2500000000000000e+00 +8.5978601805765091e+00 +0.0000000000000000e+00 +2.2499999942073781e+00 -1.2429454044658373e-04 +0.0000000000000000e+00 +9.9999999227543357e-01
2.2999999999999998e+00 +8.5978538967713423e+00 +0.0000000000000000e+00 +2.2999999938125000e+00 -1.2705767807105135e-04 +0.0000000000000000e+00 +9.9999999192817313e-01
2.3499999999999996e+00 +8.5978474748075016e+00 +0.0000000000000000e+00 +2.3499999934000679e+00 -1.2982088770639377e-04 +0.0000000000000000e+00 +9.9999999157326847e-01
2.3999999999999995e+00 +8.5978409146813437e+00 +0.0000000000000000e+00 +2.3999999929696996e+00 -1.3258417101037078e-04 +0.0000000000000000e+00 +9.9999999121071870e-01
2.4499999999999993e+00 +8.5978342163891455e+00 +0.0000000000000000e+00 +2.4499999925210125e+00 -1.3534752963214995e-04 +0.0000000000000000e+00 +9.9999999084052305e-01
2.4999999999999991e+00 +8.5978273799270983e+00 +0.0000000000000000e+00 +2.4999999920536244e+00 -1.3811096521230666e-04 +0.0000000000000000e+00 +9.9999999046268062e-01
2.5499999999999989e+00 +8.5978204052913139e+00 +0.0000000000000000e+00 +2.5499999915671530e+00 -1.4087447938282424e-04 +0.0000000000000000e+00 +9.9999999007719054e-01
2.5999999999999988e+00 +8.5978132924778219e+00 +0.0000000000000000e+00 +2.5999999910612157e+00 -1.4363807376709391e-04 +0.0000000000000000e+00 +9.9999998968405190e-01
2.6499999999999986e+00 +8.5978060414825723e+00 +0.0000000000000000e+00 +2.6499999905354303e+00 -1.4640174997991489e-04 +0.0000000000000000e+00 +9.9999998928326383e-01
2.6999999999999984e+00 +8.5977986523014334e+00 +0.0000000000000000e+00 +2.6999999899894145e+00 -1.4916550962749451e-04 +0.0000000000000000e+00 +9.9999998887482544e-01
2.7499999999999982e+00 +8.5977911249301933e+00 +0.0000000000000000e+00 +2.7499999894227853e+00 -1.5192935430744821e-04 +0.0000000000000000e+00 +9.9999998845873572e-01
2.7999999999999980e+00 +8.5977834593645603e+00 +0.0000000000000000e+00 +2.7999999888351605e+00 -1.5469328560879957e-04 +0.0000000000000000e+00 +9.9999998803499379e-01
2.8499999999999979e+00 +8.5977756556001630e+00 +0.0000000000000000e+00 +2.8499999882261573e+00 -1.5745730511198042e-04 +0.0000000000000000e+00 +9.9999998760359865e-01
2.8999999999999977e+00 +8.5977677136325532e+00 +0.0000000000000000e+00 +2.8999999875953928e+00 -1.6022141438883086e-04 +0.0000000000000000e+00 +9.9999998716454930e-01
2.9499999999999975e+00 +8.5977596334572031e+00 +0.0000000000000000e+00 +2.9499999869424847e+00 -1.6298561500259934e-04 +0.0000000000000000e+00 +9.9999998671784474e-01
2.9999999999999973e+00 +8.5977514150695065e+00 +0.0000000000000000e+00 +2.9999999862670497e+00 -1.6574990850794268e-04 +0.0000000000000000e+00 +9.9999998626348396e-01
3.0499999999999972e+00 +8.5977430584647792e+00 +0.0000000000000000e+00 +3.0499999855687054e+00 -1.6851429645092615e-04 +0.0000000000000000e+00 +9.9999998580146598e-01
3.0999999999999970e+00 +8.5977345636382623e+00 +0.0000000000000000e+00 +3.0999999848470687e+00 -1.7127878036902352e-04 +0.0000000000000000e+00 +9.9999998533178969e-01
3.1499999999999968e+00 +8.5977259305851170e+00 +0.0000000000000000e+00 +3.1499999841017567e+00 -1.7404336179111706e-04 +0.0000000000000000e+00 +9.9999998485445407e-01
3.1999999999999966e+00 +8.5977171593004318e+00 +0.0000000000000000e+00 +3.1999999833323867e+00 -1.7680804223749766e-04 +0.0000000000000000e+00 +9.9999998436945803e-01
3.2499999999999964e+00 +8.5977082497792168e+00 +0.0000000000000000e+00 +3.2499999825385752e+00 -1.7957282321986483e-04 +0.0000000000000000e+00 +9.9999998387680045e-01
3.2999999999999963e+00 +8.5976992020164094e+00 +0.0000000000000000e+00 +3.2999999817199392e+00 -1.8233770624132679e-04 +0.0000000000000000e+00 +9.9999998337648033e-01
3.3499999999999961e+00 +8.5976900160068688e+00 +0.0000000000000000e+00 +3.3499999808760954e+00 -1.8510269279640044e-04 +0.0000000000000000e+00 +9.9999998286849645e-01
3.3999999999999959e+00 +8.5976806917453796e+00 +0.0000000000000000e+00 +3.3999999800066609e+00 -1.8786778437101148e-04 +0.0000000000000000e+00 +9.9999998235284770e-01
3.4499999999999957e+00 +8.5976712292266555e+00 +0.0000000000000000e+00 +3.4499999791112526e+00 -1.9063298244249448e-04 +0.0000000000000000e+00 +9.9999998182953287e-01
3.4999999999999956e+00 +8.5976616284453353e+00 +0.0000000000000000e+00 +3.4999999781894866e+00 -1.9339828847959279e-04 +0.0000000000000000e+00 +9.9999998129855083e-01
3.5499999999999954e+00 +8.5976518893959835e+00 +0.0000000000000000e+00 +3.5499999772409798e+00 -1.9616370394245870e-04 +0.0000000000000000e+00 +9.9999998075990049e-01
3.5999999999999952e+00 +8.5976420120730932e+00 +0.0000000000000000e+00 +3.5999999762653490e+00 -1.9892923028265349e-04 +0.0000000000000000e+00 +9.9999998021358050e-01
3.6499999999999950e+00 +8.5976319964710832e+00 +0.0000000000000000e+00 +3.6499999752622103e+00 -2.0169486894314740e-04 +0.0000000000000000e+00 +9.9999997965958975e-01
3.6999999999999948e+00 +8.5976218425843030e+00 +0.0000000000000000e+00 +3.6999999742311802e+00 -2.0446062135831973e-04 +0.0000000000000000e+00 +9.9999997909792693e-01
3.7499999999999947e+00 +8.5976115504070272e+00 +0.0000000000000000e+00 +3.7499999731718749e+00 -2.0722648895395881e-04 +0.0000000000000000e+00 +9.9999997852859090e-01
3.7999999999999945e+00 +8.5976011199334632e+00 +0.0000000000000000e+00 +3.7999999720839113e+00 -2.0999247314726214e-04 +0.0000000000000000e+00 +9.9999997795158035e-01
3.8499999999999943e+00 +8.5975905511577455e+00 +0.0000000000000000e+00 +3.8499999709669050e+00 -2.1275857534683632e-04 +0.0000000000000000e+00 +9.9999997736689406e-01
3.8999999999999941e+00 +8.5975798440739393e+00 +0.0000000000000000e+00 +3.8999999698204726e+00 -2.1552479695269720e-04 +0.0000000000000000e+00 +9.9999997677453067e-01
3.9499999999999940e+00 +8.5975689986760386e+00 +0.0000000000000000e+00 +3.9499999686442302e+00 -2.1829113935626984e-04 +0.0000000000000000e+00 +9.9999997617448899e-01
3.9999999999999938e+00 +8.5975580149579685e+00 +0.0000000000000000e+00 +3.9999999674377937e+00 -2.2105760394038857e-04 +0.0000000000000000e+00 +9.9999997556676756e-01
4.0499999999999936e+00 +8.5975468929135861e+00 +0.0000000000000000e+00 +4.0499999662007786e+00 -2.2382419207913018e-04 +0.0000000000000000e+00 +9.9999997495136517e-01
4.0999999999999934e+00 +8.5975356325366796e+00 +0.0000000000000000e+00 +4.0999999649328016e+00 -2.2659090513597906e-04 +0.0000000000000000e+00 +9.9999997432828047e-01
4.1499999999999932e+00 +8.5975242338209679e+00 +0.0000000000000000e+00 +4.1499999636334781e+00 -2.2935774446199210e-04 +0.0000000000000000e+00 +9.9999997369751215e-01
4.1999999999999931e+00 +8.5975126967601057e+00 +0.0000000000000000e+00 +4.1999999623024244e+00 -2.3212471139563197e-04 +0.0000000000000000e+00 +9.9999997305905874e-01
4.2499999999999929e+00 +8.5975010213476786e+00 +0.0000000000000000e+00 +4.2499999609392560e+00 -2.3489180726276712e-04 +0.0000000000000000e+00 +9.9999997241291894e-01
4.2999999999999927e+00 +8.5974892075772082e+00 +0.0000000000000000e+00 +4.2999999595435883e+00 -2.3765903337667177e-04 +0.0000000000000000e+00 +9.9999997175909139e-01
4.3499999999999925e+00 +8.5974772554421488e+00 +0.0000000000000000e+00 +4.3499999581150366e+00 -2.4042639103802598e-04 +0.0000000000000000e+00 +9.9999997109757466e-01
4.3999999999999924e+00 +8.5974651649358904e+00 +0.0000000000000000e+00 +4.3999999566532173e+00 -2.4319388153491554e-04 +0.0000000000000000e+00 +9.9999997042836741e-01
4.4499999999999922e+00 +8.5974529360517593e+00 +0.0000000000000000e+00 +4.4499999551577449e+00 -2.4596150614283207e-04 +0.0000000000000000e+00 +9.9999996975146810e-01
4.4999999999999920e+00 +8.5974405687830195e+00 +0.0000000000000000e+00 +4.4999999536282358e+00 -2.4872926612467297e-04 +0.0000000000000000e+00 +9.9999996906687538e-01
4.5499999999999918e+00 +8.5974280631228694e+00 +0.0000000000000000e+00 +4.5499999520643044e+00 -2.5149716273074153e-04 +0.0000000000000000e+00 +9.9999996837458782e-01
4.5999999999999917e+00 +8.5974154190644487e+00 +0.0000000000000000e+00 +4.5999999504655662e+00 -2.5426519719874674e-04 +0.0000000000000000e+00 +9.9999996767460397e-01
4.6499999999999915e+00 +8.5974026366008314e+00 +0.0000000000000000e+00 +4.6499999488316366e+00 -2.5703337075380352e-04 +0.0000000000000000e+00 +9.9999996696692239e-01
4.6999999999999913e+00 +8.5973897157250345e+00 +0.0000000000000000e+00 +4.6999999471621301e+00 -2.5980168460843249e-04 +0.0000000000000000e+00 +9.9999996625154153e-01
4.7499999999999911e+00 +8.5973766564300131e+00 +0.0000000000000000e+00 +4.7499999454566622e+00 -2.6257013996256010e-04 +0.0000000000000000e+00 +9.9999996552845993e-01
4.7999999999999909e+00 +8.5973634587086618e+00 +0.0000000000000000e+00 +4.7999999437148473e+00 -2.6533873800351865e-04 +0.0000000000000000e+00 +9.9999996479767617e-01
4.8499999999999908e+00 +8.5973501225538165e+00 +0.0000000000000000e+00 +4.8499999419363009e+00 -2.6810747990604618e-04 +0.0000000000000000e+00 +9.9999996405918867e-01
4.8999999999999906e+00 +8.5973366479582545e+00 +0.0000000000000000e+00 +4.8999999401206376e+00 -2.7087636683228658e-04 +0.0000000000000000e+00 +9.9999996331299601e-01
4.9499999999999904e+00 +8.5973230349146963e+00 +0.0000000000000000e+00 +4.9499999382674718e+00 -2.7364539993178944e-04 +0.0000000000000000e+00 +9.9999996255909662e-01
4.9999999999999902e+00 +8.5973092834158056e+00 +0.0000000000000000e+00 +4.9999999363764189e+00 -2.7641458034151020e-04 +0.0000000000000000e+00 +9.9999996179748896e-01
5.0499999999999901e+00 +8.5972953934541874e+00 +0.0000000000000000e+00 +5.0499999344470927e+00 -2.7918390918580999e-04 +0.0000000000000000e+00 +9.9999996102817146e-01
5.0999999999999899e+00 +8.5972813650223934e+00 +0.0000000000000000e+00 +5.0999999324791077e+00 -2.8195338757645573e-04 +0.0000000000000000e+00 +9.9999996025114257e-01
5.1499999999999897e+00 +8.5972671981129185e+00 +0.0000000000000000e+00 +5.1499999304720783e+00 -2.8472301661262004e-04 +0.0000000000000000e+00 +9.9999995946640086e-01
5.1999999999999895e+00 +8.5972528927182026e+00 +0.0000000000000000e+00 +5.1999999284256191e+00 -2.8749279738088124e-04 +0.0000000000000000e+00 +9.9999995867394464e-01
5.2499999999999893e+00 +8.5972384488306339e+00 +0.0000000000000000e+00 +5.2499999263393438e+00 -2.9026273095522344e-04 +0.0000000000000000e+00 +9.9999995787377238e-01
5.2999999999999892e+00 +8.5972238664425440e+00 +0.0000000000000000e+00 +5.2999999242128677e+00 -2.9303281839703632e-04 +0.0000000000000000e+00 +9.9999995706588252e-01
5.3499999999999890e+00 +8.5972091455462127e+00 +0.0000000000000000e+00 +5.3499999220458037e+00 -2.9580306075511527e-04 +0.0000000000000000e+00 +9.9999995625027338e-01
5.3999999999999888e+00 +8.5971942861338686e+00 +0.0000000000000000e+00 +5.3999999198377662e+00 -2.9857345906566125e-04 +0.0000000000000000e+00 +9.9999995542694353e-01
5.4499999999999886e+00 +8.5971792881976885e+00 +0.0000000000000000e+00 +5.4499999175883689e+00 -3.0134401435228097e-04 +0.0000000000000000e+00 +9.9999995459589119e-01
5.4999999999999885e+00 +8.5971641517297996e+00 +0.0000000000000000e+00 +5.4999999152972263e+00 -3.0411472762598661e-04 +0.0000000000000000e+00 +9.9999995375711492e-01
5.5499999999999883e+00 +8.5971488767222759e+00 +0.0000000000000000e+00 +5.5499999129639521e+00 -3.0688559988519600e-04 +0.0000000000000000e+00 +9.9999995291061294e-01
5.5999999999999881e+00 +8.5971334631671450e+00 +0.0000000000000000e+00 +5.5999999105881590e+00 -3.0965663211573248e-04 +0.0000000000000000e+00 +9.9999995205638370e-01
5.6499999999999879e+00 +8.5971179110563831e+00 +0.0000000000000000e+00 +5.6499999081694616e+00 -3.1242782529082482e-04 +0.0000000000000000e+00 +9.9999995119442553e-01
5.6999999999999877e+00 +8.5971022203819185e+00 +0.0000000000000000e+00 +5.6999999057074726e+00 -3.1519918037110738e-04 +0.0000000000000000e+00 +9.9999995032473687e-01
5.7499999999999876e+00 +8.5970863911356314e+00 +0.0000000000000000e+00 +5.7499999032018065e+00 -3.1797069830461990e-04 +0.0000000000000000e+00 +9.9999994944731596e-01
5.7999999999999874e+00 +8.5970704233093578e+00 +0.0000000000000000e+00 +5.7999999006520753e+00 -3.2074238002680760e-04 +0.0000000000000000e+00 +9.9999994856216123e-01
5.8499999999999872e+00 +8.5970543168948836e+00 +0.0000000000000000e+00 +5.8499998980578933e+00 -3.2351422646052102e-04 +0.0000000000000000e+00 +9.9999994766927103e-01
5.8999999999999870e+00 +8.5970380718839507e+00 +0.0000000000000000e+00 +5.8999998954188735e+00 -3.2628623851601609e-04 +0.0000000000000000e+00 +9.9999994676864357e-01
