# trajectory
# s[mm] rx[mm] ry[mm] rz[mm] px[rad] py[rad] pz[rad]
0.0000000000000000e+00 +8.5980000000000008e+00 +0.0000000000000000e+00 +0.0000000000000000e+00 +0.0000000000000000e+00 +0.0000000000000000e+00 +1.0000000000000000e+00
-5.0000000000000003e-02 +8.5979999311178474e+00 +0.0000000000000000e+00 -4.9999999999936734e-02 +2.7552890330957440e-06 +0.0000000000000000e+00 +9.9999999999620415e-01
-1.0000000000000001e-01 +8.5979997244707889e+00 +0.0000000000000000e+00 -9.9999999999493883e-02 +5.5105965538373445e-06 +0.0000000000000000e+00 +9.9999999998481659e-01
-1.5000000000000002e-01 +8.5979993800578516e+00 +0.0000000000000000e+00 -1.4999999999829186e-01 +8.2659245362404794e-06 +0.0000000000000000e+00 +9.9999999996583722e-01
-2.0000000000000001e-01 +8.5979988978779627e+00 +0.0000000000000000e+00 -1.9999999999595108e-01 +1.1021274948937021e-05 +0.0000000000000000e+00 +9.9999999993926569e-01
-2.5000000000000000e-01 +8.5979982779299515e+00 +0.0000000000000000e+00 -2.4999999999209191e-01 +1.3776649755175120e-05 +0.0000000000000000e+00 +9.9999999990510191e-01
-2.9999999999999999e-01 +8.5979975202125480e+00 +0.0000000000000000e+00 -2.9999999998633475e-01 +1.6532050912819300e-05 +0.0000000000000000e+00 +9.9999999986334565e-01
-3.4999999999999998e-01 +8.5979966247243880e+00 +0.0000000000000000e+00 -3.4999999997829995e-01 +1.9287480374350551e-05 +0.0000000000000000e+00 +9.9999999981399657e-01
-3.9999999999999997e-01 +8.5979955914640058e+00 +0.0000000000000000e+00 -3.9999999996760788e-01 +2.2042940086866412e-05 +0.0000000000000000e+00 +9.9999999975705445e-01
-4.4999999999999996e-01 +8.5979944204298420e+00 +0.0000000000000000e+00 -4.4999999995387885e-01 +2.4798431992081059e-05 +0.0000000000000000e+00 +9.9999999969251896e-01
-4.9999999999999994e-01 +8.5979931116202373e+00 +0.0000000000000000e+00 -4.9999999993673322e-01 +2.7553958026325397e-05 +0.0000000000000000e+00 +9.9999999962038977e-01
-5.4999999999999993e-01 +8.5979916650334385e+00 +0.0000000000000000e+00 -5.4999999991579129e-01 +3.0309520120547144e-05 +0.0000000000000000e+00 +9.9999999954066654e-01
-5.9999999999999998e-01 +8.5979900806675928e+00 +0.0000000000000000e+00 -5.9999999989067332e-01 +3.3065120200310916e-05 +0.0000000000000000e+00 +9.9999999945334894e-01
-6.5000000000000002e-01 +8.5979883585207535e+00 +0.0000000000000000e+00 -6.4999999986099954e-01 +3.5820760185798322e-05 +0.0000000000000000e+00 +9.9999999935843664e-01
-7.0000000000000007e-01 +8.5979864985908776e+00 +0.0000000000000000e+00 -6.9999999982639038e-01 +3.8576441991808033e-05 +0.0000000000000000e+00 +9.9999999925592908e-01
-7.5000000000000011e-01 +8.5979845008758264e+00 +0.0000000000000000e+00 -7.4999999978646592e-01 +4.1332167527755885e-05 +0.0000000000000000e+00 +9.9999999914582594e-01
-8.0000000000000016e-01 +8.5979823653733654e+00 +0.0000000000000000e+00 -7.9999999974084635e-01 +4.4087938697674942e-05 +0.0000000000000000e+00 +9.9999999902812675e-01
-8.5000000000000020e-01 +8.5979800920811655e+00 +0.0000000000000000e+00 -8.4999999968915196e-01 +4.6843757400215603e-05 +0.0000000000000000e+00 +9.9999999890283109e-01
-9.0000000000000024e-01 +8.5979776809968023e+00 +0.0000000000000000e+00 -8.9999999963100286e-01 +4.9599625528645670e-05 +0.0000000000000000e+00 +9.9999999876993850e-01
-9.5000000000000029e-01 +8.5979751321177567e+00 +0.0000000000000000e+00 -9.4999999956601922e-01 +5.2355544970850425e-05 +0.0000000000000000e+00 +9.9999999862944844e-01
-1.0000000000000002e+00 +8.5979724454414175e+00 +0.0000000000000000e+00 -9.9999999949382112e-01 +5.5111517609332723e-05 +0.0000000000000000e+00 +9.9999999848136034e-01
-1.0500000000000003e+00 +8.5979696209650776e+00 +0.0000000000000000e+00 -1.0499999994140286e+00 +5.7867545321213079e-05 +0.0000000000000000e+00 +9.9999999832567366e-01
-1.1000000000000003e+00 +8.5979666586859356e+00 +0.0000000000000000e+00 -1.0999999993262617e+00 +6.0623629978229724e-05 +0.0000000000000000e+00 +9.9999999816238783e-01
-1.1500000000000004e+00 +8.5979635586010996e+00 +0.0000000000000000e+00 -1.1499999992301406e+00 +6.3379773446738707e-05 +0.0000000000000000e+00 +9.9999999799150219e-01
-1.2000000000000004e+00 +8.5979603207075801e+00 +0.0000000000000000e+00 -1.1999999991252852e+00 +6.6135977587713962e-05 +0.0000000000000000e+00 +9.9999999781301629e-01
-1.2500000000000004e+00 +8.5979569450022986e+00 +0.0000000000000000e+00 -1.2499999990113155e+00 +6.8892244256747387e-05 +0.0000000000000000e+00 +9.9999999762692937e-01
-1.3000000000000005e+00 +8.5979534314820825e+00 +0.0000000000000000e+00 -1.2999999988878514e+00 +7.1648575304048936e-05 +0.0000000000000000e+00 +9.9999999743324086e-01
-1.3500000000000005e+00 +8.5979497801436651e+00 +0.0000000000000000e+00 -1.3499999987545128e+00 +7.4404972574446666e-05 +0.0000000000000000e+00 +9.9999999723195010e-01
-1.4000000000000006e+00 +8.5979459909836908e+00 +0.0000000000000000e+00 -1.3999999986109197e+00 +7.7161437907386854e-05 +0.0000000000000000e+00 +9.9999999702305631e-01
-1.4500000000000006e+00 +8.5979420639987101e+00 +0.0000000000000000e+00 -1.4499999984566918e+00 +7.9917973136934032e-05 +0.0000000000000000e+00 +9.9999999680655882e-01
-1.5000000000000007e+00 +8.5979379991851825e+00 +0.0000000000000000e+00 -1.4999999982914489e+00 +8.2674580091771088e-05 +0.0000000000000000e+00 +9.9999999658245697e-01
-1.5500000000000007e+00 +8.5979337965394755e+00 +0.0000000000000000e+00 -1.5499999981148107e+00 +8.5431260595199353e-05 +0.0000000000000000e+00 +9.9999999635074988e-01
-1.6000000000000008e+00 +8.5979294560578676e+00 +0.0000000000000000e+00 -1.5999999979263970e+00 +8.8188016465138623e-05 +0.0000000000000000e+00 +9.9999999611143686e-01
-1.6500000000000008e+00 +8.5979249777365432e+00 +0.0000000000000000e+00 -1.6499999977258275e+00 +9.0944849514127286e-05 +0.0000000000000000e+00 +9.9999999586451715e-01
-1.7000000000000008e+00 +8.5979203615715996e+00 +0.0000000000000000e+00 -1.6999999975127218e+00 +9.3701761549322372e-05 +0.0000000000000000e+00 +9.9999999560998987e-01
-1.7500000000000009e+00 +8.5979156075590417e+00 +0.0000000000000000e+00 -1.7499999972866995e+00 +9.6458754372499625e-05 +0.0000000000000000e+00 +9.9999999534785433e-01
-1.8000000000000009e+00 +8.5979107156947858e+00 +0.0000000000000000e+00 -1.7999999970473803e+00 +9.9215829780053579e-05 +0.0000000000000000e+00 +9.9999999507810955e-01
-1.8500000000000010e+00 +8.5979056859746574e+00 +0.0000000000000000e+00 -1.8499999967943836e+00 +1.0197298956299762e-04 +0.0000000000000000e+00 +9.9999999480075463e-01
-1.9000000000000010e+00 +8.5979005183943933e+00 +0.0000000000000000e+00 -1.8999999965273289e+00 +1.0473023550696406e-04 +0.0000000000000000e+00 +9.9999999451578880e-01
-1.9500000000000011e+00 +8.5978952129496413e+00 +0.0000000000000000e+00 -1.9499999962458356e+00 +1.0748756939220424e-04 +0.0000000000000000e+00 +9.9999999422321117e-01
-2.0000000000000009e+00 +8.5978897696359589e+00 +0.0000000000000000e+00 -1.9999999959495232e+00 +1.1024499299358853e-04 +0.0000000000000000e+00 +9.9999999392302075e-01
-2.0500000000000007e+00 +8.5978841884488162e+00 +0.0000000000000000e+00 -2.0499999956380108e+00 +1.1300250808034918e-04 +0.0000000000000000e+00 +9.9999999361521652e-01
-2.1000000000000005e+00 +8.5978784693835966e+00 +0.0000000000000000e+00 -2.0999999953109181e+00 +1.1576011641325039e-04 +0.0000000000000000e+00 +9.9999999329979761e-01
-2.1500000000000004e+00 +8.5978726124355926e+00 +0.0000000000000000e+00 -2.1499999949678639e+00 +1.1851781974175835e-04 +0.0000000000000000e+00 +9.9999999297676312e-01
-2.2000000000000002e+00 +8.5978666176000100e+00 +0.0000000000000000e+00 -2.1999999946084676e+00 +1.2127561980378404e-04 +0.0000000000000000e+00 +9.9999999264611195e-01
-2.2500000000000000e+00 +8.5978604848719709e+00 +0.0000000000000000e+00 -2.2499999942323483e+00 +1.2403351832568333e-04 +0.0000000000000000e+00 +9.9999999230784309e-01
-2.2999999999999998e+00 +8.5978542142465084e+00 +0.0000000000000000e+00 -2.2999999938391249e+00 +1.2679151702225694e-04 +0.0000000000000000e+00 +9.9999999196195555e-01
-2.3499999999999996e+00 +8.5978478057185708e+00 +0.0000000000000000e+00 -2.3499999934284168e+00 +1.2954961759675064e-04 +0.0000000000000000e+00 +9.9999999160844821e-01
-2.3999999999999995e+00 +8.5978412592830225e+00 +0.0000000000000000e+00 -2.3999999929998426e+00 +1.3230782174085518e-04 +0.0000000000000000e+00 +9.9999999124732009e-01
-2.4499999999999993e+00 +8.5978345749346428e+00 +0.0000000000000000e+00 -2.4499999925530216e+00 +1.3506613113470640e-04 +0.0000000000000000e+00 +9.9999999087857006e-01
-2.4999999999999991e+00 +8.5978277526681275e+00 +0.0000000000000000e+00 -2.4999999920875724e+00 +1.3782454744688528e-04 +0.0000000000000000e+00 +9.9999999050219701e-01
-2.5499999999999989e+00 +8.5978207924780889e+00 +0.0000000000000000e+00 -2.5499999916031140e+00 +1.4058307233441800e-04 +0.0000000000000000e+00 +9.9999999011819984e-01
-2.5999999999999988e+00 +8.5978136943590577e+00 +0.0000000000000000e+00 -2.5999999910992653e+00 +1.4334170744277600e-04 +0.0000000000000000e+00 +9.9999998972657744e-01
-2.6499999999999986e+00 +8.5978064583054810e+00 +0.0000000000000000e+00 -2.6499999905756448e+00 +1.4610045440587596e-04 +0.0000000000000000e+00 +9.9999998932732859e-01
-2.6999999999999984e+00 +8.5977990843117258e+00 +0.0000000000000000e+00 -2.6999999900318712e+00 +1.4885931484607997e-04 +0.0000000000000000e+00 +9.9999998892045217e-01
-2.7499999999999982e+00 +8.5977915723720777e+00 +0.0000000000000000e+00 -2.7499999894675629e+00 +1.5161829037419546e-04 +0.0000000000000000e+00 +9.9999998850594696e-01
-2.7999999999999980e+00 +8.5977839224807440e+00 +0.0000000000000000e+00 -2.7999999888823388e+00 +1.5437738258947535e-04 +0.0000000000000000e+00 +9.9999998808381185e-01
-2.8499999999999979e+00 +8.5977761346318484e+00 +0.0000000000000000e+00 -2.8499999882758171e+00 +1.5713659307961804e-04 +0.0000000000000000e+00 +9.9999998765404552e-01
-2.8999999999999977e+00 +8.5977682088194385e+00 +0.0000000000000000e+00 -2.8999999876476164e+00 +1.5989592342076749e-04 +0.0000000000000000e+00 +9.9999998721664685e-01
-2.9499999999999975e+00 +8.5977601450374834e+00 +0.0000000000000000e+00 -2.9499999869973546e+00 +1.6265537517751321e-04 +0.0000000000000000e+00 +9.9999998677161450e-01
-2.9999999999999973e+00 +8.5977519432798726e+00 +0.0000000000000000e+00 -2.9999999863246503e+00 +1.6541494990289038e-04 +0.0000000000000000e+00 +9.9999998631894715e-01
-3.0499999999999972e+00 +8.5977436035404189e+00 +0.0000000000000000e+00 -3.0499999856291220e+00 +1.6817464913837981e-04 +0.0000000000000000e+00 +9.9999998585864369e-01
-3.0999999999999970e+00 +8.5977351258128589e+00 +0.0000000000000000e+00 -3.0999999849103874e+00 +1.7093447441390809e-04 +0.0000000000000000e+00 +9.9999998539070267e-01
-3.1499999999999968e+00 +8.5977265100908529e+00 +0.0000000000000000e+00 -3.1499999841680650e+00 +1.7369442724784751e-04 +0.0000000000000000e+00 +9.9999998491512287e-01
-3.1999999999999966e+00 +8.5977177563679845e+00 +0.0000000000000000e+00 -3.1999999834017725e+00 +1.7645450914701620e-04 +0.0000000000000000e+00 +9.9999998443190297e-01
-3.2499999999999964e+00 +8.5977088646377631e+00 +0.0000000000000000e+00 -3.2499999826111279e+00 +1.7921472160667811e-04 +0.0000000000000000e+00 +9.9999998394104161e-01
-3.2999999999999963e+00 +8.5976998348936231e+00 +0.0000000000000000e+00 -3.2999999817957493e+00 +1.8197506611054308e-04 +0.0000000000000000e+00 +9.9999998344253749e-01
-3.3499999999999961e+00 +8.5976906671289264e+00 +0.0000000000000000e+00 -3.3499999809552543e+00 +1.8473554413076686e-04 +0.0000000000000000e+00 +9.9999998293638914e-01
-3.3999999999999959e+00 +8.5976813613369600e+00 +0.0000000000000000e+00 -3.3999999800892606e+00 +1.8749615712795119e-04 +0.0000000000000000e+00 +9.9999998242259525e-01
-3.4499999999999957e+00 +8.5976719175109402e+00 +0.0000000000000000e+00 -3.4499999791973863e+00 +1.9025690655114378e-04 +0.0000000000000000e+00 +9.9999998190115447e-01
-3.4999999999999956e+00 +8.5976623356440083e+00 +0.0000000000000000e+00 -3.4999999782792486e+00 +1.9301779383783837e-04 +0.0000000000000000e+00 +9.9999998137206536e-01
-3.5499999999999954e+00 +8.5976526157292348e+00 +0.0000000000000000e+00 -3.5499999773344650e+00 +1.9577882041397476e-04 +0.0000000000000000e+00 +9.9999998083532649e-01
-3.5999999999999952e+00 +8.5976427577596208e+00 +0.0000000000000000e+00 -3.5999999763626533e+00 +1.9853998769393883e-04 +0.0000000000000000e+00 +9.9999998029093640e-01
-3.6499999999999950e+00 +8.5976327617280965e+00 +0.0000000000000000e+00 -3.6499999753634311e+00 +2.0130129708056260e-04 +0.0000000000000000e+00 +9.9999997973889365e-01
-3.6999999999999948e+00 +8.5976226276275209e+00 +0.0000000000000000e+00 -3.6999999743364151e+00 +2.0406274996512426e-04 +0.0000000000000000e+00 +9.9999997917919681e-01
-3.7499999999999947e+00 +8.5976123554506856e+00 +0.0000000000000000e+00 -3.7499999732812230e+00 +2.0682434772734820e-04 +0.0000000000000000e+00 +9.9999997861184431e-01
-3.7999999999999945e+00 +8.5976019451903110e+00 +0.0000000000000000e+00 -3.7999999721974720e+00 +2.0958609173540499e-04 +0.0000000000000000e+00 +9.9999997803683482e-01
-3.8499999999999943e+00 +8.5975913968390518e+00 +0.0000000000000000e+00 -3.8499999710847788e+00 +2.1234798334591147e-04 +0.0000000000000000e+00 +9.9999997745416669e-01
-3.8999999999999941e+00 +8.5975807103894937e+00 +0.0000000000000000e+00 -3.8999999699427610e+00 +2.1511002390393075e-04 +0.0000000000000000e+00 +9.9999997686383846e-01
-3.9499999999999940e+00 +8.5975698858341563e+00 +0.0000000000000000e+00 -3.9499999687710350e+00 +2.1787221474297224e-04 +0.0000000000000000e+00 +9.9999997626584869e-01
-3.9999999999999938e+00 +8.5975589231654919e+00 +0.0000000000000000e+00 -3.9999999675692179e+00 +2.2063455718499171e-04 +0.0000000000000000e+00 +9.9999997566019572e-01
-4.0499999999999936e+00 +8.5975478223758888e+00 +0.0000000000000000e+00 -4.0499999663369266e+00 +2.2339705254028076e-04 +0.0000000000000000e+00 +9.9999997504687810e-01
-4.0999999999999934e+00 +8.5975365834576678e+00 +0.0000000000000000e+00 -4.0999999650737777e+00 +2.2615970210625185e-04 +0.0000000000000000e+00 +9.9999997442589417e-01
-4.1499999999999932e+00 +8.5975252064030858e+00 +0.0000000000000000e+00 -4.1499999637793881e+00 +2.2892250716622314e-04 +0.0000000000000000e+00 +9.9999997379724248e-01
-4.1999999999999931e+00 +8.5975136912043375e+00 +0.0000000000000000e+00 -4.1999999624533739e+00 +2.3168546898930806e-04 +0.0000000000000000e+00 +9.9999997316092137e-01
-4.2499999999999929e+00 +8.5975020378535536e+00 +0.0000000000000000e+00 -4.2499999610953525e+00 +2.3444858883041528e-04 +0.0000000000000000e+00 +9.9999997251692918e-01
-4.2999999999999927e+00 +8.5974902463428009e+00 +0.0000000000000000e+00 -4.2999999597049392e+00 +2.3721186793024881e-04 +0.0000000000000000e+00 +9.9999997186526446e-01
-4.3499999999999925e+00 +8.5974783166640858e+00 +0.0000000000000000e+00 -4.3499999582817512e+00 +2.3997530751530783e-04 +0.0000000000000000e+00 +9.9999997120592543e-01
-4.3999999999999924e+00 +8.5974662488093543e+00 +0.0000000000000000e+00 -4.3999999568254040e+00 +2.4273890879788685e-04 +0.0000000000000000e+00 +9.9999997053891054e-01
-4.4499999999999922e+00 +8.5974540427704920e+00 +0.0000000000000000e+00 -4.4499999553355138e+00 +2.4550267297607556e-04 +0.0000000000000000e+00 +9.9999996986421824e-01
-4.4999999999999920e+00 +8.5974416985393223e+00 +0.0000000000000000e+00 -4.4999999538116970e+00 +2.4826660123375893e-04 +0.0000000000000000e+00 +9.9999996918184675e-01
-4.5499999999999918e+00 +8.5974292161076136e+00 +0.0000000000000000e+00 -4.5499999522535699e+00 +2.5103069474061710e-04 +0.0000000000000000e+00 +9.9999996849179451e-01
-4.5999999999999917e+00 +8.5974165954670738e+00 +0.0000000000000000e+00 -4.5999999506607478e+00 +2.5379495465212553e-04 +0.0000000000000000e+00 +9.9999996779405986e-01
-4.6499999999999915e+00 +8.5974038366093559e+00 +0.0000000000000000e+00 -4.6499999490328472e+00 +2.5655938210955478e-04 +0.0000000000000000e+00 +9.9999996708864103e-01
-4.6999999999999913e+00 +8.5973909395260524e+00 +0.0000000000000000e+00 -4.6999999473694833e+00 +2.5932397823997063e-04 +0.0000000000000000e+00 +9.9999996637553645e-01
-4.7499999999999911e+00 +8.5973779042087024e+00 +0.0000000000000000e+00 -4.7499999456702726e+00 +2.6208874415623409e-04 +0.0000000000000000e+00 +9.9999996565474436e-01
-4.7999999999999909e+00 +8.5973647306487884e+00 +0.0000000000000000e+00 -4.7999999439348295e+00 +2.6485368095700119e-04 +0.0000000000000000e+00 +9.9999996492626309e-01
-4.8499999999999908e+00 +8.5973514188377393e+00 +0.0000000000000000e+00 -4.8499999421627704e+00 +2.6761878972672326e-04 +0.0000000000000000e+00 +9.9999996419009096e-01
-4.8999999999999906e+00 +8.5973379687669311e+00 +0.0000000000000000e+00 -4.8999999403537107e+00 +2.7038407153564663e-04 +0.0000000000000000e+00 +9.9999996344622621e-01
-4.9499999999999904e+00 +8.5973243804276844e+00 +0.0000000000000000e+00 -4.9499999385072648e+00 +2.7314952743981278e-04 +0.0000000000000000e+00 +9.9999996269466707e-01
-4.9999999999999902e+00 +8.5973106538112685e+00 +0.0000000000000000e+00 -4.9999999366230492e+00 +2.7591515848105820e-04 +0.0000000000000000e+00 +9.9999996193541185e-01
-5.0499999999999901e+00 +8.5972967889089009e+00 +0.0000000000000000e+00 -5.0499999347006783e+00 +2.7868096568701441e-04 +0.0000000000000000e+00 +9.9999996116845880e-01
-5.0999999999999899e+00 +8.5972827857117480e+00 +0.0000000000000000e+00 -5.0999999327397667e+00 +2.8144695007110808e-04 +0.0000000000000000e+00 +9.9999996039380623e-01
-5.1499999999999897e+00 +8.5972686442109243e+00 +0.0000000000000000e+00 -5.1499999307399307e+00 +2.8421311263256068e-04 +0.0000000000000000e+00 +9.9999995961145238e-01
-5.1999999999999895e+00 +8.5972543643974983e+00 +0.0000000000000000e+00 -5.1999999287007839e+00 +2.8697945435638875e-04 +0.0000000000000000e+00 +9.9999995882139547e-01
-5.2499999999999893e+00 +8.5972399462624871e+00 +0.0000000000000000e+00 -5.2499999266219417e+00 +2.8974597621340368e-04 +0.0000000000000000e+00 +9.9999995802363373e-01
-5.2999999999999892e+00 +8.5972253897968596e+00 +0.0000000000000000e+00 -5.2999999245030187e+00 +2.9251267916021183e-04 +0.0000000000000000e+00 +9.9999995721816537e-01
-5.3499999999999890e+00 +8.5972106949915368e+00 +0.0000000000000000e+00 -5.3499999223436294e+00 +2.9527956413921431e-04 +0.0000000000000000e+00 +9.9999995640498862e-01
-5.3999999999999888e+00 +8.5971958618373954e+00 +0.0000000000000000e+00 -5.3999999201433884e+00 +2.9804663207860712e-04 +0.0000000000000000e+00 +9.9999995558410160e-01
-5.4499999999999886e+00 +8.5971808903252640e+00 +0.0000000000000000e+00 -5.4499999179019110e+00 +3.0081388389238103e-04 +0.0000000000000000e+00 +9.9999995475550263e-01
-5.4999999999999885e+00 +8.5971657804459269e+00 +0.0000000000000000e+00 -5.4999999156188109e+00 +3.0358132048032151e-04 +0.0000000000000000e+00 +9.9999995391918994e-01
-5.5499999999999883e+00 +8.5971505321901223e+00 +0.0000000000000000e+00 -5.5499999132937017e+00 +3.0634894272800874e-04 +0.0000000000000000e+00 +9.9999995307516165e-01
-5.5999999999999881e+00 +8.5971351455485454e+00 +0.0000000000000000e+00 -5.5999999109261980e+00 +3.0911675150681751e-04 +0.0000000000000000e+00 +9.9999995222341598e-01
-5.6499999999999879e+00 +8.5971196205118492e+00 +0.0000000000000000e+00 -5.6499999085159143e+00 +3.1188474767391726e-04 +0.0000000000000000e+00 +9.9999995136395103e-01
-5.6999999999999877e+00 +8.5971039570706420e+00 +0.0000000000000000e+00 -5.6999999060624642e+00 +3.1465293207227202e-04 +0.0000000000000000e+00 +9.9999995049676504e-01
-5.7499999999999876e+00 +8.5970881552154914e+00 +0.0000000000000000e+00 -5.7499999035654623e+00 +3.1742130553064025e-04 +0.0000000000000000e+00 +9.9999994962185623e-01
-5.7999999999999874e+00 +8.5970722149369241e+00 +0.0000000000000000e+00 -5.7999999010245213e+00 +3.2018986886357491e-04 +0.0000000000000000e+00 +9.9999994873922271e-01
-5.8499999999999872e+00 +8.5970561362254276e+00 +0.0000000000000000e+00 -5.8499998984392558e+00 +3.2295862287142336e-04 +0.0000000000000000e+00 +9.9999994784886270e-01
