# field on trajectory
# s[mm] rx[mm] ry[mm] rz[mm] bx[T] by[T] bz[T]
0.0000000000000000e+00 +8.5269999999999992e+00 +0.0000000000000000e+00 +0.0000000000000000e+00 -2.8595326089499579e-02 -5.5062576513390515e-01 +5.4264424618519396e-03
-5.0000000000000003e-02 +8.5269999310032407e+00 +0.0000000000000000e+00 -4.9999999999936526e-02 -2.8595672005977381e-02 -5.5063268625678252e-01 +5.4257481325005359e-03
-1.0000000000000001e-01 +8.5269997240117927e+00 +0.0000000000000000e+00 -9.9999999999492190e-02 -2.8596035038972803e-02 -5.5063997813637122e-01 +5.4250584659427470e-03
-1.5000000000000002e-01 +8.5269993790238274e+00 +0.0000000000000000e+00 -1.4999999999828617e-01 -2.8596415139983792e-02 -5.5064763941721739e-01 +5.4243734938772513e-03
-2.0000000000000001e-01 +8.5269988960374246e+00 +0.0000000000000000e+00 -1.9999999999593754e-01 -2.8596812260509263e-02 -5.5065566874388450e-01 +5.4236932480030463e-03
-2.5000000000000000e-01 +8.5269982750505715e+00 +0.0000000000000000e+00 -2.4999999999206543e-01 -2.8597226352049095e-02 -5.5066406476095286e-01 +5.4230177600194454e-03
-2.9999999999999999e-01 +8.5269975160611651e+00 +0.0000000000000000e+00 -2.9999999998628890e-01 -2.8597657366104142e-02 -5.5067282611302004e-01 +5.4223470616260655e-03
-3.4999999999999998e-01 +8.5269966190670097e+00 +0.0000000000000000e+00 -3.4999999997822706e-01 -2.8598105254176182e-02 -5.5068195144469934e-01 +5.4216811845228157e-03
-3.9999999999999997e-01 +8.5269955840658174e+00 +0.0000000000000000e+00 -3.9999999996749891e-01 -2.8598569967768002e-02 -5.5069143940062126e-01 +5.4210201604099019e-03
-4.4999999999999996e-01 +8.5269944110552114e+00 +0.0000000000000000e+00 -4.4999999995372347e-01 -2.8599051458383290e-02 -5.5070128862543211e-01 +5.4203640209878005e-03
-4.9999999999999994e-01 +8.5269931000327244e+00 +0.0000000000000000e+00 -4.9999999993651978e-01 -2.8599549677526724e-02 -5.5071149776379480e-01 +5.4197127979572698e-03
-5.4999999999999993e-01 +8.5269916509957966e+00 +0.0000000000000000e+00 -5.4999999991550685e-01 -2.8600064576703898e-02 -5.5072206546038827e-01 +5.4190665230193251e-03
-5.9999999999999998e-01 +8.5269900639417795e+00 +0.0000000000000000e+00 -5.9999999989030361e-01 -2.8600596107421362e-02 -5.5073299035990653e-01 +5.4184252278752414e-03
-6.5000000000000002e-01 +8.5269883388679357e+00 +0.0000000000000000e+00 -6.4999999986052892e-01 -2.8601144221186630e-02 -5.5074427110706103e-01 +5.4177889442265431e-03
-7.0000000000000007e-01 +8.5269864757714391e+00 +0.0000000000000000e+00 -6.9999999982580174e-01 -2.8601708869508115e-02 -5.5075590634657701e-01 +5.4171577037749920e-03
-7.5000000000000011e-01 +8.5269844746493710e+00 +0.0000000000000000e+00 -7.4999999978574095e-01 -2.8602290003895196e-02 -5.5076789472319632e-01 +5.4165315382225807e-03
-8.0000000000000016e-01 +8.5269823354987295e+00 +0.0000000000000000e+00 -7.9999999973996538e-01 -2.8602887575858167e-02 -5.5078023488167538e-01 +5.4159104792715317e-03
-8.5000000000000020e-01 +8.5269800583164219e+00 +0.0000000000000000e+00 -8.4999999968809392e-01 -2.8603501536908261e-02 -5.5079292546678649e-01 +5.4152945586242720e-03
-9.0000000000000024e-01 +8.5269776430992668e+00 +0.0000000000000000e+00 -8.9999999962974531e-01 -2.8604131838557645e-02 -5.5080596512331670e-01 +5.4146838079834536e-03
-9.5000000000000029e-01 +8.5269750898439973e+00 +0.0000000000000000e+00 -9.4999999956453829e-01 -2.8604778432319379e-02 -5.5081935249606773e-01 +5.4140782590519076e-03
-1.0000000000000002e+00 +8.5269723985472581e+00 +0.0000000000000000e+00 -9.9999999949209162e-01 -2.8605441269707477e-02 -5.5083308622985616e-01 +5.4134779435326746e-03
-1.0500000000000003e+00 +8.5269695692056064e+00 +0.0000000000000000e+00 -1.0499999994120239e+00 -2.8606120302236856e-02 -5.5084716496951347e-01 +5.4128828931289709e-03
-1.1000000000000003e+00 +8.5269666018155164e+00 +0.0000000000000000e+00 -1.0999999993239540e+00 -2.8606815481423364e-02 -5.5086158735988466e-01 +5.4122931395441838e-03
-1.1500000000000004e+00 +8.5269634963733711e+00 +0.0000000000000000e+00 -1.1499999992275003e+00 -2.8607526758783725e-02 -5.5087635204583030e-01 +5.4117087144818785e-03
-1.2000000000000004e+00 +8.5269602528754724e+00 +0.0000000000000000e+00 -1.1999999991222816e+00 -2.8608254085835623e-02 -5.5089145767222414e-01 +5.4111296496457684e-03
-1.2500000000000004e+00 +8.5269568713180330e+00 +0.0000000000000000e+00 -1.2499999990079165e+00 -2.8608997414097590e-02 -5.5090690288395472e-01 +5.4105559767397299e-03
-1.3000000000000005e+00 +8.5269533516971840e+00 +0.0000000000000000e+00 -1.2999999988840232e+00 -2.8609756695089132e-02 -5.5092268632592356e-01 +5.4099877274677724e-03
-1.3500000000000005e+00 +8.5269496940089677e+00 +0.0000000000000000e+00 -1.3499999987502205e+00 -2.8610531880330577e-02 -5.5093880664304640e-01 +5.4094249335340447e-03
-1.4000000000000006e+00 +8.5269458982493465e+00 +0.0000000000000000e+00 -1.3999999986061267e+00 -2.8611322921343219e-02 -5.5095526248025284e-01 +5.4088676266428196e-03
-1.4500000000000006e+00 +8.5269419644141955e+00 +0.0000000000000000e+00 -1.4499999984513603e+00 -2.8612129769649202e-02 -5.5097205248248515e-01 +5.4083158384984993e-03
-1.5000000000000007e+00 +8.5269378924993067e+00 +0.0000000000000000e+00 -1.4999999982855394e+00 -2.8612952376771587e-02 -5.5098917529469971e-01 +5.4077696008055804e-03
-1.5500000000000007e+00 +8.5269336825003883e+00 +0.0000000000000000e+00 -1.5499999981082826e+00 -2.8613790694234306e-02 -5.5100662956186541e-01 +5.4072289452686741e-03
-1.6000000000000008e+00 +8.5269293344130670e+00 +0.0000000000000000e+00 -1.5999999979192081e+00 -2.8614644673562208e-02 -5.5102441392896451e-01 +5.4066939035924827e-03
-1.6500000000000008e+00 +8.5269248482328859e+00 +0.0000000000000000e+00 -1.6499999977179340e+00 -2.8615514266280964e-02 -5.5104252704099199e-01 +5.4061645074818003e-03
-1.7000000000000008e+00 +8.5269202239553064e+00 +0.0000000000000000e+00 -1.6999999975040787e+00 -2.8616399423917208e-02 -5.5106096754295530e-01 +5.4056407886414861e-03
-1.7500000000000009e+00 +8.5269154615757063e+00 +0.0000000000000000e+00 -1.7499999972772602e+00 -2.8617300097998379e-02 -5.5107973407987509e-01 +5.4051227787764826e-03
-1.8000000000000009e+00 +8.5269105610893838e+00 +0.0000000000000000e+00 -1.7999999970370966e+00 -2.8618216240052827e-02 -5.5109882529678378e-01 +5.4046105095917948e-03
-1.8500000000000010e+00 +8.5269055224915533e+00 +0.0000000000000000e+00 -1.8499999967832059e+00 -2.8619147801609783e-02 -5.5111823983872621e-01 +5.4041040127924683e-03
-1.9000000000000010e+00 +8.5269003457773493e+00 +0.0000000000000000e+00 -1.8999999965152063e+00 -2.8620094734199294e-02 -5.5113797635075945e-01 +5.4036033200836114e-03
-1.9500000000000011e+00 +8.5268950309418265e+00 +0.0000000000000000e+00 -1.9499999962327157e+00 -2.8621056989352345e-02 -5.5115803347795278e-01 +5.4031084631703617e-03
-2.0000000000000009e+00 +8.5268895779799578e+00 +0.0000000000000000e+00 -1.9999999959353518e+00 -2.8622034518600747e-02 -5.5117840986538769e-01 +5.4026194737578949e-03
-2.0500000000000007e+00 +8.5268839868866362e+00 +0.0000000000000000e+00 -2.0499999956227328e+00 -2.8623027262795794e-02 -5.5119910399003824e-01 +5.4021363832027396e-03
-2.1000000000000005e+00 +8.5268782576566764e+00 +0.0000000000000000e+00 -2.0999999952944761e+00 -2.8624035120064374e-02 -5.5122011365642209e-01 +5.4016592214669234e-03
-2.1500000000000004e+00 +8.5268723902848134e+00 +0.0000000000000000e+00 -2.1499999949501998e+00 -2.8625057977852923e-02 -5.5124143650094992e-01 +5.4011880181640045e-03
-2.2000000000000002e+00 +8.5268663847657020e+00 +0.0000000000000000e+00 -2.1999999945895214e+00 -2.8626095723608889e-02 -5.5126307016004261e-01 +5.4007228029077517e-03
-2.2500000000000000e+00 +8.5268602410939227e+00 +0.0000000000000000e+00 -2.2499999942120583e+00 -2.8627148244780683e-02 -5.5128501227013105e-01 +5.4002636053121535e-03
-2.2999999999999998e+00 +8.5268539592639758e+00 +0.0000000000000000e+00 -2.2999999938174285e+00 -2.8628215428817685e-02 -5.5130726046765588e-01 +5.3998104549914123e-03
-2.3499999999999996e+00 +8.5268475392702854e+00 +0.0000000000000000e+00 -2.3499999934052496e+00 -2.8629297163170284e-02 -5.5132981238906853e-01 +5.3993633815599554e-03
-2.3999999999999995e+00 +8.5268409811072008e+00 +0.0000000000000000e+00 -2.3999999929751388e+00 -2.8630393335289835e-02 -5.5135266567082941e-01 +5.3989224146324330e-03
-2.4499999999999993e+00 +8.5268342847689933e+00 +0.0000000000000000e+00 -2.4499999925267133e+00 -2.8631503832628687e-02 -5.5137581794940826e-01 +5.3984875838237268e-03
-2.4999999999999991e+00 +8.5268274502498613e+00 +0.0000000000000000e+00 -2.4999999920595908e+00 -2.8632628542640190e-02 -5.5139926686128438e-01 +5.3980589187489535e-03
-2.5499999999999989e+00 +8.5268204775439287e+00 +0.0000000000000000e+00 -2.5499999915733884e+00 -2.8633767352778682e-02 -5.5142301004294547e-01 +5.3976364490234607e-03
-2.5999999999999988e+00 +8.5268133666452464e+00 +0.0000000000000000e+00 -2.5999999910677238e+00 -2.8634920150499520e-02 -5.5144704513088927e-01 +5.3972202042628509e-03
-2.6499999999999986e+00 +8.5268061175477889e+00 +0.0000000000000000e+00 -2.6499999905422138e+00 -2.8636086823259074e-02 -5.5147136976162114e-01 +5.3968102140829546e-03
-2.6999999999999984e+00 +8.5267987302454618e+00 +0.0000000000000000e+00 -2.6999999899964755e+00 -2.8637267258514676e-02 -5.5149598157165480e-01 +5.3964065080998594e-03
-2.7499999999999982e+00 +8.5267912047320973e+00 +0.0000000000000000e+00 -2.7499999894301261e+00 -2.8638461343724719e-02 -5.5152087819751350e-01 +5.3960091159299065e-03
-2.7999999999999980e+00 +8.5267835410014552e+00 +0.0000000000000000e+00 -2.7999999888427825e+00 -2.8639668966348602e-02 -5.5154605727572681e-01 +5.3956180671896900e-03
-2.8499999999999979e+00 +8.5267757390472259e+00 +0.0000000000000000e+00 -2.8499999882340616e+00 -2.8640890013846725e-02 -5.5157151644283331e-01 +5.3952333914960631e-03
-2.8999999999999977e+00 +8.5267677988630286e+00 +0.0000000000000000e+00 -2.8999999876035805e+00 -2.8642124373680560e-02 -5.5159725333537957e-01 +5.3948551184661471e-03
-2.9499999999999975e+00 +8.5267597204424153e+00 +0.0000000000000000e+00 -2.9499999869509557e+00 -2.8643371933312563e-02 -5.5162326558991848e-01 +5.3944832777173251e-03
-2.9999999999999973e+00 +8.5267515037788648e+00 +0.0000000000000000e+00 -2.9999999862758040e+00 -2.8644632580206227e-02 -5.5164955084301104e-01 +5.3941178988672570e-03
-3.0499999999999972e+00 +8.5267431488657905e+00 +0.0000000000000000e+00 -3.0499999855777422e+00 -2.8645906201826093e-02 -5.5167610673122491e-01 +5.3937590115338699e-03
-3.0999999999999970e+00 +8.5267346556965382e+00 +0.0000000000000000e+00 -3.0999999848563871e+00 -2.8647192685637739e-02 -5.5170293089113531e-01 +5.3934066453353753e-03
-3.1499999999999968e+00 +8.5267260242643861e+00 +0.0000000000000000e+00 -3.1499999841113548e+00 -2.8648491919107802e-02 -5.5173002095932311e-01 +5.3930608298902666e-03
-3.1999999999999966e+00 +8.5267172545625431e+00 +0.0000000000000000e+00 -3.1999999833422623e+00 -2.8649803789703953e-02 -5.5175737457237684e-01 +5.3927215948173235e-03
-3.2499999999999964e+00 +8.5267083465841562e+00 +0.0000000000000000e+00 -3.2499999825487258e+00 -2.8651128184894889e-02 -5.5178498936689058e-01 +5.3923889697356127e-03
-3.2999999999999963e+00 +8.5266993003223028e+00 +0.0000000000000000e+00 -3.2999999817303611e+00 -2.8652464992150413e-02 -5.5181286297946441e-01 +5.3920629842644993e-03
-3.3499999999999961e+00 +8.5266901157700001e+00 +0.0000000000000000e+00 -3.3499999808867851e+00 -2.8653814098941358e-02 -5.5184099304670520e-01 +5.3917436680236391e-03
-3.3999999999999959e+00 +8.5266807929201960e+00 +0.0000000000000000e+00 -3.3999999800176139e+00 -2.8655175392739606e-02 -5.5186937720522489e-01 +5.3914310506329990e-03
-3.4499999999999957e+00 +8.5266713317657796e+00 +0.0000000000000000e+00 -3.4499999791224636e+00 -2.8656548761018141e-02 -5.5189801309164077e-01 +5.3911251617128359e-03
-3.4999999999999956e+00 +8.5266617322995728e+00 +0.0000000000000000e+00 -3.4999999782009503e+00 -2.8657934091250989e-02 -5.5192689834257636e-01 +5.3908260308837327e-03
-3.5499999999999954e+00 +8.5266519945143369e+00 +0.0000000000000000e+00 -3.5499999772526896e+00 -2.8659331270913260e-02 -5.5195603059465925e-01 +5.3905336877665766e-03
-3.5999999999999952e+00 +8.5266421184027728e+00 +0.0000000000000000e+00 -3.5999999762772976e+00 -2.8660740187481146e-02 -5.5198540748452263e-01 +5.3902481619825674e-03
-3.6499999999999950e+00 +8.5266321039575157e+00 +0.0000000000000000e+00 -3.6499999752743904e+00 -2.8662160728431935e-02 -5.5201502664880497e-01 +5.3899694831532350e-03
-3.6999999999999948e+00 +8.5266219511711459e+00 +0.0000000000000000e+00 -3.6999999742435836e+00 -2.8663592781243946e-02 -5.5204488572414778e-01 +5.3896976809004208e-03
-3.7499999999999947e+00 +8.5266116600361777e+00 +0.0000000000000000e+00 -3.7499999731844929e+00 -2.8665036233396654e-02 -5.5207498234719843e-01 +5.3894327848463038e-03
-3.7999999999999945e+00 +8.5266012305450705e+00 +0.0000000000000000e+00 -3.7999999720967339e+00 -2.8666490972370579e-02 -5.5210531415460740e-01 +5.3891748246133898e-03
-3.8499999999999943e+00 +8.5265906626902233e+00 +0.0000000000000000e+00 -3.8499999709799222e+00 -2.8667956885647366e-02 -5.5213587878302994e-01 +5.3889238298245245e-03
-3.8999999999999941e+00 +8.5265799564639746e+00 +0.0000000000000000e+00 -3.8999999698336736e+00 -2.8669433860709751e-02 -5.5216667386912477e-01 +5.3886798301028853e-03
-3.9499999999999940e+00 +8.5265691118586080e+00 +0.0000000000000000e+00 -3.9499999686576031e+00 -2.8670921785041565e-02 -5.5219769704955390e-01 +5.3884428550719969e-03
-3.9999999999999938e+00 +8.5265581288663483e+00 +0.0000000000000000e+00 -3.9999999674513260e+00 -2.8672420546127786e-02 -5.5222894596098349e-01 +5.3882129343557341e-03
-4.0499999999999936e+00 +8.5265470074793654e+00 +0.0000000000000000e+00 -4.0499999662144575e+00 -2.8673930031794213e-02 -5.5226041814787774e-01 +5.3879900941230683e-03
-4.0999999999999934e+00 +8.5265357476897723e+00 +0.0000000000000000e+00 -4.0999999649466128e+00 -2.8675450131225997e-02 -5.5229211078588669e-01 +5.3877743467223788e-03
-4.1499999999999932e+00 +8.5265243494896250e+00 +0.0000000000000000e+00 -4.1499999636474074e+00 -2.8676980733946523e-02 -5.5232402095845368e-01 +5.3875657010472372e-03
-4.1999999999999931e+00 +8.5265128128709282e+00 +0.0000000000000000e+00 -4.1999999623164559e+00 -2.8678521729477397e-02 -5.5235614574901881e-01 +5.3873641659916973e-03
-4.2499999999999929e+00 +8.5265011378256297e+00 +0.0000000000000000e+00 -4.2499999609533727e+00 -2.8680073007338297e-02 -5.5238848224102055e-01 +5.3871697504502929e-03
-4.2999999999999927e+00 +8.5264893243456275e+00 +0.0000000000000000e+00 -4.2999999595577734e+00 -2.8681634457046950e-02 -5.5242102751789335e-01 +5.3869824633180413e-03
-4.3499999999999925e+00 +8.5264773724227645e+00 +0.0000000000000000e+00 -4.3499999581292732e+00 -2.8683205968119015e-02 -5.5245377866306800e-01 +5.3868023134904641e-03
-4.3999999999999924e+00 +8.5264652820488323e+00 +0.0000000000000000e+00 -4.3999999566674859e+00 -2.8684787430068005e-02 -5.5248673275997195e-01 +5.3866293098635805e-03
-4.4499999999999922e+00 +8.5264530532155725e+00 +0.0000000000000000e+00 -4.4499999551720260e+00 -2.8686378732405208e-02 -5.5251988689202791e-01 +5.3864634613339226e-03
-4.4999999999999920e+00 +8.5264406859146771e+00 +0.0000000000000000e+00 -4.4999999536425088e+00 -2.8687979764639611e-02 -5.5255323814265433e-01 +5.3863047767985410e-03
-4.5499999999999918e+00 +8.5264281801377884e+00 +0.0000000000000000e+00 -4.5499999520785481e+00 -2.8689590416277787e-02 -5.5258678359526447e-01 +5.3861532651550085e-03
-4.5999999999999917e+00 +8.5264155358765006e+00 +0.0000000000000000e+00 -4.5999999504797584e+00 -2.8691210576823875e-02 -5.5262052033326592e-01 +5.3860089353014321e-03
-4.6499999999999915e+00 +8.5264027531223565e+00 +0.0000000000000000e+00 -4.6499999488457542e+00 -2.8692840135779437e-02 -5.5265444544006159e-01 +5.3858717961364566e-03
-4.6999999999999913e+00 +8.5263898318668563e+00 +0.0000000000000000e+00 -4.6999999471761500e+00 -2.8694478982643372e-02 -5.5268855599904754e-01 +5.3857418565592691e-03
-4.7499999999999911e+00 +8.5263767721014503e+00 +0.0000000000000000e+00 -4.7499999454705595e+00 -2.8696127006911893e-02 -5.5272284909361391e-01 +5.3856191254696159e-03
-4.7999999999999909e+00 +8.5263635738175463e+00 +0.0000000000000000e+00 -4.7999999437285963e+00 -2.8697784098078383e-02 -5.5275732180714365e-01 +5.3855036117677986e-03
-4.8499999999999908e+00 +8.5263502370065041e+00 +0.0000000000000000e+00 -4.8499999419498749e+00 -2.8699450145633371e-02 -5.5279197122301349e-01 +5.3853953243546910e-03
-4.8999999999999906e+00 +8.5263367616596391e+00 +0.0000000000000000e+00 -4.8999999401340091e+00 -2.8701125039064367e-02 -5.5282679442459193e-01 +5.3852942721317361e-03
-4.9499999999999904e+00 +8.5263231477682258e+00 +0.0000000000000000e+00 -4.9499999382806124e+00 -2.8702808667855857e-02 -5.5286178849524015e-01 +5.3852004640009632e-03
-4.9999999999999902e+00 +8.5263093953234943e+00 +0.0000000000000000e+00 -4.9999999363892993e+00 -2.8704500921489181e-02 -5.5289695051831100e-01 +5.3851139088649854e-03
-5.0499999999999901e+00 +8.5262955043166340e+00 +0.0000000000000000e+00 -5.0499999344596826e+00 -2.8706201689442479e-02 -5.5293227757714936e-01 +5.3850346156270167e-03
-5.0999999999999899e+00 +8.5262814747387896e+00 +0.0000000000000000e+00 -5.0999999324913761e+00 -2.8707910861190549e-02 -5.5296776675509063e-01 +5.3849625931908646e-03
-5.1499999999999897e+00 +8.5262673065810688e+00 +0.0000000000000000e+00 -5.1499999304839932e+00 -2.8709628326204831e-02 -5.5300341513546158e-01 +5.3848978504609573e-03
-5.1999999999999895e+00 +8.5262529998345364e+00 +0.0000000000000000e+00 -5.1999999284371468e+00 -2.8711353973953319e-02 -5.5303921980157966e-01 +5.3848403963423384e-03
-5.2499999999999893e+00 +8.5262385544902202e+00 +0.0000000000000000e+00 -5.2499999263504513e+00 -2.8713087693900401e-02 -5.5307517783675197e-01 +5.3847902397406678e-03
-5.2999999999999892e+00 +8.5262239705391085e+00 +0.0000000000000000e+00 -5.2999999242235187e+00 -2.8714829375506862e-02 -5.5311128632427564e-01 +5.3847473895622449e-03
-5.3499999999999890e+00 +8.5262092479721527e+00 +0.0000000000000000e+00 -5.3499999220559626e+00 -2.8716578908229772e-02 -5.5314754234743702e-01 +5.3847118547140005e-03
-5.3999999999999888e+00 +8.5261943867802685e+00 +0.0000000000000000e+00 -5.3999999198473967e+00 -2.8718336181522395e-02 -5.5318394298951235e-01 +5.3846836441035209e-03
-5.4499999999999886e+00 +8.5261793869543308e+00 +0.0000000000000000e+00 -5.4499999175974327e+00 -2.8720101084834096e-02 -5.5322048533376567e-01 +5.3846627666390336e-03
-5.4999999999999885e+00 +8.5261642484851841e+00 +0.0000000000000000e+00 -5.4999999153056844e+00 -2.8721873507610313e-02 -5.5325716646345002e-01 +5.3846492312294332e-03
-5.5499999999999883e+00 +8.5261489713636340e+00 +0.0000000000000000e+00 -5.5499999129717636e+00 -2.8723653339292401e-02 -5.5329398346180680e-01 +5.3846430467842784e-03
-5.5999999999999881e+00 +8.5261335555804560e+00 +0.0000000000000000e+00 -5.5999999105952840e+00 -2.8725440469317583e-02 -5.5333093341206430e-01 +5.3846442222137995e-03
-5.6499999999999879e+00 +8.5261180011263882e+00 +0.0000000000000000e+00 -5.6499999081758574e+00 -2.8727234787118885e-02 -5.5336801339743880e-01 +5.3846527664289170e-03
-5.6999999999999877e+00 +8.5261023079921383e+00 +0.0000000000000000e+00 -5.6999999057130966e+00 -2.8729036182125012e-02 -5.5340522050113317e-01 +5.3846686883412282e-03
-5.7499999999999876e+00 +8.5260864761683841e+00 +0.0000000000000000e+00 -5.7499999032066142e+00 -2.8730844543760323e-02 -5.5344255180633772e-01 +5.3846919968630327e-03
-5.7999999999999874e+00 +8.5260705056457677e+00 +0.0000000000000000e+00 -5.7999999006560223e+00 -2.8732659761444661e-02 -5.5348000439622813e-01 +5.3847227009073302e-03
-5.8499999999999872e+00 +8.5260543964149047e+00 +0.0000000000000000e+00 -5.8499998980609327e+00 -2.8734481724593378e-02 -5.5351757535396673e-01 +5.3847608093878308e-03
