# field on trajectory
# s[mm] rx[mm] ry[mm] rz[mm] bx[T] by[T] bz[T]
0.0000000000000000e+00 +8.5980000000000008e+00 +0.0000000000000000e+00 +0.0000000000000000e+00 -2.9172401980801389e-02 -5.4923156661326944e-01 +5.5741175448331013e-03
5.0000000000000003e-02 +8.5979999311108166e+00 +0.0000000000000000e+00 +4.9999999999936734e-02 -2.9172318052556444e-02 -5.4923062390245414e-01 +5.5740334708985406e-03
1.0000000000000001e-01 +8.5979997244434063e+00 +0.0000000000000000e+00 +9.9999999999493799e-02 -2.9172255197692766e-02 -5.4923008287317521e-01 +5.5739517813298348e-03
1.5000000000000002e-01 +8.5979993799979066e+00 +0.0000000000000000e+00 +1.4999999999829156e-01 -2.9172213289971129e-02 -5.4922994273492753e-01 +5.5738724459082041e-03
2.0000000000000001e-01 +8.5979988977743513e+00 +0.0000000000000000e+00 +1.9999999999595033e-01 -2.9172192203152668e-02 -5.4923020269722456e-01 +5.5737954344149488e-03
2.5000000000000000e-01 +8.5979982777726747e+00 +0.0000000000000000e+00 +2.4999999999209049e-01 -2.9172191810999053e-02 -5.4923086196959925e-01 +5.5737207166314529e-03
2.9999999999999999e-01 +8.5979975199927132e+00 +0.0000000000000000e+00 +2.9999999998633237e-01 -2.9172211987272358e-02 -5.4923191976160279e-01 +5.5736482623391856e-03
3.4999999999999998e-01 +8.5979966244342005e+00 +0.0000000000000000e+00 +3.4999999997829628e-01 -2.9172252605735131e-02 -5.4923337528280447e-01 +5.5735780413197081e-03
3.9999999999999997e-01 +8.5979955910967707e+00 +0.0000000000000000e+00 +3.9999999996760260e-01 -2.9172313540150447e-02 -5.4923522774279365e-01 +5.5735100233546770e-03
4.4999999999999996e-01 +8.5979944199799601e+00 +0.0000000000000000e+00 +4.4999999995387163e-01 -2.9172394664281859e-02 -5.4923747635117670e-01 +5.5734441782258450e-03
4.9999999999999994e-01 +8.5979931110832037e+00 +0.0000000000000000e+00 +4.9999999993672373e-01 -2.9172495851893444e-02 -5.4924012031757985e-01 +5.5733804757150682e-03
5.4999999999999993e-01 +8.5979916644058392e+00 +0.0000000000000000e+00 +5.4999999991577919e-01 -2.9172616976749811e-02 -5.4924315885164621e-01 +5.5733188856042989e-03
5.9999999999999998e-01 +8.5979900799471043e+00 +0.0000000000000000e+00 +5.9999999989065833e-01 -2.9172757912616126e-02 -5.4924659116303876e-01 +5.5732593776756005e-03
6.5000000000000002e-01 +8.5979883577061376e+00 +0.0000000000000000e+00 +6.4999999986098134e-01 -2.9172918533258103e-02 -5.4925041646143780e-01 +5.5732019217111491e-03
7.0000000000000007e-01 +8.5979864976819798e+00 +0.0000000000000000e+00 +6.9999999982636862e-01 -2.9173098712442058e-02 -5.4925463395654239e-01 +5.5731464874932352e-03
7.5000000000000011e-01 +8.5979844998735739e+00 +0.0000000000000000e+00 +7.4999999978644039e-01 -2.9173298323934872e-02 -5.4925924285806960e-01 +5.5730930448042630e-03
8.0000000000000016e-01 +8.5979823642797619e+00 +0.0000000000000000e+00 +7.9999999974081692e-01 -2.9173517241504056e-02 -5.4926424237575433e-01 +5.5730415634267548e-03
8.5000000000000020e-01 +8.5979800908992914e+00 +0.0000000000000000e+00 +8.4999999968911855e-01 -2.9173755338917723e-02 -5.4926963171934984e-01 +5.5729920131433611e-03
9.0000000000000024e-01 +8.5979776797308087e+00 +0.0000000000000000e+00 +8.9999999963096544e-01 -2.9174012489944643e-02 -5.4927541009862790e-01 +5.5729443637368599e-03
9.5000000000000029e-01 +8.5979751307728662e+00 +0.0000000000000000e+00 +9.4999999956597780e-01 -2.9174288568354193e-02 -5.4928157672337696e-01 +5.5728985849901507e-03
1.0000000000000002e+00 +8.5979724440239167e+00 +0.0000000000000000e+00 +9.9999999949377583e-01 -2.9174583447916479e-02 -5.4928813080340455e-01 +5.5728546466862787e-03
1.0500000000000003e+00 +8.5979696194823152e+00 +0.0000000000000000e+00 +1.0499999994139797e+00 -2.9174897002402240e-02 -5.4929507154853563e-01 +5.5728125186084174e-03
1.1000000000000003e+00 +8.5979666571463209e+00 +0.0000000000000000e+00 +1.0999999993262095e+00 -2.9175229105582925e-02 -5.4930239816861270e-01 +5.5727721705398836e-03
1.1500000000000004e+00 +8.5979635570140953e+00 +0.0000000000000000e+00 +1.1499999992300856e+00 -2.9175579631230696e-02 -5.4931010987349604e-01 +5.5727335722641352e-03
1.2000000000000004e+00 +8.5979603190837040e+00 +0.0000000000000000e+00 +1.1999999991252279e+00 -2.9175948453118425e-02 -5.4931820587306412e-01 +5.5726966935647805e-03
1.2500000000000004e+00 +8.5979569433531164e+00 +0.0000000000000000e+00 +1.2499999990112565e+00 -2.9176335445019734e-02 -5.4932668537721230e-01 +5.5726615042255732e-03
1.3000000000000005e+00 +8.5979534298202065e+00 +0.0000000000000000e+00 +1.2999999988877915e+00 -2.9176740480708990e-02 -5.4933554759585379e-01 +5.5726279740304198e-03
1.3500000000000005e+00 +8.5979497784827501e+00 +0.0000000000000000e+00 +1.3499999987544531e+00 -2.9177163433961314e-02 -5.4934479173891893e-01 +5.5725960727633908e-03
1.4000000000000006e+00 +8.5979459893384291e+00 +0.0000000000000000e+00 +1.3999999986108611e+00 -2.9177604178552658e-02 -5.4935441701635646e-01 +5.5725657702087091e-03
1.4500000000000006e+00 +8.5979420623848277e+00 +0.0000000000000000e+00 +1.4499999984566356e+00 -2.9178062588259723e-02 -5.4936442263813123e-01 +5.5725370361507653e-03
1.5000000000000007e+00 +8.5979379976194377e+00 +0.0000000000000000e+00 +1.4999999982913967e+00 -2.9178538536860026e-02 -5.4937480781422610e-01 +5.5725098403741104e-03
1.5500000000000007e+00 +8.5979337950396513e+00 +0.0000000000000000e+00 +1.5499999981147641e+00 -2.9179031898131928e-02 -5.4938557175464131e-01 +5.5724841526634704e-03
1.6000000000000008e+00 +8.5979294546427703e+00 +0.0000000000000000e+00 +1.5999999979263577e+00 -2.9179542545854618e-02 -5.4939671366939302e-01 +5.5724599428037414e-03
1.6500000000000008e+00 +8.5979249764260004e+00 +0.0000000000000000e+00 +1.6499999977257978e+00 -2.9180070353808131e-02 -5.4940823276851680e-01 +5.5724371805800001e-03
1.7000000000000008e+00 +8.5979203603864498e+00 +0.0000000000000000e+00 +1.6999999975127038e+00 -2.9180615195773415e-02 -5.4942012826206321e-01 +5.5724158357774991e-03
1.7500000000000009e+00 +8.5979156065211360e+00 +0.0000000000000000e+00 +1.7499999972866958e+00 -2.9181176945532246e-02 -5.4943239936010080e-01 +5.5723958781816740e-03
1.8000000000000009e+00 +8.5979107148269804e+00 +0.0000000000000000e+00 +1.7999999970473932e+00 -2.9181755476867327e-02 -5.4944504527271432e-01 +5.5723772775781435e-03
1.8500000000000010e+00 +8.5979056853008107e+00 +0.0000000000000000e+00 +1.8499999967944161e+00 -2.9182350663562270e-02 -5.4945806521000673e-01 +5.5723600037527292e-03
1.9000000000000010e+00 +8.5979005179393617e+00 +0.0000000000000000e+00 +1.8999999965273839e+00 -2.9182962379401628e-02 -5.4947145838209643e-01 +5.5723440264914253e-03
1.9500000000000011e+00 +8.5978952127392727e+00 +0.0000000000000000e+00 +1.9499999962459167e+00 -2.9183590498170865e-02 -5.4948522399911914e-01 +5.5723293155804394e-03
2.0000000000000009e+00 +8.5978897696970904e+00 +0.0000000000000000e+00 +1.9999999959496337e+00 -2.9184234893656440e-02 -5.4949936127122745e-01 +5.5723158408061699e-03
2.0500000000000007e+00 +8.5978841888092692e+00 +0.0000000000000000e+00 +2.0499999956381547e+00 -2.9184895471543737e-02 -5.4951386918813749e-01 +5.5723035813844673e-03
2.1000000000000005e+00 +8.5978784700721693e+00 +0.0000000000000000e+00 +2.0999999953110993e+00 -2.9185572265111114e-02 -5.4952874585776690e-01 +5.5722925542483663e-03
2.1500000000000004e+00 +8.5978726134820587e+00 +0.0000000000000000e+00 +2.1499999949680868e+00 -2.9186265339536020e-02 -5.4954398916759306e-01 +5.5722827857602360e-03
2.2000000000000002e+00 +8.5978666190351127e+00 +0.0000000000000000e+00 +2.1999999946087372e+00 -2.9186974759996979e-02 -5.4955959700510482e-01 +5.5722743022825301e-03
2.2500000000000000e+00 +8.5978604867274182e+00 +0.0000000000000000e+00 +2.2499999942326694e+00 -2.9187700591673627e-02 -5.4957556725780132e-01 +5.5722671301777684e-03
2.2999999999999998e+00 +8.5978542165549676e+00 +0.0000000000000000e+00 +2.2999999938395028e+00 -2.9188442899746769e-02 -5.4959189781319306e-01 +5.5722612958085454e-03
2.3499999999999996e+00 +8.5978478085136647e+00 +0.0000000000000000e+00 +2.3499999934288569e+00 -2.9189201749398312e-02 -5.4960858655880129e-01 +5.5722568255375084e-03
2.3999999999999995e+00 +8.5978412625993226e+00 +0.0000000000000000e+00 +2.3999999930003511e+00 -2.9189977205811398e-02 -5.4962563138215681e-01 +5.5722537457273758e-03
2.4499999999999993e+00 +8.5978345788076673e+00 +0.0000000000000000e+00 +2.4499999925536047e+00 -2.9190769334170304e-02 -5.4964303017080030e-01 +5.5722520827409094e-03
2.4999999999999991e+00 +8.5978277571343327e+00 +0.0000000000000000e+00 +2.4999999920882368e+00 -2.9191578199660551e-02 -5.4966078081228198e-01 +5.5722518629409282e-03
2.5499999999999989e+00 +8.5978207975748671e+00 +0.0000000000000000e+00 +2.5499999916038663e+00 -2.9192403867468894e-02 -5.4967888119416153e-01 +5.5722531126902886e-03
2.5999999999999988e+00 +8.5978137001247283e+00 +0.0000000000000000e+00 +2.5999999911001126e+00 -2.9193246402783316e-02 -5.4969732920400671e-01 +5.5722558583519016e-03
2.6499999999999986e+00 +8.5978064647792909e+00 +0.0000000000000000e+00 +2.6499999905765947e+00 -2.9194105870793068e-02 -5.4971612272939352e-01 +5.5722601262887059e-03
2.6999999999999984e+00 +8.5977990915338385e+00 +0.0000000000000000e+00 +2.6999999900329312e+00 -2.9194982336688723e-02 -5.4973525965790770e-01 +5.5722659428636785e-03
2.7499999999999982e+00 +8.5977915803835714e+00 +0.0000000000000000e+00 +2.7499999894687415e+00 -2.9195875865662135e-02 -5.4975473787714035e-01 +5.5722733344398196e-03
2.7999999999999980e+00 +8.5977839313236029e+00 +0.0000000000000000e+00 +2.7999999888836444e+00 -2.9196786522906474e-02 -5.4977455527469188e-01 +5.5722823273801547e-03
2.8499999999999979e+00 +8.5977761443489626e+00 +0.0000000000000000e+00 +2.8499999882772586e+00 -2.9197714373616269e-02 -5.4979470973816869e-01 +5.5722929480477345e-03
2.8999999999999977e+00 +8.5977682194545952e+00 +0.0000000000000000e+00 +2.8999999876492035e+00 -2.9198659482987419e-02 -5.4981519915518462e-01 +5.5723052228056225e-03
2.9499999999999975e+00 +8.5977601566353599e+00 +0.0000000000000000e+00 +2.9499999869990972e+00 -2.9199621916217184e-02 -5.4983602141335886e-01 +5.5723191780168895e-03
2.9999999999999973e+00 +8.5977519558860322e+00 +0.0000000000000000e+00 +2.9999999863265585e+00 -2.9200601738504271e-02 -5.4985717440031801e-01 +5.5723348400446215e-03
3.0499999999999972e+00 +8.5977436172013082e+00 +0.0000000000000000e+00 +3.0499999856312061e+00 -2.9201599015048738e-02 -5.4987865600369323e-01 +5.5723522352518996e-03
3.0999999999999970e+00 +8.5977351405757982e+00 +0.0000000000000000e+00 +3.0999999849126585e+00 -2.9202613811052158e-02 -5.4990046411112170e-01 +5.5723713900018099e-03
3.1499999999999968e+00 +8.5977265260040312e+00 +0.0000000000000000e+00 +3.1499999841705342e+00 -2.9203646191717499e-02 -5.4992259661024523e-01 +5.5723923306574257e-03
3.1999999999999966e+00 +8.5977177734804560e+00 +0.0000000000000000e+00 +3.1999999834044517e+00 -2.9204696222249242e-02 -5.4994505138871053e-01 +5.5724150835818149e-03
3.2499999999999964e+00 +8.5977088829994397e+00 +0.0000000000000000e+00 +3.2499999826140291e+00 -2.9205763967853376e-02 -5.4996782633416874e-01 +5.5724396751380316e-03
3.2999999999999963e+00 +8.5976998545552679e+00 +0.0000000000000000e+00 +3.2999999817988854e+00 -2.9206849493737377e-02 -5.4999091933427469e-01 +5.5724661316891083e-03
3.3499999999999961e+00 +8.5976906881421495e+00 +0.0000000000000000e+00 +3.3499999809586383e+00 -2.9207952865110270e-02 -5.5001432827668717e-01 +5.5724944795980556e-03
3.3999999999999959e+00 +8.5976813837542121e+00 +0.0000000000000000e+00 +3.3999999800929062e+00 -2.9209074147182629e-02 -5.5003805104906822e-01 +5.5725247452278522e-03
3.4499999999999957e+00 +8.5976719413855029e+00 +0.0000000000000000e+00 +3.4499999792013072e+00 -2.9210213405166614e-02 -5.5006208553908276e-01 +5.5725569549414551e-03
3.4999999999999956e+00 +8.5976623610299949e+00 +0.0000000000000000e+00 +3.4999999782834594e+00 -2.9211370704275950e-02 -5.5008642963439858e-01 +5.5725911351017787e-03
3.5499999999999954e+00 +8.5976526426815809e+00 +0.0000000000000000e+00 +3.5499999773389805e+00 -2.9212546109726015e-02 -5.5011108122268548e-01 +5.5726273120716950e-03
3.5999999999999952e+00 +8.5976427863340756e+00 +0.0000000000000000e+00 +3.5999999763674890e+00 -2.9213739686733780e-02 -5.5013603819161527e-01 +5.5726655122140334e-03
3.6499999999999950e+00 +8.5976327919812192e+00 +0.0000000000000000e+00 +3.6499999753686021e+00 -2.9214951500517901e-02 -5.5016129842886174e-01 +5.5727057618915775e-03
3.6999999999999948e+00 +8.5976226596166754e+00 +0.0000000000000000e+00 +3.6999999743419383e+00 -2.9216181616298652e-02 -5.5018685982210003e-01 +5.5727480874670542e-03
3.7499999999999947e+00 +8.5976123892340333e+00 +0.0000000000000000e+00 +3.7499999732871148e+00 -2.9217430099298052e-02 -5.5021272025900569e-01 +5.5727925153031309e-03
3.7999999999999945e+00 +8.5976019808268038e+00 +0.0000000000000000e+00 +3.7999999722037496e+00 -2.9218697014739788e-02 -5.5023887762725487e-01 +5.5728390717624176e-03
3.8499999999999943e+00 +8.5975914343884270e+00 +0.0000000000000000e+00 +3.8499999710914601e+00 -2.9219982427849272e-02 -5.5026532981452458e-01 +5.5728877832074506e-03
3.8999999999999941e+00 +8.5975807499122663e+00 +0.0000000000000000e+00 +3.8999999699498638e+00 -2.9221286403853693e-02 -5.5029207470849162e-01 +5.5729386760007080e-03
3.9499999999999940e+00 +8.5975699273916124e+00 +0.0000000000000000e+00 +3.9499999687785783e+00 -2.9222609007981980e-02 -5.5031911019683188e-01 +5.5729917765045805e-03
3.9999999999999938e+00 +8.5975589668196832e+00 +0.0000000000000000e+00 +3.9999999675772209e+00 -2.9223950305464836e-02 -5.5034643416722107e-01 +5.5730471110813813e-03
4.0499999999999936e+00 +8.5975478681896256e+00 +0.0000000000000000e+00 +4.0499999663454087e+00 -2.9225310310868991e-02 -5.5037404437693438e-01 +5.5731046962692495e-03
4.0999999999999934e+00 +8.5975366314945116e+00 +0.0000000000000000e+00 +4.0999999650827599e+00 -2.9226688836098618e-02 -5.5040193806165061e-01 +5.5731645093097517e-03
4.1499999999999932e+00 +8.5975252567273461e+00 +0.0000000000000000e+00 +4.1499999637888907e+00 -2.9228085642391634e-02 -5.5043011232665351e-01 +5.5732265176202094e-03
4.1999999999999931e+00 +8.5975137438810609e+00 +0.0000000000000000e+00 +4.1999999624634183e+00 -2.9229500490985463e-02 -5.5045856427723228e-01 +5.5732906886178379e-03
4.2499999999999929e+00 +8.5975020929485186e+00 +0.0000000000000000e+00 +4.2499999611059600e+00 -2.9230933143116974e-02 -5.5048729101868199e-01 +5.5733569897197339e-03
4.2999999999999927e+00 +8.5974903039225126e+00 +0.0000000000000000e+00 +4.2999999597161329e+00 -2.9232383360022440e-02 -5.5051628965630117e-01 +5.5734253883428665e-03
4.3499999999999925e+00 +8.5974783767957703e+00 +0.0000000000000000e+00 +4.3499999582935533e+00 -2.9233850902937477e-02 -5.5054555729539523e-01 +5.5734958519040876e-03
4.3999999999999924e+00 +8.5974663115609484e+00 +0.0000000000000000e+00 +4.3999999568378385e+00 -2.9235335533097009e-02 -5.5057509104127300e-01 +5.5735683478201114e-03
4.4499999999999922e+00 +8.5974541082106377e+00 +0.0000000000000000e+00 +4.4499999553486047e+00 -2.9236837011735226e-02 -5.5060488799924923e-01 +5.5736428435075218e-03
4.4999999999999920e+00 +8.5974417667373650e+00 +0.0000000000000000e+00 +4.4999999538254691e+00 -2.9238355100085479e-02 -5.5063494527464185e-01 +5.5737193063827538e-03
4.5499999999999918e+00 +8.5974292871335898e+00 +0.0000000000000000e+00 +4.5499999522680481e+00 -2.9239889559380294e-02 -5.5066525997277527e-01 +5.5737977038621015e-03
4.5999999999999917e+00 +8.5974166693917073e+00 +0.0000000000000000e+00 +4.5999999506759579e+00 -2.9241440150851290e-02 -5.5069582919897619e-01 +5.5738780033617145e-03
4.6499999999999915e+00 +8.5974039135040492e+00 +0.0000000000000000e+00 +4.6499999490488158e+00 -2.9243006635729134e-02 -5.5072665005857702e-01 +5.5739601722975740e-03
4.6999999999999913e+00 +8.5973910194628846e+00 +0.0000000000000000e+00 +4.6999999473862371e+00 -2.9244588775243507e-02 -5.5075771965691378e-01 +5.5740441780855101e-03
4.7499999999999911e+00 +8.5973779872604190e+00 +0.0000000000000000e+00 +4.7499999456878381e+00 -2.9246186330622991e-02 -5.5078903509932653e-01 +5.5741299881411892e-03
4.7999999999999909e+00 +8.5973648168887973e+00 +0.0000000000000000e+00 +4.7999999439532353e+00 -2.9247799063095114e-02 -5.5082059349115897e-01 +5.5742175698801025e-03
4.8499999999999908e+00 +8.5973515083401040e+00 +0.0000000000000000e+00 +4.8499999421820448e+00 -2.9249426733886225e-02 -5.5085239193775892e-01 +5.5743068907175685e-03
4.8999999999999906e+00 +8.5973380616063597e+00 +0.0000000000000000e+00 +4.8999999403738821e+00 -2.9251069104221476e-02 -5.5088442754447819e-01 +5.5743979180687356e-03
4.9499999999999904e+00 +8.5973244766795300e+00 +0.0000000000000000e+00 +4.9499999385283635e+00 -2.9252725935324769e-02 -5.5091669741667137e-01 +5.5744906193485513e-03
4.9999999999999902e+00 +8.5973107535515201e+00 +0.0000000000000000e+00 +4.9999999366451053e+00 -2.9254396988418675e-02 -5.5094919865969649e-01 +5.5745849619717918e-03
5.0499999999999901e+00 +8.5972968922141764e+00 +0.0000000000000000e+00 +5.0499999347237230e+00 -2.9256082024724444e-02 -5.5098192837891535e-01 +5.5746809133530237e-03
5.0999999999999899e+00 +8.5972828926592904e+00 +0.0000000000000000e+00 +5.0999999327638319e+00 -2.9257780805461899e-02 -5.5101488367969320e-01 +5.5747784409066305e-03
5.1499999999999897e+00 +8.5972687548785931e+00 +0.0000000000000000e+00 +5.1499999307650475e+00 -2.9259493091849421e-02 -5.5104806166739717e-01 +5.5748775120467841e-03
5.1999999999999895e+00 +8.5972544788637624e+00 +0.0000000000000000e+00 +5.1999999287269851e+00 -2.9261218645103847e-02 -5.5108145944739773e-01 +5.5749780941874456e-03
5.2499999999999893e+00 +8.5972400646064209e+00 +0.0000000000000000e+00 +5.2499999266492612e+00 -2.9262957226440515e-02 -5.5111507412506933e-01 +5.5750801547423774e-03
5.2999999999999892e+00 +8.5972255120981345e+00 +0.0000000000000000e+00 +5.2999999245314902e+00 -2.9264708597073100e-02 -5.5114890280578732e-01 +5.5751836611251061e-03
5.3499999999999890e+00 +8.5972108213304193e+00 +0.0000000000000000e+00 +5.3499999223732875e+00 -2.9266472518213647e-02 -5.5118294259493061e-01 +5.5752885807489527e-03
5.3999999999999888e+00 +8.5971959922947345e+00 +0.0000000000000000e+00 +5.3999999201742686e+00 -2.9268248751072496e-02 -5.5121719059788066e-01 +5.5753948810269988e-03
5.4499999999999886e+00 +8.5971810249824916e+00 +0.0000000000000000e+00 +5.4499999179340479e+00 -2.9270037056858208e-02 -5.5125164392002057e-01 +5.5755025293721056e-03
5.4999999999999885e+00 +8.5971659193850449e+00 +0.0000000000000000e+00 +5.4999999156522410e+00 -2.9271837196777555e-02 -5.5128629966673637e-01 +5.5756114931968881e-03
5.5499999999999883e+00 +8.5971506754937028e+00 +0.0000000000000000e+00 +5.5499999133284632e+00 -2.9273648932035410e-02 -5.5132115494341549e-01 +5.5757217399137228e-03
5.5999999999999881e+00 +8.5971352932997220e+00 +0.0000000000000000e+00 +5.5999999109623282e+00 -2.9275472023834771e-02 -5.5135620685544739e-01 +5.5758332369347449e-03
5.6499999999999879e+00 +8.5971197727943078e+00 +0.0000000000000000e+00 +5.6499999085534514e+00 -2.9277306233376682e-02 -5.5139145250822386e-01 +5.5759459516718330e-03
5.6999999999999877e+00 +8.5971041139686211e+00 +0.0000000000000000e+00 +5.6999999061014472e+00 -2.9279151321860136e-02 -5.5142688900713810e-01 +5.5760598515366142e-03
5.7499999999999876e+00 +8.5970883168137711e+00 +0.0000000000000000e+00 +5.7499999036059304e+00 -2.9281007050482085e-02 -5.5146251345758435e-01 +5.5761749039404552e-03
5.7999999999999874e+00 +8.5970723813208227e+00 +0.0000000000000000e+00 +5.7999999010665153e+00 -2.9282873180437364e-02 -5.5149832296495938e-01 +5.5762910762944505e-03
5.8499999999999872e+00 +8.5970563074807913e+00 +0.0000000000000000e+00 +5.8499998984828157e+00 -2.9284749472918654e-02 -5.5153431463466052e-01 +5.5764083360094327e-03
5.8999999999999870e+00 +8.5970400952846493e+00 +0.0000000000000000e+00 +5.8999998958544468e+00 -2.9286635689116412e-02 -5.5157048557208666e-01 +5.5765266504959636e-03
