# field on trajectory
# s[mm] rx[mm] ry[mm] rz[mm] bx[T] by[T] bz[T]
0.0000000000000000e+00 +8.2850000000000001e+00 +0.0000000000000000e+00 +0.0000000000000000e+00 -2.8543207758230361e-02 -5.2550477340987478e-01 +5.3179705841268918e-03
5.0000000000000003e-02 +8.2849999307233499e+00 +0.0000000000000000e+00 +4.9999999999936005e-02 -2.8543197107522608e-02 -5.2550506034761479e-01 +5.3199300986311272e-03
1.0000000000000001e-01 +8.2849997228933319e+00 +0.0000000000000000e+00 +9.9999999999488082e-02 -2.8543204233700686e-02 -5.2550570882422176e-01 +5.3218939119064456e-03
1.5000000000000002e-01 +8.2849993765097736e+00 +0.0000000000000000e+00 +1.4999999999827227e-01 -2.8543229024611753e-02 -5.2550671822071049e-01 +5.3238619304153273e-03
2.0000000000000001e-01 +8.2849988915724104e+00 +0.0000000000000000e+00 +1.9999999999590462e-01 -2.8543271368104115e-02 -5.2550808791811354e-01 +5.3258340606204772e-03
2.5000000000000000e-01 +8.2849982680808818e+00 +0.0000000000000000e+00 +2.4999999999200120e-01 -2.8543331152027184e-02 -5.2550981729748147e-01 +5.3278102089848048e-03
2.9999999999999999e-01 +8.2849975060347312e+00 +0.0000000000000000e+00 +2.9999999998617805e-01 -2.8543408264231449e-02 -5.2551190573988282e-01 +5.3297902819714324e-03
3.4999999999999998e-01 +8.2849966054334079e+00 +0.0000000000000000e+00 +3.4999999997805120e-01 -2.8543502592568448e-02 -5.2551435262640345e-01 +5.3317741860436476e-03
3.9999999999999997e-01 +8.2849955662762671e+00 +0.0000000000000000e+00 +3.9999999996723673e-01 -2.8543614024890741e-02 -5.2551715733814719e-01 +5.3337618276649377e-03
4.4999999999999996e-01 +8.2849943885625699e+00 +0.0000000000000000e+00 +4.4999999995335066e-01 -2.8543742449051890e-02 -5.2552031925623410e-01 +5.3357531132989392e-03
4.9999999999999994e-01 +8.2849930722914813e+00 +0.0000000000000000e+00 +4.9999999993600897e-01 -2.8543887752906456e-02 -5.2552383776180178e-01 +5.3377479494094516e-03
5.4999999999999993e-01 +8.2849916174620741e+00 +0.0000000000000000e+00 +5.4999999991482773e-01 -2.8544049824309907e-02 -5.2552771223600503e-01 +5.3397462424604140e-03
5.9999999999999998e-01 +8.2849900240733270e+00 +0.0000000000000000e+00 +5.9999999988942287e-01 -2.8544228551118662e-02 -5.2553194206001497e-01 +5.3417478989159035e-03
6.5000000000000002e-01 +8.2849882921241242e+00 +0.0000000000000000e+00 +6.4999999985941037e-01 -2.8544423821190042e-02 -5.2553652661501915e-01 +5.3437528252401091e-03
7.0000000000000007e-01 +8.2849864216132580e+00 +0.0000000000000000e+00 +6.9999999982440630e-01 -2.8544635522382213e-02 -5.2554146528222212e-01 +5.3457609278973420e-03
7.5000000000000011e-01 +8.2849844125394245e+00 +0.0000000000000000e+00 +7.4999999978402654e-01 -2.8544863542554217e-02 -5.2554675744284407e-01 +5.3477721133520038e-03
8.0000000000000016e-01 +8.2849822649012310e+00 +0.0000000000000000e+00 +7.9999999973788705e-01 -2.8545107769565904e-02 -5.2555240247812107e-01 +5.3497862880685955e-03
8.5000000000000020e-01 +8.2849799786971872e+00 +0.0000000000000000e+00 +8.4999999968560380e-01 -2.8545368091277910e-02 -5.2555839976930563e-01 +5.3518033585116835e-03
9.0000000000000024e-01 +8.2849775539257120e+00 +0.0000000000000000e+00 +8.9999999962679267e-01 -2.8545644395551656e-02 -5.2556474869766523e-01 +5.3538232311459077e-03
9.5000000000000029e-01 +8.2849749905851322e+00 +0.0000000000000000e+00 +9.4999999956106951e-01 -2.8545936570249276e-02 -5.2557144864448391e-01 +5.3558458124359594e-03
1.0000000000000002e+00 +8.2849722886736821e+00 +0.0000000000000000e+00 +9.9999999948805018e-01 -2.8546244503233679e-02 -5.2557849899105957e-01 +5.3578710088465842e-03
1.0500000000000003e+00 +8.2849694481895018e+00 +0.0000000000000000e+00 +1.0499999994073508e+00 -2.8546568082368405e-02 -5.2558589911870657e-01 +5.3598987268425506e-03
1.1000000000000003e+00 +8.2849664691306408e+00 +0.0000000000000000e+00 +1.0999999993185869e+00 -2.8546907195517682e-02 -5.2559364840875367e-01 +5.3619288728886548e-03
1.1500000000000004e+00 +8.2849633514950547e+00 +0.0000000000000000e+00 +1.1499999992213743e+00 -2.8547261730546392e-02 -5.2560174624254452e-01 +5.3639613534497074e-03
1.2000000000000004e+00 +8.2849600952806099e+00 +0.0000000000000000e+00 +1.1999999991153290e+00 -2.8547631575320004e-02 -5.2561019200143755e-01 +5.3659960749905099e-03
1.2500000000000004e+00 +8.2849567004850790e+00 +0.0000000000000000e+00 +1.2499999990000665e+00 -2.8548016617704598e-02 -5.2561898506680560e-01 +5.3680329439758671e-03
1.3000000000000005e+00 +8.2849531671061438e+00 +0.0000000000000000e+00 +1.2999999988752029e+00 -2.8548416745566820e-02 -5.2562812482003562e-01 +5.3700718668705490e-03
1.3500000000000005e+00 +8.2849494951413938e+00 +0.0000000000000000e+00 +1.3499999987403537e+00 -2.8548831846773828e-02 -5.2563761064252890e-01 +5.3721127501393040e-03
1.4000000000000006e+00 +8.2849456845883296e+00 +0.0000000000000000e+00 +1.3999999985951346e+00 -2.8549261809193295e-02 -5.2564744191570067e-01 +5.3741555002468303e-03
1.4500000000000006e+00 +8.2849417354443577e+00 +0.0000000000000000e+00 +1.4499999984391612e+00 -2.8549706520693413e-02 -5.2565761802097999e-01 +5.3762000236577765e-03
1.5000000000000007e+00 +8.2849376477067960e+00 +0.0000000000000000e+00 +1.4999999982720491e+00 -2.8550165869142791e-02 -5.2566813833980930e-01 +5.3782462268367245e-03
1.5500000000000007e+00 +8.2849334213728714e+00 +0.0000000000000000e+00 +1.5499999980934140e+00 -2.8550639742410497e-02 -5.2567900225364483e-01 +5.3802940162481720e-03
1.6000000000000008e+00 +8.2849290564397187e+00 +0.0000000000000000e+00 +1.5999999979028716e+00 -2.8551128028365996e-02 -5.2569020914395581e-01 +5.3823432983565447e-03
1.6500000000000008e+00 +8.2849245529043820e+00 +0.0000000000000000e+00 +1.6499999977000372e+00 -2.8551630614879142e-02 -5.2570175839222510e-01 +5.3843939796261609e-03
1.7000000000000008e+00 +8.2849199107638185e+00 +0.0000000000000000e+00 +1.6999999974845266e+00 -2.8552147389820141e-02 -5.2571364937994769e-01 +5.3864459665212260e-03
1.7500000000000009e+00 +8.2849151300148911e+00 +0.0000000000000000e+00 +1.7499999972559550e+00 -2.8552678241059531e-02 -5.2572588148863164e-01 +5.3884991655058318e-03
1.8000000000000009e+00 +8.2849102106543757e+00 +0.0000000000000000e+00 +1.7999999970139380e+00 -2.8553223056468166e-02 -5.2573845409979814e-01 +5.3905534830439401e-03
1.8500000000000010e+00 +8.2849051526789577e+00 +0.0000000000000000e+00 +1.8499999967580909e+00 -2.8553781723917138e-02 -5.2575136659497967e-01 +5.3926088255993607e-03
1.9000000000000010e+00 +8.2848999560852334e+00 +0.0000000000000000e+00 +1.8999999964880290e+00 -2.8554354131277857e-02 -5.2576461835572219e-01 +5.3946650996357587e-03
1.9500000000000011e+00 +8.2848946208697072e+00 +0.0000000000000000e+00 +1.9499999962033676e+00 -2.8554940166421912e-02 -5.2577820876358328e-01 +5.3967222116166362e-03
2.0000000000000009e+00 +8.2848891470287978e+00 +0.0000000000000000e+00 +1.9999999959037222e+00 -2.8555539717221110e-02 -5.2579213720013185e-01 +5.3987800680053103e-03
2.0500000000000007e+00 +8.2848835345588316e+00 +0.0000000000000000e+00 +2.0499999955887080e+00 -2.8556152677439391e-02 -5.2580640279872370e-01 +5.4008385734682840e-03
2.1000000000000005e+00 +8.2848777834560483e+00 +0.0000000000000000e+00 +2.0999999952579400e+00 -2.8556778964408714e-02 -5.2582100369982243e-01 +5.4028976254853547e-03
2.1500000000000004e+00 +8.2848718937165966e+00 +0.0000000000000000e+00 +2.1499999949110338e+00 -2.8557418501353203e-02 -5.2583593779567750e-01 +5.4049571197396142e-03
2.2000000000000002e+00 +8.2848658653365419e+00 +0.0000000000000000e+00 +2.1999999945476043e+00 -2.8558071211497175e-02 -5.2585120297854959e-01 +5.4070169519140872e-03
2.2500000000000000e+00 +8.2848596983118572e+00 +0.0000000000000000e+00 +2.2499999941672661e+00 -2.8558737018065088e-02 -5.2586679714071050e-01 +5.4090770176917387e-03
2.2999999999999998e+00 +8.2848533926384320e+00 +0.0000000000000000e+00 +2.2999999937696352e+00 -2.8559415844281566e-02 -5.2588271817444243e-01 +5.4111372127554581e-03
2.3499999999999996e+00 +8.2848469483120688e+00 +0.0000000000000000e+00 +2.3499999933543259e+00 -2.8560107613371338e-02 -5.2589896397203906e-01 +5.4131974327880743e-03
2.3999999999999995e+00 +8.2848403653284830e+00 +0.0000000000000000e+00 +2.3999999929209532e+00 -2.8560812248559234e-02 -5.2591553242580402e-01 +5.4152575734723396e-03
2.4499999999999993e+00 +8.2848336436833083e+00 +0.0000000000000000e+00 +2.4499999924691322e+00 -2.8561529673070175e-02 -5.2593242142805152e-01 +5.4173175304909294e-03
2.4999999999999991e+00 +8.2848267833720914e+00 +0.0000000000000000e+00 +2.4999999919984774e+00 -2.8562259810129113e-02 -5.2594962887110608e-01 +5.4193771995264461e-03
2.5499999999999989e+00 +8.2848197843902938e+00 +0.0000000000000000e+00 +2.5499999915086038e+00 -2.8563002582961069e-02 -5.2596715264730187e-01 +5.4214364762614131e-03
2.5999999999999988e+00 +8.2848126467332968e+00 +0.0000000000000000e+00 +2.5999999909991263e+00 -2.8563757914791051e-02 -5.2598499064898330e-01 +5.4234952563782697e-03
2.6499999999999986e+00 +8.2848053703963984e+00 +0.0000000000000000e+00 +2.6499999904696594e+00 -2.8564525728844086e-02 -5.2600314076850452e-01 +5.4255534355593712e-03
2.6999999999999984e+00 +8.2847979553748115e+00 +0.0000000000000000e+00 +2.6999999899198177e+00 -2.8565305948345159e-02 -5.2602160089822902e-01 +5.4276109094869938e-03
2.7499999999999982e+00 +8.2847904016636686e+00 +0.0000000000000000e+00 +2.7499999893492162e+00 -2.8566098496519202e-02 -5.2604036893052930e-01 +5.4296675738433183e-03
2.7999999999999980e+00 +8.2847827092580228e+00 +0.0000000000000000e+00 +2.7999999887574689e+00 -2.8566903296591090e-02 -5.2605944275778738e-01 +5.4317233243104347e-03
2.8499999999999979e+00 +8.2847748781528452e+00 +0.0000000000000000e+00 +2.8499999881441909e+00 -2.8567720271785599e-02 -5.2607882027239417e-01 +5.4337780565703398e-03
2.8999999999999977e+00 +8.2847669083430269e+00 +0.0000000000000000e+00 +2.8999999875089961e+00 -2.8568549345327390e-02 -5.2609849936674968e-01 +5.4358316663049421e-03
2.9499999999999975e+00 +8.2847587998233791e+00 +0.0000000000000000e+00 +2.9499999868514992e+00 -2.8569390440441007e-02 -5.2611847793326227e-01 +5.4378840491960418e-03
2.9999999999999973e+00 +8.2847505525886351e+00 +0.0000000000000000e+00 +2.9999999861713142e+00 -2.8570243480350827e-02 -5.2613875386434861e-01 +5.4399351009253452e-03
3.0499999999999972e+00 +8.2847421666334480e+00 +0.0000000000000000e+00 +3.0499999854680557e+00 -2.8571108388281054e-02 -5.2615932505243401e-01 +5.4419847171744582e-03
3.0999999999999970e+00 +8.2847336419523945e+00 +0.0000000000000000e+00 +3.0999999847413378e+00 -2.8571985087455679e-02 -5.2618018938995159e-01 +5.4440327936248756e-03
3.1499999999999968e+00 +8.2847249785399750e+00 +0.0000000000000000e+00 +3.1499999839907744e+00 -2.8572873501098519e-02 -5.2620134476934277e-01 +5.4460792259579879e-03
3.1999999999999966e+00 +8.2847161763906101e+00 +0.0000000000000000e+00 +3.1999999832159802e+00 -2.8573773552433103e-02 -5.2622278908305653e-01 +5.4481239098550750e-03
3.2499999999999964e+00 +8.2847072354986473e+00 +0.0000000000000000e+00 +3.2499999824165688e+00 -2.8574685164682721e-02 -5.2624452022354962e-01 +5.4501667409973071e-03
3.2999999999999963e+00 +8.2846981558583561e+00 +0.0000000000000000e+00 +3.2999999815921539e+00 -2.8575608261070390e-02 -5.2626653608328577e-01 +5.4522076150657385e-03
3.3499999999999961e+00 +8.2846889374639314e+00 +0.0000000000000000e+00 +3.3499999807423499e+00 -2.8576542764818812e-02 -5.2628883455473685e-01 +5.4542464277413097e-03
3.3999999999999959e+00 +8.2846795803094953e+00 +0.0000000000000000e+00 +3.3999999798667706e+00 -2.8577488599150377e-02 -5.2631141353038058e-01 +5.4562830747048379e-03
3.4499999999999957e+00 +8.2846700843890950e+00 +0.0000000000000000e+00 +3.4499999789650295e+00 -2.8578445687287107e-02 -5.2633427090270257e-01 +5.4583174516370210e-03
3.4999999999999956e+00 +8.2846604496967036e+00 +0.0000000000000000e+00 +3.4999999780367403e+00 -2.8579413952450672e-02 -5.2635740456419533e-01 +5.4603494542184335e-03
3.5499999999999954e+00 +8.2846506762262209e+00 +0.0000000000000000e+00 +3.5499999770815172e+00 -2.8580393317862374e-02 -5.2638081240735668e-01 +5.4623789781295231e-03
3.5999999999999952e+00 +8.2846407639714776e+00 +0.0000000000000000e+00 +3.5999999760989732e+00 -2.8581383706743072e-02 -5.2640449232469244e-01 +5.4644059190506094e-03
3.6499999999999950e+00 +8.2846307129262282e+00 +0.0000000000000000e+00 +3.6499999750887220e+00 -2.8582385042313203e-02 -5.2642844220871321e-01 +5.4664301726618835e-03
3.6999999999999948e+00 +8.2846205230841594e+00 +0.0000000000000000e+00 +3.6999999740503773e+00 -2.8583397247792779e-02 -5.2645265995193669e-01 +5.4684516346433978e-03
3.7499999999999947e+00 +8.2846101944388870e+00 +0.0000000000000000e+00 +3.7499999729835523e+00 -2.8584420246401305e-02 -5.2647714344688568e-01 +5.4704702006750736e-03
3.7999999999999945e+00 +8.2845997269839540e+00 +0.0000000000000000e+00 +3.7999999718878601e+00 -2.8585453961357806e-02 -5.2650189058608943e-01 +5.4724857664366963e-03
3.8499999999999943e+00 +8.2845891207128375e+00 +0.0000000000000000e+00 +3.8499999707629140e+00 -2.8586498315880813e-02 -5.2652689926208252e-01 +5.4744982276079025e-03
3.8999999999999941e+00 +8.2845783756189419e+00 +0.0000000000000000e+00 +3.8999999696083276e+00 -2.8587553233188283e-02 -5.2655216736740418e-01 +5.4765074798682001e-03
3.9499999999999940e+00 +8.2845674916956060e+00 +0.0000000000000000e+00 +3.9499999684237137e+00 -2.8588618636497629e-02 -5.2657769279459943e-01 +5.4785134188969388e-03
3.9999999999999938e+00 +8.2845564689361009e+00 +0.0000000000000000e+00 +3.9999999672086854e+00 -2.8589694449025697e-02 -5.2660347343621861e-01 +5.4805159403733261e-03
4.0499999999999936e+00 +8.2845453073336284e+00 +0.0000000000000000e+00 +4.0499999659628561e+00 -2.8590780580836472e-02 -5.2662950708122880e-01 +5.4825149397313084e-03
4.0999999999999934e+00 +8.2845340068813265e+00 +0.0000000000000000e+00 +4.0999999646858374e+00 -2.8591876889384579e-02 -5.2665579110424909e-01 +5.4845103114241345e-03
4.1499999999999932e+00 +8.2845225675722638e+00 +0.0000000000000000e+00 +4.1499999633772431e+00 -2.8592983218972766e-02 -5.2668232277631344e-01 +5.4865019496595528e-03
4.1999999999999931e+00 +8.2845109893994451e+00 +0.0000000000000000e+00 +4.1999999620366859e+00 -2.8594099413904336e-02 -5.2670909936845689e-01 +5.4884897486448701e-03
4.2499999999999929e+00 +8.2844992723558111e+00 +0.0000000000000000e+00 +4.2499999606637786e+00 -2.8595225318483082e-02 -5.2673611815171606e-01 +5.4904736025869509e-03
4.2999999999999927e+00 +8.2844874164342386e+00 +0.0000000000000000e+00 +4.2999999592581339e+00 -2.8596360777013406e-02 -5.2676337639712845e-01 +5.4924534056922138e-03
4.3499999999999925e+00 +8.2844754216275405e+00 +0.0000000000000000e+00 +4.3499999578193638e+00 -2.8597505633800278e-02 -5.2679087137573322e-01 +5.4944290521666160e-03
4.3999999999999924e+00 +8.2844632879284674e+00 +0.0000000000000000e+00 +4.3999999563470809e+00 -2.8598659733149227e-02 -5.2681860035856876e-01 +5.4964004362156333e-03
4.4499999999999922e+00 +8.2844510153297080e+00 +0.0000000000000000e+00 +4.4499999548408979e+00 -2.8599822919366431e-02 -5.2684656061667545e-01 +5.4983674520442715e-03
4.4999999999999920e+00 +8.2844386038238920e+00 +0.0000000000000000e+00 +4.4999999533004269e+00 -2.8600995036758614e-02 -5.2687474942109291e-01 +5.5003299938570305e-03
4.5499999999999918e+00 +8.2844260534035854e+00 +0.0000000000000000e+00 +4.5499999517252805e+00 -2.8602175929633201e-02 -5.2690316404286064e-01 +5.5022879558579135e-03
4.5999999999999917e+00 +8.2844133640612991e+00 +0.0000000000000000e+00 +4.5999999501150706e+00 -2.8603365442298218e-02 -5.2693180175301779e-01 +5.5042412322504055e-03
4.6499999999999915e+00 +8.2844005357894801e+00 +0.0000000000000000e+00 +4.6499999484694090e+00 -2.8604563419062378e-02 -5.2696065982260332e-01 +5.5061897172374715e-03
4.6999999999999913e+00 +8.2843875685805219e+00 +0.0000000000000000e+00 +4.6999999467879077e+00 -2.8605769704235038e-02 -5.2698973552265482e-01 +5.5081333050215342e-03
4.7499999999999911e+00 +8.2843744624267579e+00 +0.0000000000000000e+00 +4.7499999450701793e+00 -2.8606984142126233e-02 -5.2701902612420914e-01 +5.5100718898044750e-03
4.7999999999999909e+00 +8.2843612173204662e+00 +0.0000000000000000e+00 +4.7999999433158349e+00 -2.8608206577046748e-02 -5.2704852889830123e-01 +5.5120053657876193e-03
4.8499999999999908e+00 +8.2843478332538680e+00 +0.0000000000000000e+00 +4.8499999415244863e+00 -2.8609436853308037e-02 -5.2707824111596513e-01 +5.5139336271717229e-03
4.8999999999999906e+00 +8.2843343102191280e+00 +0.0000000000000000e+00 +4.8999999396957454e+00 -2.8610674815222295e-02 -5.2710816004823213e-01 +5.5158565681569646e-03
4.9499999999999904e+00 +8.2843206482083609e+00 +0.0000000000000000e+00 +4.9499999378292241e+00 -2.8611920307102454e-02 -5.2713828296613219e-01 +5.5177740829429403e-03
4.9999999999999902e+00 +8.2843068472136228e+00 +0.0000000000000000e+00 +4.9999999359245333e+00 -2.8613173173262212e-02 -5.2716860714069214e-01 +5.5196860657286398e-03
5.0499999999999901e+00 +8.2842929072269182e+00 +0.0000000000000000e+00 +5.0499999339812849e+00 -2.8614433258016048e-02 -5.2719912984293671e-01 +5.5215924107124515e-03
5.0999999999999899e+00 +8.2842788282402022e+00 +0.0000000000000000e+00 +5.0999999319990899e+00 -2.8615700405679165e-02 -5.2722984834388764e-01 +5.5234930120921424e-03
5.1499999999999897e+00 +8.2842646102453728e+00 +0.0000000000000000e+00 +5.1499999299775601e+00 -2.8616974460567643e-02 -5.2726075991456334e-01 +5.5253877640648466e-03
5.1999999999999895e+00 +8.2842502532342817e+00 +0.0000000000000000e+00 +5.1999999279163065e+00 -2.8618255266998321e-02 -5.2729186182597865e-01 +5.5272765608270595e-03
5.2499999999999893e+00 +8.2842357571987293e+00 +0.0000000000000000e+00 +5.2499999258149401e+00 -2.8619542669288900e-02 -5.2732315134914542e-01 +5.5291592965746317e-03
5.2999999999999892e+00 +8.2842211221304662e+00 +0.0000000000000000e+00 +5.2999999236730719e+00 -2.8620836511757872e-02 -5.2735462575507075e-01 +5.5310358655027451e-03
5.3499999999999890e+00 +8.2842063480211934e+00 +0.0000000000000000e+00 +5.3499999214903129e+00 -2.8622136638724632e-02 -5.2738628231475815e-01 +5.5329061618059113e-03
5.3999999999999888e+00 +8.2841914348625636e+00 +0.0000000000000000e+00 +5.3999999192662740e+00 -2.8623442894509427e-02 -5.2741811829920660e-01 +5.5347700796779661e-03
5.4499999999999886e+00 +8.2841763826461836e+00 +0.0000000000000000e+00 +5.4499999170005653e+00 -2.8624755123433366e-02 -5.2745013097940996e-01 +5.5366275133120436e-03
5.4999999999999885e+00 +8.2841611913636140e+00 +0.0000000000000000e+00 +5.4999999146927987e+00 -2.8626073169818477e-02 -5.2748231762635789e-01 +5.5384783569005823e-03
5.5499999999999883e+00 +8.2841458610063690e+00 +0.0000000000000000e+00 +5.5499999123425843e+00 -2.8627396877987713e-02 -5.2751467551103459e-01 +5.5403225046353043e-03
5.5999999999999881e+00 +8.2841303915659168e+00 +0.0000000000000000e+00 +5.5999999099495321e+00 -2.8628726092264897e-02 -5.2754720190441806e-01 +5.5421598507072092e-03
5.6499999999999879e+00 +8.2841147830336812e+00 +0.0000000000000000e+00 +5.6499999075132532e+00 -2.8630060656974855e-02 -5.2757989407748207e-01 +5.5439902893065574e-03
5.6999999999999877e+00 +8.2840990354010433e+00 +0.0000000000000000e+00 +5.6999999050333576e+00 -2.8631400416443322e-02 -5.2761274930119340e-01 +5.5458137146228697e-03
5.7499999999999876e+00 +8.2840831486593416e+00 +0.0000000000000000e+00 +5.7499999025094555e+00 -2.8632745214997004e-02 -5.2764576484651271e-01 +5.5476300208449130e-03
5.7999999999999874e+00 +8.2840671227998701e+00 +0.0000000000000000e+00 +5.7999998999411577e+00 -2.8634094896963617e-02 -5.2767893798439436e-01 +5.5494391021606764e-03
5.8499999999999872e+00 +8.2840509578138839e+00 +0.0000000000000000e+00 +5.8499998973280736e+00 -2.8635449306671838e-02 -5.2771226598578636e-01 +5.5512408527573906e-03
5.8999999999999870e+00 +8.2840346536925953e+00 +0.0000000000000000e+00 +5.8999998946698140e+00 -2.8636808288451370e-02 -5.2774574612162950e-01 +5.5530351668214815e-03
