# field on trajectory
# s[mm] rx[mm] ry[mm] rz[mm] bx[T] by[T] bz[T]
0.0000000000000000e+00 +8.5389999999999997e+00 +0.0000000000000000e+00 +0.0000000000000000e+00 -2.8381825047195098e-02 -5.5275547223634081e-01 +5.6641857127482246e-03
5.0000000000000003e-02 +8.5389999310298101e+00 +0.0000000000000000e+00 +4.9999999999936574e-02 -2.8381698671291658e-02 -5.5275499132409489e-01 +5.6635042484596745e-03
1.0000000000000001e-01 +8.5389997241193072e+00 +0.0000000000000000e+00 +9.9999999999492606e-02 -2.8381591770617588e-02 -5.5275488815957197e-01 +5.6628236065388114e-03
1.5000000000000002e-01 +8.5389993792685175e+00 +0.0000000000000000e+00 +1.4999999999828753e-01 -2.8381504346324849e-02 -5.5275516212185594e-01 +5.6621438184590363e-03
2.0000000000000001e-01 +8.5389988964773718e+00 +0.0000000000000000e+00 +1.9999999999594081e-01 -2.8381436399566824e-02 -5.5275581259004836e-01 +5.6614649156936769e-03
2.5000000000000000e-01 +8.5389982757457066e+00 +0.0000000000000000e+00 +2.4999999999207187e-01 -2.8381387931498255e-02 -5.5275683894326988e-01 +5.6607869297159892e-03
2.9999999999999999e-01 +8.5389975170732679e+00 +0.0000000000000000e+00 +2.9999999998630017e-01 -2.8381358943275245e-02 -5.5275824056065814e-01 +5.6601098919991663e-03
3.4999999999999998e-01 +8.5389966204597041e+00 +0.0000000000000000e+00 +3.4999999997824516e-01 -2.8381349436055209e-02 -5.5276001682136910e-01 +5.6594338340163466e-03
3.9999999999999997e-01 +8.5389955859045727e+00 +0.0000000000000000e+00 +3.9999999996752628e-01 -2.8381359410996832e-02 -5.5276216710457626e-01 +5.6587587872406215e-03
4.4999999999999996e-01 +8.5389944134073374e+00 +0.0000000000000000e+00 +4.4999999995376294e-01 -2.8381388869260091e-02 -5.5276469078947055e-01 +5.6580847831450539e-03
4.9999999999999994e-01 +8.5389931029673676e+00 +0.0000000000000000e+00 +4.9999999993657457e-01 -2.8381437812006177e-02 -5.5276758725526076e-01 +5.6574118532026719e-03
5.4999999999999993e-01 +8.5389916545839419e+00 +0.0000000000000000e+00 +5.4999999991558057e-01 -2.8381506240397487e-02 -5.5277085588117281e-01 +5.6567400288864847e-03
5.9999999999999998e-01 +8.5389900682562434e+00 +0.0000000000000000e+00 +5.9999999989040032e-01 -2.8381594155597628e-02 -5.5277449604645057e-01 +5.6560693416694988e-03
6.5000000000000002e-01 +8.5389883439833643e+00 +0.0000000000000000e+00 +6.4999999986065327e-01 -2.8381701558771275e-02 -5.5277850713035370e-01 +5.6553998230247015e-03
7.0000000000000007e-01 +8.5389864817643044e+00 +0.0000000000000000e+00 +6.9999999982595884e-01 -2.8381828451084307e-02 -5.5278288851216018e-01 +5.6547315044251012e-03
7.5000000000000011e-01 +8.5389844815979679e+00 +0.0000000000000000e+00 +7.4999999978593634e-01 -2.8381974833703652e-02 -5.5278763957116506e-01 +5.6540644173437207e-03
8.0000000000000016e-01 +8.5389823434831715e+00 +0.0000000000000000e+00 +7.9999999974020519e-01 -2.8382140707797304e-02 -5.5279275968667907e-01 +5.6533985932535960e-03
8.5000000000000020e-01 +8.5389800674186365e+00 +0.0000000000000000e+00 +8.4999999968838469e-01 -2.8382326074534309e-02 -5.5279824823803081e-01 +5.6527340636278031e-03
9.0000000000000024e-01 +8.5389776534029931e+00 +0.0000000000000000e+00 +8.9999999963009414e-01 -2.8382530935084707e-02 -5.5280410460456508e-01 +5.6520708599394568e-03
9.5000000000000029e-01 +8.5389751014347812e+00 +0.0000000000000000e+00 +9.4999999956495285e-01 -2.8382755290619507e-02 -5.5281032816564324e-01 +5.6514090136617189e-03
1.0000000000000002e+00 +8.5389724115124466e+00 +0.0000000000000000e+00 +9.9999999949258012e-01 -2.8382999142310721e-02 -5.5281691830064361e-01 +5.6507485562678102e-03
1.0500000000000003e+00 +8.5389695836343442e+00 +0.0000000000000000e+00 +1.0499999994125953e+00 -2.8383262491331190e-02 -5.5282387438895986e-01 +5.6500895192310181e-03
1.1000000000000003e+00 +8.5389666177987404e+00 +0.0000000000000000e+00 +1.0999999993246177e+00 -2.8383545338854753e-02 -5.5283119581000295e-01 +5.6494319340247047e-03
1.1500000000000004e+00 +8.5389635140038056e+00 +0.0000000000000000e+00 +1.1499999992282663e+00 -2.8383847686056039e-02 -5.5283888194319897e-01 +5.6487758321223120e-03
1.2000000000000004e+00 +8.5389602722476230e+00 +0.0000000000000000e+00 +1.1999999991231607e+00 -2.8384169534110566e-02 -5.5284693216799141e-01 +5.6481212449973790e-03
1.2500000000000004e+00 +8.5389568925281836e+00 +0.0000000000000000e+00 +1.2499999990089199e+00 -2.8384510884194608e-02 -5.5285534586383822e-01 +5.6474682041235394e-03
1.3000000000000005e+00 +8.5389533748433877e+00 +0.0000000000000000e+00 +1.2999999988851629e+00 -2.8384871737485263e-02 -5.5286412241021377e-01 +5.6468167409745376e-03
1.3500000000000005e+00 +8.5389497191910451e+00 +0.0000000000000000e+00 +1.3499999987515092e+00 -2.8385252095160369e-02 -5.5287326118660840e-01 +5.6461668870242347e-03
1.4000000000000006e+00 +8.5389459255688767e+00 +0.0000000000000000e+00 +1.3999999986075777e+00 -2.8385651958398497e-02 -5.5288276157252803e-01 +5.6455186737466249e-03
1.4500000000000006e+00 +8.5389419939745093e+00 +0.0000000000000000e+00 +1.4499999984529874e+00 -2.8386071328378924e-02 -5.5289262294749353e-01 +5.6448721326158259e-03
1.5000000000000007e+00 +8.5389379244054826e+00 +0.0000000000000000e+00 +1.4999999982873577e+00 -2.8386510206281555e-02 -5.5290284469104212e-01 +5.6442272951061027e-03
1.5500000000000007e+00 +8.5389337168592476e+00 +0.0000000000000000e+00 +1.5499999981103074e+00 -2.8386968593286963e-02 -5.5291342618272510e-01 +5.6435841926918712e-03
1.6000000000000008e+00 +8.5389293713331629e+00 +0.0000000000000000e+00 +1.5999999979214556e+00 -2.8387446490576347e-02 -5.5292436680210988e-01 +5.6429428568477123e-03
1.6500000000000008e+00 +8.5389248878244963e+00 +0.0000000000000000e+00 +1.6499999977204214e+00 -2.8387943899331459e-02 -5.5293566592877896e-01 +5.6423033190483680e-03
1.7000000000000008e+00 +8.5389202663304307e+00 +0.0000000000000000e+00 +1.6999999975068234e+00 -2.8388460820734630e-02 -5.5294732294232918e-01 +5.6416656107687608e-03
1.7500000000000009e+00 +8.5389155068480562e+00 +0.0000000000000000e+00 +1.7499999972802809e+00 -2.8388997255968721e-02 -5.5295933722237278e-01 +5.6410297634839988e-03
1.8000000000000009e+00 +8.5389106093743745e+00 +0.0000000000000000e+00 +1.7999999970404126e+00 -2.8389553206217080e-02 -5.5297170814853680e-01 +5.6403958086693861e-03
1.8500000000000010e+00 +8.5389055739062982e+00 +0.0000000000000000e+00 +1.8499999967868372e+00 -2.8390128672663533e-02 -5.5298443510046247e-01 +5.6397637778004290e-03
1.9000000000000010e+00 +8.5389004004406512e+00 +0.0000000000000000e+00 +1.8999999965191738e+00 -2.8390723656492322e-02 -5.5299751745780645e-01 +5.6391337023528358e-03
1.9500000000000011e+00 +8.5388950889741704e+00 +0.0000000000000000e+00 +1.9499999962370411e+00 -2.8391338158888179e-02 -5.5301095460023852e-01 +5.6385056138025498e-03
2.0000000000000009e+00 +8.5388896395035019e+00 +0.0000000000000000e+00 +1.9999999959400578e+00 -2.8391972181036132e-02 -5.5302474590744422e-01 +5.6378795436257340e-03
2.0500000000000007e+00 +8.5388840520252032e+00 +0.0000000000000000e+00 +2.0499999956278430e+00 -2.8392625714973137e-02 -5.5303889052384780e-01 +5.6372555221770558e-03
2.1000000000000005e+00 +8.5388783265357446e+00 +0.0000000000000000e+00 +2.0999999953000148e+00 -2.8393298716142695e-02 -5.5305338665278658e-01 +5.6366335753244411e-03
2.1500000000000004e+00 +8.5388724630315096e+00 +0.0000000000000000e+00 +2.1499999949561923e+00 -2.8393991130840388e-02 -5.5306823226233581e-01 +5.6360137278141705e-03
2.2000000000000002e+00 +8.5388664615087926e+00 +0.0000000000000000e+00 +2.1999999945959936e+00 -2.8394702905362536e-02 -5.5308342532058274e-01 +5.6353960043926008e-03
2.2500000000000000e+00 +8.5388603219638028e+00 +0.0000000000000000e+00 +2.2499999942190376e+00 -2.8395433986006094e-02 -5.5309896379562762e-01 +5.6347804298061644e-03
2.2999999999999998e+00 +8.5388540443926644e+00 +0.0000000000000000e+00 +2.2999999938249429e+00 -2.8396184319068658e-02 -5.5311484565558189e-01 +5.6341670288013648e-03
2.3499999999999996e+00 +8.5388476287914123e+00 +0.0000000000000000e+00 +2.3499999934133275e+00 -2.8396953850848467e-02 -5.5313106886856866e-01 +5.6335558261247729e-03
2.3999999999999995e+00 +8.5388410751559984e+00 +0.0000000000000000e+00 +2.3999999929838105e+00 -2.8397742527644418e-02 -5.5314763140272327e-01 +5.6329468465230320e-03
2.4499999999999993e+00 +8.5388343834822891e+00 +0.0000000000000000e+00 +2.4499999925360099e+00 -2.8398550295756029e-02 -5.5316453122619202e-01 +5.6323401147428511e-03
2.4999999999999991e+00 +8.5388275537660672e+00 +0.0000000000000000e+00 +2.4999999920695437e+00 -2.8399377101483426e-02 -5.5318176630713223e-01 +5.6317356555309938e-03
2.5499999999999989e+00 +8.5388205860030322e+00 +0.0000000000000000e+00 +2.5499999915840306e+00 -2.8400222891127379e-02 -5.5319933461371240e-01 +5.6311334936342992e-03
2.5999999999999988e+00 +8.5388134801888000e+00 +0.0000000000000000e+00 +2.5999999910790885e+00 -2.8401087610989258e-02 -5.5321723411411172e-01 +5.6305336537996638e-03
2.6499999999999986e+00 +8.5388062363189032e+00 +0.0000000000000000e+00 +2.6499999905543361e+00 -2.8401971207371066e-02 -5.5323546277652014e-01 +5.6299361607740376e-03
2.6999999999999984e+00 +8.5387988543887943e+00 +0.0000000000000000e+00 +2.6999999900093914e+00 -2.8402873626575318e-02 -5.5325401856913792e-01 +5.6293410393044273e-03
2.7499999999999982e+00 +8.5387913343938422e+00 +0.0000000000000000e+00 +2.7499999894438725e+00 -2.8403794814905226e-02 -5.5327289946017522e-01 +5.6287483141379017e-03
2.7999999999999980e+00 +8.5387836763293343e+00 +0.0000000000000000e+00 +2.7999999888573970e+00 -2.8404734718664535e-02 -5.5329210341785284e-01 +5.6281580100215793e-03
2.8499999999999979e+00 +8.5387758801904798e+00 +0.0000000000000000e+00 +2.8499999882495834e+00 -2.8405693284157568e-02 -5.5331162841040027e-01 +5.6275701517026263e-03
2.8999999999999977e+00 +8.5387679459724044e+00 +0.0000000000000000e+00 +2.8999999876200495e+00 -2.8406670457689225e-02 -5.5333147240605851e-01 +5.6269847639282625e-03
2.9499999999999975e+00 +8.5387598736701573e+00 +0.0000000000000000e+00 +2.9499999869684128e+00 -2.8407666185564985e-02 -5.5335163337307558e-01 +5.6264018714457537e-03
2.9999999999999973e+00 +8.5387516632787079e+00 +0.0000000000000000e+00 +2.9999999862942914e+00 -2.8408680414090861e-02 -5.5337210927971070e-01 +5.6258214990024110e-03
3.0499999999999972e+00 +8.5387433147929457e+00 +0.0000000000000000e+00 +3.0499999855973035e+00 -2.8409713089573425e-02 -5.5339289809423131e-01 +5.6252436713455862e-03
3.0999999999999970e+00 +8.5387348282076836e+00 +0.0000000000000000e+00 +3.0999999848770661e+00 -2.8410764158319817e-02 -5.5341399778491329e-01 +5.6246684132226828e-03
3.1499999999999968e+00 +8.5387262035176565e+00 +0.0000000000000000e+00 +3.1499999841331974e+00 -2.8411833566637686e-02 -5.5343540632004196e-01 +5.6240957493811335e-03
3.1999999999999966e+00 +8.5387174407175213e+00 +0.0000000000000000e+00 +3.1999999833653150e+00 -2.8412921260835226e-02 -5.5345712166791039e-01 +5.6235257045684113e-03
3.2499999999999964e+00 +8.5387085398018581e+00 +0.0000000000000000e+00 +3.2499999825730361e+00 -2.8414027187221146e-02 -5.5347914179682012e-01 +5.6229583035320328e-03
3.2999999999999963e+00 +8.5386995007651745e+00 +0.0000000000000000e+00 +3.2999999817559784e+00 -2.8415151292104708e-02 -5.5350146467508121e-01 +5.6223935710195379e-03
3.3499999999999961e+00 +8.5386903236018981e+00 +0.0000000000000000e+00 +3.3499999809137591e+00 -2.8416293521795647e-02 -5.5352408827101107e-01 +5.6218315317785109e-03
3.3999999999999959e+00 +8.5386810083063835e+00 +0.0000000000000000e+00 +3.3999999800459957e+00 -2.8417453822604213e-02 -5.5354701055293420e-01 +5.6212722105565566e-03
3.4499999999999957e+00 +8.5386715548729111e+00 +0.0000000000000000e+00 +3.4499999791523059e+00 -2.8418632140841161e-02 -5.5357022948918422e-01 +5.6207156321013115e-03
3.4999999999999956e+00 +8.5386619632956862e+00 +0.0000000000000000e+00 +3.4999999782323066e+00 -2.8419828422817747e-02 -5.5359374304810005e-01 +5.6201618211604437e-03
3.5499999999999954e+00 +8.5386522335688397e+00 +0.0000000000000000e+00 +3.5499999772856148e+00 -2.8421042614845685e-02 -5.5361754919802941e-01 +5.6196108024816399e-03
3.5999999999999952e+00 +8.5386423656864334e+00 +0.0000000000000000e+00 +3.5999999763118478e+00 -2.8422274663237199e-02 -5.5364164590732567e-01 +5.6190626008126151e-03
3.6499999999999950e+00 +8.5386323596424525e+00 +0.0000000000000000e+00 +3.6499999753106227e+00 -2.8423524514304965e-02 -5.5366603114434920e-01 +5.6185172409010985e-03
3.6999999999999948e+00 +8.5386222154308129e+00 +0.0000000000000000e+00 +3.6999999742815564e+00 -2.8424792114362128e-02 -5.5369070287746724e-01 +5.6179747474948459e-03
3.7499999999999947e+00 +8.5386119330453578e+00 +0.0000000000000000e+00 +3.7499999732242659e+00 -2.8426077409722295e-02 -5.5371565907505305e-01 +5.6174351453416316e-03
3.7999999999999945e+00 +8.5386015124798575e+00 +0.0000000000000000e+00 +3.7999999721383682e+00 -2.8427380346699532e-02 -5.5374089770548585e-01 +5.6168984591892374e-03
3.8499999999999943e+00 +8.5385909537280167e+00 +0.0000000000000000e+00 +3.8499999710234798e+00 -2.8428700871608332e-02 -5.5376641673715099e-01 +5.6163647137854652e-03
3.8999999999999941e+00 +8.5385802567834652e+00 +0.0000000000000000e+00 +3.8999999698792176e+00 -2.8430038930763631e-02 -5.5379221413843904e-01 +5.6158339338781265e-03
3.9499999999999940e+00 +8.5385694216397656e+00 +0.0000000000000000e+00 +3.9499999687051983e+00 -2.8431394470480834e-02 -5.5381828787774690e-01 +5.6153061442150440e-03
3.9999999999999938e+00 +8.5385584482904111e+00 +0.0000000000000000e+00 +3.9999999675010383e+00 -2.8432767437075717e-02 -5.5384463592347610e-01 +5.6147813695440517e-03
4.0499999999999936e+00 +8.5385473367288274e+00 +0.0000000000000000e+00 +4.0499999662663546e+00 -2.8434157750225605e-02 -5.5387125609368071e-01 +5.6142596378936597e-03
4.0999999999999934e+00 +8.5385360869483726e+00 +0.0000000000000000e+00 +4.0999999650007632e+00 -2.8435565223052239e-02 -5.5389814560500639e-01 +5.6137409904151890e-03
4.1499999999999932e+00 +8.5385246989423340e+00 +0.0000000000000000e+00 +4.1499999637038805e+00 -2.8436989642038609e-02 -5.5392530152374730e-01 +5.6132254715407556e-03
4.1999999999999931e+00 +8.5385131727039365e+00 +0.0000000000000000e+00 +4.1999999623753226e+00 -2.8438430793667729e-02 -5.5395272091619685e-01 +5.6127131257025951e-03
4.2499999999999929e+00 +8.5385015082263376e+00 +0.0000000000000000e+00 +4.2499999610147059e+00 -2.8439888464422785e-02 -5.5398040084865008e-01 +5.6122039973330777e-03
4.2999999999999927e+00 +8.5384897055026308e+00 +0.0000000000000000e+00 +4.2999999596216467e+00 -2.8441362440787033e-02 -5.5400833838740138e-01 +5.6116981308646863e-03
4.3499999999999925e+00 +8.5384777645258438e+00 +0.0000000000000000e+00 +4.3499999581957614e+00 -2.8442852509243843e-02 -5.5403653059874491e-01 +5.6111955707300355e-03
4.3999999999999924e+00 +8.5384656852889407e+00 +0.0000000000000000e+00 +4.3999999567366661e+00 -2.8444358456276603e-02 -5.5406497454897385e-01 +5.6106963613618667e-03
4.4499999999999922e+00 +8.5384534677848229e+00 +0.0000000000000000e+00 +4.4499999552439764e+00 -2.8445880068368828e-02 -5.5409366730438070e-01 +5.6102005471930557e-03
4.4999999999999920e+00 +8.5384411120063319e+00 +0.0000000000000000e+00 +4.4999999537173077e+00 -2.8447417132003976e-02 -5.5412260593125706e-01 +5.6097081726566031e-03
4.5499999999999918e+00 +8.5384286179462450e+00 +0.0000000000000000e+00 +4.5499999521562762e+00 -2.8448969433665643e-02 -5.5415178749589211e-01 +5.6092192821856485e-03
4.5999999999999917e+00 +8.5384159855972808e+00 +0.0000000000000000e+00 +4.5999999505604974e+00 -2.8450536759837323e-02 -5.5418120906457391e-01 +5.6087339202134604e-03
4.6499999999999915e+00 +8.5384032149520976e+00 +0.0000000000000000e+00 +4.6499999489295876e+00 -2.8452118897002578e-02 -5.5421086770358718e-01 +5.6082521311734473e-03
4.6999999999999913e+00 +8.5383903060032935e+00 +0.0000000000000000e+00 +4.6999999472631622e+00 -2.8453715631644918e-02 -5.5424076047921556e-01 +5.6077739594991589e-03
4.7499999999999911e+00 +8.5383772587434095e+00 +0.0000000000000000e+00 +4.7499999455608366e+00 -2.8455326750247832e-02 -5.5427088445773887e-01 +5.6072994496242784e-03
4.7999999999999909e+00 +8.5383640731649262e+00 +0.0000000000000000e+00 +4.7999999438222254e+00 -2.8456952039294780e-02 -5.5430123670543430e-01 +5.6068286459826349e-03
4.8499999999999908e+00 +8.5383507492602710e+00 +0.0000000000000000e+00 +4.8499999420469448e+00 -2.8458591285269084e-02 -5.5433181428857481e-01 +5.6063615930082005e-03
4.8999999999999906e+00 +8.5383372870218146e+00 +0.0000000000000000e+00 +4.8999999402346104e+00 -2.8460244274654087e-02 -5.5436261427343003e-01 +5.6058983351350887e-03
4.9499999999999904e+00 +8.5383236864418688e+00 +0.0000000000000000e+00 +4.9499999383848365e+00 -2.8461910793932961e-02 -5.5439363372626593e-01 +5.6054389167975631e-03
4.9999999999999902e+00 +8.5383099475126940e+00 +0.0000000000000000e+00 +4.9999999364972387e+00 -2.8463590629588802e-02 -5.5442486971334326e-01 +5.6049833824300347e-03
5.0499999999999901e+00 +8.5382960702264956e+00 +0.0000000000000000e+00 +5.0499999345714324e+00 -2.8465283568104585e-02 -5.5445631930091854e-01 +5.6045317764670671e-03
5.0999999999999899e+00 +8.5382820545754257e+00 +0.0000000000000000e+00 +5.0999999326070320e+00 -2.8466989395963122e-02 -5.5448797955524276e-01 +5.6040841433433637e-03
5.1499999999999897e+00 +8.5382679005515829e+00 +0.0000000000000000e+00 +5.1499999306036521e+00 -2.8468707899647110e-02 -5.5451984754256223e-01 +5.6036405274937952e-03
5.1999999999999895e+00 +8.5382536081470146e+00 +0.0000000000000000e+00 +5.1999999285609082e+00 -2.8470438865639058e-02 -5.5455192032911715e-01 +5.6032009733533849e-03
5.2499999999999893e+00 +8.5382391773537183e+00 +0.0000000000000000e+00 +5.2499999264784138e+00 -2.8472182080421279e-02 -5.5458419498114186e-01 +5.6027655253573063e-03
5.2999999999999892e+00 +8.5382246081636382e+00 +0.0000000000000000e+00 +5.2999999243557845e+00 -2.8473937330475926e-02 -5.5461666856486458e-01 +5.6023342279408923e-03
5.3499999999999890e+00 +8.5382099005686722e+00 +0.0000000000000000e+00 +5.3499999221926346e+00 -2.8475704402284901e-02 -5.5464933814650619e-01 +5.6019071255396418e-03
5.3999999999999888e+00 +8.5381950545606671e+00 +0.0000000000000000e+00 +5.3999999199885789e+00 -2.8477483082329929e-02 -5.5468220079228148e-01 +5.6014842625892085e-03
5.4499999999999886e+00 +8.5381800701314230e+00 +0.0000000000000000e+00 +5.4499999177432317e+00 -2.8479273157092432e-02 -5.5471525356839768e-01 +5.6010656835254148e-03
5.4999999999999885e+00 +8.5381649472726906e+00 +0.0000000000000000e+00 +5.4999999154562067e+00 -2.8481074413053632e-02 -5.5474849354105438e-01 +5.6006514327842432e-03
5.5499999999999883e+00 +8.5381496859761761e+00 +0.0000000000000000e+00 +5.5499999131271194e+00 -2.8482886636694450e-02 -5.5478191777644326e-01 +5.6002415548018466e-03
5.5999999999999881e+00 +8.5381342862335377e+00 +0.0000000000000000e+00 +5.5999999107555825e+00 -2.8484709614495521e-02 -5.5481552334074813e-01 +5.5998360940145422e-03
5.6499999999999879e+00 +8.5381187480363891e+00 +0.0000000000000000e+00 +5.6499999083412105e+00 -2.8486543132937213e-02 -5.5484930730014392e-01 +5.5994350948588237e-03
5.6999999999999877e+00 +8.5381030713763000e+00 +0.0000000000000000e+00 +5.6999999058836179e+00 -2.8488386978499550e-02 -5.5488326672079735e-01 +5.5990386017713469e-03
5.7499999999999876e+00 +8.5380872562447969e+00 +0.0000000000000000e+00 +5.7499999033824176e+00 -2.8490240937662215e-02 -5.5491739866886514e-01 +5.5986466591889505e-03
5.7999999999999874e+00 +8.5380713026333623e+00 +0.0000000000000000e+00 +5.7999999008372241e+00 -2.8492104796904581e-02 -5.5495170021049511e-01 +5.5982593115486406e-03
5.8499999999999872e+00 +8.5380552105334360e+00 +0.0000000000000000e+00 +5.8499998982476509e+00 -2.8493978342705652e-02 -5.5498616841182580e-01 +5.5978766032876047e-03
5.8999999999999870e+00 +8.5380389799364149e+00 +0.0000000000000000e+00 +5.8999998956133117e+00 -2.8495861361544042e-02 -5.5502080033898460e-01 +5.5974985788432097e-03
