# trajectory
# s[mm] rx[mm] ry[mm] rz[mm] px[rad] py[rad] pz[rad]
0.0000000000000000e+00 +8.5389999999999997e+00 +0.0000000000000000e+00 +0.0000000000000000e+00 +0.0000000000000000e+00 +0.0000000000000000e+00 +1.0000000000000000e+00
5.0000000000000003e-02 +8.5389999310298101e+00 +0.0000000000000000e+00 +4.9999999999936574e-02 -2.7588071565617534e-06 +0.0000000000000000e+00 +9.9999999999619449e-01
1.0000000000000001e-01 +8.5389997241193072e+00 +0.0000000000000000e+00 +9.9999999999492606e-02 -5.5176128557940418e-06 +0.0000000000000000e+00 +9.9999999998477795e-01
1.5000000000000002e-01 +8.5389993792685175e+00 +0.0000000000000000e+00 +1.4999999999828753e-01 -8.2764189814693141e-06 +0.0000000000000000e+00 +9.9999999996575040e-01
2.0000000000000001e-01 +8.5389988964773718e+00 +0.0000000000000000e+00 +1.9999999999594081e-01 -1.1035227414261063e-05 +0.0000000000000000e+00 +9.9999999993911182e-01
2.5000000000000000e-01 +8.5389982757457066e+00 +0.0000000000000000e+00 +2.4999999999207187e-01 -1.3794040031743920e-05 +0.0000000000000000e+00 +9.9999999990486221e-01
2.9999999999999999e-01 +8.5389975170732679e+00 +0.0000000000000000e+00 +2.9999999998630017e-01 -1.6552858708393743e-05 +0.0000000000000000e+00 +9.9999999986300137e-01
3.4999999999999998e-01 +8.5389966204597041e+00 +0.0000000000000000e+00 +3.4999999997824516e-01 -1.9311685315587701e-05 +0.0000000000000000e+00 +9.9999999981352938e-01
3.9999999999999997e-01 +8.5389955859045727e+00 +0.0000000000000000e+00 +3.9999999996752628e-01 -2.2070521721604368e-05 +0.0000000000000000e+00 +9.9999999975644605e-01
4.4999999999999996e-01 +8.5389944134073374e+00 +0.0000000000000000e+00 +4.4999999995376294e-01 -2.4829369791623814e-05 +0.0000000000000000e+00 +9.9999999969175124e-01
4.9999999999999994e-01 +8.5389931029673676e+00 +0.0000000000000000e+00 +4.9999999993657457e-01 -2.7588231387727681e-05 +0.0000000000000000e+00 +9.9999999961944475e-01
5.4999999999999993e-01 +8.5389916545839419e+00 +0.0000000000000000e+00 +5.4999999991558057e-01 -3.0347108368899282e-05 +0.0000000000000000e+00 +9.9999999953952656e-01
5.9999999999999998e-01 +8.5389900682562434e+00 +0.0000000000000000e+00 +5.9999999989040032e-01 -3.3106002591023680e-05 +0.0000000000000000e+00 +9.9999999945199636e-01
6.5000000000000002e-01 +8.5389883439833643e+00 +0.0000000000000000e+00 +6.4999999986065327e-01 -3.5864915906887775e-05 +0.0000000000000000e+00 +9.9999999935685402e-01
7.0000000000000007e-01 +8.5389864817643044e+00 +0.0000000000000000e+00 +6.9999999982595884e-01 -3.8623850166180395e-05 +0.0000000000000000e+00 +9.9999999925409921e-01
7.5000000000000011e-01 +8.5389844815979679e+00 +0.0000000000000000e+00 +7.4999999978593634e-01 -4.1382807215492370e-05 +0.0000000000000000e+00 +9.9999999914373172e-01
8.0000000000000016e-01 +8.5389823434831715e+00 +0.0000000000000000e+00 +7.9999999974020519e-01 -4.4141788898316637e-05 +0.0000000000000000e+00 +9.9999999902575132e-01
8.5000000000000020e-01 +8.5389800674186365e+00 +0.0000000000000000e+00 +8.4999999968838469e-01 -4.6900797055048294e-05 +0.0000000000000000e+00 +9.9999999890015767e-01
9.0000000000000024e-01 +8.5389776534029931e+00 +0.0000000000000000e+00 +8.9999999963009414e-01 -4.9659833522984703e-05 +0.0000000000000000e+00 +9.9999999876695056e-01
9.5000000000000029e-01 +8.5389751014347812e+00 +0.0000000000000000e+00 +9.4999999956495285e-01 -5.2418900136325569e-05 +0.0000000000000000e+00 +9.9999999862612954e-01
1.0000000000000002e+00 +8.5389724115124466e+00 +0.0000000000000000e+00 +9.9999999949258012e-01 -5.5177998726173028e-05 +0.0000000000000000e+00 +9.9999999847769427e-01
1.0500000000000003e+00 +8.5389695836343442e+00 +0.0000000000000000e+00 +1.0499999994125953e+00 -5.7937131120531714e-05 +0.0000000000000000e+00 +9.9999999832164443e-01
1.1000000000000003e+00 +8.5389666177987404e+00 +0.0000000000000000e+00 +1.0999999993246177e+00 -6.0696299144308855e-05 +0.0000000000000000e+00 +9.9999999815797969e-01
1.1500000000000004e+00 +8.5389635140038056e+00 +0.0000000000000000e+00 +1.1499999992282663e+00 -6.3455504619314347e-05 +0.0000000000000000e+00 +9.9999999798669947e-01
1.2000000000000004e+00 +8.5389602722476230e+00 +0.0000000000000000e+00 +1.1999999991231607e+00 -6.6214749364260829e-05 +0.0000000000000000e+00 +9.9999999780780346e-01
1.2500000000000004e+00 +8.5389568925281836e+00 +0.0000000000000000e+00 +1.2499999990089199e+00 -6.8974035194763791e-05 +0.0000000000000000e+00 +9.9999999762129121e-01
1.3000000000000005e+00 +8.5389533748433877e+00 +0.0000000000000000e+00 +1.2999999988851629e+00 -7.1733363923341589e-05 +0.0000000000000000e+00 +9.9999999742716228e-01
1.3500000000000005e+00 +8.5389497191910451e+00 +0.0000000000000000e+00 +1.3499999987515092e+00 -7.4492737359415596e-05 +0.0000000000000000e+00 +9.9999999722541610e-01
1.4000000000000006e+00 +8.5389459255688767e+00 +0.0000000000000000e+00 +1.3999999986075777e+00 -7.7252157309310257e-05 +0.0000000000000000e+00 +9.9999999701605213e-01
1.4500000000000006e+00 +8.5389419939745093e+00 +0.0000000000000000e+00 +1.4499999984529874e+00 -8.0011625576253129e-05 +0.0000000000000000e+00 +9.9999999679906992e-01
1.5000000000000007e+00 +8.5389379244054826e+00 +0.0000000000000000e+00 +1.4999999982873577e+00 -8.2771143960375004e-05 +0.0000000000000000e+00 +9.9999999657446892e-01
1.5500000000000007e+00 +8.5389337168592476e+00 +0.0000000000000000e+00 +1.5499999981103074e+00 -8.5530714258709960e-05 +0.0000000000000000e+00 +9.9999999634224856e-01
1.6000000000000008e+00 +8.5389293713331629e+00 +0.0000000000000000e+00 +1.5999999979214556e+00 -8.8290338265195460e-05 +0.0000000000000000e+00 +9.9999999610240820e-01
1.6500000000000008e+00 +8.5389248878244963e+00 +0.0000000000000000e+00 +1.6499999977204214e+00 -9.1050017770672402e-05 +0.0000000000000000e+00 +9.9999999585494725e-01
1.7000000000000008e+00 +8.5389202663304307e+00 +0.0000000000000000e+00 +1.6999999975068234e+00 -9.3809754562885220e-05 +0.0000000000000000e+00 +9.9999999559986508e-01
1.7500000000000009e+00 +8.5389155068480562e+00 +0.0000000000000000e+00 +1.7499999972802809e+00 -9.6569550426481930e-05 +0.0000000000000000e+00 +9.9999999533716111e-01
1.8000000000000009e+00 +8.5389106093743745e+00 +0.0000000000000000e+00 +1.7999999970404126e+00 -9.9329407143014219e-05 +0.0000000000000000e+00 +9.9999999506683457e-01
1.8500000000000010e+00 +8.5389055739062982e+00 +0.0000000000000000e+00 +1.8499999967868372e+00 -1.0208932649093752e-04 +0.0000000000000000e+00 +9.9999999478888479e-01
1.9000000000000010e+00 +8.5389004004406512e+00 +0.0000000000000000e+00 +1.8999999965191738e+00 -1.0484931024561109e-04 +0.0000000000000000e+00 +9.9999999450331112e-01
1.9500000000000011e+00 +8.5388950889741704e+00 +0.0000000000000000e+00 +1.9499999962370411e+00 -1.0760936017929805e-04 +0.0000000000000000e+00 +9.9999999421011287e-01
2.0000000000000009e+00 +8.5388896395035019e+00 +0.0000000000000000e+00 +1.9999999959400578e+00 -1.1036947806116552e-04 +0.0000000000000000e+00 +9.9999999390928918e-01
2.0500000000000007e+00 +8.5388840520252032e+00 +0.0000000000000000e+00 +2.0499999956278430e+00 -1.1312966565699104e-04 +0.0000000000000000e+00 +9.9999999360083935e-01
2.1000000000000005e+00 +8.5388783265357446e+00 +0.0000000000000000e+00 +2.0999999953000148e+00 -1.1588992472593351e-04 +0.0000000000000000e+00 +9.9999999328476263e-01
2.1500000000000004e+00 +8.5388724630315096e+00 +0.0000000000000000e+00 +2.1499999949561923e+00 -1.1865025701730398e-04 +0.0000000000000000e+00 +9.9999999296105824e-01
2.2000000000000002e+00 +8.5388664615087926e+00 +0.0000000000000000e+00 +2.1999999945959936e+00 -1.2141066427027215e-04 +0.0000000000000000e+00 +9.9999999262972528e-01
2.2500000000000000e+00 +8.5388603219638028e+00 +0.0000000000000000e+00 +2.2499999942190376e+00 -1.2417114821386649e-04 +0.0000000000000000e+00 +9.9999999229076297e-01
2.2999999999999998e+00 +8.5388540443926644e+00 +0.0000000000000000e+00 +2.2999999938249429e+00 -1.2693171056697423e-04 +0.0000000000000000e+00 +9.9999999194417044e-01
2.3499999999999996e+00 +8.5388476287914123e+00 +0.0000000000000000e+00 +2.3499999934133275e+00 -1.2969235303834147e-04 +0.0000000000000000e+00 +9.9999999158994679e-01
2.3999999999999995e+00 +8.5388410751559984e+00 +0.0000000000000000e+00 +2.3999999929838105e+00 -1.3245307732657316e-04 +0.0000000000000000e+00 +9.9999999122809113e-01
2.4499999999999993e+00 +8.5388343834822891e+00 +0.0000000000000000e+00 +2.4499999925360099e+00 -1.3521388512013330e-04 +0.0000000000000000e+00 +9.9999999085860258e-01
2.4999999999999991e+00 +8.5388275537660672e+00 +0.0000000000000000e+00 +2.4999999920695437e+00 -1.3797477809734482e-04 +0.0000000000000000e+00 +9.9999999048148025e-01
2.5499999999999989e+00 +8.5388205860030322e+00 +0.0000000000000000e+00 +2.5499999915840306e+00 -1.4073575792638977e-04 +0.0000000000000000e+00 +9.9999999009672313e-01
2.5999999999999988e+00 +8.5388134801888000e+00 +0.0000000000000000e+00 +2.5999999910790885e+00 -1.4349682626530930e-04 +0.0000000000000000e+00 +9.9999998970433035e-01
2.6499999999999986e+00 +8.5388062363189032e+00 +0.0000000000000000e+00 +2.6499999905543361e+00 -1.4625798476200380e-04 +0.0000000000000000e+00 +9.9999998930430090e-01
2.6999999999999984e+00 +8.5387988543887943e+00 +0.0000000000000000e+00 +2.6999999900093914e+00 -1.4901923505423282e-04 +0.0000000000000000e+00 +9.9999998889663377e-01
2.7499999999999982e+00 +8.5387913343938422e+00 +0.0000000000000000e+00 +2.7499999894438725e+00 -1.5178057876961526e-04 +0.0000000000000000e+00 +9.9999998848132798e-01
2.7999999999999980e+00 +8.5387836763293343e+00 +0.0000000000000000e+00 +2.7999999888573970e+00 -1.5454201752562928e-04 +0.0000000000000000e+00 +9.9999998805838242e-01
2.8499999999999979e+00 +8.5387758801904798e+00 +0.0000000000000000e+00 +2.8499999882495834e+00 -1.5730355292961249e-04 +0.0000000000000000e+00 +9.9999998762779607e-01
2.8999999999999977e+00 +8.5387679459724044e+00 +0.0000000000000000e+00 +2.8999999876200495e+00 -1.6006518657876191e-04 +0.0000000000000000e+00 +9.9999998718956795e-01
2.9499999999999975e+00 +8.5387598736701573e+00 +0.0000000000000000e+00 +2.9499999869684128e+00 -1.6282692006013401e-04 +0.0000000000000000e+00 +9.9999998674369694e-01
2.9999999999999973e+00 +8.5387516632787079e+00 +0.0000000000000000e+00 +2.9999999862942914e+00 -1.6558875495064485e-04 +0.0000000000000000e+00 +9.9999998629018205e-01
3.0499999999999972e+00 +8.5387433147929457e+00 +0.0000000000000000e+00 +3.0499999855973035e+00 -1.6835069281706999e-04 +0.0000000000000000e+00 +9.9999998582902205e-01
3.0999999999999970e+00 +8.5387348282076836e+00 +0.0000000000000000e+00 +3.0999999848770661e+00 -1.7111273521604466e-04 +0.0000000000000000e+00 +9.9999998536021584e-01
3.1499999999999968e+00 +8.5387262035176565e+00 +0.0000000000000000e+00 +3.1499999841331974e+00 -1.7387488369406372e-04 +0.0000000000000000e+00 +9.9999998488376229e-01
3.1999999999999966e+00 +8.5387174407175213e+00 +0.0000000000000000e+00 +3.1999999833653150e+00 -1.7663713978748174e-04 +0.0000000000000000e+00 +9.9999998439966031e-01
3.2499999999999964e+00 +8.5387085398018581e+00 +0.0000000000000000e+00 +3.2499999825730361e+00 -1.7939950502251305e-04 +0.0000000000000000e+00 +9.9999998390790867e-01
3.2999999999999963e+00 +8.5386995007651745e+00 +0.0000000000000000e+00 +3.2999999817559784e+00 -1.8216198091523174e-04 +0.0000000000000000e+00 +9.9999998340850627e-01
3.3499999999999961e+00 +8.5386903236018981e+00 +0.0000000000000000e+00 +3.3499999809137591e+00 -1.8492456897157173e-04 +0.0000000000000000e+00 +9.9999998290145176e-01
3.3999999999999959e+00 +8.5386810083063835e+00 +0.0000000000000000e+00 +3.3999999800459957e+00 -1.8768727068732680e-04 +0.0000000000000000e+00 +9.9999998238674404e-01
3.4499999999999957e+00 +8.5386715548729111e+00 +0.0000000000000000e+00 +3.4499999791523059e+00 -1.9045008754815061e-04 +0.0000000000000000e+00 +9.9999998186438188e-01
3.4999999999999956e+00 +8.5386619632956862e+00 +0.0000000000000000e+00 +3.4999999782323066e+00 -1.9321302102955681e-04 +0.0000000000000000e+00 +9.9999998133436407e-01
3.5499999999999954e+00 +8.5386522335688397e+00 +0.0000000000000000e+00 +3.5499999772856148e+00 -1.9597607259691898e-04 +0.0000000000000000e+00 +9.9999998079668928e-01
3.5999999999999952e+00 +8.5386423656864334e+00 +0.0000000000000000e+00 +3.5999999763118478e+00 -1.9873924370547073e-04 +0.0000000000000000e+00 +9.9999998025135628e-01
3.6499999999999950e+00 +8.5386323596424525e+00 +0.0000000000000000e+00 +3.6499999753106227e+00 -2.0150253580030568e-04 +0.0000000000000000e+00 +9.9999997969836385e-01
3.6999999999999948e+00 +8.5386222154308129e+00 +0.0000000000000000e+00 +3.6999999742815564e+00 -2.0426595031637753e-04 +0.0000000000000000e+00 +9.9999997913771055e-01
3.7499999999999947e+00 +8.5386119330453578e+00 +0.0000000000000000e+00 +3.7499999732242659e+00 -2.0702948867850013e-04 +0.0000000000000000e+00 +9.9999997856939515e-01
3.7999999999999945e+00 +8.5386015124798575e+00 +0.0000000000000000e+00 +3.7999999721383682e+00 -2.0979315230134740e-04 +0.0000000000000000e+00 +9.9999997799341633e-01
3.8499999999999943e+00 +8.5385909537280167e+00 +0.0000000000000000e+00 +3.8499999710234798e+00 -2.1255694258945346e-04 +0.0000000000000000e+00 +9.9999997740977276e-01
3.8999999999999941e+00 +8.5385802567834652e+00 +0.0000000000000000e+00 +3.8999999698792176e+00 -2.1532086093721263e-04 +0.0000000000000000e+00 +9.9999997681846309e-01
3.9499999999999940e+00 +8.5385694216397656e+00 +0.0000000000000000e+00 +3.9499999687051983e+00 -2.1808490872887945e-04 +0.0000000000000000e+00 +9.9999997621948600e-01
3.9999999999999938e+00 +8.5385584482904111e+00 +0.0000000000000000e+00 +3.9999999675010383e+00 -2.2084908733856868e-04 +0.0000000000000000e+00 +9.9999997561284004e-01
4.0499999999999936e+00 +8.5385473367288274e+00 +0.0000000000000000e+00 +4.0499999662663546e+00 -2.2361339813006779e-04 +0.0000000000000000e+00 +9.9999997499852378e-01
4.0999999999999934e+00 +8.5385360869483726e+00 +0.0000000000000000e+00 +4.0999999650007632e+00 -2.2637784245477328e-04 +0.0000000000000000e+00 +9.9999997437653587e-01
4.1499999999999932e+00 +8.5385246989423340e+00 +0.0000000000000000e+00 +4.1499999637038805e+00 -2.2914242164962710e-04 +0.0000000000000000e+00 +9.9999997374687488e-01
4.1999999999999931e+00 +8.5385131727039365e+00 +0.0000000000000000e+00 +4.1999999623753226e+00 -2.3190713703692903e-04 +0.0000000000000000e+00 +9.9999997310953948e-01
4.2499999999999929e+00 +8.5385015082263376e+00 +0.0000000000000000e+00 +4.2499999610147059e+00 -2.3467198992433669e-04 +0.0000000000000000e+00 +9.9999997246452810e-01
4.2999999999999927e+00 +8.5384897055026308e+00 +0.0000000000000000e+00 +4.2999999596216467e+00 -2.3743698160486553e-04 +0.0000000000000000e+00 +9.9999997181183942e-01
4.3499999999999925e+00 +8.5384777645258438e+00 +0.0000000000000000e+00 +4.3499999581957614e+00 -2.4020211335688881e-04 +0.0000000000000000e+00 +9.9999997115147188e-01
4.3999999999999924e+00 +8.5384656852889407e+00 +0.0000000000000000e+00 +4.3999999567366661e+00 -2.4296738644413764e-04 +0.0000000000000000e+00 +9.9999997048342404e-01
4.4499999999999922e+00 +8.5384534677848229e+00 +0.0000000000000000e+00 +4.4499999552439764e+00 -2.4573280211570098e-04 +0.0000000000000000e+00 +9.9999996980769446e-01
4.4999999999999920e+00 +8.5384411120063319e+00 +0.0000000000000000e+00 +4.4999999537173077e+00 -2.4849836160602560e-04 +0.0000000000000000e+00 +9.9999996912428157e-01
4.5499999999999918e+00 +8.5384286179462450e+00 +0.0000000000000000e+00 +4.5499999521562762e+00 -2.5126406613491608e-04 +0.0000000000000000e+00 +9.9999996843318395e-01
4.5999999999999917e+00 +8.5384159855972808e+00 +0.0000000000000000e+00 +4.5999999505604974e+00 -2.5402991690753478e-04 +0.0000000000000000e+00 +9.9999996773440003e-01
4.6499999999999915e+00 +8.5384032149520976e+00 +0.0000000000000000e+00 +4.6499999489295876e+00 -2.5679591511440183e-04 +0.0000000000000000e+00 +9.9999996702792837e-01
4.6999999999999913e+00 +8.5383903060032935e+00 +0.0000000000000000e+00 +4.6999999472631622e+00 -2.5956206193139525e-04 +0.0000000000000000e+00 +9.9999996631376731e-01
4.7499999999999911e+00 +8.5383772587434095e+00 +0.0000000000000000e+00 +4.7499999455608366e+00 -2.6232835851975077e-04 +0.0000000000000000e+00 +9.9999996559191540e-01
4.7999999999999909e+00 +8.5383640731649262e+00 +0.0000000000000000e+00 +4.7999999438222254e+00 -2.6509480602606187e-04 +0.0000000000000000e+00 +9.9999996486237108e-01
4.8499999999999908e+00 +8.5383507492602710e+00 +0.0000000000000000e+00 +4.8499999420469448e+00 -2.6786140558227977e-04 +0.0000000000000000e+00 +9.9999996412513281e-01
4.8999999999999906e+00 +8.5383372870218146e+00 +0.0000000000000000e+00 +4.8999999402346104e+00 -2.7062815830571340e-04 +0.0000000000000000e+00 +9.9999996338019903e-01
4.9499999999999904e+00 +8.5383236864418688e+00 +0.0000000000000000e+00 +4.9499999383848365e+00 -2.7339506529902937e-04 +0.0000000000000000e+00 +9.9999996262756818e-01
4.9999999999999902e+00 +8.5383099475126940e+00 +0.0000000000000000e+00 +4.9999999364972387e+00 -2.7616212765025207e-04 +0.0000000000000000e+00 +9.9999996186723861e-01
5.0499999999999901e+00 +8.5382960702264956e+00 +0.0000000000000000e+00 +5.0499999345714324e+00 -2.7892934643276347e-04 +0.0000000000000000e+00 +9.9999996109920886e-01
5.0999999999999899e+00 +8.5382820545754257e+00 +0.0000000000000000e+00 +5.0999999326070320e+00 -2.8169672270530316e-04 +0.0000000000000000e+00 +9.9999996032347716e-01
5.1499999999999897e+00 +8.5382679005515829e+00 +0.0000000000000000e+00 +5.1499999306036521e+00 -2.8446425751196835e-04 +0.0000000000000000e+00 +9.9999995954004206e-01
5.1999999999999895e+00 +8.5382536081470146e+00 +0.0000000000000000e+00 +5.1999999285609082e+00 -2.8723195188221383e-04 +0.0000000000000000e+00 +9.9999995874890180e-01
5.2499999999999893e+00 +8.5382391773537183e+00 +0.0000000000000000e+00 +5.2499999264784138e+00 -2.8999980683085195e-04 +0.0000000000000000e+00 +9.9999995795005492e-01
5.2999999999999892e+00 +8.5382246081636382e+00 +0.0000000000000000e+00 +5.2999999243557845e+00 -2.9276782335805257e-04 +0.0000000000000000e+00 +9.9999995714349965e-01
5.3499999999999890e+00 +8.5382099005686722e+00 +0.0000000000000000e+00 +5.3499999221926346e+00 -2.9553600244934303e-04 +0.0000000000000000e+00 +9.9999995632923444e-01
5.3999999999999888e+00 +8.5381950545606671e+00 +0.0000000000000000e+00 +5.3999999199885789e+00 -2.9830434507560811e-04 +0.0000000000000000e+00 +9.9999995550725762e-01
5.4499999999999886e+00 +8.5381800701314230e+00 +0.0000000000000000e+00 +5.4499999177432317e+00 -3.0107285219309007e-04 +0.0000000000000000e+00 +9.9999995467756753e-01
5.4999999999999885e+00 +8.5381649472726906e+00 +0.0000000000000000e+00 +5.4999999154562067e+00 -3.0384152474338845e-04 +0.0000000000000000e+00 +9.9999995384016260e-01
5.5499999999999883e+00 +8.5381496859761761e+00 +0.0000000000000000e+00 +5.5499999131271194e+00 -3.0661036365346023e-04 +0.0000000000000000e+00 +9.9999995299504107e-01
5.5999999999999881e+00 +8.5381342862335377e+00 +0.0000000000000000e+00 +5.5999999107555825e+00 -3.0937936983561963e-04 +0.0000000000000000e+00 +9.9999995214220139e-01
5.6499999999999879e+00 +8.5381187480363891e+00 +0.0000000000000000e+00 +5.6499999083412105e+00 -3.1214854418753812e-04 +0.0000000000000000e+00 +9.9999995128164176e-01
5.6999999999999877e+00 +8.5381030713763000e+00 +0.0000000000000000e+00 +5.6999999058836179e+00 -3.1491788759224445e-04 +0.0000000000000000e+00 +9.9999995041336054e-01
5.7499999999999876e+00 +8.5380872562447969e+00 +0.0000000000000000e+00 +5.7499999033824176e+00 -3.1768740091812453e-04 +0.0000000000000000e+00 +9.9999994953735616e-01
5.7999999999999874e+00 +8.5380713026333623e+00 +0.0000000000000000e+00 +5.7999999008372241e+00 -3.2045708501892133e-04 +0.0000000000000000e+00 +9.9999994865362685e-01
5.8499999999999872e+00 +8.5380552105334360e+00 +0.0000000000000000e+00 +5.8499998982476509e+00 -3.2322694073373497e-04 +0.0000000000000000e+00 +9.9999994776217083e-01
5.8999999999999870e+00 +8.5380389799364149e+00 +0.0000000000000000e+00 +5.8999998956133117e+00 -3.2599696888702253e-04 +0.0000000000000000e+00 +9.9999994686298654e-01
