# field on trajectory
# s[mm] rx[mm] ry[mm] rz[mm] bx[T] by[T] bz[T]
0.0000000000000000e+00 +8.5270000000000206e+00 +0.0000000000000000e+00 +0.0000000000000000e+00 -2.6930663423570207e-02 -5.2419453793068516e-01 +5.4940042287686388e-03
5.0000000000000003e-02 +8.5269999273587000e+00 +0.0000000000000000e+00 +5.1282051281982703e-02 -2.6930396109145043e-02 -5.2419638020495796e-01 +5.4940301574217020e-03
1.0000000000000001e-01 +8.5269997094401297e+00 +0.0000000000000000e+00 +1.0256410256355400e-01 -2.6930152378294218e-02 -5.2419858655946683e-01 +5.4940541669084991e-03
1.4999999999999999e-01 +8.5269993462388793e+00 +0.0000000000000000e+00 +1.5384615384430200e-01 -2.6929932042200823e-02 -5.2420115614081475e-01 +5.4940762844883466e-03
2.0000000000000001e-01 +8.5269988377622195e+00 +0.0000000000000000e+00 +2.0512820512381499e-01 -2.6929734912044905e-02 -5.2420408809553309e-01 +5.4940965374195251e-03
2.5000000000000000e-01 +8.5269981840028795e+00 +0.0000000000000000e+00 +2.5641025640168202e-01 -2.6929560799013503e-02 -5.2420738157026914e-01 +5.4941149529613622e-03
2.9999999999999999e-01 +8.5269973849644902e+00 +0.0000000000000000e+00 +3.0769230767749101e-01 -2.6929409514291132e-02 -5.2421103571160943e-01 +5.4941315583722861e-03
3.4999999999999998e-01 +8.5269964406470500e+00 +0.0000000000000000e+00 +3.5897435895083102e-01 -2.6929280869065167e-02 -5.2421504966618249e-01 +5.4941463809109452e-03
4.0000000000000002e-01 +8.5269953510505694e+00 +0.0000000000000000e+00 +4.1025641022129000e-01 -2.6929174674524433e-02 -5.2421942258063114e-01 +5.4941594478359283e-03
4.5000000000000001e-01 +8.5269941161714105e+00 +0.0000000000000000e+00 +4.6153846148845601e-01 -2.6929090741860503e-02 -5.2422415360163932e-01 +5.4941707864060553e-03
5.0000000000000000e-01 +8.5269927360132005e+00 +0.0000000000000000e+00 +5.1282051275191798e-01 -2.6929028882263617e-02 -5.2422924187585684e-01 +5.4941804238795387e-03
5.5000000000000004e-01 +8.5269912105795793e+00 +0.0000000000000000e+00 +5.6410256401126402e-01 -2.6928988906925345e-02 -5.2423468654994820e-01 +5.4941883875145392e-03
5.9999999999999998e-01 +8.5269895398632798e+00 +0.0000000000000000e+00 +6.1538461526608301e-01 -2.6928970627042546e-02 -5.2424048677066948e-01 +5.4941947045700195e-03
6.5000000000000002e-01 +8.5269877238679292e+00 +0.0000000000000000e+00 +6.6666666651596296e-01 -2.6928973853809240e-02 -5.2424664168471702e-01 +5.4941994023040659e-03
6.9999999999999996e-01 +8.5269857625899004e+00 +0.0000000000000000e+00 +7.1794871776049296e-01 -2.6928998398423373e-02 -5.2425315043885234e-01 +5.4942025079752817e-03
7.5000000000000000e-01 +8.5269836560364602e+00 +0.0000000000000000e+00 +7.6923076899926102e-01 -2.6929044072079945e-02 -5.2426001217977825e-01 +5.4942040488414013e-03
8.0000000000000004e-01 +8.5269814042003400e+00 +0.0000000000000000e+00 +8.2051282023185501e-01 -2.6929110685980407e-02 -5.2426722605431320e-01 +5.4942040521612492e-03
8.4999999999999998e-01 +8.5269790070851705e+00 +0.0000000000000000e+00 +8.7179487145786405e-01 -2.6929198051323256e-02 -5.2427479120921583e-01 +5.4942025451927895e-03
9.0000000000000002e-01 +8.5269764646909607e+00 +0.0000000000000000e+00 +9.2307692267687602e-01 -2.6929305979309287e-02 -5.2428270679128608e-01 +5.4941995551942395e-03
9.4999999999999996e-01 +8.5269737770140601e+00 +0.0000000000000000e+00 +9.7435897388848103e-01 -2.6929434281141605e-02 -5.2429097194736418e-01 +5.4941951094240734e-03
1.0000000000000000e+00 +8.5269709440617607e+00 +0.0000000000000000e+00 +1.0256410250922601e+00 -2.6929582768020155e-02 -5.2429958582423142e-01 +5.4941892351399180e-03
1.0500000000000000e+00 +8.5269679658304103e+00 +0.0000000000000000e+00 +1.0769230762878199e+00 -2.6929751251149801e-02 -5.2430854756875966e-01 +5.4941819596002247e-03
1.1000000000000001e+00 +8.5269648423163709e+00 +0.0000000000000000e+00 +1.1282051274747300e+00 -2.6929939541736187e-02 -5.2431785632783667e-01 +5.4941733100634339e-03
1.1499999999999999e+00 +8.5269615735232893e+00 +0.0000000000000000e+00 +1.1794871786525800e+00 -2.6930147450983068e-02 -5.2432751124831645e-01 +5.4941633137874256e-03
1.2000000000000000e+00 +8.5269581594511692e+00 +0.0000000000000000e+00 +1.2307692298209700e+00 -2.6930374790096186e-02 -5.2433751147709284e-01 +5.4941519980303511e-03
1.2500000000000000e+00 +8.5269546000999998e+00 +0.0000000000000000e+00 +1.2820512809794800e+00 -2.6930621370282029e-02 -5.2434785616107638e-01 +5.4941393900503673e-03
1.3000000000000000e+00 +8.5269508954661397e+00 +0.0000000000000000e+00 +1.3333333321277101e+00 -2.6930887002749003e-02 -5.2435854444721808e-01 +5.4941255171059144e-03
1.3500000000000001e+00 +8.5269470455568808e+00 +0.0000000000000000e+00 +1.3846153832652299e+00 -2.6931171498702083e-02 -5.2436957548241014e-01 +5.4941104064546052e-03
1.3999999999999999e+00 +8.5269430503649293e+00 +0.0000000000000000e+00 +1.4358974343916400e+00 -2.6931474669352130e-02 -5.2438094841366034e-01 +5.4940940853551792e-03
1.4500000000000000e+00 +8.5269389098939392e+00 +0.0000000000000000e+00 +1.4871794855065199e+00 -2.6931796325906459e-02 -5.2439266238791771e-01 +5.4940765810655469e-03
1.5000000000000000e+00 +8.5269346241439106e+00 +0.0000000000000000e+00 +1.5384615366094700e+00 -2.6932136279574186e-02 -5.2440471655217180e-01 +5.4940579208439229e-03
1.5500000000000000e+00 +8.5269301931148203e+00 +0.0000000000000000e+00 +1.5897435877000701e+00 -2.6932494341564799e-02 -5.2441711005342839e-01 +5.4940381319485438e-03
1.6000000000000001e+00 +8.5269256168030605e+00 +0.0000000000000000e+00 +1.6410256387779201e+00 -2.6932870323089490e-02 -5.2442984203873477e-01 +5.4940172416379478e-03
1.6499999999999999e+00 +8.5269208952158806e+00 +0.0000000000000000e+00 +1.6923076898425899e+00 -2.6933264035355703e-02 -5.2444291165507806e-01 +5.4939952771698641e-03
1.7000000000000000e+00 +8.5269160283460206e+00 +0.0000000000000000e+00 +1.7435897408936800e+00 -2.6933675289576530e-02 -5.2445631804956239e-01 +5.4939722658031718e-03
1.7500000000000000e+00 +8.5269110161934805e+00 +0.0000000000000000e+00 +1.7948717919307799e+00 -2.6934103896962571e-02 -5.2447006036925770e-01 +5.4939482347962226e-03
1.8000000000000000e+00 +8.5269058587655309e+00 +0.0000000000000000e+00 +1.8461538429534701e+00 -2.6934549668721896e-02 -5.2448413776119929e-01 +5.4939232114068507e-03
1.8500000000000001e+00 +8.5269005560585391e+00 +0.0000000000000000e+00 +1.8974358939613500e+00 -2.6935012416066717e-02 -5.2449854937251483e-01 +5.4938972228937696e-03
1.8999999999999999e+00 +8.5268951080688602e+00 +0.0000000000000000e+00 +1.9487179449540000e+00 -2.6935491950209341e-02 -5.2451329435034688e-01 +5.4938702965157370e-03
1.9500000000000000e+00 +8.5268895148037700e+00 +0.0000000000000000e+00 +1.9999999959310100e+00 -2.6935988082358052e-02 -5.2452837184178003e-01 +5.4938424595307274e-03
2.0000000000000000e+00 +8.5268838253941794e+00 +0.0000000000000000e+00 +2.0508474532398102e+00 -2.6936496234698844e-02 -5.2454364876567272e-01 +5.4938139767824069e-03
2.0499999999999998e+00 +8.5268779929429002e+00 +0.0000000000000000e+00 +2.1016949105324101e+00 -2.6937020472881327e-02 -5.2455924941111676e-01 +5.4937845954743910e-03
2.1000000000000001e+00 +8.5268720174499304e+00 +0.0000000000000000e+00 +2.1525423678083899e+00 -2.6937560750393441e-02 -5.2457517143496402e-01 +5.4937542854700877e-03
2.1499999999999999e+00 +8.5268658989189099e+00 +0.0000000000000000e+00 +2.2033898250673700e+00 -2.6938117020722196e-02 -5.2459141249405239e-01 +5.4937230166326066e-03
2.2000000000000002e+00 +8.5268596373498404e+00 +0.0000000000000000e+00 +2.2542372823089400e+00 -2.6938689237356272e-02 -5.2460797024525530e-01 +5.4936907588253002e-03
2.2500000000000000e+00 +8.5268532327390893e+00 +0.0000000000000000e+00 +2.3050847395326799e+00 -2.6939277353786050e-02 -5.2462484234548201e-01 +5.4936574819117907e-03
2.2999999999999998e+00 +8.5268466850902804e+00 +0.0000000000000000e+00 +2.3559321967382099e+00 -2.6939881323499570e-02 -5.2464202645160174e-01 +5.4936231557551124e-03
2.3500000000000001e+00 +8.5268399943961395e+00 +0.0000000000000000e+00 +2.4067796539251201e+00 -2.6940501099989175e-02 -5.2465952022056817e-01 +5.4935877502190920e-03
2.3999999999999999e+00 +8.5268331606675893e+00 +0.0000000000000000e+00 +2.4576271110930099e+00 -2.6941136636740790e-02 -5.2467732130921951e-01 +5.4935512351661523e-03
2.4500000000000002e+00 +8.5268261838973594e+00 +0.0000000000000000e+00 +2.5084745682414700e+00 -2.6941787887247368e-02 -5.2469542737452934e-01 +5.4935135804600622e-03
2.5000000000000000e+00 +8.5268190640890698e+00 +0.0000000000000000e+00 +2.5593220253701001e+00 -2.6942454804998087e-02 -5.2471383607340394e-01 +5.4934747559637403e-03
2.5499999999999998e+00 +8.5268118012427294e+00 +0.0000000000000000e+00 +2.6101694824785100e+00 -2.6943137343483702e-02 -5.2473254506278399e-01 +5.4934347315403345e-03
2.6000000000000001e+00 +8.5268043953510606e+00 +0.0000000000000000e+00 +2.6610169395662799e+00 -2.6943835456197957e-02 -5.2475155199967016e-01 +5.4933934770535200e-03
2.6499999999999999e+00 +8.5267968464213499e+00 +0.0000000000000000e+00 +2.7118643966330200e+00 -2.6944549096629355e-02 -5.2477085454096906e-01 +5.4933509623658243e-03
2.7000000000000002e+00 +8.5267891544535797e+00 +0.0000000000000000e+00 +2.7627118536783102e+00 -2.6945278218269343e-02 -5.2479045034364691e-01 +5.4933071573402851e-03
2.7500000000000000e+00 +8.5267813194441295e+00 +0.0000000000000000e+00 +2.8135593107017698e+00 -2.6946022774610910e-02 -5.2481033706470204e-01 +5.4932620318401846e-03
2.7999999999999998e+00 +8.5267733413966198e+00 +0.0000000000000000e+00 +2.8644067677029899e+00 -2.6946782719144545e-02 -5.2483051236109080e-01 +5.4932155557282109e-03
2.8500000000000001e+00 +8.5267652203074196e+00 +0.0000000000000000e+00 +2.9152542246815600e+00 -2.6947558005363574e-02 -5.2485097388982715e-01 +5.4931676988675621e-03
2.8999999999999999e+00 +8.5267569561765395e+00 +0.0000000000000000e+00 +2.9661016816370900e+00 -2.6948348586760103e-02 -5.2487171930790644e-01 +5.4931184311211093e-03
2.9500000000000002e+00 +8.5267485490112396e+00 +0.0000000000000000e+00 +3.0169491385691698e+00 -2.6949154416823724e-02 -5.2489274627228044e-01 +5.4930677223511276e-03
3.0000000000000000e+00 +8.5267399988042598e+00 +0.0000000000000000e+00 +3.0677965954773900e+00 -2.6949975449049528e-02 -5.2491405244000944e-01 +5.4930155424209618e-03
3.0499999999999998e+00 +8.5267313055555896e+00 +0.0000000000000000e+00 +3.1186440523613599e+00 -2.6950811636930014e-02 -5.2493563546810784e-01 +5.4929618611933425e-03
3.1000000000000001e+00 +8.5267224692688597e+00 +0.0000000000000000e+00 +3.1694915092206801e+00 -2.6951662933956417e-02 -5.2495749301357209e-01 +5.4929066485306776e-03
3.1499999999999999e+00 +8.5267134899368102e+00 +0.0000000000000000e+00 +3.2203389660549400e+00 -2.6952529293624114e-02 -5.2497962273348042e-01 +5.4928498742961634e-03
3.2000000000000002e+00 +8.5267043675703498e+00 +0.0000000000000000e+00 +3.2711864228637300e+00 -2.6953410669421755e-02 -5.2500202228478876e-01 +5.4927915083515426e-03
3.2500000000000000e+00 +8.5266951021658297e+00 +0.0000000000000000e+00 +3.3220338796466700e+00 -2.6954307014843495e-02 -5.2502468932456092e-01 +5.4927315205596274e-03
3.2999999999999998e+00 +8.5266856937196298e+00 +0.0000000000000000e+00 +3.3728813364033301e+00 -2.6955218283383486e-02 -5.2504762150986561e-01 +5.4926698807831638e-03
3.3500000000000001e+00 +8.5266761422317394e+00 +0.0000000000000000e+00 +3.4237287931333298e+00 -2.6956144428534577e-02 -5.2507081649775011e-01 +5.4926065588845746e-03
3.3999999999999999e+00 +8.5266664477057894e+00 +0.0000000000000000e+00 +3.4745762498362600e+00 -2.6957085403788231e-02 -5.2509427194524194e-01 +5.4925415247259381e-03
3.4500000000000002e+00 +8.5266566101381596e+00 +0.0000000000000000e+00 +3.5254237065117100e+00 -2.6958041162638623e-02 -5.2511798550942257e-01 +5.4924747481698314e-03
3.5000000000000000e+00 +8.5266466295324808e+00 +0.0000000000000000e+00 +3.5762711631592898e+00 -2.6959011658577194e-02 -5.2514195484732795e-01 +5.4924061990782149e-03
3.5499999999999998e+00 +8.5266365058887494e+00 +0.0000000000000000e+00 +3.6271186197785901e+00 -2.6959996845096708e-02 -5.2516617761602236e-01 +5.4923358473132657e-03
3.6000000000000001e+00 +8.5266262391996896e+00 +0.0000000000000000e+00 +3.6779660763692101e+00 -2.6960996675692600e-02 -5.2519065147262445e-01 +5.4922636627376510e-03
3.6499999999999999e+00 +8.5266158294762100e+00 +0.0000000000000000e+00 +3.7288135329307499e+00 -2.6962011103853413e-02 -5.2521537407412988e-01 +5.4921896152125898e-03
3.6999999999999900e+00 +8.5266052767074108e+00 +0.0000000000000000e+00 +3.7796609894627999e+00 -2.6963040083075769e-02 -5.2524034307768830e-01 +5.4921136746008924e-03
3.7499999999999898e+00 +8.5265945809042005e+00 +0.0000000000000000e+00 +3.8305084459649699e+00 -2.6964083566848058e-02 -5.2526555614030124e-01 +5.4920358107636369e-03
3.7999999999999901e+00 +8.5265837420592998e+00 +0.0000000000000000e+00 +3.8813559024368498e+00 -2.6965141508665316e-02 -5.2529101091909891e-01 +5.4919559935632245e-03
3.8499999999999899e+00 +8.5265727601727104e+00 +0.0000000000000000e+00 +3.9322033588780299e+00 -2.6966213862019792e-02 -5.2531670507116301e-01 +5.4918741928614298e-03
3.8999999999999901e+00 +8.5265616352480702e+00 +0.0000000000000000e+00 +3.9830508152881201e+00 -2.6967300580402167e-02 -5.2534263625355238e-01 +5.4917903785196747e-03
3.9499999999999900e+00 +8.5265503672853793e+00 +0.0000000000000000e+00 +4.0338982716667102e+00 -2.6968401614919493e-02 -5.2536880210617098e-01 +5.4917045231182501e-03
3.9999999999999898e+00 +8.5265389562773599e+00 +0.0000000000000000e+00 +4.0847457280134103e+00 -2.6969516888957580e-02 -5.2539520006924034e-01 +5.4916166308424750e-03
4.0499999999999901e+00 +8.5265274022313005e+00 +0.0000000000000000e+00 +4.1355931843278002e+00 -2.6970646308010715e-02 -5.2542182745402077e-01 +5.4915267262665088e-03
4.0999999999999899e+00 +8.5265157051508105e+00 +0.0000000000000000e+00 +4.1864406406094901e+00 -2.6971789777277010e-02 -5.2544868156964952e-01 +5.4914348343044978e-03
4.1499999999999897e+00 +8.5265038650250098e+00 +0.0000000000000000e+00 +4.2372880968580704e+00 -2.6972947201960557e-02 -5.2547575972536542e-01 +5.4913409798715545e-03
4.1999999999999904e+00 +8.5264918818611495e+00 +0.0000000000000000e+00 +4.2881355530731398e+00 -2.6974118487259256e-02 -5.2550305923028029e-01 +5.4912451878812813e-03
4.2499999999999902e+00 +8.5264797556556005e+00 +0.0000000000000000e+00 +4.3389830092543002e+00 -2.6975303538375631e-02 -5.2553057739358089e-01 +5.4911474832479547e-03
4.2999999999999901e+00 +8.5264674864120007e+00 +0.0000000000000000e+00 +4.3898304654011504e+00 -2.6976502260510113e-02 -5.2555831152440291e-01 +5.4910478908851692e-03
4.3499999999999899e+00 +8.5264550741303502e+00 +0.0000000000000000e+00 +4.4406779215132799e+00 -2.6977714558865055e-02 -5.2558625893190591e-01 +5.4909464357066453e-03
4.3999999999999897e+00 +8.5264425188070199e+00 +0.0000000000000000e+00 +4.4915253775902899e+00 -2.6978940338644782e-02 -5.2561441692527278e-01 +5.4908431426262281e-03
4.4499999999999904e+00 +8.5264298204419902e+00 +0.0000000000000000e+00 +4.5423728336317897e+00 -2.6980179505052885e-02 -5.2564278281365995e-01 +5.4907380365573346e-03
4.4999999999999902e+00 +8.5264169790425495e+00 +0.0000000000000000e+00 +4.5932202896373502e+00 -2.6981431963290847e-02 -5.2567135390617059e-01 +5.4906311424126773e-03
4.5499999999999901e+00 +8.5264039945941494e+00 +0.0000000000000000e+00 +4.6440677456066002e+00 -2.6982697618568970e-02 -5.2570012751205819e-01 +5.4905224851064666e-03
4.5999999999999899e+00 +8.5263908671149693e+00 +0.0000000000000000e+00 +4.6949152015391098e+00 -2.6983976376085881e-02 -5.2572910094034464e-01 +5.4904120895502605e-03
4.6499999999999897e+00 +8.5263775965941004e+00 +0.0000000000000000e+00 +4.7457626574344998e+00 -2.6985268141051819e-02 -5.2575827150025245e-01 +5.4902999806576737e-03
4.6999999999999904e+00 +8.5263641830315500e+00 +0.0000000000000000e+00 +4.7966101132923500e+00 -2.6986572818673532e-02 -5.2578763650092430e-01 +5.4901861833413111e-03
4.7499999999999902e+00 +8.5263506264309399e+00 +0.0000000000000000e+00 +4.8474575691122697e+00 -2.6987890314157107e-02 -5.2581719325147458e-01 +5.4900707225133370e-03
4.7999999999999901e+00 +8.5263369267886393e+00 +0.0000000000000000e+00 +4.8983050248938502e+00 -2.6989220532712025e-02 -5.2584693906106439e-01 +5.4899536230863044e-03
4.8499999999999899e+00 +8.5263230841010191e+00 +0.0000000000000000e+00 +4.9491524806366902e+00 -2.6990563379548419e-02 -5.2587687123885096e-01 +5.4898349099725728e-03
4.8999999999999897e+00 +8.5263090983826295e+00 +0.0000000000000000e+00 +4.9999999363403900e+00 -2.6991918759870309e-02 -5.2590698709385941e-01 +5.4897146080829500e-03
4.9499999999999904e+00 +8.5262950649157592e+00 +0.0000000000000000e+00 +5.0505049848957304e+00 -2.6993277326724019e-02 -5.2593707931915157e-01 +5.4895935681744243e-03
4.9999999999999902e+00 +8.5262808896768494e+00 +0.0000000000000000e+00 +5.1010100334114901e+00 -2.6994648072673752e-02 -5.2596734746920759e-01 +5.4894710098547534e-03
5.0499999999999901e+00 +8.5262665726659197e+00 +0.0000000000000000e+00 +5.1515150818872497e+00 -2.6996030904833278e-02 -5.2599778890713900e-01 +5.4893469575353895e-03
5.0999999999999899e+00 +8.5262521138793108e+00 +0.0000000000000000e+00 +5.2020201303226203e+00 -2.6997425730318450e-02 -5.2602840099607839e-01 +5.4892214356278739e-03
5.1499999999999897e+00 +8.5262375133206696e+00 +0.0000000000000000e+00 +5.2525251787172103e+00 -2.6998832456243120e-02 -5.2605918109910188e-01 +5.4890944685430055e-03
5.1999999999999904e+00 +8.5262227709863492e+00 +0.0000000000000000e+00 +5.3030302270706198e+00 -2.7000250989724559e-02 -5.2609012657932985e-01 +5.4889660806919415e-03
5.2499999999999902e+00 +8.5262078868836397e+00 +0.0000000000000000e+00 +5.3535352753824403e+00 -2.7001681237876676e-02 -5.2612123479980111e-01 +5.4888362964848180e-03
5.2999999999999901e+00 +8.5261928610125306e+00 +0.0000000000000000e+00 +5.4040403236522803e+00 -2.7003123107816850e-02 -5.2615250312359840e-01 +5.4887051403321200e-03
5.3499999999999899e+00 +8.5261776933584805e+00 +0.0000000000000000e+00 +5.4545453718797399e+00 -2.7004576506668654e-02 -5.2618392891390031e-01 +5.4885726366452354e-03
5.3999999999999897e+00 +8.5261623839360308e+00 +0.0000000000000000e+00 +5.5050504200644301e+00 -2.7006041341545509e-02 -5.2621550953367457e-01 +5.4884388098331467e-03
5.4499999999999904e+00 +8.5261469327415398e+00 +0.0000000000000000e+00 +5.5555554682059496e+00 -2.7007517519568393e-02 -5.2624724234600873e-01 +5.4883036843060007e-03
5.4999999999999902e+00 +8.5261313397750200e+00 +0.0000000000000000e+00 +5.6060605163038897e+00 -2.7009004947857726e-02 -5.2627912471395810e-01 +5.4881672844734625e-03
5.5499999999999901e+00 +8.5261156050328299e+00 +0.0000000000000000e+00 +5.6565655643578596e+00 -2.7010503533536019e-02 -5.2631115400059547e-01 +5.4880296347452574e-03
5.5999999999999899e+00 +8.5260997285186004e+00 +0.0000000000000000e+00 +5.7070706123674597e+00 -2.7012013183723864e-02 -5.2634332756893454e-01 +5.4878907595303471e-03
5.6499999999999897e+00 +8.5260837102287006e+00 +0.0000000000000000e+00 +5.7575756603323001e+00 -2.7013533805545362e-02 -5.2637564278203197e-01 +5.4877506832380152e-03
5.6999999999999904e+00 +8.5260675501704100e+00 +0.0000000000000000e+00 +5.8080807082519703e+00 -2.7015065306121334e-02 -5.2640809700285962e-01 +5.4876094302765081e-03
5.7499999999999902e+00 +8.5260512483400799e+00 +0.0000000000000000e+00 +5.8585857561260797e+00 -2.7016607592577468e-02 -5.2644068759445639e-01 +5.4874670250546678e-03
5.7999999999999901e+00 +8.5260348047340795e+00 +0.0000000000000000e+00 +5.9090908039542303e+00 -2.7018160572040307e-02 -5.2647341191985297e-01 +5.4873234919811074e-03
5.8499999999999899e+00 +8.5260182193524106e+00 +0.0000000000000000e+00 +5.9595958517360303e+00 -2.7019724151635834e-02 -5.2650626734204453e-01 +5.4871788554639389e-03
5.8999999999999897e+00 +8.5260014921987004e+00 +0.0000000000000000e+00 +6.0101008994710599e+00 -2.7021298238317767e-02 -5.2653925122410916e-01 +5.4870331398817222e-03
