# trajectory
# s[mm] rx[mm] ry[mm] rz[mm] px[rad] py[rad] pz[rad]
0.0000000000000000e+00 +8.3650000000000002e+00 +0.0000000000000000e+00 +0.0000000000000000e+00 +0.0000000000000000e+00 +0.0000000000000000e+00 +1.0000000000000000e+00
-5.0000000000000003e-02 +8.3649999310974863e+00 +0.0000000000000000e+00 -4.9999999999936699e-02 +2.7561077539471974e-06 +0.0000000000000000e+00 +9.9999999999620193e-01
-1.0000000000000001e-01 +8.3649997243884915e+00 +0.0000000000000000e+00 -9.9999999999493591e-02 +5.5122595590310667e-06 +0.0000000000000000e+00 +9.9999999998480749e-01
-1.5000000000000002e-01 +8.3649993798707651e+00 +0.0000000000000000e+00 -1.4999999999829083e-01 +8.2684573109660928e-06 +0.0000000000000000e+00 +9.9999999996581634e-01
-2.0000000000000001e-01 +8.3649988975419625e+00 +0.0000000000000000e+00 -1.9999999999594859e-01 +1.1024702898433568e-05 +0.0000000000000000e+00 +9.9999999993922795e-01
-2.5000000000000000e-01 +8.3649982773996463e+00 +0.0000000000000000e+00 -2.4999999999208700e-01 +1.3780998203081669e-05 +0.0000000000000000e+00 +9.9999999990504207e-01
-2.9999999999999999e-01 +8.3649975194412818e+00 +0.0000000000000000e+00 -2.9999999998632615e-01 +1.6537345099525543e-05 +0.0000000000000000e+00 +9.9999999986325816e-01
-3.4999999999999998e-01 +8.3649966236642452e+00 +0.0000000000000000e+00 -3.4999999997828618e-01 +1.9293745455347400e-05 +0.0000000000000000e+00 +9.9999999981387577e-01
-3.9999999999999997e-01 +8.3649955900658153e+00 +0.0000000000000000e+00 -3.9999999996758712e-01 +2.2050201131096584e-05 +0.0000000000000000e+00 +9.9999999975689435e-01
-4.4999999999999996e-01 +8.3649944186431799e+00 +0.0000000000000000e+00 -4.4999999995384898e-01 +2.4806713980289658e-05 +0.0000000000000000e+00 +9.9999999969231346e-01
-4.9999999999999994e-01 +8.3649931093934331e+00 +0.0000000000000000e+00 -4.9999999993669181e-01 +2.7563285849410487e-05 +0.0000000000000000e+00 +9.9999999962013264e-01
-5.4999999999999993e-01 +8.3649916623135798e+00 +0.0000000000000000e+00 -5.4999999991573556e-01 +3.0319918577910316e-05 +0.0000000000000000e+00 +9.9999999954035124e-01
-5.9999999999999998e-01 +8.3649900774005310e+00 +0.0000000000000000e+00 -5.9999999989060027e-01 +3.3076613998207854e-05 +0.0000000000000000e+00 +9.9999999945296880e-01
-6.5000000000000002e-01 +8.3649883546511052e+00 +0.0000000000000000e+00 -6.4999999986090573e-01 +3.5833373935689339e-05 +0.0000000000000000e+00 +9.9999999935798467e-01
-7.0000000000000007e-01 +8.3649864940620322e+00 +0.0000000000000000e+00 -6.9999999982627203e-01 +3.8590200208708642e-05 +0.0000000000000000e+00 +9.9999999925539829e-01
-7.5000000000000011e-01 +8.3649844956299493e+00 +0.0000000000000000e+00 -7.4999999978631893e-01 +4.1347094628587310e-05 +0.0000000000000000e+00 +9.9999999914520898e-01
-8.0000000000000016e-01 +8.3649823593514032e+00 +0.0000000000000000e+00 -7.9999999974066627e-01 +4.4104058999614679e-05 +0.0000000000000000e+00 +9.9999999902741610e-01
-8.5000000000000020e-01 +8.3649800852228537e+00 +0.0000000000000000e+00 -8.4999999968893380e-01 +4.6861095119047917e-05 +0.0000000000000000e+00 +9.9999999890201896e-01
-9.0000000000000024e-01 +8.3649776732406664e+00 +0.0000000000000000e+00 -8.9999999963074140e-01 +4.9618204777112108e-05 +0.0000000000000000e+00 +9.9999999876901691e-01
-9.5000000000000029e-01 +8.3649751234011198e+00 +0.0000000000000000e+00 -9.4999999956570869e-01 +5.2375389757000348e-05 +0.0000000000000000e+00 +9.9999999862840927e-01
-1.0000000000000002e+00 +8.3649724357004054e+00 +0.0000000000000000e+00 -9.9999999949345553e-01 +5.5132651834873797e-05 +0.0000000000000000e+00 +9.9999999848019538e-01
-1.0500000000000003e+00 +8.3649696101346223e+00 +0.0000000000000000e+00 -1.0499999994136016e+00 +5.7889992779861738e-05 +0.0000000000000000e+00 +9.9999999832437436e-01
-1.1000000000000003e+00 +8.3649666466997843e+00 +0.0000000000000000e+00 -1.0999999993257663e+00 +6.0647414354061686e-05 +0.0000000000000000e+00 +9.9999999816094554e-01
-1.1500000000000004e+00 +8.3649635453918147e+00 +0.0000000000000000e+00 -1.1499999992295693e+00 +6.3404918312539432e-05 +0.0000000000000000e+00 +9.9999999798990813e-01
-1.2000000000000004e+00 +8.3649603062065516e+00 +0.0000000000000000e+00 -1.1999999991246302e+00 +6.6162506403329122e-05 +0.0000000000000000e+00 +9.9999999781126137e-01
-1.2500000000000004e+00 +8.3649569291397441e+00 +0.0000000000000000e+00 -1.2499999990105686e+00 +6.8920180367433321e-05 +0.0000000000000000e+00 +9.9999999762500436e-01
-1.3000000000000005e+00 +8.3649534141870543e+00 +0.0000000000000000e+00 -1.2999999988870039e+00 +7.1677941938823081e-05 +0.0000000000000000e+00 +9.9999999743113632e-01
-1.3500000000000005e+00 +8.3649497613440609e+00 +0.0000000000000000e+00 -1.3499999987535554e+00 +7.4435792844438026e-05 +0.0000000000000000e+00 +9.9999999722965638e-01
-1.4000000000000006e+00 +8.3649459706062519e+00 +0.0000000000000000e+00 -1.3999999986098426e+00 +7.7193734804186388e-05 +0.0000000000000000e+00 +9.9999999702056364e-01
-1.4500000000000006e+00 +8.3649420419690337e+00 +0.0000000000000000e+00 -1.4499999984554848e+00 +7.9951769530945104e-05 +0.0000000000000000e+00 +9.9999999680385721e-01
-1.5000000000000007e+00 +8.3649379754277238e+00 +0.0000000000000000e+00 -1.4999999982901013e+00 +8.2709898730559873e-05 +0.0000000000000000e+00 +9.9999999657953631e-01
-1.5500000000000007e+00 +8.3649337709775580e+00 +0.0000000000000000e+00 -1.5499999981133115e+00 +8.5468124101845217e-05 +0.0000000000000000e+00 +9.9999999634759984e-01
-1.6000000000000008e+00 +8.3649294286136833e+00 +0.0000000000000000e+00 -1.5999999979247344e+00 +8.8226447336584528e-05 +0.0000000000000000e+00 +9.9999999610804691e-01
-1.6500000000000008e+00 +8.3649249483311650e+00 +0.0000000000000000e+00 -1.6499999977239892e+00 +9.0984870119530147e-05 +0.0000000000000000e+00 +9.9999999586087662e-01
-1.7000000000000008e+00 +8.3649203301249848e+00 +0.0000000000000000e+00 -1.6999999975106950e+00 +9.3743394128403457e-05 +0.0000000000000000e+00 +9.9999999560608799e-01
-1.7500000000000009e+00 +8.3649155739900376e+00 +0.0000000000000000e+00 -1.7499999972844709e+00 +9.6502021033894887e-05 +0.0000000000000000e+00 +9.9999999534367989e-01
-1.8000000000000009e+00 +8.3649106799211381e+00 +0.0000000000000000e+00 -1.7999999970449359e+00 +9.9260752499664016e-05 +0.0000000000000000e+00 +9.9999999507365145e-01
-1.8500000000000010e+00 +8.3649056479130177e+00 +0.0000000000000000e+00 -1.8499999967917089e+00 +1.0201959018233960e-04 +0.0000000000000000e+00 +9.9999999479600155e-01
-1.9000000000000010e+00 +8.3649004779603224e+00 +0.0000000000000000e+00 -1.8999999965244090e+00 +1.0477853573151967e-04 +0.0000000000000000e+00 +9.9999999451072918e-01
-1.9500000000000011e+00 +8.3648951700576184e+00 +0.0000000000000000e+00 -1.9499999962426549e+00 +1.0753759078977157e-04 +0.0000000000000000e+00 +9.9999999421783325e-01
-2.0000000000000009e+00 +8.3648897241993900e+00 +0.0000000000000000e+00 -1.9999999959460653e+00 +1.1029675699263198e-04 +0.0000000000000000e+00 +9.9999999391731265e-01
-2.0500000000000007e+00 +8.3648841403800400e+00 +0.0000000000000000e+00 -2.0499999956342592e+00 +1.1305603596833708e-04 +0.0000000000000000e+00 +9.9999999360916636e-01
-2.1000000000000005e+00 +8.3648784185938876e+00 +0.0000000000000000e+00 -2.0999999953068551e+00 +1.1581542933485294e-04 +0.0000000000000000e+00 +9.9999999329339317e-01
-2.1500000000000004e+00 +8.3648725588351738e+00 +0.0000000000000000e+00 -2.1499999949634714e+00 +1.1857493869690587e-04 +0.0000000000000000e+00 +9.9999999296999198e-01
-2.2000000000000002e+00 +8.3648665610980579e+00 +0.0000000000000000e+00 -2.1999999946037270e+00 +1.2133456564571260e-04 +0.0000000000000000e+00 +9.9999999263896167e-01
-2.2500000000000000e+00 +8.3648604253766230e+00 +0.0000000000000000e+00 -2.2499999942272404e+00 +1.2409431175898028e-04 +0.0000000000000000e+00 +9.9999999230030101e-01
-2.2999999999999998e+00 +8.3648541516648702e+00 +0.0000000000000000e+00 -2.2999999938336297e+00 +1.2685417860090650e-04 +0.0000000000000000e+00 +9.9999999195400879e-01
-2.3499999999999996e+00 +8.3648477399567245e+00 +0.0000000000000000e+00 -2.3499999934225140e+00 +1.2961416772217939e-04 +0.0000000000000000e+00 +9.9999999160008390e-01
-2.3999999999999995e+00 +8.3648411902460342e+00 +0.0000000000000000e+00 -2.3999999929935112e+00 +1.3237428065997762e-04 +0.0000000000000000e+00 +9.9999999123852501e-01
-2.4499999999999993e+00 +8.3648345025265698e+00 +0.0000000000000000e+00 -2.4499999925462395e+00 +1.3513451893797047e-04 +0.0000000000000000e+00 +9.9999999086933100e-01
-2.4999999999999991e+00 +8.3648276767920269e+00 +0.0000000000000000e+00 -2.4999999920803169e+00 +1.3789488406631785e-04 +0.0000000000000000e+00 +9.9999999049250055e-01
-2.5499999999999989e+00 +8.3648207130360248e+00 +0.0000000000000000e+00 -2.5499999915953619e+00 +1.4065537754167035e-04 +0.0000000000000000e+00 +9.9999999010803242e-01
-2.5999999999999988e+00 +8.3648136112521083e+00 +0.0000000000000000e+00 -2.5999999910909928e+00 +1.4341600084716926e-04 +0.0000000000000000e+00 +9.9999998971592541e-01
-2.6499999999999986e+00 +8.3648063714337511e+00 +0.0000000000000000e+00 -2.6499999905668270e+00 +1.4617675545244667e-04 +0.0000000000000000e+00 +9.9999998931617817e-01
-2.6999999999999984e+00 +8.3647989935743503e+00 +0.0000000000000000e+00 -2.6999999900224831e+00 +1.4893764281362544e-04 +0.0000000000000000e+00 +9.9999998890878938e-01
-2.7499999999999982e+00 +8.3647914776672323e+00 +0.0000000000000000e+00 -2.7499999894575788e+00 +1.5169866437331924e-04 +0.0000000000000000e+00 +9.9999998849375771e-01
-2.7999999999999980e+00 +8.3647838237056522e+00 +0.0000000000000000e+00 -2.7999999888717317e+00 +1.5445982156063264e-04 +0.0000000000000000e+00 +9.9999998807108181e-01
-2.8499999999999979e+00 +8.3647760316827924e+00 +0.0000000000000000e+00 -2.8499999882645595e+00 +1.5722111579116106e-04 +0.0000000000000000e+00 +9.9999998764076037e-01
-2.8999999999999977e+00 +8.3647681015917659e+00 +0.0000000000000000e+00 -2.8999999876356801e+00 +1.5998254846699085e-04 +0.0000000000000000e+00 +9.9999998720279204e-01
-2.9499999999999975e+00 +8.3647600334256147e+00 +0.0000000000000000e+00 -2.9499999869847113e+00 +1.6274412097669935e-04 +0.0000000000000000e+00 +9.9999998675717550e-01
-2.9999999999999973e+00 +8.3647518271773134e+00 +0.0000000000000000e+00 -2.9999999863112703e+00 +1.6550583469535486e-04 +0.0000000000000000e+00 +9.9999998630390929e-01
-3.0499999999999972e+00 +8.3647434828397689e+00 +0.0000000000000000e+00 -3.0499999856149747e+00 +1.6826769098451672e-04 +0.0000000000000000e+00 +9.9999998584299199e-01
-3.0999999999999970e+00 +8.3647350004058172e+00 +0.0000000000000000e+00 -3.0999999848954420e+00 +1.7102969119223529e-04 +0.0000000000000000e+00 +9.9999998537442225e-01
-3.1499999999999968e+00 +8.3647263798682285e+00 +0.0000000000000000e+00 -3.1499999841522897e+00 +1.7379183665305198e-04 +0.0000000000000000e+00 +9.9999998489819864e-01
-3.1999999999999966e+00 +8.3647176212197092e+00 +0.0000000000000000e+00 -3.1999999833851347e+00 +1.7655412868799935e-04 +0.0000000000000000e+00 +9.9999998441431970e-01
-3.2499999999999964e+00 +8.3647087244528961e+00 +0.0000000000000000e+00 -3.2499999825935943e+00 +1.7931656860460101e-04 +0.0000000000000000e+00 +9.9999998392278400e-01
-3.2999999999999963e+00 +8.3646996895603625e+00 +0.0000000000000000e+00 -3.2999999817772858e+00 +1.8207915769687173e-04 +0.0000000000000000e+00 +9.9999998342359009e-01
-3.3499999999999961e+00 +8.3646905165346190e+00 +0.0000000000000000e+00 -3.3499999809358258e+00 +1.8484189724531747e-04 +0.0000000000000000e+00 +9.9999998291673642e-01
-3.3999999999999959e+00 +8.3646812053681092e+00 +0.0000000000000000e+00 -3.3999999800688316e+00 +1.8760478851693533e-04 +0.0000000000000000e+00 +9.9999998240222154e-01
-3.4499999999999957e+00 +8.3646717560532178e+00 +0.0000000000000000e+00 -3.4499999791759204e+00 +1.9036783276521363e-04 +0.0000000000000000e+00 +9.9999998188004402e-01
-3.4999999999999956e+00 +8.3646621685822637e+00 +0.0000000000000000e+00 -3.4999999782567084e+00 +1.9313103123013190e-04 +0.0000000000000000e+00 +9.9999998135020229e-01
-3.5499999999999954e+00 +8.3646524429475040e+00 +0.0000000000000000e+00 -3.5499999773108128e+00 +1.9589438513816090e-04 +0.0000000000000000e+00 +9.9999998081269481e-01
-3.5999999999999952e+00 +8.3646425791411385e+00 +0.0000000000000000e+00 -3.5999999763378501e+00 +1.9865789570226266e-04 +0.0000000000000000e+00 +9.9999998026752013e-01
-3.6499999999999950e+00 +8.3646325771553034e+00 +0.0000000000000000e+00 -3.6499999753374368e+00 +2.0142156412189044e-04 +0.0000000000000000e+00 +9.9999997971467658e-01
-3.6999999999999948e+00 +8.3646224369820761e+00 +0.0000000000000000e+00 -3.6999999743091898e+00 +2.0418539158298878e-04 +0.0000000000000000e+00 +9.9999997915416272e-01
-3.7499999999999947e+00 +8.3646121586134754e+00 +0.0000000000000000e+00 -3.7499999732527254e+00 +2.0694937925799353e-04 +0.0000000000000000e+00 +9.9999997858597700e-01
-3.7999999999999945e+00 +8.3646017420414616e+00 +0.0000000000000000e+00 -3.7999999721676598e+00 +2.0971352830583182e-04 +0.0000000000000000e+00 +9.9999997801011775e-01
-3.8499999999999943e+00 +8.3645911872579362e+00 +0.0000000000000000e+00 -3.8499999710536095e+00 +2.1247783987192212e-04 +0.0000000000000000e+00 +9.9999997742658353e-01
-3.8999999999999941e+00 +8.3645804942547457e+00 +0.0000000000000000e+00 -3.8999999699101902e+00 +2.1524231508817415e-04 +0.0000000000000000e+00 +9.9999997683537267e-01
-3.9499999999999940e+00 +8.3645696630236799e+00 +0.0000000000000000e+00 -3.9499999687370186e+00 +2.1800695507298904e-04 +0.0000000000000000e+00 +9.9999997623648351e-01
-3.9999999999999938e+00 +8.3645586935564733e+00 +0.0000000000000000e+00 -3.9999999675337108e+00 +2.2077176093125917e-04 +0.0000000000000000e+00 +9.9999997562991449e-01
-4.0499999999999936e+00 +8.3645475858448037e+00 +0.0000000000000000e+00 -4.0499999662998825e+00 +2.2353673375433654e-04 +0.0000000000000000e+00 +9.9999997501566407e-01
-4.0999999999999934e+00 +8.3645363398802974e+00 +0.0000000000000000e+00 -4.0999999650351491e+00 +2.2630187461968352e-04 +0.0000000000000000e+00 +9.9999997439373045e-01
-4.1499999999999932e+00 +8.3645249556545238e+00 +0.0000000000000000e+00 -4.1499999637391269e+00 +2.2906718459052351e-04 +0.0000000000000000e+00 +9.9999997376411209e-01
-4.1999999999999931e+00 +8.3645134331590025e+00 +0.0000000000000000e+00 -4.1999999624114324e+00 +2.3183266471580929e-04 +0.0000000000000000e+00 +9.9999997312680744e-01
-4.2499999999999929e+00 +8.3645017723852000e+00 +0.0000000000000000e+00 -4.2499999610516799e+00 +2.3459831603022299e-04 +0.0000000000000000e+00 +9.9999997248181471e-01
-4.2999999999999927e+00 +8.3644899733245293e+00 +0.0000000000000000e+00 -4.2999999596594858e+00 +2.3736413955417602e-04 +0.0000000000000000e+00 +9.9999997182913225e-01
-4.3499999999999925e+00 +8.3644780359683573e+00 +0.0000000000000000e+00 -4.3499999582344655e+00 +2.4013013629380916e-04 +0.0000000000000000e+00 +9.9999997116875838e-01
-4.3999999999999924e+00 +8.3644659603079976e+00 +0.0000000000000000e+00 -4.3999999567762336e+00 +2.4289630724099251e-04 +0.0000000000000000e+00 +9.9999997050069156e-01
-4.4499999999999922e+00 +8.3644537463347142e+00 +0.0000000000000000e+00 -4.4499999552844063e+00 +2.4566265337332545e-04 +0.0000000000000000e+00 +9.9999996982492989e-01
-4.4999999999999920e+00 +8.3644413940397246e+00 +0.0000000000000000e+00 -4.4999999537585982e+00 +2.4842917565413673e-04 +0.0000000000000000e+00 +9.9999996914147182e-01
-4.5499999999999918e+00 +8.3644289034141970e+00 +0.0000000000000000e+00 -4.5499999521984247e+00 +2.5119587503248431e-04 +0.0000000000000000e+00 +9.9999996845031569e-01
-4.5999999999999917e+00 +8.3644162744492530e+00 +0.0000000000000000e+00 -4.5999999506035012e+00 +2.5396275244315552e-04 +0.0000000000000000e+00 +9.9999996775145972e-01
-4.6499999999999915e+00 +8.3644035071359699e+00 +0.0000000000000000e+00 -4.6499999489734423e+00 +2.5672980880666696e-04 +0.0000000000000000e+00 +9.9999996704490213e-01
-4.6999999999999913e+00 +8.3643906014653755e+00 +0.0000000000000000e+00 -4.6999999473078633e+00 +2.5949704502926441e-04 +0.0000000000000000e+00 +9.9999996633064125e-01
-4.7499999999999911e+00 +8.3643775574284547e+00 +0.0000000000000000e+00 -4.7499999456063779e+00 +2.6226446200292296e-04 +0.0000000000000000e+00 +9.9999996560867543e-01
-4.7999999999999909e+00 +8.3643643750161480e+00 +0.0000000000000000e+00 -4.7999999438686016e+00 +2.6503206060534692e-04 +0.0000000000000000e+00 +9.9999996487900289e-01
-4.8499999999999908e+00 +8.3643510542193518e+00 +0.0000000000000000e+00 -4.8499999420941498e+00 +2.6779984169996980e-04 +0.0000000000000000e+00 +9.9999996414162184e-01
-4.8999999999999906e+00 +8.3643375950289212e+00 +0.0000000000000000e+00 -4.8999999402826360e+00 +2.7056780613595436e-04 +0.0000000000000000e+00 +9.9999996339653052e-01
-4.9499999999999904e+00 +8.3643239974356689e+00 +0.0000000000000000e+00 -4.9499999384336748e+00 +2.7333595474819244e-04 +0.0000000000000000e+00 +9.9999996264372726e-01
-4.9999999999999902e+00 +8.3643102614303633e+00 +0.0000000000000000e+00 -4.9999999365468808e+00 +2.7610428835730505e-04 +0.0000000000000000e+00 +9.9999996188321028e-01
-5.0499999999999901e+00 +8.3642963870037352e+00 +0.0000000000000000e+00 -5.0499999346218676e+00 +2.7887280776964240e-04 +0.0000000000000000e+00 +9.9999996111497780e-01
-5.0999999999999899e+00 +8.3642823741464749e+00 +0.0000000000000000e+00 -5.0999999326582497e+00 +2.8164151377728375e-04 +0.0000000000000000e+00 +9.9999996033902805e-01
-5.1499999999999897e+00 +8.3642682228492333e+00 +0.0000000000000000e+00 -5.1499999306556417e+00 +2.8441040715803745e-04 +0.0000000000000000e+00 +9.9999995955535936e-01
-5.1999999999999895e+00 +8.3642539331026224e+00 +0.0000000000000000e+00 -5.1999999286136571e+00 +2.8717948867544097e-04 +0.0000000000000000e+00 +9.9999995876396985e-01
-5.2499999999999893e+00 +8.3642395048972169e+00 +0.0000000000000000e+00 -5.2499999265319097e+00 +2.8994875907876073e-04 +0.0000000000000000e+00 +9.9999995796485774e-01
-5.2999999999999892e+00 +8.3642249382235541e+00 +0.0000000000000000e+00 -5.2999999244100140e+00 +2.9271821910299212e-04 +0.0000000000000000e+00 +9.9999995715802126e-01
-5.3499999999999890e+00 +8.3642102330721340e+00 +0.0000000000000000e+00 -5.3499999222475836e+00 +2.9548786946885963e-04 +0.0000000000000000e+00 +9.9999995634345862e-01
-5.3999999999999888e+00 +8.3641953894334229e+00 +0.0000000000000000e+00 -5.3999999200442312e+00 +2.9825771088281655e-04 +0.0000000000000000e+00 +9.9999995552116805e-01
-5.4499999999999886e+00 +8.3641804072978498e+00 +0.0000000000000000e+00 -5.4499999177995715e+00 +3.0102774403704518e-04 +0.0000000000000000e+00 +9.9999995469114777e-01
-5.4999999999999885e+00 +8.3641652866558118e+00 +0.0000000000000000e+00 -5.4999999155132171e+00 +3.0379796960945665e-04 +0.0000000000000000e+00 +9.9999995385339591e-01
-5.5499999999999883e+00 +8.3641500274976703e+00 +0.0000000000000000e+00 -5.5499999131847817e+00 +3.0656838826369096e-04 +0.0000000000000000e+00 +9.9999995300791067e-01
-5.5999999999999881e+00 +8.3641346298137567e+00 +0.0000000000000000e+00 -5.5999999108138789e+00 +3.0933900064911688e-04 +0.0000000000000000e+00 +9.9999995215469029e-01
-5.6499999999999879e+00 +8.3641190935943666e+00 +0.0000000000000000e+00 -5.6499999084001216e+00 +3.1210980740083199e-04 +0.0000000000000000e+00 +9.9999995129373298e-01
-5.6999999999999877e+00 +8.3641034188297674e+00 +0.0000000000000000e+00 -5.6999999059431232e+00 +3.1488080913966252e-04 +0.0000000000000000e+00 +9.9999995042503687e-01
-5.7499999999999876e+00 +8.3640876055101927e+00 +0.0000000000000000e+00 -5.7499999034424967e+00 +3.1765200647216344e-04 +0.0000000000000000e+00 +9.9999994954860016e-01
-5.7999999999999874e+00 +8.3640716536258495e+00 +0.0000000000000000e+00 -5.7999999008978547e+00 +3.2042339999061834e-04 +0.0000000000000000e+00 +9.9999994866442110e-01
-5.8499999999999872e+00 +8.3640555631669145e+00 +0.0000000000000000e+00 -5.8499998983088100e+00 +3.2319499027303947e-04 +0.0000000000000000e+00 +9.9999994777249779e-01
