# trajectory
# s[mm] rx[mm] ry[mm] rz[mm] px[rad] py[rad] pz[rad]
0.0000000000000000e+00 +8.2850000000000001e+00 +0.0000000000000000e+00 +0.0000000000000000e+00 +0.0000000000000000e+00 +0.0000000000000000e+00 +1.0000000000000000e+00
5.0000000000000003e-02 +8.2849999308642275e+00 +0.0000000000000000e+00 +4.9999999999936276e-02 -2.7654305523355806e-06 +0.0000000000000000e+00 +9.9999999999617617e-01
1.0000000000000001e-01 +8.2849997234569681e+00 +0.0000000000000000e+00 +9.9999999999490163e-02 -5.5308598073051617e-06 +0.0000000000000000e+00 +9.9999999998470479e-01
1.5000000000000002e-01 +8.2849993777782363e+00 +0.0000000000000000e+00 +1.4999999999827929e-01 -8.2962897716026884e-06 +0.0000000000000000e+00 +9.9999999996558575e-01
2.0000000000000001e-01 +8.2849988938279466e+00 +0.0000000000000000e+00 +1.9999999999592127e-01 -1.1061722447959051e-05 +0.0000000000000000e+00 +9.9999999993881916e-01
2.5000000000000000e-01 +8.2849982716059127e+00 +0.0000000000000000e+00 +2.4999999999203373e-01 -1.3827159835142183e-05 +0.0000000000000000e+00 +9.9999999990440480e-01
2.9999999999999999e-01 +8.2849975111118503e+00 +0.0000000000000000e+00 +2.9999999998623428e-01 -1.6592603927957153e-05 +0.0000000000000000e+00 +9.9999999986234267e-01
3.4999999999999998e-01 +8.2849966123453740e+00 +0.0000000000000000e+00 +3.4999999997814052e-01 -1.9358056717246253e-05 +0.0000000000000000e+00 +9.9999999981263277e-01
3.9999999999999997e-01 +8.2849955753060005e+00 +0.0000000000000000e+00 +3.9999999996737007e-01 -2.2123520189889094e-05 +0.0000000000000000e+00 +9.9999999975527487e-01
4.4999999999999996e-01 +8.2849943999931437e+00 +0.0000000000000000e+00 +4.4999999995354051e-01 -2.4888996328802690e-05 +0.0000000000000000e+00 +9.9999999969026887e-01
4.9999999999999994e-01 +8.2849930864061232e+00 +0.0000000000000000e+00 +4.9999999993626948e-01 -2.7654487112941552e-05 +0.0000000000000000e+00 +9.9999999961761465e-01
5.4999999999999993e-01 +8.2849916345441557e+00 +0.0000000000000000e+00 +5.4999999991517456e-01 -3.0419994517297783e-05 +0.0000000000000000e+00 +9.9999999953731200e-01
5.9999999999999998e-01 +8.2849900444063618e+00 +0.0000000000000000e+00 +5.9999999988987329e-01 -3.3185520512901154e-05 +0.0000000000000000e+00 +9.9999999944936069e-01
6.5000000000000002e-01 +8.2849883159917628e+00 +0.0000000000000000e+00 +6.4999999985998325e-01 -3.5951067066819195e-05 +0.0000000000000000e+00 +9.9999999935376049e-01
7.0000000000000007e-01 +8.2849864492992804e+00 +0.0000000000000000e+00 +6.9999999982512195e-01 -3.8716636142157295e-05 +0.0000000000000000e+00 +9.9999999925051120e-01
7.5000000000000011e-01 +8.2849844443277405e+00 +0.0000000000000000e+00 +7.4999999978490695e-01 -4.1482229698058778e-05 +0.0000000000000000e+00 +9.9999999913961246e-01
8.0000000000000016e-01 +8.2849823010758694e+00 +0.0000000000000000e+00 +7.9999999973895575e-01 -4.4247849689704981e-05 +0.0000000000000000e+00 +9.9999999902106407e-01
8.5000000000000020e-01 +8.2849800195422976e+00 +0.0000000000000000e+00 +8.4999999968688589e-01 -4.7013498068315349e-05 +0.0000000000000000e+00 +9.9999999889486568e-01
9.0000000000000024e-01 +8.2849775997255559e+00 +0.0000000000000000e+00 +8.9999999962831478e-01 -4.9779176781147527e-05 +0.0000000000000000e+00 +9.9999999876101697e-01
9.5000000000000029e-01 +8.2849750416240813e+00 +0.0000000000000000e+00 +9.4999999956286008e-01 -5.2544887771497432e-05 +0.0000000000000000e+00 +9.9999999861951760e-01
1.0000000000000002e+00 +8.2849723452362092e+00 +0.0000000000000000e+00 +9.9999999949013907e-01 -5.5310632978699333e-05 +0.0000000000000000e+00 +9.9999999847036714e-01
1.0500000000000003e+00 +8.2849695105601810e+00 +0.0000000000000000e+00 +1.0499999994097693e+00 -5.8076414338125947e-05 +0.0000000000000000e+00 +9.9999999831356523e-01
1.1000000000000003e+00 +8.2849665375941406e+00 +0.0000000000000000e+00 +1.0999999993213680e+00 -6.0842233781188518e-05 +0.0000000000000000e+00 +9.9999999814911145e-01
1.1500000000000004e+00 +8.2849634263361356e+00 +0.0000000000000000e+00 +1.1499999992245529e+00 -6.3608093235336896e-05 +0.0000000000000000e+00 +9.9999999797700534e-01
1.2000000000000004e+00 +8.2849601767841179e+00 +0.0000000000000000e+00 +1.1999999991189410e+00 -6.6373994624059596e-05 +0.0000000000000000e+00 +9.9999999779724646e-01
1.2500000000000004e+00 +8.2849567889359417e+00 +0.0000000000000000e+00 +1.2499999990041499e+00 -6.9139939866883922e-05 +0.0000000000000000e+00 +9.9999999760983438e-01
1.3000000000000005e+00 +8.2849532627893669e+00 +0.0000000000000000e+00 +1.2999999988797970e+00 -7.1905930879376007e-05 +0.0000000000000000e+00 +9.9999999741476853e-01
1.3500000000000005e+00 +8.2849495983420578e+00 +0.0000000000000000e+00 +1.3499999987454994e+00 -7.4671969573140921e-05 +0.0000000000000000e+00 +9.9999999721204846e-01
1.4000000000000006e+00 +8.2849457955915824e+00 +0.0000000000000000e+00 +1.3999999986008742e+00 -7.7438057855822739e-05 +0.0000000000000000e+00 +9.9999999700167364e-01
1.4500000000000006e+00 +8.2849418545354130e+00 +0.0000000000000000e+00 +1.4499999984455390e+00 -8.0204197631104590e-05 +0.0000000000000000e+00 +9.9999999678364337e-01
1.5000000000000007e+00 +8.2849377751709294e+00 +0.0000000000000000e+00 +1.4999999982791108e+00 -8.2970390798708783e-05 +0.0000000000000000e+00 +9.9999999655795713e-01
1.5500000000000007e+00 +8.2849335574954122e+00 +0.0000000000000000e+00 +1.5499999981012069e+00 -8.5736639254396847e-05 +0.0000000000000000e+00 +9.9999999632461434e-01
1.6000000000000008e+00 +8.2849292015060509e+00 +0.0000000000000000e+00 +1.5999999979114445e+00 -8.8502944889969626e-05 +0.0000000000000000e+00 +9.9999999608361434e-01
1.6500000000000008e+00 +8.2849247071999397e+00 +0.0000000000000000e+00 +1.6499999977094406e+00 -9.1269309593267346e-05 +0.0000000000000000e+00 +9.9999999583495658e-01
1.7000000000000008e+00 +8.2849200745740763e+00 +0.0000000000000000e+00 +1.6999999974948123e+00 -9.4035735248169683e-05 +0.0000000000000000e+00 +9.9999999557864028e-01
1.7500000000000009e+00 +8.2849153036253682e+00 +0.0000000000000000e+00 +1.7499999972671769e+00 -9.6802223734595845e-05 +0.0000000000000000e+00 +9.9999999531466477e-01
1.8000000000000009e+00 +8.2849103943506250e+00 +0.0000000000000000e+00 +1.7999999970261511e+00 -9.9568776928504651e-05 +0.0000000000000000e+00 +9.9999999504302939e-01
1.8500000000000010e+00 +8.2849053467465659e+00 +0.0000000000000000e+00 +1.8499999967713521e+00 -1.0233539670189458e-04 +0.0000000000000000e+00 +9.9999999476373336e-01
1.9000000000000010e+00 +8.2849001608098138e+00 +0.0000000000000000e+00 +1.8999999965023968e+00 -1.0510208492280387e-04 +0.0000000000000000e+00 +9.9999999447677590e-01
1.9500000000000011e+00 +8.2848948365369015e+00 +0.0000000000000000e+00 +1.9499999962189021e+00 -1.0786884345531058e-04 +0.0000000000000000e+00 +9.9999999418215635e-01
2.0000000000000009e+00 +8.2848893739242655e+00 +0.0000000000000000e+00 +1.9999999959204848e+00 -1.1063567415953266e-04 +0.0000000000000000e+00 +9.9999999387987382e-01
2.0500000000000007e+00 +8.2848837729682518e+00 +0.0000000000000000e+00 +2.0499999956067616e+00 -1.1340257889133467e-04 +0.0000000000000000e+00 +9.9999999356992753e-01
2.1000000000000005e+00 +8.2848780336651124e+00 +0.0000000000000000e+00 +2.0999999952773498e+00 -1.1616955949910136e-04 +0.0000000000000000e+00 +9.9999999325231670e-01
2.1500000000000004e+00 +8.2848721560110068e+00 +0.0000000000000000e+00 +2.1499999949318656e+00 -1.1893661782051116e-04 +0.0000000000000000e+00 +9.9999999292704045e-01
2.2000000000000002e+00 +8.2848661400020038e+00 +0.0000000000000000e+00 +2.1999999945699260e+00 -1.2170375568224288e-04 +0.0000000000000000e+00 +9.9999999259409789e-01
2.2500000000000000e+00 +8.2848599856340819e+00 +0.0000000000000000e+00 +2.2499999941911475e+00 -1.2447097489997588e-04 +0.0000000000000000e+00 +9.9999999225348812e-01
2.2999999999999998e+00 +8.2848536929031269e+00 +0.0000000000000000e+00 +2.2999999937951467e+00 -1.2723827727839009e-04 +0.0000000000000000e+00 +9.9999999190521027e-01
2.3499999999999996e+00 +8.2848472618049378e+00 +0.0000000000000000e+00 +2.3499999933815405e+00 -1.3000566461116600e-04 +0.0000000000000000e+00 +9.9999999154926345e-01
2.3999999999999995e+00 +8.2848406923352211e+00 +0.0000000000000000e+00 +2.3999999929499451e+00 -1.3277313868098489e-04 +0.0000000000000000e+00 +9.9999999118564664e-01
2.4499999999999993e+00 +8.2848339844895946e+00 +0.0000000000000000e+00 +2.4499999924999774e+00 -1.3554070125952874e-04 +0.0000000000000000e+00 +9.9999999081435897e-01
2.4999999999999991e+00 +8.2848271382635907e+00 +0.0000000000000000e+00 +2.4999999920312534e+00 -1.3830835410748039e-04 +0.0000000000000000e+00 +9.9999999043539944e-01
2.5499999999999989e+00 +8.2848201536526513e+00 +0.0000000000000000e+00 +2.5499999915433897e+00 -1.4107609897452358e-04 +0.0000000000000000e+00 +9.9999999004876705e-01
2.5999999999999988e+00 +8.2848130306521313e+00 +0.0000000000000000e+00 +2.5999999910360025e+00 -1.4384393759934300e-04 +0.0000000000000000e+00 +9.9999998965446069e-01
2.6499999999999986e+00 +8.2848057692573001e+00 +0.0000000000000000e+00 +2.6499999905087082e+00 -1.4661187170962437e-04 +0.0000000000000000e+00 +9.9999998925247946e-01
2.6999999999999984e+00 +8.2847983694633403e+00 +0.0000000000000000e+00 +2.6999999899611229e+00 -1.4937990302205453e-04 +0.0000000000000000e+00 +9.9999998884282215e-01
2.7499999999999982e+00 +8.2847908312653491e+00 +0.0000000000000000e+00 +2.7499999893928626e+00 -1.5214803324232142e-04 +0.0000000000000000e+00 +9.9999998842548787e-01
2.7999999999999980e+00 +8.2847831546583386e+00 +0.0000000000000000e+00 +2.7999999888035436e+00 -1.5491626406511421e-04 +0.0000000000000000e+00 +9.9999998800047540e-01
2.8499999999999979e+00 +8.2847753396372372e+00 +0.0000000000000000e+00 +2.8499999881927822e+00 -1.5768459717412339e-04 +0.0000000000000000e+00 +9.9999998756778374e-01
2.8999999999999977e+00 +8.2847673861968882e+00 +0.0000000000000000e+00 +2.8999999875601943e+00 -1.6045303424204072e-04 +0.0000000000000000e+00 +9.9999998712741178e-01
2.9499999999999975e+00 +8.2847592943320532e+00 +0.0000000000000000e+00 +2.9499999869053957e+00 -1.6322157693055944e-04 +0.0000000000000000e+00 +9.9999998667935830e-01
2.9999999999999973e+00 +8.2847510640374082e+00 +0.0000000000000000e+00 +2.9999999862280022e+00 -1.6599022689037419e-04 +0.0000000000000000e+00 +9.9999998622362218e-01
3.0499999999999972e+00 +8.2847426953075498e+00 +0.0000000000000000e+00 +3.0499999855276299e+00 -1.6875898576118115e-04 +0.0000000000000000e+00 +9.9999998576020221e-01
3.0999999999999970e+00 +8.2847341881369907e+00 +0.0000000000000000e+00 +3.0999999848038944e+00 -1.7152785517167809e-04 +0.0000000000000000e+00 +9.9999998528909728e-01
3.1499999999999968e+00 +8.2847255425201638e+00 +0.0000000000000000e+00 +3.1499999840564117e+00 -1.7429683673956438e-04 +0.0000000000000000e+00 +9.9999998481030616e-01
3.1999999999999966e+00 +8.2847167584514203e+00 +0.0000000000000000e+00 +3.1999999832847972e+00 -1.7706593207154114e-04 +0.0000000000000000e+00 +9.9999998432382764e-01
3.2499999999999964e+00 +8.2847078359250332e+00 +0.0000000000000000e+00 +3.2499999824886663e+00 -1.7983514276331120e-04 +0.0000000000000000e+00 +9.9999998382966049e-01
3.2999999999999963e+00 +8.2846987749351939e+00 +0.0000000000000000e+00 +3.2999999816676349e+00 -1.8260447039957924e-04 +0.0000000000000000e+00 +9.9999998332780349e-01
3.3499999999999961e+00 +8.2846895754760173e+00 +0.0000000000000000e+00 +3.3499999808213183e+00 -1.8537391655405177e-04 +0.0000000000000000e+00 +9.9999998281825531e-01
3.3999999999999959e+00 +8.2846802375415365e+00 +0.0000000000000000e+00 +3.3999999799493321e+00 -1.8814348278943724e-04 +0.0000000000000000e+00 +9.9999998230101472e-01
3.4499999999999957e+00 +8.2846707611257102e+00 +0.0000000000000000e+00 +3.4499999790512916e+00 -1.9091317065744609e-04 +0.0000000000000000e+00 +9.9999998177608040e-01
3.4999999999999956e+00 +8.2846611462224171e+00 +0.0000000000000000e+00 +3.4999999781268119e+00 -1.9368298169879076e-04 +0.0000000000000000e+00 +9.9999998124345102e-01
3.5499999999999954e+00 +8.2846513928254613e+00 +0.0000000000000000e+00 +3.5499999771755082e+00 -1.9645291744318583e-04 +0.0000000000000000e+00 +9.9999998070312535e-01
3.5999999999999952e+00 +8.2846415009285685e+00 +0.0000000000000000e+00 +3.5999999761969961e+00 -1.9922297940934796e-04 +0.0000000000000000e+00 +9.9999998015510194e-01
3.6499999999999950e+00 +8.2846314705253903e+00 +0.0000000000000000e+00 +3.6499999751908900e+00 -2.0199316910499604e-04 +0.0000000000000000e+00 +9.9999997959937947e-01
3.6999999999999948e+00 +8.2846213016095032e+00 +0.0000000000000000e+00 +3.6999999741568055e+00 -2.0476348802685119e-04 +0.0000000000000000e+00 +9.9999997903595661e-01
3.7499999999999947e+00 +8.2846109941744093e+00 +0.0000000000000000e+00 +3.7499999730943574e+00 -2.0753393766063683e-04 +0.0000000000000000e+00 +9.9999997846483202e-01
3.7999999999999945e+00 +8.2846005482135343e+00 +0.0000000000000000e+00 +3.7999999720031603e+00 -2.1030451948107876e-04 +0.0000000000000000e+00 +9.9999997788600414e-01
3.8499999999999943e+00 +8.2845899637202329e+00 +0.0000000000000000e+00 +3.8499999708828292e+00 -2.1307523495190512e-04 +0.0000000000000000e+00 +9.9999997729947177e-01
3.8999999999999941e+00 +8.2845792406877869e+00 +0.0000000000000000e+00 +3.8999999697329790e+00 -2.1584608552584656e-04 +0.0000000000000000e+00 +9.9999997670523333e-01
3.9499999999999940e+00 +8.2845683791094054e+00 +0.0000000000000000e+00 +3.9499999685532243e+00 -2.1861707264463618e-04 +0.0000000000000000e+00 +9.9999997610328739e-01
3.9999999999999938e+00 +8.2845573789782243e+00 +0.0000000000000000e+00 +3.9999999673431796e+00 -2.2138819773900967e-04 +0.0000000000000000e+00 +9.9999997549363251e-01
4.0499999999999936e+00 +8.2845462402873089e+00 +0.0000000000000000e+00 +4.0499999661024590e+00 -2.2415946222851483e-04 +0.0000000000000000e+00 +9.9999997487626724e-01
4.0999999999999934e+00 +8.2845349630296550e+00 +0.0000000000000000e+00 +4.0999999648306780e+00 -2.2693086751941668e-04 +0.0000000000000000e+00 +9.9999997425119014e-01
4.1499999999999932e+00 +8.2845235471981873e+00 +0.0000000000000000e+00 +4.1499999635274500e+00 -2.2970241500260246e-04 +0.0000000000000000e+00 +9.9999997361839976e-01
4.1999999999999931e+00 +8.2845119927857613e+00 +0.0000000000000000e+00 +4.1999999621923898e+00 -2.3247410605339115e-04 +0.0000000000000000e+00 +9.9999997297789445e-01
4.2499999999999929e+00 +8.2845002997851651e+00 +0.0000000000000000e+00 +4.2499999608251109e+00 -2.3524594203153348e-04 +0.0000000000000000e+00 +9.9999997232967275e-01
4.2999999999999927e+00 +8.2844884681891191e+00 +0.0000000000000000e+00 +4.2999999594252278e+00 -2.3801792428121191e-04 +0.0000000000000000e+00 +9.9999997167373322e-01
4.3499999999999925e+00 +8.2844764979902763e+00 +0.0000000000000000e+00 +4.3499999579923552e+00 -2.4079005413104064e-04 +0.0000000000000000e+00 +9.9999997101007421e-01
4.3999999999999924e+00 +8.2844643891812240e+00 +0.0000000000000000e+00 +4.3999999565261065e+00 -2.4356233289406557e-04 +0.0000000000000000e+00 +9.9999997033869426e-01
4.4499999999999922e+00 +8.2844521417544836e+00 +0.0000000000000000e+00 +4.4499999550260956e+00 -2.4633476186776431e-04 +0.0000000000000000e+00 +9.9999996965959181e-01
4.4999999999999920e+00 +8.2844397557025129e+00 +0.0000000000000000e+00 +4.4999999534919368e+00 -2.4910734233404613e-04 +0.0000000000000000e+00 +9.9999996897276522e-01
4.5499999999999918e+00 +8.2844272310177054e+00 +0.0000000000000000e+00 +4.5499999519232439e+00 -2.5188007555925195e-04 +0.0000000000000000e+00 +9.9999996827821291e-01
4.5999999999999917e+00 +8.2844145676923908e+00 +0.0000000000000000e+00 +4.5999999503196296e+00 -2.5465296279415426e-04 +0.0000000000000000e+00 +9.9999996757593335e-01
4.6499999999999915e+00 +8.2844017657188385e+00 +0.0000000000000000e+00 +4.6499999486807084e+00 -2.5742600527395727e-04 +0.0000000000000000e+00 +9.9999996686592496e-01
4.6999999999999913e+00 +8.2843888250892554e+00 +0.0000000000000000e+00 +4.6999999470060931e+00 -2.6019920421829664e-04 +0.0000000000000000e+00 +9.9999996614818609e-01
4.7499999999999911e+00 +8.2843757457957885e+00 +0.0000000000000000e+00 +4.7499999452953983e+00 -2.6297256083123973e-04 +0.0000000000000000e+00 +9.9999996542271508e-01
4.7999999999999909e+00 +8.2843625278305240e+00 +0.0000000000000000e+00 +4.7999999435482366e+00 -2.6574607630128525e-04 +0.0000000000000000e+00 +9.9999996468951036e-01
4.8499999999999908e+00 +8.2843491711854913e+00 +0.0000000000000000e+00 +4.8499999417642208e+00 -2.6851975180136345e-04 +0.0000000000000000e+00 +9.9999996394857027e-01
4.8999999999999906e+00 +8.2843356758526578e+00 +0.0000000000000000e+00 +4.8999999399429646e+00 -2.7129358848883598e-04 +0.0000000000000000e+00 +9.9999996319989326e-01
4.9499999999999904e+00 +8.2843220418239358e+00 +0.0000000000000000e+00 +4.9499999380840807e+00 -2.7406758750549598e-04 +0.0000000000000000e+00 +9.9999996244347755e-01
4.9999999999999902e+00 +8.2843082690911825e+00 +0.0000000000000000e+00 +4.9999999361871827e+00 -2.7684174997756790e-04 +0.0000000000000000e+00 +9.9999996167932148e-01
5.0499999999999901e+00 +8.2842943576461963e+00 +0.0000000000000000e+00 +5.0499999342518835e+00 -2.7961607701570751e-04 +0.0000000000000000e+00 +9.9999996090742349e-01
5.0999999999999899e+00 +8.2842803074807208e+00 +0.0000000000000000e+00 +5.0999999322777958e+00 -2.8239056971500178e-04 +0.0000000000000000e+00 +9.9999996012778181e-01
5.1499999999999897e+00 +8.2842661185864461e+00 +0.0000000000000000e+00 +5.1499999302645323e+00 -2.8516522915496902e-04 +0.0000000000000000e+00 +9.9999995934039476e-01
5.1999999999999895e+00 +8.2842517909550093e+00 +0.0000000000000000e+00 +5.1999999282117058e+00 -2.8794005639955867e-04 +0.0000000000000000e+00 +9.9999995854526069e-01
5.2499999999999893e+00 +8.2842373245779921e+00 +0.0000000000000000e+00 +5.2499999261189290e+00 -2.9071505249715125e-04 +0.0000000000000000e+00 +9.9999995774237782e-01
5.2999999999999892e+00 +8.2842227194469285e+00 +0.0000000000000000e+00 +5.2999999239858147e+00 -2.9349021848055839e-04 +0.0000000000000000e+00 +9.9999995693174448e-01
5.3499999999999890e+00 +8.2842079755532971e+00 +0.0000000000000000e+00 +5.3499999218119747e+00 -2.9626555536702275e-04 +0.0000000000000000e+00 +9.9999995611335901e-01
5.3999999999999888e+00 +8.2841930928885272e+00 +0.0000000000000000e+00 +5.3999999195970219e+00 -2.9904106415821785e-04 +0.0000000000000000e+00 +9.9999995528721963e-01
5.4499999999999886e+00 +8.2841780714439999e+00 +0.0000000000000000e+00 +5.4499999173405680e+00 -3.0181674584024823e-04 +0.0000000000000000e+00 +9.9999995445332457e-01
5.4999999999999885e+00 +8.2841629112110464e+00 +0.0000000000000000e+00 +5.4999999150422250e+00 -3.0459260138364916e-04 +0.0000000000000000e+00 +9.9999995361167215e-01
5.5499999999999883e+00 +8.2841476121809485e+00 +0.0000000000000000e+00 +5.5499999127016055e+00 -3.0736863174338669e-04 +0.0000000000000000e+00 +9.9999995276226061e-01
5.5999999999999881e+00 +8.2841321743449434e+00 +0.0000000000000000e+00 +5.5999999103183216e+00 -3.1014483785885759e-04 +0.0000000000000000e+00 +9.9999995190508828e-01
5.6499999999999879e+00 +8.2841165976942186e+00 +0.0000000000000000e+00 +5.6499999078919849e+00 -3.1292122065388928e-04 +0.0000000000000000e+00 +9.9999995104015327e-01
5.6999999999999877e+00 +8.2841008822199189e+00 +0.0000000000000000e+00 +5.6999999054222075e+00 -3.1569778103673971e-04 +0.0000000000000000e+00 +9.9999995016745391e-01
5.7499999999999876e+00 +8.2840850279131413e+00 +0.0000000000000000e+00 +5.7499999029086011e+00 -3.1847451990009733e-04 +0.0000000000000000e+00 +9.9999994928698843e-01
5.7999999999999874e+00 +8.2840690347649399e+00 +0.0000000000000000e+00 +5.7999999003507767e+00 -3.2125143812108091e-04 +0.0000000000000000e+00 +9.9999994839875506e-01
5.8499999999999872e+00 +8.2840529027663248e+00 +0.0000000000000000e+00 +5.8499998977483472e+00 -3.2402853656123969e-04 +0.0000000000000000e+00 +9.9999994750275201e-01
5.8999999999999870e+00 +8.2840366319082648e+00 +0.0000000000000000e+00 +5.8999998951009225e+00 -3.2680581606655304e-04 +0.0000000000000000e+00 +9.9999994659897751e-01
