# field on trajectory
# s[mm] rx[mm] ry[mm] rz[mm] bx[T] by[T] bz[T]
0.0000000000000000e+00 +8.5270000000000206e+00 +0.0000000000000000e+00 +0.0000000000000000e+00 -2.8321364578908197e-02 -5.2335807318706873e-01 +5.3919939547225062e-03
5.0000000000000003e-02 +8.5269999309457507e+00 +0.0000000000000000e+00 +4.9999999999936401e-02 -2.8320531308266134e-02 -5.2335060013737789e-01 +5.3896772851218296e-03
1.0000000000000001e-01 +8.5269997237846802e+00 +0.0000000000000000e+00 +9.9999999999491399e-02 -2.8319724695607194e-02 -5.2334348834841071e-01 +5.3873559663549482e-03
1.4999999999999999e-01 +8.5269993785186706e+00 +0.0000000000000000e+00 +1.4999999999828301e-01 -2.8318944706453485e-02 -5.2333673816532900e-01 +5.3850302530431080e-03
2.0000000000000001e-01 +8.5269988951477007e+00 +0.0000000000000000e+00 +1.9999999999593099e-01 -2.8318191306328896e-02 -5.2333034993332317e-01 +5.3827003998074456e-03
2.5000000000000000e-01 +8.5269982736681396e+00 +0.0000000000000000e+00 +2.4999999999205300e-01 -2.8317464460759646e-02 -5.2332432399762385e-01 +5.3803666612691594e-03
2.9999999999999999e-01 +8.5269975140799907e+00 +0.0000000000000000e+00 +2.9999999998626697e-01 -2.8316764135271792e-02 -5.2331866070345345e-01 +5.3780292920489817e-03
3.4999999999999998e-01 +8.5269966163905302e+00 +0.0000000000000000e+00 +3.4999999997819298e-01 -2.8316090295389989e-02 -5.2331336039600085e-01 +5.3756885467669295e-03
4.0000000000000002e-01 +8.5269955805888493e+00 +0.0000000000000000e+00 +3.9999999996744801e-01 -2.8315442906646372e-02 -5.2330842342059603e-01 +5.3733446800442782e-03
4.5000000000000001e-01 +8.5269944066858407e+00 +0.0000000000000000e+00 +4.4999999995365197e-01 -2.8314821934566553e-02 -5.2330385012243585e-01 +5.3709979465005313e-03
5.0000000000000000e-01 +8.5269930946742498e+00 +0.0000000000000000e+00 +4.9999999993642202e-01 -2.8314227344683657e-02 -5.2329964084685765e-01 +5.3686486007565115e-03
5.5000000000000004e-01 +8.5269916445577092e+00 +0.0000000000000000e+00 +5.4999999991537796e-01 -2.8313659102528130e-02 -5.2329579593914088e-01 +5.3662968974321559e-03
5.9999999999999998e-01 +8.5269900563289394e+00 +0.0000000000000000e+00 +5.9999999989013697e-01 -2.8313117173635435e-02 -5.2329231574465640e-01 +5.3639430911482247e-03
6.5000000000000002e-01 +8.5269883299988596e+00 +0.0000000000000000e+00 +6.4999999986031898e-01 -2.8312601523535760e-02 -5.2328920060866746e-01 +5.3615874365241008e-03
6.9999999999999996e-01 +8.5269864655601904e+00 +0.0000000000000000e+00 +6.9999999982554195e-01 -2.8312112117766870e-02 -5.2328645087657688e-01 +5.3592301881805861e-03
7.5000000000000000e-01 +8.5269844630165608e+00 +0.0000000000000000e+00 +7.4999999978542398e-01 -2.8311648921863893e-02 -5.2328406689373175e-01 +5.3568716007377304e-03
8.0000000000000004e-01 +8.5269823223679904e+00 +0.0000000000000000e+00 +7.9999999973958402e-01 -2.8311211901364382e-02 -5.2328204900551922e-01 +5.3545119288159540e-03
8.4999999999999998e-01 +8.5269800436108198e+00 +0.0000000000000000e+00 +8.4999999968764095e-01 -2.8310801021808416e-02 -5.2328039755736888e-01 +5.3521514270360709e-03
9.0000000000000002e-01 +8.5269776267450705e+00 +0.0000000000000000e+00 +8.9999999962921295e-01 -2.8310416248735936e-02 -5.2327911289470219e-01 +5.3497903500187849e-03
9.4999999999999996e-01 +8.5269750717743609e+00 +0.0000000000000000e+00 +9.4999999956391801e-01 -2.8310057547686836e-02 -5.2327819536293174e-01 +5.3474289523846958e-03
1.0000000000000000e+00 +8.5269723786986997e+00 +0.0000000000000000e+00 +9.9999999949137597e-01 -2.8309724884203528e-02 -5.2327764530751353e-01 +5.3450674887549014e-03
1.0500000000000000e+00 +8.5269695475144491e+00 +0.0000000000000000e+00 +1.0499999994111999e+00 -2.8309418223830863e-02 -5.2327746307394385e-01 +5.3427062137510022e-03
1.1000000000000001e+00 +8.5269665782288904e+00 +0.0000000000000000e+00 +1.0999999993230201e+00 -2.8309137532111176e-02 -5.2327764900766272e-01 +5.3403453819940560e-03
1.1499999999999999e+00 +8.5269634708311095e+00 +0.0000000000000000e+00 +1.1499999992264500e+00 -2.8308882774594354e-02 -5.2327820345425125e-01 +5.3379852481067738e-03
1.2000000000000000e+00 +8.5269602253283701e+00 +0.0000000000000000e+00 +1.1999999991210999e+00 -2.8308653916825164e-02 -5.2327912675918298e-01 +5.3356260667108300e-03
1.2500000000000000e+00 +8.5269568417206791e+00 +0.0000000000000000e+00 +1.2499999990065900e+00 -2.8308450924352205e-02 -5.2328041926799873e-01 +5.3332680924288020e-03
1.3000000000000000e+00 +8.5269533200044005e+00 +0.0000000000000000e+00 +1.2999999988825499e+00 -2.8308273762726571e-02 -5.2328208132628184e-01 +5.3309115798839185e-03
1.3500000000000001e+00 +8.5269496601795307e+00 +0.0000000000000000e+00 +1.3499999987485900e+00 -2.8308122397499400e-02 -5.2328411327960767e-01 +5.3285567836995435e-03
1.3999999999999999e+00 +8.5269458622533403e+00 +0.0000000000000000e+00 +1.3999999986043401e+00 -2.8307996794220511e-02 -5.2328651547351857e-01 +5.3262039584989459e-03
1.4500000000000000e+00 +8.5269419262185693e+00 +0.0000000000000000e+00 +1.4499999984494001e+00 -2.8307896918446124e-02 -5.2328928825367527e-01 +5.3238533589069397e-03
1.5000000000000000e+00 +8.5269378520752106e+00 +0.0000000000000000e+00 +1.4999999982833900e+00 -2.8307822735731191e-02 -5.2329243196570541e-01 +5.3215052395482925e-03
1.5500000000000000e+00 +8.5269336398268898e+00 +0.0000000000000000e+00 +1.5499999981059500e+00 -2.8307774211630728e-02 -5.2329594695522896e-01 +5.3191598550480336e-03
1.6000000000000001e+00 +8.5269292894736299e+00 +0.0000000000000000e+00 +1.5999999979166799e+00 -2.8307751311702243e-02 -5.2329983356790888e-01 +5.3168174600320079e-03
1.6499999999999999e+00 +8.5269248010117700e+00 +0.0000000000000000e+00 +1.6499999977152000e+00 -2.8307754001505959e-02 -5.2330409214945128e-01 +5.3144783091269186e-03
1.7000000000000000e+00 +8.5269201744449692e+00 +0.0000000000000000e+00 +1.6999999975011300e+00 -2.8307782246600761e-02 -5.2330872304552845e-01 +5.3121426569595325e-03
1.7500000000000000e+00 +8.5269154097695701e+00 +0.0000000000000000e+00 +1.7499999972740901e+00 -2.8307836012549478e-02 -5.2331372660188213e-01 +5.3098107581578020e-03
1.8000000000000000e+00 +8.5269105069892195e+00 +0.0000000000000000e+00 +1.7999999970336999e+00 -2.8307915264913674e-02 -5.2331910316422070e-01 +5.3074828673498010e-03
1.8500000000000001e+00 +8.5269054661039299e+00 +0.0000000000000000e+00 +1.8499999967795799e+00 -2.8308019969257581e-02 -5.2332485307829557e-01 +5.3051592391645756e-03
1.8999999999999999e+00 +8.5269002871100401e+00 +0.0000000000000000e+00 +1.8999999965113501e+00 -2.8308150091148062e-02 -5.2333097668990203e-01 +5.3028401282321598e-03
1.9500000000000000e+00 +8.5268949700112007e+00 +0.0000000000000000e+00 +1.9499999962286201e+00 -2.8308305596150742e-02 -5.2333747434480193e-01 +5.3005257891828046e-03
2.0000000000000000e+00 +8.5268895148037700e+00 +0.0000000000000000e+00 +1.9999999959310100e+00 -2.8308486449835205e-02 -5.2334434638882599e-01 +5.2982164766480731e-03
2.0499999999999998e+00 +8.5268839213858900e+00 +0.0000000000000000e+00 +2.0499999956181298e+00 -2.8308692614976962e-02 -5.2335159284618737e-01 +5.2959124330723304e-03
2.1000000000000001e+00 +8.5268781896593300e+00 +0.0000000000000000e+00 +2.0999999952895898e+00 -2.8308924043031557e-02 -5.2335921245185291e-01 +5.2936138521200386e-03
2.1499999999999999e+00 +8.5268723196240899e+00 +0.0000000000000000e+00 +2.1499999949449999e+00 -2.8309180682590893e-02 -5.2336720361781941e-01 +5.2913209152540891e-03
2.2000000000000002e+00 +8.5268663112729008e+00 +0.0000000000000000e+00 +2.1999999945839801e+00 -2.8309462482250376e-02 -5.2337556475614733e-01 +5.2890338039385271e-03
2.2500000000000000e+00 +8.5268601646093902e+00 +0.0000000000000000e+00 +2.2499999942061502e+00 -2.8309769390602476e-02 -5.2338429427883548e-01 +5.2867526996372522e-03
2.2999999999999998e+00 +8.5268538796335598e+00 +0.0000000000000000e+00 +2.2999999938111202e+00 -2.8310101356241801e-02 -5.2339339059792078e-01 +5.2844777838150754e-03
2.3500000000000001e+00 +8.5268474563490599e+00 +0.0000000000000000e+00 +2.3499999933985198e+00 -2.8310458327762574e-02 -5.2340285212542770e-01 +5.2822092379372189e-03
2.3999999999999999e+00 +8.5268408947522403e+00 +0.0000000000000000e+00 +2.3999999929679601e+00 -2.8310840253762397e-02 -5.2341267727344465e-01 +5.2799472434701010e-03
2.4500000000000002e+00 +8.5268341948467405e+00 +0.0000000000000000e+00 +2.4499999925190501e+00 -2.8311247082837124e-02 -5.2342286445402142e-01 +5.2776919818803151e-03
2.5000000000000000e+00 +8.5268273566252901e+00 +0.0000000000000000e+00 +2.4999999920514302e+00 -2.8311678763587284e-02 -5.2343341207929517e-01 +5.2754436346359361e-03
2.5499999999999998e+00 +8.5268203800987994e+00 +0.0000000000000000e+00 +2.5499999915646900e+00 -2.8312135244607770e-02 -5.2344431856129081e-01 +5.2732023832044728e-03
2.6000000000000001e+00 +8.5268132652563509e+00 +0.0000000000000000e+00 +2.5999999910584699e+00 -2.8312616474501947e-02 -5.2345558231219469e-01 +5.2709684090557112e-03
2.6499999999999999e+00 +8.5268060121015896e+00 +0.0000000000000000e+00 +2.6499999905323701e+00 -2.8313122401868791e-02 -5.2346720174410533e-01 +5.2687418936591549e-03
2.7000000000000002e+00 +8.5267986206345103e+00 +0.0000000000000000e+00 +2.6999999899860101e+00 -2.8313652975309269e-02 -5.2347917526915688e-01 +5.2665230184853230e-03
2.7500000000000000e+00 +8.5267910908551094e+00 +0.0000000000000000e+00 +2.7499999894190199e+00 -2.8314208143425078e-02 -5.2349150129949573e-01 +5.2643119650055172e-03
2.7999999999999998e+00 +8.5267834227670392e+00 +0.0000000000000000e+00 +2.7999999888310101e+00 -2.8314787854817326e-02 -5.2350417824725370e-01 +5.2621089146915566e-03
2.8500000000000001e+00 +8.5267756163666508e+00 +0.0000000000000000e+00 +2.8499999882215898e+00 -2.8315392058090340e-02 -5.2351720452462414e-01 +5.2599140490165903e-03
2.8999999999999999e+00 +8.5267676716539391e+00 +0.0000000000000000e+00 +2.8999999875903901e+00 -2.8316020701847824e-02 -5.2353057854378493e-01 +5.2577275494543147e-03
2.9500000000000002e+00 +8.5267595886289200e+00 +0.0000000000000000e+00 +2.9499999869370299e+00 -2.8316673734694136e-02 -5.2354429871692565e-01 +5.2555495974792631e-03
3.0000000000000000e+00 +8.5267513672915793e+00 +0.0000000000000000e+00 +2.9999999862611100e+00 -2.8317351105234201e-02 -5.2355836345624529e-01 +5.2533803745668023e-03
3.0499999999999998e+00 +8.5267430076455604e+00 +0.0000000000000000e+00 +3.0499999855622502e+00 -2.8318052762072294e-02 -5.2357277117392798e-01 +5.2512200621929054e-03
3.1000000000000001e+00 +8.5267345096872305e+00 +0.0000000000000000e+00 +3.0999999848400801e+00 -2.8318778653815813e-02 -5.2358752028221822e-01 +5.2490688418349238e-03
3.1499999999999999e+00 +8.5267258734165807e+00 +0.0000000000000000e+00 +3.1499999840942201e+00 -2.8319528729071442e-02 -5.2360260919334456e-01 +5.2469268949708317e-03
3.2000000000000002e+00 +8.5267170988336094e+00 +0.0000000000000000e+00 +3.1999999833242700e+00 -2.8320302936446398e-02 -5.2361803631954540e-01 +5.2447944030795095e-03
3.2500000000000000e+00 +8.5267081859419704e+00 +0.0000000000000000e+00 +3.2499999825298600e+00 -2.8321101224547115e-02 -5.2363380007304250e-01 +5.2426715476404815e-03
3.2999999999999998e+00 +8.5266991347380099e+00 +0.0000000000000000e+00 +3.2999999817106000e+00 -2.8321923541983117e-02 -5.2364989886611768e-01 +5.2405585101347124e-03
3.3500000000000001e+00 +8.5266899452181004e+00 +0.0000000000000000e+00 +3.3499999808661101e+00 -2.8322769837364401e-02 -5.2366633111106098e-01 +5.2384554720440943e-03
3.3999999999999999e+00 +8.5266806173895002e+00 +0.0000000000000000e+00 +3.3999999799960099e+00 -2.8323640059297571e-02 -5.2368309522009626e-01 +5.2363626148507177e-03
3.4500000000000002e+00 +8.5266711512522306e+00 +0.0000000000000000e+00 +3.4499999790999101e+00 -2.8324534156392238e-02 -5.2370018960550546e-01 +5.2342801200381435e-03
3.5000000000000000e+00 +8.5266615468026394e+00 +0.0000000000000000e+00 +3.4999999781774398e+00 -2.8325452077259727e-02 -5.2371761267960371e-01 +5.2322081690911511e-03
3.5499999999999998e+00 +8.5266518040407409e+00 +0.0000000000000000e+00 +3.5499999772282100e+00 -2.8326393770510463e-02 -5.2373536285468947e-01 +5.2301469434952730e-03
3.6000000000000001e+00 +8.5266419229665207e+00 +0.0000000000000000e+00 +3.5999999762518402e+00 -2.8327359184755284e-02 -5.2375343854306855e-01 +5.2280966247370336e-03
3.6499999999999999e+00 +8.5266319035799807e+00 +0.0000000000000000e+00 +3.6499999752479400e+00 -2.8328348268605367e-02 -5.2377183815705486e-01 +5.2260573943039811e-03
3.6999999999999900e+00 +8.5266217458847695e+00 +0.0000000000000000e+00 +3.6999999742161398e+00 -2.8329360970670958e-02 -5.2379056010894309e-01 +5.2240294336844450e-03
3.7499999999999898e+00 +8.5266114498736005e+00 +0.0000000000000000e+00 +3.7499999731560498e+00 -2.8330397239566502e-02 -5.2380960281111277e-01 +5.2220129243685468e-03
3.7999999999999901e+00 +8.5266010155537497e+00 +0.0000000000000000e+00 +3.7999999720672801e+00 -2.8331457023901593e-02 -5.2382896467584761e-01 +5.2200080478464706e-03
3.8499999999999899e+00 +8.5265904429179500e+00 +0.0000000000000000e+00 +3.8499999709494599e+00 -2.8332540272291262e-02 -5.2384864411553955e-01 +5.2180149856104656e-03
3.8999999999999901e+00 +8.5265797319771099e+00 +0.0000000000000000e+00 +3.8999999698022001e+00 -2.8333646933344371e-02 -5.2386863954246188e-01 +5.2160339191526274e-03
3.9499999999999900e+00 +8.5265688827203103e+00 +0.0000000000000000e+00 +3.9499999686251202e+00 -2.8334776955677765e-02 -5.2388894936904395e-01 +5.2140650299676390e-03
3.9999999999999898e+00 +8.5265578951548395e+00 +0.0000000000000000e+00 +3.9999999674178399e+00 -2.8335930287902069e-02 -5.2390957200759558e-01 +5.2121084995500515e-03
4.0499999999999901e+00 +8.5265467692734092e+00 +0.0000000000000000e+00 +4.0499999661799704e+00 -2.8337106857674075e-02 -5.2393050572954636e-01 +5.2101645006633222e-03
4.0999999999999899e+00 +8.5265355050833005e+00 +0.0000000000000000e+00 +4.0999999649111301e+00 -2.8338306508809072e-02 -5.2395174824228052e-01 +5.2082331711381172e-03
4.1499999999999897e+00 +8.5265241025808791e+00 +0.0000000000000000e+00 +4.1499999636109504e+00 -2.8339529064168218e-02 -5.2397329711227481e-01 +5.2063146400736929e-03
4.1999999999999904e+00 +8.5265125617697795e+00 +0.0000000000000000e+00 +4.1999999622790298e+00 -2.8340774346611568e-02 -5.2399514990596197e-01 +5.2044090365699269e-03
4.2499999999999902e+00 +8.5265008826427202e+00 +0.0000000000000000e+00 +4.2499999609149901e+00 -2.8342042179004504e-02 -5.2401730418985559e-01 +5.2025164897285632e-03
4.2999999999999901e+00 +8.5264890652069898e+00 +0.0000000000000000e+00 +4.2999999595184599e+00 -2.8343332384208726e-02 -5.2403975753037402e-01 +5.2006371286514941e-03
4.3499999999999899e+00 +8.5264771094589396e+00 +0.0000000000000000e+00 +4.3499999580890396e+00 -2.8344644785091327e-02 -5.2406250749401606e-01 +5.1987710824425021e-03
4.3999999999999897e+00 +8.5264650153985695e+00 +0.0000000000000000e+00 +4.3999999566263703e+00 -2.8345979204519603e-02 -5.2408555164726067e-01 +5.1969184802062793e-03
4.4499999999999904e+00 +8.5264527830295300e+00 +0.0000000000000000e+00 +4.4499999551300400e+00 -2.8347335465361112e-02 -5.2410888755656548e-01 +5.1950794510484521e-03
4.4999999999999902e+00 +8.5264404123481707e+00 +0.0000000000000000e+00 +4.4999999535996897e+00 -2.8348713390487588e-02 -5.2413251278844430e-01 +5.1932541240763130e-03
4.5499999999999901e+00 +8.5264279033544899e+00 +0.0000000000000000e+00 +4.5499999520349199e+00 -2.8350112802770996e-02 -5.2415642490938885e-01 +5.1914426283981132e-03
4.5999999999999899e+00 +8.5264152560448601e+00 +0.0000000000000000e+00 +4.5999999504353601e+00 -2.8351533525086240e-02 -5.2418062148592082e-01 +5.1896450931235459e-03
4.6499999999999897e+00 +8.5264024704301793e+00 +0.0000000000000000e+00 +4.6499999488006196e+00 -2.8352975380304641e-02 -5.2420510008446564e-01 +5.1878616473625622e-03
4.6999999999999904e+00 +8.5263895464995603e+00 +0.0000000000000000e+00 +4.6999999471303298e+00 -2.8354438191306914e-02 -5.2422985827160207e-01 +5.1860924202277942e-03
4.7499999999999902e+00 +8.5263764842602505e+00 +0.0000000000000000e+00 +4.7499999454240900e+00 -2.8355921780968976e-02 -5.2425489361378752e-01 +5.1843375408319094e-03
4.7999999999999901e+00 +8.5263632837050007e+00 +0.0000000000000000e+00 +4.7999999436815299e+00 -2.8357425972173601e-02 -5.2428020367758432e-01 +5.1825971382898029e-03
4.8499999999999899e+00 +8.5263499448447000e+00 +0.0000000000000000e+00 +4.8499999419022597e+00 -2.8358950587798762e-02 -5.2430578602943045e-01 +5.1808713417164183e-03
4.8999999999999897e+00 +8.5263364676684397e+00 +0.0000000000000000e+00 +4.8999999400859000e+00 -2.8360495450731910e-02 -5.2433163823591911e-01 +5.1791602802294398e-03
4.9499999999999904e+00 +8.5263228521798702e+00 +0.0000000000000000e+00 +4.9499999382320699e+00 -2.8362060383857073e-02 -5.2435775786354466e-01 +5.1774640829468661e-03
4.9999999999999902e+00 +8.5263090983826295e+00 +0.0000000000000000e+00 +4.9999999363403900e+00 -2.8363645210060000e-02 -5.2438414247880483e-01 +5.1757828789880094e-03
5.0499999999999901e+00 +8.5262952059529198e+00 +0.0000000000000000e+00 +5.0499999344103799e+00 -2.8365249752344616e-02 -5.2441078965046550e-01 +5.1741167974950564e-03
5.0999999999999899e+00 +8.5262811745706095e+00 +0.0000000000000000e+00 +5.0999999324415599e+00 -2.8366873833715448e-02 -5.2443769694727094e-01 +5.1724659676111798e-03
5.1499999999999897e+00 +8.5262670042357094e+00 +0.0000000000000000e+00 +5.1499999304335597e+00 -2.8368517277065106e-02 -5.2446486193575337e-01 +5.1708305184597651e-03
5.1999999999999904e+00 +8.5262526949518396e+00 +0.0000000000000000e+00 +5.1999999283859903e+00 -2.8370179905286733e-02 -5.2449228218242139e-01 +5.1692105791653160e-03
5.2499999999999902e+00 +8.5262382467153692e+00 +0.0000000000000000e+00 +5.2499999262984600e+00 -2.8371861541277875e-02 -5.2451995525383555e-01 +5.1676062788541793e-03
5.2999999999999901e+00 +8.5262236595299292e+00 +0.0000000000000000e+00 +5.2999999241705797e+00 -2.8373562007935386e-02 -5.2454787871650732e-01 +5.1660177466536037e-03
5.3499999999999899e+00 +8.5262089333882596e+00 +0.0000000000000000e+00 +5.3499999220019703e+00 -2.8375281128161893e-02 -5.2457605013702580e-01 +5.1644451116929415e-03
5.3999999999999897e+00 +8.5261940682976292e+00 +0.0000000000000000e+00 +5.3999999197922497e+00 -2.8377018724856741e-02 -5.2460446708187947e-01 +5.1628885031020002e-03
5.4499999999999904e+00 +8.5261790642507496e+00 +0.0000000000000000e+00 +5.4499999175410201e+00 -2.8378774620926365e-02 -5.2463312711765842e-01 +5.1613480500129474e-03
5.4999999999999902e+00 +8.5261639212585596e+00 +0.0000000000000000e+00 +5.4999999152479004e+00 -2.8380548639272685e-02 -5.2466202781082849e-01 +5.1598238815581980e-03
5.5499999999999901e+00 +8.5261486393137602e+00 +0.0000000000000000e+00 +5.5499999129125097e+00 -2.8382340602806061e-02 -5.2469116672798111e-01 +5.1583161268727870e-03
5.5999999999999899e+00 +8.5261332184127205e+00 +0.0000000000000000e+00 +5.5999999105344500e+00 -2.8384150334437544e-02 -5.2472054143568359e-01 +5.1568249150929692e-03
5.6499999999999897e+00 +8.5261176585627307e+00 +0.0000000000000000e+00 +5.6499999081133403e+00 -2.8385977657076261e-02 -5.2475014950042653e-01 +5.1553503753557399e-03
5.6999999999999904e+00 +8.5261019597637606e+00 +0.0000000000000000e+00 +5.6999999056488004e+00 -2.8387822393635995e-02 -5.2477998848875185e-01 +5.1538926368000539e-03
5.7499999999999902e+00 +8.5260861220122006e+00 +0.0000000000000000e+00 +5.7499999031404396e+00 -2.8389684367033818e-02 -5.2481005596722563e-01 +5.1524518285665857e-03
5.7999999999999901e+00 +8.5260701453080401e+00 +0.0000000000000000e+00 +5.7999999005878804e+00 -2.8391563400187617e-02 -5.2484034950238956e-01 +5.1510280797972697e-03
5.8499999999999899e+00 +8.5260540296512808e+00 +0.0000000000000000e+00 +5.8499998979907204e+00 -2.8393459316017309e-02 -5.2487086666078309e-01 +5.1496215196355551e-03
5.8999999999999897e+00 +8.5260377750455500e+00 +0.0000000000000000e+00 +5.8999998953485804e+00 -2.8395371937443618e-02 -5.2490160500892025e-01 +5.1482322772261752e-03
