# multipoles
# s[mm] polynom_b[n=0][T/m^n] polynom_b[n=1][T/m^n] polynom_b[n=2][T/m^n] polynom_b[n=3][T/m^n] polynom_b[n=4][T/m^n] polynom_b[n=5][T/m^n] polynom_b[n=6][T/m^n] 
+0.0000000000000000e+00 -5.4950140639366785e-01 +7.1853277636758683e+00 +6.0416417794499750e+00 -2.3989655976128596e+01 +2.2719763900122648e+03 -1.6088293424100909e+05 -5.7149431750584934e+06 
-5.0000000000000003e-02 -5.4950164518737421e-01 +7.1853018531286326e+00 +6.0391944491841034e+00 -2.4122041059467719e+01 +2.3374622592163523e+03 -1.5960317189163659e+05 -6.0520763645621277e+06 
-1.0000000000000001e-01 -5.4950229605737655e-01 +7.1852981450270823e+00 +6.0363130179190785e+00 -2.4256091343897207e+01 +2.4051691208666302e+03 -1.5827495276598728e+05 -6.4126882864630483e+06 
-1.5000000000000002e-01 -5.4950335810345052e-01 +7.1853165716266600e+00 +6.0330033276003938e+00 -2.4391084608767681e+01 +2.4748604909695027e+03 -1.5690411575031484e+05 -6.7950405017617354e+06 
-2.0000000000000001e-01 -5.4950483042536535e-01 +7.1853570651857392e+00 +6.0292712160806916e+00 -2.4526298732342841e+01 +2.5462999948693455e+03 -1.5549649888845845e+05 -7.1973953102357183e+06 
-2.5000000000000000e-01 -5.4950671212292768e-01 +7.1854195579663891e+00 +6.0251225240321347e+00 -2.4661011731078869e+01 +2.6192511850163523e+03 -1.5405793901184280e+05 -7.6180145308383768e+06 
-2.9999999999999999e-01 -5.4950900229595823e-01 +7.1855039822272833e+00 +6.0205630914082535e+00 -2.4794501437734624e+01 +2.6934776323624906e+03 -1.5259427451602821e+05 -8.0551601073544957e+06 
-3.4999999999999998e-01 -5.4951170004427929e-01 +7.1856102702252072e+00 +6.0155987553348060e+00 -2.4926045604021002e+01 +2.7687429817808343e+03 -1.5111134435939562e+05 -8.5070944720035903e+06 
-3.9999999999999997e-01 -5.4951480446776180e-01 +7.1857383542224955e+00 +6.0102353579803180e+00 -2.5054922173586714e+01 +2.8448107442095279e+03 -1.4961498593629032e+05 -8.9720791634010822e+06 
-4.4999999999999996e-01 -5.4951831466628120e-01 +7.1858881664816820e+00 +6.0044787393597199e+00 -2.5180409081881535e+01 +2.9214444858211573e+03 -1.4811103665834654e+05 -9.4483760825309306e+06 
-4.9999999999999994e-01 -5.4952222973971765e-01 +7.1860596392627052e+00 +5.9983347366118371e+00 -2.5301784137980434e+01 +2.9984078555078008e+03 -1.4660533492542032e+05 -9.9342477103744019e+06 
-5.4999999999999993e-01 -5.4952654878799578e-01 +7.1862527048285889e+00 +5.9918091915135356e+00 -2.5418325230921880e+01 +3.0754643732269942e+03 -1.4510371855176339e+05 -1.0427955641009664e+07 
-5.9999999999999998e-01 -5.4953127091103515e-01 +7.1864672954415125e+00 +5.9849079422800404e+00 -2.5529310209102185e+01 +3.1523776532505799e+03 -1.4361202558461743e+05 -1.0927762102548968e+07 
-6.5000000000000002e-01 -5.4953639520879460e-01 +7.1867033433649574e+00 +5.9776368302126413e+00 -2.5634016940143116e+01 +3.2289112293275703e+03 -1.4213609392781593e+05 -1.1431928786792038e+07 
-7.0000000000000007e-01 -5.4954192078122699e-01 +7.1869607808599376e+00 +5.9700016925232848e+00 -2.5731723167366678e+01 +3.3048287441123430e+03 -1.4068176247922628e+05 -1.1938718117736869e+07 
-7.5000000000000011e-01 -5.4954784672832302e-01 +7.1872395401928886e+00 +5.9620083700489266e+00 -2.5821706828007308e+01 +3.3798937409567461e+03 -1.3925486853710262e+05 -1.2446391842129875e+07 
-8.0000000000000016e-01 -5.4955417215008706e-01 +7.1875395536276248e+00 +5.9536627026193738e+00 -2.5903245721927629e+01 +3.4538697920376967e+03 -1.3786125052561745e+05 -1.2953211909250114e+07 
-8.5000000000000020e-01 -5.4956089614652548e-01 +7.1878607534283061e+00 +5.9449705274342888e+00 -2.5975617638842451e+01 +3.5265205387393357e+03 -1.3650674693257449e+05 -1.3457440728695640e+07 
-9.0000000000000024e-01 -5.4956801781768461e-01 +7.1882030718612864e+00 +5.9359376854414370e+00 -2.6038100418042031e+01 +3.5976095219625913e+03 -1.3519719587340622e+05 -1.3957340033262175e+07 
-9.5000000000000029e-01 -5.4957553626361655e-01 +7.1885664411921217e+00 +5.9265700156719419e+00 -2.6089971861222239e+01 +3.6669003310471135e+03 -1.3393843567876896e+05 -1.4451171869430643e+07 
-1.0000000000000002e+00 -5.4958345058438618e-01 +7.1889507936862431e+00 +5.9168733562230713e+00 -2.6130509705706601e+01 +3.7341565808134460e+03 -1.3273630532179185e+05 -1.4937198457930274e+07 
-1.0500000000000003e+00 -5.4959175988009146e-01 +7.1893560616120347e+00 +5.9068535474323038e+00 -2.6158991808744105e+01 +3.7991418313343634e+03 -1.3159664267722669e+05 -1.5413681671682337e+07 
-1.1000000000000003e+00 -5.4960046325083789e-01 +7.1897821772337052e+00 +5.8965164288453238e+00 -2.6174695800577801e+01 +3.8616196505974904e+03 -1.3052528759115591e+05 -1.5878883381567672e+07 
-1.1500000000000004e+00 -5.4960955979674364e-01 +7.1902290728209266e+00 +5.8858678380410465e+00 -2.6176899519382321e+01 +3.9213536724451947e+03 -1.2952807814382034e+05 -1.6331065956037164e+07 
-1.2000000000000004e+00 -5.4961904861794597e-01 +7.1906966806428159e+00 +5.8749136136194968e+00 -2.6164880746805757e+01 +3.9781074945503542e+03 -1.2861085289494976e+05 -1.6768491483103631e+07 
-1.2500000000000004e+00 -5.4962892881461145e-01 +7.1911849329643482e+00 +5.8636595962470297e+00 -2.6137917055521243e+01 +4.0316446588833564e+03 -1.2777945216472514e+05 -1.7189421673983932e+07 
-1.3000000000000005e+00 -5.4963919948690343e-01 +7.1916937620576862e+00 +5.8521116225790193e+00 -2.6095286294835802e+01 +4.0817288178330264e+03 -1.2703971395114572e+05 -1.7592118994257495e+07 
-1.3500000000000005e+00 -5.4964985973502101e-01 +7.1922231001896044e+00 +5.8402755330991898e+00 -2.6036266039561330e+01 +4.1281235134548060e+03 -1.2639747860669870e+05 -1.7974845133848451e+07 
-1.4000000000000006e+00 -5.4966090865916117e-01 +7.1927728796312866e+00 +5.8281571640831222e+00 -2.5960134032010838e+01 +4.1705924113369829e+03 -1.2585858503793091e+05 -1.8335862657009993e+07 
-1.4500000000000006e+00 -5.4967234535956400e-01 +7.1933430326506409e+00 +5.8157623574550819e+00 -2.5866167826886439e+01 +4.2088990104894274e+03 -1.2542887380073957e+05 -1.8673432945872106e+07 
-1.5000000000000007e+00 -5.4968416893645200e-01 +7.1939334915199309e+00 +5.8030969481090251e+00 -2.5753645142346368e+01 +4.2428070094747645e+03 -1.2511418403649666e+05 -1.8985818766993664e+07 
-1.5500000000000007e+00 -5.4969637849008857e-01 +7.1945441885104842e+00 +5.7901667756374140e+00 -2.5621843614893361e+01 +4.2720799733218291e+03 -1.2492035562363529e+05 -1.9271281957451865e+07 
-1.6000000000000008e+00 -5.4970897312074618e-01 +7.1951750558920784e+00 +5.7769776780673681e+00 -2.5470040775093299e+01 +4.2964815114875473e+03 -1.2485322936032386e+05 -1.9528084662037894e+07 
-1.6500000000000008e+00 -5.4972195192872109e-01 +7.1958260259369125e+00 +5.7635354950337403e+00 -2.5297514226224433e+01 +4.3157751837542810e+03 -1.2491864544290997e+05 -1.9754488662076548e+07 
-1.7000000000000008e+00 -5.4973531401430920e-01 +7.1964970309170591e+00 +5.7498460627035302e+00 -2.5103541527204349e+01 +4.3297246495058371e+03 -1.2512244446623993e+05 -1.9948756437550742e+07 
-1.7500000000000009e+00 -5.4974905847782818e-01 +7.1971880031036912e+00 +5.7359152184140560e+00 -2.4887400160306051e+01 +4.3380935303476299e+03 -1.2547046770474977e+05 -2.0109150182397358e+07 
-1.8000000000000009e+00 -5.4976318441962646e-01 +7.1978988747710693e+00 +5.7217488019231197e+00 -2.4648367701756914e+01 +4.3406453821149571e+03 -1.2596855566945471e+05 -2.0233931643908963e+07 
-1.8500000000000010e+00 -5.4977769094004625e-01 +7.1986295781913103e+00 +5.7073526489906170e+00 -2.4385721603624827e+01 +4.3371438695658171e+03 -1.2662254992335223e+05 -2.0321363309302621e+07 
-1.9000000000000010e+00 -5.4979257713946517e-01 +7.1993800456392734e+00 +5.6927325990082345e+00 -2.4098739374816070e+01 +4.3273525543987353e+03 -1.2743829167825378e+05 -2.0369706946697552e+07 
-1.9500000000000011e+00 -5.4980784211826494e-01 +7.2001502093865462e+00 +5.6778944885598435e+00 -2.3786698373597517e+01 +4.3110350782893674e+03 -1.2842162332348400e+05 -2.0377224877011955e+07 
-2.0000000000000009e+00 -5.4982348497683320e-01 +7.2009400017095526e+00 +5.6628441534284129e+00 -2.3448876108907118e+01 +4.2879550946494783e+03 -1.2957838608410300e+05 -2.0342179461409617e+07 
-2.0500000000000007e+00 -5.4983950460654363e-01 +7.2017493454835497e+00 +5.6475854895648734e+00 -2.3084887816172898e+01 +4.2579618786124638e+03 -1.3091184323499484e+05 -2.0263395345531765e+07 
-2.1000000000000005e+00 -5.4985589906256971e-01 +7.2025781218594247e+00 +5.6321148845240980e+00 -2.2695770373796680e+01 +4.2212566283046062e+03 -1.3241469203030990e+05 -2.0142016972807501e+07 
-2.1500000000000004e+00 -5.4987266619101849e-01 +7.2034262005344631e+00 +5.6164269161360103e+00 -2.2282934926878497e+01 +4.1781310777845902e+03 -1.3407692248288405e+05 -1.9979787430022322e+07 
-2.2000000000000002e+00 -5.4988980383800790e-01 +7.2042934512019032e+00 +5.6005161614343075e+00 -2.1847792443789015e+01 +4.1288769864383294e+03 -1.3588852606918619e+05 -1.9778449986766908e+07 
-2.2500000000000000e+00 -5.4990730984969938e-01 +7.2051797435603913e+00 +5.5843772028560830e+00 -2.1391754094960881e+01 +4.0737859660543763e+03 -1.3783949262808089e+05 -1.9539746907429803e+07 
-2.2999999999999998e+00 -5.4992518207223096e-01 +7.2060849473059418e+00 +5.5680046165058688e+00 -2.0916230935590850e+01 +4.0131498008797712e+03 -1.3991981290689242e+05 -1.9265421629001226e+07 
-2.3499999999999996e+00 -5.4994341835178795e-01 +7.2070089321362998e+00 +5.5513929847945551e+00 -2.0422634059462819e+01 +3.9472601031336067e+03 -1.4211947742242098e+05 -1.8957216421944037e+07 
-2.3999999999999995e+00 -5.4996201653453658e-01 +7.2079515677504151e+00 +5.5345368841470632e+00 -1.9912374609719251e+01 +3.8764086511771652e+03 -1.4442847622969392e+05 -1.8616874695639819e+07 
-2.4499999999999993e+00 -5.4998097446667638e-01 +7.2089127238473800e+00 +5.5174308949952700e+00 -1.9386863713422795e+01 +3.8008871133999828e+03 -1.4683679954994691e+05 -1.8246139111782100e+07 
-2.4999999999999991e+00 -5.5000028999441952e-01 +7.2098922701251196e+00 +5.5000695978009260e+00 -1.8847512444072965e+01 +3.7209871573509940e+03 -1.4933443803137090e+05 -1.7846752325207885e+07 
-2.5499999999999989e+00 -5.5001996096398498e-01 +7.2108900762877175e+00 +5.4824475718631698e+00 -1.8295732111557040e+01 +3.6370004873180883e+03 -1.5191138039603771e+05 -1.7420457263457920e+07 
-2.5999999999999988e+00 -5.5003998522160158e-01 +7.2119060120322507e+00 +5.4645593969011523e+00 -1.7732933715799405e+01 +3.5492187895394845e+03 -1.5455761796307084e+05 -1.6968996705979921e+07 
-2.6499999999999986e+00 -5.5006036061351304e-01 +7.2129399470605682e+00 +5.4463996522908351e+00 -1.7160528458603977e+01 +3.4579337700404067e+03 -1.5726314033865763e+05 -1.6494113608647721e+07 
-2.6999999999999984e+00 -5.5008108498597907e-01 +7.2139917510771125e+00 +5.4279629190992500e+00 -1.6579927639736269e+01 +3.3634370805969020e+03 -1.6001793631926269e+05 -1.5997550527591443e+07 
-2.7499999999999982e+00 -5.5010215618526026e-01 +7.2150612937839664e+00 +5.4092437759503147e+00 -1.5992542435912846e+01 +3.2660204499084980e+03 -1.6281199578603351e+05 -1.5481050585691296e+07 
-2.7999999999999980e+00 -5.5012357205764906e-01 +7.2161484448834079e+00 +5.3902368057283283e+00 -1.5399784043875798e+01 +3.1659754823127446e+03 -1.6563530838193945e+05 -1.4946356025211582e+07 
-2.8499999999999979e+00 -5.5014533044942215e-01 +7.2172530740807295e+00 +5.3709365863719700e+00 -1.4803063750535737e+01 +3.0635939265084739e+03 -1.6847786312472922e+05 -1.4395210114940707e+07 
-2.8999999999999977e+00 -5.5016742920688666e-01 +7.2183750510817859e+00 +5.3513376995132766e+00 -1.4203792882975277e+01 +2.9591674262492006e+03 -1.7132964860545908e+05 -1.3829355390467420e+07 
-2.9499999999999975e+00 -5.5018986617636478e-01 +7.2195142455905774e+00 +5.3314347275123639e+00 -1.3603382688470283e+01 +2.8529876112411766e+03 -1.7418065406535723e+05 -1.3250534317909950e+07 
-2.9999999999999973e+00 -5.5021263920417185e-01 +7.2206705273128389e+00 +5.3112222497078232e+00 -1.3003244460995367e+01 +2.7453461921536950e+03 -1.7702086846140653e+05 -1.2660489907805149e+07 
-3.0499999999999972e+00 -5.5023574613664950e-01 +7.2218437659592096e+00 +5.2906948488280721e+00 -1.2404789700450724e+01 +2.6365347897163747e+03 -1.7984027900707457e+05 -1.2060964576250678e+07 
-3.0999999999999970e+00 -5.5025918482013281e-01 +7.2230338312345230e+00 +5.2698471043767183e+00 -1.1809429673379944e+01 +2.5268451138805385e+03 -1.8262887481756386e+05 -1.1453701347644234e+07 
-3.1499999999999968e+00 -5.5028295310098529e-01 +7.2242405928481102e+00 +5.2486735991260218e+00 -1.1218575817140158e+01 +2.4165687883482983e+03 -1.8537664365364253e+05 -1.0840442673949605e+07 
-3.1999999999999966e+00 -5.5030704882558157e-01 +7.2254639205102729e+00 +5.2271689168642643e+00 -1.0633639617462002e+01 +2.3059974097232503e+03 -1.8807357283292041e+05 -1.0222930831379831e+07 
-3.2499999999999964e+00 -5.5033146984027737e-01 +7.2267036839302001e+00 +5.2053276358083744e+00 -1.0056032497651190e+01 +2.1954227288286966e+03 -1.9070965026915070e+05 -9.6029091513317358e+06 
-3.2999999999999963e+00 -5.5035621399148327e-01 +7.2279597528172417e+00 +5.1831443426060524e+00 -9.4871659080648278e+00 +2.0851362700470763e+03 -1.9327486356141471e+05 -8.9821194430327956e+06 
-3.3499999999999961e+00 -5.5038127912557866e-01 +7.2292319968855736e+00 +5.1606136169920989e+00 -8.9284514840496190e+00 +1.9754297456498409e+03 -1.9575919885269666e+05 -8.3623047928316854e+06 
-3.3999999999999959e+00 -5.5040666308897346e-01 +7.2305202858462412e+00 +5.1377300427951225e+00 -8.3813007397074664e+00 +1.8665947584166563e+03 -1.9815264326556647e+05 -7.7452075539016761e+06 
-3.4499999999999957e+00 -5.5043236372809079e-01 +7.2318244894137402e+00 +5.1144882041074435e+00 -7.8471253355746331e+00 +1.7589229123258674e+03 -2.0044518271026766e+05 -7.1325701223164368e+06 
-3.4999999999999956e+00 -5.5045837888933591e-01 +7.2331444772998967e+00 +5.0908826816150565e+00 -7.3273368191423804e+00 +1.6527058948619119e+03 -2.0262680405933288e+05 -6.5261354293072652e+06 
-3.5499999999999954e+00 -5.5048470641916170e-01 +7.2344801192233730e+00 +5.0669080618247184e+00 -6.8233470217222685e+00 +1.5482352505588140e+03 -2.0468749185284410e+05 -5.9276454946494754e+06 
-3.5999999999999952e+00 -5.5051134416400038e-01 +7.2358312848952888e+00 +5.0425589277176739e+00 -6.3365674846162250e+00 +1.4458026082206516e+03 -2.0661723295995590e+05 -5.3388428719969643e+06 
-3.6499999999999950e+00 -5.5053828997031040e-01 +7.2371978440352818e+00 +5.0178298642940291e+00 -5.8684100866746363e+00 +1.3456995579552606e+03 -2.0840601155829296e+05 -4.7614699156669397e+06 
-3.6999999999999948e+00 -5.5056554168454008e-01 +7.2385796663593940e+00 +4.9927154545002130e+00 -5.4202865793206065e+00 +1.2482177384469771e+03 -2.1004381280416381e+05 -4.1972692849989524e+06 
-3.7499999999999947e+00 -5.5059309715317084e-01 +7.2399766215853418e+00 +4.9672102856476936e+00 -4.9936087807768281e+00 +1.1536486763096511e+03 -2.1152062136291867e+05 -3.6479829070717231e+06 
-3.7999999999999945e+00 -5.5062095422266166e-01 +7.2413885794343189e+00 +4.9413089397590282e+00 -4.5897886637294212e+00 +1.0622840456364490e+03 -2.1282642059992271e+05 -3.1153537281109993e+06 
-3.8499999999999943e+00 -5.5064911073950806e-01 +7.2428154096245407e+00 +4.9150060046112998e+00 -4.2102380937837767e+00 +9.7441536327550909e+02 -2.1395119475349659e+05 -2.6011236257892102e+06 
-3.8999999999999941e+00 -5.5067756455020622e-01 +7.2442569818770091e+00 +4.8882960668770883e+00 -3.8563690507519675e+00 +8.9033418135942281e+02 -2.1488492715390405e+05 -2.1070347429522253e+06 
-3.9499999999999940e+00 -5.5070631350124588e-01 +7.2457131659130232e+00 +4.8611737109865674e+00 -3.5295935426912179e+00 +8.1033211539668832e+02 -2.1561760088421451e+05 -1.6348296626475521e+06 
-3.9999999999999938e+00 -5.5073535543912744e-01 +7.2471838314547545e+00 +4.8336335225005342e+00 -3.2313236230304341e+00 +7.3470075365019659e+02 -2.1613919862114685e+05 -1.1862508002794173e+06 
-4.0499999999999936e+00 -5.5076468808686874e-01 +7.2486688335246354e+00 +4.8056726593608738e+00 -2.9625333185173748e+00 +6.6366867570586226e+02 -2.1644298414162063e+05 -7.6269598187181039e+05 
-4.0999999999999934e+00 -5.5079430867273527e-01 +7.2501679600234690e+00 +4.7772992455516592e+00 -2.7224316201922547e+00 +5.9719364296062145e+02 -2.1653511951958219e+05 -3.6404386599064985e+05 
-4.1499999999999932e+00 -5.5082421430115613e-01 +7.2516809799537212e+00 +4.7485243523882357e+00 -2.5097820893184806e+00 +5.3516070908986239e+02 -2.1642494735116418e+05 +1.0242993819486532e+04 
-4.1999999999999931e+00 -5.5085440207660119e-01 +7.2532076623142281e+00 +4.7193590578133993e+00 -2.3233481578882911e+00 +4.7745474701192126e+02 -2.1612181130056558e+05 +3.6070328444292268e+05 
-4.2499999999999929e+00 -5.5088486910352108e-01 +7.2547477761076964e+00 +4.6898144364596988e+00 -2.1618934104653440e+00 +4.2396071821992092e+02 -2.1563505380151491e+05 +6.8787509346726304e+05 
-4.2999999999999927e+00 -5.5091561248636745e-01 +7.2563010903336931e+00 +4.6599015625683293e+00 -2.0241813253645984e+00 +3.7456359319123135e+02 -2.1497401807917282e+05 +9.9229645889922825e+05 
-4.3499999999999925e+00 -5.5094662932959859e-01 +7.2578673739919637e+00 +4.6296315112735167e+00 -1.9089753870021562e+00 +3.2914831919988080e+02 -2.1414804732565369e+05 +1.2745055721017634e+06 
-4.3999999999999924e+00 -5.5097791673765772e-01 +7.2594463960828222e+00 +4.5990153549783397e+00 -1.8150391080229689e+00 +2.8759991392714511e+02 -2.1316648447925699e+05 +1.5350401639438914e+06 
-4.4499999999999922e+00 -5.5100947181501114e-01 +7.2610379256022650e+00 +4.5680641698084292e+00 -1.7411358343653995e+00 +2.4980329495624841e+02 -2.1203867382696545e+05 +1.7744386419763973e+06 
-4.4999999999999920e+00 -5.5104129166610460e-01 +7.2626417315509046e+00 +4.5367890284501842e+00 -1.6860291268705221e+00 +2.1564347025205768e+02 -2.1077395779107980e+05 +1.9932388136526623e+06 
-4.5499999999999918e+00 -5.5107337339539952e-01 +7.2642575829249578e+00 +4.5052010059838334e+00 -1.6484823426273010e+00 +1.8500538257936074e+02 -2.0938168058379035e+05 +2.1919789326966801e+06 
-4.5999999999999917e+00 -5.5110571410733533e-01 +7.2658852487216814e+00 +4.4733111739290203e+00 -1.6272589241955167e+00 +1.5777406880668536e+02 -2.0787118555444889e+05 +2.3711966248717536e+06 
-4.6499999999999915e+00 -5.5113831090637000e-01 +7.2675244979391289e+00 +4.4411306066873291e+00 -1.6211223394814791e+00 +1.3383448807393833e+02 -2.0625181588423168e+05 +2.5314300455846894e+06 
-4.6999999999999913e+00 -5.5117116089694373e-01 +7.2691750995712772e+00 +4.4086703762986819e+00 -1.6288359027991206e+00 +1.1307165799377532e+02 -2.0453291598849744e+05 +2.6732169745507990e+06 
-4.7499999999999911e+00 -5.5120426118350641e-01 +7.2708368226143580e+00 +4.3759415559667509e+00 -1.6491630374205757e+00 +9.5370567640144728e+01 -2.0272382933434428e+05 +2.7970953783435114e+06 
-4.7999999999999909e+00 -5.5123760887050266e-01 +7.2725094360624345e+00 +4.3429552182272042e+00 -1.6808670898027551e+00 +8.0616223958774469e+01 -2.0083389999809695e+05 +2.9036031046399302e+06 
-4.8499999999999908e+00 -5.5127120106236227e-01 +7.2741927089095144e+00 +4.3097224340634366e+00 -1.7227114124209888e+00 +6.8693665516660104e+01 -1.9887247198909777e+05 +2.9932778285034201e+06 
-4.8999999999999906e+00 -5.5130503486352522e-01 +7.2758864101471259e+00 +4.2762542756680286e+00 -1.7734592728121561e+00 +5.9487905115997059e+01 -1.9684888997466612e+05 +3.0666573763379697e+06 
-4.9499999999999904e+00 -5.5133910737843017e-01 +7.2775903087695530e+00 +4.2425618156376963e+00 -1.8318740697060143e+00 +5.2883939391377545e+01 -1.9477249749696100e+05 +3.1242797075806255e+06 
-4.9999999999999902e+00 -5.5137341571150411e-01 +7.2793041737676276e+00 +4.2086561250392016e+00 -1.8967190674893624e+00 +4.8766805024155033e+01 -1.9265263919885003e+05 +3.1666825165457893e+06 
-5.0499999999999901e+00 -5.5140795696717071e-01 +7.2810277741310987e+00 +4.1745482747021265e+00 -1.9667575091851393e+00 +4.7021542726814872e+01 -1.9049865983429999e+05 +3.1944034833358089e+06 
