# field on trajectory
# s[mm] rx[mm] ry[mm] rz[mm] bx[T] by[T] bz[T]
0.0000000000000000e+00 +8.3650000000000002e+00 +0.0000000000000000e+00 +0.0000000000000000e+00 -3.0025498434501422e-02 -5.5213564567703832e-01 +5.6012148163946162e-03
-5.0000000000000003e-02 +8.3649999309624139e+00 +0.0000000000000000e+00 -4.9999999999936449e-02 -3.0025474547027725e-02 -5.5213572157761093e-01 +5.5991403552974909e-03
-1.0000000000000001e-01 +8.3649997238496248e+00 +0.0000000000000000e+00 -9.9999999999491607e-02 -3.0025469486807024e-02 -5.5213617872029008e-01 +5.5970713529032313e-03
-1.5000000000000002e-01 +8.3649993786615191e+00 +0.0000000000000000e+00 -1.4999999999828417e-01 -3.0025483190458425e-02 -5.5213701635337786e-01 +5.5950078949123429e-03
-2.0000000000000001e-01 +8.3649988953978873e+00 +0.0000000000000000e+00 -1.9999999999593285e-01 -3.0025515594601451e-02 -5.5213823372519333e-01 +5.5929500670256283e-03
-2.5000000000000000e-01 +8.3649982740584239e+00 +0.0000000000000000e+00 -2.4999999999205633e-01 -3.0025566635855983e-02 -5.5213983008407252e-01 +5.5908979549441932e-03
-2.9999999999999999e-01 +8.3649975146427309e+00 +0.0000000000000000e+00 -2.9999999998627330e-01 -3.0025636250842480e-02 -5.5214180467837204e-01 +5.5888516443694724e-03
-3.4999999999999998e-01 +8.3649966171503145e+00 +0.0000000000000000e+00 -3.4999999997820247e-01 -3.0025724376181832e-02 -5.5214415675646322e-01 +5.5868112210032041e-03
-3.9999999999999997e-01 +8.3649955815805868e+00 +0.0000000000000000e+00 -3.9999999996746255e-01 -3.0025830948495588e-02 -5.5214688556673686e-01 +5.5847767705474735e-03
-4.4999999999999996e-01 +8.3649944079328655e+00 +0.0000000000000000e+00 -4.4999999995367218e-01 -3.0025955904405929e-02 -5.5214999035760115e-01 +5.5827483787046963e-03
-4.9999999999999994e-01 +8.3649930962063728e+00 +0.0000000000000000e+00 -4.9999999993645000e-01 -3.0026099180535684e-02 -5.5215347037748053e-01 +5.5807261311776350e-03
-5.4999999999999993e-01 +8.3649916464002398e+00 +0.0000000000000000e+00 -5.4999999991541471e-01 -3.0026260713508498e-02 -5.5215732487481772e-01 +5.5787101136694078e-03
-5.9999999999999998e-01 +8.3649900585135022e+00 +0.0000000000000000e+00 -5.9999999989018493e-01 -3.0026440439948780e-02 -5.5216155309807280e-01 +5.5767004118834939e-03
-6.5000000000000002e-01 +8.3649883325451029e+00 +0.0000000000000000e+00 -6.4999999986037937e-01 -3.0026638296481802e-02 -5.5216615429572224e-01 +5.5746971115237460e-03
-7.0000000000000007e-01 +8.3649864684938908e+00 +0.0000000000000000e+00 -6.9999999982561667e-01 -3.0026854219733733e-02 -5.5217112771626042e-01 +5.5727002982943882e-03
-7.5000000000000011e-01 +8.3649844663586226e+00 +0.0000000000000000e+00 -7.4999999978551535e-01 -3.0027088146331749e-02 -5.5217647260819713e-01 +5.5707100579000333e-03
-8.0000000000000016e-01 +8.3649823261379623e+00 +0.0000000000000000e+00 -7.9999999973969405e-01 -3.0027340012904014e-02 -5.5218218822006060e-01 +5.5687264760456876e-03
-8.5000000000000020e-01 +8.3649800478304801e+00 +0.0000000000000000e+00 -8.4999999968777129e-01 -3.0027609756079720e-02 -5.5218827380039470e-01 +5.5667496384367568e-03
-9.0000000000000024e-01 +8.3649776314346536e+00 +0.0000000000000000e+00 -8.9999999962936572e-01 -3.0027897312489251e-02 -5.5219472859775987e-01 +5.5647796307790581e-03
-9.5000000000000029e-01 +8.3649750769488680e+00 +0.0000000000000000e+00 -9.4999999956409586e-01 -3.0028202618764151e-02 -5.5220155186073383e-01 +5.5628165387788262e-03
-1.0000000000000002e+00 +8.3649723843714181e+00 +0.0000000000000000e+00 -9.9999999949158025e-01 -3.0028525611537189e-02 -5.5220874283790955e-01 +5.5608604481427173e-03
-1.0500000000000003e+00 +8.3649695537005062e+00 +0.0000000000000000e+00 -1.0499999994114373e+00 -3.0028866227442406e-02 -5.5221630077789718e-01 +5.5589114445778231e-03
-1.1000000000000003e+00 +8.3649665849342423e+00 +0.0000000000000000e+00 -1.0999999993232856e+00 -3.0029224403115194e-02 -5.5222422492932233e-01 +5.5569696137916721e-03
-1.1500000000000004e+00 +8.3649634780706439e+00 +0.0000000000000000e+00 -1.1499999992267438e+00 -3.0029600075192352e-02 -5.5223251454082722e-01 +5.5550350414922461e-03
-1.2000000000000004e+00 +8.3649602331076380e+00 +0.0000000000000000e+00 -1.1999999991214301e+00 -3.0029993180312110e-02 -5.5224116886106978e-01 +5.5531078133879818e-03
-1.2500000000000004e+00 +8.3649568500430611e+00 +0.0000000000000000e+00 -1.2499999990069630e+00 -3.0030403655114172e-02 -5.5225018713872320e-01 +5.5511880151877741e-03
-1.3000000000000005e+00 +8.3649533288746571e+00 +0.0000000000000000e+00 -1.2999999988829609e+00 -3.0030831436239854e-02 -5.5225956862247760e-01 +5.5492757326009948e-03
-1.3500000000000005e+00 +8.3649496696000796e+00 +0.0000000000000000e+00 -1.3499999987490421e+00 -3.0031276460332046e-02 -5.5226931256103751e-01 +5.5473710513374999e-03
-1.4000000000000006e+00 +8.3649458722168930e+00 +0.0000000000000000e+00 -1.3999999986048250e+00 -3.0031738664035277e-02 -5.5227941820312354e-01 +5.5454740571076232e-03
-1.4500000000000006e+00 +8.3649419367225697e+00 +0.0000000000000000e+00 -1.4499999984499281e+00 -3.0032217983995829e-02 -5.5228988479747188e-01 +5.5435848356222015e-03
-1.5000000000000007e+00 +8.3649378631144931e+00 +0.0000000000000000e+00 -1.4999999982839693e+00 -3.0032714356861733e-02 -5.5230071159283345e-01 +5.5417034725925712e-03
-1.5500000000000007e+00 +8.3649336513899559e+00 +0.0000000000000000e+00 -1.5499999981065673e+00 -3.0033227719282837e-02 -5.5231189783797485e-01 +5.5398300537305789e-03
-1.6000000000000008e+00 +8.3649293015461588e+00 +0.0000000000000000e+00 -1.5999999979173400e+00 -3.0033758007910881e-02 -5.5232344278167766e-01 +5.5379646647485932e-03
-1.6500000000000008e+00 +8.3649248135802168e+00 +0.0000000000000000e+00 -1.6499999977159057e+00 -3.0034305159399532e-02 -5.5233534567273845e-01 +5.5361073913595101e-03
-1.7000000000000008e+00 +8.3649201874891528e+00 +0.0000000000000000e+00 -1.6999999975018825e+00 -3.0034869110404417e-02 -5.5234760575996844e-01 +5.5342583192767589e-03
-1.7500000000000009e+00 +8.3649154232699008e+00 +0.0000000000000000e+00 -1.7499999972748888e+00 -3.0035449797583220e-02 -5.5236022229219373e-01 +5.5324175342143086e-03
-1.8000000000000009e+00 +8.3649105209193060e+00 +0.0000000000000000e+00 -1.7999999970345424e+00 -3.0036047157595714e-02 -5.5237319451825539e-01 +5.5305851218866841e-03
-1.8500000000000010e+00 +8.3649054804341230e+00 +0.0000000000000000e+00 -1.8499999967804617e+00 -3.0036661127103809e-02 -5.5238652168700886e-01 +5.5287611680089679e-03
-1.9000000000000010e+00 +8.3649003018110211e+00 +0.0000000000000000e+00 -1.8999999965122645e+00 -3.0037291642771607e-02 -5.5240020304732362e-01 +5.5269457582967987e-03
-1.9500000000000011e+00 +8.3648949850465772e+00 +0.0000000000000000e+00 -1.9499999962295687e+00 -3.0037938641265475e-02 -5.5241423784808397e-01 +5.5251389784664083e-03
-2.0000000000000009e+00 +8.3648895301372832e+00 +0.0000000000000000e+00 -1.9999999959319923e+00 -3.0038602059254071e-02 -5.5242862533818848e-01 +5.5233409142345933e-03
-2.0500000000000007e+00 +8.3648839370795400e+00 +0.0000000000000000e+00 -2.0499999956191535e+00 -3.0039281806301412e-02 -5.5244336455620691e-01 +5.5215516432891030e-03
-2.1000000000000005e+00 +8.3648782058696618e+00 +0.0000000000000000e+00 -2.0999999952906698e+00 -3.0039977683545223e-02 -5.5245845369935220e-01 +5.5197712111996755e-03
-2.1500000000000004e+00 +8.3648723365038755e+00 +0.0000000000000000e+00 -2.1499999949461595e+00 -3.0040689465016784e-02 -5.5247389075450593e-01 +5.5179996555069317e-03
-2.2000000000000002e+00 +8.3648663289783212e+00 +0.0000000000000000e+00 -2.1999999945852400e+00 -3.0041416924747766e-02 -5.5248967370856272e-01 +5.5162370137520162e-03
-2.2500000000000000e+00 +8.3648601832890517e+00 +0.0000000000000000e+00 -2.2499999942075291e+00 -3.0042159836770107e-02 -5.5250580054842924e-01 +5.5144833234766037e-03
-2.2999999999999998e+00 +8.3648538994320347e+00 +0.0000000000000000e+00 -2.2999999938126447e+00 -3.0042917975116046e-02 -5.5252226926102332e-01 +5.5127386222229100e-03
-2.3499999999999996e+00 +8.3648474774031509e+00 +0.0000000000000000e+00 -2.3499999934002043e+00 -3.0043691113817945e-02 -5.5253907783327483e-01 +5.5110029475336783e-03
-2.3999999999999995e+00 +8.3648409171981974e+00 +0.0000000000000000e+00 -2.3999999929698257e+00 -3.0044479026908308e-02 -5.5255622425212458e-01 +5.5092763369521940e-03
-2.4499999999999993e+00 +8.3648342188128879e+00 +0.0000000000000000e+00 -2.4499999925211262e+00 -3.0045281488419645e-02 -5.5257370650452542e-01 +5.5075588280222888e-03
-2.4999999999999991e+00 +8.3648273822428489e+00 +0.0000000000000000e+00 -2.4999999920537235e+00 -3.0046098272384483e-02 -5.5259152257744037e-01 +5.5058504582883349e-03
-2.5499999999999989e+00 +8.3648204074836254e+00 +0.0000000000000000e+00 -2.5499999915672351e+00 -3.0046929152835227e-02 -5.5260967045784315e-01 +5.5041512652952550e-03
-2.5999999999999988e+00 +8.3648132945306788e+00 +0.0000000000000000e+00 -2.5999999910612783e+00 -3.0047773903804153e-02 -5.5262814813271843e-01 +5.5024612865885248e-03
-2.6499999999999986e+00 +8.3648060433793887e+00 +0.0000000000000000e+00 -2.6499999905354703e+00 -3.0048632299323287e-02 -5.5264695358906157e-01 +5.5007805597141754e-03
-2.6999999999999984e+00 +8.3647986540250532e+00 +0.0000000000000000e+00 -2.6999999899894287e+00 -3.0049504113424400e-02 -5.5266608481387758e-01 +5.4991091222187918e-03
-2.7499999999999982e+00 +8.3647911264628885e+00 +0.0000000000000000e+00 -2.7499999894227707e+00 -3.0050389120138882e-02 -5.5268553979418156e-01 +5.4974470116495224e-03
-2.7999999999999980e+00 +8.3647834606880274e+00 +0.0000000000000000e+00 -2.7999999888351139e+00 -3.0051287093497747e-02 -5.5270531651699850e-01 +5.4957942655540814e-03
-2.8499999999999979e+00 +8.3647756566955263e+00 +0.0000000000000000e+00 -2.8499999882260751e+00 -3.0052197807531465e-02 -5.5272541296936284e-01 +5.4941509214807482e-03
-2.8999999999999977e+00 +8.3647677144803581e+00 +0.0000000000000000e+00 -2.8999999875952716e+00 -3.0053121036270013e-02 -5.5274582713831877e-01 +5.4925170169783733e-03
-2.9499999999999975e+00 +8.3647596340374193e+00 +0.0000000000000000e+00 -2.9499999869423199e+00 -3.0054056553742711e-02 -5.5276655701091926e-01 +5.4908925895963776e-03
-2.9999999999999973e+00 +8.3647514153615248e+00 +0.0000000000000000e+00 -2.9999999862668378e+00 -3.0055004133978238e-02 -5.5278760057422638e-01 +5.4892776768847608e-03
-3.0499999999999972e+00 +8.3647430584474129e+00 +0.0000000000000000e+00 -3.0499999855684417e+00 -3.0055963551004487e-02 -5.5280895581531087e-01 +5.4876723163941026e-03
-3.0999999999999970e+00 +8.3647345632897441e+00 +0.0000000000000000e+00 -3.0999999848467485e+00 -3.0056934578848549e-02 -5.5283062072125255e-01 +5.4860765456755641e-03
-3.1499999999999968e+00 +8.3647259298831003e+00 +0.0000000000000000e+00 -3.1499999841013757e+00 -3.0057916991536662e-02 -5.5285259327913872e-01 +5.4844904022808959e-03
-3.1999999999999966e+00 +8.3647171582219855e+00 +0.0000000000000000e+00 -3.1999999833319395e+00 -3.0058910563094104e-02 -5.5287487147606618e-01 +5.4829139237624284e-03
-3.2499999999999964e+00 +8.3647082483008290e+00 +0.0000000000000000e+00 -3.2499999825380566e+00 -3.0059915067545108e-02 -5.5289745329913820e-01 +5.4813471476730909e-03
-3.2999999999999963e+00 +8.3646992001139839e+00 +0.0000000000000000e+00 -3.2999999817193437e+00 -3.0060930278912896e-02 -5.5292033673546748e-01 +5.4797901115664054e-03
-3.3499999999999961e+00 +8.3646900136557285e+00 +0.0000000000000000e+00 -3.3499999808754177e+00 -3.0061955971219499e-02 -5.5294351977217282e-01 +5.4782428529964958e-03
-3.3999999999999959e+00 +8.3646806889202647e+00 +0.0000000000000000e+00 -3.3999999800058949e+00 -3.0062991918485771e-02 -5.5296700039638125e-01 +5.4767054095180784e-03
-3.4499999999999957e+00 +8.3646712259017217e+00 +0.0000000000000000e+00 -3.4499999791103919e+00 -3.0064037894731256e-02 -5.5299077659522688e-01 +5.4751778186864792e-03
-3.4999999999999956e+00 +8.3646616245941523e+00 +0.0000000000000000e+00 -3.4999999781885247e+00 -3.0065093673974214e-02 -5.5301484635585096e-01 +5.4736601180576331e-03
-3.5499999999999954e+00 +8.3646518849915381e+00 +0.0000000000000000e+00 -3.5499999772399100e+00 -3.0066159030231462e-02 -5.5303920766540071e-01 +5.4721523451880813e-03
-3.5999999999999952e+00 +8.3646420070877880e+00 +0.0000000000000000e+00 -3.5999999762641641e+00 -3.0067233737518330e-02 -5.5306385851103079e-01 +5.4706545376349835e-03
-3.6499999999999950e+00 +8.3646319908767364e+00 +0.0000000000000000e+00 -3.6499999752609034e+00 -3.0068317569848669e-02 -5.5308879687990231e-01 +5.4691667329561091e-03
-3.6999999999999948e+00 +8.3646218363521463e+00 +0.0000000000000000e+00 -3.6999999742297436e+00 -3.0069410301234667e-02 -5.5311402075918237e-01 +5.4676889687098502e-03
-3.7499999999999947e+00 +8.3646115435077117e+00 +0.0000000000000000e+00 -3.7499999731703011e+00 -3.0070511705686906e-02 -5.5313952813604395e-01 +5.4662212824552253e-03
-3.7999999999999945e+00 +8.3646011123370521e+00 +0.0000000000000000e+00 -3.7999999720821918e+00 -3.0071621557214163e-02 -5.5316531699766547e-01 +5.4647637117518702e-03
-3.8499999999999943e+00 +8.3645905428337208e+00 +0.0000000000000000e+00 -3.8499999709650319e+00 -3.0072739629823476e-02 -5.5319138533123169e-01 +5.4633162941600550e-03
-3.8999999999999941e+00 +8.3645798349911971e+00 +0.0000000000000000e+00 -3.8999999698184369e+00 -3.0073865697519988e-02 -5.5321773112393247e-01 +5.4618790672406881e-03
-3.9499999999999940e+00 +8.3645689888028922e+00 +0.0000000000000000e+00 -3.9499999686420231e+00 -3.0074999534306934e-02 -5.5324435236296277e-01 +5.4604520685553005e-03
-3.9999999999999938e+00 +8.3645580042621503e+00 +0.0000000000000000e+00 -3.9999999674354059e+00 -3.0076140914185531e-02 -5.5327124703552311e-01 +5.4590353356660706e-03
-4.0499999999999936e+00 +8.3645468813622461e+00 +0.0000000000000000e+00 -4.0499999661982011e+00 -3.0077289649297595e-02 -5.5329841298963212e-01 +5.4576289044803621e-03
-4.0999999999999934e+00 +8.3645356200963850e+00 +0.0000000000000000e+00 -4.0999999649300243e+00 -3.0078445704354726e-02 -5.5332584751657032e-01 +5.4562328042843502e-03
-4.1499999999999932e+00 +8.3645242204577066e+00 +0.0000000000000000e+00 -4.1499999636304903e+00 -3.0079609082211675e-02 -5.5335354776843426e-01 +5.4548470627092680e-03
-4.1999999999999931e+00 +8.3645126824392850e+00 +0.0000000000000000e+00 -4.1999999622992155e+00 -3.0080779785723807e-02 -5.5338151089732268e-01 +5.4534717073868449e-03
-4.2499999999999929e+00 +8.3645010060341267e+00 +0.0000000000000000e+00 -4.2499999609358152e+00 -3.0081957817747088e-02 -5.5340973405533589e-01 +5.4521067659493152e-03
-4.2999999999999927e+00 +8.3644891912351742e+00 +0.0000000000000000e+00 -4.2999999595399041e+00 -3.0083143181138132e-02 -5.5343821439457708e-01 +5.4507522660294117e-03
-4.3499999999999925e+00 +8.3644772380353061e+00 +0.0000000000000000e+00 -4.3499999581110984e+00 -3.0084335878754153e-02 -5.5346694906714911e-01 +5.4494082352603557e-03
-4.3999999999999924e+00 +8.3644651464273352e+00 +0.0000000000000000e+00 -4.3999999566490127e+00 -3.0085535913453101e-02 -5.5349593522515739e-01 +5.4480747012758748e-03
-4.4499999999999922e+00 +8.3644529164040140e+00 +0.0000000000000000e+00 -4.4499999551532623e+00 -3.0086743288093604e-02 -5.5352517002070789e-01 +5.4467516917101888e-03
-4.4999999999999920e+00 +8.3644405479580310e+00 +0.0000000000000000e+00 -4.4999999536234618e+00 -3.0087958005534939e-02 -5.5355465060590681e-01 +5.4454392341980072e-03
-4.5499999999999918e+00 +8.3644280410820144e+00 +0.0000000000000000e+00 -4.5499999520592267e+00 -3.0089180068637165e-02 -5.5358437413286099e-01 +5.4441373563745340e-03
-4.5999999999999917e+00 +8.3644153957685319e+00 +0.0000000000000000e+00 -4.5999999504601714e+00 -3.0090409480261069e-02 -5.5361433775367719e-01 +5.4428460858754607e-03
-4.6499999999999915e+00 +8.3644026120100907e+00 +0.0000000000000000e+00 -4.6499999488259105e+00 -3.0091646243268176e-02 -5.5364453862046270e-01 +5.4415654503369723e-03
-4.6999999999999913e+00 +8.3643896897991379e+00 +0.0000000000000000e+00 -4.6999999471560594e+00 -3.0092890360520787e-02 -5.5367497388532361e-01 +5.4402954773957388e-03
-4.7499999999999911e+00 +8.3643766291280617e+00 +0.0000000000000000e+00 -4.7499999454502317e+00 -3.0094141834882061e-02 -5.5370564070036554e-01 +5.4390361946889182e-03
-4.7999999999999909e+00 +8.3643634299891936e+00 +0.0000000000000000e+00 -4.7999999437080429e+00 -3.0095400669215892e-02 -5.5373653621769336e-01 +5.4377876298541527e-03
-4.8499999999999908e+00 +8.3643500923748082e+00 +0.0000000000000000e+00 -4.8499999419291075e+00 -3.0096666866387047e-02 -5.5376765758941104e-01 +5.4365498105295685e-03
-4.8999999999999906e+00 +8.3643366162771233e+00 +0.0000000000000000e+00 -4.8999999401130392e+00 -3.0097940429261151e-02 -5.5379900196762000e-01 +5.4353227643537750e-03
-4.9499999999999904e+00 +8.3643230016882999e+00 +0.0000000000000000e+00 -4.9499999382594533e+00 -3.0099221360704649e-02 -5.5383056650442086e-01 +5.4341065189658679e-03
-4.9999999999999902e+00 +8.3643092486004438e+00 +0.0000000000000000e+00 -4.9999999363679626e+00 -3.0100509663584945e-02 -5.5386234835191261e-01 +5.4329011020054115e-03
-5.0499999999999901e+00 +8.3642953570056093e+00 +0.0000000000000000e+00 -5.0499999344381825e+00 -3.0101805340770300e-02 -5.5389434466219123e-01 +5.4317065411124618e-03
-5.0999999999999899e+00 +8.3642813268957941e+00 +0.0000000000000000e+00 -5.0999999324697267e+00 -3.0103108395129901e-02 -5.5392655258735024e-01 +5.4305228639275433e-03
-5.1499999999999897e+00 +8.3642671582629440e+00 +0.0000000000000000e+00 -5.1499999304622088e+00 -3.0104418829533876e-02 -5.5395896927948030e-01 +5.4293500980916645e-03
-5.1999999999999895e+00 +8.3642528510989518e+00 +0.0000000000000000e+00 -5.1999999284152434e+00 -3.0105736646853322e-02 -5.5399159189067004e-01 +5.4281882712462967e-03
-5.2499999999999893e+00 +8.3642384053956604e+00 +0.0000000000000000e+00 -5.2499999263284440e+00 -3.0107061849960332e-02 -5.5402441757300402e-01 +5.4270374110333974e-03
-5.2999999999999892e+00 +8.3642238211448614e+00 +0.0000000000000000e+00 -5.2999999242014244e+00 -3.0108394441727949e-02 -5.5405744347856301e-01 +5.4258975450953957e-03
-5.3499999999999890e+00 +8.3642090983382964e+00 +0.0000000000000000e+00 -5.3499999220337981e+00 -3.0109734425030277e-02 -5.5409066675942498e-01 +5.4247687010751840e-03
-5.3999999999999888e+00 +8.3641942369676556e+00 +0.0000000000000000e+00 -5.3999999198251789e+00 -3.0111081802742409e-02 -5.5412408456766282e-01 +5.4236509066161280e-03
-5.4499999999999886e+00 +8.3641792370245831e+00 +0.0000000000000000e+00 -5.4499999175751803e+00 -3.0112436577740508e-02 -5.5415769405534565e-01 +5.4225441893620639e-03
-5.4999999999999885e+00 +8.3641640985006749e+00 +0.0000000000000000e+00 -5.4999999152834151e+00 -3.0113798752901828e-02 -5.5419149237453769e-01 +5.4214485769572968e-03
-5.5499999999999883e+00 +8.3641488213874791e+00 +0.0000000000000000e+00 -5.5499999129494970e+00 -3.0115168331104673e-02 -5.5422547667729916e-01 +5.4203640970465908e-03
-5.5999999999999881e+00 +8.3641334056764958e+00 +0.0000000000000000e+00 -5.5999999105730396e+00 -3.0116545315228452e-02 -5.5425964411568363e-01 +5.4192907772751793e-03
-5.6499999999999879e+00 +8.3641178513591825e+00 +0.0000000000000000e+00 -5.6499999081536556e+00 -3.0117929708153732e-02 -5.5429399184174100e-01 +5.4182286452887658e-03
-5.6999999999999877e+00 +8.3641021584269488e+00 +0.0000000000000000e+00 -5.6999999056909587e+00 -3.0119321512762181e-02 -5.5432851700751440e-01 +5.4171777287335019e-03
-5.7499999999999876e+00 +8.3640863268711616e+00 +0.0000000000000000e+00 -5.7499999031845608e+00 -3.0120720731936647e-02 -5.5436321676504141e-01 +5.4161380552560081e-03
-5.7999999999999874e+00 +8.3640703566831416e+00 +0.0000000000000000e+00 -5.7999999006340754e+00 -3.0122127368561142e-02 -5.5439808826635373e-01 +5.4151096525033677e-03
-5.8499999999999872e+00 +8.3640542478541704e+00 +0.0000000000000000e+00 -5.8499998980391155e+00 -3.0123541425520900e-02 -5.5443312866347672e-01 +5.4140925481231169e-03
