# multipoles
# s[mm] polynom_b[n=0][T/m^n] polynom_b[n=1][T/m^n] polynom_b[n=2][T/m^n] polynom_b[n=3][T/m^n] polynom_b[n=4][T/m^n] polynom_b[n=5][T/m^n] polynom_b[n=6][T/m^n] 
+0.0000000000000000e+00 -5.5191963043797743e-01 +7.2483858424436365e+00 +5.4404603939973306e+00 -1.1868890230644088e+02 -3.1871639393977653e+03 +3.5874326210283168e+05 +1.6577224470681617e+07 
+5.0000000000000003e-02 -5.5191693709451040e-01 +7.2483727421312922e+00 +5.4405771600571828e+00 -1.1877812226139805e+02 -3.2510730325238751e+03 +3.6028683122112486e+05 +1.7038754985773820e+07 
+1.0000000000000001e-01 -5.5191459773509488e-01 +7.2483800568069574e+00 +5.4396413442954925e+00 -1.1886492693872196e+02 -3.2989059655405276e+03 +3.6175006700679788e+05 +1.7400474211563334e+07 
+1.5000000000000002e-01 -5.5191261177053674e-01 +7.2484076932534105e+00 +5.4376803069209094e+00 -1.1894908097669217e+02 -3.3312624858845370e+03 +3.6313411781095644e+05 +1.7665980931493625e+07 
+2.0000000000000001e-01 -5.5191097861164906e-01 +7.2484555582557411e+00 +5.4347214054484390e+00 -1.1903034905726649e+02 -3.3487422583797365e+03 +3.6444013224043284e+05 +1.7838873333504677e+07 
+2.5000000000000000e-01 -5.5190969766925402e-01 +7.2485235585998939e+00 +5.4307919966905187e+00 -1.1910849591151705e+02 -3.3519449369315753e+03 +3.6566925946398487e+05 +1.7922749564874608e+07 
+2.9999999999999999e-01 -5.5190876835421621e-01 +7.2486116010721116e+00 +5.4259194413337957e+00 -1.1918328623340214e+02 -3.3414702718591789e+03 +3.6682264823730907e+05 +1.7921208392473545e+07 
+3.4999999999999998e-01 -5.5190819007738556e-01 +7.2487195924604535e+00 +5.4201310946864956e+00 -1.1925448478136677e+02 -3.3179178717692257e+03 +3.6790144791138888e+05 +1.7837847641191002e+07 
+3.9999999999999997e-01 -5.5190796224965155e-01 +7.2488474395536224e+00 +5.4134543161232100e+00 -1.1932185631587787e+02 -3.2818874541682235e+03 +3.6890680785291165e+05 +1.7676265868568245e+07 
+4.4999999999999996e-01 -5.5190808428191040e-01 +7.2489950491426338e+00 +5.4059164627787375e+00 -1.1938516568313173e+02 -3.2339786734401073e+03 +3.6983987818545726e+05 +1.7440061198308282e+07 
+4.9999999999999994e-01 -5.5190855558509289e-01 +7.2491623280182260e+00 +5.3975448956712588e+00 -1.1944417767594696e+02 -3.1747912927466955e+03 +3.7070180852865457e+05 +1.7132832502162881e+07 
+5.4999999999999993e-01 -5.5190937557010578e-01 +7.2493491829706924e+00 +5.3883669679418320e+00 -1.1949865706372628e+02 -3.1049248581538322e+03 +3.7149374838774721e+05 +1.6758177170653677e+07 
+5.9999999999999998e-01 -5.5191054364792158e-01 +7.2495555207959095e+00 +5.3784100416464984e+00 -1.1954836881691476e+02 -3.0249791570243065e+03 +3.7221684890103794e+05 +1.6319694227705887e+07 
+6.5000000000000002e-01 -5.5191205922948550e-01 +7.2497812482843926e+00 +5.3677014713561864e+00 -1.1959307767154426e+02 -2.9355537771948916e+03 +3.7287225931628683e+05 +1.5820981357699163e+07 
+7.0000000000000007e-01 -5.5191392172578468e-01 +7.2500262722300972e+00 +5.3562686159827626e+00 -1.1963254847479716e+02 -2.8372484211525793e+03 +3.7346112977485231e+05 +1.5265637011983067e+07 
+7.5000000000000011e-01 -5.5191613054782585e-01 +7.2502904994311441e+00 +5.3441388348002095e+00 -1.1966654623734439e+02 -2.7306627995725057e+03 +3.7398461181937566e+05 +1.4657259690578289e+07 
+8.0000000000000016e-01 -5.5191868510660158e-01 +7.2505738366797168e+00 +5.3313394822671851e+00 -1.1969483569616857e+02 -2.6163964976457323e+03 +3.7444385473030258e+05 +1.3999447063592611e+07 
+8.5000000000000020e-01 -5.5192158481315523e-01 +7.2508761907737203e+00 +5.3178979186590540e+00 -1.1971718180438478e+02 -2.4950492542231386e+03 +3.7484000957038172e+05 +1.3295797826529395e+07 
+9.0000000000000024e-01 -5.5192482907851592e-01 +7.2511974685085532e+00 +5.3038414989408391e+00 -1.1973334938883050e+02 -2.3672206636385381e+03 +3.7517422637441225e+05 +1.2549909691048386e+07 
+9.5000000000000029e-01 -5.5192841731375486e-01 +7.2515375766824199e+00 +5.2891975831012852e+00 -1.1974310338327142e+02 -2.2335104630397855e+03 +3.7544765611306234e+05 +1.1765381367290922e+07 
+1.0000000000000002e+00 -5.5193234892994114e-01 +7.2518964220916278e+00 +5.2739935276524017e+00 -1.1974620860346296e+02 -2.0945182889024854e+03 +3.7566144871819607e+05 +1.0945810853186434e+07 
+1.0500000000000003e+00 -5.5193662333815841e-01 +7.2522739115339228e+00 +5.2582566890000013e+00 -1.1974242992951029e+02 -1.9508437758692826e+03 +3.7581675477325212e+05 +1.0094796139552139e+07 
+1.1000000000000003e+00 -5.5194123994952449e-01 +7.2526699518078113e+00 +5.2420144270881606e+00 -1.1973153223961332e+02 -1.8030866583682655e+03 +3.7591472479795566e+05 +9.2159359089902248e+06 
+1.1500000000000004e+00 -5.5194619817514967e-01 +7.2530844497118938e+00 +5.2252940978948752e+00 -1.1971328038077191e+02 -1.6518465631080926e+03 +3.7595650900899660e+05 +8.3128281114930436e+06 
+1.2000000000000004e+00 -5.5195149742616278e-01 +7.2535173120429333e+00 +5.2081230576564286e+00 -1.1968743913900862e+02 -1.4977231206276749e+03 +3.7594325727937388e+05 +7.3890707104086867e+06 
+1.2500000000000004e+00 -5.5195713711371819e-01 +7.2539684456010418e+00 +5.1905286647315467e+00 -1.1965377339050869e+02 -1.3413160213124665e+03 +3.7587612010979193e+05 +6.4482620817311350e+06 
+1.3000000000000005e+00 -5.5196311664898345e-01 +7.2544377571832550e+00 +5.1725382775786928e+00 -1.1961204787792551e+02 -1.1832249649715986e+03 +3.7575624699088617e+05 +5.4940006932783518e+06 
+1.3500000000000005e+00 -5.5196943544313393e-01 +7.2549251535885002e+00 +5.1541792526467622e+00 -1.1956202739952181e+02 -1.0240495859712728e+03 +3.7558478784601775e+05 +4.5298845227189008e+06 
+1.4000000000000006e+00 -5.5197609290735450e-01 +7.2554305416151905e+00 +5.1354789464915802e+00 -1.1950347671207382e+02 -8.6438953458703918e+02 +3.7536289228899847e+05 +3.5595117043337962e+06 
+1.4500000000000006e+00 -5.5198308845286315e-01 +7.2559538280643174e+00 +5.1164647182485856e+00 -1.1943616065921007e+02 -7.0484452405848674e+02 +3.7509171065202501e+05 +2.5864807752080960e+06 
+1.5000000000000007e+00 -5.5199042149087596e-01 +7.2564949197316748e+00 +5.0971639243979956e+00 -1.1935984385722720e+02 -5.4601419817339593e+02 +3.7477239143005962e+05 +1.6143898062966843e+06 
+1.5500000000000007e+00 -5.5199809143262202e-01 +7.2570537234141774e+00 +5.0776039211378956e+00 -1.1927429094862494e+02 -3.8849819396101293e+02 +3.7440608335783478e+05 +6.4683682675201364e+05 
+1.6000000000000008e+00 -5.5200609768935127e-01 +7.2576301459092472e+00 +5.0578120662090233e+00 -1.1917926655991731e+02 -2.3289619288127903e+02 +3.7399393496496510e+05 -3.1257982604805421e+05 
+1.6500000000000008e+00 -5.5201443967233876e-01 +7.2582240940184191e+00 +5.0378157193471305e+00 -1.1907453549907450e+02 -7.9807931706110580e+01 +3.7353709641972568e+05 -1.2602614370991504e+06 
+1.7000000000000008e+00 -5.5202311679284244e-01 +7.2588354745352808e+00 +5.0176422344235609e+00 -1.1895986220858592e+02 +7.0167012308676377e+01 +3.7303671482252644e+05 -2.1926103736822866e+06 
+1.7500000000000009e+00 -5.5203212846216487e-01 +7.2594641942571139e+00 +4.9973189712756714e+00 -1.1883501126323215e+02 +2.1642889827633374e+02 +3.7249393837120314e+05 -3.1060278917729389e+06 
+1.8000000000000009e+00 -5.5204147409160342e-01 +7.2601101599785069e+00 +4.9768732860476490e+00 -1.1869974712350182e+02 +3.5837808458104342e+02 +3.7190991439029376e+05 -3.9969159172641071e+06 
+1.8500000000000010e+00 -5.5205115309247943e-01 +7.2607732784975649e+00 +4.9563325371345046e+00 -1.1855383436207312e+02 +4.9541486519982163e+02 +3.7128579109504167e+05 -4.8616759282061234e+06 
+1.9000000000000010e+00 -5.5206116487611800e-01 +7.2614534566081126e+00 +4.9357240809912337e+00 -1.1839703735768641e+02 +6.2693958823370212e+02 +3.7062271511099965e+05 -5.6967097791977171e+06 
+1.9500000000000011e+00 -5.5207150885385725e-01 +7.2621506011035928e+00 +4.9150752742917163e+00 -1.1822912046467876e+02 +7.5235259162421448e+02 +3.6992183293154550e+05 -6.4984192401269171e+06 
+2.0000000000000009e+00 -5.5208218443707580e-01 +7.2628646187786474e+00 +4.8944134784169160e+00 -1.1804984806567298e+02 +8.7105408715581348e+02 +3.6918429128069972e+05 -7.2632052356541343e+06 
+2.0500000000000007e+00 -5.5209319080291808e-01 +7.2635954122659898e+00 +4.8737607887396299e+00 -1.1785915842886020e+02 +9.8256575358476437e+02 +3.6841186598502519e+05 -7.9881752326822812e+06 
+2.1000000000000005e+00 -5.5210452619133887e-01 +7.2643428630754707e+00 +4.8531183120159396e+00 -1.1765769648120316e+02 +1.0869013481157369e+03 +3.6760878070479637e+05 -8.6732906937714498e+06 
+2.1500000000000004e+00 -5.5211618860785472e-01 +7.2651068463168285e+00 +4.8324819167286588e+00 -1.1744628689012715e+02 +1.1841996829373907e+03 +3.6677984948103665e+05 -9.3192365226432737e+06 
+2.2000000000000002e+00 -5.5212817605797004e-01 +7.2658872371013983e+00 +4.8118474678035055e+00 -1.1722575437657240e+02 +1.2745996639370576e+03 +3.6592988680159091e+05 -9.9266982502321415e+06 
+2.2500000000000000e+00 -5.5214048654723358e-01 +7.2666839105386121e+00 +4.7912108355454386e+00 -1.1699692356657235e+02 +1.3582400552401609e+03 +3.6506370635902940e+05 -1.0496360459510986e+07 
+2.2999999999999998e+00 -5.5215311808117340e-01 +7.2674967417421126e+00 +4.7705678853095588e+00 -1.1676061924274846e+02 +1.4352597518583018e+03 +3.6418612311939406e+05 -1.1028908611559711e+07 
+2.3499999999999996e+00 -5.5216606866535578e-01 +7.2683256058212944e+00 +4.7499144866081382e+00 -1.1651766599486237e+02 +1.5057975399386489e+03 +3.6330195043957711e+05 -1.1525027442658762e+07 
+2.3999999999999995e+00 -5.5217933630533800e-01 +7.2691703778883543e+00 +4.7292465061741611e+00 -1.1626888851967807e+02 +1.5699922791865274e+03 +3.6241600258171000e+05 -1.1985402183690153e+07 
+2.4499999999999993e+00 -5.5219291900669720e-01 +7.2700309330558062e+00 +4.7085598118260235e+00 -1.1601511150596920e+02 +1.6279828019984222e+03 +3.6153309370454185e+05 -1.2410717885191316e+07 
+2.4999999999999991e+00 -5.5220681477502842e-01 +7.2709071464340029e+00 +4.6878502732523781e+00 -1.1575715954550724e+02 +1.6799078896108713e+03 +3.6065803718563408e+05 -1.2801659254498051e+07 
+2.5499999999999989e+00 -5.5222102161591369e-01 +7.2717988931382305e+00 +4.6671137558975353e+00 -1.1549585741896999e+02 +1.7259064400401382e+03 +3.5979564794304187e+05 -1.3158911795402884e+07 
+2.5999999999999988e+00 -5.5223553753497923e-01 +7.2727060482799146e+00 +4.6463461313435293e+00 -1.1523202972733991e+02 +1.7661171833264755e+03 +3.5895073937947612e+05 -1.3483159866642090e+07 
+2.6499999999999986e+00 -5.5225036053781762e-01 +7.2736284869721981e+00 +4.6255432637226894e+00 -1.1496650113020046e+02 +1.8006790530674193e+03 +3.5812812537132029e+05 -1.3775089215835340e+07 
+2.6999999999999984e+00 -5.5226548863007774e-01 +7.2745660843270405e+00 +4.6047010251768059e+00 -1.1470009623856326e+02 +1.8297307691452640e+03 +3.5733261943375500e+05 -1.4035384153620183e+07 
+2.7499999999999982e+00 -5.5228091981738359e-01 +7.2755187154622307e+00 +4.5838152820570173e+00 -1.1443363986969682e+02 +1.8534112047026319e+03 +3.5656903668888973e+05 -1.4264730015810143e+07 
+2.7999999999999980e+00 -5.5229665210538625e-01 +7.2764862554865566e+00 +4.5628819039644934e+00 -1.1416795646611708e+02 +1.8718591489265089e+03 +3.5584218919149454e+05 -1.4463811587280225e+07 
+2.8499999999999979e+00 -5.5231268349973661e-01 +7.2774685795190326e+00 +4.5418967586479209e+00 -1.1390387088242959e+02 +1.8852134428190279e+03 +3.5515689238485717e+05 -1.4633314009332094e+07 
+2.8999999999999977e+00 -5.5232901200610163e-01 +7.2784655626731949e+00 +4.5208557155476576e+00 -1.1364220772791731e+02 +1.8936128786042259e+03 +3.5451795964759839e+05 -1.4773922080783416e+07 
+2.9499999999999975e+00 -5.5234563563015682e-01 +7.2794770800625423e+00 +4.4997546442392231e+00 -1.1338379160877521e+02 +1.8971962486279008e+03 +3.5393020435712719e+05 -1.4886320621162314e+07 
+2.9999999999999973e+00 -5.5236255237757725e-01 +7.2805030068056587e+00 +4.4785894123730632e+00 -1.1312944731118634e+02 +1.8961023976054560e+03 +3.5339844128533464e+05 -1.4971194800066495e+07 
+3.0499999999999972e+00 -5.5237976025406355e-01 +7.2815432180156270e+00 +4.4573558908926803e+00 -1.1287999939802216e+02 +1.8904700838033225e+03 +3.5292748340822209e+05 -1.5029229214795234e+07 
+3.0999999999999970e+00 -5.5239725726530298e-01 +7.2825975888111172e+00 +4.4360499471972767e+00 -1.1263627264338297e+02 +1.8804381604427736e+03 +3.5252214538275660e+05 -1.5061109104164900e+07 
+3.1499999999999968e+00 -5.5241504141701947e-01 +7.2836659943069968e+00 +4.4146674537463646e+00 -1.1239909165674834e+02 +1.8661453446738792e+03 +3.5218724050643342e+05 -1.5067518786314413e+07 
+3.1999999999999966e+00 -5.5243311071490830e-01 +7.2847483096224241e+00 +4.3932042764506747e+00 -1.1216928121028242e+02 +1.8477305358821693e+03 +3.5192758338491624e+05 -1.5049143836100586e+07 
+3.2499999999999964e+00 -5.5245146316471072e-01 +7.2858444098721948e+00 +4.3716562883774781e+00 -1.1194766588634137e+02 +1.8253324379390228e+03 +3.5174798703083175e+05 -1.5006668495303746e+07 
+3.2999999999999963e+00 -5.5247009677213721e-01 +7.2869541701774292e+00 +4.3500193558579161e+00 -1.1173507051479207e+02 +1.7990899376569778e+03 +3.5165326646930946e+05 -1.4940778247985097e+07 
+3.3499999999999961e+00 -5.5248900954295210e-01 +7.2880774656553866e+00 +4.3282893534550793e+00 -1.1153231975888451e+02 +1.7691417030530574e+03 +3.5164823533954140e+05 -1.4852157113113655e+07 
+3.3999999999999959e+00 -5.5250819948287944e-01 +7.2892141714245904e+00 +4.3064621476113238e+00 -1.1134023831936496e+02 +1.7356266212217695e+03 +3.5173770753650548e+05 -1.4741490589412792e+07 
+3.4499999999999957e+00 -5.5252766459767944e-01 +7.2903641626044742e+00 +4.2845336099405511e+00 -1.1115965092730310e+02 +1.6986834434944708e+03 +3.5192649719490140e+05 -1.4609463275411202e+07 
+3.4999999999999956e+00 -5.5254740289312310e-01 +7.2915273143152897e+00 +4.2624996130730510e+00 -1.1099138233707191e+02 +1.6584508911420160e+03 +3.5221941861101263e+05 -1.4456759553434595e+07 
+3.5499999999999954e+00 -5.5256741237496265e-01 +7.2927035016780550e+00 +4.2403560248564647e+00 -1.1083625732434422e+02 +1.6150678210040485e+03 +3.5262128621786903e+05 -1.4284064748912446e+07 
+3.5999999999999952e+00 -5.5258769104897631e-01 +7.2938925998131863e+00 +4.2180987172039091e+00 -1.1069510063451898e+02 +1.5686729783009330e+03 +3.5313691418892524e+05 -1.4092063426101625e+07 
+3.6499999999999950e+00 -5.5260823692094441e-01 +7.2950944838418641e+00 +4.1957235611438239e+00 -1.1056873702129518e+02 +1.5194051360693140e+03 +3.5377111667354015e+05 -1.3881440352408480e+07 
+3.6999999999999948e+00 -5.5262904799666690e-01 +7.2963090288860810e+00 +4.1732264302242079e+00 -1.1045799128368866e+02 +1.4674030005828502e+03 +3.5452870824976923e+05 -1.3652879848823328e+07 
+3.7499999999999947e+00 -5.5265012228191335e-01 +7.2975361100673517e+00 +4.1506031921903812e+00 -1.1036368817050916e+02 +1.4128054328425585e+03 +3.5541450295899867e+05 -1.3407067275756111e+07 
+3.7999999999999945e+00 -5.5267145778249882e-01 +7.2987756025110384e+00 +4.1278497211248348e+00 -1.1028665259515310e+02 +1.3557511320857313e+03 +3.5643331621616008e+05 -1.3144686934855891e+07 
+3.8499999999999943e+00 -5.5269305250422951e-01 +7.3000273813381842e+00 +4.1049618891854420e+00 -1.1022770927423092e+02 +1.2963788470343500e+03 +3.5758996174678270e+05 -1.2866423454840276e+07 
+3.8999999999999941e+00 -5.5271490445290206e-01 +7.3012913216730020e+00 +4.0819355664546748e+00 -1.1018768306268217e+02 +1.2348273804190803e+03 +3.5888925443252135e+05 -1.2572961820309166e+07 
+3.9499999999999940e+00 -5.5273701163434741e-01 +7.3025672986409171e+00 +4.0587666275387688e+00 -1.1016739883593048e+02 +1.1712354229735276e+03 +3.6033600920447736e+05 -1.2264986298832320e+07 
+3.9999999999999938e+00 -5.5275937205437187e-01 +7.3038551873677955e+00 +4.0354509422800628e+00 -1.1016768148643783e+02 +1.1057417930071417e+03 +3.6193504118933174e+05 -1.1943182010493238e+07 
+4.0499999999999936e+00 -5.5278198360449493e-01 +7.3051548556766992e+00 +4.0119842356170858e+00 -1.1018909097987266e+02 +1.0385016520698805e+03 +3.6368928454007185e+05 -1.1608365146860145e+07 
+4.0999999999999934e+00 -5.5280484371828109e-01 +7.3064661367038122e+00 +3.9883619206502248e+00 -1.1023117361507782e+02 +9.6972625499830303e+02 +3.6559444182683330e+05 -1.1261809495968059e+07 
+4.1499999999999932e+00 -5.5282794971464522e-01 +7.3077888535237765e+00 +3.9645794235978138e+00 -1.1029323314231644e+02 +8.9963854821350571e+02 +3.6764447492485127e+05 -1.0904886471365904e+07 
+4.1999999999999931e+00 -5.5285129891250318e-01 +7.3091228292101267e+00 +3.9406321710078580e+00 -1.1037457327760710e+02 +8.2846146272936073e+02 +3.6983334538689657e+05 -1.0538967347608641e+07 
+4.2499999999999929e+00 -5.5287488863077472e-01 +7.3104678868380031e+00 +3.9165155893327208e+00 -1.1047449780868287e+02 +7.5641793853443824e+02 +3.7215501535475213e+05 -1.0165423484383831e+07 
+4.2999999999999927e+00 -5.5289871618837449e-01 +7.3118238494791461e+00 +3.8922251038271494e+00 -1.1059231038194785e+02 +6.8373094554315617e+02 +3.7460344577643892e+05 -9.7856264301560633e+06 
+4.3499999999999925e+00 -5.5292277890423069e-01 +7.3131905402127773e+00 +3.8677561420195410e+00 -1.1072731496692006e+02 +6.1062339200533961e+02 +3.7717260029663570e+05 -9.4009473147176728e+06 
+4.3999999999999924e+00 -5.5294707409726451e-01 +7.3145677821114363e+00 +3.8431041303303948e+00 -1.1087881524945345e+02 +5.3731821344481625e+02 +3.7985644016299926e+05 -9.0127574418327045e+06 
+4.4499999999999922e+00 -5.5297159908638449e-01 +7.3159553982529379e+00 +3.8182644914203498e+00 -1.1104611515662489e+02 +4.6403845568795384e+02 +3.8264892867963028e+05 -8.6224288865451291e+06 
+4.4999999999999920e+00 -5.5299635119053148e-01 +7.3173532117128079e+00 +3.7932326551824489e+00 -1.1122851851466638e+02 +3.9100695693664250e+02 +3.8554402825525962e+05 -8.2313322758534299e+06 
+4.5499999999999918e+00 -5.5302132772860935e-01 +7.3187610455695848e+00 +3.7680040435829580e+00 -1.1142532928910893e+02 +3.1844677855326040e+02 +3.8853570247914252e+05 -7.8408397752892058e+06 
+4.5999999999999917e+00 -5.5304652601955251e-01 +7.3201787229008284e+00 +3.7425740846384898e+00 -1.1163585140416491e+02 +2.4658081345853532e+02 +3.9161791456228856e+05 -7.4523223909121463e+06 
+4.6499999999999915e+00 -5.5307194338227084e-01 +7.3216060667837208e+00 +3.7169382013987806e+00 -1.1185938878899353e+02 +1.7563209317019187e+02 +3.9478462779966864e+05 -7.0671520796344597e+06 
+4.6999999999999913e+00 -5.5309757713568874e-01 +7.3230429002984154e+00 +3.6910918199355134e+00 -1.1209524549607269e+02 +1.0582356256179476e+02 +3.9802980646001751e+05 -6.6867001906215250e+06 
+4.7499999999999911e+00 -5.5312342459873198e-01 +7.3244890465241790e+00 +3.6650303663802237e+00 -1.1234272555059073e+02 +3.7378167567105926e+01 +4.0134741459591273e+05 -6.3123380879967026e+06 
+4.7999999999999909e+00 -5.5314948309029921e-01 +7.3259443285396069e+00 +3.6387492623576092e+00 -1.1260113296460069e+02 -2.9481027588897692e+01 +4.0473141615370085e+05 -5.9454379178941492e+06 
+4.8499999999999908e+00 -5.5317574992932361e-01 +7.3274085694281297e+00 +3.6122439352181703e+00 -1.1286977195720911e+02 -9.4531106731085032e+01 +4.0817577678308671e+05 -5.5873708506430471e+06 
+4.8999999999999906e+00 -5.5320222243471362e-01 +7.3288815922666188e+00 +3.5855098086911790e+00 -1.1314794649199574e+02 -1.5754906323514970e+02 +4.1167446002865344e+05 -5.2395086352581773e+06 
+4.9499999999999904e+00 -5.5322889792537477e-01 +7.3303632201404492e+00 +3.5585423057450583e+00 -1.1343496088410363e+02 -2.1831186678679731e+02 +4.1522143229439558e+05 -4.9032231896544769e+06 
+4.9999999999999902e+00 -5.5325577372022450e-01 +7.3318532761288857e+00 +3.5313368519752788e+00 -1.1373011922632358e+02 -2.7659655862876258e+02 +4.1881065821779746e+05 -4.5798859434145838e+06 
+5.0499999999999901e+00 -5.5328284713816533e-01 +7.3333515833181204e+00 +3.5038888703299547e+00 -1.1403272589939648e+02 -3.3218010872292564e+02 +4.2243610476460110e+05 -4.2708688017990282e+06 
