# field on trajectory
# s[mm] rx[mm] ry[mm] rz[mm] bx[T] by[T] bz[T]
-0.0000000000000000e+00 +8.5269999999999904e+00 +0.0000000000000000e+00 -0.0000000000000000e+00 -2.9116402754522520e-02 -5.2272432176884709e-01 +5.1641502844311854e-03
-5.0000000000000003e-02 +8.5269999309457507e+00 +0.0000000000000000e+00 -4.9999999999936401e-02 -2.9116646828333807e-02 -5.2272547258714341e-01 +5.1667204846350019e-03
-1.0000000000000001e-01 +8.5269997237883199e+00 +0.0000000000000000e+00 -9.9999999999491399e-02 -2.9116915934188890e-02 -5.2272700625146351e-01 +5.1692917942245190e-03
-1.4999999999999999e-01 +8.5269993785295792e+00 +0.0000000000000000e+00 -1.4999999999828301e-01 -2.9117210080429026e-02 -5.2272892199808318e-01 +5.1718639844125225e-03
-2.0000000000000001e-01 +8.5269988951622508e+00 +0.0000000000000000e+00 -1.9999999999593099e-01 -2.9117529275399692e-02 -5.2273121906335840e-01 +5.1744368264122990e-03
-2.5000000000000000e-01 +8.5269982736936107e+00 +0.0000000000000000e+00 -2.4999999999205300e-01 -2.9117873527442408e-02 -5.2273389668356185e-01 +5.1770100914359353e-03
-2.9999999999999999e-01 +8.5269975141200103e+00 +0.0000000000000000e+00 -2.9999999998626797e-01 -2.9118242844903695e-02 -5.2273695409505783e-01 +5.1795835506961404e-03
-3.4999999999999998e-01 +8.5269966164378292e+00 +0.0000000000000000e+00 -3.4999999997819298e-01 -2.9118637236131242e-02 -5.2274039053422749e-01 +5.1821569754054407e-03
-4.0000000000000002e-01 +8.5269955806543294e+00 +0.0000000000000000e+00 -3.9999999996744900e-01 -2.9119056709470303e-02 -5.2274420523739440e-01 +5.1847301367753985e-03
-4.5000000000000001e-01 +8.5269944067658798e+00 +0.0000000000000000e+00 -4.4999999995365297e-01 -2.9119501273271203e-02 -5.2274839744097323e-01 +5.1873028060181710e-03
-5.0000000000000000e-01 +8.5269930947724806e+00 +0.0000000000000000e+00 -4.9999999993642402e-01 -2.9119970935884438e-02 -5.2275296638137059e-01 +5.1898747543454408e-03
-5.5000000000000004e-01 +8.5269916446777607e+00 +0.0000000000000000e+00 -5.4999999991537996e-01 -2.9120465705660695e-02 -5.2275791129498483e-01 +5.1924457529684232e-03
-5.9999999999999998e-01 +8.5269900564744603e+00 +0.0000000000000000e+00 -5.9999999989013997e-01 -2.9120985590955939e-02 -5.2276323141830516e-01 +5.1950155730988981e-03
-6.5000000000000002e-01 +8.5269883301661995e+00 +0.0000000000000000e+00 -6.4999999986032297e-01 -2.9121530600123961e-02 -5.2276892598776303e-01 +5.1975839859476312e-03
-6.9999999999999996e-01 +8.5269864657566394e+00 +0.0000000000000000e+00 -6.9999999982554695e-01 -2.9122100741520145e-02 -5.2277499423980589e-01 +5.2001507627251345e-03
-7.5000000000000000e-01 +8.5269844632421208e+00 +0.0000000000000000e+00 -7.4999999978543097e-01 -2.9122696023504088e-02 -5.2278143541094813e-01 +5.2027156746422146e-03
-8.0000000000000004e-01 +8.5269823226226400e+00 +0.0000000000000000e+00 -7.9999999973959202e-01 -2.9123316454435923e-02 -5.2278824873769481e-01 +5.2052784929091491e-03
-8.4999999999999998e-01 +8.5269800438982202e+00 +0.0000000000000000e+00 -8.4999999968765005e-01 -2.9123962042677476e-02 -5.2279543345656743e-01 +5.2078389887359432e-03
-9.0000000000000002e-01 +8.5269776270688507e+00 +0.0000000000000000e+00 -8.9999999962922395e-01 -2.9124632796592529e-02 -5.2280298880410359e-01 +5.2103969333323324e-03
-9.4999999999999996e-01 +8.5269750721381605e+00 +0.0000000000000000e+00 -9.4999999956393100e-01 -2.9125328724545475e-02 -5.2281091401683266e-01 +5.2129520979074979e-03
-1.0000000000000000e+00 +8.5269723790988792e+00 +0.0000000000000000e+00 -9.9999999949139096e-01 -2.9126049834906478e-02 -5.2281920833137430e-01 +5.2155042536711285e-03
-1.0500000000000000e+00 +8.5269695479546499e+00 +0.0000000000000000e+00 -1.0499999994112199e+00 -2.9126796136043936e-02 -5.2282787098428996e-01 +5.2180531718318008e-03
-1.1000000000000001e+00 +8.5269665787091107e+00 +0.0000000000000000e+00 -1.0999999993230400e+00 -2.9127567636328330e-02 -5.2283690121215609e-01 +5.2205986235977862e-03
-1.1499999999999999e+00 +8.5269634713586093e+00 +0.0000000000000000e+00 -1.1499999992264700e+00 -2.9128364344134832e-02 -5.2284629825161599e-01 +5.2231403801775624e-03
-1.2000000000000000e+00 +8.5269602259031707e+00 +0.0000000000000000e+00 -1.1999999991211201e+00 -2.9129186267839523e-02 -5.2285606133930318e-01 +5.2256782127790080e-03
-1.2500000000000000e+00 +8.5269568423427700e+00 +0.0000000000000000e+00 -1.2499999990066200e+00 -2.9130033415820756e-02 -5.2286618971186760e-01 +5.2282118926096650e-03
-1.3000000000000000e+00 +8.5269533206774195e+00 +0.0000000000000000e+00 -1.2999999988825901e+00 -2.9130905796459227e-02 -5.2287668260597420e-01 +5.2307411908767212e-03
-1.3500000000000001e+00 +8.5269496609071194e+00 +0.0000000000000000e+00 -1.3499999987486300e+00 -2.9131803418137966e-02 -5.2288753925830445e-01 +5.2332658787870058e-03
-1.3999999999999999e+00 +8.5269458630355093e+00 +0.0000000000000000e+00 -1.3999999986043801e+00 -2.9132726289241184e-02 -5.2289875890552950e-01 +5.2357857275467075e-03
-1.4500000000000000e+00 +8.5269419270553009e+00 +0.0000000000000000e+00 -1.4499999984494401e+00 -2.9133674418159380e-02 -5.2291034078441190e-01 +5.2383005083624550e-03
-1.5000000000000000e+00 +8.5269378529737896e+00 +0.0000000000000000e+00 -1.4999999982834400e+00 -2.9134647813280519e-02 -5.2292228413162944e-01 +5.2408099924393927e-03
-1.5500000000000000e+00 +8.5269336407873197e+00 +0.0000000000000000e+00 -1.5499999981060000e+00 -2.9135646482998979e-02 -5.2293458818394956e-01 +5.2433139509830947e-03
-1.6000000000000001e+00 +8.5269292904959002e+00 +0.0000000000000000e+00 -1.5999999979167401e+00 -2.9136670435710551e-02 -5.2294725217813176e-01 +5.2458121551984573e-03
-1.6499999999999999e+00 +8.5269248020995292e+00 +0.0000000000000000e+00 -1.6499999977152600e+00 -2.9137719679813715e-02 -5.2296027535094958e-01 +5.2483043762899537e-03
-1.7000000000000000e+00 +8.5269201755982102e+00 +0.0000000000000000e+00 -1.6999999975011999e+00 -2.9138794223709723e-02 -5.2297365693919196e-01 +5.2507903854616435e-03
-1.7500000000000000e+00 +8.5269154109919292e+00 +0.0000000000000000e+00 -1.7499999972741700e+00 -2.9139894075802676e-02 -5.2298739617966394e-01 +5.2532699539171437e-03
-1.8000000000000000e+00 +8.5269105082843506e+00 +0.0000000000000000e+00 -1.7999999970337901e+00 -2.9141019244498280e-02 -5.2300149230915938e-01 +5.2557428528593577e-03
-1.8500000000000001e+00 +8.5269054674718099e+00 +0.0000000000000000e+00 -1.8499999967796801e+00 -2.9142169738207768e-02 -5.2301594456453870e-01 +5.2582088534912893e-03
-1.8999999999999999e+00 +8.5269002885506797e+00 +0.0000000000000000e+00 -1.8999999965114500e+00 -2.9143345565345289e-02 -5.2303075218267581e-01 +5.2606677270154766e-03
-1.9500000000000000e+00 +8.5268949715282396e+00 +0.0000000000000000e+00 -1.9499999962287300e+00 -2.9144546734324338e-02 -5.2304591440038650e-01 +5.2631192446331680e-03
-2.0000000000000000e+00 +8.5268895164008391e+00 +0.0000000000000000e+00 -1.9999999959311201e+00 -2.9145773253565269e-02 -5.2306143045457465e-01 +5.2655631775459502e-03
-2.0499999999999998e+00 +8.5268839230666291e+00 +0.0000000000000000e+00 -2.0499999956182600e+00 -2.9147025084113150e-02 -5.2307729936533631e-01 +5.2679993073681229e-03
-2.1000000000000001e+00 +8.5268781914164702e+00 +0.0000000000000000e+00 -2.0999999952897199e+00 -2.9148301997367090e-02 -5.2309351928284054e-01 +5.2704274573369620e-03
-2.1499999999999999e+00 +8.5268723214576294e+00 +0.0000000000000000e+00 -2.1499999949451398e+00 -2.9149603717273410e-02 -5.2311008813897297e-01 +5.2728474610860242e-03
-2.2000000000000002e+00 +8.5268663131864706e+00 +0.0000000000000000e+00 -2.1999999945841302e+00 -2.9150929967782263e-02 -5.2312700386570565e-01 +5.2752591522490363e-03
-2.2500000000000000e+00 +8.5268601666030008e+00 +0.0000000000000000e+00 -2.2499999942063100e+00 -2.9152280472842435e-02 -5.2314426439499717e-01 +5.2776623644587893e-03
-2.2999999999999998e+00 +8.5268538817035697e+00 +0.0000000000000000e+00 -2.2999999938113000e+00 -2.9153654956403777e-02 -5.2316186765884376e-01 +5.2800569313476656e-03
-2.3500000000000001e+00 +8.5268474584954692e+00 +0.0000000000000000e+00 -2.3499999933987001e+00 -2.9155053142411968e-02 -5.2317981158917737e-01 +5.2824426865465055e-03
-2.3999999999999999e+00 +8.5268408969750507e+00 +0.0000000000000000e+00 -2.3999999929681501e+00 -2.9156474754816031e-02 -5.2319809411801599e-01 +5.2848194636862696e-03
-2.4500000000000002e+00 +8.5268341971459396e+00 +0.0000000000000000e+00 -2.4499999925192602e+00 -2.9157919517561845e-02 -5.2321671317733898e-01 +5.2871870963966307e-03
-2.5000000000000000e+00 +8.5268273590008903e+00 +0.0000000000000000e+00 -2.4999999920516398e+00 -2.9159387154598374e-02 -5.2323566669921162e-01 +5.2895454183073372e-03
-2.5499999999999998e+00 +8.5268203825435194e+00 +0.0000000000000000e+00 -2.5499999915649201e+00 -2.9160877389869885e-02 -5.2325495261563426e-01 +5.2918942630465395e-03
-2.6000000000000001e+00 +8.5268132677774702e+00 +0.0000000000000000e+00 -2.5999999910586999e+00 -2.9162389947319709e-02 -5.2327456885861789e-01 +5.2942334642415937e-03
-2.6499999999999999e+00 +8.5268060146954703e+00 +0.0000000000000000e+00 -2.6499999905326099e+00 -2.9163924550893845e-02 -5.2329451336025923e-01 +5.2965628555199061e-03
-2.7000000000000002e+00 +8.5267986233047797e+00 +0.0000000000000000e+00 -2.6999999899862699e+00 -2.9165480924531959e-02 -5.2331478405256382e-01 +5.2988822705069263e-03
-2.7500000000000000e+00 +8.5267910936017905e+00 +0.0000000000000000e+00 -2.7499999894192899e+00 -2.9167058792176230e-02 -5.2333537886762294e-01 +5.3011915428281273e-03
-2.7999999999999998e+00 +8.5267834255828294e+00 +0.0000000000000000e+00 -2.7999999888312899e+00 -2.9168657877767269e-02 -5.2335629573753717e-01 +5.3034905061081199e-03
-2.8500000000000001e+00 +8.5267756192552007e+00 +0.0000000000000000e+00 -2.8499999882218900e+00 -2.9170277905240287e-02 -5.2337753259434072e-01 +5.3057789939698020e-03
-2.8999999999999999e+00 +8.5267676746152592e+00 +0.0000000000000000e+00 -2.8999999875907001e+00 -2.9171918598532555e-02 -5.2339908737015284e-01 +5.3080568400360332e-03
-2.9500000000000002e+00 +8.5267595916629908e+00 +0.0000000000000000e+00 -2.9499999869373399e+00 -2.9173579681578223e-02 -5.2342095799707644e-01 +5.3103238779284891e-03
-3.0000000000000000e+00 +8.5267513703984203e+00 +0.0000000000000000e+00 -2.9999999862614302e+00 -2.9175260878309402e-02 -5.2344314240722301e-01 +5.3125799412679234e-03
-3.0499999999999998e+00 +8.5267430108251592e+00 +0.0000000000000000e+00 -3.0499999855625899e+00 -2.9176961912654835e-02 -5.2346563853268768e-01 +5.3148248636738712e-03
-3.1000000000000001e+00 +8.5267345129359509e+00 +0.0000000000000000e+00 -3.0999999848404300e+00 -2.9178682508544797e-02 -5.2348844430564845e-01 +5.3170584787657679e-03
-3.1499999999999999e+00 +8.5267258767344192e+00 +0.0000000000000000e+00 -3.1499999840945798e+00 -2.9180422389903395e-02 -5.2351155765821755e-01 +5.3192806201612279e-03
-3.2000000000000002e+00 +8.5267171022205694e+00 +0.0000000000000000e+00 -3.1999999833246400e+00 -2.9182181280653474e-02 -5.2353497652253866e-01 +5.3214911214771593e-03
-3.2500000000000000e+00 +8.5267081893980503e+00 +0.0000000000000000e+00 -3.2499999825302401e+00 -2.9183958904713987e-02 -5.2355869883073902e-01 +5.3236898163291843e-03
-3.2999999999999998e+00 +8.5266991382632096e+00 +0.0000000000000000e+00 -3.2999999817109900e+00 -2.9185754986003662e-02 -5.2358272251500326e-01 +5.3258765383324804e-03
-3.3500000000000001e+00 +8.5266899488124199e+00 +0.0000000000000000e+00 -3.3499999808665200e+00 -2.9187569248438332e-02 -5.2360704550752279e-01 +5.3280511211011823e-03
-3.3999999999999999e+00 +8.5266806210529502e+00 +0.0000000000000000e+00 -3.3999999799964300e+00 -2.9189401415926991e-02 -5.2363166574042164e-01 +5.3302133982475151e-03
-3.4500000000000002e+00 +8.5266711549811607e+00 +0.0000000000000000e+00 -3.4499999791003502e+00 -2.9191251212379320e-02 -5.2365658114590563e-01 +5.3323632033834981e-03
-3.5000000000000000e+00 +8.5266615505970496e+00 +0.0000000000000000e+00 -3.4999999781778901e+00 -2.9193118361700448e-02 -5.2368178965616186e-01 +5.3345003701197715e-03
-3.5499999999999998e+00 +8.5266518079006293e+00 +0.0000000000000000e+00 -3.5499999772286701e+00 -2.9195002587792094e-02 -5.2370728920338394e-01 +5.3366247320658731e-03
-3.6000000000000001e+00 +8.5266419268882601e+00 +0.0000000000000000e+00 -3.5999999762523198e+00 -2.9196903614553758e-02 -5.2373307771979727e-01 +5.3387361228305133e-03
-3.6499999999999999e+00 +8.5266319075708505e+00 +0.0000000000000000e+00 -3.6499999752484298e+00 -2.9198821165876142e-02 -5.2375915313753252e-01 +5.3408343760201066e-03
-3.6999999999999900e+00 +8.5266217499374797e+00 +0.0000000000000000e+00 -3.6999999742166398e+00 -2.9200754965653854e-02 -5.2378551338887636e-01 +5.3429193252416502e-03
-3.7499999999999898e+00 +8.5266114539917908e+00 +0.0000000000000000e+00 -3.7499999731565601e+00 -2.9202704737772481e-02 -5.2381215640602163e-01 +5.3449908040998119e-03
-3.7999999999999901e+00 +8.5266010197374307e+00 +0.0000000000000000e+00 -3.7999999720678099e+00 -2.9204670206113583e-02 -5.2383908012116565e-01 +5.3470486461980717e-03
-3.8499999999999899e+00 +8.5265904471671092e+00 +0.0000000000000000e+00 -3.8499999709499999e+00 -2.9206651094558351e-02 -5.2386628246658673e-01 +5.3490926851395802e-03
-3.8999999999999901e+00 +8.5265797362881095e+00 +0.0000000000000000e+00 -3.8999999698027499e+00 -2.9208647126978640e-02 -5.2389376137446775e-01 +5.3511227545251045e-03
-3.9499999999999900e+00 +8.5265688870931609e+00 +0.0000000000000000e+00 -3.9499999686256899e+00 -2.9210658027246945e-02 -5.2392151477709603e-01 +5.3531386879553337e-03
-3.9999999999999898e+00 +8.5265578995895304e+00 +0.0000000000000000e+00 -3.9999999674184199e+00 -2.9212683519226131e-02 -5.2394954060666465e-01 +5.3551403190285462e-03
-4.0499999999999901e+00 +8.5265467737735907e+00 +0.0000000000000000e+00 -4.0499999661805601e+00 -2.9214723352742316e-02 -5.2397783666366204e-01 +5.3571275007037508e-03
-4.0999999999999899e+00 +8.5265355096416897e+00 +0.0000000000000000e+00 -4.0999999649117402e+00 -2.9216777381475406e-02 -5.2400640022144829e-01 +5.3591001633834573e-03
-4.1499999999999897e+00 +8.5265241072047502e+00 +0.0000000000000000e+00 -4.1499999636115703e+00 -2.9218845485065356e-02 -5.2403522842150152e-01 +5.3610582568291648e-03
-4.1999999999999904e+00 +8.5265125664518600e+00 +0.0000000000000000e+00 -4.1999999622796604e+00 -2.9220927543161416e-02 -5.2406431840544931e-01 +5.3630017308030744e-03
-4.2499999999999902e+00 +8.5265008873866499e+00 +0.0000000000000000e+00 -4.2499999609156403e+00 -2.9223023435409334e-02 -5.2409366731482021e-01 +5.3649305350651670e-03
-4.2999999999999901e+00 +8.5264890700091200e+00 +0.0000000000000000e+00 -4.2999999595191198e+00 -2.9225133041457862e-02 -5.2412327229116695e-01 +5.3668446193746557e-03
-4.3499999999999899e+00 +8.5264771143192792e+00 +0.0000000000000000e+00 -4.3499999580897200e+00 -2.9227256240957546e-02 -5.2415313047604195e-01 +5.3687439334896853e-03
-4.3999999999999897e+00 +8.5264650203207601e+00 +0.0000000000000000e+00 -4.3999999566270596e+00 -2.9229392913559509e-02 -5.2418323901097130e-01 +5.3706284271670254e-03
-4.4499999999999904e+00 +8.5264527880062797e+00 +0.0000000000000000e+00 -4.4499999551307496e+00 -2.9231542938920645e-02 -5.2421359503755560e-01 +5.3724980501632389e-03
-4.4999999999999902e+00 +8.5264404173794901e+00 +0.0000000000000000e+00 -4.4999999536004101e+00 -2.9233706196695974e-02 -5.2424419569731817e-01 +5.3743527522329146e-03
-4.5499999999999901e+00 +8.5264279084440204e+00 +0.0000000000000000e+00 -4.5499999520356598e+00 -2.9235882566542592e-02 -5.2427503813178100e-01 +5.3761924831295356e-03
-4.5999999999999899e+00 +8.5264152611962292e+00 +0.0000000000000000e+00 -4.5999999504361098e+00 -2.9238071928122288e-02 -5.2430611948251393e-01 +5.3780171926060558e-03
-4.6499999999999897e+00 +8.5264024756361305e+00 +0.0000000000000000e+00 -4.6499999488013897e+00 -2.9240274161097739e-02 -5.2433743689105894e-01 +5.3798268304140213e-03
-4.6999999999999904e+00 +8.5263895517600794e+00 +0.0000000000000000e+00 -4.6999999471311096e+00 -2.9242489145135199e-02 -5.2436898749898120e-01 +5.3816213463041369e-03
-4.7499999999999902e+00 +8.5263764895753393e+00 +0.0000000000000000e+00 -4.7499999454248902e+00 -2.9244716759899380e-02 -5.2440076844776651e-01 +5.3834006900250865e-03
-4.7999999999999901e+00 +8.5263632890782901e+00 +0.0000000000000000e+00 -4.7999999436823400e+00 -2.9246956885061261e-02 -5.2443277687897305e-01 +5.3851648113252886e-03
-4.8499999999999899e+00 +8.5263499502725608e+00 +0.0000000000000000e+00 -4.8499999419030901e+00 -2.9249209400291722e-02 -5.2446500993410583e-01 +5.3869136599514200e-03
-4.8999999999999897e+00 +8.5263364731472393e+00 +0.0000000000000000e+00 -4.8999999400867402e+00 -2.9251474185269279e-02 -5.2449746475476544e-01 +5.3886471856501713e-03
-4.9499999999999904e+00 +8.5263228577168793e+00 +0.0000000000000000e+00 -4.9499999382329296e+00 -2.9253751119666119e-02 -5.2453013848237229e-01 +5.3903653381649928e-03
-4.9999999999999902e+00 +8.5263091039705596e+00 +0.0000000000000000e+00 -4.9999999363412497e+00 -2.9256040083166054e-02 -5.2456302825851897e-01 +5.3920680672402211e-03
-5.0499999999999901e+00 +8.5262952115954196e+00 +0.0000000000000000e+00 -5.0499999344112600e+00 -2.9258340955562304e-02 -5.2459613122688820e-01 +5.3937553226436029e-03
-5.0999999999999899e+00 +8.5262811802713294e+00 +0.0000000000000000e+00 -5.0999999324424596e+00 -2.9260653616653615e-02 -5.2462944453121041e-01 +5.3954270541423602e-03
-5.1499999999999897e+00 +8.5262670100019005e+00 +0.0000000000000000e+00 -5.1499999304344799e+00 -2.9262977946127269e-02 -5.2466296531296452e-01 +5.3970832114761695e-03
-5.1999999999999904e+00 +8.5262527007798798e+00 +0.0000000000000000e+00 -5.1999999283869203e+00 -2.9265313823677312e-02 -5.2469669071369973e-01 +5.3987237443843738e-03
-5.2499999999999902e+00 +8.5262382526088896e+00 +0.0000000000000000e+00 -5.2499999262994104e+00 -2.9267661128996980e-02 -5.2473061787488273e-01 +5.4003486026042019e-03
-5.2999999999999901e+00 +8.5262236654925800e+00 +0.0000000000000000e+00 -5.2999999241715603e+00 -2.9270019741782585e-02 -5.2476474393797479e-01 +5.4019577358716472e-03
-5.3499999999999899e+00 +8.5262089394273097e+00 +0.0000000000000000e+00 -5.3499999220029704e+00 -2.9272389541736134e-02 -5.2479906604448034e-01 +5.4035510939220398e-03
-5.3999999999999897e+00 +8.5261940744130698e+00 +0.0000000000000000e+00 -5.3999999197932702e+00 -2.9274770408561582e-02 -5.2483358133587121e-01 +5.4051286264891691e-03
-5.4499999999999904e+00 +8.5261790704498708e+00 +0.0000000000000000e+00 -5.4499999175420601e+00 -2.9277162221966205e-02 -5.2486828695361287e-01 +5.4066902833055557e-03
-5.4999999999999902e+00 +8.5261639275377092e+00 +0.0000000000000000e+00 -5.4999999152489698e+00 -2.9279564861660556e-02 -5.2490318003916225e-01 +5.4082360141024530e-03
-5.5499999999999901e+00 +8.5261486456802196e+00 +0.0000000000000000e+00 -5.5499999129136004e+00 -2.9281978207357388e-02 -5.2493825773394354e-01 +5.4097657686095306e-03
-5.5999999999999899e+00 +8.5261332248737691e+00 +0.0000000000000000e+00 -5.5999999105355700e+00 -2.9284402138775482e-02 -5.2497351717942276e-01 +5.4112794965557650e-03
-5.6499999999999897e+00 +8.5261176651147306e+00 +0.0000000000000000e+00 -5.6499999081144896e+00 -2.9286836535637212e-02 -5.2500895551705828e-01 +5.4127771476688421e-03
-5.6999999999999904e+00 +8.5261019664103497e+00 +0.0000000000000000e+00 -5.6999999056499897e+00 -2.9289281277664676e-02 -5.2504456988822257e-01 +5.4142586716742422e-03
-5.7499999999999902e+00 +8.5260861287570204e+00 +0.0000000000000000e+00 -5.7499999031416600e+00 -2.9291736244587543e-02 -5.2508035743435588e-01 +5.4157240182970212e-03
-5.7999999999999901e+00 +8.5260701521547198e+00 +0.0000000000000000e+00 -5.7999999005891203e+00 -2.9294201316137976e-02 -5.2511631529686287e-01 +5.4171731372606247e-03
-5.8499999999999899e+00 +8.5260540366070892e+00 +0.0000000000000000e+00 -5.8499998979920003e+00 -2.9296676372050662e-02 -5.2515244061711330e-01 +5.4186059782868534e-03
