# trajectory
# s[mm] rx[mm] ry[mm] rz[mm] px[rad] py[rad] pz[rad]
0.0000000000000000e+00 +8.5269999999999992e+00 +0.0000000000000000e+00 +0.0000000000000000e+00 +0.0000000000000000e+00 +0.0000000000000000e+00 +1.0000000000000000e+00
-5.0000000000000003e-02 +8.5269999311458715e+00 +0.0000000000000000e+00 -4.9999999999936789e-02 +2.7541653642668691e-06 +0.0000000000000000e+00 +9.9999999999620726e-01
-1.0000000000000001e-01 +8.5269997245834208e+00 +0.0000000000000000e+00 -9.9999999999494299e-02 +5.5083332598205529e-06 +0.0000000000000000e+00 +9.9999999998482914e-01
-1.5000000000000002e-01 +8.5269993803124695e+00 +0.0000000000000000e+00 -1.4999999999829328e-01 +8.2625057259365360e-06 +0.0000000000000000e+00 +9.9999999996586553e-01
-2.0000000000000001e-01 +8.5269988983327387e+00 +0.0000000000000000e+00 -1.9999999999595441e-01 +1.1016684797896717e-05 +0.0000000000000000e+00 +9.9999999993931632e-01
-2.5000000000000000e-01 +8.5269982786438465e+00 +0.0000000000000000e+00 -2.4999999999209846e-01 +1.3770872506989498e-05 +0.0000000000000000e+00 +9.9999999990518151e-01
-2.9999999999999999e-01 +8.5269975212453097e+00 +0.0000000000000000e+00 -2.9999999998634613e-01 +1.6525070880509881e-05 +0.0000000000000000e+00 +9.9999999986346100e-01
-3.4999999999999998e-01 +8.5269966261365457e+00 +0.0000000000000000e+00 -3.4999999997831815e-01 +1.9279281941759564e-05 +0.0000000000000000e+00 +9.9999999981415466e-01
-3.9999999999999997e-01 +8.5269955933168706e+00 +0.0000000000000000e+00 -3.9999999996763519e-01 +2.2033507710047029e-05 +0.0000000000000000e+00 +9.9999999975726228e-01
-4.4999999999999996e-01 +8.5269944227854975e+00 +0.0000000000000000e+00 -4.4999999995391793e-01 +2.4787750200687631e-05 +0.0000000000000000e+00 +9.9999999969278375e-01
-4.9999999999999994e-01 +8.5269931145415399e+00 +0.0000000000000000e+00 -4.9999999993678712e-01 +2.7542011425003699e-05 +0.0000000000000000e+00 +9.9999999962071884e-01
-5.4999999999999993e-01 +8.5269916685840101e+00 +0.0000000000000000e+00 -5.4999999991586335e-01 +3.0296293390324621e-05 +0.0000000000000000e+00 +9.9999999954106733e-01
-5.9999999999999998e-01 +8.5269900849118212e+00 +0.0000000000000000e+00 -5.9999999989076735e-01 +3.3050598099986933e-05 +0.0000000000000000e+00 +9.9999999945382900e-01
-6.5000000000000002e-01 +8.5269883635237864e+00 +0.0000000000000000e+00 -6.4999999986111978e-01 +3.5804927553334417e-05 +0.0000000000000000e+00 +9.9999999935900363e-01
-7.0000000000000007e-01 +8.5269865044186197e+00 +0.0000000000000000e+00 -6.9999999982654126e-01 +3.8559283745718187e-05 +0.0000000000000000e+00 +9.9999999925659089e-01
-7.5000000000000011e-01 +8.5269845075949338e+00 +0.0000000000000000e+00 -7.4999999978665244e-01 +4.1313668668496782e-05 +0.0000000000000000e+00 +9.9999999914659043e-01
-8.0000000000000016e-01 +8.5269823730512417e+00 +0.0000000000000000e+00 -7.9999999974107383e-01 +4.4068084309036253e-05 +0.0000000000000000e+00 +9.9999999902900205e-01
-8.5000000000000020e-01 +8.5269801007859574e+00 +0.0000000000000000e+00 -8.4999999968942608e-01 +4.6822532650710241e-05 +0.0000000000000000e+00 +9.9999999890382529e-01
-9.0000000000000024e-01 +8.5269776907973984e+00 +0.0000000000000000e+00 -8.9999999963132982e-01 +4.9577015672900101e-05 +0.0000000000000000e+00 +9.9999999877105983e-01
-9.5000000000000029e-01 +8.5269751430837797e+00 +0.0000000000000000e+00 -9.4999999956640557e-01 +5.2331535350994944e-05 +0.0000000000000000e+00 +9.9999999863070532e-01
-1.0000000000000002e+00 +8.5269724576432200e+00 +0.0000000000000000e+00 -9.9999999949427387e-01 +5.5086093656391759e-05 +0.0000000000000000e+00 +9.9999999848276122e-01
-1.0500000000000003e+00 +8.5269696344737387e+00 +0.0000000000000000e+00 -1.0499999994145552e+00 +5.7840692556495491e-05 +0.0000000000000000e+00 +9.9999999832722719e-01
-1.1000000000000003e+00 +8.5269666735732557e+00 +0.0000000000000000e+00 -1.0999999993268701e+00 +6.0595334014719127e-05 +0.0000000000000000e+00 +9.9999999816410279e-01
-1.1500000000000004e+00 +8.5269635749395949e+00 +0.0000000000000000e+00 -1.1499999992308390e+00 +6.3350019990483791e-05 +0.0000000000000000e+00 +9.9999999799338757e-01
-1.2000000000000004e+00 +8.5269603385704826e+00 +0.0000000000000000e+00 -1.1999999991260824e+00 +6.6104752439218804e-05 +0.0000000000000000e+00 +9.9999999781508098e-01
-1.2500000000000004e+00 +8.5269569644635439e+00 +0.0000000000000000e+00 -1.2499999990122206e+00 +6.8859533312361801e-05 +0.0000000000000000e+00 +9.9999999762918246e-01
-1.3000000000000005e+00 +8.5269534526163113e+00 +0.0000000000000000e+00 -1.2999999988888740e+00 +7.1614364557358824e-05 +0.0000000000000000e+00 +9.9999999743569157e-01
-1.3500000000000005e+00 +8.5269498030262163e+00 +0.0000000000000000e+00 -1.3499999987556630e+00 +7.4369248117664359e-05 +0.0000000000000000e+00 +9.9999999723460764e-01
-1.4000000000000006e+00 +8.5269460156905943e+00 +0.0000000000000000e+00 -1.3999999986122080e+00 +7.7124185932741468e-05 +0.0000000000000000e+00 +9.9999999702593012e-01
-1.4500000000000006e+00 +8.5269420906066848e+00 +0.0000000000000000e+00 -1.4499999984581293e+00 +7.9879179938061872e-05 +0.0000000000000000e+00 +9.9999999680965845e-01
-1.5000000000000007e+00 +8.5269380277716316e+00 +0.0000000000000000e+00 -1.4999999982930472e+00 +8.2634232065105991e-05 +0.0000000000000000e+00 +9.9999999658579197e-01
-1.5500000000000007e+00 +8.5269338271824786e+00 +0.0000000000000000e+00 -1.5499999981165820e+00 +8.5389344241363081e-05 +0.0000000000000000e+00 +9.9999999635433012e-01
-1.6000000000000008e+00 +8.5269294888361742e+00 +0.0000000000000000e+00 -1.5999999979283537e+00 +8.8144518390331300e-05 +0.0000000000000000e+00 +9.9999999611527213e-01
-1.6500000000000008e+00 +8.5269250127295741e+00 +0.0000000000000000e+00 -1.6499999977279827e+00 +9.0899756431517777e-05 +0.0000000000000000e+00 +9.9999999586861732e-01
-1.7000000000000008e+00 +8.5269203988594349e+00 +0.0000000000000000e+00 -1.6999999975150888e+00 +9.3655060280438705e-05 +0.0000000000000000e+00 +9.9999999561436503e-01
-1.7500000000000009e+00 +8.5269156472224186e+00 +0.0000000000000000e+00 -1.7499999972892923e+00 +9.6410431848619426e-05 +0.0000000000000000e+00 +9.9999999535251449e-01
-1.8000000000000009e+00 +8.5269107578150898e+00 +0.0000000000000000e+00 -1.7999999970502134e+00 +9.9165873043594521e-05 +0.0000000000000000e+00 +9.9999999508306503e-01
-1.8500000000000010e+00 +8.5269057306339207e+00 +0.0000000000000000e+00 -1.8499999967974721e+00 +1.0192138576890788e-04 +0.0000000000000000e+00 +9.9999999480601576e-01
-1.9000000000000010e+00 +8.5269005656752874e+00 +0.0000000000000000e+00 -1.8999999965306882e+00 +1.0467697192411278e-04 +0.0000000000000000e+00 +9.9999999452136601e-01
-1.9500000000000011e+00 +8.5268952629354722e+00 +0.0000000000000000e+00 -1.9499999962494818e+00 +1.0743263340477199e-04 +0.0000000000000000e+00 +9.9999999422911490e-01
-2.0000000000000009e+00 +8.5268898224106593e+00 +0.0000000000000000e+00 -1.9999999959534729e+00 +1.1018837210245781e-04 +0.0000000000000000e+00 +9.9999999392926153e-01
-2.0500000000000007e+00 +8.5268842440969426e+00 +0.0000000000000000e+00 -2.0499999956422812e+00 +1.1294418990446838e-04 +0.0000000000000000e+00 +9.9999999362180514e-01
-2.1000000000000005e+00 +8.5268785279903199e+00 +0.0000000000000000e+00 -2.0999999953155268e+00 +1.1570008869070560e-04 +0.0000000000000000e+00 +9.9999999330674494e-01
-2.1500000000000004e+00 +8.5268726740866931e+00 +0.0000000000000000e+00 -2.1499999949728292e+00 +1.1845607033055310e-04 +0.0000000000000000e+00 +9.9999999298407993e-01
-2.2000000000000002e+00 +8.5268666823818755e+00 +0.0000000000000000e+00 -2.1999999946138082e+00 +1.2121213668259247e-04 +0.0000000000000000e+00 +9.9999999265380923e-01
-2.2500000000000000e+00 +8.5268605528715824e+00 +0.0000000000000000e+00 -2.2499999942380833e+00 +1.2396828959460333e-04 +0.0000000000000000e+00 +9.9999999231593184e-01
-2.2999999999999998e+00 +8.5268542855514422e+00 +0.0000000000000000e+00 -2.2999999938452746e+00 +1.2672453090356345e-04 +0.0000000000000000e+00 +9.9999999197044687e-01
-2.3499999999999996e+00 +8.5268478804169892e+00 +0.0000000000000000e+00 -2.3499999934350013e+00 +1.2948086243564873e-04 +0.0000000000000000e+00 +9.9999999161735331e-01
-2.3999999999999995e+00 +8.5268413374636651e+00 +0.0000000000000000e+00 -2.3999999930068832e+00 +1.3223728600623332e-04 +0.0000000000000000e+00 +9.9999999125665029e-01
-2.4499999999999993e+00 +8.5268346566868249e+00 +0.0000000000000000e+00 -2.4499999925605396e+00 +1.3499380341988967e-04 +0.0000000000000000e+00 +9.9999999088833669e-01
-2.4999999999999991e+00 +8.5268278380817293e+00 +0.0000000000000000e+00 -2.4999999920955900e+00 +1.3775041647038860e-04 +0.0000000000000000e+00 +9.9999999051241151e-01
-2.5499999999999989e+00 +8.5268208816435536e+00 +0.0000000000000000e+00 -2.5499999916116538e+00 +1.4050712694069933e-04 +0.0000000000000000e+00 +9.9999999012887375e-01
-2.5999999999999988e+00 +8.5268137873673826e+00 +0.0000000000000000e+00 -2.5999999911083505e+00 +1.4326393660298961e-04 +0.0000000000000000e+00 +9.9999998973772231e-01
-2.6499999999999986e+00 +8.5268065552482106e+00 +0.0000000000000000e+00 -2.6499999905852993e+00 +1.4602084721862573e-04 +0.0000000000000000e+00 +9.9999998933895617e-01
-2.6999999999999984e+00 +8.5267991852809484e+00 +0.0000000000000000e+00 -2.6999999900421194e+00 +1.4877786053817257e-04 +0.0000000000000000e+00 +9.9999998893257414e-01
-2.7499999999999982e+00 +8.5267916774604160e+00 +0.0000000000000000e+00 -2.7499999894784297e+00 +1.5153497830139369e-04 +0.0000000000000000e+00 +9.9999998851857519e-01
-2.7999999999999980e+00 +8.5267840317813484e+00 +0.0000000000000000e+00 -2.7999999888938496e+00 +1.5429220223725138e-04 +0.0000000000000000e+00 +9.9999998809695823e-01
-2.8499999999999979e+00 +8.5267762482383933e+00 +0.0000000000000000e+00 -2.8499999882879985e+00 +1.5704953406390669e-04 +0.0000000000000000e+00 +9.9999998766772202e-01
-2.8999999999999977e+00 +8.5267683268261152e+00 +0.0000000000000000e+00 -2.8999999876604949e+00 +1.5980697548871953e-04 +0.0000000000000000e+00 +9.9999998723086536e-01
-2.9499999999999975e+00 +8.5267602675389895e+00 +0.0000000000000000e+00 -2.9499999870109579e+00 +1.6256452820824870e-04 +0.0000000000000000e+00 +9.9999998678638713e-01
-2.9999999999999973e+00 +8.5267520703714101e+00 +0.0000000000000000e+00 -2.9999999863390063e+00 +1.6532219390825195e-04 +0.0000000000000000e+00 +9.9999998633428611e-01
-3.0499999999999972e+00 +8.5267437353176874e+00 +0.0000000000000000e+00 -3.0499999856442592e+00 +1.6807997426368599e-04 +0.0000000000000000e+00 +9.9999998587456107e-01
-3.0999999999999970e+00 +8.5267352623720463e+00 +0.0000000000000000e+00 -3.0999999849263351e+00 +1.7083787093870664e-04 +0.0000000000000000e+00 +9.9999998540721091e-01
-3.1499999999999968e+00 +8.5267266515286284e+00 +0.0000000000000000e+00 -3.1499999841848529e+00 +1.7359588558666880e-04 +0.0000000000000000e+00 +9.9999998493223419e-01
-3.1999999999999966e+00 +8.5267179027814937e+00 +0.0000000000000000e+00 -3.1999999834194313e+00 +1.7635401985012652e-04 +0.0000000000000000e+00 +9.9999998444962979e-01
-3.2499999999999964e+00 +8.5267090161246220e+00 +0.0000000000000000e+00 -3.2499999826296886e+00 +1.7911227536083303e-04 +0.0000000000000000e+00 +9.9999998395939638e-01
-3.2999999999999963e+00 +8.5266999915519097e+00 +0.0000000000000000e+00 -3.2999999818152435e+00 +1.8187065373974085e-04 +0.0000000000000000e+00 +9.9999998346153263e-01
-3.3499999999999961e+00 +8.5266908290571735e+00 +0.0000000000000000e+00 -3.3499999809757144e+00 +1.8462915659700176e-04 +0.0000000000000000e+00 +9.9999998295603720e-01
-3.3999999999999959e+00 +8.5266815286341497e+00 +0.0000000000000000e+00 -3.3999999801107199e+00 +1.8738778553196691e-04 +0.0000000000000000e+00 +9.9999998244290889e-01
-3.4499999999999957e+00 +8.5266720902764934e+00 +0.0000000000000000e+00 -3.4499999792198781e+00 +1.9014654213318682e-04 +0.0000000000000000e+00 +9.9999998192214623e-01
-3.4999999999999956e+00 +8.5266625139777830e+00 +0.0000000000000000e+00 -3.4999999783028071e+00 +1.9290542797841144e-04 +0.0000000000000000e+00 +9.9999998139374791e-01
-3.5499999999999954e+00 +8.5266527997315151e+00 +0.0000000000000000e+00 -3.5499999773591253e+00 +1.9566444463459023e-04 +0.0000000000000000e+00 +9.9999998085771247e-01
-3.5999999999999952e+00 +8.5266429475311121e+00 +0.0000000000000000e+00 -3.5999999763884509e+00 +1.9842359365787211e-04 +0.0000000000000000e+00 +9.9999998031403869e-01
-3.6499999999999950e+00 +8.5266329573699178e+00 +0.0000000000000000e+00 -3.6499999753904020e+00 +2.0118287659360562e-04 +0.0000000000000000e+00 +9.9999997976272503e-01
-3.6999999999999948e+00 +8.5266228292411963e+00 +0.0000000000000000e+00 -3.6999999743645962e+00 +2.0394229497633885e-04 +0.0000000000000000e+00 +9.9999997920377015e-01
-3.7499999999999947e+00 +8.5266125631381371e+00 +0.0000000000000000e+00 -3.7499999733106515e+00 +2.0670185032981955e-04 +0.0000000000000000e+00 +9.9999997863717249e-01
-3.7999999999999945e+00 +8.5266021590538550e+00 +0.0000000000000000e+00 -3.7999999722281861e+00 +2.0946154416699516e-04 +0.0000000000000000e+00 +9.9999997806293073e-01
-3.8499999999999943e+00 +8.5265916169813867e+00 +0.0000000000000000e+00 -3.8499999711168171e+00 +2.1222137799001281e-04 +0.0000000000000000e+00 +9.9999997748104330e-01
-3.8999999999999941e+00 +8.5265809369136978e+00 +0.0000000000000000e+00 -3.8999999699761627e+00 +2.1498135329021939e-04 +0.0000000000000000e+00 +9.9999997689150877e-01
-3.9499999999999940e+00 +8.5265701188436758e+00 +0.0000000000000000e+00 -3.9499999688058405e+00 +2.1774147154816158e-04 +0.0000000000000000e+00 +9.9999997629432569e-01
-3.9999999999999938e+00 +8.5265591627641353e+00 +0.0000000000000000e+00 -3.9999999676054676e+00 +2.2050173423358589e-04 +0.0000000000000000e+00 +9.9999997568949250e-01
-4.0499999999999936e+00 +8.5265480686678199e+00 +0.0000000000000000e+00 -4.0499999663746618e+00 +2.2326214280531874e-04 +0.0000000000000000e+00 +9.9999997507700766e-01
-4.0999999999999934e+00 +8.5265368365473986e+00 +0.0000000000000000e+00 -4.0999999651130405e+00 +2.2602269870994758e-04 +0.0000000000000000e+00 +9.9999997445686972e-01
-4.1499999999999932e+00 +8.5265254663954693e+00 +0.0000000000000000e+00 -4.1499999638202212e+00 +2.2878340338050183e-04 +0.0000000000000000e+00 +9.9999997382907702e-01
-4.1999999999999931e+00 +8.5265139582045570e+00 +0.0000000000000000e+00 -4.1999999624958209e+00 +2.3154425823633301e-04 +0.0000000000000000e+00 +9.9999997319362810e-01
-4.2499999999999929e+00 +8.5265023119671177e+00 +0.0000000000000000e+00 -4.2499999611394568e+00 +2.3430526468311473e-04 +0.0000000000000000e+00 +9.9999997255052131e-01
-4.2999999999999927e+00 +8.5264905276755378e+00 +0.0000000000000000e+00 -4.2999999597507452e+00 +2.3706642411284269e-04 +0.0000000000000000e+00 +9.9999997189975509e-01
-4.3499999999999925e+00 +8.5264786053221329e+00 +0.0000000000000000e+00 -4.3499999583293043e+00 +2.3982773790383468e-04 +0.0000000000000000e+00 +9.9999997124132789e-01
-4.3999999999999924e+00 +8.5264665448991508e+00 +0.0000000000000000e+00 -4.3999999568747503e+00 +2.4258920742073061e-04 +0.0000000000000000e+00 +9.9999997057523804e-01
-4.4499999999999922e+00 +8.5264543463987721e+00 +0.0000000000000000e+00 -4.4499999553867005e+00 +2.4535083401449242e-04 +0.0000000000000000e+00 +9.9999996990148388e-01
-4.4999999999999920e+00 +8.5264420098131097e+00 +0.0000000000000000e+00 -4.4999999538647710e+00 +2.4811261902240423e-04 +0.0000000000000000e+00 +9.9999996922006384e-01
-4.5499999999999918e+00 +8.5264295351342074e+00 +0.0000000000000000e+00 -4.5499999523085792e+00 +2.5087456376807210e-04 +0.0000000000000000e+00 +9.9999996853097628e-01
-4.5999999999999917e+00 +8.5264169223540485e+00 +0.0000000000000000e+00 -4.5999999507177414e+00 +2.5363666956142422e-04 +0.0000000000000000e+00 +9.9999996783421952e-01
-4.6499999999999915e+00 +8.5264041714645469e+00 +0.0000000000000000e+00 -4.6499999490918738e+00 +2.5639893769871080e-04 +0.0000000000000000e+00 +9.9999996712979189e-01
-4.6999999999999913e+00 +8.5263912824575527e+00 +0.0000000000000000e+00 -4.6999999474305927e+00 +2.5916136946250410e-04 +0.0000000000000000e+00 +9.9999996641769173e-01
-4.7499999999999911e+00 +8.5263782553248522e+00 +0.0000000000000000e+00 -4.7499999457335145e+00 +2.6192396612169838e-04 +0.0000000000000000e+00 +9.9999996569791738e-01
-4.7999999999999909e+00 +8.5263650900581709e+00 +0.0000000000000000e+00 -4.7999999440002563e+00 +2.6468672893150991e-04 +0.0000000000000000e+00 +9.9999996497046717e-01
-4.8499999999999908e+00 +8.5263517866491689e+00 +0.0000000000000000e+00 -4.8499999422304336e+00 +2.6744965913347692e-04 +0.0000000000000000e+00 +9.9999996423533932e-01
-4.8999999999999906e+00 +8.5263383450894477e+00 +0.0000000000000000e+00 -4.8999999404236627e+00 +2.7021275795545955e-04 +0.0000000000000000e+00 +9.9999996349253206e-01
-4.9499999999999904e+00 +8.5263247653705445e+00 +0.0000000000000000e+00 -4.9499999385795590e+00 +2.7297602661164000e-04 +0.0000000000000000e+00 +9.9999996274204372e-01
-4.9999999999999902e+00 +8.5263110474839365e+00 +0.0000000000000000e+00 -4.9999999366977388e+00 +2.7573946630252225e-04 +0.0000000000000000e+00 +9.9999996198387264e-01
-5.0499999999999901e+00 +8.5262971914210439e+00 +0.0000000000000000e+00 -5.0499999347778184e+00 +2.7850307821493224e-04 +0.0000000000000000e+00 +9.9999996121801693e-01
-5.0999999999999899e+00 +8.5262831971732247e+00 +0.0000000000000000e+00 -5.0999999328194123e+00 +2.8126686352201774e-04 +0.0000000000000000e+00 +9.9999996044447492e-01
-5.1499999999999897e+00 +8.5262690647317818e+00 +0.0000000000000000e+00 -5.1499999308221369e+00 +2.8403082338324830e-04 +0.0000000000000000e+00 +9.9999995966324484e-01
-5.1999999999999895e+00 +8.5262547940879578e+00 +0.0000000000000000e+00 -5.1999999287856085e+00 +2.8679495894441535e-04 +0.0000000000000000e+00 +9.9999995887432491e-01
-5.2499999999999893e+00 +8.5262403852329403e+00 +0.0000000000000000e+00 -5.2499999267094415e+00 +2.8955927133763199e-04 +0.0000000000000000e+00 +9.9999995807771336e-01
-5.2999999999999892e+00 +8.5262258381578580e+00 +0.0000000000000000e+00 -5.2999999245932514e+00 +2.9232376168133306e-04 +0.0000000000000000e+00 +9.9999995727340829e-01
-5.3499999999999890e+00 +8.5262111528537865e+00 +0.0000000000000000e+00 -5.3499999224366537e+00 +2.9508843108027509e-04 +0.0000000000000000e+00 +9.9999995646140805e-01
-5.3999999999999888e+00 +8.5261963293117464e+00 +0.0000000000000000e+00 -5.3999999202392637e+00 +2.9785328062553631e-04 +0.0000000000000000e+00 +9.9999995564171074e-01
-5.4499999999999886e+00 +8.5261813675227032e+00 +0.0000000000000000e+00 -5.4499999180006959e+00 +3.0061831139451646e-04 +0.0000000000000000e+00 +9.9999995481431447e-01
-5.4999999999999885e+00 +8.5261662674775689e+00 +0.0000000000000000e+00 -5.4999999157205659e+00 +3.0338352445093684e-04 +0.0000000000000000e+00 +9.9999995397921759e-01
-5.5499999999999883e+00 +8.5261510291672025e+00 +0.0000000000000000e+00 -5.5499999133984890e+00 +3.0614892084484033e-04 +0.0000000000000000e+00 +9.9999995313641810e-01
-5.5999999999999881e+00 +8.5261356525824112e+00 +0.0000000000000000e+00 -5.5999999110340797e+00 +3.0891450161259128e-04 +0.0000000000000000e+00 +9.9999995228591432e-01
-5.6499999999999879e+00 +8.5261201377139511e+00 +0.0000000000000000e+00 -5.6499999086269526e+00 +3.1168026777687538e-04 +0.0000000000000000e+00 +9.9999995142770426e-01
-5.6999999999999877e+00 +8.5261044845525262e+00 +0.0000000000000000e+00 -5.6999999061767221e+00 +3.1444622034669978e-04 +0.0000000000000000e+00 +9.9999995056178614e-01
-5.7499999999999876e+00 +8.5260886930887931e+00 +0.0000000000000000e+00 -5.7499999036830030e+00 +3.1721236031739288e-04 +0.0000000000000000e+00 +9.9999994968815809e-01
-5.7999999999999874e+00 +8.5260727633133548e+00 +0.0000000000000000e+00 -5.7999999011454095e+00 +3.1997868867060438e-04 +0.0000000000000000e+00 +9.9999994880681820e-01
-5.8499999999999872e+00 +8.5260566952167700e+00 +0.0000000000000000e+00 -5.8499998985635564e+00 +3.2274520637430522e-04 +0.0000000000000000e+00 +9.9999994791776459e-01
