# field on trajectory
# s[mm] rx[mm] ry[mm] rz[mm] bx[T] by[T] bz[T]
0.0000000000000000e+00 +8.5269999999999992e+00 +0.0000000000000000e+00 +0.0000000000000000e+00 -2.9586018732189509e-02 -5.5616808031217901e-01 +5.3635761064589702e-03
-5.0000000000000003e-02 +8.5269999306152187e+00 +0.0000000000000000e+00 -4.9999999999935811e-02 -2.9585789736442370e-02 -5.5616765447284378e-01 +5.3635068241275523e-03
-1.0000000000000001e-01 +8.5269997224609337e+00 +0.0000000000000000e+00 -9.9999999999486486e-02 -2.9585576986477711e-02 -5.5616753277099840e-01 +5.3634484888286623e-03
-1.5000000000000002e-01 +8.5269993755371747e+00 +0.0000000000000000e+00 -1.4999999999826688e-01 -2.9585380381580120e-02 -5.5616771467430193e-01 +5.3634010357096248e-03
-2.0000000000000001e-01 +8.5269988898438971e+00 +0.0000000000000000e+00 -1.9999999999589185e-01 -2.9585199821034986e-02 -5.5616819965042674e-01 +5.3633643999181644e-03
-2.5000000000000000e-01 +8.5269982653809802e+00 +0.0000000000000000e+00 -2.4999999999197625e-01 -2.9585035204128481e-02 -5.5616898716706142e-01 +5.3633385166024184e-03
-2.9999999999999999e-01 +8.5269975021482267e+00 +0.0000000000000000e+00 -2.9999999998613497e-01 -2.9584886430147499e-02 -5.5617007669190621e-01 +5.3633233209109251e-03
-3.4999999999999998e-01 +8.5269966001453650e+00 +0.0000000000000000e+00 -3.4999999997798281e-01 -2.9584753398379671e-02 -5.5617146769267745e-01 +5.3633187479926276e-03
-3.9999999999999997e-01 +8.5269955593720486e+00 +0.0000000000000000e+00 -3.9999999996713465e-01 -2.9584636008113306e-02 -5.5617315963710512e-01 +5.3633247329968603e-03
-4.4999999999999996e-01 +8.5269943798278547e+00 +0.0000000000000000e+00 -4.4999999995320533e-01 -2.9584534158637318e-02 -5.5617515199293244e-01 +5.3633412110733391e-03
-4.9999999999999994e-01 +8.5269930615122860e+00 +0.0000000000000000e+00 -4.9999999993580974e-01 -2.9584447749241273e-02 -5.5617744422791737e-01 +5.3633681173721791e-03
-5.4999999999999993e-01 +8.5269916044247722e+00 +0.0000000000000000e+00 -5.4999999991456261e-01 -2.9584376679215263e-02 -5.5618003580983100e-01 +5.3634053870438665e-03
-5.9999999999999998e-01 +8.5269900085646650e+00 +0.0000000000000000e+00 -5.9999999988907882e-01 -2.9584320847849940e-02 -5.5618292620645882e-01 +5.3634529552392647e-03
-6.5000000000000002e-01 +8.5269882739312433e+00 +0.0000000000000000e+00 -6.4999999985897328e-01 -2.9584280154436447e-02 -5.5618611488560010e-01 +5.3635107571096113e-03
-7.0000000000000007e-01 +8.5269864005237110e+00 +0.0000000000000000e+00 -6.9999999982386063e-01 -2.9584254498266387e-02 -5.5618960131506712e-01 +5.3635787278065016e-03
-7.5000000000000011e-01 +8.5269843883411998e+00 +0.0000000000000000e+00 -7.4999999978335574e-01 -2.9584243778631811e-02 -5.5619338496268633e-01 +5.3636568024819061e-03
-8.0000000000000016e-01 +8.5269822373827662e+00 +0.0000000000000000e+00 -7.9999999973707348e-01 -2.9584247894825142e-02 -5.5619746529629688e-01 +5.3637449162881384e-03
-8.5000000000000020e-01 +8.5269799476473906e+00 +0.0000000000000000e+00 -8.4999999968462858e-01 -2.9584266746139194e-02 -5.5620184178375298e-01 +5.3638430043778723e-03
-9.0000000000000024e-01 +8.5269775191339807e+00 +0.0000000000000000e+00 -8.9999999962563570e-01 -2.9584300231867065e-02 -5.5620651389292031e-01 +5.3639510019041310e-03
-9.5000000000000029e-01 +8.5269749518413711e+00 +0.0000000000000000e+00 -9.4999999955970971e-01 -2.9584348251302173e-02 -5.5621148109167950e-01 +5.3640688440202708e-03
-1.0000000000000002e+00 +8.5269722457683237e+00 +0.0000000000000000e+00 -9.9999999948646534e-01 -2.9584410703738191e-02 -5.5621674284792288e-01 +5.3641964658800003e-03
-1.0500000000000003e+00 +8.5269694009135240e+00 +0.0000000000000000e+00 -1.0499999994055174e+00 -2.9584487488468991e-02 -5.5622229862955774e-01 +5.3643338026373470e-03
-1.1000000000000003e+00 +8.5269664172755864e+00 +0.0000000000000000e+00 -1.0999999993164804e+00 -2.9584578504788659e-02 -5.5622814790450303e-01 +5.3644807894466778e-03
-1.1500000000000004e+00 +8.5269632948530525e+00 +0.0000000000000000e+00 -1.1499999992189691e+00 -2.9584683651991413e-02 -5.5623429014069115e-01 +5.3646373614626795e-03
-1.2000000000000004e+00 +8.5269600336443894e+00 +0.0000000000000000e+00 -1.1999999991125982e+00 -2.9584802829371586e-02 -5.5624072480606845e-01 +5.3648034538403607e-03
-1.2500000000000004e+00 +8.5269566336479912e+00 +0.0000000000000000e+00 -1.2499999989969823e+00 -2.9584935936223609e-02 -5.5624745136859244e-01 +5.3649790017350450e-03
-1.3000000000000005e+00 +8.5269530948621792e+00 +0.0000000000000000e+00 -1.2999999988717363e+00 -2.9585082871841927e-02 -5.5625446929623501e-01 +5.3651639403023586e-03
-1.3500000000000005e+00 +8.5269494172852038e+00 +0.0000000000000000e+00 -1.3499999987364746e+00 -2.9585243535521041e-02 -5.5626177805697985e-01 +5.3653582046982512e-03
-1.4000000000000006e+00 +8.5269456009152389e+00 +0.0000000000000000e+00 -1.3999999985908118e+00 -2.9585417826555389e-02 -5.5626937711882440e-01 +5.3655617300789535e-03
-1.4500000000000006e+00 +8.5269416457503908e+00 +0.0000000000000000e+00 -1.4499999984343626e+00 -2.9585605644239375e-02 -5.5627726594977778e-01 +5.3657744516010051e-03
-1.5000000000000007e+00 +8.5269375517886896e+00 +0.0000000000000000e+00 -1.4999999982667414e+00 -2.9585806887867296e-02 -5.5628544401786217e-01 +5.3659963044212344e-03
-1.5500000000000007e+00 +8.5269333190280960e+00 +0.0000000000000000e+00 -1.5499999980875627e+00 -2.9586021456733315e-02 -5.5629391079111212e-01 +5.3662272236967524e-03
-1.6000000000000008e+00 +8.5269289474664980e+00 +0.0000000000000000e+00 -1.5999999978964412e+00 -2.9586249250131449e-02 -5.5630266573757470e-01 +5.3664671445849575e-03
-1.6500000000000008e+00 +8.5269244371017106e+00 +0.0000000000000000e+00 -1.6499999976929913e+00 -2.9586490167355518e-02 -5.5631170832530974e-01 +5.3667160022435280e-03
-1.7000000000000008e+00 +8.5269197879314760e+00 +0.0000000000000000e+00 -1.6999999974768274e+00 -2.9586744107699074e-02 -5.5632103802238875e-01 +5.3669737318304102e-03
-1.7500000000000009e+00 +8.5269149999534690e+00 +0.0000000000000000e+00 -1.7499999972475639e+00 -2.9587010970455453e-02 -5.5633065429689621e-01 +5.3672402685038204e-03
-1.8000000000000009e+00 +8.5269100731652880e+00 +0.0000000000000000e+00 -1.7999999970048155e+00 -2.9587290654917650e-02 -5.5634055661692783e-01 +5.3675155474222375e-03
-1.8500000000000010e+00 +8.5269050075644639e+00 +0.0000000000000000e+00 -1.8499999967481964e+00 -2.9587583060378331e-02 -5.5635074445059274e-01 +5.3677995037443998e-03
-1.9000000000000010e+00 +8.5268998031484546e+00 +0.0000000000000000e+00 -1.8999999964773209e+00 -2.9587888086129790e-02 -5.5636121726601084e-01 +5.3680920726293050e-03
-1.9500000000000011e+00 +8.5268944599146472e+00 +0.0000000000000000e+00 -1.9499999961918033e+00 -2.9588205631463936e-02 -5.5637197453131537e-01 +5.3683931892361944e-03
-2.0000000000000009e+00 +8.5268889778603558e+00 +0.0000000000000000e+00 -1.9999999958912580e+00 -2.9588535595672174e-02 -5.5638301571464976e-01 +5.3687027887245557e-03
-2.0500000000000007e+00 +8.5268833569828271e+00 +0.0000000000000000e+00 -2.0499999955752992e+00 -2.9588877897364935e-02 -5.5639434006595567e-01 +5.3690208088123673e-03
-2.1000000000000005e+00 +8.5268775972792366e+00 +0.0000000000000000e+00 -2.0999999952435413e+00 -2.9589232532430284e-02 -5.5640594596232151e-01 +5.3693471974508213e-03
-2.1500000000000004e+00 +8.5268716987466870e+00 +0.0000000000000000e+00 -2.1499999948955986e+00 -2.9589599516076669e-02 -5.5641783156263147e-01 +5.3696819051496300e-03
-2.2000000000000002e+00 +8.5268656613822138e+00 +0.0000000000000000e+00 -2.1999999945310846e+00 -2.9589978863513649e-02 -5.5642999502577795e-01 +5.3700248824187589e-03
-2.2500000000000000e+00 +8.5268594851827810e+00 +0.0000000000000000e+00 -2.2499999941496140e+00 -2.9590370589951915e-02 -5.5644243451066411e-01 +5.3703760797684423e-03
-2.2999999999999998e+00 +8.5268531701452854e+00 +0.0000000000000000e+00 -2.2999999937508009e+00 -2.9590774710603399e-02 -5.5645514817620134e-01 +5.3707354477091620e-03
-2.3499999999999996e+00 +8.5268467162665562e+00 +0.0000000000000000e+00 -2.3499999933342592e+00 -2.9591191240681308e-02 -5.5646813418131069e-01 +5.3711029367516615e-03
-2.3999999999999995e+00 +8.5268401235433515e+00 +0.0000000000000000e+00 -2.3999999928996032e+00 -2.9591620195400164e-02 -5.5648139068492264e-01 +5.3714784974069254e-03
-2.4499999999999993e+00 +8.5268333919723656e+00 +0.0000000000000000e+00 -2.4499999924464468e+00 -2.9592061589975925e-02 -5.5649491584597521e-01 +5.3718620801861986e-03
-2.4999999999999991e+00 +8.5268265215502232e+00 +0.0000000000000000e+00 -2.4999999919744038e+00 -2.9592515439625967e-02 -5.5650870782341588e-01 +5.3722536356009673e-03
-2.5499999999999989e+00 +8.5268195122734820e+00 +0.0000000000000000e+00 -2.5499999914830882e+00 -2.9592981759569207e-02 -5.5652276477620077e-01 +5.3726531141629610e-03
-2.5999999999999988e+00 +8.5268123641386353e+00 +0.0000000000000000e+00 -2.5999999909721137e+00 -2.9593460565026101e-02 -5.5653708486329323e-01 +5.3730604663841490e-03
-2.6499999999999986e+00 +8.5268050771421109e+00 +0.0000000000000000e+00 -2.6499999904410942e+00 -2.9593951871218764e-02 -5.5655166624366559e-01 +5.3734756427767398e-03
-2.6999999999999984e+00 +8.5267976512802708e+00 +0.0000000000000000e+00 -2.6999999898896441e+00 -2.9594455693370981e-02 -5.5656650707629740e-01 +5.3738985938531795e-03
-2.7499999999999982e+00 +8.5267900865494113e+00 +0.0000000000000000e+00 -2.7499999893173763e+00 -2.9594972046708298e-02 -5.5658160552017621e-01 +5.3743292701261443e-03
-2.7999999999999980e+00 +8.5267823829457647e+00 +0.0000000000000000e+00 -2.7999999887239051e+00 -2.9595500946458058e-02 -5.5659695973429746e-01 +5.3747676221085408e-03
-2.8499999999999979e+00 +8.5267745404655013e+00 +0.0000000000000000e+00 -2.8499999881088440e+00 -2.9596042407849459e-02 -5.5661256787766267e-01 +5.3752136003134996e-03
-2.8999999999999977e+00 +8.5267665591047272e+00 +0.0000000000000000e+00 -2.8999999874718068e+00 -2.9596596446113652e-02 -5.5662842810928193e-01 +5.3756671552543803e-03
-2.9499999999999975e+00 +8.5267584388594848e+00 +0.0000000000000000e+00 -2.9499999868124069e+00 -2.9597163076483735e-02 -5.5664453858817153e-01 +5.3761282374447670e-03
-2.9999999999999973e+00 +8.5267501797257541e+00 +0.0000000000000000e+00 -2.9999999861302578e+00 -2.9597742314194864e-02 -5.5666089747335501e-01 +5.3765967973984545e-03
-3.0499999999999972e+00 +8.5267417816994531e+00 +0.0000000000000000e+00 -3.0499999854249733e+00 -2.9598334174484292e-02 -5.5667750292386131e-01 +5.3770727856294644e-03
-3.0999999999999970e+00 +8.5267332447764392e+00 +0.0000000000000000e+00 -3.0999999846961668e+00 -2.9598938672591418e-02 -5.5669435309872761e-01 +5.3775561526520224e-03
-3.1499999999999968e+00 +8.5267245689525080e+00 +0.0000000000000000e+00 -3.1499999839434514e+00 -2.9599555823757884e-02 -5.5671144615699586e-01 +5.3780468489805699e-03
-3.1999999999999966e+00 +8.5267157542233942e+00 +0.0000000000000000e+00 -3.1999999831664407e+00 -2.9600185643227594e-02 -5.5672878025771488e-01 +5.3785448251297595e-03
-3.2499999999999964e+00 +8.5267068005847744e+00 +0.0000000000000000e+00 -3.2499999823647481e+00 -2.9600828146246767e-02 -5.5674635355993907e-01 +5.3790500316144470e-03
-3.2999999999999963e+00 +8.5266977080322626e+00 +0.0000000000000000e+00 -3.2999999815379870e+00 -2.9601483348064034e-02 -5.5676416422272856e-01 +5.3795624189496901e-03
-3.3499999999999961e+00 +8.5266884765614144e+00 +0.0000000000000000e+00 -3.3499999806857703e+00 -2.9602151263930464e-02 -5.5678221040514919e-01 +5.3800819376507436e-03
-3.3999999999999959e+00 +8.5266791061677285e+00 +0.0000000000000000e+00 -3.3999999798077116e+00 -2.9602831909099653e-02 -5.5680049026627187e-01 +5.3806085382330721e-03
-3.4499999999999957e+00 +8.5266695968466450e+00 +0.0000000000000000e+00 -3.4499999789034237e+00 -2.9603525298827749e-02 -5.5681900196517276e-01 +5.3811421712123240e-03
-3.4999999999999956e+00 +8.5266599485935437e+00 +0.0000000000000000e+00 -3.4999999779725197e+00 -2.9604231448373531e-02 -5.5683774366093308e-01 +5.3816827871043466e-03
-3.5499999999999954e+00 +8.5266501614037491e+00 +0.0000000000000000e+00 -3.5499999770146129e+00 -2.9604950372998456e-02 -5.5685671351263877e-01 +5.3822303364251681e-03
-3.5999999999999952e+00 +8.5266402352725272e+00 +0.0000000000000000e+00 -3.5999999760293160e+00 -2.9605682087966746e-02 -5.5687590967938061e-01 +5.3827847696910174e-03
-3.6499999999999950e+00 +8.5266301701950891e+00 +0.0000000000000000e+00 -3.6499999750162422e+00 -2.9606426608545410e-02 -5.5689533032025385e-01 +5.3833460374182966e-03
-3.6999999999999948e+00 +8.5266199661665887e+00 +0.0000000000000000e+00 -3.6999999739750042e+00 -2.9607183950004314e-02 -5.5691497359435749e-01 +5.3839140901235892e-03
-3.7499999999999947e+00 +8.5266096231821251e+00 +0.0000000000000000e+00 -3.7499999729052149e+00 -2.9607954127616253e-02 -5.5693483766079488e-01 +5.3844888783236688e-03
-3.7999999999999945e+00 +8.5265991412367423e+00 +0.0000000000000000e+00 -3.7999999718064870e+00 -2.9608737156657003e-02 -5.5695492067867403e-01 +5.3850703525354753e-03
-3.8499999999999943e+00 +8.5265885203254310e+00 +0.0000000000000000e+00 -3.8499999706784331e+00 -2.9609533052405376e-02 -5.5697522080710493e-01 +5.3856584632761247e-03
-3.8999999999999941e+00 +8.5265777604431232e+00 +0.0000000000000000e+00 -3.8999999695206662e+00 -2.9610341830143244e-02 -5.5699573620520348e-01 +5.3862531610629049e-03
-3.9499999999999940e+00 +8.5265668615847030e+00 +0.0000000000000000e+00 -3.9499999683327989e+00 -2.9611163505155712e-02 -5.5701646503208690e-01 +5.3868543964132754e-03
-3.9999999999999938e+00 +8.5265558237449977e+00 +0.0000000000000000e+00 -3.9999999671144435e+00 -2.9611998092731007e-02 -5.5703740544687630e-01 +5.3874621198448467e-03
-4.0499999999999936e+00 +8.5265446469187811e+00 +0.0000000000000000e+00 -4.0499999658652133e+00 -2.9612845587194504e-02 -5.5705855554533312e-01 +5.3880762775923088e-03
-4.0999999999999934e+00 +8.5265333311007776e+00 +0.0000000000000000e+00 -4.0999999645847200e+00 -2.9613705899008493e-02 -5.5707991316976857e-01 +5.3886967987580876e-03
-4.1499999999999932e+00 +8.5265218762856581e+00 +0.0000000000000000e+00 -4.1499999632725757e+00 -2.9614578917668801e-02 -5.5710147609913074e-01 +5.3893236081617862e-03
-4.1999999999999931e+00 +8.5265102824680419e+00 +0.0000000000000000e+00 -4.1999999619283939e+00 -2.9615464532670614e-02 -5.5712324211236774e-01 +5.3899566306233240e-03
-4.2499999999999929e+00 +8.5264985496425005e+00 +0.0000000000000000e+00 -4.2499999605517855e+00 -2.9616362633508440e-02 -5.5714520898842745e-01 +5.3905957909629286e-03
-4.2999999999999927e+00 +8.5264866778035504e+00 +0.0000000000000000e+00 -4.2999999591423634e+00 -2.9617273109676108e-02 -5.5716737450625753e-01 +5.3912410140011472e-03
-4.3499999999999925e+00 +8.5264746669456635e+00 +0.0000000000000000e+00 -4.3499999576997403e+00 -2.9618195850666593e-02 -5.5718973644480507e-01 +5.3918922245588391e-03
-4.3999999999999924e+00 +8.5264625170632584e+00 +0.0000000000000000e+00 -4.3999999562235281e+00 -2.9619130745972076e-02 -5.5721229258301586e-01 +5.3925493474571897e-03
-4.4499999999999922e+00 +8.5264502281507077e+00 +0.0000000000000000e+00 -4.4499999547133386e+00 -2.9620077685083755e-02 -5.5723504069983465e-01 +5.3932123075176985e-03
-4.4999999999999920e+00 +8.5264378002023360e+00 +0.0000000000000000e+00 -4.4999999531687838e+00 -2.9621036557491934e-02 -5.5725797857420478e-01 +5.3938810295621909e-03
-4.5499999999999918e+00 +8.5264252332124215e+00 +0.0000000000000000e+00 -4.5499999515894753e+00 -2.9622007252685826e-02 -5.5728110398506736e-01 +5.3945554384128196e-03
-4.5999999999999917e+00 +8.5264125271751929e+00 +0.0000000000000000e+00 -4.5999999499750253e+00 -2.9622989660153583e-02 -5.5730441471136227e-01 +5.3952354588920623e-03
-4.6499999999999915e+00 +8.5263996820848345e+00 +0.0000000000000000e+00 -4.6499999483250454e+00 -2.9623983669382181e-02 -5.5732790853202663e-01 +5.3959210158227230e-03
-4.6999999999999913e+00 +8.5263866979354841e+00 +0.0000000000000000e+00 -4.6999999466391476e+00 -2.9624989169857383e-02 -5.5735158322599554e-01 +5.3966120340279413e-03
-4.7499999999999911e+00 +8.5263735747212337e+00 +0.0000000000000000e+00 -4.7499999449169437e+00 -2.9626006051063698e-02 -5.5737543657220057e-01 +5.3973084383311847e-03
-4.7999999999999909e+00 +8.5263603124361342e+00 +0.0000000000000000e+00 -4.7999999431580456e+00 -2.9627034202484252e-02 -5.5739946634957138e-01 +5.3980101535562545e-03
-4.8499999999999908e+00 +8.5263469110741887e+00 +0.0000000000000000e+00 -4.8499999413620642e+00 -2.9628073513600812e-02 -5.5742367033703377e-01 +5.3987171045272956e-03
-4.8999999999999906e+00 +8.5263333706293576e+00 +0.0000000000000000e+00 -4.8999999395286116e+00 -2.9629123873893666e-02 -5.5744804631350986e-01 +5.3994292160687851e-03
-4.9499999999999904e+00 +8.5263196910955603e+00 +0.0000000000000000e+00 -4.9499999376572994e+00 -2.9630185172841599e-02 -5.5747259205791866e-01 +5.4001464130055401e-03
-4.9999999999999902e+00 +8.5263058724666720e+00 +0.0000000000000000e+00 -4.9999999357477378e+00 -2.9631257299921793e-02 -5.5749730534917497e-01 +5.4008686201627220e-03
-5.0499999999999901e+00 +8.5262919147365270e+00 +0.0000000000000000e+00 -5.0499999337995396e+00 -2.9632340144609793e-02 -5.5752218396618847e-01 +5.4015957623658357e-03
-5.0999999999999899e+00 +8.5262778178989169e+00 +0.0000000000000000e+00 -5.0999999318123148e+00 -2.9633433596379460e-02 -5.5754722568786563e-01 +5.4023277644407279e-03
-5.1499999999999897e+00 +8.5262635819475943e+00 +0.0000000000000000e+00 -5.1499999297856753e+00 -2.9634537544702865e-02 -5.5757242829310794e-01 +5.4030645512136068e-03
-5.1999999999999895e+00 +8.5262492068762707e+00 +0.0000000000000000e+00 -5.1999999277192321e+00 -2.9635651879050273e-02 -5.5759778956081119e-01 +5.4038060475110131e-03
-5.2499999999999893e+00 +8.5262346926786190e+00 +0.0000000000000000e+00 -5.2499999256125962e+00 -2.9636776488890064e-02 -5.5762330726986642e-01 +5.4045521781598488e-03
-5.2999999999999892e+00 +8.5262200393482726e+00 +0.0000000000000000e+00 -5.2999999234653794e+00 -2.9637911263688643e-02 -5.5764897919915890e-01 +5.4053028679873659e-03
-5.3499999999999890e+00 +8.5262052468788259e+00 +0.0000000000000000e+00 -5.3499999212771918e+00 -2.9639056092910451e-02 -5.5767480312756879e-01 +5.4060580418211750e-03
-5.3999999999999888e+00 +8.5261903152638361e+00 +0.0000000000000000e+00 -5.3999999190476444e+00 -2.9640210866017824e-02 -5.5770077683396913e-01 +5.4068176244892394e-03
-5.4499999999999886e+00 +8.5261752444968231e+00 +0.0000000000000000e+00 -5.4499999167763482e+00 -2.9641375472471001e-02 -5.5772689809722797e-01 +5.4075815408198896e-03
-5.4999999999999885e+00 +8.5261600345712676e+00 +0.0000000000000000e+00 -5.4999999144629133e+00 -2.9642549801728001e-02 -5.5775316469620562e-01 +5.4083497156418095e-03
-5.5499999999999883e+00 +8.5261446854806184e+00 +0.0000000000000000e+00 -5.5499999121069514e+00 -2.9643733743244593e-02 -5.5777957440975667e-01 +5.4091220737840472e-03
-5.5999999999999881e+00 +8.5261291972182836e+00 +0.0000000000000000e+00 -5.5999999097080728e+00 -2.9644927186474272e-02 -5.5780612501672799e-01 +5.4098985400760193e-03
-5.6499999999999879e+00 +8.5261135697776407e+00 +0.0000000000000000e+00 -5.6499999072658875e+00 -2.9646130020868130e-02 -5.5783281429595954e-01 +5.4106790393475077e-03
-5.6999999999999877e+00 +8.5260978031520303e+00 +0.0000000000000000e+00 -5.6999999047800065e+00 -2.9647342135874815e-02 -5.5785964002628352e-01 +5.4114634964286595e-03
-5.7499999999999876e+00 +8.5260818973347590e+00 +0.0000000000000000e+00 -5.7499999022500399e+00 -2.9648563420940518e-02 -5.5788659998652457e-01 +5.4122518361500024e-03
-5.7999999999999874e+00 +8.5260658523190997e+00 +0.0000000000000000e+00 -5.7999998996755986e+00 -2.9649793765508820e-02 -5.5791369195549922e-01 +5.4130439833424224e-03
-5.8499999999999872e+00 +8.5260496680982936e+00 +0.0000000000000000e+00 -5.8499998970562928e+00 -2.9651033059020747e-02 -5.5794091371201537e-01 +5.4138398628371916e-03
