# field on trajectory
# s[mm] rx[mm] ry[mm] rz[mm] bx[T] by[T] bz[T]
0.0000000000000000e+00 +8.5269999999999992e+00 +0.0000000000000000e+00 +0.0000000000000000e+00 -2.7680970951578107e-02 -5.2300720522991884e-01 +5.0609859472013890e-03
5.0000000000000003e-02 +8.5269999310640223e+00 +0.0000000000000000e+00 +4.9999999999936644e-02 -2.7680511142512632e-02 -5.2300026848753833e-01 +5.0595300302131033e-03
1.0000000000000001e-01 +8.5269997242572941e+00 +0.0000000000000000e+00 +9.9999999999493105e-02 -2.7680072210791100e-02 -5.2299369283634778e-01 +5.0580761455890615e-03
1.5000000000000002e-01 +8.5269993795815484e+00 +0.0000000000000000e+00 +1.4999999999828925e-01 -2.7679654272155827e-02 -5.2298747836846793e-01 +5.0566243865822480e-03
2.0000000000000001e-01 +8.5269988970384247e+00 +0.0000000000000000e+00 +1.9999999999594492e-01 -2.7679257442350565e-02 -5.2298162517603652e-01 +5.0551748464458639e-03
2.5000000000000000e-01 +8.5269982766294650e+00 +0.0000000000000000e+00 +2.4999999999208000e-01 -2.7678881837120452e-02 -5.2297613335120807e-01 +5.0537276184332985e-03
2.9999999999999999e-01 +8.5269975183561169e+00 +0.0000000000000000e+00 +2.9999999998631438e-01 -2.7678527572211981e-02 -5.2297100298615451e-01 +5.0522827957981443e-03
3.4999999999999998e-01 +8.5269966222197322e+00 +0.0000000000000000e+00 +3.4999999997826792e-01 -2.7678194763372958e-02 -5.2296623417306376e-01 +5.0508404717941610e-03
3.9999999999999997e-01 +8.5269955882215687e+00 +0.0000000000000000e+00 +3.9999999996756053e-01 -2.7677883526352438e-02 -5.2296182700414229e-01 +5.0494007396752732e-03
4.4999999999999996e-01 +8.5269944163627880e+00 +0.0000000000000000e+00 +4.4999999995381218e-01 -2.7677593976900703e-02 -5.2295778157161144e-01 +5.0479636926955528e-03
4.9999999999999994e-01 +8.5269931066444578e+00 +0.0000000000000000e+00 +4.9999999993664274e-01 -2.7677326230769187e-02 -5.2295409796771086e-01 +5.0465294241092123e-03
5.4999999999999993e-01 +8.5269916590675479e+00 +0.0000000000000000e+00 +5.4999999991567217e-01 -2.7677080403710461e-02 -5.2295077628469699e-01 +5.0450980271705857e-03
5.9999999999999998e-01 +8.5269900736329340e+00 +0.0000000000000000e+00 +5.9999999989052033e-01 -2.7676856611478187e-02 -5.2294781661484291e-01 +5.0436695951341188e-03
6.5000000000000002e-01 +8.5269883503413961e+00 +0.0000000000000000e+00 +6.4999999986080714e-01 -2.7676654969827019e-02 -5.2294521905043767e-01 +5.0422442212543512e-03
7.0000000000000007e-01 +8.5269864891936198e+00 +0.0000000000000000e+00 +6.9999999982615257e-01 -2.7676475594512646e-02 -5.2294298368378933e-01 +5.0408219987859186e-03
7.5000000000000011e-01 +8.5269844901901948e+00 +0.0000000000000000e+00 +7.4999999978617660e-01 -2.7676318601291664e-02 -5.2294111060722037e-01 +5.0394030209835244e-03
8.0000000000000016e-01 +8.5269823533316131e+00 +0.0000000000000000e+00 +7.9999999974049907e-01 -2.7676184105921604e-02 -5.2293959991307215e-01 +5.0379873811019268e-03
8.5000000000000020e-01 +8.5269800786182746e+00 +0.0000000000000000e+00 +8.4999999968874007e-01 -2.7676072224160804e-02 -5.2293845169370201e-01 +5.0365751723959367e-03
9.0000000000000024e-01 +8.5269776660504810e+00 +0.0000000000000000e+00 +8.9999999963051935e-01 -2.7675983071768440e-02 -5.2293766604148351e-01 +5.0351664881204015e-03
9.5000000000000029e-01 +8.5269751156284403e+00 +0.0000000000000000e+00 +9.4999999956545700e-01 -2.7675916764504441e-02 -5.2293724304880851e-01 +5.0337614215301817e-03
1.0000000000000002e+00 +8.5269724273522627e+00 +0.0000000000000000e+00 +9.9999999949317286e-01 -2.7675873418129458e-02 -5.2293718280808421e-01 +5.0323600658801568e-03
1.0500000000000003e+00 +8.5269696012219658e+00 +0.0000000000000000e+00 +1.0499999994132869e+00 -2.7675853148404799e-02 -5.2293748541173557e-01 +5.0309625144251925e-03
1.1000000000000003e+00 +8.5269666372374679e+00 +0.0000000000000000e+00 +1.0999999993254190e+00 -2.7675856071092422e-02 -5.2293815095220419e-01 +5.0295688604201465e-03
1.1500000000000004e+00 +8.5269635353985951e+00 +0.0000000000000000e+00 +1.1499999992291892e+00 -2.7675882301954828e-02 -5.2293917952194824e-01 +5.0281791971198385e-03
1.2000000000000004e+00 +8.5269602957050754e+00 +0.0000000000000000e+00 +1.1999999991242172e+00 -2.7675931956755086e-02 -5.2294057121344273e-01 +5.0267936177790535e-03
1.2500000000000004e+00 +8.5269569181565430e+00 +0.0000000000000000e+00 +1.2499999990101229e+00 -2.7676005151256750e-02 -5.2294232611917979e-01 +5.0254122156525166e-03
1.3000000000000005e+00 +8.5269534027525342e+00 +0.0000000000000000e+00 +1.2999999988865265e+00 -2.7676102001223800e-02 -5.2294444433166798e-01 +5.0240350839948853e-03
1.3500000000000005e+00 +8.5269497494924913e+00 +0.0000000000000000e+00 +1.3499999987530475e+00 -2.7676222622420647e-02 -5.2294692594343284e-01 +5.0226623160607364e-03
1.4000000000000006e+00 +8.5269459583757605e+00 +0.0000000000000000e+00 +1.3999999986093061e+00 -2.7676367130612025e-02 -5.2294977104701645e-01 +5.0212940051045539e-03
1.4500000000000006e+00 +8.5269420294015905e+00 +0.0000000000000000e+00 +1.4499999984549219e+00 -2.7676535641562999e-02 -5.2295297973497767e-01 +5.0199302443807142e-03
1.5000000000000007e+00 +8.5269379625691375e+00 +0.0000000000000000e+00 +1.4999999982895147e+00 -2.7676728271038870e-02 -5.2295655209989267e-01 +5.0185711271434758e-03
1.5500000000000007e+00 +8.5269337578774582e+00 +0.0000000000000000e+00 +1.5499999981127046e+00 -2.7676945134805196e-02 -5.2296048823435337e-01 +5.0172167466469627e-03
1.6000000000000008e+00 +8.5269294153255153e+00 +0.0000000000000000e+00 +1.5999999979241113e+00 -2.7677186348627668e-02 -5.2296478823096915e-01 +5.0158671961451550e-03
1.6500000000000008e+00 +8.5269249349121754e+00 +0.0000000000000000e+00 +1.6499999977233544e+00 -2.7677452028272143e-02 -5.2296945218236623e-01 +5.0145225688918793e-03
1.7000000000000008e+00 +8.5269203166362075e+00 +0.0000000000000000e+00 +1.6999999975100537e+00 -2.7677742289504533e-02 -5.2297448018118720e-01 +5.0131829581407834e-03
1.7500000000000009e+00 +8.5269155604962883e+00 +0.0000000000000000e+00 +1.7499999972838292e+00 -2.7678057248090786e-02 -5.2297987232009102e-01 +5.0118484571453400e-03
1.8000000000000009e+00 +8.5269106664909966e+00 +0.0000000000000000e+00 +1.7999999970443004e+00 -2.7678397019796883e-02 -5.2298562869175458e-01 +5.0105191591588195e-03
1.8500000000000010e+00 +8.5269056346188137e+00 +0.0000000000000000e+00 +1.8499999967910872e+00 -2.7678761720388672e-02 -5.2299174938886983e-01 +5.0091951574342871e-03
1.9000000000000010e+00 +8.5269004648781266e+00 +0.0000000000000000e+00 +1.8999999965238092e+00 -2.7679151465631987e-02 -5.2299823450414673e-01 +5.0078765452245821e-03
1.9500000000000011e+00 +8.5268951572672247e+00 +0.0000000000000000e+00 +1.9499999962420860e+00 -2.7679566371292479e-02 -5.2300508413031155e-01 +5.0065634157823186e-03
2.0000000000000009e+00 +8.5268897117843032e+00 +0.0000000000000000e+00 +1.9999999959455372e+00 -2.7680006553135596e-02 -5.2301229836010654e-01 +5.0052558623598486e-03
2.0500000000000007e+00 +8.5268841284274615e+00 +0.0000000000000000e+00 +2.0499999956337827e+00 -2.7680472068850891e-02 -5.2301987703644404e-01 +5.0039539814818301e-03
2.1000000000000005e+00 +8.5268784071947010e+00 +0.0000000000000000e+00 +2.0999999953064417e+00 -2.7680962743825126e-02 -5.2302781900285744e-01 +5.0026578827630629e-03
2.1500000000000004e+00 +8.5268725480839276e+00 +0.0000000000000000e+00 +2.1499999949631339e+00 -2.7681478345369895e-02 -5.2303612285304757e-01 +5.0013676790912169e-03
2.2000000000000002e+00 +8.5268665510929527e+00 +0.0000000000000000e+00 +2.1999999946034792e+00 -2.7682018640797439e-02 -5.2304478718073000e-01 +5.0000834833543407e-03
2.2500000000000000e+00 +8.5268604162194919e+00 +0.0000000000000000e+00 +2.2499999942270965e+00 -2.7682583397420555e-02 -5.2305381057963307e-01 +4.9988054084409055e-03
2.2999999999999998e+00 +8.5268541434611667e+00 +0.0000000000000000e+00 +2.2999999938336058e+00 -2.7683172382552745e-02 -5.2306319164350046e-01 +4.9975335672398161e-03
2.3499999999999996e+00 +8.5268477328155043e+00 +0.0000000000000000e+00 +2.3499999934226263e+00 -2.7683785363508136e-02 -5.2307292896608937e-01 +4.9962680726404430e-03
2.3999999999999995e+00 +8.5268411842799399e+00 +0.0000000000000000e+00 +2.3999999929937772e+00 -2.7684422107601518e-02 -5.2308302114117078e-01 +4.9950090375326453e-03
2.4499999999999993e+00 +8.5268344978518105e+00 +0.0000000000000000e+00 +2.4499999925466782e+00 -2.7685082382148323e-02 -5.2309346676252899e-01 +4.9937565748067953e-03
2.4999999999999991e+00 +8.5268276735283628e+00 +0.0000000000000000e+00 +2.4999999920809484e+00 -2.7685765954464689e-02 -5.2310426442396274e-01 +4.9925107973538040e-03
2.5499999999999989e+00 +8.5268207113067511e+00 +0.0000000000000000e+00 +2.5499999915962070e+00 -2.7686472591867434e-02 -5.2311541271928319e-01 +4.9912718180651497e-03
2.5999999999999988e+00 +8.5268136111840374e+00 +0.0000000000000000e+00 +2.5999999910920737e+00 -2.7687202061674056e-02 -5.2312691024231506e-01 +4.9900397498328980e-03
2.6499999999999986e+00 +8.5268063731571893e+00 +0.0000000000000000e+00 +2.6499999905681677e+00 -2.7687954131202772e-02 -5.2313875558689682e-01 +4.9888147055497292e-03
2.6999999999999984e+00 +8.5267989972230858e+00 +0.0000000000000000e+00 +2.6999999900241076e+00 -2.7688728567772509e-02 -5.2315094734687873e-01 +4.9875967981089725e-03
2.7499999999999982e+00 +8.5267914833785117e+00 +0.0000000000000000e+00 +2.7499999894595133e+00 -2.7689525138702927e-02 -5.2316348411612501e-01 +4.9863861404046174e-03
2.7999999999999980e+00 +8.5267838316201630e+00 +0.0000000000000000e+00 +2.7999999888740033e+00 -2.7690343611314418e-02 -5.2317636448851190e-01 +4.9851828453313382e-03
2.8499999999999979e+00 +8.5267760419446432e+00 +0.0000000000000000e+00 +2.8499999882671969e+00 -2.7691183752928103e-02 -5.2318958705792828e-01 +4.9839870257845356e-03
2.8999999999999977e+00 +8.5267681143484690e+00 +0.0000000000000000e+00 +2.8999999876387133e+00 -2.7692045330865868e-02 -5.2320315041827592e-01 +4.9827987946603515e-03
2.9499999999999975e+00 +8.5267600488280628e+00 +0.0000000000000000e+00 +2.9499999869881712e+00 -2.7692928112450364e-02 -5.2321705316346812e-01 +4.9816182648556870e-03
2.9999999999999973e+00 +8.5267518453797599e+00 +0.0000000000000000e+00 +2.9999999863151898e+00 -2.7693831865005018e-02 -5.2323129388743128e-01 +4.9804455492682481e-03
3.0499999999999972e+00 +8.5267435039998070e+00 +0.0000000000000000e+00 +3.0499999856193876e+00 -2.7694756355854010e-02 -5.2324587118410248e-01 +4.9792807607965473e-03
3.0999999999999970e+00 +8.5267350246843616e+00 +0.0000000000000000e+00 +3.0999999849003839e+00 -2.7695701352322352e-02 -5.2326078364743234e-01 +4.9781240123399455e-03
3.1499999999999968e+00 +8.5267264074294928e+00 +0.0000000000000000e+00 +3.1499999841577973e+00 -2.7696666621735838e-02 -5.2327602987138178e-01 +4.9769754167986744e-03
3.1999999999999966e+00 +8.5267176522311807e+00 +0.0000000000000000e+00 +3.1999999833912462e+00 -2.7697651931421072e-02 -5.2329160844992417e-01 +4.9758350870738521e-03
3.2499999999999964e+00 +8.5267087590853201e+00 +0.0000000000000000e+00 +3.2499999826003498e+00 -2.7698657048705479e-02 -5.2330751797704400e-01 +4.9747031360675249e-03
3.2999999999999963e+00 +8.5266997279877152e+00 +0.0000000000000000e+00 +3.2999999817847265e+00 -2.7699681740917328e-02 -5.2332375704673739e-01 +4.9735796766826800e-03
3.3499999999999961e+00 +8.5266905589340869e+00 +0.0000000000000000e+00 +3.3499999809439953e+00 -2.7700725775385696e-02 -5.2334032425301091e-01 +4.9724648218232668e-03
3.3999999999999959e+00 +8.5266812519200670e+00 +0.0000000000000000e+00 +3.3999999800777743e+00 -2.7701788919440556e-02 -5.2335721818988334e-01 +4.9713586843942448e-03
3.4499999999999957e+00 +8.5266718069412022e+00 +0.0000000000000000e+00 +3.4499999791856824e+00 -2.7702870940412693e-02 -5.2337443745138346e-01 +4.9702613773015833e-03
3.4999999999999956e+00 +8.5266622239929539e+00 +0.0000000000000000e+00 +3.4999999782673377e+00 -2.7703971605633794e-02 -5.2339198063155101e-01 +4.9691730134522995e-03
3.5499999999999954e+00 +8.5266525030706966e+00 +0.0000000000000000e+00 +3.5499999773223583e+00 -2.7705090682436408e-02 -5.2340984632443655e-01 +4.9680937057544824e-03
3.5999999999999952e+00 +8.5266426441697210e+00 +0.0000000000000000e+00 +3.5999999763503632e+00 -2.7706227938153992e-02 -5.2342803312410124e-01 +4.9670235671173176e-03
3.6499999999999950e+00 +8.5266326472852327e+00 +0.0000000000000000e+00 +3.6499999753509704e+00 -2.7707383140120875e-02 -5.2344653962461640e-01 +4.9659627104511146e-03
3.6999999999999948e+00 +8.5266225124123540e+00 +0.0000000000000000e+00 +3.6999999743237981e+00 -2.7708556055672320e-02 -5.2346536442006386e-01 +4.9649112486673244e-03
3.7499999999999947e+00 +8.5266122395461217e+00 +0.0000000000000000e+00 +3.7499999732684643e+00 -2.7709746452144482e-02 -5.2348450610453479e-01 +4.9638692946785750e-03
3.7999999999999945e+00 +8.5266018286814909e+00 +0.0000000000000000e+00 +3.7999999721845876e+00 -2.7710954096874452e-02 -5.2350396327213111e-01 +4.9628369613986907e-03
3.8499999999999943e+00 +8.5265912798133314e+00 +0.0000000000000000e+00 +3.8499999710717856e+00 -2.7712178757200272e-02 -5.2352373451696443e-01 +4.9618143617427201e-03
3.8999999999999941e+00 +8.5265805929364333e+00 +0.0000000000000000e+00 +3.8999999699296763e+00 -2.7713420200460921e-02 -5.2354381843315589e-01 +4.9608016086269587e-03
3.9499999999999940e+00 +8.5265697680454995e+00 +0.0000000000000000e+00 +3.9499999687578780e+00 -2.7714678193996322e-02 -5.2356421361483618e-01 +4.9597988149689791e-03
3.9999999999999938e+00 +8.5265588051351564e+00 +0.0000000000000000e+00 +3.9999999675560081e+00 -2.7715952505147405e-02 -5.2358491865614554e-01 +4.9588060936876475e-03
4.0499999999999936e+00 +8.5265477041999436e+00 +0.0000000000000000e+00 +4.0499999663236848e+00 -2.7717242934930924e-02 -5.2360593198991523e-01 +4.9578235434738598e-03
4.0999999999999934e+00 +8.5265364652343223e+00 +0.0000000000000000e+00 +4.0999999650605252e+00 -2.7718549419064667e-02 -5.2362725140371180e-01 +4.9568512061022758e-03
4.1499999999999932e+00 +8.5265250882326740e+00 +0.0000000000000000e+00 +4.1499999637661480e+00 -2.7719871926942759e-02 -5.2364887452378883e-01 +4.9558891091187858e-03
4.1999999999999931e+00 +8.5265135731892965e+00 +0.0000000000000000e+00 +4.1999999624401703e+00 -2.7721210427960660e-02 -5.2367079897640556e-01 +4.9549372800697924e-03
4.2499999999999929e+00 +8.5265019200984113e+00 +0.0000000000000000e+00 +4.2499999610822092e+00 -2.7722564891515235e-02 -5.2369302238782522e-01 +4.9539957465022056e-03
4.2999999999999927e+00 +8.5264901289541619e+00 +0.0000000000000000e+00 +4.2999999596918821e+00 -2.7723935287004713e-02 -5.2371554238431728e-01 +4.9530645359634586e-03
4.3499999999999925e+00 +8.5264781997506098e+00 +0.0000000000000000e+00 +4.3499999582688069e+00 -2.7725321583828778e-02 -5.2373835659215418e-01 +4.9521436760014831e-03
4.3999999999999924e+00 +8.5264661324817403e+00 +0.0000000000000000e+00 +4.3999999568126009e+00 -2.7726723751388495e-02 -5.2376146263761381e-01 +4.9512331941647253e-03
4.4499999999999922e+00 +8.5264539271414641e+00 +0.0000000000000000e+00 +4.4499999553228813e+00 -2.7728141759086441e-02 -5.2378485814697717e-01 +4.9503331180021449e-03
4.4999999999999920e+00 +8.5264415837236136e+00 +0.0000000000000000e+00 +4.4999999537992661e+00 -2.7729575576326618e-02 -5.2380854074653016e-01 +4.9494434750632053e-03
4.5499999999999918e+00 +8.5264291022219449e+00 +0.0000000000000000e+00 +4.5499999522413717e+00 -2.7731025172514537e-02 -5.2383250806256121e-01 +4.9485642928978777e-03
4.5999999999999917e+00 +8.5264164826301414e+00 +0.0000000000000000e+00 +4.5999999506488152e+00 -2.7732490517057243e-02 -5.2385675772136220e-01 +4.9476955990566422e-03
4.6499999999999915e+00 +8.5264037249418099e+00 +0.0000000000000000e+00 +4.6499999490212129e+00 -2.7733971579363297e-02 -5.2388128734922845e-01 +4.9468374210904827e-03
4.6999999999999913e+00 +8.5263908291504844e+00 +0.0000000000000000e+00 +4.6999999473581831e+00 -2.7735468328842796e-02 -5.2390609457245796e-01 +4.9459897865508900e-03
4.7499999999999911e+00 +8.5263777952496245e+00 +0.0000000000000000e+00 +4.7499999456593418e+00 -2.7736980734907466e-02 -5.2393117701735159e-01 +4.9451527229898594e-03
4.7999999999999909e+00 +8.5263646232326202e+00 +0.0000000000000000e+00 +4.7999999439243055e+00 -2.7738508766970552e-02 -5.2395653231021133e-01 +4.9443262579598928e-03
4.8499999999999908e+00 +8.5263513130927855e+00 +0.0000000000000000e+00 +4.8499999421526914e+00 -2.7740052394446997e-02 -5.2398215807734239e-01 +4.9435104190139866e-03
4.8999999999999906e+00 +8.5263378648233665e+00 +0.0000000000000000e+00 +4.8999999403441157e+00 -2.7741611586753284e-02 -5.2400805194505140e-01 +4.9427052337056446e-03
4.9499999999999904e+00 +8.5263242784175368e+00 +0.0000000000000000e+00 +4.9499999384981956e+00 -2.7743186313307612e-02 -5.2403421153964691e-01 +4.9419107295888788e-03
4.9999999999999902e+00 +8.5263105538684005e+00 +0.0000000000000000e+00 +4.9999999366145476e+00 -2.7744776543529838e-02 -5.2406063448743834e-01 +4.9411269342181877e-03
5.0499999999999901e+00 +8.5262966911689926e+00 +0.0000000000000000e+00 +5.0499999346927869e+00 -2.7746382246841516e-02 -5.2408731841473610e-01 +4.9403538751485836e-03
5.0999999999999899e+00 +8.5262826903122786e+00 +0.0000000000000000e+00 +5.0999999327325307e+00 -2.7748003392665872e-02 -5.2411426094785185e-01 +4.9395915799355676e-03
5.1499999999999897e+00 +8.5262685512911567e+00 +0.0000000000000000e+00 +5.1499999307333955e+00 -2.7749639950427937e-02 -5.2414145971309800e-01 +4.9388400761351458e-03
5.1999999999999895e+00 +8.5262542740984575e+00 +0.0000000000000000e+00 +5.1999999286949974e+00 -2.7751291889554438e-02 -5.2416891233678675e-01 +4.9380993913038188e-03
5.2499999999999893e+00 +8.5262398587269441e+00 +0.0000000000000000e+00 +5.2499999266169519e+00 -2.7752959179473884e-02 -5.2419661644523052e-01 +4.9373695529985832e-03
5.2999999999999892e+00 +8.5262253051693122e+00 +0.0000000000000000e+00 +5.2999999244988754e+00 -2.7754641789616563e-02 -5.2422456966474207e-01 +4.9366505887769334e-03
5.3499999999999890e+00 +8.5262106134181934e+00 +0.0000000000000000e+00 +5.3499999223403840e+00 -2.7756339689414631e-02 -5.2425276962163314e-01 +4.9359425261968617e-03
5.3999999999999888e+00 +8.5261957834661555e+00 +0.0000000000000000e+00 +5.3999999201410933e+00 -2.7758052848302017e-02 -5.2428121394221516e-01 +4.9352453928168481e-03
5.4499999999999886e+00 +8.5261808153056986e+00 +0.0000000000000000e+00 +5.4499999179006187e+00 -2.7759781235714508e-02 -5.2430990025279889e-01 +4.9345592161958735e-03
5.4999999999999885e+00 +8.5261657089292608e+00 +0.0000000000000000e+00 +5.4999999156185764e+00 -2.7761524821089789e-02 -5.2433882617969363e-01 +4.9338840238934076e-03
5.5499999999999883e+00 +8.5261504643292181e+00 +0.0000000000000000e+00 +5.5499999132945819e+00 -2.7763283573867401e-02 -5.2436798934920736e-01 +4.9332198434694132e-03
5.5999999999999881e+00 +8.5261350814978822e+00 +0.0000000000000000e+00 +5.5999999109282506e+00 -2.7765057463488819e-02 -5.2439738738764641e-01 +4.9325667024843435e-03
5.6499999999999879e+00 +8.5261195604275031e+00 +0.0000000000000000e+00 +5.6499999085191979e+00 -2.7766846459397455e-02 -5.2442701792131563e-01 +4.9319246284991467e-03
5.6999999999999877e+00 +8.5261039011102699e+00 +0.0000000000000000e+00 +5.6999999060670401e+00 -2.7768650531038660e-02 -5.2445687857651735e-01 +4.9312936490752577e-03
5.7499999999999876e+00 +8.5260881035383118e+00 +0.0000000000000000e+00 +5.7499999035713909e+00 -2.7770469647859723e-02 -5.2448696697955166e-01 +4.9306737917745973e-03
5.7999999999999874e+00 +8.5260721677036972e+00 +0.0000000000000000e+00 +5.7999999010318666e+00 -2.7772303779309969e-02 -5.2451728075671600e-01 +4.9300650841595812e-03
5.8499999999999872e+00 +8.5260560935984344e+00 +0.0000000000000000e+00 +5.8499998984480817e+00 -2.7774152894840726e-02 -5.2454781753430535e-01 +4.9294675537931111e-03
5.8999999999999870e+00 +8.5260398812144746e+00 +0.0000000000000000e+00 +5.8999998958196516e+00 -2.7776016963905317e-02 -5.2457857493861104e-01 +4.9288812282385734e-03
