# multipoles
# s[mm] polynom_b[n=0][T/m^n] polynom_b[n=1][T/m^n] polynom_b[n=2][T/m^n] polynom_b[n=3][T/m^n] polynom_b[n=4][T/m^n] polynom_b[n=5][T/m^n] polynom_b[n=6][T/m^n] 
+0.0000000000000000e+00 -5.5363306118328004e-01 +7.3181521824994915e+00 +4.8244548068697535e+00 -1.4636101274942578e+02 -1.6891518911498501e+04 +5.5044093420581974e+05 +1.0064519851325944e+08 
-5.0000000000000003e-02 -5.5363252784276917e-01 +7.3181892705499072e+00 +4.8213800459455598e+00 -1.4627487409020449e+02 -1.6873395479298964e+04 +5.4992640302821831e+05 +1.0057622476235174e+08 
-1.0000000000000001e-01 -5.5363230232877148e-01 +7.3182430346036309e+00 +4.8180955959086464e+00 -1.4618954219367441e+02 -1.6858838105935360e+04 +5.4948314786046289e+05 +1.0052837725971954e+08 
-1.5000000000000002e-01 -5.5363238381606572e-01 +7.3183134398095309e+00 +4.8145868119048867e+00 -1.4610527736533851e+02 -1.6847510492078567e+04 +5.4911112167933513e+05 +1.0049970786199693e+08 
-2.0000000000000001e-01 -5.5363277147945811e-01 +7.3184004513181362e+00 +4.8108390516417296e+00 -1.4602233995917712e+02 -1.6839076410371221e+04 +5.4881027786172472e+05 +1.0048826892208423e+08 
-2.5000000000000000e-01 -5.5363346449374984e-01 +7.3185040342786598e+00 +4.8068376690848744e+00 -1.4594099025439598e+02 -1.6833199528123369e+04 +5.4858056918355275e+05 +1.0049211206003834e+08 
-2.9999999999999999e-01 -5.5363446203377265e-01 +7.3186241538444179e+00 +4.8025680210768407e+00 -1.4586148866261576e+02 -1.6829543592640654e+04 +5.4842194946683501e+05 +1.0050928944736530e+08 
-3.4999999999999998e-01 -5.5363576327436737e-01 +7.3187607751662593e+00 +4.7980154638355073e+00 -1.4578409549126098e+02 -1.6827772335832440e+04 +5.4833437174544611e+05 +1.0053785315226887e+08 
-3.9999999999999997e-01 -5.5363736739037905e-01 +7.3189138633973716e+00 +4.7931653515781472e+00 -1.4570907109743789e+02 -1.6827549433651733e+04 +5.4831778938175691e+05 +1.0057585485831021e+08 
-4.4999999999999996e-01 -5.5363927355669196e-01 +7.3190833836879694e+00 +4.7880030430505656e+00 -1.4563667570985470e+02 -1.6828538685800719e+04 +5.4837215473504749e+05 +1.0062134708774012e+08 
-4.9999999999999994e-01 -5.5364148094817878e-01 +7.3192693011945495e+00 +4.7825138923165005e+00 -1.4556716978751587e+02 -1.6830403763270220e+04 +5.4849742205352825e+05 +1.0067238148304667e+08 
-5.4999999999999993e-01 -5.5364398873974174e-01 +7.3194715810678126e+00 +4.7766832567395818e+00 -1.4550081352786671e+02 -1.6832808432745915e+04 +5.4869354341910023e+05 +1.0072701035824341e+08 
-5.9999999999999998e-01 -5.5364679610629464e-01 +7.3196901884661862e+00 +4.7704964925293192e+00 -1.4543786742026973e+02 -1.6835416419565667e+04 +5.4896047330562549e+05 +1.0078328570487584e+08 
-6.5000000000000002e-01 -5.5364990222274968e-01 +7.3199250885431955e+00 +4.7639389536324339e+00 -1.4537859173685902e+02 -1.6837891397095827e+04 +5.4929816443157371e+05 +1.0083925920172369e+08 
-7.0000000000000007e-01 -5.5365330626405651e-01 +7.3201762464543654e+00 +4.7569959981436112e+00 -1.4532324679537535e+02 -1.6839897146460378e+04 +5.4970656982491305e+05 +1.0089298323292355e+08 
-7.5000000000000011e-01 -5.5365700740517032e-01 +7.3204436273582134e+00 +4.7496529824913916e+00 -1.4527209302454997e+02 -1.6841097403161057e+04 +5.5018564347343973e+05 +1.0094250987476249e+08 
-8.0000000000000016e-01 -5.5366100482105318e-01 +7.3207271964115561e+00 +4.7418952622937640e+00 -1.4522539075721019e+02 -1.6841155884047508e+04 +5.5073533855602483e+05 +1.0098589108628842e+08 
-8.5000000000000020e-01 -5.5366529768668504e-01 +7.3210269187737387e+00 +4.7337081934136229e+00 -1.4518340040799407e+02 -1.6839736308141255e+04 +5.5135560892486700e+05 +1.0102117882536580e+08 
-9.0000000000000024e-01 -5.5366988517707072e-01 +7.3213427596033425e+00 +4.7250771339473454e+00 -1.4514638232400364e+02 -1.6836502456767503e+04 +5.5204640781994024e+05 +1.0104642547649676e+08 
-9.5000000000000029e-01 -5.5367476646719871e-01 +7.3216746840612021e+00 +4.7159874370884918e+00 -1.4511459695107021e+02 -1.6831117980560892e+04 +5.5280768939895544e+05 +1.0105968254542081e+08 
-1.0000000000000002e+00 -5.5367994073210325e-01 +7.3220226573080964e+00 +4.7064244608910952e+00 -1.4508830467376387e+02 -1.6823246655628540e+04 +5.5363940716926311e+05 +1.0105900236672534e+08 
-1.0500000000000003e+00 -5.5368540714681957e-01 +7.3223866445069827e+00 +4.6963735620372322e+00 -1.4506776597534193e+02 -1.6812552226297001e+04 +5.5454151557333441e+05 +1.0104243707479264e+08 
-1.1000000000000003e+00 -5.5369116488639691e-01 +7.3227666108198299e+00 +4.6858200968465944e+00 -1.4505324124945233e+02 -1.6798698423054902e+04 +5.5551396819829976e+05 +1.0100803869786182e+08 
-1.1500000000000004e+00 -5.5369721312589959e-01 +7.3231625214136775e+00 +4.6747494222043713e+00 -1.4504499109460062e+02 -1.6781348992840023e+04 +5.5655672039012564e+05 +1.0095385937673995e+08 
-1.2000000000000004e+00 -5.5370355104039071e-01 +7.3235743414504473e+00 +4.6631468921305377e+00 -1.4504327585798902e+02 -1.6760167604076611e+04 +5.5766972534739494e+05 +1.0087795072077267e+08 
-1.2500000000000004e+00 -5.5371017780497434e-01 +7.3240020360976281e+00 +4.6509978659881090e+00 -1.4504835610889489e+02 -1.6734818070906509e+04 +5.5885293814943766e+05 +1.0077836532480325e+08 
-1.3000000000000005e+00 -5.5371709259473978e-01 +7.3244455705227871e+00 +4.6382876977335368e+00 -1.4506049239041948e+02 -1.6704964056734440e+04 +5.6010631362506049e+05 +1.0065315474910177e+08 
-1.3500000000000005e+00 -5.5372429458481642e-01 +7.3249049098949532e+00 +4.6250017463515425e+00 -1.4507994528205788e+02 -1.6670269362698706e+04 +5.6142980688824784e+05 +1.0050037149016723e+08 
-1.4000000000000006e+00 -5.5373178295031666e-01 +7.3253800193825596e+00 +4.6111253655903122e+00 -1.4510697531286192e+02 -1.6630397648960192e+04 +5.6282337261399382e+05 +1.0031806709490754e+08 
-1.4500000000000006e+00 -5.5373955686639131e-01 +7.3258708641587234e+00 +4.5966439134504551e+00 -1.4514184318057835e+02 -1.6585012687839197e+04 +5.6428696685575484e+05 +1.0010429385684431e+08 
-1.5000000000000007e+00 -5.5374761550819429e-01 +7.3263774093929754e+00 +4.5815427465185019e+00 -1.4518480942231756e+02 -1.6533778214689941e+04 +5.6582054436376132e+05 +9.9857103825242594e+07 
-1.5500000000000007e+00 -5.5375595805089739e-01 +7.3268996202611651e+00 +4.5658072217384156e+00 -1.4523613480154708e+02 -1.6476357969691289e+04 +5.6742406170272559e+05 +9.9574549062503606e+07 
-1.6000000000000008e+00 -5.5376458366966808e-01 +7.3274374619352463e+00 +4.5494226935321294e+00 -1.4529607990797010e+02 -1.6412415628780585e+04 +5.6909747402542969e+05 +9.9254681212790087e+07 
-1.6500000000000008e+00 -5.5377349153971067e-01 +7.3279908995920007e+00 +4.5323745202576324e+00 -1.4536490549603670e+02 -1.6341614969101289e+04 +5.7084073779197456e+05 +9.8895552582749456e+07 
-1.7000000000000008e+00 -5.5378268083622428e-01 +7.3285598984112426e+00 +4.5146480574979728e+00 -1.4544287242326291e+02 -1.6263619697619280e+04 +5.7265381029158446e+05 +9.8495215025720224e+07 
-1.7500000000000009e+00 -5.5379215073443466e-01 +7.3291444235688283e+00 +4.4962286629055566e+00 -1.4553024137335419e+02 -1.6178093571753763e+04 +5.7453664742059284e+05 +9.8051720715087608e+07 
-1.8000000000000009e+00 -5.5380190040957000e-01 +7.3297444402458503e+00 +4.4771016921968929e+00 -1.4562727320994600e+02 -1.6084700292504844e+04 +5.7648920649382297e+05 +9.7563121425689772e+07 
-1.8500000000000010e+00 -5.5381192903687115e-01 +7.3303599136243474e+00 +4.4572525016944757e+00 -1.4573422881688563e+02 -1.5983103585105006e+04 +5.7851144498728565e+05 +9.7027469128965259e+07 
-1.9000000000000010e+00 -5.5382223579160283e-01 +7.3309908088853692e+00 +4.4366664492350454e+00 -1.4585136901143159e+02 -1.5872967207286958e+04 +5.8060331979911646e+05 +9.6442815983201176e+07 
-1.9500000000000011e+00 -5.5383281984902644e-01 +7.3316370912171100e+00 +4.4153288899521694e+00 -1.4597895488555227e+02 -1.5753954844238981e+04 +5.8276479009336187e+05 +9.5807213658128709e+07 
-2.0000000000000009e+00 -5.5384368038442522e-01 +7.3322987258017855e+00 +4.3932251807617728e+00 -1.4611724726659065e+02 -1.5625730229888850e+04 +5.8499581285744044e+05 +9.5118714158088639e+07 
-2.0500000000000007e+00 -5.5385481646428014e-01 +7.3329756558480446e+00 +4.3703466287652555e+00 -1.4626629362370312e+02 -1.5488068494507821e+04 +5.8729526280119398e+05 +9.4376014637064651e+07 
-2.1000000000000005e+00 -5.5386622672011432e-01 +7.3336677321413966e+00 +4.3467090020882315e+00 -1.4642530949096260e+02 -1.5341197697267180e+04 +5.8965775230776041e+05 +9.3580433724279702e+07 
-2.1500000000000004e+00 -5.5387790967486117e-01 +7.3343747812381501e+00 +4.3223343696084138e+00 -1.4659330890058823e+02 -1.5185461280079653e+04 +5.9207684973576188e+05 +9.2733957907460630e+07 
-2.2000000000000002e+00 -5.5388986385142736e-01 +7.3350966296882154e+00 +4.2972447935421725e+00 -1.4676930563115457e+02 -1.5021202502739865e+04 +5.9454612141235452e+05 +9.1838572437807158e+07 
-2.2500000000000000e+00 -5.5390208777273364e-01 +7.3358331040495273e+00 +4.2714623374806777e+00 -1.4695231376040107e+02 -1.4848764665596949e+04 +5.9705913604125450e+05 +9.0896262853462756e+07 
-2.2999999999999998e+00 -5.5391457996172755e-01 +7.3365840308755947e+00 +4.2450090678689225e+00 -1.4714134719521661e+02 -1.4668491146091323e+04 +5.9960946098748117e+05 +8.9909015215739027e+07 
-2.3499999999999996e+00 -5.5392733894135537e-01 +7.3373492367194633e+00 +4.2179070496906119e+00 -1.4733541981018362e+02 -1.4480725284497261e+04 +6.0219066334406461e+05 +8.8878815342317432e+07 
-2.3999999999999995e+00 -5.5394036323456519e-01 +7.3381285481359066e+00 +4.1901783464194269e+00 -1.4753354553755889e+02 -1.4285810377884063e+04 +6.0479631063508871e+05 +8.7807648750123605e+07 
-2.4499999999999993e+00 -5.5395365136432440e-01 +7.3389217916785263e+00 +4.1618450236796232e+00 -1.4773473826503331e+02 -1.4084089783805532e+04 +6.0741997007056931e+05 +8.6697501375210017e+07 
-2.4999999999999991e+00 -5.5396720185358472e-01 +7.3397287939039284e+00 +4.1329291429125368e+00 -1.4793801198945914e+02 -1.3875906747815952e+04 +6.1005520972517971e+05 +8.5550358399979874e+07 
-2.5499999999999989e+00 -5.5398101322533566e-01 +7.3405493813643545e+00 +4.1034527711587474e+00 -1.4814238052788551e+02 -1.3661604670320499e+04 +6.1269559620295465e+05 +8.4368206068454742e+07 
-2.5999999999999988e+00 -5.5399508400256026e-01 +7.3413833806110276e+00 +4.0734379724814715e+00 -1.4834685766188335e+02 -1.3441526867797833e+04 +6.1533469586950250e+05 +8.3153030044434413e+07 
-2.6499999999999986e+00 -5.5400941270823389e-01 +7.3422306182019037e+00 +4.0429068084046662e+00 -1.4855045742972919e+02 -1.3216016590384252e+04 +6.1796607713470631e+05 +8.1906815552292451e+07 
-2.6999999999999984e+00 -5.5402399786535850e-01 +7.3430909206888773e+00 +4.0118813442484313e+00 -1.4875219362820349e+02 -1.2985417194565187e+04 +6.2058330646458536e+05 +8.0631548550161004e+07 
-2.7499999999999982e+00 -5.5403883799694198e-01 +7.3439641146237546e+00 +3.9803836448914938e+00 -1.4895108004601272e+02 -1.2750072024484454e+04 +6.2317995025570609e+05 +7.9329214912082583e+07 
-2.7999999999999980e+00 -5.5405393162598260e-01 +7.3448500265595058e+00 +3.9484357726545540e+00 -1.4914613052333192e+02 -1.2510324358390371e+04 +6.2574957534652925e+05 +7.8001800079843491e+07 
-2.8499999999999979e+00 -5.5406927727549971e-01 +7.3457484830477675e+00 +3.9160597917055462e+00 -1.4933635884378043e+02 -1.2266517520068635e+04 +6.2828574810760689e+05 +7.6651289787279531e+07 
-2.8999999999999977e+00 -5.5408487346850754e-01 +7.3466593106406197e+00 +3.8832777651653401e+00 -1.4952077880311964e+02 -1.2018994813538862e+04 +6.3078203500041715e+05 +7.5279669665637895e+07 
-2.9499999999999975e+00 -5.5410071872803290e-01 +7.3475823358882826e+00 +3.8501117568422329e+00 -1.4969840413239018e+02 -1.1768099560290886e+04 +6.3323200198716624e+05 +7.3888925463845238e+07 
-2.9999999999999973e+00 -5.5411681157709147e-01 +7.3485173853425527e+00 +3.8165838273539783e+00 -1.4986824862226402e+02 -1.1514174994018053e+04 +6.3562921550414420e+05 +7.2481042330351532e+07 
-3.0499999999999972e+00 -5.5413315053873291e-01 +7.3494642855507957e+00 +3.7827160427555273e+00 -1.5002932589160989e+02 -1.1257564502937614e+04 +6.3796724061624217e+05 +7.1058006489738256e+07 
-3.0999999999999970e+00 -5.5414973413598911e-01 +7.3504228630638622e+00 +3.7485304648732112e+00 -1.5018064969975370e+02 -1.0998611357621019e+04 +6.4023964351630490e+05 +6.9621803356474921e+07 
-3.1499999999999968e+00 -5.5416656089190330e-01 +7.3513929444290271e+00 +3.7140491567576963e+00 -1.5032123366555084e+02 -1.0737658867423354e+04 +6.4243998927502416e+05 +6.8174418631912470e+07 
-3.1999999999999966e+00 -5.5418362932951704e-01 +7.3523743561940131e+00 +3.6792941797037884e+00 -1.5045009143611884e+02 -1.0475050290654615e+04 +6.4456184320282761e+05 +6.6717837660231322e+07 
-3.2499999999999964e+00 -5.5420093797188152e-01 +7.3533669249052798e+00 +3.6442875968819495e+00 -1.5056623660905896e+02 -1.0211128945837052e+04 +6.4659877021377347e+05 +6.5254046227728248e+07 
-3.2999999999999963e+00 -5.5421848534205154e-01 +7.3543704771084579e+00 +3.6090514707087347e+00 -1.5066868275067904e+02 -9.9462381286396303e+03 +6.4854433495695516e+05 +6.3785029959123068e+07 
-3.3499999999999961e+00 -5.5423626996308528e-01 +7.3553848393484476e+00 +3.5736078632704795e+00 -1.5075644341306219e+02 -9.6807211248500134e+03 +6.5039210200051044e+05 +6.2312774409059703e+07 
-3.3999999999999959e+00 -5.5425429035802920e-01 +7.3564098381685588e+00 +3.5379788346111725e+00 -1.5082853208366672e+02 -9.4149211758978072e+03 +6.5213563537356665e+05 +6.0839264875784196e+07 
-3.4499999999999957e+00 -5.5427254504996792e-01 +7.3574453001108724e+00 +3.5021864499122359e+00 -1.5088396221953738e+02 -9.1491816548106344e+03 +6.5376849890278454e+05 +5.9366487521253258e+07 
-3.4999999999999956e+00 -5.5429103256194978e-01 +7.3584910517178299e+00 +3.4662527680564401e+00 -1.5092174728591056e+02 -8.8838457719866219e+03 +6.5528425643543061e+05 +5.7896427434516504e+07 
-3.5499999999999954e+00 -5.5430975141704431e-01 +7.3595469195294205e+00 +3.4301998509233216e+00 -1.5094090067811004e+02 -8.6192568213485429e+03 +6.5667647133652796e+05 +5.6431070283626728e+07 
-3.5999999999999952e+00 -5.5432870013832269e-01 +7.3606127300843038e+00 +3.3940497597177823e+00 -1.5094043572499095e+02 -8.3557580781196812e+03 +6.5793870634355163e+05 +5.4972401610480070e+07 
-3.6499999999999950e+00 -5.5434787724885870e-01 +7.3616883099205603e+00 +3.3578245561540623e+00 -1.5091936577225786e+02 -8.0936928354702823e+03 +6.5906452446736884e+05 +5.3522407091111638e+07 
-3.6999999999999948e+00 -5.5436728127171941e-01 +7.3627734855746878e+00 +3.3215462999649081e+00 -1.5087670408507120e+02 -7.8334043356920192e+03 +6.6004748794824688e+05 +5.2083072073013648e+07 
-3.7499999999999947e+00 -5.5438691072998070e-01 +7.3638680835819841e+00 +3.2852370519401699e+00 -1.5081146391217595e+02 -7.5752358504865597e+03 +6.6088115899848531e+05 +5.0656382106196091e+07 
-3.7999999999999945e+00 -5.5440676414671763e-01 +7.3649719304765586e+00 +3.2489188727525380e+00 -1.5072265845596849e+02 -7.3195306539272897e+03 +6.6155909940210811e+05 +4.9244322776935019e+07 
-3.8499999999999943e+00 -5.5442684004499376e-01 +7.3660848527892497e+00 +3.2126138203955494e+00 -1.5060930081260489e+02 -7.0666319505025385e+03 +6.6207487014839868e+05 +4.7848879217250176e+07 
-3.8999999999999941e+00 -5.5444713694790937e-01 +7.3672066770525850e+00 +3.1763439586038902e+00 -1.5047040414704733e+02 -6.8168830946181806e+03 +6.6242203273993055e+05 +4.6472037549928993e+07 
-3.9499999999999940e+00 -5.5446765337852288e-01 +7.3683372297941494e+00 +3.1401313445277315e+00 -1.5030498145536126e+02 -6.5706272792931804e+03 +6.6259414738442865e+05 +4.5115782874186344e+07 
-3.9999999999999938e+00 -5.5448838785991938e-01 +7.3694763375439116e+00 +3.1039980385214343e+00 -1.5011204583463856e+02 -6.3282077729802359e+03 +6.6258477510964952e+05 +4.3782100760776490e+07 
-4.0499999999999936e+00 -5.5450933878108799e-01 +7.3706238353521645e+00 +3.0679652077295945e+00 -1.4989084905352905e+02 -6.0899539889084481e+03 +6.6238883009570732e+05 +4.2472861145042650e+07 
-4.0999999999999934e+00 -5.5453050399473769e-01 +7.3717795858430328e+00 +3.0320500501787331e+00 -1.4964160128432445e+02 -5.8561274769334668e+03 +6.6200694520084292e+05 +4.1189399047125526e+07 
-4.1499999999999932e+00 -5.5455188121945176e-01 +7.3729434569190921e+00 +2.9962686802512835e+00 -1.4936475355468357e+02 -5.6269693386706267e+03 +6.6144125583349972e+05 +3.9932894278971687e+07 
-4.1999999999999931e+00 -5.5457346817383113e-01 +7.3741153164827002e+00 +2.9606372153318379e+00 -1.4906075689329677e+02 -5.4027207599253616e+03 +6.6069389740169921e+05 +3.8704527244333133e+07 
-4.2499999999999929e+00 -5.5459526257648273e-01 +7.3752950324345772e+00 +2.9251717739975147e+00 -1.4873006228719015e+02 -5.1836229585693454e+03 +6.5976700507675030e+05 +3.7505478563332312e+07 
-4.2999999999999927e+00 -5.5461726214600837e-01 +7.3764824726738309e+00 +2.8898884732771757e+00 -1.4837312066169835e+02 -4.9699171073986390e+03 +6.5866271355674788e+05 +3.6336928540845245e+07 
-4.3499999999999925e+00 -5.5463946460100333e-01 +7.3776775050977230e+00 +2.8548034291996136e+00 -1.4799038288540808e+02 -4.7618443539949358e+03 +6.5738315715135064e+05 +3.5200057321071021e+07 
-4.3999999999999924e+00 -5.5466186766008507e-01 +7.3788799975996282e+00 +2.8199327618838672e+00 -1.4758229967631829e+02 -4.5596459577685036e+03 +6.5593046897117689e+05 +3.4096045809308797e+07 
-4.4499999999999922e+00 -5.5468446904184443e-01 +7.3800898180757661e+00 +2.7852925860200757e+00 -1.4714932189057274e+02 -4.3635630274313853e+03 +6.5430678335913073e+05 +3.3026073882684361e+07 
-4.4999999999999920e+00 -5.5470726646489132e-01 +7.3813068344169839e+00 +2.7508990204956896e+00 -1.4669190017510502e+02 -4.1738367882801213e+03 +6.5251423299451568e+05 +3.1991322215439118e+07 
-4.5499999999999918e+00 -5.5473025764782002e-01 +7.3825309145155957e+00 +2.7167681807051913e+00 -1.4621048525545254e+02 -3.9907083685889502e+03 +6.5055495127758512e+05 +3.0992970823505100e+07 
-4.5999999999999917e+00 -5.5475344030924467e-01 +7.3837619262585230e+00 +2.6829161863649809e+00 -1.4570552764196211e+02 -3.8144190173642601e+03 +6.4843106986228039e+05 +3.0032200554324094e+07 
-4.6499999999999915e+00 -5.5477681216775931e-01 +7.3849997375320049e+00 +2.6493591528273761e+00 -1.4517747785268838e+02 -3.6452098576671633e+03 +6.4614472062264895e+05 +2.9110191373947393e+07 
-4.6999999999999913e+00 -5.5480037094197621e-01 +7.3862442162237132e+00 +2.6161131995674718e+00 -1.4462678646925949e+02 -3.4833221283809985e+03 +6.4369803597960644e+05 +2.8228124051489111e+07 
-4.7499999999999911e+00 -5.5482411435048595e-01 +7.3874952302128669e+00 +2.5831944422806403e+00 -1.4405390374687391e+02 -3.3289969696330254e+03 +6.4109314575058001e+05 +2.7387178706538975e+07 
-4.7999999999999909e+00 -5.5484804011189193e-01 +7.3887526473832912e+00 +2.5506189987838690e+00 -1.4345928015060684e+02 -3.1824755700626069e+03 +6.3833218156599184e+05 +2.6588535750508428e+07 
-4.8499999999999908e+00 -5.5487214594478607e-01 +7.3900163356115796e+00 +2.5184029851907281e+00 -1.4284336586158744e+02 -3.0439990765118437e+03 +6.3541727277597168e+05 +2.5833375335895944e+07 
-4.8999999999999906e+00 -5.5489642956777541e-01 +7.3912861627768773e+00 +2.4865625211567846e+00 -1.4220661118897524e+02 -2.9138087332767200e+03 +6.3235054988522560e+05 +2.5122878279097833e+07 
-4.9499999999999904e+00 -5.5492088869945033e-01 +7.3925619967523177e+00 +2.4551137228366566e+00 -1.4154946621949833e+02 -2.7921456838406784e+03 +6.2913414166422596e+05 +2.4458224696126480e+07 
-4.9999999999999902e+00 -5.5494552105840922e-01 +7.3938437054115074e+00 +2.4240727085648222e+00 -1.4087238107708998e+02 -2.6792511329959589e+03 +6.2577017725926405e+05 +2.3840595128866348e+07 
-5.0499999999999901e+00 -5.5497032436323535e-01 +7.3951311566256139e+00 +2.3934555945318210e+00 -1.4017580580568790e+02 -2.5753662286487752e+03 +6.2226078524427116e+05 +2.3271169741847642e+07 
