# field on trajectory
# s[mm] rx[mm] ry[mm] rz[mm] bx[T] by[T] bz[T]
0.0000000000000000e+00 +8.5980000000000008e+00 +0.0000000000000000e+00 +0.0000000000000000e+00 -3.0346506278837528e-02 -5.5220896713046319e-01 +5.6234998736274062e-03
5.0000000000000003e-02 +8.5979999310418087e+00 +0.0000000000000000e+00 +4.9999999999936595e-02 -3.0346103496667266e-02 -5.5220730957644149e-01 +5.6200716916761781e-03
1.0000000000000001e-01 +8.5979997241674937e+00 +0.0000000000000000e+00 +9.9999999999492772e-02 -3.0345727457281528e-02 -5.5220603998511764e-01 +5.6166381717111784e-03
1.5000000000000002e-01 +8.5979993793773719e+00 +0.0000000000000000e+00 +1.4999999999828811e-01 -3.0345378237502347e-02 -5.5220515776400414e-01 +5.6131996512250679e-03
2.0000000000000001e-01 +8.5979988966716654e+00 +0.0000000000000000e+00 +1.9999999999594220e-01 -3.0345055914152371e-02 -5.5220466232063181e-01 +5.6097564677102061e-03
2.5000000000000000e-01 +8.5979982760504967e+00 +0.0000000000000000e+00 +2.4999999999207465e-01 -3.0344760564054826e-02 -5.5220455306254668e-01 +5.6063089586587045e-03
2.9999999999999999e-01 +8.5979975175138925e+00 +0.0000000000000000e+00 +2.9999999998630500e-01 -3.0344492264033632e-02 -5.5220482939731319e-01 +5.6028574615624429e-03
3.4999999999999998e-01 +8.5979966210617853e+00 +0.0000000000000000e+00 +3.4999999997825287e-01 -3.0344251090913439e-02 -5.5220549073251235e-01 +5.5994023139131341e-03
3.9999999999999997e-01 +8.5979955866940081e+00 +0.0000000000000000e+00 +3.9999999996753788e-01 -3.0344037121519576e-02 -5.5220653647574214e-01 +5.5959438532023238e-03
4.4999999999999996e-01 +8.5979944144103015e+00 +0.0000000000000000e+00 +4.4999999995377954e-01 -3.0343850432678249e-02 -5.5220796603461741e-01 +5.5924824169214541e-03
4.9999999999999994e-01 +8.5979931042103068e+00 +0.0000000000000000e+00 +4.9999999993659744e-01 -3.0343691101216416e-02 -5.5220977881677080e-01 +5.5890183425618871e-03
5.4999999999999993e-01 +8.5979916560935727e+00 +0.0000000000000000e+00 +5.4999999991561122e-01 -3.0343559203961954e-02 -5.5221197422985047e-01 +5.5855519676149459e-03
5.9999999999999998e-01 +8.5979900700595504e+00 +0.0000000000000000e+00 +5.9999999989044028e-01 -3.0343454817743629e-02 -5.5221455168152211e-01 +5.5820836295719413e-03
6.5000000000000002e-01 +8.5979883461075968e+00 +0.0000000000000000e+00 +6.4999999986070434e-01 -3.0343378019391180e-02 -5.5221751057946877e-01 +5.5786136659242156e-03
7.0000000000000007e-01 +8.5979864842369711e+00 +0.0000000000000000e+00 +6.9999999982602290e-01 -3.0343328885735273e-02 -5.5222085033138935e-01 +5.5751424141631768e-03
7.5000000000000011e-01 +8.5979844844468420e+00 +0.0000000000000000e+00 +7.4999999978601539e-01 -3.0343307493607696e-02 -5.5222457034500094e-01 +5.5716702117803371e-03
8.0000000000000016e-01 +8.5979823467362788e+00 +0.0000000000000000e+00 +7.9999999974030145e-01 -3.0343313919841242e-02 -5.5222867002803644e-01 +5.5681973962673345e-03
8.5000000000000020e-01 +8.5979800711042564e+00 +0.0000000000000000e+00 +8.4999999968850060e-01 -3.0343348241269861e-02 -5.5223314878824559e-01 +5.5647243051159933e-03
9.0000000000000024e-01 +8.5979776575496576e+00 +0.0000000000000000e+00 +8.9999999963023225e-01 -3.0343410534728610e-02 -5.5223800603339490e-01 +5.5612512758183331e-03
9.5000000000000029e-01 +8.5979751060712708e+00 +0.0000000000000000e+00 +9.4999999956511594e-01 -3.0343500877053762e-02 -5.5224324117126800e-01 +5.5577786458666208e-03
1.0000000000000002e+00 +8.5979724166677869e+00 +0.0000000000000000e+00 +9.9999999949277119e-01 -3.0343619345082833e-02 -5.5224885360966502e-01 +5.5543067527534032e-03
1.0500000000000003e+00 +8.5979695893378043e+00 +0.0000000000000000e+00 +1.0499999994128173e+00 -3.0343766015654607e-02 -5.5225484275640258e-01 +5.5508359339715412e-03
1.1000000000000003e+00 +8.5979666240798274e+00 +0.0000000000000000e+00 +1.0999999993248739e+00 -3.0343940965609176e-02 -5.5226120801931411e-01 +5.5473665270142462e-03
1.1500000000000004e+00 +8.5979635208922662e+00 +0.0000000000000000e+00 +1.1499999992285603e+00 -3.0344144271787981e-02 -5.5226794880625008e-01 +5.5438988693751129e-03
1.2000000000000004e+00 +8.5979602797734369e+00 +0.0000000000000000e+00 +1.1999999991234960e+00 -3.0344376011033881e-02 -5.5227506452507691e-01 +5.5404332985481601e-03
1.2500000000000004e+00 +8.5979569007215630e+00 +0.0000000000000000e+00 +1.2499999990093003e+00 -3.0344636260191151e-02 -5.5228255458367792e-01 +5.5369701520278630e-03
1.3000000000000005e+00 +8.5979533837347724e+00 +0.0000000000000000e+00 +1.2999999988855924e+00 -3.0344925096105538e-02 -5.5229041838995285e-01 +5.5335097673091917e-03
1.3500000000000005e+00 +8.5979497288111038e+00 +0.0000000000000000e+00 +1.3499999987519919e+00 -3.0345242595624336e-02 -5.5229865535181855e-01 +5.5300524818876389e-03
1.4000000000000006e+00 +8.5979459359484984e+00 +0.0000000000000000e+00 +1.3999999986081180e+00 -3.0345588835596366e-02 -5.5230726487720760e-01 +5.5265986332592712e-03
1.4500000000000006e+00 +8.5979420051448052e+00 +0.0000000000000000e+00 +1.4499999984535898e+00 -3.0345963892872051e-02 -5.5231624637406940e-01 +5.5231485589207416e-03
1.5000000000000007e+00 +8.5979379363977824e+00 +0.0000000000000000e+00 +1.4999999982880270e+00 -3.0346367844303477e-02 -5.5232559925037006e-01 +5.5197025963693554e-03
1.5500000000000007e+00 +8.5979337297050940e+00 +0.0000000000000000e+00 +1.5499999981110486e+00 -3.0346800766744373e-02 -5.5233532291409193e-01 +5.5162610831030719e-03
1.6000000000000008e+00 +8.5979293850643117e+00 +0.0000000000000000e+00 +1.5999999979222737e+00 -3.0347262737050205e-02 -5.5234541677323390e-01 +5.5128243566205702e-03
1.6500000000000008e+00 +8.5979249024729132e+00 +0.0000000000000000e+00 +1.6499999977213216e+00 -3.0347753832078196e-02 -5.5235588023581095e-01 +5.5093927544212652e-03
1.7000000000000008e+00 +8.5979202819282872e+00 +0.0000000000000000e+00 +1.6999999975078113e+00 -3.0348274128687396e-02 -5.5236671270985516e-01 +5.5059666140053511e-03
1.7500000000000009e+00 +8.5979155234277265e+00 +0.0000000000000000e+00 +1.7499999972813622e+00 -3.0348823703738634e-02 -5.5237791360341360e-01 +5.5025462728738395e-03
1.8000000000000009e+00 +8.5979106269684351e+00 +0.0000000000000000e+00 +1.7999999970415932e+00 -3.0349402634094684e-02 -5.5238948232455143e-01 +5.4991320685285902e-03
1.8500000000000010e+00 +8.5979055925475230e+00 +0.0000000000000000e+00 +1.8499999967881233e+00 -3.0350010996620203e-02 -5.5240141828134881e-01 +5.4957243384723400e-03
1.9000000000000010e+00 +8.5979004201620093e+00 +0.0000000000000000e+00 +1.8999999965205718e+00 -3.0350648868181826e-02 -5.5241372088190277e-01 +5.4923234202087622e-03
1.9500000000000011e+00 +8.5978951098088210e+00 +0.0000000000000000e+00 +1.9499999962385575e+00 -3.0351316325648171e-02 -5.5242638953432688e-01 +5.4889296512424697e-03
2.0000000000000009e+00 +8.5978896614847944e+00 +0.0000000000000000e+00 +1.9999999959416992e+00 -3.0352013445889944e-02 -5.5243942364674969e-01 +5.4855433690790848e-03
2.0500000000000007e+00 +8.5978840751866734e+00 +0.0000000000000000e+00 +2.0499999956296162e+00 -3.0352740263705481e-02 -5.5245282239963667e-01 +5.4821648975004475e-03
2.1000000000000005e+00 +8.5978783509111132e+00 +0.0000000000000000e+00 +2.0999999953019270e+00 -3.0353496645597493e-02 -5.5246658406274107e-01 +5.4787945053901858e-03
2.1500000000000004e+00 +8.5978724886546765e+00 +0.0000000000000000e+00 +2.1499999949582507e+00 -3.0354282415995904e-02 -5.5248070667815052e-01 +5.4754324479080185e-03
2.2000000000000002e+00 +8.5978664884138354e+00 +0.0000000000000000e+00 +2.1999999945982061e+00 -3.0355097399332277e-02 -5.5249518828796451e-01 +5.4720789802145666e-03
2.2500000000000000e+00 +8.5978603501849733e+00 +0.0000000000000000e+00 +2.2499999942214117e+00 -3.0355941420039761e-02 -5.5251002693429629e-01 +5.4687343574713713e-03
2.2999999999999998e+00 +8.5978540739643847e+00 +0.0000000000000000e+00 +2.2999999938274862e+00 -3.0356814302553221e-02 -5.5252522065927201e-01 +5.4653988348409236e-03
2.3499999999999996e+00 +8.5978476597482754e+00 +0.0000000000000000e+00 +2.3499999934160485e+00 -3.0357715871309067e-02 -5.5254076750503012e-01 +5.4620726674866806e-03
2.3999999999999995e+00 +8.5978411075327621e+00 +0.0000000000000000e+00 +2.3999999929867175e+00 -3.0358645950745462e-02 -5.5255666551372240e-01 +5.4587561105730962e-03
2.4499999999999993e+00 +8.5978344173138748e+00 +0.0000000000000000e+00 +2.4499999925391114e+00 -3.0359604365302145e-02 -5.5257291272751208e-01 +5.4554494192656303e-03
2.4999999999999991e+00 +8.5978275890875544e+00 +0.0000000000000000e+00 +2.4999999920728486e+00 -3.0360590939420572e-02 -5.5258950718857491e-01 +5.4521528487307845e-03
2.5499999999999989e+00 +8.5978206228496585e+00 +0.0000000000000000e+00 +2.5499999915875482e+00 -3.0361605497543877e-02 -5.5260644693909944e-01 +5.4488666541361221e-03
2.5999999999999988e+00 +8.5978135185959559e+00 +0.0000000000000000e+00 +2.5999999910828282e+00 -3.0362647864116840e-02 -5.5262373002128518e-01 +5.4455910906502864e-03
2.6499999999999986e+00 +8.5978062763221281e+00 +0.0000000000000000e+00 +2.6499999905583072e+00 -3.0363717863585951e-02 -5.5264135447734286e-01 +5.4423264134430219e-03
2.6999999999999984e+00 +8.5977988960237752e+00 +0.0000000000000000e+00 +2.6999999900136031e+00 -3.0364815320399443e-02 -5.5265931834949578e-01 +5.4390728776852089e-03
2.7499999999999982e+00 +8.5977913776964101e+00 +0.0000000000000000e+00 +2.7499999894483347e+00 -3.0365940059007182e-02 -5.5267761967997753e-01 +5.4358307385488696e-03
2.7999999999999980e+00 +8.5977837213354622e+00 +0.0000000000000000e+00 +2.7999999888621203e+00 -3.0367091903860801e-02 -5.5269625651103393e-01 +5.4326002512072070e-03
2.8499999999999979e+00 +8.5977759269362775e+00 +0.0000000000000000e+00 +2.8499999882545777e+00 -3.0368270679413643e-02 -5.5271522688492025e-01 +5.4293816708346158e-03
2.8999999999999977e+00 +8.5977679944941183e+00 +0.0000000000000000e+00 +2.8999999876253253e+00 -3.0369476210120771e-02 -5.5273452884390351e-01 +5.4261752526067039e-03
2.9499999999999975e+00 +8.5977599240041638e+00 +0.0000000000000000e+00 +2.9499999869739812e+00 -3.0370708320439019e-02 -5.5275416043026082e-01 +5.4229812517003302e-03
2.9999999999999973e+00 +8.5977517154615111e+00 +0.0000000000000000e+00 +2.9999999863001636e+00 -3.0371966834826940e-02 -5.5277411968628010e-01 +5.4197999232936172e-03
3.0499999999999972e+00 +8.5977433688611740e+00 +0.0000000000000000e+00 +3.0499999856034905e+00 -3.0373251577744842e-02 -5.5279440465425866e-01 +5.4166315225659635e-03
3.0999999999999970e+00 +8.5977348841980881e+00 +0.0000000000000000e+00 +3.0999999848835795e+00 -3.0374562373654816e-02 -5.5281501337650440e-01 +5.4134763046980840e-03
3.1499999999999968e+00 +8.5977262614671055e+00 +0.0000000000000000e+00 +3.1499999841400488e+00 -3.0375899047020698e-02 -5.5283594389533497e-01 +5.4103345248720262e-03
3.1999999999999966e+00 +8.5977175006629984e+00 +0.0000000000000000e+00 +3.1999999833725159e+00 -3.0377261422308146e-02 -5.5285719425307767e-01 +5.4072064382711931e-03
3.2499999999999964e+00 +8.5977086017804609e+00 +0.0000000000000000e+00 +3.2499999825805990e+00 -3.0378649323984548e-02 -5.5287876249206824e-01 +5.4040923000803617e-03
3.2999999999999963e+00 +8.5976995648141052e+00 +0.0000000000000000e+00 +3.2999999817639156e+00 -3.0380062576519130e-02 -5.5290064665465288e-01 +5.4009923654857140e-03
3.3499999999999961e+00 +8.5976903897584656e+00 +0.0000000000000000e+00 +3.3499999809220831e+00 -3.0381501004382916e-02 -5.5292284478318698e-01 +5.3979068896748417e-03
3.3999999999999959e+00 +8.5976810766079996e+00 +0.0000000000000000e+00 +3.3999999800547194e+00 -3.0382964432048729e-02 -5.5294535492003327e-01 +5.3948361278368055e-03
3.4499999999999957e+00 +8.5976716253570835e+00 +0.0000000000000000e+00 +3.4499999791614422e+00 -3.0384452683991203e-02 -5.5296817510756469e-01 +5.3917803351621095e-03
3.4999999999999956e+00 +8.5976620360000187e+00 +0.0000000000000000e+00 +3.4999999782418687e+00 -3.0385965584686824e-02 -5.5299130338816183e-01 +5.3887397668427647e-03
3.5499999999999954e+00 +8.5976523085310301e+00 +0.0000000000000000e+00 +3.5499999772956161e+00 -3.0387502958613907e-02 -5.5301473780421428e-01 +5.3857146780722943e-03
3.5999999999999952e+00 +8.5976424429442631e+00 +0.0000000000000000e+00 +3.5999999763223021e+00 -3.0389064630252587e-02 -5.5303847639811876e-01 +5.3827053240457518e-03
3.6499999999999950e+00 +8.5976324392337897e+00 +0.0000000000000000e+00 +3.6499999753215437e+00 -3.0390650424084863e-02 -5.5306251721228128e-01 +5.3797119599597529e-03
3.6999999999999948e+00 +8.5976222973936061e+00 +0.0000000000000000e+00 +3.6999999742929588e+00 -3.0392260164594620e-02 -5.5308685828911430e-01 +5.3767348410124968e-03
3.7499999999999947e+00 +8.5976120174176334e+00 +0.0000000000000000e+00 +3.7499999732361640e+00 -3.0393893676267564e-02 -5.5311149767103884e-01 +5.3737742224037929e-03
3.7999999999999945e+00 +8.5976015992997166e+00 +0.0000000000000000e+00 +3.7999999721507765e+00 -3.0395550783591303e-02 -5.5313643340048280e-01 +5.3708303593350661e-03
3.8499999999999943e+00 +8.5975910430336295e+00 +0.0000000000000000e+00 +3.8499999710364130e+00 -3.0397231311055317e-02 -5.5316166351988127e-01 +5.3679035070093965e-03
3.8999999999999941e+00 +8.5975803486130697e+00 +0.0000000000000000e+00 +3.8999999698926908e+00 -3.0398935083150991e-02 -5.5318718607167638e-01 +5.3649939206315417e-03
3.9499999999999940e+00 +8.5975695160316636e+00 +0.0000000000000000e+00 +3.9499999687192267e+00 -3.0400661924371603e-02 -5.5321299909831767e-01 +5.3621018554079530e-03
3.9999999999999938e+00 +8.5975585452829648e+00 +0.0000000000000000e+00 +3.9999999675156372e+00 -3.0402411659212297e-02 -5.5323910064226045e-01 +5.3592275665467950e-03
4.0499999999999936e+00 +8.5975474363604540e+00 +0.0000000000000000e+00 +4.0499999662815398e+00 -3.0404184118109776e-02 -5.5326548859448388e-01 +5.3563712903566948e-03
4.0999999999999934e+00 +8.5975361892575410e+00 +0.0000000000000000e+00 +4.0999999650165506e+00 -3.0405979155259798e-02 -5.5329216024003558e-01 +5.3535331875425446e-03
4.1499999999999932e+00 +8.5975248039675645e+00 +0.0000000000000000e+00 +4.1499999637202860e+00 -3.0407796630796517e-02 -5.5331911271248369e-01 +5.3507133999091457e-03
4.1999999999999931e+00 +8.5975132804837919e+00 +0.0000000000000000e+00 +4.1999999623923632e+00 -3.0409636404852544e-02 -5.5334634314539832e-01 +5.3479120692625113e-03
4.2499999999999929e+00 +8.5975016187994235e+00 +0.0000000000000000e+00 +4.2499999610323984e+00 -3.0411498337558792e-02 -5.5337384867235162e-01 +5.3451293374098836e-03
4.2999999999999927e+00 +8.5974898189075901e+00 +0.0000000000000000e+00 +4.2999999596400080e+00 -3.0413382289044430e-02 -5.5340162642691870e-01 +5.3423653461597302e-03
4.3499999999999925e+00 +8.5974778808013550e+00 +0.0000000000000000e+00 +4.3499999582148083e+00 -3.0415288119436806e-02 -5.5342967354267658e-01 +5.3396202373217688e-03
4.3999999999999924e+00 +8.5974658044737122e+00 +0.0000000000000000e+00 +4.3999999567564156e+00 -3.0417215688861243e-02 -5.5345798715320382e-01 +5.3368941527069409e-03
4.4499999999999922e+00 +8.5974535899175901e+00 +0.0000000000000000e+00 +4.4499999552644462e+00 -3.0419164857441072e-02 -5.5348656439207955e-01 +5.3341872341274481e-03
4.4999999999999920e+00 +8.5974412371258531e+00 +0.0000000000000000e+00 +4.4999999537385156e+00 -3.0421135485297471e-02 -5.5351540239288510e-01 +5.3314996233967335e-03
4.5499999999999918e+00 +8.5974287460912979e+00 +0.0000000000000000e+00 +4.5499999521782399e+00 -3.0423127432549393e-02 -5.5354449828920216e-01 +5.3288314623295141e-03
4.5999999999999917e+00 +8.5974161168066576e+00 +0.0000000000000000e+00 +4.5999999505832356e+00 -3.0425140559313425e-02 -5.5357384921461295e-01 +5.3261828927417543e-03
4.6499999999999915e+00 +8.5974033492646029e+00 +0.0000000000000000e+00 +4.6499999489531181e+00 -3.0427174725703748e-02 -5.5360345230269947e-01 +5.3235540564506934e-03
4.6999999999999913e+00 +8.5973904434577388e+00 +0.0000000000000000e+00 +4.6999999472875036e+00 -3.0429229791832036e-02 -5.5363330468704453e-01 +5.3209450952748450e-03
4.7499999999999911e+00 +8.5973773993786100e+00 +0.0000000000000000e+00 +4.7499999455860076e+00 -3.0431305617807314e-02 -5.5366340350123022e-01 +5.3183561510340045e-03
4.7999999999999909e+00 +8.5973642170197007e+00 +0.0000000000000000e+00 +4.7999999438482455e+00 -3.0433402063735897e-02 -5.5369374587883791e-01 +5.3157873655492521e-03
4.8499999999999908e+00 +8.5973508963734329e+00 +0.0000000000000000e+00 +4.8499999420738336e+00 -3.0435518989721310e-02 -5.5372432895344781e-01 +5.3132388806429480e-03
4.8999999999999906e+00 +8.5973374374321665e+00 +0.0000000000000000e+00 +4.8999999402623864e+00 -3.0437656255864167e-02 -5.5375514985864016e-01 +5.3107108381387691e-03
4.9499999999999904e+00 +8.5973238401882064e+00 +0.0000000000000000e+00 +4.9499999384135203e+00 -3.0439813722262055e-02 -5.5378620572799231e-01 +5.3082033798616760e-03
4.9999999999999902e+00 +8.5973101046337952e+00 +0.0000000000000000e+00 +4.9999999365268497e+00 -3.0441991249009502e-02 -5.5381749369508115e-01 +5.3057166476379375e-03
5.0499999999999901e+00 +8.5972962307611187e+00 +0.0000000000000000e+00 +5.0499999346019901e+00 -3.0444188696197819e-02 -5.5384901089348060e-01 +5.3032507832951456e-03
5.0999999999999899e+00 +8.5972822185623059e+00 +0.0000000000000000e+00 +5.0999999326385570e+00 -3.0446405923915044e-02 -5.5388075445676277e-01 +5.3008059286622014e-03
5.1499999999999897e+00 +8.5972680680294289e+00 +0.0000000000000000e+00 +5.1499999306361648e+00 -3.0448642792245819e-02 -5.5391272151849691e-01 +5.2983822255693262e-03
5.1999999999999895e+00 +8.5972537791545030e+00 +0.0000000000000000e+00 +5.1999999285944289e+00 -3.0450899161271330e-02 -5.5394490921225037e-01 +5.2959798158480854e-03
5.2499999999999893e+00 +8.5972393519294901e+00 +0.0000000000000000e+00 +5.2499999265129649e+00 -3.0453174891069152e-02 -5.5397731467158584e-01 +5.2935988413313649e-03
5.2999999999999892e+00 +8.5972247863462972e+00 +0.0000000000000000e+00 +5.2999999243913871e+00 -3.0455469841713233e-02 -5.5400993503006424e-01 +5.2912394438533912e-03
5.3499999999999890e+00 +8.5972100823967779e+00 +0.0000000000000000e+00 +5.3499999222293102e+00 -3.0457783873273719e-02 -5.5404276742124170e-01 +5.2889017652497381e-03
5.3999999999999888e+00 +8.5971952400727307e+00 +0.0000000000000000e+00 +5.3999999200263487e+00 -3.0460116845816929e-02 -5.5407580897867048e-01 +5.2865859473573340e-03
5.4499999999999886e+00 +8.5971802593659046e+00 +0.0000000000000000e+00 +5.4499999177821170e+00 -3.0462468619405207e-02 -5.5410905683589939e-01 +5.2842921320144613e-03
5.4999999999999885e+00 +8.5971651402679967e+00 +0.0000000000000000e+00 +5.4999999154962298e+00 -3.0464839054096832e-02 -5.5414250812647192e-01 +5.2820204610607557e-03
5.5499999999999883e+00 +8.5971498827706512e+00 +0.0000000000000000e+00 +5.5499999131683015e+00 -3.0467228009945967e-02 -5.5417615998392766e-01 +5.2797710763372377e-03
5.5999999999999881e+00 +8.5971344868654640e+00 +0.0000000000000000e+00 +5.5999999107979468e+00 -3.0469635347002512e-02 -5.5421000954179966e-01 +5.2775441196862803e-03
5.6499999999999879e+00 +8.5971189525439815e+00 +0.0000000000000000e+00 +5.6499999083847792e+00 -3.0472060925312020e-02 -5.5424405393361709e-01 +5.2753397329516477e-03
5.6999999999999877e+00 +8.5971032797977003e+00 +0.0000000000000000e+00 +5.6999999059284132e+00 -3.0474504604915634e-02 -5.5427829029290276e-01 +5.2731580579784849e-03
5.7499999999999876e+00 +8.5970874686180707e+00 +0.0000000000000000e+00 +5.7499999034284635e+00 -3.0476966245849956e-02 -5.5431271575317376e-01 +5.2709992366133237e-03
5.7999999999999874e+00 +8.5970715189964952e+00 +0.0000000000000000e+00 +5.7999999008845435e+00 -3.0479445708146952e-02 -5.5434732744794091e-01 +5.2688634107040926e-03
5.8499999999999872e+00 +8.5970554309243301e+00 +0.0000000000000000e+00 +5.8499998982962671e+00 -3.0481942851833893e-02 -5.5438212251070873e-01 +5.2667507221001199e-03
5.8999999999999870e+00 +8.5970392043928836e+00 +0.0000000000000000e+00 +5.8999998956632478e+00 -3.0484457536933188e-02 -5.5441709807497486e-01 +5.2646613126521372e-03
