# multipoles
# s[mm] polynom_b[n=0][T/m^n] polynom_b[n=1][T/m^n] polynom_b[n=2][T/m^n] polynom_b[n=3][T/m^n] polynom_b[n=4][T/m^n] polynom_b[n=5][T/m^n] polynom_b[n=6][T/m^n] 
+0.0000000000000000e+00 -5.5400829907132143e-01 +7.2546720813292431e+00 +4.9825154914801164e+00 +1.7496040279337418e+01 +1.7520432845230355e+03 -5.1350064711366122e+05 +1.3926910886131447e+07 
-5.0000000000000003e-02 -5.5400863321725125e-01 +7.2547261076186702e+00 +4.9856593657216886e+00 +1.7630203319522206e+01 +1.6546640776757320e+03 -5.1487848427082010e+05 +1.4497791712485509e+07 
-1.0000000000000001e-01 -5.5400932753574728e-01 +7.2547995073060561e+00 +4.9882700374005626e+00 +1.7781706565536414e+01 +1.5612727364369882e+03 -5.1634194047283899e+05 +1.5038753007880541e+07 
-1.5000000000000002e-01 -5.5401038111857814e-01 +7.2548922176360611e+00 +4.9903422269741542e+00 +1.7950303865839860e+01 +1.4719814470785634e+03 -5.1788981134764495e+05 +1.5549312240511559e+07 
-2.0000000000000001e-01 -5.5401179305757564e-01 +7.2550041758548716e+00 +4.9918706631795793e+00 +1.8135749020557796e+01 +1.3869021712190424e+03 -5.1952089206428512e+05 +1.6028988400565246e+07 
-2.5000000000000000e-01 -5.5401356244454325e-01 +7.2551353192130348e+00 +4.9928500665656754e+00 +1.8337795680311405e+01 +1.3061470922498791e+03 -5.2123397657082073e+05 +1.6477298977236617e+07 
-2.9999999999999999e-01 -5.5401568837132920e-01 +7.2552855849558497e+00 +4.9932751631121004e+00 +1.8556197724127490e+01 +1.2298282426300907e+03 -5.2302786063474038e+05 +1.6893762494127154e+07 
-3.4999999999999998e-01 -5.5401816992978459e-01 +7.2554549103344481e+00 +4.9931406756209373e+00 +1.8790708825923584e+01 +1.1580577466103696e+03 -5.2490133836816577e+05 +1.7277896831403837e+07 
-3.9999999999999997e-01 -5.5402100621177275e-01 +7.2556432325971230e+00 +4.9924413267837524e+00 +1.9041082792060166e+01 +1.0909477252417348e+03 -5.2685320491772413e+05 +1.7629219912761342e+07 
-4.4999999999999996e-01 -5.5402419630920241e-01 +7.2558504889964341e+00 +4.9911718439396209e+00 +1.9307073282397575e+01 +1.0286101779660912e+03 -5.2888225424503780e+05 +1.7947250470534645e+07 
-4.9999999999999994e-01 -5.5402773931395999e-01 +7.2560766167821420e+00 +4.9893269481064699e+00 +1.9588434087200692e+01 +9.7115726959129563e+02 -5.3098728133715061e+05 +1.8231506136005294e+07 
-5.4999999999999993e-01 -5.5403163431797309e-01 +7.2563215532082559e+00 +4.9869013640877053e+00 +1.9884918854291012e+01 +9.1870106823715764e+02 -5.3316708002254716e+05 +1.8481505174167272e+07 
-5.9999999999999998e-01 -5.5403588041317098e-01 +7.2565852355260319e+00 +4.9838898148030024e+00 +2.0196281362829186e+01 +8.7135368648515441e+02 -5.3542044519444113e+05 +1.8696765572536107e+07 
-6.5000000000000002e-01 -5.5404047669150880e-01 +7.2568676009917681e+00 +4.9802870244873967e+00 +2.0522275204188258e+01 +8.2922720367708689e+02 -5.3774617016954219e+05 +1.8876805534497604e+07 
-7.0000000000000007e-01 -5.5404542224494946e-01 +7.2571685868584952e+00 +4.9760877158018051e+00 +2.0862654139320981e+01 +7.9243374465103796e+02 -5.4014304970302829e+05 +1.9021142942186564e+07 
-7.5000000000000011e-01 -5.5405071616547741e-01 +7.2574881303814065e+00 +4.9712866128766668e+00 +2.1217171847564007e+01 +7.6108538763944682e+02 -5.4260987779645447e+05 +1.9129296020909451e+07 
-8.0000000000000016e-01 -5.5405635754509341e-01 +7.2578261688202650e+00 +4.9658784395284528e+00 +2.1585581860606201e+01 +7.3529422435151469e+02 -5.4514544731480791e+05 +1.9200782883652713e+07 
-8.5000000000000020e-01 -5.5406234547580691e-01 +7.2581826394301965e+00 +4.9598579186141860e+00 +2.1967637911285774e+01 +7.1517236946554874e+02 -5.4774855271226633e+05 +1.9235121497756116e+07 
-9.0000000000000024e-01 -5.5406867904964829e-01 +7.2585574794705563e+00 +4.9532197736848733e+00 +2.2363093583933935e+01 +7.0083191936394701e+02 -5.5041798723566870e+05 +1.9231829955485828e+07 
-9.5000000000000029e-01 -5.5407535735866231e-01 +7.2589506261993577e+00 +4.9459587285473257e+00 +2.2771702547706219e+01 +6.9238496136058268e+02 -5.5315254483701836e+05 +1.9190426413500261e+07 
-1.0000000000000002e+00 -5.5408237949490780e-01 +7.2593620168784492e+00 +4.9380695061869373e+00 +2.3193218335392984e+01 +6.8994360831689187e+02 -5.5595101835190470e+05 +1.9110428845651623e+07 
-1.0500000000000003e+00 -5.5408974455045545e-01 +7.2597915887691800e+00 +4.9295468291925975e+00 +2.3627394519226158e+01 +6.9361998273784809e+02 -5.5881220091886155e+05 +1.8991355163449842e+07 
-1.1000000000000003e+00 -5.5409745161739288e-01 +7.2602392791328940e+00 +4.9203854208079498e+00 +2.4073984694671882e+01 +7.0352618526926665e+02 -5.6173488586614584e+05 +1.8832723440204956e+07 
-1.1500000000000004e+00 -5.5410549978782675e-01 +7.2607050252332019e+00 +4.9105800043577874e+00 +2.4532742400486743e+01 +7.1977432058297245e+02 -5.6471786611785262e+05 +1.8634051698941376e+07 
-1.2000000000000004e+00 -5.5411388815388862e-01 +7.2611887643351958e+00 +4.9001253054564780e+00 +2.5003421113059005e+01 +7.4247642413353969e+02 -5.6775993397875805e+05 +1.8394858459672432e+07 
-1.2500000000000004e+00 -5.5412261580768829e-01 +7.2616904337029133e+00 +4.8890160431761496e+00 +2.5485774405415142e+01 +7.7174471278562055e+02 -5.7085988268465316e+05 +1.8114660992938731e+07 
-1.3000000000000005e+00 -5.5413168184139328e-01 +7.2622099706047116e+00 +4.8772469436651775e+00 +2.5979555679048048e+01 +8.0769121222655235e+02 -5.7401650398901082e+05 +1.7792977866694324e+07 
-1.3500000000000005e+00 -5.5414108534715079e-01 +7.2627473123049624e+00 +4.8648127274485873e+00 +2.6484518520261098e+01 +8.5042809754333780e+02 -5.7722859117507143e+05 +1.7429326644891083e+07 
-1.4000000000000006e+00 -5.5415082541715655e-01 +7.2633023960738559e+00 +4.8517081208541901e+00 +2.7000416306232189e+01 +9.0006738634861711e+02 -5.8049493582770973e+05 +1.7023225959609289e+07 
-1.4500000000000006e+00 -5.5416090114358041e-01 +7.2638751591817332e+00 +4.8379278427274679e+00 +2.7527002432264975e+01 +9.5672130378180429e+02 -5.8381432970377756e+05 +1.6574193017889813e+07 
-1.5000000000000007e+00 -5.5417131161864086e-01 +7.2644655388975456e+00 +4.8234666186687605e+00 +2.8064030379441657e+01 +1.0205018842565805e+03 -5.8718556529631664e+05 +1.6081746347946240e+07 
-1.5500000000000007e+00 -5.5418205593456282e-01 +7.2650734724934258e+00 +4.8083191722875727e+00 +2.8611253505738784e+01 +1.0915212225625680e+03 -5.9060743403685966e+05 +1.5545404043867437e+07 
-1.6000000000000008e+00 -5.5419313318356600e-01 +7.2656988972425607e+00 +4.7924802238408182e+00 +2.9168425161916048e+01 +1.1698915016125816e+03 -5.9407872735908465e+05 +1.4964683613782236e+07 
-1.6500000000000008e+00 -5.5420454245791195e-01 +7.2663417504185350e+00 +4.7759444988769566e+00 +2.9735298703744817e+01 +1.2557247593835675e+03 -5.9759823675414699e+05 +1.4339103550997449e+07 
-1.7000000000000008e+00 -5.5421628284985047e-01 +7.2670019692963175e+00 +4.7587067176900852e+00 +3.0311627452662410e+01 +1.3491331798456358e+03 -6.0116475342799595e+05 +1.3668181349195069e+07 
-1.7500000000000009e+00 -5.5422835345166177e-01 +7.2676794911513234e+00 +4.7407616039962601e+00 +3.0897164737093448e+01 +1.4502288530464996e+03 -6.0477706867879943e+05 +1.2951435138384230e+07 
-1.8000000000000009e+00 -5.5424075335564305e-01 +7.2683742532634836e+00 +4.7221038821065875e+00 +3.1491663721795216e+01 +1.5591238489822524e+03 -6.0843397247711627e+05 +1.2188383202450197e+07 
-1.8500000000000010e+00 -5.5425348165408794e-01 +7.2690861929087554e+00 +4.7027282728320960e+00 +3.2094877754355721e+01 +1.6759303383095300e+03 -6.1213425629018585e+05 +1.1378543119282341e+07 
-1.9000000000000010e+00 -5.5426653743931953e-01 +7.2698152473679389e+00 +4.6826295001020251e+00 +3.2706560017555191e+01 +1.8007604044625432e+03 -6.1587671030275780e+05 +1.0521433067827856e+07 
-1.9500000000000011e+00 -5.5427991980366564e-01 +7.2705613539213552e+00 +4.6618022864186930e+00 +3.3326463734551233e+01 +1.9337261665863357e+03 -6.1966012504184351e+05 +9.6165709970764108e+06 
-2.0000000000000009e+00 -5.5429362783946390e-01 +7.2713244498533740e+00 +4.6402413532253108e+00 +3.3954341976058629e+01 +2.0749397791153224e+03 -6.2348328975100559e+05 +8.6634745898249708e+06 
-2.0500000000000007e+00 -5.5430766046629942e-01 +7.2721044585362771e+00 +4.6179462695384759e+00 +3.4589965565997844e+01 +2.2244167126443399e+03 -6.2734496658815257e+05 +7.6622118428356871e+06 
-2.1000000000000005e+00 -5.5432201591284103e-01 +7.2729012417791807e+00 +4.5949364133419994e+00 +3.5233161606046693e+01 +2.3817844341644154e+03 -6.3124369024715596e+05 +6.6150568942153631e+06 
-2.1500000000000004e+00 -5.5433669223510584e-01 +7.2737146445113687e+00 +4.5712362356314582e+00 +3.5883767360181601e+01 +2.5465729480581986e+03 -6.3517791167134722e+05 +5.5248375866681878e+06 
-2.2000000000000002e+00 -5.5435168748912522e-01 +7.2745445116636258e+00 +4.5468701881427593e+00 +3.6541620046863954e+01 +2.7183122347485628e+03 -6.3914608145647380e+05 +4.3943819444068596e+06 
-2.2500000000000000e+00 -5.5436699973093473e-01 +7.2753906881667048e+00 +4.5218627213196969e+00 +3.7206556906724060e+01 +2.8965323133995939e+03 -6.4314665040250507e+05 +3.2265177121719648e+06 
-2.2999999999999998e+00 -5.5438262701658081e-01 +7.2762530189506771e+00 +4.4962382857003869e+00 +3.7878415213796714e+01 +3.0807631971354454e+03 -6.4717806955281703e+05 +2.0240726908544993e+06 
-2.3499999999999996e+00 -5.5439856740212179e-01 +7.2771313489459564e+00 +4.4700213325720179e+00 +3.8557032264122945e+01 +3.2705348768505373e+03 -6.5123879022205831e+05 +7.8987483604837384e+05 
-2.3999999999999995e+00 -5.5441481894362632e-01 +7.2780255230820243e+00 +4.4432363127463805e+00 +3.9242245386258190e+01 +3.4653773599701371e+03 -6.5532726391076867e+05 -4.7324802303161711e+05 
-2.4499999999999993e+00 -5.5443137969717682e-01 +7.2789353862889881e+00 +4.4159076777672759e+00 +3.9933891901625891e+01 +3.6648206337587776e+03 -6.5944194208686985e+05 -1.7624679177945645e+06 
-2.4999999999999991e+00 -5.5444824771886725e-01 +7.2798607834975675e+00 +4.3880598799510988e+00 +4.0631809129538738e+01 +3.8683946603323916e+03 -6.6358127623899956e+05 -3.0749566965652704e+06 
-2.5499999999999989e+00 -5.5446542106479468e-01 +7.2808015596371973e+00 +4.3597173703324064e+00 +4.1335834444941135e+01 +4.0756294392840682e+03 -6.6774371827941877e+05 -4.4078864732764820e+06 
-2.5999999999999988e+00 -5.5448289779106052e-01 +7.2817575596374278e+00 +4.3309045989815766e+00 +4.2045805244867687e+01 +4.2860549937704236e+03 -6.7192772035689000e+05 -5.7584295085417582e+06 
-2.6499999999999986e+00 -5.5450067595377650e-01 +7.2827286284263977e+00 +4.3016460163185313e+00 +4.2761558983020045e+01 +4.4992013402683615e+03 -6.7613173504171928e+05 -7.1237580344705433e+06 
-2.6999999999999984e+00 -5.5451875360906955e-01 +7.2837146109325559e+00 +4.2719660738847454e+00 +4.3482933120103496e+01 +4.7145984635440609e+03 -6.8035421498981072e+05 -8.5010440600960646e+06 
-2.7499999999999982e+00 -5.5453712881308381e-01 +7.2847153520856098e+00 +4.2418892250343010e+00 +4.4209765076410378e+01 +4.9317762959013871e+03 -6.8459361252971180e+05 -9.8874592300037108e+06 
-2.7999999999999980e+00 -5.5455579962194668e-01 +7.2857306968114610e+00 +4.2114399185286944e+00 +4.4941892435888406e+01 +5.1502648956837365e+03 -6.8884838132254721e+05 -1.1280176047958121e+07 
-2.8499999999999979e+00 -5.5457476409182416e-01 +7.2867604900392280e+00 +4.1806426084613024e+00 +4.5679152679270011e+01 +5.3695941769327173e+03 -6.9311697426156816e+05 -1.2676366040475205e+07 
-2.8999999999999977e+00 -5.5459402027885263e-01 +7.2878045766935715e+00 +4.1495217426140920e+00 +4.6421383456213931e+01 +5.5892942234758257e+03 -6.9739784552329604e+05 -1.4073201884606505e+07 
-2.9499999999999975e+00 -5.5461356623920999e-01 +7.2888628017020158e+00 +4.1181017743792774e+00 +4.7168422325295381e+01 +5.8088949684934732e+03 -7.0168944861144247e+05 -1.5467855239158522e+07 
-2.9999999999999973e+00 -5.5463340002907546e-01 +7.2899350099872686e+00 +4.0864071564167563e+00 +4.7920107044125949e+01 +6.0279263625909443e+03 -7.0599023864045145e+05 -1.6857497873680152e+07 
-3.0499999999999972e+00 -5.5465351970461052e-01 +7.2910210464764420e+00 +4.0544623372479247e+00 +4.8676275208624318e+01 +6.2459184656872585e+03 -7.1029866943273332e+05 -1.8239302289705768e+07 
-3.0999999999999970e+00 -5.5467392332202503e-01 +7.2921207560929400e+00 +4.0222917718161826e+00 +4.9436764571309816e+01 +6.4624011711398052e+03 -7.1461319607836439e+05 -1.9610439887571916e+07 
-3.1499999999999968e+00 -5.5469460893749833e-01 +7.2932339837567151e+00 +3.9899199096117135e+00 +5.0201413033164918e+01 +6.6769045119430966e+03 -7.1893227489297371e+05 -2.0968082986615282e+07 
-3.1999999999999966e+00 -5.5471557460722976e-01 +7.2943605743930755e+00 +3.9573712018833977e+00 +5.0970058291055523e+01 +6.8889584752748824e+03 -7.2325436055212398e+05 -2.2309403599970262e+07 
-3.2499999999999964e+00 -5.5473681838742417e-01 +7.2955003729212802e+00 +3.9246701000617823e+00 +5.1742538283419563e+01 +7.0980930427663625e+03 -7.2757790964378242e+05 -2.3631573704868399e+07 
-3.2999999999999963e+00 -5.5475833833431099e-01 +7.2966532242613225e+00 +3.8918410586420902e+00 +5.2518690950428031e+01 +7.3038381153332348e+03 -7.3190137889082474e+05 -2.4931764741430834e+07 
-3.3499999999999961e+00 -5.5478013250410341e-01 +7.2978189733312702e+00 +3.8589085285333478e+00 +5.3298354296111157e+01 +7.5057236856382715e+03 -7.3622322544545343e+05 -2.6207148749188311e+07 
-3.3999999999999959e+00 -5.5480219895301530e-01 +7.2989974650503315e+00 +3.8258969591454361e+00 +5.4081366291077948e+01 +7.7032797937835767e+03 -7.4054190622308059e+05 -2.7454898117652822e+07 
-3.4499999999999957e+00 -5.5482453573727919e-01 +7.3001885443346817e+00 +3.7928308032860807e+00 +5.4867565046246575e+01 +7.8960363777268694e+03 -7.4485587932833249e+05 -2.8672184507878710e+07 
-3.4999999999999956e+00 -5.5484714091313891e-01 +7.3013920560992194e+00 +3.7597345141938177e+00 +5.5656788721090955e+01 +8.0835233699990276e+03 -7.4916360323366022e+05 -2.9856179568176083e+07 
-3.5499999999999954e+00 -5.5487001253683743e-01 +7.3026078452580041e+00 +3.7266325441172632e+00 +5.6448875518493146e+01 +8.2652707298551577e+03 -7.5346353677815746e+05 -3.1004055128199879e+07 
-3.5999999999999952e+00 -5.5489314866460926e-01 +7.3038357567240002e+00 +3.6935493432979603e+00 +5.7243663691791156e+01 +8.4408084649440425e+03 -7.5775413923494762e+05 -3.2112983323373314e+07 
-3.6499999999999950e+00 -5.5491654735272122e-01 +7.3050756354094686e+00 +3.6605093667751798e+00 +5.8040991523671160e+01 +8.6096664567968728e+03 -7.6203387009411876e+05 -3.3180135451771453e+07 
-3.6999999999999948e+00 -5.5494020665741728e-01 +7.3063273262232027e+00 +3.6275370647217251e+00 +5.8840697451254464e+01 +8.7713747187155150e+03 -7.6630119015733118e+05 -3.4202683704833910e+07 
-3.7499999999999947e+00 -5.5496412463494671e-01 +7.3075906740746559e+00 +3.5946568876337572e+00 +5.9642619885450884e+01 +8.9254632522111206e+03 -7.7055455998978473e+05 -3.5177800182545938e+07 
-3.7999999999999945e+00 -5.5498829934159244e-01 +7.3088655238695557e+00 +3.5618932916826909e+00 +6.0446597391677706e+01 +9.0714619029593505e+03 -7.7479244143845153e+05 -3.6102655923068732e+07 
-3.8499999999999943e+00 -5.5501272883361674e-01 +7.3101517205157984e+00 +3.5292707278031923e+00 +6.1252468450508339e+01 +9.2089006660325722e+03 -7.7901329565342166e+05 -3.6974423006131493e+07 
-3.8999999999999941e+00 -5.5503741116728678e-01 +7.3114491089146316e+00 +3.4968136485678891e+00 +6.2060071824263673e+01 +9.3373094803628410e+03 -7.8321558612222224e+05 -3.7790273089479193e+07 
-3.9499999999999940e+00 -5.5506234439888269e-01 +7.3127575339705801e+00 +3.4645465070327681e+00 +6.2869246130892904e+01 +9.4562182813611489e+03 -7.8739777511920582e+05 -3.8547377840449937e+07 
-3.9999999999999938e+00 -5.5508752658467242e-01 +7.3140768405810057e+00 +3.4324937547789389e+00 +6.3679830307426549e+01 +9.5651570348828591e+03 -7.9155832757900341e+05 -3.9242909098486759e+07 
-4.0499999999999936e+00 -5.5511295566849972e-01 +7.3154068759364828e+00 +3.4006752826142805e+00 +6.4491572745822168e+01 +9.6637710657635525e+03 -7.9569527880458976e+05 -3.9874749373724528e+07 
-4.0999999999999934e+00 -5.5513862914395073e-01 +7.3167474939046953e+00 +3.3690925324404892e+00 +6.5303801253032589e+01 +9.7521751552861169e+03 -7.9980473214391817e+05 -4.0443667546537563e+07 
-4.1499999999999932e+00 -5.5516454439196572e-01 +7.3180985494122979e+00 +3.3377422958289458e+00 +6.6115723207335336e+01 +9.8306035521929061e+03 -8.0388225598918891e+05 -4.0951165239002392e+07 
-4.1999999999999931e+00 -5.5519069879344529e-01 +7.3194598973850962e+00 +3.3066213585620412e+00 +6.6926545996097815e+01 +9.8992906498461853e+03 -8.0792341880741541e+05 -4.1398745000251360e+07 
-4.2499999999999929e+00 -5.5521708972932449e-01 +7.3208313927555784e+00 +3.2757265103958200e+00 +6.7735476743896115e+01 +9.9584707525787908e+03 -8.1192378698250395e+05 -4.1787908846102446e+07 
-4.2999999999999927e+00 -5.5524371458050059e-01 +7.3222128904497401e+00 +3.2450545360629031e+00 +6.8541722803866634e+01 +1.0008378285059960e+04 -8.1587892865404976e+05 -4.2120159549501851e+07 
-4.3499999999999925e+00 -5.5527057072792674e-01 +7.3236042453967860e+00 +3.2146022281937601e+00 +6.9344491401735382e+01 +1.0049247474772537e+04 -8.1978441097550327e+05 -4.2396998609873451e+07 
-4.3999999999999924e+00 -5.5529765555251831e-01 +7.3250053125223520e+00 +3.1843663741456174e+00 +7.0142989887599541e+01 +1.0081312680719877e+04 -8.2363580206538574e+05 -4.2619928375584789e+07 
-4.4499999999999922e+00 -5.5532496643520113e-01 +7.3264159467551506e+00 +3.1543437618299097e+00 +7.0936425471200451e+01 +1.0104808258033265e+04 -8.2742866887203965e+05 -4.2790451211337708e+07 
-4.4999999999999920e+00 -5.5535250075690623e-01 +7.3278360030226253e+00 +3.1245311803414690e+00 +7.1724005403697589e+01 +1.0119968528084933e+04 -8.3115857868150098e+05 -4.2910069244553752e+07 
-4.5499999999999918e+00 -5.5538025589856788e-01 +7.3292653362506126e+00 +3.0949254195556501e+00 +7.2504936983777213e+01 +1.0127027791722830e+04 -8.3482109914722946e+05 -4.2980284469439700e+07 
-4.5999999999999917e+00 -5.5540822924111688e-01 +7.3307038013680570e+00 +3.0655232681995974e+00 +7.3278427362744750e+01 +1.0126220384793824e+04 -8.3841179667601991e+05 -4.3002599126524694e+07 
-4.6499999999999915e+00 -5.5543641816548406e-01 +7.3321512533016575e+00 +3.0363215157599939e+00 +7.4043683768704852e+01 +1.0117780622416145e+04 -8.4192623829051654e+05 -4.2978515322243251e+07 
-4.6999999999999913e+00 -5.5546482005260811e-01 +7.3336075469768405e+00 +3.0073169524461192e+00 +7.4799913464148318e+01 +1.0101942803505124e+04 -8.4535999127704615e+05 -4.2909535060222596e+07 
-4.7499999999999911e+00 -5.5549343228342052e-01 +7.3350725373208618e+00 +2.9785063677079009e+00 +7.5546323607671638e+01 +1.0078941250496760e+04 -8.4870862200962892e+05 -4.2797160518484138e+07 
-4.7999999999999909e+00 -5.5552225223885765e-01 +7.3365460792620114e+00 +2.9498865519089037e+00 +7.6282121317327636e+01 +1.0049010260094115e+04 -8.5196769658873393e+05 -4.2642893693952203e+07 
-4.8499999999999908e+00 -5.5555127729985243e-01 +7.3380280277248504e+00 +2.9214542949516433e+00 +7.7006513821518439e+01 +1.0012384146589762e+04 -8.5513278191449435e+05 -4.2448236723893993e+07 
-4.8999999999999906e+00 -5.5558050484734067e-01 +7.3395182376357955e+00 +2.8932063873966976e+00 +7.7718708267754408e+01 +9.9692972076324022e+03 -8.5819944425965031e+05 -4.2214691634655237e+07 
-4.9499999999999904e+00 -5.5560993226225264e-01 +7.3410165639210234e+00 +2.8651396193874943e+00 +7.8417911775473328e+01 +9.9199837530447257e+03 -8.6116324957855651e+05 -4.1943760542669490e+07 
-4.9999999999999902e+00 -5.5563955692552547e-01 +7.3425228615068043e+00 +2.8372507821622364e+00 +7.9103331444904086e+01 +9.8646780670001590e+03 -8.6401976367554080e+05 -4.1636945399066798e+07 
-5.0499999999999901e+00 -5.5566937621809820e-01 +7.3440369853194332e+00 +2.8095366681047054e+00 +7.9774174359114099e+01 +9.8036144045698566e+03 -8.6676455220984085e+05 -4.1295747972447515e+07 
