# field on trajectory
# s[mm] rx[mm] ry[mm] rz[mm] bx[T] by[T] bz[T]
-0.0000000000000000e+00 +8.5270000000000206e+00 +0.0000000000000000e+00 -0.0000000000000000e+00 -2.8713746779644278e-02 -5.4950140840931649e-01 +5.4286330136563699e-03
-5.0000000000000003e-02 +8.5269999309457507e+00 +0.0000000000000000e+00 -4.9999999999936401e-02 -2.8713774270913765e-02 -5.4950164451045980e-01 +5.4295825833686169e-03
-1.0000000000000001e-01 +8.5269997237846802e+00 +0.0000000000000000e+00 -9.9999999999491399e-02 -2.8713827308100192e-02 -5.4950229224082503e-01 +5.4305327342742829e-03
-1.4999999999999999e-01 +8.5269993785186706e+00 +0.0000000000000000e+00 -1.4999999999828301e-01 -2.8713905856006951e-02 -5.4950335072497281e-01 +5.4314834286921729e-03
-2.0000000000000001e-01 +8.5269988951477007e+00 +0.0000000000000000e+00 -1.9999999999593099e-01 -2.8714009879439444e-02 -5.4950481908749638e-01 +5.4324346289411907e-03
-2.5000000000000000e-01 +8.5269982736681396e+00 +0.0000000000000000e+00 -2.4999999999205300e-01 -2.8714139343205779e-02 -5.4950669645303174e-01 +5.4333862973404362e-03
-2.9999999999999999e-01 +8.5269975140799907e+00 +0.0000000000000000e+00 -2.9999999998626697e-01 -2.8714294212113804e-02 -5.4950898194620779e-01 +5.4343383962087077e-03
-3.4999999999999998e-01 +8.5269966163905302e+00 +0.0000000000000000e+00 -3.4999999997819298e-01 -2.8714474450969633e-02 -5.4951167469161855e-01 +5.4352908878642255e-03
-4.0000000000000002e-01 +8.5269955805888493e+00 +0.0000000000000000e+00 -3.9999999996744801e-01 -2.8714680024587724e-02 -5.4951477381400682e-01 +5.4362437346264711e-03
-4.5000000000000001e-01 +8.5269944066858407e+00 +0.0000000000000000e+00 -4.4999999995365197e-01 -2.8714910897774830e-02 -5.4951827843797585e-01 +5.4371968988132860e-03
-5.0000000000000000e-01 +8.5269930946742498e+00 +0.0000000000000000e+00 -4.9999999993642202e-01 -2.8715167035345955e-02 -5.4952218768827721e-01 +5.4381503427437866e-03
-5.5000000000000004e-01 +8.5269916445577092e+00 +0.0000000000000000e+00 -5.4999999991537796e-01 -2.8715448402112646e-02 -5.4952650068960229e-01 +5.4391040287362306e-03
-5.9999999999999998e-01 +8.5269900563289394e+00 +0.0000000000000000e+00 -5.9999999989013697e-01 -2.8715754962891710e-02 -5.4953121656673809e-01 +5.4400579191096268e-03
-6.5000000000000002e-01 +8.5269883299988596e+00 +0.0000000000000000e+00 -6.4999999986031898e-01 -2.8716086682493432e-02 -5.4953633444435801e-01 +5.4410119761815774e-03
-6.9999999999999996e-01 +8.5269864655601904e+00 +0.0000000000000000e+00 -6.9999999982554195e-01 -2.8716443525736136e-02 -5.4954185344728390e-01 +5.4419661622709678e-03
-7.5000000000000000e-01 +8.5269844630165608e+00 +0.0000000000000000e+00 -7.4999999978542398e-01 -2.8716825457434498e-02 -5.4954777270027644e-01 +5.4429204396958236e-03
-8.0000000000000004e-01 +8.5269823223679904e+00 +0.0000000000000000e+00 -7.9999999973958402e-01 -2.8717232442405212e-02 -5.4955409132813926e-01 +5.4438747707743632e-03
-8.4999999999999998e-01 +8.5269800436108198e+00 +0.0000000000000000e+00 -8.4999999968764095e-01 -2.8717664445467070e-02 -5.4956080845572031e-01 +5.4448291178250188e-03
-9.0000000000000002e-01 +8.5269776267450705e+00 +0.0000000000000000e+00 -8.9999999962921295e-01 -2.8718121431437881e-02 -5.4956792320785719e-01 +5.4457834431658877e-03
-9.4999999999999996e-01 +8.5269750717743609e+00 +0.0000000000000000e+00 -9.4999999956391801e-01 -2.8718603365134474e-02 -5.4957543470937864e-01 +5.4467377091147280e-03
-1.0000000000000000e+00 +8.5269723786986997e+00 +0.0000000000000000e+00 -9.9999999949137597e-01 -2.8719110211375527e-02 -5.4958334208515758e-01 +5.4476918779895016e-03
-1.0500000000000000e+00 +8.5269695475144491e+00 +0.0000000000000000e+00 -1.0499999994111999e+00 -2.8719641934981513e-02 -5.4959164446010833e-01 +5.4486459121083656e-03
-1.1000000000000001e+00 +8.5269665782288904e+00 +0.0000000000000000e+00 -1.0999999993230201e+00 -2.8720198500768859e-02 -5.4960034095908483e-01 +5.4495997737886081e-03
-1.1499999999999999e+00 +8.5269634708311095e+00 +0.0000000000000000e+00 -1.1499999992264500e+00 -2.8720779873561447e-02 -5.4960943070708734e-01 +5.4505534253487791e-03
-1.2000000000000000e+00 +8.5269602253283701e+00 +0.0000000000000000e+00 -1.1999999991210999e+00 -2.8721386018176105e-02 -5.4961891282900333e-01 +5.4515068291060174e-03
-1.2500000000000000e+00 +8.5269568417206791e+00 +0.0000000000000000e+00 -1.2499999990065900e+00 -2.8722016899432663e-02 -5.4962878644978774e-01 +5.4524599473779285e-03
-1.3000000000000000e+00 +8.5269533200044005e+00 +0.0000000000000000e+00 -1.2999999988825499e+00 -2.8722672482152451e-02 -5.4963905069443886e-01 +5.4534127424823026e-03
-1.3500000000000001e+00 +8.5269496601795307e+00 +0.0000000000000000e+00 -1.3499999987485900e+00 -2.8723352731155394e-02 -5.4964970468794583e-01 +5.4543651767365907e-03
-1.3999999999999999e+00 +8.5269458622533403e+00 +0.0000000000000000e+00 -1.3999999986043401e+00 -2.8724057611258395e-02 -5.4966074755526040e-01 +5.4553172124576213e-03
-1.4500000000000000e+00 +8.5269419262185693e+00 +0.0000000000000000e+00 -1.4499999984494001e+00 -2.8724787087284095e-02 -5.4967217842145599e-01 +5.4562688119632217e-03
-1.5000000000000000e+00 +8.5269378520752106e+00 +0.0000000000000000e+00 -1.4999999982833900e+00 -2.8725541124052050e-02 -5.4968399641157029e-01 +5.4572199375706046e-03
-1.5500000000000000e+00 +8.5269336398268898e+00 +0.0000000000000000e+00 -1.5499999981059500e+00 -2.8726319686380140e-02 -5.4969620065062996e-01 +5.4581705515966260e-03
-1.6000000000000001e+00 +8.5269292894736299e+00 +0.0000000000000000e+00 -1.5999999979166799e+00 -2.8727122739087403e-02 -5.4970879026370467e-01 +5.4591206163583260e-03
-1.6499999999999999e+00 +8.5269248010117700e+00 +0.0000000000000000e+00 -1.6499999977152000e+00 -2.8727950246994014e-02 -5.4972176437590625e-01 +5.4600700941729368e-03
-1.7000000000000000e+00 +8.5269201744449692e+00 +0.0000000000000000e+00 -1.6999999975011300e+00 -2.8728802174916791e-02 -5.4973512211230913e-01 +5.4610189473570537e-03
-1.7500000000000000e+00 +8.5269154097695701e+00 +0.0000000000000000e+00 -1.7499999972740901e+00 -2.8729678487675079e-02 -5.4974886259805689e-01 +5.4619671382277399e-03
-1.8000000000000000e+00 +8.5269105069892195e+00 +0.0000000000000000e+00 -1.7999999970336999e+00 -2.8730579150084732e-02 -5.4976298495825593e-01 +5.4629146291014117e-03
-1.8500000000000001e+00 +8.5269054661039299e+00 +0.0000000000000000e+00 -1.8499999967795799e+00 -2.8731504126962532e-02 -5.4977748831805517e-01 +5.4638613822946798e-03
-1.8999999999999999e+00 +8.5269002871100401e+00 +0.0000000000000000e+00 -1.8999999965113501e+00 -2.8732453383126084e-02 -5.4979237180264451e-01 +5.4648073601243283e-03
-1.9500000000000000e+00 +8.5268949700112007e+00 +0.0000000000000000e+00 -1.9499999962286201e+00 -2.8733426883389392e-02 -5.4980763453717729e-01 +5.4657525249065062e-03
-2.0000000000000000e+00 +8.5268895148037700e+00 +0.0000000000000000e+00 -1.9999999959310100e+00 -2.8734424592568624e-02 -5.4982327564687494e-01 +5.4666968389578121e-03
-2.0499999999999998e+00 +8.5268839213858900e+00 +0.0000000000000000e+00 -2.0499999956181298e+00 -2.8735446444874496e-02 -5.4983929404171339e-01 +5.4676402595983109e-03
-2.1000000000000001e+00 +8.5268781896593300e+00 +0.0000000000000000e+00 -2.0999999952895898e+00 -2.8736492251939798e-02 -5.4985568776778626e-01 +5.4685827241324749e-03
-2.1499999999999999e+00 +8.5268723196240899e+00 +0.0000000000000000e+00 -2.1499999949449999e+00 -2.8737561794714438e-02 -5.4987245465452517e-01 +5.4695241648533652e-03
-2.2000000000000002e+00 +8.5268663112729008e+00 +0.0000000000000000e+00 -2.1999999945839801e+00 -2.8738654854152154e-02 -5.4988959253142644e-01 +5.4704645140543073e-03
-2.2500000000000000e+00 +8.5268601646093902e+00 +0.0000000000000000e+00 -2.2499999942061502e+00 -2.8739771211203215e-02 -5.4990709922792225e-01 +5.4714037040275304e-03
-2.2999999999999998e+00 +8.5268538796335598e+00 +0.0000000000000000e+00 -2.2999999938111202e+00 -2.8740910646820290e-02 -5.4992497257348194e-01 +5.4723416670652263e-03
-2.3500000000000001e+00 +8.5268474563490599e+00 +0.0000000000000000e+00 -2.3499999933985198e+00 -2.8742072941955583e-02 -5.4994321039756211e-01 +5.4732783354590085e-03
-2.3999999999999999e+00 +8.5268408947522403e+00 +0.0000000000000000e+00 -2.3999999929679601e+00 -2.8743257877565310e-02 -5.4996181052968396e-01 +5.4742136415007123e-03
-2.4500000000000002e+00 +8.5268341948467405e+00 +0.0000000000000000e+00 -2.4499999925190501e+00 -2.8744465234603819e-02 -5.4998077079932761e-01 +5.4751475174812918e-03
-2.5000000000000000e+00 +8.5268273566252901e+00 +0.0000000000000000e+00 -2.4999999920514302e+00 -2.8745694794030989e-02 -5.5000008903606468e-01 +5.4760798956921758e-03
-2.5499999999999998e+00 +8.5268203800987994e+00 +0.0000000000000000e+00 -2.5499999915646900e+00 -2.8746946336800593e-02 -5.5001976306934686e-01 +5.4770107084230754e-03
-2.6000000000000001e+00 +8.5268132652563509e+00 +0.0000000000000000e+00 -2.5999999910584699e+00 -2.8748219643876364e-02 -5.5003979072879461e-01 +5.4779398879649666e-03
-2.6499999999999999e+00 +8.5268060121015896e+00 +0.0000000000000000e+00 -2.6499999905323701e+00 -2.8749514496217519e-02 -5.5006016984393513e-01 +5.4788673666073652e-03
-2.7000000000000002e+00 +8.5267986206345103e+00 +0.0000000000000000e+00 -2.6999999899860101e+00 -2.8750830674785986e-02 -5.5008089824433259e-01 +5.4797930766396557e-03
-2.7500000000000000e+00 +8.5267910908551094e+00 +0.0000000000000000e+00 -2.7499999894190199e+00 -2.8752167960545114e-02 -5.5010197375956260e-01 +5.4807169503508328e-03
-2.7999999999999998e+00 +8.5267834227670392e+00 +0.0000000000000000e+00 -2.7999999888310101e+00 -2.8753526134458144e-02 -5.5012339421918388e-01 +5.4816389200291983e-03
-2.8500000000000001e+00 +8.5267756163666508e+00 +0.0000000000000000e+00 -2.8499999882215898e+00 -2.8754904977492748e-02 -5.5014515745282000e-01 +5.4825589179631823e-03
-2.8999999999999999e+00 +8.5267676716539391e+00 +0.0000000000000000e+00 -2.8999999875903901e+00 -2.8756304270616609e-02 -5.5016726129007776e-01 +5.4834768764405106e-03
-2.9500000000000002e+00 +8.5267595886289200e+00 +0.0000000000000000e+00 -2.9499999869370299e+00 -2.8757723794798941e-02 -5.5018970356057384e-01 +5.4843927277484520e-03
-3.0000000000000000e+00 +8.5267513672915793e+00 +0.0000000000000000e+00 -2.9999999862611100e+00 -2.8759163331010553e-02 -5.5021248209393492e-01 +5.4853064041738286e-03
-3.0499999999999998e+00 +8.5267430076455604e+00 +0.0000000000000000e+00 -3.0499999855622502e+00 -2.8760622660222463e-02 -5.5023559471977201e-01 +5.4862178380027131e-03
-3.1000000000000001e+00 +8.5267345096872305e+00 +0.0000000000000000e+00 -3.0999999848400801e+00 -2.8762101563410220e-02 -5.5025903926775699e-01 +5.4871269615212482e-03
-3.1499999999999999e+00 +8.5267258734165807e+00 +0.0000000000000000e+00 -3.1499999840942201e+00 -2.8763599821549697e-02 -5.5028281356754583e-01 +5.4880337070148154e-03
-3.2000000000000002e+00 +8.5267170988336094e+00 +0.0000000000000000e+00 -3.1999999833242700e+00 -2.8765117215618502e-02 -5.5030691544880306e-01 +5.4889380067682948e-03
-3.2500000000000000e+00 +8.5267081859419704e+00 +0.0000000000000000e+00 -3.2499999825298600e+00 -2.8766653526594594e-02 -5.5033134274117590e-01 +5.4898397930657717e-03
-3.2999999999999998e+00 +8.5266991347380099e+00 +0.0000000000000000e+00 -3.2999999817106000e+00 -2.8768208535460742e-02 -5.5035609327437374e-01 +5.4907389981913631e-03
-3.3500000000000001e+00 +8.5266899452181004e+00 +0.0000000000000000e+00 -3.3499999808661101e+00 -2.8769782023201580e-02 -5.5038116487811328e-01 +5.4916355544286479e-03
-3.3999999999999999e+00 +8.5266806173895002e+00 +0.0000000000000000e+00 -3.3999999799960099e+00 -2.8771373770799330e-02 -5.5040655538204242e-01 +5.4925293940598346e-03
-3.4500000000000002e+00 +8.5266711512522306e+00 +0.0000000000000000e+00 -3.4499999790999101e+00 -2.8772983559241128e-02 -5.5043226261586808e-01 +5.4934204493671248e-03
-3.5000000000000000e+00 +8.5266615468026394e+00 +0.0000000000000000e+00 -3.4999999781774398e+00 -2.8774611169517596e-02 -5.5045828440933253e-01 +5.4943086526324167e-03
-3.5499999999999998e+00 +8.5266518040407409e+00 +0.0000000000000000e+00 -3.5499999772282100e+00 -2.8776256382619988e-02 -5.5048461859215914e-01 +5.4951939361367677e-03
-3.6000000000000001e+00 +8.5266419229665207e+00 +0.0000000000000000e+00 -3.5999999762518402e+00 -2.8777918979541708e-02 -5.5051126299407938e-01 +5.4960762321606326e-03
-3.6499999999999999e+00 +8.5266319035799807e+00 +0.0000000000000000e+00 -3.6499999752479400e+00 -2.8779598741278268e-02 -5.5053821544483184e-01 +5.4969554729838695e-03
-3.6999999999999900e+00 +8.5266217458847695e+00 +0.0000000000000000e+00 -3.6999999742161398e+00 -2.8781295448825996e-02 -5.5056547377413612e-01 +5.4978315908854394e-03
-3.7499999999999898e+00 +8.5266114498736005e+00 +0.0000000000000000e+00 -3.7499999731560498e+00 -2.8783008883187869e-02 -5.5059303581179764e-01 +5.4987045181445196e-03
-3.7999999999999901e+00 +8.5266010155537497e+00 +0.0000000000000000e+00 -3.7999999720672801e+00 -2.8784738825363285e-02 -5.5062089938752312e-01 +5.4995741870385298e-03
-3.8499999999999899e+00 +8.5265904429179500e+00 +0.0000000000000000e+00 -3.8499999709494599e+00 -2.8786485056359883e-02 -5.5064906233113287e-01 +5.5004405298453574e-03
-3.8999999999999901e+00 +8.5265797319771099e+00 +0.0000000000000000e+00 -3.8999999698022001e+00 -2.8788247357180347e-02 -5.5067752247231960e-01 +5.5013034788408402e-03
-3.9499999999999900e+00 +8.5265688827203103e+00 +0.0000000000000000e+00 -3.9499999686251202e+00 -2.8790025508838628e-02 -5.5070627764094238e-01 +5.5021629663018256e-03
-3.9999999999999898e+00 +8.5265578951548395e+00 +0.0000000000000000e+00 -3.9999999674178399e+00 -2.8791819292343816e-02 -5.5073532566673311e-01 +5.5030189245030654e-03
-4.0499999999999901e+00 +8.5265467692734092e+00 +0.0000000000000000e+00 -4.0499999661799704e+00 -2.8793628497580978e-02 -5.5076466425833337e-01 +5.5038712941097153e-03
-4.0999999999999899e+00 +8.5265355050833005e+00 +0.0000000000000000e+00 -4.0999999649111301e+00 -2.8795452949901792e-02 -5.5079429063946972e-01 +5.5047200493451706e-03
-4.1499999999999897e+00 +8.5265241025808791e+00 +0.0000000000000000e+00 -4.1499999636109504e+00 -2.8797292483530891e-02 -5.5082420191274628e-01 +5.5055651728233672e-03
-4.1999999999999904e+00 +8.5265125617697795e+00 +0.0000000000000000e+00 -4.1999999622790298e+00 -2.8799146932690870e-02 -5.5085439518071555e-01 +5.5064066471574467e-03
-4.2499999999999902e+00 +8.5265008826427202e+00 +0.0000000000000000e+00 -4.2499999609149901e+00 -2.8801016131609503e-02 -5.5088486754600929e-01 +5.5072444549611474e-03
-4.2999999999999901e+00 +8.5264890652069898e+00 +0.0000000000000000e+00 -4.2999999595184599e+00 -2.8802899914509569e-02 -5.5091561611115458e-01 +5.5080785788468416e-03
-4.3499999999999899e+00 +8.5264771094589396e+00 +0.0000000000000000e+00 -4.3499999580890396e+00 -2.8804798115619010e-02 -5.5094663797875676e-01 +5.5089090014275154e-03
-4.3999999999999897e+00 +8.5264650153985695e+00 +0.0000000000000000e+00 -4.3999999566263703e+00 -2.8806710569165127e-02 -5.5097793025139485e-01 +5.5097357053156349e-03
-4.4499999999999904e+00 +8.5264527830295300e+00 +0.0000000000000000e+00 -4.4499999551300400e+00 -2.8808637109374535e-02 -5.5100949003162036e-01 +5.5105586731231592e-03
-4.4999999999999902e+00 +8.5264404123481707e+00 +0.0000000000000000e+00 -4.4999999535996897e+00 -2.8810577570477600e-02 -5.5104131442203730e-01 +5.5113778874623827e-03
-4.5499999999999901e+00 +8.5264279033544899e+00 +0.0000000000000000e+00 -4.5499999520349199e+00 -2.8812531786703961e-02 -5.5107340052522147e-01 +5.5121933309450928e-03
-4.5999999999999899e+00 +8.5264152560448601e+00 +0.0000000000000000e+00 -4.5999999504353601e+00 -2.8814499592285506e-02 -5.5110574544377289e-01 +5.5130049861831405e-03
-4.6499999999999897e+00 +8.5264024704301793e+00 +0.0000000000000000e+00 -4.6499999488006196e+00 -2.8816480821448994e-02 -5.5113834628018454e-01 +5.5138128357870306e-03
-4.6999999999999904e+00 +8.5263895464995603e+00 +0.0000000000000000e+00 -4.6999999471303298e+00 -2.8818475308430777e-02 -5.5117120013710519e-01 +5.5146168623687406e-03
-4.7499999999999902e+00 +8.5263764842602505e+00 +0.0000000000000000e+00 -4.7499999454240900e+00 -2.8820482887460561e-02 -5.5120430411704846e-01 +5.5154170485386305e-03
-4.7999999999999901e+00 +8.5263632837050007e+00 +0.0000000000000000e+00 -4.7999999436815299e+00 -2.8822503392774704e-02 -5.5123765532263214e-01 +5.5162133769079812e-03
-4.8499999999999899e+00 +8.5263499448447000e+00 +0.0000000000000000e+00 -4.8499999419022597e+00 -2.8824536658602896e-02 -5.5127125085633677e-01 +5.5170058300864572e-03
-4.8999999999999897e+00 +8.5263364676684397e+00 +0.0000000000000000e+00 -4.8999999400859000e+00 -2.8826582519184393e-02 -5.5130508782079879e-01 +5.5177943906852042e-03
-4.9499999999999904e+00 +8.5263228521798702e+00 +0.0000000000000000e+00 -4.9499999382320699e+00 -2.8828640808753248e-02 -5.5133916331854471e-01 +5.5185790413140451e-03
-4.9999999999999902e+00 +8.5263090983826295e+00 +0.0000000000000000e+00 -4.9999999363403900e+00 -2.8830711361544251e-02 -5.5137347445209672e-01 +5.5193597645826114e-03
-5.0499999999999901e+00 +8.5262952059529198e+00 +0.0000000000000000e+00 -5.0499999344103799e+00 -2.8832794011925542e-02 -5.5140801832635633e-01 +5.5201365431257372e-03
-5.0999999999999899e+00 +8.5262811745706095e+00 +0.0000000000000000e+00 -5.0999999324415599e+00 -2.8834888594264665e-02 -5.5144279204619595e-01 +5.5209093595778381e-03
-5.1499999999999897e+00 +8.5262670042357094e+00 +0.0000000000000000e+00 -5.1499999304335597e+00 -2.8836994942800072e-02 -5.5147779271415220e-01 +5.5216781965483058e-03
-5.1999999999999904e+00 +8.5262526949518396e+00 +0.0000000000000000e+00 -5.1999999283859903e+00 -2.8839112891769419e-02 -5.5151301743273073e-01 +5.5224430366460717e-03
-5.2499999999999902e+00 +8.5262382467153692e+00 +0.0000000000000000e+00 -5.2499999262984600e+00 -2.8841242275413993e-02 -5.5154846330448370e-01 +5.5232038624804516e-03
-5.2999999999999901e+00 +8.5262236595299292e+00 +0.0000000000000000e+00 -5.2999999241705797e+00 -2.8843382927972720e-02 -5.5158412743190377e-01 +5.5239606566600029e-03
-5.3499999999999899e+00 +8.5262089333882596e+00 +0.0000000000000000e+00 -5.3499999220019703e+00 -2.8845534683689666e-02 -5.5162000691755697e-01 +5.5247134017939624e-03
-5.3999999999999897e+00 +8.5261940682976292e+00 +0.0000000000000000e+00 -5.3999999197922497e+00 -2.8847697376803559e-02 -5.5165609886389677e-01 +5.5254620804902630e-03
-5.4499999999999904e+00 +8.5261790642507496e+00 +0.0000000000000000e+00 -5.4499999175410201e+00 -2.8849870841559676e-02 -5.5169240037347445e-01 +5.5262066753577910e-03
-5.4999999999999902e+00 +8.5261639212585596e+00 +0.0000000000000000e+00 -5.4999999152479004e+00 -2.8852054912196532e-02 -5.5172890854870227e-01 +5.5269471690038543e-03
-5.5499999999999901e+00 +8.5261486393137602e+00 +0.0000000000000000e+00 -5.5499999129125097e+00 -2.8854249422960620e-02 -5.5176562049211653e-01 +5.5276835440370058e-03
-5.5999999999999899e+00 +8.5261332184127205e+00 +0.0000000000000000e+00 -5.5999999105344500e+00 -2.8856454208097560e-02 -5.5180253330621964e-01 +5.5284157830653591e-03
-5.6499999999999897e+00 +8.5261176585627307e+00 +0.0000000000000000e+00 -5.6499999081133403e+00 -2.8858669101849088e-02 -5.5183964409342490e-01 +5.5291438686960129e-03
-5.6999999999999904e+00 +8.5261019597637606e+00 +0.0000000000000000e+00 -5.6999999056488004e+00 -2.8860893938460523e-02 -5.5187694995619063e-01 +5.5298677835364796e-03
-5.7499999999999902e+00 +8.5260861220122006e+00 +0.0000000000000000e+00 -5.7499999031404396e+00 -2.8863128552179179e-02 -5.5191444799699185e-01 +5.5305875101943928e-03
-5.7999999999999901e+00 +8.5260701453080401e+00 +0.0000000000000000e+00 -5.7999999005878804e+00 -2.8865372777251510e-02 -5.5195213531826859e-01 +5.5313030312769702e-03
-5.8499999999999899e+00 +8.5260540296512808e+00 +0.0000000000000000e+00 -5.8499998979907204e+00 -2.8867626447924444e-02 -5.5199000902245032e-01 +5.5320143293912617e-03
