# field on trajectory
# s[mm] rx[mm] ry[mm] rz[mm] bx[T] by[T] bz[T]
0.0000000000000000e+00 +8.2850000000000001e+00 +0.0000000000000000e+00 +0.0000000000000000e+00 -3.0146184349432233e-02 -5.7947864947596583e-01 +5.7228545443067302e-03
5.0000000000000003e-02 +8.2849999310123650e+00 +0.0000000000000000e+00 +4.9999999999936540e-02 -3.0145799392385330e-02 -5.7947166348851153e-01 +5.7235992144290711e-03
1.0000000000000001e-01 +8.2849997240505537e+00 +0.0000000000000000e+00 +9.9999999999492342e-02 -3.0145434252978841e-02 -5.7946506690852662e-01 +5.7243492130135305e-03
1.5000000000000002e-01 +8.2849993791161367e+00 +0.0000000000000000e+00 +1.4999999999828667e-01 -3.0145088915956200e-02 -5.7945885992417312e-01 +5.7251044473265109e-03
2.0000000000000001e-01 +8.2849988962105918e+00 +0.0000000000000000e+00 +1.9999999999593882e-01 -3.0144763366061450e-02 -5.7945304272363307e-01 +5.7258648246347266e-03
2.5000000000000000e-01 +8.2849982753353046e+00 +0.0000000000000000e+00 +2.4999999999206809e-01 -3.0144457588039231e-02 -5.7944761549510648e-01 +5.7266302522051803e-03
2.9999999999999999e-01 +8.2849975164915683e+00 +0.0000000000000000e+00 +2.9999999998629379e-01 -3.0144171566634910e-02 -5.7944257842681191e-01 +5.7274006373051467e-03
3.4999999999999998e-01 +8.2849966196805802e+00 +0.0000000000000000e+00 +3.4999999997823522e-01 -3.0143905286594535e-02 -5.7943793170698754e-01 +5.7281758872021575e-03
3.9999999999999997e-01 +8.2849955849034469e+00 +0.0000000000000000e+00 +3.9999999996751173e-01 -3.0143658732664926e-02 -5.7943367552388902e-01 +5.7289559091639681e-03
4.4999999999999996e-01 +8.2849944121611827e+00 +0.0000000000000000e+00 +4.4999999995374262e-01 -3.0143431889593723e-02 -5.7942981006579142e-01 +5.7297406104585445e-03
4.9999999999999994e-01 +8.2849931014547078e+00 +0.0000000000000000e+00 +4.9999999993654726e-01 -3.0143224742129354e-02 -5.7942633552098766e-01 +5.7305298983540472e-03
5.4999999999999993e-01 +8.2849916527848499e+00 +0.0000000000000000e+00 +5.4999999991554493e-01 -3.0143037275021153e-02 -5.7942325207778966e-01 +5.7313236801188015e-03
5.9999999999999998e-01 +8.2849900661523428e+00 +0.0000000000000000e+00 +5.9999999989035502e-01 -3.0142869473019369e-02 -5.7942055992452757e-01 +5.7321218630212853e-03
6.5000000000000002e-01 +8.2849883415578276e+00 +0.0000000000000000e+00 +6.4999999986059687e-01 -3.0142721320875185e-02 -5.7941825924954904e-01 +5.7329243543301021e-03
7.0000000000000007e-01 +8.2849864790018515e+00 +0.0000000000000000e+00 +6.9999999982588990e-01 -3.0142592803340817e-02 -5.7941635024122151e-01 +5.7337310613139623e-03
7.5000000000000011e-01 +8.2849844784848692e+00 +0.0000000000000000e+00 +7.4999999978585330e-01 -3.0142483905169475e-02 -5.7941483308792985e-01 +5.7345418912416769e-03
8.0000000000000016e-01 +8.2849823400072431e+00 +0.0000000000000000e+00 +7.9999999974010660e-01 -3.0142394611115449e-02 -5.7941370797807668e-01 +5.7353567513821063e-03
8.5000000000000020e-01 +8.2849800635692397e+00 +0.0000000000000000e+00 +8.4999999968826900e-01 -3.0142324905934170e-02 -5.7941297510008360e-01 +5.7361755490041707e-03
9.0000000000000024e-01 +8.2849776491710347e+00 +0.0000000000000000e+00 +8.9999999962995991e-01 -3.0142274774382173e-02 -5.7941263464238979e-01 +5.7369981913768129e-03
9.5000000000000029e-01 +8.2849750968127083e+00 +0.0000000000000000e+00 +9.4999999956479875e-01 -3.0142244201217222e-02 -5.7941268679345248e-01 +5.7378245857689861e-03
1.0000000000000002e+00 +8.2849724064942478e+00 +0.0000000000000000e+00 +9.9999999949240470e-01 -3.0142233171198289e-02 -5.7941313174174702e-01 +5.7386546394496227e-03
1.0500000000000003e+00 +8.2849695782155486e+00 +0.0000000000000000e+00 +1.0499999994123972e+00 -3.0142241669085641e-02 -5.7941396967576653e-01 +5.7394882596876317e-03
1.1000000000000003e+00 +8.2849666119764098e+00 +0.0000000000000000e+00 +1.0999999993243956e+00 -3.0142269679640822e-02 -5.7941520078402242e-01 +5.7403253537518552e-03
1.1500000000000004e+00 +8.2849635077765384e+00 +0.0000000000000000e+00 +1.1499999992280192e+00 -3.0142317187626739e-02 -5.7941682525504234e-01 +5.7411658289110669e-03
1.2000000000000004e+00 +8.2849602656155490e+00 +0.0000000000000000e+00 +1.1999999991228874e+00 -3.0142384177807683e-02 -5.7941884327737447e-01 +5.7420095924339510e-03
1.2500000000000004e+00 +8.2849568854929601e+00 +0.0000000000000000e+00 +1.2499999990086192e+00 -3.0142470634949396e-02 -5.7942125503958208e-01 +5.7428565515890663e-03
1.3000000000000005e+00 +8.2849533674081979e+00 +0.0000000000000000e+00 +1.2999999988848341e+00 -3.0142576543819050e-02 -5.7942406073024766e-01 +5.7437066136448445e-03
1.3500000000000005e+00 +8.2849497113605945e+00 +0.0000000000000000e+00 +1.3499999987511513e+00 -3.0142701889185351e-02 -5.7942726053797067e-01 +5.7445596858695510e-03
1.4000000000000006e+00 +8.2849459173493862e+00 +0.0000000000000000e+00 +1.3999999986071903e+00 -3.0142846655818529e-02 -5.7943085465136779e-01 +5.7454156755312874e-03
1.4500000000000006e+00 +8.2849419853737203e+00 +0.0000000000000000e+00 +1.4499999984525700e+00 -3.0143010828490403e-02 -5.7943484325907402e-01 +5.7462744898979434e-03
1.5000000000000007e+00 +8.2849379154326446e+00 +0.0000000000000000e+00 +1.4999999982869099e+00 -3.0143194391974427e-02 -5.7943922654974123e-01 +5.7471360362372119e-03
1.5500000000000007e+00 +8.2849337075251164e+00 +0.0000000000000000e+00 +1.5499999981098291e+00 -3.0143397331045717e-02 -5.7944400471203883e-01 +5.7480002218165283e-03
1.6000000000000008e+00 +8.2849293616499988e+00 +0.0000000000000000e+00 +1.5999999979209469e+00 -3.0143619630481105e-02 -5.7944917793465367e-01 +5.7488669539030798e-03
1.6500000000000008e+00 +8.2849248778060591e+00 +0.0000000000000000e+00 +1.6499999977198825e+00 -3.0143861275059101e-02 -5.7945474640628991e-01 +5.7497361397637753e-03
1.7000000000000008e+00 +8.2849202559919704e+00 +0.0000000000000000e+00 +1.6999999975062550e+00 -3.0144122249560090e-02 -5.7946071031566859e-01 +5.7506076866652243e-03
1.7500000000000009e+00 +8.2849154962063150e+00 +0.0000000000000000e+00 +1.7499999972796836e+00 -3.0144402538766216e-02 -5.7946706985152807e-01 +5.7514815018737172e-03
1.8000000000000009e+00 +8.2849105984475777e+00 +0.0000000000000000e+00 +1.7999999970397873e+00 -3.0144702127461509e-02 -5.7947382520262392e-01 +5.7523574926552053e-03
1.8500000000000010e+00 +8.2849055627141492e+00 +0.0000000000000000e+00 +1.8499999967861853e+00 -3.0145021000431867e-02 -5.7948097655772912e-01 +5.7532355662752790e-03
1.9000000000000010e+00 +8.2849003890043278e+00 +0.0000000000000000e+00 +1.8999999965184968e+00 -3.0145359142465175e-02 -5.7948852410563312e-01 +5.7541156299991550e-03
1.9500000000000011e+00 +8.2848950773163157e+00 +0.0000000000000000e+00 +1.9499999962363406e+00 -3.0145716538351269e-02 -5.7949646803514221e-01 +5.7549975910916379e-03
2.0000000000000009e+00 +8.2848896276482229e+00 +0.0000000000000000e+00 +1.9999999959393360e+00 -3.0146093172881989e-02 -5.7950480853508013e-01 +5.7558813568171227e-03
2.0500000000000007e+00 +8.2848840399980634e+00 +0.0000000000000000e+00 +2.0499999956271018e+00 -3.0146489027554603e-02 -5.7951354544578748e-01 +5.7567668430373482e-03
2.1000000000000005e+00 +8.2848783143637554e+00 +0.0000000000000000e+00 +2.0999999952992572e+00 -3.0146904070681144e-02 -5.7952267721362061e-01 +5.7576540000049232e-03
2.1500000000000004e+00 +8.2848724507431264e+00 +0.0000000000000000e+00 +2.1499999949554209e+00 -3.0147338267277470e-02 -5.7953220193644994e-01 +5.7585427865702562e-03
2.2000000000000002e+00 +8.2848664491339061e+00 +0.0000000000000000e+00 +2.1999999945952120e+00 -3.0147791582359775e-02 -5.7954211771216069e-01 +5.7594331615838275e-03
2.2500000000000000e+00 +8.2848603095337356e+00 +0.0000000000000000e+00 +2.2499999942182494e+00 -3.0148263980944480e-02 -5.7955242263865270e-01 +5.7603250838961844e-03
2.2999999999999998e+00 +8.2848540319401618e+00 +0.0000000000000000e+00 +2.2999999938241515e+00 -3.0148755428048159e-02 -5.7956311481383849e-01 +5.7612185123579636e-03
2.3499999999999996e+00 +8.2848476163506373e+00 +0.0000000000000000e+00 +2.3499999934125380e+00 -3.0149265888687545e-02 -5.7957419233564533e-01 +5.7621134058198969e-03
2.3999999999999995e+00 +8.2848410627625260e+00 +0.0000000000000000e+00 +2.3999999929830267e+00 -3.0149795327879366e-02 -5.7958565330201384e-01 +5.7630097231328248e-03
2.4499999999999993e+00 +8.2848343711730976e+00 +0.0000000000000000e+00 +2.4499999925352371e+00 -3.0150343710640362e-02 -5.7959749581089770e-01 +5.7639074231477083e-03
2.4999999999999991e+00 +8.2848275415795332e+00 +0.0000000000000000e+00 +2.4999999920687879e+00 -3.0150911001987173e-02 -5.7960971796026428e-01 +5.7648064647156331e-03
2.5499999999999989e+00 +8.2848205739789229e+00 +0.0000000000000000e+00 +2.5499999915832974e+00 -3.0151497166936304e-02 -5.7962231784809337e-01 +5.7657068066878309e-03
2.5999999999999988e+00 +8.2848134683682666e+00 +0.0000000000000000e+00 +2.5999999910783846e+00 -3.0152102170504052e-02 -5.7963529357237831e-01 +5.7666084079156868e-03
2.6499999999999986e+00 +8.2848062247444751e+00 +0.0000000000000000e+00 +2.6499999905536678e+00 -3.0152725977706407e-02 -5.7964864323112419e-01 +5.7675112272507411e-03
2.6999999999999984e+00 +8.2847988431043706e+00 +0.0000000000000000e+00 +2.6999999900087657e+00 -3.0153368553559049e-02 -5.7966236492234935e-01 +5.7684152235447129e-03
2.7499999999999982e+00 +8.2847913234446846e+00 +0.0000000000000000e+00 +2.7499999894432969e+00 -3.0154029863077230e-02 -5.7967645674408386e-01 +5.7693203556495095e-03
2.7999999999999980e+00 +8.2847836657620633e+00 +0.0000000000000000e+00 +2.7999999888568801e+00 -3.0154709871275748e-02 -5.7969091679436990e-01 +5.7702265824172315e-03
2.8499999999999979e+00 +8.2847758700530623e+00 +0.0000000000000000e+00 +2.8499999882491336e+00 -3.0155408543168845e-02 -5.7970574317126156e-01 +5.7711338627001833e-03
2.8999999999999977e+00 +8.2847679363141520e+00 +0.0000000000000000e+00 +2.8999999876196756e+00 -3.0156125843770181e-02 -5.7972093397282509e-01 +5.7720421553508934e-03
2.9499999999999975e+00 +8.2847598645417158e+00 +0.0000000000000000e+00 +2.9499999869681246e+00 -3.0156861738092726e-02 -5.7973648729713734e-01 +5.7729514192221120e-03
2.9999999999999973e+00 +8.2847516547320499e+00 +0.0000000000000000e+00 +2.9999999862940991e+00 -3.0157616191148744e-02 -5.7975240124228744e-01 +5.7738616131668419e-03
3.0499999999999972e+00 +8.2847433068813654e+00 +0.0000000000000000e+00 +3.0499999855972173e+00 -3.0158389167949697e-02 -5.7976867390637465e-01 +5.7747726960383225e-03
3.0999999999999970e+00 +8.2847348209857881e+00 +0.0000000000000000e+00 +3.0999999848770972e+00 -3.0159180633506175e-02 -5.7978530338751011e-01 +5.7756846266900684e-03
3.1499999999999968e+00 +8.2847261970413584e+00 +0.0000000000000000e+00 +3.1499999841333572e+00 -3.0159990552827854e-02 -5.7980228778381493e-01 +5.7765973639758578e-03
3.1999999999999966e+00 +8.2847174350440334e+00 +0.0000000000000000e+00 +3.1999999833656152e+00 -3.0160818890923435e-02 -5.7981962519342134e-01 +5.7775108667497618e-03
3.2499999999999964e+00 +8.2847085349896847e+00 +0.0000000000000000e+00 +3.2499999825734895e+00 -3.0161665612800505e-02 -5.7983731371447145e-01 +5.7784250938661390e-03
3.2999999999999963e+00 +8.2846994968740990e+00 +0.0000000000000000e+00 +3.2999999817565984e+00 -3.0162530683465628e-02 -5.7985535144511835e-01 +5.7793400041796636e-03
3.3499999999999961e+00 +8.2846903206929827e+00 +0.0000000000000000e+00 +3.3499999809145593e+00 -3.0163414067924086e-02 -5.7987373648352369e-01 +5.7802555565453139e-03
3.3999999999999959e+00 +8.2846810064419589e+00 +0.0000000000000000e+00 +3.3999999800469909e+00 -3.0164315731179985e-02 -5.7989246692786056e-01 +5.7811717098184140e-03
3.4499999999999957e+00 +8.2846715541165672e+00 +0.0000000000000000e+00 +3.4499999791535103e+00 -3.0165235638236088e-02 -5.7991154087631047e-01 +5.7820884228546119e-03
3.4999999999999956e+00 +8.2846619637122672e+00 +0.0000000000000000e+00 +3.4999999782337357e+00 -3.0166173754093768e-02 -5.7993095642706516e-01 +5.7830056545099227e-03
3.5499999999999954e+00 +8.2846522352244349e+00 +0.0000000000000000e+00 +3.5499999772872850e+00 -3.0167130043752967e-02 -5.7995071167832501e-01 +5.7839233636407025e-03
3.5999999999999952e+00 +8.2846423686483668e+00 +0.0000000000000000e+00 +3.5999999763137760e+00 -3.0168104472212152e-02 -5.7997080472830032e-01 +5.7848415091037043e-03
3.6499999999999950e+00 +8.2846323639792789e+00 +0.0000000000000000e+00 +3.6499999753128263e+00 -3.0169097004468143e-02 -5.7999123367520855e-01 +5.7857600497560431e-03
3.6999999999999948e+00 +8.2846222212123077e+00 +0.0000000000000000e+00 +3.6999999742840530e+00 -3.0170107605516205e-02 -5.8001199661727765e-01 +5.7866789444552388e-03
3.7499999999999947e+00 +8.2846119403425096e+00 +0.0000000000000000e+00 +3.7499999732270743e+00 -3.0171136240349835e-02 -5.8003309165274330e-01 +5.7875981520592234e-03
3.7999999999999945e+00 +8.2846015213648609e+00 +0.0000000000000000e+00 +3.7999999721415074e+00 -3.0172182873960816e-02 -5.8005451687984921e-01 +5.7885176314263348e-03
3.8499999999999943e+00 +8.2845909642742619e+00 +0.0000000000000000e+00 +3.8499999710269699e+00 -3.0173247471339055e-02 -5.8007627039684795e-01 +5.7894373414153419e-03
3.8999999999999941e+00 +8.2845802690655308e+00 +0.0000000000000000e+00 +3.8999999698830790e+00 -3.0174329997472597e-02 -5.8009835030199930e-01 +5.7903572408854543e-03
3.9499999999999940e+00 +8.2845694357334132e+00 +0.0000000000000000e+00 +3.9499999687094522e+00 -3.0175430417347507e-02 -5.8012075469357105e-01 +5.7912772886963386e-03
3.9999999999999938e+00 +8.2845584642725729e+00 +0.0000000000000000e+00 +3.9999999675057070e+00 -3.0176548695947814e-02 -5.8014348166983887e-01 +5.7921974437081091e-03
4.0499999999999936e+00 +8.2845473546775992e+00 +0.0000000000000000e+00 +4.0499999662714599e+00 -3.0177684767058215e-02 -5.8016652919645229e-01 +5.7931176641278434e-03
4.0999999999999934e+00 +8.2845361069430030e+00 +0.0000000000000000e+00 +4.0999999650063286e+00 -3.0178838439673367e-02 -5.8018989470853644e-01 +5.7940379055487993e-03
4.1499999999999932e+00 +8.2845247210632227e+00 +0.0000000000000000e+00 +4.1499999637099299e+00 -3.0180009491592528e-02 -5.8021357550859087e-01 +5.7949581229106159e-03
4.1999999999999931e+00 +8.2845131970326200e+00 +0.0000000000000000e+00 +4.1999999623818809e+00 -3.0181197700617370e-02 -5.8023756889912204e-01 +5.7958782711527799e-03
4.2499999999999929e+00 +8.2845015348454805e+00 +0.0000000000000000e+00 +4.2499999610217989e+00 -3.0182402844552089e-02 -5.8026187218264547e-01 +5.7967983052146076e-03
4.2999999999999927e+00 +8.2844897344960202e+00 +0.0000000000000000e+00 +4.2999999596293002e+00 -3.0183624701203400e-02 -5.8028648266168181e-01 +5.7977181800352414e-03
4.3499999999999925e+00 +8.2844777959783773e+00 +0.0000000000000000e+00 +4.3499999582040019e+00 -3.0184863048380702e-02 -5.8031139763876027e-01 +5.7986378505536385e-03
4.3999999999999924e+00 +8.2844657192866205e+00 +0.0000000000000000e+00 +4.3999999567455212e+00 -3.0186117663896100e-02 -5.8033661441641682e-01 +5.7995572717085692e-03
4.4499999999999922e+00 +8.2844535044147456e+00 +0.0000000000000000e+00 +4.4499999552534746e+00 -3.0187388325564470e-02 -5.8036213029719363e-01 +5.8004763984386047e-03
4.4999999999999920e+00 +8.2844411513566776e+00 +0.0000000000000000e+00 +4.4999999537274782e+00 -3.0188674811203596e-02 -5.8038794258363979e-01 +5.8013951856820982e-03
4.5499999999999918e+00 +8.2844286601062702e+00 +0.0000000000000000e+00 +4.5499999521671493e+00 -3.0189976898634164e-02 -5.8041404857831136e-01 +5.8023135883771958e-03
4.5999999999999917e+00 +8.2844160306573080e+00 +0.0000000000000000e+00 +4.5999999505721032e+00 -3.0191294365679869e-02 -5.8044044558376917e-01 +5.8032315614618100e-03
4.6499999999999915e+00 +8.2844032630035063e+00 +0.0000000000000000e+00 +4.6499999489419572e+00 -3.0192626990167528e-02 -5.8046713090258240e-01 +5.8041490598736267e-03
4.6999999999999913e+00 +8.2843903571385091e+00 +0.0000000000000000e+00 +4.6999999472763276e+00 -3.0193974549927075e-02 -5.8049410183732431e-01 +5.8050660385500904e-03
4.7499999999999911e+00 +8.2843773130558969e+00 +0.0000000000000000e+00 +4.7499999455748307e+00 -3.0195336822791720e-02 -5.8052135569057406e-01 +5.8059824524283850e-03
4.7999999999999909e+00 +8.2843641307491804e+00 +0.0000000000000000e+00 +4.7999999438370828e+00 -3.0196713586597940e-02 -5.8054888976491781e-01 +5.8068982564454443e-03
4.8499999999999908e+00 +8.2843508102118033e+00 +0.0000000000000000e+00 +4.8499999420626994e+00 -3.0198104619185623e-02 -5.8057670136294603e-01 +5.8078134055379272e-03
4.8999999999999906e+00 +8.2843373514371450e+00 +0.0000000000000000e+00 +4.8999999402512975e+00 -3.0199509698398103e-02 -5.8060478778725455e-01 +5.8087278546422212e-03
4.9499999999999904e+00 +8.2843237544185158e+00 +0.0000000000000000e+00 +4.9499999384024926e+00 -3.0200928602082230e-02 -5.8063314634044438e-01 +5.8096415586944257e-03
4.9999999999999902e+00 +8.2843100191491654e+00 +0.0000000000000000e+00 +4.9999999365159002e+00 -3.0202361108088476e-02 -5.8066177432512189e-01 +5.8105544726303497e-03
5.0499999999999901e+00 +8.2842961456222781e+00 +0.0000000000000000e+00 +5.0499999345911366e+00 -3.0203806994270974e-02 -5.8069066904389743e-01 +5.8114665513854949e-03
5.0999999999999899e+00 +8.2842821338309722e+00 +0.0000000000000000e+00 +5.0999999326278180e+00 -3.0205266038487621e-02 -5.8071982779938713e-01 +5.8123777498950572e-03
5.1499999999999897e+00 +8.2842679837683058e+00 +0.0000000000000000e+00 +5.1499999306255591e+00 -3.0206738018600122e-02 -5.8074924789421023e-01 +5.8132880230939155e-03
5.1999999999999895e+00 +8.2842536954272745e+00 +0.0000000000000000e+00 +5.1999999285839760e+00 -3.0208222712474093e-02 -5.8077892663099107e-01 +5.8141973259166115e-03
5.2499999999999893e+00 +8.2842392688008122e+00 +0.0000000000000000e+00 +5.2499999265026842e+00 -3.0209719897979125e-02 -5.8080886131235854e-01 +5.8151056132973661e-03
5.2999999999999892e+00 +8.2842247038817902e+00 +0.0000000000000000e+00 +5.2999999243812992e+00 -3.0211229352988828e-02 -5.8083904924094409e-01 +5.8160128401700383e-03
5.3499999999999890e+00 +8.2842100006630215e+00 +0.0000000000000000e+00 +5.3499999222194372e+00 -3.0212750855380981e-02 -5.8086948771938407e-01 +5.8169189614681446e-03
5.3999999999999888e+00 +8.2841951591372585e+00 +0.0000000000000000e+00 +5.3999999200167128e+00 -3.0214284183037503e-02 -5.8090017405031824e-01 +5.8178239321248406e-03
5.4499999999999886e+00 +8.2841801792971950e+00 +0.0000000000000000e+00 +5.4499999177727405e+00 -3.0215829113844617e-02 -5.8093110553638971e-01 +5.8187277070729055e-03
5.4999999999999885e+00 +8.2841650611354662e+00 +0.0000000000000000e+00 +5.4999999154871366e+00 -3.0217385425692859e-02 -5.8096227948024481e-01 +5.8196302412447465e-03
5.5499999999999883e+00 +8.2841498046446507e+00 +0.0000000000000000e+00 +5.5499999131595157e+00 -3.0218952896477205e-02 -5.8099369318453253e-01 +5.8205314895723777e-03
5.5999999999999881e+00 +8.2841344098172680e+00 +0.0000000000000000e+00 +5.5999999107894922e+00 -3.0220531304097114e-02 -5.8102534395190619e-01 +5.8214314069874222e-03
5.6499999999999879e+00 +8.2841188766457812e+00 +0.0000000000000000e+00 +5.6499999083766816e+00 -3.0222120426456608e-02 -5.8105722908502055e-01 +5.8223299484210945e-03
5.6999999999999877e+00 +8.2841032051225998e+00 +0.0000000000000000e+00 +5.6999999059206994e+00 -3.0223720041464341e-02 -5.8108934588653360e-01 +5.8232270688042013e-03
5.7499999999999876e+00 +8.2840873952400766e+00 +0.0000000000000000e+00 +5.7499999034211600e+00 -3.0225329927033667e-02 -5.8112169165910554e-01 +5.8241227230671246e-03
5.7999999999999874e+00 +8.2840714469905095e+00 +0.0000000000000000e+00 +5.7999999008776770e+00 -3.0226949861082753e-02 -5.8115426370539913e-01 +5.8250168661398132e-03
5.8499999999999872e+00 +8.2840553603661444e+00 +0.0000000000000000e+00 +5.8499998982898660e+00 -3.0228579621534617e-02 -5.8118705932807890e-01 +5.8259094529517870e-03
5.8999999999999870e+00 +8.2840391353591727e+00 +0.0000000000000000e+00 +5.8999998956573414e+00 -3.0230218986317180e-02 -5.8122007582981194e-01 +5.8268004384321118e-03
