# multipoles
# s[mm] polynom_b[n=0][T/m^n] polynom_b[n=1][T/m^n] polynom_b[n=2][T/m^n] polynom_b[n=3][T/m^n] polynom_b[n=4][T/m^n] polynom_b[n=5][T/m^n] polynom_b[n=6][T/m^n] 
+0.0000000000000000e+00 -5.7947854902645823e-01 +7.5655845778944233e+00 +5.6276728425615499e+00 +3.9897232372025733e+00 +1.0120103868969833e+03 -5.7969644229811535e+05 +9.1540677107144315e+06 
+5.0000000000000003e-02 -5.7947156491877083e-01 +7.5652536933917789e+00 +5.6344642975587265e+00 +3.8029310348107321e+00 +1.0133413400536919e+03 -5.7886939523924771e+05 +9.0927884587756786e+06 
+1.0000000000000001e-01 -5.7946497036177347e-01 +7.5649447538861914e+00 +5.6406002273882008e+00 +3.5999600647904759e+00 +1.0175951902310743e+03 -5.7788310346390936e+05 +9.0163248230982758e+06 
+1.5000000000000002e-01 -5.7945876552376752e-01 +7.5646577162983535e+00 +5.6460929224665088e+00 +3.3819179903357606e+00 +1.0245348510798106e+03 -5.7674590979627357e+05 +8.9261051765235774e+06 
+2.0000000000000001e-01 -5.7945295057307644e-01 +7.5643925375531120e+00 +5.6509546733938185e+00 +3.1499123453013262e+00 +1.0339232332120707e+03 -5.7546615602059453e+05 +8.8235579053550716e+06 
+2.5000000000000000e-01 -5.7944752567803115e-01 +7.5641491745717504e+00 +5.6551977686771178e+00 +2.9050508372460060e+00 +1.0455233062898988e+03 -5.7405218535789021e+05 +8.7101109841632936e+06 
+2.9999999999999999e-01 -5.7944249100699252e-01 +7.5639275842824016e+00 +5.6588344991313919e+00 +2.6484409202744592e+00 +1.0590979768829081e+03 -5.7251233891906822e+05 +8.5871928140332010e+06 
+3.4999999999999998e-01 -5.7943784672833420e-01 +7.5637277236094338e+00 +5.6618771548829674e+00 +2.3811902352878334e+00 +1.0744101635504542e+03 -5.7085495937540918e+05 +8.4562317413362339e+06 
+3.9999999999999997e-01 -5.7943359301044473e-01 +7.5635495494822553e+00 +5.6643380249164998e+00 +2.1044062594413413e+00 +1.0912228247211840e+03 -5.6908838810286578e+05 +8.3186558042966537e+06 
+4.4999999999999996e-01 -5.7942973002174702e-01 +7.5633930188236222e+00 +5.6662294011228811e+00 +1.8191967648932956e+00 +1.1092988352561797e+03 -5.6722096887138998e+05 +8.1758936280466067e+06 
+4.9999999999999994e-01 -5.7942625793065328e-01 +7.5632580885656768e+00 +5.6675635704209846e+00 +1.5266691652731208e+00 +1.1284012063737623e+03 -5.6526104249019420e+05 +8.0293729028424351e+06 
+5.4999999999999993e-01 -5.7942317690562650e-01 +7.5631447156383276e+00 +5.6683528252522768e+00 +1.2279310183952452e+00 +1.1482928011122883e+03 -5.6321695105865155e+05 +7.8805223169912873e+06 
+5.9999999999999998e-01 -5.7942048711512528e-01 +7.5630528569693398e+00 +5.6686094544644119e+00 +9.2408996823383294e-01 +1.1687365723678959e+03 -5.6109703725504037e+05 +7.7307699806352165e+06 
+6.5000000000000002e-01 -5.7941818872763640e-01 +7.5629824694886176e+00 +5.6683457480262431e+00 +6.1625363216111251e-01 +1.1894954525195958e+03 -5.5890964368260792e+05 +7.5815441004792135e+06 
+7.0000000000000007e-01 -5.7941628191167993e-01 +7.5629335101314039e+00 +5.6675739991306475e+00 +3.0552941869437611e-01 +1.2103322792318875e+03 -5.5666311113447906e+05 +7.4342735545780519e+06 
+7.5000000000000011e-01 -5.7941476683575066e-01 +7.5629059358248556e+00 +5.6663064929020210e+00 -6.9748871164763224e-03 +1.2310101111874342e+03 -5.5436578358699381e+05 +7.2903857130141417e+06 
+8.0000000000000016e-01 -5.7941364366840198e-01 +7.5628997035067522e+00 +5.6645555217289321e+00 -3.2015191724925768e-01 +1.2512918095281209e+03 -5.5202600153986132e+05 +7.1513092863695072e+06 
+8.5000000000000020e-01 -5.7941291257818894e-01 +7.5629147701056363e+00 +5.6623333753656047e+00 -6.3289389166791277e-01 +1.2709403050544695e+03 -5.4965210891277099e+05 +7.0184725182019137e+06 
+9.0000000000000024e-01 -5.7941257373369071e-01 +7.5629510925584826e+00 +5.6596523440483182e+00 -9.4409334347503504e-01 +1.2897185168503413e+03 -5.4725244706357713e+05 +6.8933037282892615e+06 
+9.5000000000000029e-01 -5.7941262730349641e-01 +7.5630086278001034e+00 +5.6565247170671373e+00 -1.2526426846313337e+00 +1.3073893880581434e+03 -5.4483535837193299e+05 +6.7772310765889129e+06 
+1.0000000000000002e+00 -5.7941307345622917e-01 +7.5630873327629740e+00 +5.6529627863604768e+00 -1.5574342138962376e+00 +1.3237157904852568e+03 -5.4240918611521029e+05 +6.6716832047496224e+06 
+1.0500000000000003e+00 -5.7941391236050088e-01 +7.5631871643845114e+00 +5.6489788385571531e+00 -1.8573603917396417e+00 +1.3384607375103049e+03 -5.3998227228620171e+05 +6.5780878052762216e+06 
+1.1000000000000003e+00 -5.7941514418496842e-01 +7.5633080795986256e+00 +5.6445851651919190e+00 -2.1513135109734121e+00 +1.3513871114264905e+03 -5.3756296025822917e+05 +6.4978734501144951e+06 
+1.1500000000000004e+00 -5.7941676909829998e-01 +7.5634500353437399e+00 +5.6397940566120202e+00 -2.4381860299748430e+00 +1.3622578232196238e+03 -5.3515959201081854e+05 +6.4324685304479115e+06 
+1.2000000000000004e+00 -5.7941878726916574e-01 +7.5636129885589547e+00 +5.6346178003940386e+00 -2.7168703881379925e+00 +1.3708358591144449e+03 -5.3278050976622920e+05 +6.3833009276696704e+06 
+1.2500000000000004e+00 -5.7942119886627153e-01 +7.5637968961763011e+00 +5.6290686871429996e+00 -2.9862587207174203e+00 +1.3768841235367697e+03 -5.3043405819649505e+05 +6.3517990749081299e+06 
+1.3000000000000005e+00 -5.7942400405833860e-01 +7.5640017151372998e+00 +5.6231590070568016e+00 -3.2452435165838471e+00 +1.3801655290581627e+03 -5.2812857911094557e+05 +6.3393913635388203e+06 
+1.3500000000000005e+00 -5.7942720301409656e-01 +7.5642274023769458e+00 +5.6169010485010462e+00 -3.4927169746942037e+00 +1.3804430403186002e+03 -5.2587241668772209e+05 +6.3475058216529461e+06 
+1.4000000000000006e+00 -5.7943079590229996e-01 +7.5644739148362996e+00 +5.6103071012912542e+00 -3.7275715172335357e+00 +1.3774795805978194e+03 -5.2367391327430127e+05 +6.3775707642801246e+06 
+1.4500000000000006e+00 -5.7943478289170913e-01 +7.5647412094527784e+00 +5.6033894531392887e+00 -3.9486993746388404e+00 +1.3710381250551977e+03 -5.2154141286084492e+05 +6.4310141785717737e+06 
+1.5000000000000007e+00 -5.7943916415112406e-01 +7.5650292431655632e+00 +5.5961603956476651e+00 -4.1549928418332565e+00 +1.3608815448689429e+03 -5.1948325884223200e+05 +6.5092647496917993e+06 
+1.5500000000000007e+00 -5.7944393984933984e-01 +7.5653379729148194e+00 +5.5886322158978752e+00 -4.3453442168930936e+00 +1.3467728396294178e+03 -5.1750779463861167e+05 +6.6137502683371576e+06 
+1.6000000000000008e+00 -5.7944911015517475e-01 +7.5656673556370535e+00 +5.5808172029744751e+00 -4.5186456221651232e+00 +1.3284749386657761e+03 -5.1562336512178514e+05 +6.7458990655403351e+06 
+1.6500000000000008e+00 -5.7945467523747363e-01 +7.5660173482748831e+00 +5.5727276461549469e+00 -4.6737894072425972e+00 +1.3057507810879640e+03 -5.1383831329071696e+05 +6.9071393501125537e+06 
+1.7000000000000008e+00 -5.7946063526508362e-01 +7.5663879077674192e+00 +5.5643758333504945e+00 -4.8096677550471005e+00 +1.2783633287263335e+03 -5.1216098350796575e+05 +7.0988992296289820e+06 
+1.7500000000000009e+00 -5.7946699040687377e-01 +7.5667789910539796e+00 +5.5557740525079149e+00 -4.9251728143621021e+00 +1.2460755474108121e+03 -5.1059972050158208e+05 +7.3226067681853781e+06 
+1.8000000000000009e+00 -5.7947374083173631e-01 +7.5671905550737328e+00 +5.5469345923307056e+00 -5.0191967206672041e+00 +1.2086503826033061e+03 -5.0916286903631204e+05 +7.5796901691686176e+06 
+1.8500000000000010e+00 -5.7948088670857456e-01 +7.5676225567674349e+00 +5.5378697409701072e+00 -5.0906316398709555e+00 +1.1658507889180951e+03 -5.0785877368021791e+05 +7.8715775953307543e+06 
+1.9000000000000010e+00 -5.7948842820631286e-01 +7.5680749530756062e+00 +5.5285917868467962e+00 -5.1383697055384774e+00 +1.1174397158505785e+03 -5.0669577925845777e+05 +8.1996972368147494e+06 
+1.9500000000000011e+00 -5.7949636549388994e-01 +7.5685477009397859e+00 +5.5191130178128205e+00 -5.1613030644231035e+00 +1.0631801240982445e+03 -5.0568223051147565e+05 +8.5654772279349957e+06 
+2.0000000000000009e+00 -5.7950469874024357e-01 +7.5690407572981186e+00 +5.5094457186835024e+00 -5.1583237056674491e+00 +1.0028350572121742e+03 -5.0482647345606983e+05 +8.9703451378262732e+06 
+2.0500000000000007e+00 -5.7951342777706705e-01 +7.5695540682177667e+00 +5.4995977641483513e+00 -5.1285847281250678e+00 +9.3628104038498600e+02 -5.0413487251779169e+05 +9.4150164582820125e+06 
+2.1000000000000005e+00 -5.7952255108687811e-01 +7.5700875290890624e+00 +5.4895596761917416e+00 -5.0723191528977960e+00 +8.6385623411658219e+02 -5.0360569369318982e+05 +9.8973007007980943e+06 
+2.1500000000000004e+00 -5.7953206681493297e-01 +7.5706410208457768e+00 +5.4793177324699416e+00 -4.9900401692624738e+00 +7.8601591770938342e+02 -5.0323513182181492e+05 +1.0414268080061385e+07 
+2.2000000000000002e+00 -5.7954197310650890e-01 +7.5712144244260555e+00 +5.4688582118382909e+00 -4.8822611341417623e+00 +7.0321533754778284e+02 -5.0301938035687746e+05 +1.0962989040194875e+07 
+2.2500000000000000e+00 -5.7955226810687221e-01 +7.5718076207641625e+00 +5.4581673884874258e+00 -4.7494952257059939e+00 +6.1590986939386664e+02 -5.0295463423093245e+05 +1.1540533132258777e+07 
+2.2999999999999998e+00 -5.7956294996132873e-01 +7.5724204907970307e+00 +5.4472315412930756e+00 -4.5922557260082648e+00 +5.2455475713518297e+02 -5.0303708745925780e+05 +1.2143970822250599e+07 
+2.3499999999999996e+00 -5.7957401681518639e-01 +7.5730529154647339e+00 +5.4360369466155047e+00 -4.4110560122154432e+00 +4.2960531648802134e+02 -5.0326293334711762e+05 +1.2770372073243449e+07 
+2.3999999999999995e+00 -5.7958546681378131e-01 +7.5737047757027760e+00 +5.4245698836544252e+00 -4.2064092854446455e+00 +3.3151678504622180e+02 -5.0362836651897104e+05 +1.3416807379611643e+07 
+2.4499999999999993e+00 -5.7959729810242600e-01 +7.5743759524540453e+00 +5.4128166245214793e+00 -3.9788290166440436e+00 +2.3074459301548080e+02 -5.0412957944547385e+05 +1.4080345929937234e+07 
+2.4999999999999991e+00 -5.7960950882649620e-01 +7.5750663266581650e+00 +5.4007634509004090e+00 -3.7288285392630951e+00 +1.2774390722576076e+02 -5.0476276567105227e+05 +1.4758058708497625e+07 
+2.5499999999999989e+00 -5.7962209713134449e-01 +7.5757757792569809e+00 +5.3883966375171779e+00 -3.4569212604806601e+00 +2.2970085094714566e+01 -5.0552411813294358e+05 +1.5447015400696201e+07 
+2.5999999999999988e+00 -5.7963506116235441e-01 +7.5765041911903559e+00 +5.3757024618324634e+00 -3.1636205005035998e+00 -8.3121586801567844e+01 -5.0640983043709444e+05 +1.6144286159022663e+07 
+2.6499999999999986e+00 -5.7964839906491528e-01 +7.5772514434041200e+00 +5.3626672005323686e+00 -2.8494398098046432e+00 -1.9007580488858136e+02 -5.0741609428810666e+05 +1.6846941032743804e+07 
+2.6999999999999984e+00 -5.7966210898442083e-01 +7.5780174168429779e+00 +5.3492771286284295e+00 -2.5148926902466120e+00 -2.9743721891108612e+02 -5.0853910173605551e+05 +1.7552049749806635e+07 
+2.7499999999999982e+00 -5.7967618906630647e-01 +7.5788019924506660e+00 +5.3355185266752256e+00 -2.1604925761303164e+00 -4.0475063219064032e+02 -5.0977504543247673e+05 +1.8256683086827014e+07 
+2.7999999999999980e+00 -5.7969063745598248e-01 +7.5796050511753954e+00 +5.3213776674856836e+00 -1.7867530964307874e+00 -5.1156063086620532e+02 -5.1112011631879630e+05 +1.8957910324362047e+07 
+2.8499999999999979e+00 -5.7970545229890269e-01 +7.5804264739614595e+00 +5.3068408307607413e+00 -1.3941876963715560e+00 -6.1741199711293802e+02 -5.1257050687822455e+05 +1.9652802100425083e+07 
+2.8999999999999977e+00 -5.7972063174052124e-01 +7.5812661417597109e+00 +5.2918942928413246e+00 -9.8331009472059305e-01 -7.2184941282105126e+02 -5.1412240727216931e+05 +2.0338428338985343e+07 
+2.9499999999999975e+00 -5.7973617392628674e-01 +7.5821239355200509e+00 +5.2765243277806260e+00 -5.5463395468240417e-01 -8.2441750492441361e+02 -5.1577200811380654e+05 +2.1011858616772402e+07 
+2.9999999999999973e+00 -5.7975207700168885e-01 +7.5829997361912618e+00 +5.2607172143015566e+00 -1.0867288888123391e-01 -9.2466102192352355e+02 -5.1751550039901666e+05 +2.1670163312731948e+07 
+3.0499999999999972e+00 -5.7976833911222070e-01 +7.5838934247259049e+00 +5.2444592301140087e+00 +3.5405933363436887e-01 -1.0221246883294016e+03 -5.1934907378316531e+05 +2.2310412653579134e+07 
+3.0999999999999970e+00 -5.7978495840337485e-01 +7.5848048820779850e+00 +5.2277366503914635e+00 +8.3304889439512508e-01 -1.1163531570559571e+03 -5.2126891748550750e+05 +2.2929676369812038e+07 
+3.1499999999999968e+00 -5.7980193302066674e-01 +7.5857339891996736e+00 +5.2105357525770071e+00 +1.3277820607992317e+00 -1.2068911449790321e+03 -5.2327122142506990e+05 +2.3525024632616363e+07 
+3.1999999999999966e+00 -5.7981926110961124e-01 +7.5866806270477136e+00 +5.1928428120775862e+00 +1.8377449084984219e+00 -1.2932833113492820e+03 -5.2535217387736298e+05 +2.4093527208770540e+07 
+3.2499999999999964e+00 -5.7983694081574577e-01 +7.5876446765766890e+00 +5.1746441060373005e+00 +2.3624236121631808e+00 -1.3750743614230100e+03 -5.2750796391727694e+05 +2.4632254172029756e+07 
+3.2999999999999963e+00 -5.7985497028462063e-01 +7.5886260187458454e+00 +5.1559259124059187e+00 +2.9013041426770947e+00 -1.4518090268697792e+03 -5.2973477884387935e+05 +2.5138275792610329e+07 
+3.3499999999999961e+00 -5.7987334766178422e-01 +7.5896245345141509e+00 +5.1366745064503894e+00 +3.4538725071487621e+00 -1.5230319608973264e+03 -5.3202880631094950e+05 +2.5608661782104824e+07 
+3.3999999999999959e+00 -5.7989207109281171e-01 +7.5906401048412082e+00 +5.1168761666813642e+00 +4.0196146695505677e+00 -1.5882879054922250e+03 -5.3438623349387851e+05 +2.6040482453264229e+07 
+3.4499999999999957e+00 -5.7991113872326938e-01 +7.5916726106888932e+00 +5.0965171680845813e+00 +4.5980165100368007e+00 -1.6471215100278152e+03 -5.3680324687323894e+05 +2.6430807504788611e+07 
+3.4999999999999956e+00 -5.7993054869873939e-01 +7.5927219330192344e+00 +5.0755837867791946e+00 +5.1885639008219488e+00 -1.6990774515093908e+03 -5.3927603280468425e+05 +2.6776706803643368e+07 
+3.5499999999999954e+00 -5.7995029916482876e-01 +7.5937879527970393e+00 +5.0540623014766002e+00 +5.7907425940538886e+00 -1.7437004770321744e+03 -5.4180077660427592e+05 +2.7075250691374809e+07 
+3.5999999999999952e+00 -5.7997038826714375e-01 +7.5948705509862773e+00 +5.0319389887722350e+00 +6.4040383863588080e+00 -1.7805352746420649e+03 -5.4437366393772711e+05 +2.7323509098294124e+07 
+3.6499999999999950e+00 -5.7999081415128229e-01 +7.5959696085559951e+00 +5.0092001223934766e+00 +7.0279368593917972e+00 -1.8091264563551417e+03 -5.4699087863421335e+05 +2.7518551445526179e+07 
+3.6999999999999948e+00 -5.8001157496289479e-01 +7.5970850064734341e+00 +4.9858319838303142e+00 +7.6619236575960885e+00 -1.8290188454964868e+03 -5.4964860496922024e+05 +2.7657448586129498e+07 
+3.7499999999999947e+00 -5.8003266884759908e-01 +7.5982166257084414e+00 +4.9618208467346445e+00 +8.3054843284959219e+00 -1.8397570475712284e+03 -5.5234302640311327e+05 +2.7737269872102570e+07 
+3.7999999999999945e+00 -5.8005409395103669e-01 +7.5993643472331707e+00 +4.9371529876994460e+00 +8.9581043227488646e+00 -1.8408857503493748e+03 -5.5507032555961586e+05 +2.7755085221596528e+07 
+3.8499999999999943e+00 -5.8007584841886861e-01 +7.6005280520166272e+00 +4.9118146852328310e+00 +9.6192691923372369e+00 -1.8319496954859585e+03 -5.5782668575997790e+05 +2.7707964923537377e+07 
+3.8999999999999941e+00 -5.8009793039675139e-01 +7.6017076210366339e+00 +4.8857922151378510e+00 +1.0288464161794710e+01 -1.8124935434452577e+03 -5.6060828771741886e+05 +2.7592978680135526e+07 
+3.9499999999999940e+00 -5.8012033803036012e-01 +7.6029029352678972e+00 +4.8590718555070538e+00 +1.0965174542967132e+01 -1.7820620239067564e+03 -5.6341131267397723e+05 +2.7407196690576728e+07 
+3.9999999999999938e+00 -5.8014306946536065e-01 +7.6041138756852975e+00 +4.8316398809166223e+00 +1.1648885652792575e+01 -1.7401997638146311e+03 -5.6623194189605908e+05 +2.7147688427040551e+07 
+4.0499999999999936e+00 -5.8016612269765111e-01 +7.6053403234613706e+00 +4.8034886099036846e+00 +1.2338918078776235e+01 -1.6866102501427413e+03 -5.6906563983956724e+05 +2.6812543609296344e+07 
+4.0999999999999934e+00 -5.8018949512468720e-01 +7.6065821476266109e+00 +4.7746347487785430e+00 +1.3034043304284632e+01 -1.6216283365193926e+03 -5.7190571511624532e+05 +2.6403927365727175e+07 
+4.1499999999999932e+00 -5.8021318399458821e-01 +7.6078392109556594e+00 +4.7451012155954615e+00 +1.3732921583572447e+01 -1.5457465998292168e+03 -5.7474512211923709e+05 +2.5925028422970787e+07 
+4.1999999999999931e+00 -5.8023718655548351e-01 +7.6091113762192935e+00 +4.7149109296330307e+00 +1.4434213328126576e+01 -1.4594576473803431e+03 -5.7757681667365821e+05 +2.5379035714258071e+07 
+4.2499999999999929e+00 -5.8026150005549326e-01 +7.6103985061924782e+00 +4.6840868074812541e+00 +1.5136578765766048e+01 -1.3632540129113488e+03 -5.8039375302891096e+05 +2.4769137676172867e+07 
+4.2999999999999927e+00 -5.8028612174278427e-01 +7.6117004636436159e+00 +4.6526517732857222e+00 +1.5838678428952852e+01 -1.2576284327985759e+03 -5.8318888810061617e+05 +2.4098524112548988e+07 
+4.3499999999999925e+00 -5.8031104886547724e-01 +7.6130171113470215e+00 +4.6206287414598810e+00 +1.6539172606759976e+01 -1.1430733742828982e+03 -5.8595517679185234e+05 +2.3370382989041083e+07 
+4.3999999999999924e+00 -5.8033627867175164e-01 +7.6143483120707351e+00 +4.5880406364419315e+00 +1.7236721843791464e+01 -1.0200815733822816e+03 -5.8868557610916696e+05 +2.2587904079078425e+07 
+4.4499999999999922e+00 -5.8036180840974738e-01 +7.6156939285854977e+00 +4.5549103747502411e+00 +1.7929986589560777e+01 -8.8914555220361808e+02 -5.9137304233915196e+05 +2.1754275716810204e+07 
+4.4999999999999920e+00 -5.8038763532764670e-01 +7.6170538236572449e+00 +4.5212608795181533e+00 +1.8617627499497729e+01 -7.5075800643564639e+02 -5.9401053351606103e+05 +2.0872687393416408e+07 
+4.5499999999999918e+00 -5.8041375667361095e-01 +7.6184278600569453e+00 +4.4871150693530435e+00 +1.9298305023974599e+01 -6.0541150549913618e+02 -5.9659100599725405e+05 +1.9946327733228948e+07 
+4.5999999999999917e+00 -5.8044016969582790e-01 +7.6198159005487067e+00 +4.4524958670399526e+00 +1.9970679910135253e+01 -4.5359873294980383e+02 -5.9910741865409166e+05 +1.8978386141786419e+07 
+4.6499999999999915e+00 -5.8046687164247435e-01 +7.6212178078992974e+00 +4.4174261925912148e+00 +2.0633412791990743e+01 -2.9581229125156995e+02 -6.0155272943207296e+05 +1.7972051456989024e+07 
+4.6999999999999913e+00 -5.8049385976174950e-01 +7.6226334448737596e+00 +4.3819289690592438e+00 +2.1285164386228654e+01 -1.3254485773678368e+02 -6.0391989701747056e+05 +1.6930512996529073e+07 
+4.7499999999999911e+00 -5.8052113130184613e-01 +7.6240626742364253e+00 +4.3460271187631978e+00 +2.1924595452808443e+01 +3.5710899427706011e+01 -6.0620188051949220e+05 +1.5856960064890610e+07 
+4.7999999999999909e+00 -5.8054868351095590e-01 +7.6255053587499289e+00 +4.3097435619083324e+00 +2.2550366817289142e+01 +2.0846239043055354e+02 -6.0839163960826304e+05 +1.4754581354843780e+07 
+4.8499999999999908e+00 -5.8057651363728957e-01 +7.6269613611735654e+00 +4.2731012224913751e+00 +2.3161139448572762e+01 +3.8521691403429310e+02 -6.1048213516668428e+05 +1.3626566355146417e+07 
+4.8999999999999906e+00 -5.8060461892906390e-01 +7.6284305442712235e+00 +4.2361230248297517e+00 +2.3755574147621768e+01 +5.6548176875031140e+02 -6.1246632681217068e+05 +1.2476104524794856e+07 
+4.9499999999999904e+00 -5.8063299663447998e-01 +7.6299127707988577e+00 +4.1988318901555859e+00 +2.4332332021568998e+01 +7.4876433628190364e+02 -6.1433717662431172e+05 +1.1306384769583089e+07 
+4.9999999999999902e+00 -5.8066164400177334e-01 +7.6314079035165134e+00 +4.1612507451209586e+00 +2.4890074048820040e+01 +9.3457185996504165e+02 -6.1608764581452019e+05 +1.0120596900893107e+07 
+5.0499999999999901e+00 -5.8069055827916161e-01 +7.6329158051786257e+00 +4.1234025131976377e+00 +2.5427461404988268e+01 +1.1224116696428216e+03 -6.1771069710977527e+05 +8.9219301493087932e+06 
