# multipoles
# s[mm] polynom_b[n=0][T/m^n] polynom_b[n=1][T/m^n] polynom_b[n=2][T/m^n] polynom_b[n=3][T/m^n] polynom_b[n=4][T/m^n] polynom_b[n=5][T/m^n] polynom_b[n=6][T/m^n] 
+0.0000000000000000e+00 -5.4944412945970778e-01 +7.2194076712962252e+00 +5.2160908717958590e+00 -1.0694468838944955e+02 +4.2088171732118790e+03 +1.4646188447748631e+05 -1.4209760937903680e+07 
+5.0000000000000003e-02 -5.4943592448248724e-01 +7.2190067087037644e+00 +5.2215601283378312e+00 -1.0677265371594112e+02 +4.3013419545684656e+03 +1.4457567490350464e+05 -1.4830344555732980e+07 
+1.0000000000000001e-01 -5.4942809448615815e-01 +7.2186256853634267e+00 +5.2266364344586336e+00 -1.0659590413901620e+02 +4.3893156221283325e+03 +1.4273127143114057e+05 -1.5415758233435992e+07 
+1.5000000000000002e-01 -5.4942063958923604e-01 +7.2182646434459796e+00 +5.2313228297328518e+00 -1.0641528182452802e+02 +4.4727679357723482e+03 +1.4093276760217929e+05 -1.5966423850277949e+07 
+2.0000000000000001e-01 -5.4941355991022378e-01 +7.2179236251269980e+00 +5.2356223472684533e+00 -1.0623162908099870e+02 +4.5517288386899363e+03 +1.3918425802425665e+05 -1.6482764557779696e+07 
+2.5000000000000000e-01 -5.4940685556765423e-01 +7.2176026725797460e+00 +5.2395380237564204e+00 -1.0604578808873099e+02 +4.6262281659471646e+03 +1.3748983622824348e+05 -1.6965202736524127e+07 
+2.9999999999999999e-01 -5.4940052668007366e-01 +7.2173018279773027e+00 +5.2430728943265361e+00 -1.0585860098964280e+02 +4.6962958021030545e+03 +1.3585359543087499e+05 -1.7414161131313369e+07 
+3.4999999999999998e-01 -5.4939457336605180e-01 +7.2170211334964725e+00 +5.2462299957651002e+00 -1.0567091004489468e+02 +4.7619615816709220e+03 +1.3427962980448813e+05 -1.7830062129591722e+07 
+3.9999999999999997e-01 -5.4938899574416444e-01 +7.2167606313126296e+00 +5.2490123622720928e+00 -1.0548355742077011e+02 +4.8232554113446859e+03 +1.3277203271372427e+05 -1.8213328614995610e+07 
+4.4999999999999996e-01 -5.4938379393302894e-01 +7.2165203636019681e+00 +5.2514230326760334e+00 -1.0529738527960036e+02 +4.8802070728966264e+03 +1.3133489745373389e+05 -1.8564382632484861e+07 
+4.9999999999999994e-01 -5.4937896805125042e-01 +7.2163003725416353e+00 +5.2534650407828627e+00 -1.0511323579081728e+02 +4.9328464795428708e+03 +1.2997231736553686e+05 -1.8883647098789405e+07 
+5.4999999999999993e-01 -5.4937451821747829e-01 +7.2161007003098252e+00 +5.2551414246321055e+00 -1.0493195114299124e+02 +4.9812034346398787e+03 +1.2868838596915134e+05 -1.9171544205563802e+07 
+5.9999999999999998e-01 -5.4937044455036188e-01 +7.2159213890840093e+00 +5.2564552194853338e+00 -1.0475437344411608e+02 +5.0253078149107068e+03 +1.2748719602723891e+05 -1.9428496638763260e+07 
+6.5000000000000002e-01 -5.4936674716856571e-01 +7.2157624810465721e+00 +5.2574094598479553e+00 -1.0458134498989178e+02 +5.0651895174048914e+03 +1.2637284191291232e+05 -1.9654927217708167e+07 
+7.0000000000000007e-01 -5.4936342619079126e-01 +7.2156240183722202e+00 +5.2580071842361722e+00 -1.0441370771561891e+02 +5.1008783287849410e+03 +1.2534941495991909e+05 -1.9851258013211131e+07 
+7.5000000000000011e-01 -5.4936048173575280e-01 +7.2155060432459504e+00 +5.2582514295194942e+00 -1.0425230395449321e+02 +5.1324040845072332e+03 +1.2442100979715560e+05 -2.0017911439659491e+07 
+8.0000000000000016e-01 -5.4935791392216060e-01 +7.2154085978440081e+00 +5.2581452292584938e+00 -1.0409797564686895e+02 +5.1597967084125321e+03 +1.2359171779846179e+05 -2.0155310510446966e+07 
+8.5000000000000020e-01 -5.4935572286877743e-01 +7.2153317243522110e+00 +5.2576916232287596e+00 -1.0395156510570554e+02 +5.1830859524206417e+03 +1.2286563344147510e+05 -2.0263877058907304e+07 
+9.0000000000000024e-01 -5.4935390869435752e-01 +7.2152754649498050e+00 +5.2568936463543583e+00 -1.0381391432603019e+02 +5.2023017040084542e+03 +1.2224684849428400e+05 -2.0344033854280520e+07 
+9.5000000000000029e-01 -5.4935247151769606e-01 +7.2152398618196996e+00 +5.2557543376089590e+00 -1.0368586543904301e+02 +5.2174737410969692e+03 +1.2173945592086417e+05 -2.0396202925566033e+07 
+1.0000000000000002e+00 -5.4935141145757060e-01 +7.2152249571449500e+00 +5.2542767295444124e+00 -1.0356826054374842e+02 +5.2286320165497264e+03 +1.2134754836767536e+05 -2.0420807489031859e+07 
+1.0500000000000003e+00 -5.4935072863280809e-01 +7.2152307931108419e+00 +5.2524638607894447e+00 -1.0346194180975696e+02 +5.2358063171471995e+03 +1.2107521910206304e+05 -2.0418269635682851e+07 
+1.1000000000000003e+00 -5.4935042316225680e-01 +7.2152574118986017e+00 +5.2503187702569978e+00 -1.0336775120277198e+02 +5.2390264226728941e+03 +1.2092655966521987e+05 -2.0389011408460300e+07 
+1.1500000000000004e+00 -5.4935049516476331e-01 +7.2153048556954769e+00 +5.2478444932541040e+00 -1.0328653091465833e+02 +5.2383222126501450e+03 +1.2090566349310924e+05 -2.0333455534661170e+07 
+1.2000000000000004e+00 -5.4935094475920299e-01 +7.2153731666837624e+00 +5.2450440673403307e+00 -1.0321912290795950e+02 +5.2337235047370350e+03 +1.2101662215551706e+05 -2.0252024322055016e+07 
+1.2500000000000004e+00 -5.4935177206447516e-01 +7.2154623870524333e+00 +5.2419205306993151e+00 -1.0316636938170463e+02 +5.2252601041363268e+03 +1.2126352910778119e+05 -2.0145140009775411e+07 
+1.3000000000000005e+00 -5.4935297719948162e-01 +7.2155725589827320e+00 +5.2384769193123581e+00 -1.0312911220346190e+02 +5.2129618689380259e+03 +1.2165047515255478e+05 -2.0013225170344353e+07 
+1.3500000000000005e+00 -5.4935456028316010e-01 +7.2157037246651585e+00 +5.2347162714817426e+00 -1.0310819359329921e+02 +5.1968586065209756e+03 +1.2218155399037989e+05 -1.9856702078833524e+07 
+1.4000000000000006e+00 -5.4935652143445701e-01 +7.2158559262851512e+00 +5.2306416248862062e+00 -1.0310445553695723e+02 +5.1769801310625026e+03 +1.2286085739565834e+05 -1.9675993021430772e+07 
+1.4500000000000006e+00 -5.4935886077233698e-01 +7.2160292060298161e+00 +5.2262560165106482e+00 -1.0311874005457500e+02 +5.1533562806476029e+03 +1.2369247740150862e+05 -1.9471520460820142e+07 
+1.5000000000000007e+00 -5.4936157841579569e-01 +7.2162236060864684e+00 +5.2215624855225578e+00 -1.0315188916108939e+02 +5.1260168400812026e+03 +1.2468050606221441e+05 -1.9243706525139749e+07 
+1.5500000000000007e+00 -5.4936467448383042e-01 +7.2164391686440803e+00 +5.2165640685550745e+00 -1.0320474490984134e+02 +5.0949916571406757e+03 +1.2582903573791089e+05 -1.8992973746374723e+07 
+1.6000000000000008e+00 -5.4936814909546772e-01 +7.2166759358910868e+00 +5.2112638039367161e+00 -1.0327814931169272e+02 +5.0603105388006306e+03 +1.2714215846388461e+05 -1.8719744399346229e+07 
+1.6500000000000008e+00 -5.4937200236976003e-01 +7.2169339500154139e+00 +5.2056647313906561e+00 -1.0337294433100631e+02 +5.0220032546413922e+03 +1.2862396590923271e+05 -1.8424440507578235e+07 
+1.7000000000000008e+00 -5.4937623442575600e-01 +7.2172132532062907e+00 +5.1997698870142441e+00 -1.0348997196141030e+02 +4.9800996708242983e+03 +1.3027854999395319e+05 -1.8107484743311714e+07 
+1.7500000000000009e+00 -5.4938084538255305e-01 +7.2175138876543699e+00 +5.1935823114736550e+00 -1.0363007424183903e+02 +4.9346295387835944e+03 +1.3211000307171748e+05 -1.7769299034150258e+07 
+1.8000000000000009e+00 -5.4938583535924590e-01 +7.2178358955488902e+00 +5.1871050426216021e+00 -1.0379409311736725e+02 +4.8856226792917869e+03 +1.3412241669387376e+05 -1.7410305752680887e+07 
+1.8500000000000010e+00 -5.4939120447495160e-01 +7.2181793190792547e+00 +5.1803411183294603e+00 -1.0398287052688187e+02 +4.8331089192133904e+03 +1.3631988241431548e+05 -1.7030927336100444e+07 
+1.9000000000000010e+00 -5.4939695284882273e-01 +7.2185442004385791e+00 +5.1732935798206512e+00 -1.0419724854150455e+02 +4.7771179945600807e+03 +1.3870649290753817e+05 -1.6631585607053269e+07 
+1.9500000000000011e+00 -5.4940308060000664e-01 +7.2189305818149885e+00 +5.1659654640703350e+00 -1.0443806900304419e+02 +4.7176797585672557e+03 +1.4128633897770822e+05 -1.6212703191297609e+07 
+2.0000000000000009e+00 -5.4940958784769556e-01 +7.2193385053989187e+00 +5.1583598122545862e+00 -1.0470617383298023e+02 +4.6548239530662922e+03 +1.4406351213545617e+05 -1.5774701962475648e+07 
+2.0500000000000007e+00 -5.4941647443553487e-01 +7.2197679792857583e+00 +5.1504782649244749e+00 -1.0500197410325163e+02 +4.5886089068650563e+03 +1.4703942777595346e+05 -1.5318135840063857e+07 
+2.1000000000000005e+00 -5.4942373910470266e-01 +7.2202188681852189e+00 +5.1423177351837230e+00 -1.0532414901066529e+02 +4.5191973561221721e+03 +1.5020462313264259e+05 -1.4844026070658844e+07 
+2.1500000000000004e+00 -5.4943138032063876e-01 +7.2206909992059645e+00 +5.1338741714005662e+00 -1.0567094354924954e+02 +4.4467760041820711e+03 +1.5354687361873142e+05 -1.4353497727142846e+07 
+2.2000000000000002e+00 -5.4943939654880170e-01 +7.2211841994565571e+00 +5.1251435228146782e+00 -1.0604060268986753e+02 +4.3715315311264567e+03 +1.5705395442872102e+05 -1.3847675722502172e+07 
+2.2500000000000000e+00 -5.4944778625468094e-01 +7.2216982960476068e+00 +5.1161217413296542e+00 -1.0643137146901482e+02 +4.2936505436473108e+03 +1.6071364130563560e+05 -1.3327684467160784e+07 
+2.2999999999999998e+00 -5.4945654790376552e-01 +7.2222331160880762e+00 +5.1068047763424698e+00 -1.0684149484233230e+02 +4.2133197164511694e+03 +1.6451370934936966e+05 -1.2794648832229102e+07 
+2.3499999999999996e+00 -5.4946567996156015e-01 +7.2227884866874641e+00 +5.0971885777437080e+00 -1.0726921776550313e+02 +4.1307257081756070e+03 +1.6844193364243544e+05 -1.2249693569709627e+07 
+2.3999999999999995e+00 -5.4947518089358360e-01 +7.2233642349612541e+00 +5.0872690954002531e+00 -1.0771278542745284e+02 +4.0460551776380594e+03 +1.7248609121626551e+05 -1.1693943431332825e+07 
+2.4499999999999993e+00 -5.4948504916535801e-01 +7.2239601880166431e+00 +5.0770422767964156e+00 -1.0817044265857572e+02 +3.9594948502824091e+03 +1.7663395614237877e+05 -1.1128523623915114e+07 
+2.4999999999999991e+00 -5.4949528324244490e-01 +7.2245761729700417e+00 +5.0665040749715065e+00 -1.0864043464081983e+02 +3.8712312937669230e+03 +1.8087330535584874e+05 -1.0554558262689102e+07 
+2.5499999999999989e+00 -5.4950588159037839e-01 +7.2252120169316179e+00 +5.0556504350487019e+00 -1.0912100630746072e+02 +3.7814512947373828e+03 +1.8519191383347608e+05 -9.9731729587484952e+06 
+2.5999999999999988e+00 -5.4951684267475576e-01 +7.2258675470143263e+00 +5.0444773110201142e+00 -1.0961040267371739e+02 +3.6903413987110230e+03 +1.8957755717075392e+05 -9.3854916889416948e+06 
+2.6499999999999986e+00 -5.4952816496112500e-01 +7.2265425903349181e+00 +5.0329806463028071e+00 -1.1010686889421150e+02 +3.5980884288986053e+03 +1.9401801210149250e+05 -8.7926402722797412e+06 
+2.6999999999999984e+00 -5.4953984691509872e-01 +7.2272369740069022e+00 +5.0211563930540528e+00 -1.1060864998808144e+02 +3.5048789803658365e+03 +1.9850105430391492e+05 -8.1957430207264554e+06 
+2.7499999999999982e+00 -5.4955188700226920e-01 +7.2279505251450917e+00 +5.0090004978560199e+00 -1.1111399101084477e+02 +3.4108997889092398e+03 +2.0301445974805573e+05 -7.5959251529163085e+06 
+2.7999999999999980e+00 -5.4956428368826182e-01 +7.2286830708673513e+00 +4.9965089107887097e+00 -1.1162113711614197e+02 +3.3163375010653522e+03 +2.0754600514745430e+05 -6.9943113084070561e+06 
+2.8499999999999979e+00 -5.4957703543868675e-01 +7.2294344382872806e+00 +4.9836775772432498e+00 -1.1212833328870936e+02 +3.2213788845012732e+03 +2.1208346592327437e+05 -6.3920269218755253e+06 
+2.8999999999999977e+00 -5.4959014071919432e-01 +7.2302044545234745e+00 +4.9705024475686068e+00 -1.1263382468917678e+02 +3.1262105722346205e+03 +2.1661461888044688e+05 -5.7901965136444122e+06 
+2.9499999999999975e+00 -5.4960359799541281e-01 +7.2309929466953653e+00 +4.9569794660965734e+00 -1.1313585651742314e+02 +3.0310193588145953e+03 +2.2112724120631735e+05 -5.1899456926883087e+06 
+2.9999999999999973e+00 -5.4961740573300744e-01 +7.2317997419192634e+00 +4.9431045815987824e+00 -1.1363267382488310e+02 +2.9359919147398714e+03 +2.2560910885523551e+05 -4.5923992093480546e+06 
+3.0499999999999972e+00 -5.4963156239764044e-01 +7.2326246673133143e+00 +4.9288737403671421e+00 -1.1412252171364146e+02 +2.8413149779463938e+03 +2.3004799813527908e+05 -3.9986822742263479e+06 
+3.0999999999999970e+00 -5.4964606645499625e-01 +7.2334675499992533e+00 +4.9142828906103446e+00 -1.1460364544311689e+02 +2.7471752322583566e+03 +2.3443168674511928e+05 -3.4099197209680965e+06 
+3.1499999999999968e+00 -5.4966091637073788e-01 +7.2343282170972314e+00 +4.8993279748153356e+00 -1.1507429018797413e+02 +2.6537595118463328e+03 +2.3874795164928961e+05 -2.8272373810320902e+06 
+3.1999999999999966e+00 -5.4967611061057642e-01 +7.2352064957276108e+00 +4.8840049420333473e+00 -1.1553270111984519e+02 +2.5612544751867285e+03 +2.4298456978877203e+05 -2.2517599061031919e+06 
+3.2499999999999964e+00 -5.4969164764021283e-01 +7.2361022130119199e+00 +4.8683097374263467e+00 -1.1597712345574307e+02 +2.4698468817734829e+03 +2.4712931850675284e+05 -1.6846126110563327e+06 
+3.2999999999999963e+00 -5.4970752592534500e-01 +7.2370151960725186e+00 +4.8522383043401165e+00 -1.1640580242491164e+02 +2.3797235356104625e+03 +2.5116997520092607e+05 -1.1269210956912118e+06 
+3.3499999999999961e+00 -5.4972374393170831e-01 +7.2379452720321718e+00 +4.8357865905260766e+00 -1.1681698328165757e+02 +2.2910711208449293e+03 +2.5509431755387547e+05 -5.7981014349575946e+05 
+3.3999999999999959e+00 -5.4974030012500796e-01 +7.2388922680142596e+00 +4.8189505364265006e+00 -1.1720891127745489e+02 +2.2040765191226883e+03 +2.5889012314184604e+05 -4.4405871545910704e+04 
+3.4499999999999957e+00 -5.4975719297099213e-01 +7.2398560111443055e+00 +4.8017260889085849e+00 -1.1757983175856198e+02 +2.1189264310828216e+03 +2.6254517038685526e+05 +4.7816685427860444e+05 
+3.4999999999999956e+00 -5.4977442093539985e-01 +7.2408363285459307e+00 +4.7841091907831528e+00 -1.1792798997936976e+02 +2.0358076706504569e+03 +2.6604723693671817e+05 +9.8678239183595486e+05 
+3.5499999999999954e+00 -5.4979198248397898e-01 +7.2418330473450334e+00 +4.7660957856042145e+00 -1.1825163128012669e+02 +1.9549070217604540e+03 +2.6938410114316229e+05 +1.4803153385487618e+06 
+3.5999999999999952e+00 -5.4980987608248599e-01 +7.2428459946675581e+00 +4.7476818160183250e+00 -1.1854900100101212e+02 +1.8764112961367123e+03 +2.7254354138605291e+05 +1.9576400950120897e+06 
+3.6499999999999950e+00 -5.4982810019668049e-01 +7.2438749976416990e+00 +4.7288632241478137e+00 -1.1881834456508004e+02 +1.8005073112762566e+03 +2.7551333670491516e+05 +2.4176310563374022e+06 
+3.6999999999999948e+00 -5.4984665329233906e-01 +7.2449198833931909e+00 +4.7096359530280854e+00 -1.1905790728728171e+02 +1.7273818646277816e+03 +2.7828126526259852e+05 +2.8591627353812382e+06 
+3.7499999999999947e+00 -5.4986553383522263e-01 +7.2459804790517950e+00 +4.6899959420612509e+00 -1.1926593463916109e+02 +1.6572218399148248e+03 +2.8083510649377533e+05 +3.2811091094852602e+06 
+3.7999999999999945e+00 -5.4988474029111978e-01 +7.2470566117465260e+00 +4.6699391335040970e+00 -1.1944067206390157e+02 +1.5902140464903462e+03 +2.8316263963309873e+05 +3.6823446506291516e+06 
+3.8499999999999943e+00 -5.4990427112581985e-01 +7.2481481086066593e+00 +4.6494614683144135e+00 -1.1958036501075139e+02 +1.5265453248700267e+03 +2.8525164396316832e+05 +4.0617436359471721e+06 
+3.8999999999999941e+00 -5.4992412480511221e-01 +7.2492547967629326e+00 +4.6285588863881237e+00 -1.1968325898247610e+02 +1.4664025371881842e+03 +2.8708989921258081e+05 +4.4181802251258818e+06 
+3.9499999999999940e+00 -5.4994429979477988e-01 +7.2503765033470637e+00 +4.6072273245571100e+00 -1.1974759951022149e+02 +1.4099726317649749e+03 +2.8866518530166970e+05 +4.7505279834877355e+06 
+3.9999999999999938e+00 -5.4996479456064784e-01 +7.2515130554897107e+00 +4.5854627260893084e+00 -1.1977163208356185e+02 +1.3574423745995848e+03 +2.8996528187598148e+05 +5.0576617474007513e+06 
+4.0499999999999936e+00 -5.4998560738773505e-01 +7.2526642884683223e+00 +4.5632636372397313e+00 -1.1975418899687136e+02 +1.3089261212184324e+03 +2.9098214328234637e+05 +5.3389234145470820e+06 
+4.0999999999999934e+00 -5.5000673583983095e-01 +7.2538300583854145e+00 +4.5406390677442721e+00 -1.1969639763710073e+02 +1.2642677372155574e+03 +2.9172411673702061e+05 +5.5953851785975741e+06 
+4.1499999999999932e+00 -5.5002817730091980e-01 +7.2550102236631986e+00 +4.5176006942037477e+00 -1.1959995035835793e+02 +1.2232480939947984e+03 +2.9220358696375479e+05 +5.8285183432821808e+06 
+4.1999999999999931e+00 -5.5004992915499917e-01 +7.2562046427230475e+00 +4.4941601942833467e+00 -1.1946653947379009e+02 +1.1856480410376530e+03 +2.9243293816070893e+05 +6.0397943477690024e+06 
+4.2499999999999929e+00 -5.5007198878605923e-01 +7.2574131739859151e+00 +4.4703292438330147e+00 -1.1929785727934113e+02 +1.1512484750535502e+03 +2.9242455439833982e+05 +6.2306843177907038e+06 
+4.2999999999999927e+00 -5.5009435357810121e-01 +7.2586356758712984e+00 +4.4461195195557499e+00 -1.1909559599734963e+02 +1.1198302716485898e+03 +2.9219081908858859e+05 +6.4026595117457081e+06 
+4.3499999999999925e+00 -5.5011702091513937e-01 +7.2598720068023637e+00 +4.4215426997921794e+00 -1.1886144799663478e+02 +1.0911742643532698e+03 +2.9174411683668324e+05 +6.5571914605985330e+06 
+4.3999999999999924e+00 -5.5013998818118515e-01 +7.2611220251984596e+00 +4.3966104616797299e+00 -1.1859710547943712e+02 +1.0650613200389755e+03 +2.9109683084618521e+05 +6.6957514650070565e+06 
+4.4499999999999922e+00 -5.5016325276026845e-01 +7.2623855894794120e+00 +4.3713344849295588e+00 -1.1830426065622126e+02 +1.0412722350337626e+03 +2.9026134432802041e+05 +6.8198113074232982e+06 
+4.4999999999999920e+00 -5.5018681203639752e-01 +7.2636625580672458e+00 +4.3457264446620218e+00 -1.1798460582931776e+02 +1.0195879342717999e+03 +2.8925004126814799e+05 +6.9308418769940743e+06 
+4.5499999999999918e+00 -5.5021066339362290e-01 +7.2649527893794854e+00 +4.3197980228852106e+00 -1.1763983310524442e+02 +9.9978915794362842e+02 +2.8807530398670794e+05 +7.0303153054262036e+06 
+4.5999999999999917e+00 -5.5023480421596516e-01 +7.2662561418364939e+00 +4.2935608960482119e+00 -1.1727163469468253e+02 +9.8165679334141896e+02 +2.8674951560522243e+05 +7.1197027409655135e+06 
+4.6499999999999915e+00 -5.5025923188746995e-01 +7.2675724738561538e+00 +4.2670267440136929e+00 -1.1688170270930864e+02 +9.6497164327851601e+02 +2.8528505844088341e+05 +7.2004758686144073e+06 
+4.6999999999999913e+00 -5.5028394379219081e-01 +7.2689016438596878e+00 +4.2402072480870201e+00 -1.1647172938218749e+02 +9.4951446730862529e+02 +2.8369431573085778e+05 +7.2741066816236163e+06 
+4.7499999999999911e+00 -5.5030893731416863e-01 +7.2702435102631382e+00 +4.2131140864180603e+00 -1.1604340674429471e+02 +9.3506611682317441e+02 +2.8198966908630548e+05 +7.3420665233609658e+06 
+4.7999999999999909e+00 -5.5033420983746240e-01 +7.2715979314853900e+00 +4.1857589401505573e+00 -1.1559842691079339e+02 +9.2140736287497714e+02 +2.8018350066088914e+05 +7.4058272752245525e+06 
+4.8499999999999908e+00 -5.5035975874613219e-01 +7.2729647659448577e+00 +4.1581534905329383e+00 -1.1513848199567985e+02 +9.0831897198143463e+02 +2.7828819266499567e+05 +7.4668608541293442e+06 
+4.8999999999999906e+00 -5.5038558142423699e-01 +7.2743438720560789e+00 +4.1303094180865818e+00 -1.1466526393540188e+02 +8.9558173586244948e+02 +2.7631612575805094e+05 +7.5266389812694862e+06 
+4.9499999999999904e+00 -5.5041167525584422e-01 +7.2757351082382424e+00 +4.1022384043987152e+00 -1.1418046486135161e+02 +8.8297641853133644e+02 +2.7427968219867459e+05 +7.5866335593749816e+06 
+4.9999999999999902e+00 -5.5043803762502841e-01 +7.2771383329074650e+00 +4.0739521324323702e+00 -1.1368577676771591e+02 +8.7028374893380669e+02 +2.7219124305085978e+05 +7.6483167151093083e+06 
+5.0499999999999901e+00 -5.5046466591586185e-01 +7.2785534044783828e+00 +4.0454622846536257e+00 -1.1318289158111889e+02 +8.5728446684334665e+02 +2.7006318877713295e+05 +7.7131605127280029e+06 
