# field on trajectory
# s[mm] rx[mm] ry[mm] rz[mm] bx[T] by[T] bz[T]
0.0000000000000000e+00 +8.5269999999999992e+00 +0.0000000000000000e+00 +0.0000000000000000e+00 -3.0485521869949992e-02 -5.7806678062465644e-01 +4.9933440559238847e-03
5.0000000000000003e-02 +8.5269999309633011e+00 +0.0000000000000000e+00 +4.9999999999936449e-02 -3.0486854883103265e-02 -5.7806669668242461e-01 +4.9933912697193699e-03
1.0000000000000001e-01 +8.5269997238532032e+00 +0.0000000000000000e+00 +9.9999999999491621e-02 -3.0488209642057777e-02 -5.7806701115972459e-01 +4.9934551715043662e-03
1.5000000000000002e-01 +8.5269993786696290e+00 +0.0000000000000000e+00 +1.4999999999828423e-01 -3.0489586041891930e-02 -5.7806772301621745e-01 +4.9935357925948365e-03
2.0000000000000001e-01 +8.5269988954124099e+00 +0.0000000000000000e+00 +1.9999999999593296e-01 -3.0490983977685134e-02 -5.7806883121158292e-01 +4.9936331643075762e-03
2.5000000000000000e-01 +8.5269982740812811e+00 +0.0000000000000000e+00 +2.4999999999205655e-01 -3.0492403344517936e-02 -5.7807033470552072e-01 +4.9937473179602161e-03
2.9999999999999999e-01 +8.5269975146758838e+00 +0.0000000000000000e+00 +2.9999999998627369e-01 -3.0493844037471868e-02 -5.7807223245774941e-01 +4.9938782848712223e-03
3.4999999999999998e-01 +8.5269966171957634e+00 +0.0000000000000000e+00 +3.4999999997820308e-01 -3.0495305951629470e-02 -5.7807452342800569e-01 +4.9940260963598953e-03
3.9999999999999997e-01 +8.5269955816403744e+00 +0.0000000000000000e+00 +3.9999999996746344e-01 -3.0496788982074235e-02 -5.7807720657604578e-01 +4.9941907837463646e-03
4.4999999999999996e-01 +8.5269944080090756e+00 +0.0000000000000000e+00 +4.4999999995367346e-01 -3.0498293023890625e-02 -5.7808028086164398e-01 +4.9943723783516048e-03
4.9999999999999994e-01 +8.5269930963011316e+00 +0.0000000000000000e+00 +4.9999999993645178e-01 -3.0499817972163935e-02 -5.7808374524459338e-01 +4.9945709114974134e-03
5.4999999999999993e-01 +8.5269916465157163e+00 +0.0000000000000000e+00 +5.4999999991541715e-01 -3.0501363721980430e-02 -5.7808759868470516e-01 +4.9947864145064328e-03
5.9999999999999998e-01 +8.5269900586519078e+00 +0.0000000000000000e+00 +5.9999999989018815e-01 -3.0502930168427166e-02 -5.7809184014180837e-01 +4.9950189187021373e-03
6.5000000000000002e-01 +8.5269883327086937e+00 +0.0000000000000000e+00 +6.4999999986038348e-01 -3.0504517206592009e-02 -5.7809646857575070e-01 +4.9952684554088302e-03
7.0000000000000007e-01 +8.5269864686849690e+00 +0.0000000000000000e+00 +6.9999999982562178e-01 -3.0506124731563666e-02 -5.7810148294639785e-01 +4.9955350559516666e-03
7.5000000000000011e-01 +8.5269844665795365e+00 +0.0000000000000000e+00 +7.4999999978552156e-01 -3.0507752638431512e-02 -5.7810688221363227e-01 +4.9958187516566162e-03
8.0000000000000016e-01 +8.5269823263911046e+00 +0.0000000000000000e+00 +7.9999999973970159e-01 -3.0509400822285718e-02 -5.7811266533735517e-01 +4.9961195738505030e-03
8.5000000000000020e-01 +8.5269800481182951e+00 +0.0000000000000000e+00 +8.4999999968778039e-01 -3.0511069178217123e-02 -5.7811883127748431e-01 +4.9964375538609747e-03
9.0000000000000024e-01 +8.5269776317596317e+00 +0.0000000000000000e+00 +8.9999999962937660e-01 -3.0512757601317237e-02 -5.7812537899395589e-01 +4.9967727230165269e-03
9.5000000000000029e-01 +8.5269750773135531e+00 +0.0000000000000000e+00 +9.4999999956410874e-01 -3.0514465986678195e-02 -5.7813230744672206e-01 +4.9971251126464805e-03
1.0000000000000002e+00 +8.5269723847784036e+00 +0.0000000000000000e+00 +9.9999999949159535e-01 -3.0516194229392755e-02 -5.7813961559575400e-01 +4.9974947540810007e-03
1.0500000000000003e+00 +8.5269695541524371e+00 +0.0000000000000000e+00 +1.0499999994114551e+00 -3.0517942224554232e-02 -5.7814730240103684e-01 +4.9978816786510859e-03
1.1000000000000003e+00 +8.5269665854338186e+00 +0.0000000000000000e+00 +1.0999999993233063e+00 -3.0519709867256488e-02 -5.7815536682257562e-01 +4.9982859176885717e-03
1.1500000000000004e+00 +8.5269634786206225e+00 +0.0000000000000000e+00 +1.1499999992267675e+00 -3.0521497052593927e-02 -5.7816380782039056e-01 +4.9987075025261386e-03
1.2000000000000004e+00 +8.5269602337108310e+00 +0.0000000000000000e+00 +1.1999999991214572e+00 -3.0523303675661372e-02 -5.7817262435451822e-01 +4.9991464644972934e-03
1.2500000000000004e+00 +8.5269568507023390e+00 +0.0000000000000000e+00 +1.2499999990069939e+00 -3.0525129631554165e-02 -5.7818181538501279e-01 +4.9996028349363879e-03
1.3000000000000005e+00 +8.5269533295929509e+00 +0.0000000000000000e+00 +1.2999999988829958e+00 -3.0526974815368070e-02 -5.7819137987194336e-01 +5.0000766451786102e-03
1.3500000000000005e+00 +8.5269496703803824e+00 +0.0000000000000000e+00 +1.3499999987490816e+00 -3.0528839122199190e-02 -5.7820131677539599e-01 +5.0005679265599842e-03
1.4000000000000006e+00 +8.5269458730622603e+00 +0.0000000000000000e+00 +1.3999999986048695e+00 -3.0530722447144037e-02 -5.7821162505547297e-01 +5.0010767104173804e-03
1.4500000000000006e+00 +8.5269419376361224e+00 +0.0000000000000000e+00 +1.4499999984499778e+00 -3.0532624685299440e-02 -5.7822230367229144e-01 +5.0016030280884962e-03
1.5000000000000007e+00 +8.5269378640994180e+00 +0.0000000000000000e+00 +1.4999999982840249e+00 -3.0534545731762546e-02 -5.7823335158598554e-01 +5.0021469109118762e-03
1.5500000000000007e+00 +8.5269336524495092e+00 +0.0000000000000000e+00 +1.5499999981066290e+00 -3.0536485481630758e-02 -5.7824476775670453e-01 +5.0027083902269009e-03
1.6000000000000008e+00 +8.5269293026836692e+00 +0.0000000000000000e+00 +1.5999999979174084e+00 -3.0538443830001732e-02 -5.7825655114461294e-01 +5.0032874973737962e-03
1.6500000000000008e+00 +8.5269248147990826e+00 +0.0000000000000000e+00 +1.6499999977159814e+00 -3.0540420671973337e-02 -5.7826870070989100e-01 +5.0038842636936139e-03
1.7000000000000008e+00 +8.5269201887928467e+00 +0.0000000000000000e+00 +1.6999999975019662e+00 -3.0542415902643626e-02 -5.7828121541273370e-01 +5.0044987205282599e-03
1.7500000000000009e+00 +8.5269154246619738e+00 +0.0000000000000000e+00 +1.7499999972749809e+00 -3.0544429417110788e-02 -5.7829409421335187e-01 +5.0051308992204733e-03
1.8000000000000009e+00 +8.5269105224033872e+00 +0.0000000000000000e+00 +1.7999999970346436e+00 -3.0546461110473173e-02 -5.7830733607197082e-01 +5.0057808311138336e-03
1.8500000000000010e+00 +8.5269054820139250e+00 +0.0000000000000000e+00 +1.8499999967805725e+00 -3.0548510877829185e-02 -5.7832093994883094e-01 +5.0064485475527637e-03
1.9000000000000010e+00 +8.5269003034903381e+00 +0.0000000000000000e+00 +1.8999999965123855e+00 -3.0550578614277287e-02 -5.7833490480418637e-01 +5.0071340798825215e-03
1.9500000000000011e+00 +8.5268949868292889e+00 +0.0000000000000000e+00 +1.9499999962297008e+00 -3.0552664214916023e-02 -5.7834922959830759e-01 +5.0078374594492124e-03
2.0000000000000009e+00 +8.5268895320273579e+00 +0.0000000000000000e+00 +1.9999999959321362e+00 -3.0554767574843891e-02 -5.7836391329147785e-01 +5.0085587175997771e-03
2.0500000000000007e+00 +8.5268839390810367e+00 +0.0000000000000000e+00 +2.0499999956193098e+00 -3.0556888579020513e-02 -5.7837895468559020e-01 +5.0092978674053986e-03
2.1000000000000005e+00 +8.5268782079867336e+00 +0.0000000000000000e+00 +2.0999999952908395e+00 -3.0559027071850282e-02 -5.7839435194892952e-01 +5.0100548488315908e-03
2.1500000000000004e+00 +8.5268723387407697e+00 +0.0000000000000000e+00 +2.1499999949463433e+00 -3.0561182887599722e-02 -5.7841010309138763e-01 +5.0108295835678924e-03
2.2000000000000002e+00 +8.5268663313393844e+00 +0.0000000000000000e+00 +2.1999999945854385e+00 -3.0563355860536465e-02 -5.7842620612286788e-01 +5.0116219933044222e-03
2.2500000000000000e+00 +8.5268601857787303e+00 +0.0000000000000000e+00 +2.2499999942077435e+00 -3.0565545824929253e-02 -5.7844265905328607e-01 +5.0124319997318870e-03
2.2999999999999998e+00 +8.5268539020548797e+00 +0.0000000000000000e+00 +2.2999999938128757e+00 -3.0567752615048033e-02 -5.7845945989256897e-01 +5.0132595245415577e-03
2.3499999999999996e+00 +8.5268474801638181e+00 +0.0000000000000000e+00 +2.3499999934004530e+00 -3.0569976065163991e-02 -5.7847660665065481e-01 +5.0141044894252652e-03
2.3999999999999995e+00 +8.5268409201014492e+00 +0.0000000000000000e+00 +2.3999999929700930e+00 -3.0572216009549565e-02 -5.7849409733749302e-01 +5.0149668160753749e-03
2.4499999999999993e+00 +8.5268342218635969e+00 +0.0000000000000000e+00 +2.4499999925214131e+00 -3.0574472282478483e-02 -5.7851192996304313e-01 +5.0158464261847793e-03
2.4999999999999991e+00 +8.5268273854460013e+00 +0.0000000000000000e+00 +2.4999999920540312e+00 -3.0576744718225825e-02 -5.7853010253727633e-01 +5.0167432414468848e-03
2.5499999999999989e+00 +8.5268204108443211e+00 +0.0000000000000000e+00 +2.5499999915675646e+00 -3.0579033151068021e-02 -5.7854861307017247e-01 +5.0176571835555970e-03
2.5999999999999988e+00 +8.5268132980541367e+00 +0.0000000000000000e+00 +2.5999999910616309e+00 -3.0581337415282930e-02 -5.7856745957172317e-01 +5.0185881742053073e-03
2.6499999999999986e+00 +8.5268060470709450e+00 +0.0000000000000000e+00 +2.6499999905358473e+00 -3.0583657345149874e-02 -5.7858664005192895e-01 +5.0195361350908775e-03
2.6999999999999984e+00 +8.5267986578901667e+00 +0.0000000000000000e+00 +2.6999999899898315e+00 -3.0585992774949635e-02 -5.7860615252079972e-01 +5.0205009879076340e-03
2.7499999999999982e+00 +8.5267911305071404e+00 +0.0000000000000000e+00 +2.7499999894232006e+00 -3.0588343538964544e-02 -5.7862599498835510e-01 +5.0214826543513386e-03
2.7999999999999980e+00 +8.5267834649171252e+00 +0.0000000000000000e+00 +2.7999999888355718e+00 -3.0590709471478510e-02 -5.7864616546462400e-01 +5.0224810561181974e-03
2.8499999999999979e+00 +8.5267756611153054e+00 +0.0000000000000000e+00 +2.8499999882265628e+00 -3.0593090406776990e-02 -5.7866666195964334e-01 +5.0234961149048206e-03
2.8999999999999977e+00 +8.5267677190967852e+00 +0.0000000000000000e+00 +2.8999999875957903e+00 -3.0595486179147147e-02 -5.7868748248345969e-01 +5.0245277524082355e-03
2.9499999999999975e+00 +8.5267596388565909e+00 +0.0000000000000000e+00 +2.9499999869428715e+00 -3.0597896622877787e-02 -5.7870862504612719e-01 +5.0255758903258547e-03
2.9999999999999973e+00 +8.5267514203896724e+00 +0.0000000000000000e+00 +2.9999999862674236e+00 -3.0600321572259434e-02 -5.7873008765770850e-01 +5.0266404503554662e-03
3.0499999999999972e+00 +8.5267430636909047e+00 +0.0000000000000000e+00 +3.0499999855690634e+00 -3.0602760861584363e-02 -5.7875186832827352e-01 +5.0277213541952224e-03
3.0999999999999970e+00 +8.5267345687550851e+00 +0.0000000000000000e+00 +3.0999999848474080e+00 -3.0605214325146676e-02 -5.7877396506790091e-01 +5.0288185235436303e-03
3.1499999999999968e+00 +8.5267259355769358e+00 +0.0000000000000000e+00 +3.1499999841020743e+00 -3.0607681797242270e-02 -5.7879637588667565e-01 +5.0299318800995320e-03
3.1999999999999966e+00 +8.5267171641511030e+00 +0.0000000000000000e+00 +3.1999999833326793e+00 -3.0610163112168926e-02 -5.7881909879469062e-01 +5.0310613455620910e-03
3.2499999999999964e+00 +8.5267082544721600e+00 +0.0000000000000000e+00 +3.2499999825388395e+00 -3.0612658104226333e-02 -5.7884213180204480e-01 +5.0322068416307798e-03
3.2999999999999963e+00 +8.5266992065346052e+00 +0.0000000000000000e+00 +3.2999999817201719e+00 -3.0615166607716123e-02 -5.7886547291884494e-01 +5.0333682900053711e-03
3.3499999999999961e+00 +8.5266900203328646e+00 +0.0000000000000000e+00 +3.3499999808762930e+00 -3.0617688456941891e-02 -5.7888912015520300e-01 +5.0345456123859168e-03
3.3999999999999959e+00 +8.5266806958612893e+00 +0.0000000000000000e+00 +3.3999999800068195e+00 -3.0620223486209307e-02 -5.7891307152123817e-01 +5.0357387304727384e-03
3.4499999999999957e+00 +8.5266712331141576e+00 +0.0000000000000000e+00 +3.4499999791113676e+00 -3.0622771529826041e-02 -5.7893732502707440e-01 +5.0369475659664126e-03
3.4999999999999956e+00 +8.5266616320856770e+00 +0.0000000000000000e+00 +3.4999999781895541e+00 -3.0625332422101897e-02 -5.7896187868284277e-01 +5.0381720405677597e-03
3.5499999999999954e+00 +8.5266518927699835e+00 +0.0000000000000000e+00 +3.5499999772409954e+00 -3.0627905997348801e-02 -5.7898673049867888e-01 +5.0394120759778283e-03
3.5999999999999952e+00 +8.5266420151611424e+00 +0.0000000000000000e+00 +3.5999999762653077e+00 -3.0630492089880869e-02 -5.7901187848472369e-01 +5.0406675938978783e-03
3.6499999999999950e+00 +8.5266319992531443e+00 +0.0000000000000000e+00 +3.6499999752621077e+00 -3.0633090534014383e-02 -5.7903732065112334e-01 +5.0419385160293739e-03
3.6999999999999948e+00 +8.5266218450399140e+00 +0.0000000000000000e+00 +3.6999999742310115e+00 -3.0635701164067955e-02 -5.7906305500802857e-01 +5.0432247640739697e-03
3.7499999999999947e+00 +8.5266115525153054e+00 +0.0000000000000000e+00 +3.7499999731716347e+00 -3.0638323814362389e-02 -5.7908907956559430e-01 +5.0445262597334870e-03
3.7999999999999945e+00 +8.5266011216731030e+00 +0.0000000000000000e+00 +3.7999999720835942e+00 -3.0640958319220899e-02 -5.7911539233398013e-01 +5.0458429247099137e-03
3.8499999999999943e+00 +8.5265905525070202e+00 +0.0000000000000000e+00 +3.8499999709665054e+00 -3.0643604512969019e-02 -5.7914199132334987e-01 +5.0471746807053816e-03
3.8999999999999941e+00 +8.5265798450107049e+00 +0.0000000000000000e+00 +3.8999999698199845e+00 -3.0646262229934686e-02 -5.7916887454387034e-01 +5.0485214494221586e-03
3.9499999999999940e+00 +8.5265689991777354e+00 +0.0000000000000000e+00 +3.9499999686436476e+00 -3.0648931304448308e-02 -5.7919604000571268e-01 +5.0498831525626316e-03
3.9999999999999938e+00 +8.5265580150016227e+00 +0.0000000000000000e+00 +3.9999999674371103e+00 -3.0651611570842716e-02 -5.7922348571905069e-01 +5.0512597118292906e-03
4.0499999999999936e+00 +8.5265468924758139e+00 +0.0000000000000000e+00 +4.0499999661999881e+00 -3.0654302881772361e-02 -5.7925120956892961e-01 +5.0526510478298104e-03
4.0999999999999934e+00 +8.5265356315936849e+00 +0.0000000000000000e+00 +4.0999999649318974e+00 -3.0657005163169337e-02 -5.7927920893986995e-01 +5.0540570767924941e-03
4.1499999999999932e+00 +8.5265242323485495e+00 +0.0000000000000000e+00 +4.1499999636324532e+00 -3.0659718359284240e-02 -5.7930748109126273e-01 +5.0554777138513678e-03
4.1999999999999931e+00 +8.5265126947336540e+00 +0.0000000000000000e+00 +4.1999999623012716e+00 -3.0662442414366661e-02 -5.7933602328250222e-01 +5.0569128741411546e-03
4.2499999999999929e+00 +8.5265010187421808e+00 +0.0000000000000000e+00 +4.2499999609379682e+00 -3.0665177272665149e-02 -5.7936483277298512e-01 +5.0583624727972842e-03
4.2999999999999927e+00 +8.5264892043672500e+00 +0.0000000000000000e+00 +4.2999999595421574e+00 -3.0667922878427081e-02 -5.7939390682210978e-01 +5.0598264249558924e-03
4.3499999999999925e+00 +8.5264772516019161e+00 +0.0000000000000000e+00 +4.3499999581134556e+00 -3.0670679175898673e-02 -5.7942324268927825e-01 +5.0613046457538315e-03
4.3999999999999924e+00 +8.5264651604391730e+00 +0.0000000000000000e+00 +4.3999999566514774e+00 -3.0673446109324896e-02 -5.7945283763389377e-01 +5.0627970503286726e-03
4.4499999999999922e+00 +8.5264529308719510e+00 +0.0000000000000000e+00 +4.4499999551558380e+00 -3.0676223622949337e-02 -5.7948268891536114e-01 +5.0643035538187105e-03
4.4999999999999920e+00 +8.5264405628931215e+00 +0.0000000000000000e+00 +4.4999999536261530e+00 -3.0679011661014180e-02 -5.7951279379308673e-01 +5.0658240713629711e-03
4.5499999999999918e+00 +8.5264280564954937e+00 +0.0000000000000000e+00 +4.5499999520620369e+00 -3.0681810167760174e-02 -5.7954314952647823e-01 +5.0673585181012174e-03
4.5999999999999917e+00 +8.5264154116718167e+00 +0.0000000000000000e+00 +4.5999999504631051e+00 -3.0684619087426524e-02 -5.7957375337494532e-01 +5.0689068091739568e-03
4.6499999999999915e+00 +8.5264026284147807e+00 +0.0000000000000000e+00 +4.6499999488289721e+00 -3.0687438364250794e-02 -5.7960460259789670e-01 +5.0704688597224320e-03
4.6999999999999913e+00 +8.5263897067170191e+00 +0.0000000000000000e+00 +4.6999999471592533e+00 -3.0690267942468867e-02 -5.7963569445474361e-01 +5.0720445848886526e-03
4.7499999999999911e+00 +8.5263766465711033e+00 +0.0000000000000000e+00 +4.7499999454535633e+00 -3.0693107766314925e-02 -5.7966702620489596e-01 +5.0736338998153751e-03
4.7999999999999909e+00 +8.5263634479695511e+00 +0.0000000000000000e+00 +4.7999999437115166e+00 -3.0695957780021300e-02 -5.7969859510776522e-01 +5.0752367196461269e-03
4.8499999999999908e+00 +8.5263501109048221e+00 +0.0000000000000000e+00 +4.8499999419327278e+00 -3.0698817927818440e-02 -5.7973039842276186e-01 +5.0768529595251995e-03
4.8999999999999906e+00 +8.5263366353693204e+00 +0.0000000000000000e+00 +4.8999999401168113e+00 -3.0701688153934849e-02 -5.7976243340929656e-01 +5.0784825345976609e-03
4.9499999999999904e+00 +8.5263230213553935e+00 +0.0000000000000000e+00 +4.9499999382633817e+00 -3.0704568402597002e-02 -5.7979469732677902e-01 +5.0801253600093526e-03
4.9999999999999902e+00 +8.5263092688553357e+00 +0.0000000000000000e+00 +4.9999999363720535e+00 -3.0707458618029298e-02 -5.7982718743461870e-01 +5.0817813509069099e-03
5.0499999999999901e+00 +8.5262953778613877e+00 +0.0000000000000000e+00 +5.0499999344424404e+00 -3.0710358744453933e-02 -5.7985990099222406e-01 +5.0834504224377556e-03
5.0999999999999899e+00 +8.5262813483657336e+00 +0.0000000000000000e+00 +5.0999999324741569e+00 -3.0713268726090918e-02 -5.7989283525900159e-01 +5.0851324897501042e-03
5.1499999999999897e+00 +8.5262671803605095e+00 +0.0000000000000000e+00 +5.1499999304668176e+00 -3.0716188507157974e-02 -5.7992598749435720e-01 +5.0868274679929746e-03
5.1999999999999895e+00 +8.5262528738377963e+00 +0.0000000000000000e+00 +5.1999999284200360e+00 -3.0719118031870416e-02 -5.7995935495769468e-01 +5.0885352723161956e-03
5.2499999999999893e+00 +8.5262384287896236e+00 +0.0000000000000000e+00 +5.2499999263334258e+00 -3.0722057244441148e-02 -5.7999293490841652e-01 +5.0902558178704035e-03
5.2999999999999892e+00 +8.5262238452079711e+00 +0.0000000000000000e+00 +5.2999999242066016e+00 -3.0725006089080548e-02 -5.8002672460592208e-01 +5.0919890198070535e-03
5.3499999999999890e+00 +8.5262091230847687e+00 +0.0000000000000000e+00 +5.3499999220391761e+00 -3.0727964509996444e-02 -5.8006072130960951e-01 +5.0937347932784255e-03
5.3999999999999888e+00 +8.5261942624118952e+00 +0.0000000000000000e+00 +5.3999999198307638e+00 -3.0730932451394022e-02 -5.8009492227887360e-01 +5.0954930534376245e-03
5.4499999999999886e+00 +8.5261792631811826e+00 +0.0000000000000000e+00 +5.4499999175809783e+00 -3.0733909857475754e-02 -5.8012932477310664e-01 +5.0972637154385958e-03
5.4999999999999885e+00 +8.5261641253844136e+00 +0.0000000000000000e+00 +5.4999999152894334e+00 -3.0736896672441314e-02 -5.8016392605169775e-01 +5.0990466944361183e-03
5.5499999999999883e+00 +8.5261488490133246e+00 +0.0000000000000000e+00 +5.5499999129557427e+00 -3.0739892840487545e-02 -5.8019872337403311e-01 +5.1008419055858165e-03
5.5999999999999881e+00 +8.5261334340596040e+00 +0.0000000000000000e+00 +5.5999999105795188e+00 -3.0742898305808373e-02 -5.8023371399949497e-01 +5.1026492640441710e-03
5.6499999999999879e+00 +8.5261178805148923e+00 +0.0000000000000000e+00 +5.6499999081603756e+00 -3.0745913012594737e-02 -5.8026889518746239e-01 +5.1044686849685134e-03
5.6999999999999877e+00 +8.5261021883707890e+00 +0.0000000000000000e+00 +5.6999999056979256e+00 -3.0748936905034503e-02 -5.8030426419731007e-01 +5.1063000835170329e-03
5.7499999999999876e+00 +8.5260863576188459e+00 +0.0000000000000000e+00 +5.7499999031917826e+00 -3.0751969927312436e-02 -5.8033981828840875e-01 +5.1081433748487934e-03
5.7999999999999874e+00 +8.5260703882505702e+00 +0.0000000000000000e+00 +5.7999999006415592e+00 -3.0755012023610098e-02 -5.8037555472012492e-01 +5.1099984741237283e-03
5.8499999999999872e+00 +8.5260542802574264e+00 +0.0000000000000000e+00 +5.8499998980468684e+00 -3.0758063138105772e-02 -5.8041147075181987e-01 +5.1118652965026446e-03
5.8999999999999870e+00 +8.5260380336308366e+00 +0.0000000000000000e+00 +5.8999998954073236e+00 -3.0761123214974446e-02 -5.8044756364285088e-01 +5.1137437571472386e-03
