# field on trajectory
# s[mm] rx[mm] ry[mm] rz[mm] bx[T] by[T] bz[T]
0.0000000000000000e+00 +8.5389999999999997e+00 +0.0000000000000000e+00 +0.0000000000000000e+00 -3.0628967114340717e-02 -5.7697538177868135e-01 +5.6145142799638673e-03
-5.0000000000000003e-02 +8.5389999310818734e+00 +0.0000000000000000e+00 -4.9999999999936671e-02 -3.0629423664899590e-02 -5.7698346650158350e-01 +5.6161675444916966e-03
-1.0000000000000001e-01 +8.5389997243261924e+00 +0.0000000000000000e+00 -9.9999999999493355e-02 -3.0629903377937900e-02 -5.7699194943352006e-01 +5.6178233255577076e-03
-1.5000000000000002e-01 +8.5389993797309298e+00 +0.0000000000000000e+00 -1.4999999999829006e-01 -3.0630406292592952e-02 -5.7700082880502324e-01 +5.6194814866253632e-03
-2.0000000000000001e-01 +8.5389988972939648e+00 +0.0000000000000000e+00 -1.9999999999594675e-01 -3.0630932448003443e-02 -5.7701010284664445e-01 +5.6211418911581296e-03
-2.5000000000000000e-01 +8.5389982770130821e+00 +0.0000000000000000e+00 -2.4999999999208344e-01 -3.0631481883309358e-02 -5.7701976978895286e-01 +5.6228044026194416e-03
-2.9999999999999999e-01 +8.5389975188859726e+00 +0.0000000000000000e+00 -2.9999999998632004e-01 -3.0632054637652017e-02 -5.7702982786253565e-01 +5.6244688844726953e-03
-3.4999999999999998e-01 +8.5389966229102328e+00 +0.0000000000000000e+00 -3.4999999997827647e-01 -3.0632650750174004e-02 -5.7704027529799840e-01 +5.6261352001812440e-03
-3.9999999999999997e-01 +8.5389955890833669e+00 +0.0000000000000000e+00 -3.9999999996757263e-01 -3.0633270260019149e-02 -5.7705111032596446e-01 +5.6278032132083735e-03
-4.4999999999999996e-01 +8.5389944174027868e+00 +0.0000000000000000e+00 -4.4999999995382844e-01 -3.0633913206332502e-02 -5.7706233117707395e-01 +5.6294727870172751e-03
-4.9999999999999994e-01 +8.5389931078658119e+00 +0.0000000000000000e+00 -4.9999999993666372e-01 -3.0634579628260356e-02 -5.7707393608198521e-01 +5.6311437850710567e-03
-5.4999999999999993e-01 +8.5389916604696694e+00 +0.0000000000000000e+00 -5.4999999991569837e-01 -3.0635269564950149e-02 -5.7708592327137309e-01 +5.6328160708327179e-03
-5.9999999999999998e-01 +8.5389900752114958e+00 +0.0000000000000000e+00 -5.9999999989055208e-01 -3.0635983055550500e-02 -5.7709829097592991e-01 +5.6344895077651185e-03
-6.5000000000000002e-01 +8.5389883520883370e+00 +0.0000000000000000e+00 -6.4999999986084467e-01 -3.0636720139211124e-02 -5.7711103742636416e-01 +5.6361639593309918e-03
-7.0000000000000007e-01 +8.5389864910971482e+00 +0.0000000000000000e+00 -6.9999999982619598e-01 -3.0637480855082864e-02 -5.7712416085340146e-01 +5.6378392889929012e-03
-7.5000000000000011e-01 +8.5389844922347944e+00 +0.0000000000000000e+00 -7.4999999978622567e-01 -3.0638265242317653e-02 -5.7713765948778384e-01 +5.6395153602132580e-03
-8.0000000000000016e-01 +8.5389823554980495e+00 +0.0000000000000000e+00 -7.9999999974055336e-01 -3.0639073340068448e-02 -5.7715153156026877e-01 +5.6411920364542708e-03
-8.5000000000000020e-01 +8.5389800808836007e+00 +0.0000000000000000e+00 -8.4999999968879880e-01 -3.0639905187489290e-02 -5.7716577530163038e-01 +5.6428691811779598e-03
-9.0000000000000024e-01 +8.5389776683880463e+00 +0.0000000000000000e+00 -8.9999999963058164e-01 -3.0640760823735166e-02 -5.7718038894265844e-01 +5.6445466578461233e-03
-9.5000000000000029e-01 +8.5389751180078939e+00 +0.0000000000000000e+00 -9.4999999956552139e-01 -3.0641640287962100e-02 -5.7719537071415850e-01 +5.6462243299203376e-03
-1.0000000000000002e+00 +8.5389724297395642e+00 +0.0000000000000000e+00 -9.9999999949323770e-01 -3.0642543619327060e-02 -5.7721071884695174e-01 +5.6479020608619264e-03
-1.0500000000000003e+00 +8.5389696035793907e+00 +0.0000000000000000e+00 -1.0499999994133500e+00 -3.0643470856987917e-02 -5.7722643157187348e-01 +5.6495797141319611e-03
-1.1000000000000003e+00 +8.5389666395236219e+00 +0.0000000000000000e+00 -1.0999999993254779e+00 -3.0644422040103488e-02 -5.7724250711977532e-01 +5.6512571531912338e-03
-1.1500000000000004e+00 +8.5389635375684154e+00 +0.0000000000000000e+00 -1.1499999992292407e+00 -3.0645397207833460e-02 -5.7725894372152309e-01 +5.6529342415002504e-03
-1.2000000000000004e+00 +8.5389602977098455e+00 +0.0000000000000000e+00 -1.1999999991242580e+00 -3.0646396399338392e-02 -5.7727573960799738e-01 +5.6546108425192167e-03
-1.2500000000000004e+00 +8.5389569199438995e+00 +0.0000000000000000e+00 -1.2499999990101491e+00 -3.0647419653779668e-02 -5.7729289301009346e-01 +5.6562868197080098e-03
-1.3000000000000005e+00 +8.5389534042664792e+00 +0.0000000000000000e+00 -1.2999999988865334e+00 -3.0648467010319494e-02 -5.7731040215872031e-01 +5.6579620365261847e-03
-1.3500000000000005e+00 +8.5389497506734031e+00 +0.0000000000000000e+00 -1.3499999987530302e+00 -3.0649538508120834e-02 -5.7732826528480152e-01 +5.6596363564329431e-03
-1.4000000000000006e+00 +8.5389459591604027e+00 +0.0000000000000000e+00 -1.3999999986092586e+00 -3.0650634186347465e-02 -5.7734648061927507e-01 +5.6613096428871209e-03
-1.4500000000000006e+00 +8.5389420297231275e+00 +0.0000000000000000e+00 -1.4499999984548380e+00 -3.0651754084163860e-02 -5.7736504639309083e-01 +5.6629817593471816e-03
-1.5000000000000007e+00 +8.5389379623571422e+00 +0.0000000000000000e+00 -1.4999999982893875e+00 -3.0652898240735200e-02 -5.7738396083721444e-01 +5.6646525692711953e-03
-1.5500000000000007e+00 +8.5389337570579276e+00 +0.0000000000000000e+00 -1.5499999981125261e+00 -3.0654066695227414e-02 -5.7740322218262308e-01 +5.6663219361168179e-03
-1.6000000000000008e+00 +8.5389294138208829e+00 +0.0000000000000000e+00 -1.5999999979238733e+00 -3.0655259486807029e-02 -5.7742282866030825e-01 +5.6679897233412949e-03
-1.6500000000000008e+00 +8.5389249326413239e+00 +0.0000000000000000e+00 -1.6499999977230477e+00 -3.0656476654641246e-02 -5.7744277850127368e-01 +5.6696557944014231e-03
-1.7000000000000008e+00 +8.5389203135144847e+00 +0.0000000000000000e+00 -1.6999999975096685e+00 -3.0657718237897875e-02 -5.7746306993653596e-01 +5.6713200127535566e-03
-1.7500000000000009e+00 +8.5389155564355175e+00 +0.0000000000000000e+00 -1.7499999972833546e+00 -3.0658984275745316e-02 -5.7748370119712467e-01 +5.6729822418535728e-03
-1.8000000000000009e+00 +8.5389106613994947e+00 +0.0000000000000000e+00 -1.7999999970437250e+00 -3.0660274807352519e-02 -5.7750467051408072e-01 +5.6746423451568776e-03
-1.8500000000000010e+00 +8.5389056284014071e+00 +0.0000000000000000e+00 -1.8499999967903984e+00 -3.0661589871889022e-02 -5.7752597611845879e-01 +5.6763001861183738e-03
-1.9000000000000010e+00 +8.5389004574361653e+00 +0.0000000000000000e+00 -1.8999999965229937e+00 -3.0662929508524821e-02 -5.7754761624132400e-01 +5.6779556281924548e-03
-1.9500000000000011e+00 +8.5388951484985984e+00 +0.0000000000000000e+00 -1.9499999962411296e+00 -3.0664293756430462e-02 -5.7756958911375422e-01 +5.6796085348329896e-03
-2.0000000000000009e+00 +8.5388897015834573e+00 +0.0000000000000000e+00 -1.9999999959444250e+00 -3.0665682654776906e-02 -5.7759189296683866e-01 +5.6812587694933039e-03
-2.0500000000000007e+00 +8.5388841166854146e+00 +0.0000000000000000e+00 -2.0499999956324984e+00 -3.0667096173137936e-02 -5.7761452588760509e-01 +5.6829062067800312e-03
-2.1000000000000005e+00 +8.5388783937990631e+00 +0.0000000000000000e+00 -2.0999999953049682e+00 -3.0668534002697007e-02 -5.7763748538680182e-01 +5.6845507659148350e-03
-2.1500000000000004e+00 +8.5388725329189192e+00 +0.0000000000000000e+00 -2.1499999949614530e+00 -3.0669995765040269e-02 -5.7766076883111317e-01 +5.6861923772729764e-03
-2.2000000000000002e+00 +8.5388665340394194e+00 +0.0000000000000000e+00 -2.1999999946015718e+00 -3.0671481081754201e-02 -5.7768437358723324e-01 +5.6878309712294879e-03
-2.2500000000000000e+00 +8.5388603971549255e+00 +0.0000000000000000e+00 -2.2499999942249422e+00 -3.0672989574425609e-02 -5.7770829702186532e-01 +5.6894664781591787e-03
-2.2999999999999998e+00 +8.5388541222597212e+00 +0.0000000000000000e+00 -2.2999999938311833e+00 -3.0674520864641546e-02 -5.7773253650171963e-01 +5.6910988284366269e-03
-2.3499999999999996e+00 +8.5388477093480173e+00 +0.0000000000000000e+00 -2.3499999934199129e+00 -3.0676074573989347e-02 -5.7775708939351678e-01 +5.6927279524361966e-03
-2.3999999999999995e+00 +8.5388411584139483e+00 +0.0000000000000000e+00 -2.3999999929907498e+00 -3.0677650324056591e-02 -5.7778195306398328e-01 +5.6943537805320514e-03
-2.4499999999999993e+00 +8.5388344694515741e+00 +0.0000000000000000e+00 -2.4499999925433116e+00 -3.0679247736431020e-02 -5.7780712487985431e-01 +5.6959762430981390e-03
-2.4999999999999991e+00 +8.5388276424548817e+00 +0.0000000000000000e+00 -2.4999999920772167e+00 -3.0680866432700613e-02 -5.7783260220787236e-01 +5.6975952705082093e-03
-2.5499999999999989e+00 +8.5388206774177835e+00 +0.0000000000000000e+00 -2.5499999915920832e+00 -3.0682506034453449e-02 -5.7785838241478671e-01 +5.6992107931358223e-03
-2.5999999999999988e+00 +8.5388135743341227e+00 +0.0000000000000000e+00 -2.5999999910875293e+00 -3.0684166163277762e-02 -5.7788446286735351e-01 +5.7008227413543489e-03
-2.6499999999999986e+00 +8.5388063331976678e+00 +0.0000000000000000e+00 -2.6499999905631730e+00 -3.0685846440761885e-02 -5.7791084093233547e-01 +5.7024310455369726e-03
-2.6999999999999984e+00 +8.5387989540021181e+00 +0.0000000000000000e+00 -2.6999999900186320e+00 -3.0687546488494200e-02 -5.7793751397650150e-01 +5.7040356360567070e-03
-2.7499999999999982e+00 +8.5387914367411017e+00 +0.0000000000000000e+00 -2.7499999894535239e+00 -3.0689265928063144e-02 -5.7796447936662598e-01 +5.7056364432863851e-03
-2.7999999999999980e+00 +8.5387837814081760e+00 +0.0000000000000000e+00 -2.7999999888674667e+00 -3.0691004381057208e-02 -5.7799173446948970e-01 +5.7072333975986848e-03
-2.8499999999999979e+00 +8.5387759879968304e+00 +0.0000000000000000e+00 -2.8499999882600782e+00 -3.0692761469064841e-02 -5.7801927665187758e-01 +5.7088264293661132e-03
-2.8999999999999977e+00 +8.5387680565004871e+00 +0.0000000000000000e+00 -2.8999999876309759e+00 -3.0694536813674463e-02 -5.7804710328058106e-01 +5.7104154689610288e-03
-2.9499999999999975e+00 +8.5387599869124955e+00 +0.0000000000000000e+00 -2.9499999869797775e+00 -3.0696330036474453e-02 -5.7807521172239484e-01 +5.7120004467556395e-03
-2.9999999999999973e+00 +8.5387517792261427e+00 +0.0000000000000000e+00 -2.9999999863061007e+00 -3.0698140759053080e-02 -5.7810359934411926e-01 +5.7135812931220047e-03
-3.0499999999999972e+00 +8.5387434334346466e+00 +0.0000000000000000e+00 -3.0499999856095625e+00 -3.0699968602998510e-02 -5.7813226351255809e-01 +5.7151579384320554e-03
-3.0999999999999970e+00 +8.5387349495311611e+00 +0.0000000000000000e+00 -3.0999999848897803e+00 -3.0701813189898786e-02 -5.7816120159451911e-01 +5.7167303130575813e-03
-3.1499999999999968e+00 +8.5387263275087708e+00 +0.0000000000000000e+00 -3.1499999841463717e+00 -3.0703674141341765e-02 -5.7819041095681356e-01 +5.7182983473702455e-03
-3.1999999999999966e+00 +8.5387175673605000e+00 +0.0000000000000000e+00 -3.1999999833789539e+00 -3.0705551078915115e-02 -5.7821988896625642e-01 +5.7198619717415983e-03
-3.2499999999999964e+00 +8.5387086690793055e+00 +0.0000000000000000e+00 -3.2499999825871440e+00 -3.0707443624206316e-02 -5.7824963298966525e-01 +5.7214211165430590e-03
-3.2999999999999963e+00 +8.5386996326580817e+00 +0.0000000000000000e+00 -3.2999999817705588e+00 -3.0709351398802553e-02 -5.7827964039386048e-01 +5.7229757121459541e-03
-3.3499999999999961e+00 +8.5386904580896612e+00 +0.0000000000000000e+00 -3.3499999809288159e+00 -3.0711274024290788e-02 -5.7830990854566500e-01 +5.7245256889214939e-03
-3.3999999999999959e+00 +8.5386811453668123e+00 +0.0000000000000000e+00 -3.3999999800615317e+00 -3.0713211122257653e-02 -5.7834043481190345e-01 +5.7260709772407881e-03
-3.4499999999999957e+00 +8.5386716944822432e+00 +0.0000000000000000e+00 -3.4499999791683238e+00 -3.0715162314289470e-02 -5.7837121655940282e-01 +5.7276115074748604e-03
-3.4999999999999956e+00 +8.5386621054285996e+00 +0.0000000000000000e+00 -3.4999999782488085e+00 -3.0717127221972226e-02 -5.7840225115499111e-01 +5.7291472099946419e-03
-3.5499999999999954e+00 +8.5386523781984689e+00 +0.0000000000000000e+00 -3.5499999773026025e+00 -3.0719105466891491e-02 -5.7843353596549785e-01 +5.7306780151709759e-03
-3.5999999999999952e+00 +8.5386425127843761e+00 +0.0000000000000000e+00 -3.5999999763293227e+00 -3.0721096670632476e-02 -5.7846506835775358e-01 +5.7322038533746417e-03
-3.6499999999999950e+00 +8.5386325091787896e+00 +0.0000000000000000e+00 -3.6499999753285857e+00 -3.0723100454779939e-02 -5.7849684569858983e-01 +5.7337246549763396e-03
-3.6999999999999948e+00 +8.5386223673741188e+00 +0.0000000000000000e+00 -3.6999999743000078e+00 -3.0725116440918198e-02 -5.7852886535483783e-01 +5.7352403503466978e-03
-3.7499999999999947e+00 +8.5386120873627132e+00 +0.0000000000000000e+00 -3.7499999732432054e+00 -3.0727144250631066e-02 -5.7856112469332888e-01 +5.7367508698562978e-03
-3.7999999999999945e+00 +8.5386016691368667e+00 +0.0000000000000000e+00 -3.7999999721577953e+00 -3.0729183505501849e-02 -5.7859362108089452e-01 +5.7382561438756524e-03
-3.8499999999999943e+00 +8.5385911126888150e+00 +0.0000000000000000e+00 -3.8499999710433932e+00 -3.0731233827113354e-02 -5.7862635188436595e-01 +5.7397561027752357e-03
-3.8999999999999941e+00 +8.5385804180107403e+00 +0.0000000000000000e+00 -3.8999999698996159e+00 -3.0733294837047804e-02 -5.7865931447057295e-01 +5.7412506769254773e-03
-3.9499999999999940e+00 +8.5385695850947698e+00 +0.0000000000000000e+00 -3.9499999687260794e+00 -3.0735366156886820e-02 -5.7869250620634483e-01 +5.7427397966967626e-03
-3.9999999999999938e+00 +8.5385586139329721e+00 +0.0000000000000000e+00 -3.9999999675223994e+00 -3.0737447408211424e-02 -5.7872592445850923e-01 +5.7442233924594440e-03
-4.0499999999999936e+00 +8.5385475045173642e+00 +0.0000000000000000e+00 -4.0499999662881923e+00 -3.0739538260617771e-02 -5.7875956651884097e-01 +5.7457014062647204e-03
-4.0999999999999934e+00 +8.5385362568399099e+00 +0.0000000000000000e+00 -4.0999999650230734e+00 -3.0741638575765191e-02 -5.7879342937891121e-01 +5.7471738268872804e-03
-4.1499999999999932e+00 +8.5385248708925197e+00 +0.0000000000000000e+00 -4.1499999637266596e+00 -3.0743748263329481e-02 -5.7882750995523902e-01 +5.7486406547825651e-03
-4.1999999999999931e+00 +8.5385133466670524e+00 +0.0000000000000000e+00 -4.1999999623985662e+00 -3.0745867232987074e-02 -5.7886180516434427e-01 +5.7501018904058633e-03
-4.2499999999999929e+00 +8.5385016841553139e+00 +0.0000000000000000e+00 -4.2499999610384087e+00 -3.0747995394415039e-02 -5.7889631192274638e-01 +5.7515575342122916e-03
-4.2999999999999927e+00 +8.5384898833490617e+00 +0.0000000000000000e+00 -4.2999999596458025e+00 -3.0750132657291103e-02 -5.7893102714696409e-01 +5.7530075866568230e-03
-4.3499999999999925e+00 +8.5384779442400038e+00 +0.0000000000000000e+00 -4.3499999582203630e+00 -3.0752278931293658e-02 -5.7896594775351606e-01 +5.7544520481942552e-03
-4.3999999999999924e+00 +8.5384658668197968e+00 +0.0000000000000000e+00 -4.3999999567617065e+00 -3.0754434126101782e-02 -5.7900107065891993e-01 +5.7558909192792461e-03
-4.4499999999999922e+00 +8.5384536510800508e+00 +0.0000000000000000e+00 -4.4499999552694476e+00 -3.0756598151395236e-02 -5.7903639277969210e-01 +5.7573242003662777e-03
-4.4999999999999920e+00 +8.5384412970123265e+00 +0.0000000000000000e+00 -4.4999999537432016e+00 -3.0758770916854510e-02 -5.7907191103234823e-01 +5.7587518919096931e-03
-4.5499999999999918e+00 +8.5384288046081398e+00 +0.0000000000000000e+00 -4.5499999521825840e+00 -3.0760952332160783e-02 -5.7910762233340185e-01 +5.7601739943636734e-03
-4.5999999999999917e+00 +8.5384161738589608e+00 +0.0000000000000000e+00 -4.5999999505872102e+00 -3.0763142306996005e-02 -5.7914352359936527e-01 +5.7615905081822476e-03
-4.6499999999999915e+00 +8.5384034047562114e+00 +0.0000000000000000e+00 -4.6499999489566948e+00 -3.0765340751042848e-02 -5.7917961174674870e-01 +5.7630014338192976e-03
-4.6999999999999913e+00 +8.5383904972912728e+00 +0.0000000000000000e+00 -4.6999999472906522e+00 -3.0767547573984769e-02 -5.7921588369206001e-01 +5.7644067717285445e-03
-4.7499999999999911e+00 +8.5383774514554780e+00 +0.0000000000000000e+00 -4.7499999455886979e+00 -3.0769762685505960e-02 -5.7925233635180595e-01 +5.7658065223635700e-03
-4.7999999999999909e+00 +8.5383642672401194e+00 +0.0000000000000000e+00 -4.7999999438504464e+00 -3.0771985995291434e-02 -5.7928896664248875e-01 +5.7672006861777987e-03
-4.8499999999999908e+00 +8.5383509446364467e+00 +0.0000000000000000e+00 -4.8499999420755131e+00 -3.0774217413026991e-02 -5.7932577148060949e-01 +5.7685892636245165e-03
-4.8999999999999906e+00 +8.5383374836356669e+00 +0.0000000000000000e+00 -4.8999999402635117e+00 -3.0776456848399247e-02 -5.7936274778266550e-01 +5.7699722551568531e-03
-4.9499999999999904e+00 +8.5383238842289462e+00 +0.0000000000000000e+00 -4.9499999384140567e+00 -3.0778704211095645e-02 -5.7939989246515133e-01 +5.7713496612278011e-03
-4.9999999999999902e+00 +8.5383101464074134e+00 +0.0000000000000000e+00 -4.9999999365267636e+00 -3.0780959410804450e-02 -5.7943720244455765e-01 +5.7727214822902023e-03
-5.0499999999999901e+00 +8.5382962701621530e+00 +0.0000000000000000e+00 -5.0499999346012459e+00 -3.0783222357214802e-02 -5.7947467463737157e-01 +5.7740877187967589e-03
-5.0999999999999899e+00 +8.5382822554842157e+00 +0.0000000000000000e+00 -5.0999999326371181e+00 -3.0785492960016727e-02 -5.7951230596007730e-01 +5.7754483712000315e-03
-5.1499999999999897e+00 +8.5382681023646096e+00 +0.0000000000000000e+00 -5.1499999306339941e+00 -3.0787771128901076e-02 -5.7955009332915353e-01 +5.7768034399524361e-03
-5.1999999999999895e+00 +8.5382538107943091e+00 +0.0000000000000000e+00 -5.1999999285914882e+00 -3.0790056773559612e-02 -5.7958803366107547e-01 +5.7781529255062497e-03
-5.2499999999999893e+00 +8.5382393807642512e+00 +0.0000000000000000e+00 -5.2499999265092141e+00 -3.0792349803685039e-02 -5.7962612387231427e-01 +5.7794968283136176e-03
-5.2999999999999892e+00 +8.5382248122653355e+00 +0.0000000000000000e+00 -5.2999999243867864e+00 -3.0794650128970921e-02 -5.7966436087933504e-01 +5.7808351488265316e-03
-5.3499999999999890e+00 +8.5382101052884281e+00 +0.0000000000000000e+00 -5.3499999222238186e+00 -3.0796957659111814e-02 -5.7970274159859925e-01 +5.7821678874968637e-03
-5.3999999999999888e+00 +8.5381952598243593e+00 +0.0000000000000000e+00 -5.3999999200199245e+00 -3.0799272303803148e-02 -5.7974126294656247e-01 +5.7834950447763376e-03
-5.4499999999999886e+00 +8.5381802758639278e+00 +0.0000000000000000e+00 -5.4499999177747176e+00 -3.0801593972741386e-02 -5.7977992183967553e-01 +5.7848166211165496e-03
-5.4999999999999885e+00 +8.5381651533978982e+00 +0.0000000000000000e+00 -5.4999999154878116e+00 -3.0803922575623907e-02 -5.7981871519438299e-01 +5.7861326169689606e-03
-5.5499999999999883e+00 +8.5381498924170032e+00 +0.0000000000000000e+00 -5.5499999131588202e+00 -3.0806258022149112e-02 -5.7985763992712391e-01 +5.7874430327848978e-03
-5.5999999999999881e+00 +8.5381344929119436e+00 +0.0000000000000000e+00 -5.5999999107873570e+00 -3.0808600222016362e-02 -5.7989669295433199e-01 +5.7887478690155578e-03
-5.6499999999999879e+00 +8.5381189548733900e+00 +0.0000000000000000e+00 -5.6499999083730348e+00 -3.0810949084926053e-02 -5.7993587119243328e-01 +5.7900471261120041e-03
-5.6999999999999877e+00 +8.5381032782919846e+00 +0.0000000000000000e+00 -5.6999999059154671e+00 -3.0813304520579600e-02 -5.7997517155784883e-01 +5.7913408045251781e-03
-5.7499999999999876e+00 +8.5380874631583374e+00 +0.0000000000000000e+00 -5.7499999034142668e+00 -3.0815666438679459e-02 -5.8001459096699215e-01 +5.7926289047058842e-03
-5.7999999999999874e+00 +8.5380715094630322e+00 +0.0000000000000000e+00 -5.7999999008690466e+00 -3.0818034748929118e-02 -5.8005412633627007e-01 +5.7939114271048087e-03
-5.8499999999999872e+00 +8.5380554171966239e+00 +0.0000000000000000e+00 -5.8499998982794201e+00 -3.0820409361033137e-02 -5.8009377458208233e-01 +5.7951883721725000e-03
