# field on trajectory
# s[mm] rx[mm] ry[mm] rz[mm] bx[T] by[T] bz[T]
0.0000000000000000e+00 +8.5980000000000008e+00 +0.0000000000000000e+00 +0.0000000000000000e+00 -2.9433395154906700e-02 -5.5320297868456525e-01 +5.3341818051927999e-03
-5.0000000000000003e-02 +8.5979999306126711e+00 +0.0000000000000000e+00 -4.9999999999935804e-02 -2.9433123058235616e-02 -5.5320244224400494e-01 +5.3341108474830460e-03
-1.0000000000000001e-01 +8.5979997224507603e+00 +0.0000000000000000e+00 -9.9999999999486444e-02 -2.9432865532759797e-02 -5.5320221300604133e-01 +5.3340506259363070e-03
-1.5000000000000002e-01 +8.5979993755143251e+00 +0.0000000000000000e+00 -1.4999999999826674e-01 -2.9432622648094337e-02 -5.5320229012033051e-01 +5.3340010979463911e-03
-2.0000000000000001e-01 +8.5979988898033461e+00 +0.0000000000000000e+00 -1.9999999999589155e-01 -2.9432394473854550e-02 -5.5320267273654378e-01 +5.3339622209077377e-03
-2.5000000000000000e-01 +8.5979982653177274e+00 +0.0000000000000000e+00 -2.4999999999197570e-01 -2.9432181079656009e-02 -5.5320336000436676e-01 +5.3339339522153993e-03
-2.9999999999999999e-01 +8.5979975020572965e+00 +0.0000000000000000e+00 -2.9999999998613397e-01 -2.9431982535114497e-02 -5.5320435107349997e-01 +5.3339162492650376e-03
-3.4999999999999998e-01 +8.5979966000218049e+00 +0.0000000000000000e+00 -3.4999999997798126e-01 -2.9431798909846013e-02 -5.5320564509365733e-01 +5.3339090694529022e-03
-3.9999999999999997e-01 +8.5979955592109292e+00 +0.0000000000000000e+00 -3.9999999996713231e-01 -2.9431630273466815e-02 -5.5320724121456755e-01 +5.3339123701758220e-03
-4.4999999999999996e-01 +8.5979943796242679e+00 +0.0000000000000000e+00 -4.4999999995320200e-01 -2.9431476695593397e-02 -5.5320913858597387e-01 +5.3339261088311855e-03
-4.9999999999999994e-01 +8.5979930612613451e+00 +0.0000000000000000e+00 -4.9999999993580513e-01 -2.9431338245842438e-02 -5.5321133635763309e-01 +5.3339502428169329e-03
-5.4999999999999993e-01 +8.5979916041216100e+00 +0.0000000000000000e+00 -5.4999999991455650e-01 -2.9431214993830886e-02 -5.5321383367931587e-01 +5.3339847295315350e-03
-5.9999999999999998e-01 +8.5979900082044356e+00 +0.0000000000000000e+00 -5.9999999988907093e-01 -2.9431107009175922e-02 -5.5321662970080743e-01 +5.3340295263739814e-03
-6.5000000000000002e-01 +8.5979882735091202e+00 +0.0000000000000000e+00 -6.4999999985896317e-01 -2.9431014361494923e-02 -5.5321972357190630e-01 +5.3340845907437684e-03
-7.0000000000000007e-01 +8.5979864000348876e+00 +0.0000000000000000e+00 -6.9999999982384808e-01 -2.9430937120405540e-02 -5.5322311444242522e-01 +5.3341498800408898e-03
-7.5000000000000011e-01 +8.5979843877808886e+00 +0.0000000000000000e+00 -7.4999999978334042e-01 -2.9430875355525611e-02 -5.5322680146219028e-01 +5.3342253516658047e-03
-8.0000000000000016e-01 +8.5979822367461978e+00 +0.0000000000000000e+00 -7.9999999973705482e-01 -2.9430829136473248e-02 -5.5323078378104085e-01 +5.3343109630194455e-03
-8.5000000000000020e-01 +8.5979799469298150e+00 +0.0000000000000000e+00 -8.4999999968460616e-01 -2.9430798532866741e-02 -5.5323506054883087e-01 +5.3344066715031906e-03
-9.0000000000000024e-01 +8.5979775183306693e+00 +0.0000000000000000e+00 -8.9999999962560917e-01 -2.9430783614324663e-02 -5.5323963091542705e-01 +5.3345124345188528e-03
-9.5000000000000029e-01 +8.5979749509476129e+00 +0.0000000000000000e+00 -9.4999999955967851e-01 -2.9430784450465791e-02 -5.5324449403070919e-01 +5.3346282094686665e-03
-1.0000000000000002e+00 +8.5979722447794256e+00 +0.0000000000000000e+00 -9.9999999948642904e-01 -2.9430801110909125e-02 -5.5324964904457086e-01 +5.3347539537552668e-03
-1.0500000000000003e+00 +8.5979693998248159e+00 +0.0000000000000000e+00 -1.0499999994054754e+00 -2.9430833665273905e-02 -5.5325509510691850e-01 +5.3348896247816940e-03
-1.1000000000000003e+00 +8.5979664160824161e+00 +0.0000000000000000e+00 -1.0999999993164322e+00 -2.9430882183179602e-02 -5.5326083136767223e-01 +5.3350351799513526e-03
-1.1500000000000004e+00 +8.5979632935507873e+00 +0.0000000000000000e+00 -1.1499999992189140e+00 -2.9430946734245931e-02 -5.5326685697676414e-01 +5.3351905766680233e-03
-1.2000000000000004e+00 +8.5979600322284195e+00 +0.0000000000000000e+00 -1.1999999991125359e+00 -2.9431027388092796e-02 -5.5327317108414042e-01 +5.3353557723358263e-03
-1.2500000000000004e+00 +8.5979566321137284e+00 +0.0000000000000000e+00 -1.2499999989969119e+00 -2.9431124214340368e-02 -5.5327977283975960e-01 +5.3355307243592269e-03
-1.3000000000000005e+00 +8.5979530932050565e+00 +0.0000000000000000e+00 -1.2999999988716571e+00 -2.9431237282609043e-02 -5.5328666139359295e-01 +5.3357153901430077e-03
-1.3500000000000005e+00 +8.5979494155006773e+00 +0.0000000000000000e+00 -1.3499999987363860e+00 -2.9431366662519429e-02 -5.5329383589562453e-01 +5.3359097270922577e-03
-1.4000000000000006e+00 +8.5979455989987894e+00 +0.0000000000000000e+00 -1.3999999985907130e+00 -2.9431512423692387e-02 -5.5330129549585105e-01 +5.3361136926123633e-03
-1.4500000000000006e+00 +8.5979416436975225e+00 +0.0000000000000000e+00 -1.4499999984342529e+00 -2.9431674635748990e-02 -5.5330903934428199e-01 +5.3363272441089883e-03
-1.5000000000000007e+00 +8.5979375495949348e+00 +0.0000000000000000e+00 -1.4999999982666201e+00 -2.9431853368310550e-02 -5.5331706659093893e-01 +5.3365503389880588e-03
-1.5500000000000007e+00 +8.5979333166890122e+00 +0.0000000000000000e+00 -1.5499999980874291e+00 -2.9432048690998587e-02 -5.5332537638585599e-01 +5.3367829346557556e-03
-1.6000000000000008e+00 +8.5979289449776690e+00 +0.0000000000000000e+00 -1.5999999978962944e+00 -2.9432260673434903e-02 -5.5333396787907929e-01 +5.3370249885184981e-03
-1.6500000000000008e+00 +8.5979244344587524e+00 +0.0000000000000000e+00 -1.6499999976928306e+00 -2.9432489385241463e-02 -5.5334284022066782e-01 +5.3372764579829209e-03
-1.7000000000000008e+00 +8.5979197851300349e+00 +0.0000000000000000e+00 -1.6999999974766520e+00 -2.9432734896040508e-02 -5.5335199256069223e-01 +5.3375373004558779e-03
-1.7500000000000009e+00 +8.5979149969892212e+00 +0.0000000000000000e+00 -1.7499999972473730e+00 -2.9432997275454505e-02 -5.5336142404923550e-01 +5.3378074733444096e-03
-1.8000000000000009e+00 +8.5979100700339455e+00 +0.0000000000000000e+00 -1.7999999970046081e+00 -2.9433276593106138e-02 -5.5337113383639258e-01 +5.3380869340557387e-03
-1.8500000000000010e+00 +8.5979050042617722e+00 +0.0000000000000000e+00 -1.8499999967479717e+00 -2.9433572918618311e-02 -5.5338112107226956e-01 +5.3383756399972577e-03
-1.9000000000000010e+00 +8.5978997996701949e+00 +0.0000000000000000e+00 -1.8999999964770780e+00 -2.9433886321614169e-02 -5.5339138490698569e-01 +5.3386735485765049e-03
-1.9500000000000011e+00 +8.5978944562566397e+00 +0.0000000000000000e+00 -1.9499999961915413e+00 -2.9434216871717104e-02 -5.5340192449067083e-01 +5.3389806172011618e-03
-2.0000000000000009e+00 +8.5978889740184634e+00 +0.0000000000000000e+00 -1.9999999958909758e+00 -2.9434564638550723e-02 -5.5341273897346699e-01 +5.3392968032790313e-03
-2.0500000000000007e+00 +8.5978833529529517e+00 +0.0000000000000000e+00 -2.0499999955749959e+00 -2.9434929649302742e-02 -5.5342382740667262e-01 +5.3396220562483320e-03
-2.1000000000000005e+00 +8.5978775930573246e+00 +0.0000000000000000e+00 -2.0999999952432158e+00 -2.9435311761416966e-02 -5.5343518844617701e-01 +5.3399562936686431e-03
-2.1500000000000004e+00 +8.5978716943287310e+00 +0.0000000000000000e+00 -2.1499999948952500e+00 -2.9435710789901936e-02 -5.5344682064902251e-01 +5.3402994251301504e-03
-2.2000000000000002e+00 +8.5978656567642542e+00 +0.0000000000000000e+00 -2.1999999945307120e+00 -2.9436126549767211e-02 -5.5345872257226170e-01 +5.3406513602233452e-03
-2.2500000000000000e+00 +8.5978594803609063e+00 +0.0000000000000000e+00 -2.2499999941492166e+00 -2.9436558856023365e-02 -5.5347089277295480e-01 +5.3410120085390384e-03
-2.2999999999999998e+00 +8.5978531651156374e+00 +0.0000000000000000e+00 -2.2999999937503772e+00 -2.9437007523682078e-02 -5.5348332980817194e-01 +5.3413812796683485e-03
-2.3499999999999996e+00 +8.5978467110253245e+00 +0.0000000000000000e+00 -2.3499999933338085e+00 -2.9437472367756106e-02 -5.5349603223498922e-01 +5.3417590832027075e-03
-2.3999999999999995e+00 +8.5978401180867845e+00 +0.0000000000000000e+00 -2.3999999928991240e+00 -2.9437953203259409e-02 -5.5350899861049319e-01 +5.3421453287338617e-03
-2.4499999999999993e+00 +8.5978333862967631e+00 +0.0000000000000000e+00 -2.4499999924459379e+00 -2.9438449845207135e-02 -5.5352222749177671e-01 +5.3425399258538670e-03
-2.4999999999999991e+00 +8.5978265156519420e+00 +0.0000000000000000e+00 -2.4999999919738642e+00 -2.9438962108615668e-02 -5.5353571743594121e-01 +5.3429427841550983e-03
-2.5499999999999989e+00 +8.5978195061489355e+00 +0.0000000000000000e+00 -2.5499999914825167e+00 -2.9439489808502695e-02 -5.5354946700009477e-01 +5.3433538132302266e-03
-2.5999999999999988e+00 +8.5978123577842975e+00 +0.0000000000000000e+00 -2.5999999909715092e+00 -2.9440032759887238e-02 -5.5356347474135315e-01 +5.3437729226722417e-03
-2.6499999999999986e+00 +8.5978050705545126e+00 +0.0000000000000000e+00 -2.6499999904404561e+00 -2.9440590777789665e-02 -5.5357773921683862e-01 +5.3442000220744485e-03
-2.6999999999999984e+00 +8.5977976444560031e+00 +0.0000000000000000e+00 -2.6999999898889708e+00 -2.9441163677231794e-02 -5.5359225898368114e-01 +5.3446350210304529e-03
-2.7499999999999982e+00 +8.5977900794851259e+00 +0.0000000000000000e+00 -2.7499999893166671e+00 -2.9441751273236880e-02 -5.5360703259901600e-01 +5.3450778291341747e-03
-2.7999999999999980e+00 +8.5977823756381753e+00 +0.0000000000000000e+00 -2.7999999887231586e+00 -2.9442353380829685e-02 -5.5362205861998570e-01 +5.3455283559798389e-03
-2.8499999999999979e+00 +8.5977745329113819e+00 +0.0000000000000000e+00 -2.8499999881080589e+00 -2.9442969815036499e-02 -5.5363733560373862e-01 +5.3459865111619796e-03
-2.8999999999999977e+00 +8.5977665513009143e+00 +0.0000000000000000e+00 -2.8999999874709816e+00 -2.9443600390885234e-02 -5.5365286210742914e-01 +5.3464522042754392e-03
-2.9499999999999975e+00 +8.5977584308028767e+00 +0.0000000000000000e+00 -2.9499999868115405e+00 -2.9444244923405409e-02 -5.5366863668821698e-01 +5.3469253449153712e-03
-2.9999999999999973e+00 +8.5977501714133115e+00 +0.0000000000000000e+00 -2.9999999861293491e+00 -2.9444903227628192e-02 -5.5368465790326749e-01 +5.3474058426772287e-03
-3.0499999999999972e+00 +8.5977417731282006e+00 +0.0000000000000000e+00 -3.0499999854240212e+00 -2.9445575118586483e-02 -5.5370092430975149e-01 +5.3478936071567774e-03
-3.0999999999999970e+00 +8.5977332359434637e+00 +0.0000000000000000e+00 -3.0999999846951698e+00 -2.9446260411314932e-02 -5.5371743446484456e-01 +5.3483885479500854e-03
-3.1499999999999968e+00 +8.5977245598549601e+00 +0.0000000000000000e+00 -3.1499999839424087e+00 -2.9446958920850010e-02 -5.5373418692572729e-01 +5.3488905746535264e-03
-3.1999999999999966e+00 +8.5977157448584869e+00 +0.0000000000000000e+00 -3.1999999831653509e+00 -2.9447670462229989e-02 -5.5375118024958492e-01 +5.3493995968637810e-03
-3.2499999999999964e+00 +8.5977067909497809e+00 +0.0000000000000000e+00 -3.2499999823636099e+00 -2.9448394850495042e-02 -5.5376841299360657e-01 +5.3499155241778324e-03
-3.2999999999999963e+00 +8.5976976981245183e+00 +0.0000000000000000e+00 -3.2999999815367991e+00 -2.9449131900687282e-02 -5.5378588371498638e-01 +5.3504382661929747e-03
-3.3499999999999961e+00 +8.5976884663783171e+00 +0.0000000000000000e+00 -3.3499999806845318e+00 -2.9449881427850749e-02 -5.5380359097092158e-01 +5.3509677325067981e-03
-3.3999999999999959e+00 +8.5976790957067362e+00 +0.0000000000000000e+00 -3.3999999798064207e+00 -2.9450643247031515e-02 -5.5382153331861395e-01 +5.3515038327171935e-03
-3.4499999999999957e+00 +8.5976695861052743e+00 +0.0000000000000000e+00 -3.4499999789020794e+00 -2.9451417173277723e-02 -5.5383970931526805e-01 +5.3520464764223660e-03
-3.4999999999999956e+00 +8.5976599375693716e+00 +0.0000000000000000e+00 -3.4999999779711208e+00 -2.9452203021639568e-02 -5.5385811751809222e-01 +5.3525955732208145e-03
-3.5499999999999954e+00 +8.5976501500944114e+00 +0.0000000000000000e+00 -3.5499999770131581e+00 -2.9453000607169409e-02 -5.5387675648429779e-01 +5.3531510327113436e-03
-3.5999999999999952e+00 +8.5976402236757181e+00 +0.0000000000000000e+00 -3.5999999760278039e+00 -2.9453809744921785e-02 -5.5389562477109910e-01 +5.3537127644930601e-03
-3.6499999999999950e+00 +8.5976301583085579e+00 +0.0000000000000000e+00 -3.6499999750146714e+00 -2.9454630249953432e-02 -5.5391472093571259e-01 +5.3542806781653688e-03
-3.6999999999999948e+00 +8.5976199539881399e+00 +0.0000000000000000e+00 -3.6999999739733740e+00 -2.9455461937323374e-02 -5.5393404353535813e-01 +5.3548546833279767e-03
-3.7499999999999947e+00 +8.5976096107096183e+00 +0.0000000000000000e+00 -3.7499999729035238e+00 -2.9456304622092928e-02 -5.5395359112725695e-01 +5.3554346895808925e-03
-3.7999999999999945e+00 +8.5975991284680884e+00 +0.0000000000000000e+00 -3.7999999718047337e+00 -2.9457158119325765e-02 -5.5397336226863236e-01 +5.3560206065244257e-03
-3.8499999999999943e+00 +8.5975885072585907e+00 +0.0000000000000000e+00 -3.8499999706766168e+00 -2.9458022244087955e-02 -5.5399335551670992e-01 +5.3566123437591802e-03
-3.8999999999999941e+00 +8.5975777470761106e+00 +0.0000000000000000e+00 -3.8999999695187855e+00 -2.9458896811447970e-02 -5.5401356942871649e-01 +5.3572098108860648e-03
-3.9499999999999940e+00 +8.5975668479155765e+00 +0.0000000000000000e+00 -3.9499999683308524e+00 -2.9459781636476796e-02 -5.5403400256188073e-01 +5.3578129175062880e-03
-3.9999999999999938e+00 +8.5975558097718636e+00 +0.0000000000000000e+00 -3.9999999671124300e+00 -2.9460676534247908e-02 -5.5405465347343130e-01 +5.3584215732213423e-03
-4.0499999999999936e+00 +8.5975446326397922e+00 +0.0000000000000000e+00 -4.0499999658631314e+00 -2.9461581338178878e-02 -5.5407552058398979e-01 +5.3590356937560984e-03
-4.0999999999999934e+00 +8.5975333165141254e+00 +0.0000000000000000e+00 -4.0999999645825680e+00 -2.9462495955054745e-02 -5.5409660176773945e-01 +5.3596552193278637e-03
-4.1499999999999932e+00 +8.5975218613895770e+00 +0.0000000000000000e+00 -4.1499999632703535e+00 -2.9463420310000734e-02 -5.5411789476225592e-01 +5.3602800962769597e-03
-4.1999999999999931e+00 +8.5975102672608053e+00 +0.0000000000000000e+00 -4.1999999619260988e+00 -2.9464354328140218e-02 -5.5413939730511685e-01 +5.3609102709435948e-03
-4.2499999999999929e+00 +8.5974985341224155e+00 +0.0000000000000000e+00 -4.2499999605494176e+00 -2.9465297934594660e-02 -5.5416110713390099e-01 +5.3615456896678390e-03
-4.2999999999999927e+00 +8.5974866619689632e+00 +0.0000000000000000e+00 -4.2999999591399209e+00 -2.9466251054483483e-02 -5.5418302198618874e-01 +5.3621862987896307e-03
-4.3499999999999925e+00 +8.5974746507949504e+00 +0.0000000000000000e+00 -4.3499999576972215e+00 -2.9467213612923988e-02 -5.5420513959956219e-01 +5.3628320446487410e-03
-4.3999999999999924e+00 +8.5974625005948280e+00 +0.0000000000000000e+00 -4.3999999562209320e+00 -2.9468185535031284e-02 -5.5422745771160398e-01 +5.3634828735847784e-03
-4.4499999999999922e+00 +8.5974502113629985e+00 +0.0000000000000000e+00 -4.4499999547106635e+00 -2.9469166745918159e-02 -5.5424997405989829e-01 +5.3641387319371724e-03
-4.4999999999999920e+00 +8.5974377830938131e+00 +0.0000000000000000e+00 -4.4999999531660286e+00 -2.9470157170695045e-02 -5.5427268638203009e-01 +5.3647995660451595e-03
-4.5499999999999918e+00 +8.5974252157815751e+00 +0.0000000000000000e+00 -4.5499999515866394e+00 -2.9471156734469844e-02 -5.5429559241558457e-01 +5.3654653222477613e-03
-4.5999999999999917e+00 +8.5974125094205380e+00 +0.0000000000000000e+00 -4.5999999499721067e+00 -2.9472165362347948e-02 -5.5431868989814748e-01 +5.3661359468837946e-03
-4.6499999999999915e+00 +8.5973996640049073e+00 +0.0000000000000000e+00 -4.6499999483220433e+00 -2.9473182979432015e-02 -5.5434197656730488e-01 +5.3668113862918353e-03
-4.6999999999999913e+00 +8.5973866795288423e+00 +0.0000000000000000e+00 -4.6999999466360611e+00 -2.9474209510822004e-02 -5.5436545016064309e-01 +5.3674915868102161e-03
-4.7499999999999911e+00 +8.5973735559864544e+00 +0.0000000000000000e+00 -4.7499999449137711e+00 -2.9475244881614997e-02 -5.5438910841574851e-01 +5.3681764947770168e-03
-4.7999999999999909e+00 +8.5973602933718087e+00 +0.0000000000000000e+00 -4.7999999431547851e+00 -2.9476289016905174e-02 -5.5441294907020666e-01 +5.3688660565300479e-03
-4.8499999999999908e+00 +8.5973468916789262e+00 +0.0000000000000000e+00 -4.8499999413587149e+00 -2.9477341841783633e-02 -5.5443696986160340e-01 +5.3695602184068358e-03
-4.8999999999999906e+00 +8.5973333509017795e+00 +0.0000000000000000e+00 -4.8999999395251725e+00 -2.9478403281338404e-02 -5.5446116852752347e-01 +5.3702589267446074e-03
-4.9499999999999904e+00 +8.5973196710342989e+00 +0.0000000000000000e+00 -4.9499999376537689e+00 -2.9479473260654268e-02 -5.5448554280555129e-01 +5.3709621278802949e-03
-4.9999999999999902e+00 +8.5973058520703702e+00 +0.0000000000000000e+00 -4.9999999357441149e+00 -2.9480551704812747e-02 -5.5451009043326993e-01 +5.3716697681504997e-03
-5.0499999999999901e+00 +8.5972918940038348e+00 +0.0000000000000000e+00 -5.0499999337958226e+00 -2.9481638538891922e-02 -5.5453480914826148e-01 +5.3723817938914984e-03
-5.0999999999999899e+00 +8.5972777968284930e+00 +0.0000000000000000e+00 -5.0999999318085028e+00 -2.9482733687966424e-02 -5.5455969668810712e-01 +5.3730981514392134e-03
-5.1499999999999897e+00 +8.5972635605381011e+00 +0.0000000000000000e+00 -5.1499999297817673e+00 -2.9483837077107299e-02 -5.5458475079038627e-01 +5.3738187871292210e-03
-5.1999999999999895e+00 +8.5972491851263761e+00 +0.0000000000000000e+00 -5.1999999277152265e+00 -2.9484948631381944e-02 -5.5460996919267702e-01 +5.3745436472967170e-03
-5.2499999999999893e+00 +8.5972346705869906e+00 +0.0000000000000000e+00 -5.2499999256084919e+00 -2.9486068275853962e-02 -5.5463534963255501e-01 +5.3752726782765213e-03
-5.2999999999999892e+00 +8.5972200169135764e+00 +0.0000000000000000e+00 -5.2999999234611739e+00 -2.9487195935583126e-02 -5.5466088984759465e-01 +5.3760058264030507e-03
-5.3499999999999890e+00 +8.5972052240997279e+00 +0.0000000000000000e+00 -5.3499999212728842e+00 -2.9488331535625276e-02 -5.5468658757536782e-01 +5.3767430380103213e-03
-5.3999999999999888e+00 +8.5971902921390004e+00 +0.0000000000000000e+00 -5.3999999190432337e+00 -2.9489475001032207e-02 -5.5471244055344426e-01 +5.3774842594319222e-03
-5.4499999999999886e+00 +8.5971752210249068e+00 +0.0000000000000000e+00 -5.4499999167718327e+00 -2.9490626256851619e-02 -5.5473844651939108e-01 +5.3782294370010126e-03
-5.4999999999999885e+00 +8.5971600107509243e+00 +0.0000000000000000e+00 -5.4999999144582921e+00 -2.9491785228126954e-02 -5.5476460321077303e-01 +5.3789785170503032e-03
-5.5499999999999883e+00 +8.5971446613104909e+00 +0.0000000000000000e+00 -5.5499999121022228e+00 -2.9492951839897408e-02 -5.5479090836515177e-01 +5.3797314459120482e-03
-5.5999999999999881e+00 +8.5971291726970076e+00 +0.0000000000000000e+00 -5.5999999097032349e+00 -2.9494126017197732e-02 -5.5481735972008628e-01 +5.3804881699180259e-03
-5.6499999999999879e+00 +8.5971135449038396e+00 +0.0000000000000000e+00 -5.6499999072609395e+00 -2.9495307685058196e-02 -5.5484395501313211e-01 +5.3812486353995367e-03
-5.6999999999999877e+00 +8.5970977779243167e+00 +0.0000000000000000e+00 -5.6999999047749466e+00 -2.9496496768504507e-02 -5.5487069198184125e-01 +5.3820127886873743e-03
-5.7499999999999876e+00 +8.5970818717517297e+00 +0.0000000000000000e+00 -5.7499999022448671e+00 -2.9497693192557697e-02 -5.5489756836376258e-01 +5.3827805761118321e-03
-5.7999999999999874e+00 +8.5970658263793389e+00 +0.0000000000000000e+00 -5.7999998996703113e+00 -2.9498896882234039e-02 -5.5492458189644123e-01 +5.3835519440026758e-03
-5.8499999999999872e+00 +8.5970496418003659e+00 +0.0000000000000000e+00 -5.8499998970508891e+00 -2.9500107762544941e-02 -5.5495173031741851e-01 +5.3843268386891373e-03
