# field on trajectory
# s[mm] rx[mm] ry[mm] rz[mm] bx[T] by[T] bz[T]
0.0000000000000000e+00 +8.5389999999999997e+00 +0.0000000000000000e+00 +0.0000000000000000e+00 -3.0594758781071783e-02 -5.4939544123652806e-01 +5.6118980265677078e-03
5.0000000000000003e-02 +8.5389999311466447e+00 +0.0000000000000000e+00 +4.9999999999936789e-02 -3.0594443929062590e-02 -5.4939393454034791e-01 +5.6107163201559226e-03
1.0000000000000001e-01 +8.5389997245868141e+00 +0.0000000000000000e+00 +9.9999999999494327e-02 -3.0594157738017956e-02 -5.4939282917311594e-01 +5.6095317563375508e-03
1.5000000000000002e-01 +8.5389993803207851e+00 +0.0000000000000000e+00 +1.4999999999829333e-01 -3.0593899969012728e-02 -5.4939212434839224e-01 +5.6083445394902965e-03
2.0000000000000001e-01 +8.5389988983487335e+00 +0.0000000000000000e+00 +1.9999999999595458e-01 -3.0593670383122992e-02 -5.4939181927975578e-01 +5.6071548739915758e-03
2.5000000000000000e-01 +8.5389982786707357e+00 +0.0000000000000000e+00 +2.4999999999209876e-01 -3.0593468741425940e-02 -5.4939191318080483e-01 +5.6059629642185201e-03
2.9999999999999999e-01 +8.5389975212867704e+00 +0.0000000000000000e+00 +2.9999999998634663e-01 -3.0593294804999852e-02 -5.4939240526515642e-01 +5.6047690145480207e-03
3.4999999999999998e-01 +8.5389966261967114e+00 +0.0000000000000000e+00 +3.4999999997831899e-01 -3.0593148334924106e-02 -5.4939329474644660e-01 +5.6035732293567625e-03
3.9999999999999997e-01 +8.5389955934003385e+00 +0.0000000000000000e+00 +3.9999999996763647e-01 -3.0593029092279067e-02 -5.4939458083832982e-01 +5.6023758130212377e-03
4.4999999999999996e-01 +8.5389944228973267e+00 +0.0000000000000000e+00 +4.4999999995391987e-01 -3.0592936838146095e-02 -5.4939626275447850e-01 +5.6011769699177956e-03
4.9999999999999994e-01 +8.5389931146872566e+00 +0.0000000000000000e+00 +4.9999999993678995e-01 -3.0592871333607476e-02 -5.4939833970858420e-01 +5.5999769044226605e-03
5.4999999999999993e-01 +8.5389916687696061e+00 +0.0000000000000000e+00 +5.4999999991586734e-01 -3.0592832339746388e-02 -5.4940081091435622e-01 +5.5987758209119593e-03
5.9999999999999998e-01 +8.5389900851437570e+00 +0.0000000000000000e+00 +5.9999999989077279e-01 -3.0592819617646823e-02 -5.4940367558552161e-01 +5.5975739237617587e-03
6.5000000000000002e-01 +8.5389883638089916e+00 +0.0000000000000000e+00 +6.4999999986112700e-01 -3.0592832928393616e-02 -5.4940693293582565e-01 +5.5963714173480877e-03
7.0000000000000007e-01 +8.5389865047644911e+00 +0.0000000000000000e+00 +6.9999999982655070e-01 -3.0592872033072354e-02 -5.4941058217903160e-01 +5.5951685060469823e-03
7.5000000000000011e-01 +8.5389845080093423e+00 +0.0000000000000000e+00 +7.4999999978666454e-01 -3.0592936692769336e-02 -5.4941462252891893e-01 +5.5939653942344977e-03
8.0000000000000016e-01 +8.5389823735425328e+00 +0.0000000000000000e+00 +7.9999999974108926e-01 -3.0593026668571520e-02 -5.4941905319928552e-01 +5.5927622862867394e-03
8.5000000000000020e-01 +8.5389801013629523e+00 +0.0000000000000000e+00 +8.4999999968944540e-01 -3.0593141721566512e-02 -5.4942387340394627e-01 +5.5915593865799099e-03
9.0000000000000024e-01 +8.5389776914693929e+00 +0.0000000000000000e+00 +8.9999999963135369e-01 -3.0593281612842499e-02 -5.4942908235673338e-01 +5.5903568994903246e-03
9.5000000000000029e-01 +8.5389751438605472e+00 +0.0000000000000000e+00 +9.4999999956643477e-01 -3.0593446103488232e-02 -5.4943467927149570e-01 +5.5891550293944445e-03
1.0000000000000002e+00 +8.5389724585350137e+00 +0.0000000000000000e+00 +9.9999999949430918e-01 -3.0593634954592934e-02 -5.4944066336209885e-01 +5.5879539806688991e-03
1.0500000000000003e+00 +8.5389696354912932e+00 +0.0000000000000000e+00 +1.0499999994145977e+00 -3.0593847927246298e-02 -5.4944703384242466e-01 +5.5867539576905326e-03
1.1000000000000003e+00 +8.5389666747277886e+00 +0.0000000000000000e+00 +1.0999999993269207e+00 -3.0594084782538465e-02 -5.4945378992637228e-01 +5.5855551648364248e-03
1.1500000000000004e+00 +8.5389635762428053e+00 +0.0000000000000000e+00 +1.1499999992308989e+00 -3.0594345281559882e-02 -5.4946093082785663e-01 +5.5843578064839090e-03
1.2000000000000004e+00 +8.5389603400345546e+00 +0.0000000000000000e+00 +1.1999999991261527e+00 -3.0594629185401418e-02 -5.4946845576080883e-01 +5.5831620870106348e-03
1.2500000000000004e+00 +8.5389569661011500e+00 +0.0000000000000000e+00 +1.2499999990123027e+00 -3.0594936255154116e-02 -5.4947636393917565e-01 +5.5819682107945499e-03
1.3000000000000005e+00 +8.5389534544406089e+00 +0.0000000000000000e+00 +1.2999999988889694e+00 -3.0595266251909382e-02 -5.4948465457692064e-01 +5.5807763822139774e-03
1.3500000000000005e+00 +8.5389498050508532e+00 +0.0000000000000000e+00 +1.3499999987557731e+00 -3.0595618936758752e-02 -5.4949332688802244e-01 +5.5795868056476199e-03
1.4000000000000006e+00 +8.5389460179297103e+00 +0.0000000000000000e+00 +1.3999999986123344e+00 -3.0595994070793928e-02 -5.4950238008647456e-01 +5.5783996854745889e-03
1.4500000000000006e+00 +8.5389420930749100e+00 +0.0000000000000000e+00 +1.4499999984582737e+00 -3.0596391415106759e-02 -5.4951181338628785e-01 +5.5772152260744473e-03
1.5000000000000007e+00 +8.5389380304840881e+00 +0.0000000000000000e+00 +1.4999999982932113e+00 -3.0596810730789119e-02 -5.4952162600148613e-01 +5.5760336318272296e-03
1.5500000000000007e+00 +8.5389338301547859e+00 +0.0000000000000000e+00 +1.5499999981167678e+00 -3.0597251778932962e-02 -5.4953181714611010e-01 +5.5748551071134710e-03
1.6000000000000008e+00 +8.5389294920844492e+00 +0.0000000000000000e+00 +1.5999999979285635e+00 -3.0597714320630215e-02 -5.4954238603421390e-01 +5.5736798563142485e-03
1.6500000000000008e+00 +8.5389250162704275e+00 +0.0000000000000000e+00 +1.6499999977282185e+00 -3.0598198116972709e-02 -5.4955333187986743e-01 +5.5725080838111892e-03
1.7000000000000008e+00 +8.5389204027099783e+00 +0.0000000000000000e+00 +1.6999999975153532e+00 -3.0598702929052250e-02 -5.4956465389715548e-01 +5.5713399939865344e-03
1.7500000000000009e+00 +8.5389156514002629e+00 +0.0000000000000000e+00 +1.7499999972895879e+00 -3.0599228517960445e-02 -5.4957635130017624e-01 +5.5701757912231288e-03
1.8000000000000009e+00 +8.5389107623383502e+00 +0.0000000000000000e+00 +1.7999999970505427e+00 -3.0599774644788739e-02 -5.4958842330304303e-01 +5.5690156799044835e-03
1.8500000000000010e+00 +8.5389057355212135e+00 +0.0000000000000000e+00 +1.8499999967978380e+00 -3.0600341070628347e-02 -5.4960086911988326e-01 +5.5678598644147868e-03
1.9000000000000010e+00 +8.5389005709457351e+00 +0.0000000000000000e+00 +1.8999999965310939e+00 -3.0600927556570200e-02 -5.4961368796483778e-01 +5.5667085491389419e-03
1.9500000000000011e+00 +8.5388952686086999e+00 +0.0000000000000000e+00 +1.9499999962499301e+00 -3.0601533863704955e-02 -5.4962687905206231e-01 +5.5655619384625951e-03
2.0000000000000009e+00 +8.5388898285068020e+00 +0.0000000000000000e+00 +1.9999999959539672e+00 -3.0602159753122873e-02 -5.4964044159572534e-01 +5.5644202367721649e-03
2.0500000000000007e+00 +8.5388842506366434e+00 +0.0000000000000000e+00 +2.0499999956428248e+00 -3.0602805033334270e-02 -5.4965437458719091e-01 +5.5632836332914024e-03
2.1000000000000005e+00 +8.5388785349947316e+00 +0.0000000000000000e+00 +2.0999999953161232e+00 -3.0603469702531288e-02 -5.4966867612656045e-01 +5.5621522565909064e-03
2.1500000000000004e+00 +8.5388726815774803e+00 +0.0000000000000000e+00 +2.1499999949734825e+00 -3.0604153806327541e-02 -5.4968334409113062e-01 +5.5610262200784868e-03
2.2000000000000002e+00 +8.5388666903812140e+00 +0.0000000000000000e+00 +2.1999999946145223e+00 -3.0604857390337817e-02 -5.4969837635820940e-01 +5.5599056371626295e-03
2.2500000000000000e+00 +8.5388605614021653e+00 +0.0000000000000000e+00 +2.2499999942388627e+00 -3.0605580500178156e-02 -5.4971377080511818e-01 +5.5587906212525295e-03
2.2999999999999998e+00 +8.5388542946364758e+00 +0.0000000000000000e+00 +2.2999999938461233e+00 -3.0606323181465861e-02 -5.4972952530918939e-01 +5.5576812857580961e-03
2.3499999999999996e+00 +8.5388478900801950e+00 +0.0000000000000000e+00 +2.3499999934359241e+00 -3.0607085479819607e-02 -5.4974563774776830e-01 +5.5565777440899954e-03
2.3999999999999995e+00 +8.5388413477292868e+00 +0.0000000000000000e+00 +2.3999999930078846e+00 -3.0607867440859457e-02 -5.4976210599821185e-01 +5.5554801096596336e-03
2.4499999999999993e+00 +8.5388346675796214e+00 +0.0000000000000000e+00 +2.4499999925616249e+00 -3.0608669110206894e-02 -5.4977892793788807e-01 +5.5543884958792053e-03
2.4999999999999991e+00 +8.5388278496269834e+00 +0.0000000000000000e+00 +2.4999999920967642e+00 -3.0609490533484929e-02 -5.4979610144417679e-01 +5.5533030161616986e-03
2.5499999999999989e+00 +8.5388208938670687e+00 +0.0000000000000000e+00 +2.5499999916129226e+00 -3.0610331756318103e-02 -5.4981362439446924e-01 +5.5522237839209093e-03
2.5999999999999988e+00 +8.5388138002954843e+00 +0.0000000000000000e+00 +2.5999999911097191e+00 -3.0611192824332587e-02 -5.4983149466616754e-01 +5.5511509125714727e-03
2.6499999999999986e+00 +8.5388065689077521e+00 +0.0000000000000000e+00 +2.6499999905867737e+00 -3.0612073783156168e-02 -5.4984971013668482e-01 +5.5500845155288716e-03
2.6999999999999984e+00 +8.5387991996993051e+00 +0.0000000000000000e+00 +2.6999999900437057e+00 -3.0612974678418371e-02 -5.4986826868344463e-01 +5.5490247062094577e-03
2.7499999999999982e+00 +8.5387916926654928e+00 +0.0000000000000000e+00 +2.7499999894801341e+00 -3.0613895555750472e-02 -5.4988716818388095e-01 +5.5479715980304685e-03
2.7999999999999980e+00 +8.5387840478015775e+00 +0.0000000000000000e+00 +2.7999999888956788e+00 -3.0614836460785558e-02 -5.4990640651543843e-01 +5.5469253044100504e-03
2.8499999999999979e+00 +8.5387762651027383e+00 +0.0000000000000000e+00 +2.8499999882899592e+00 -3.0615797439158560e-02 -5.4992598155557149e-01 +5.5458859387672726e-03
2.8999999999999977e+00 +8.5387683445640690e+00 +0.0000000000000000e+00 +2.8999999876625941e+00 -3.0616778536506371e-02 -5.4994589118174486e-01 +5.5448536145221456e-03
2.9499999999999975e+00 +8.5387602861805778e+00 +0.0000000000000000e+00 +2.9499999870132028e+00 -3.0617779798467786e-02 -5.4996613327143262e-01 +5.5438284450956398e-03
2.9999999999999973e+00 +8.5387520899471916e+00 +0.0000000000000000e+00 +2.9999999863414044e+00 -3.0618801270683695e-02 -5.4998670570211872e-01 +5.5428105439097076e-03
3.0499999999999972e+00 +8.5387437558587536e+00 +0.0000000000000000e+00 +3.0499999856468181e+00 -3.0619842998796991e-02 -5.5000760635129620e-01 +5.5418000243872938e-03
3.0999999999999970e+00 +8.5387352839100252e+00 +0.0000000000000000e+00 +3.0999999849290631e+00 -3.0620905028452747e-02 -5.5002883309646788e-01 +5.5407969999523689e-03
3.1499999999999968e+00 +8.5387266740956864e+00 +0.0000000000000000e+00 +3.1499999841877582e+00 -3.0621987405298170e-02 -5.5005038381514471e-01 +5.5398015840299264e-03
3.1999999999999966e+00 +8.5387179264103370e+00 +0.0000000000000000e+00 +3.1999999834225221e+00 -3.0623090174982725e-02 -5.5007225638484725e-01 +5.5388138900460196e-03
3.2499999999999964e+00 +8.5387090408484916e+00 +0.0000000000000000e+00 +3.2499999826329740e+00 -3.0624213383158148e-02 -5.5009444868310431e-01 +5.5378340314277685e-03
3.2999999999999963e+00 +8.5387000174045902e+00 +0.0000000000000000e+00 +3.2999999818187327e+00 -3.0625357075478504e-02 -5.5011695858745313e-01 +5.5368621216033897e-03
3.3499999999999961e+00 +8.5386908560729893e+00 +0.0000000000000000e+00 +3.3499999809794168e+00 -3.0626521297600264e-02 -5.5013978397543972e-01 +5.5358982740021986e-03
3.3999999999999959e+00 +8.5386815568479690e+00 +0.0000000000000000e+00 +3.3999999801146452e+00 -3.0627706095182308e-02 -5.5016292272461720e-01 +5.5349426020546450e-03
3.4499999999999957e+00 +8.5386721197237296e+00 +0.0000000000000000e+00 +3.4499999792240361e+00 -3.0628911513886022e-02 -5.5018637271254756e-01 +5.5339952191923170e-03
3.4999999999999956e+00 +8.5386625446943931e+00 +0.0000000000000000e+00 +3.4999999783072084e+00 -3.0630137599375322e-02 -5.5021013181679990e-01 +5.5330562388479689e-03
3.5499999999999954e+00 +8.5386528317540034e+00 +0.0000000000000000e+00 +3.5499999773637803e+00 -3.0631384397316743e-02 -5.5023419791495076e-01 +5.5321257744555411e-03
3.5999999999999952e+00 +8.5386429808965296e+00 +0.0000000000000000e+00 +3.5999999763933705e+00 -3.0632651953379449e-02 -5.5025856888458513e-01 +5.5312039394501602e-03
3.6499999999999950e+00 +8.5386329921158630e+00 +0.0000000000000000e+00 +3.6499999753955974e+00 -3.0633940313235301e-02 -5.5028324260329331e-01 +5.5302908472681855e-03
3.6999999999999948e+00 +8.5386228654058201e+00 +0.0000000000000000e+00 +3.6999999743700789e+00 -3.0635249522558926e-02 -5.5030821694867427e-01 +5.5293866113472106e-03
3.7499999999999947e+00 +8.5386126007601391e+00 +0.0000000000000000e+00 +3.7499999733164335e+00 -3.0636579627027736e-02 -5.5033348979833285e-01 +5.5284913451260770e-03
3.7999999999999945e+00 +8.5386021981724873e+00 +0.0000000000000000e+00 +3.7999999722342794e+00 -3.0637930672322036e-02 -5.5035905902988080e-01 +5.5276051620449058e-03
3.8499999999999943e+00 +8.5385916576364540e+00 +0.0000000000000000e+00 +3.8499999711232347e+00 -3.0639302704124974e-02 -5.5038492252093585e-01 +5.5267281755451121e-03
3.8999999999999941e+00 +8.5385809791455571e+00 +0.0000000000000000e+00 +3.8999999699829173e+00 -3.0640695768122717e-02 -5.5041107814912249e-01 +5.5258604990694148e-03
3.9499999999999940e+00 +8.5385701626932420e+00 +0.0000000000000000e+00 +3.9499999688129450e+00 -3.0642109910004441e-02 -5.5043752379207112e-01 +5.5250022460618690e-03
3.9999999999999938e+00 +8.5385592082728792e+00 +0.0000000000000000e+00 +3.9999999676129359e+00 -3.0643545175462344e-02 -5.5046425732741777e-01 +5.5241535299678695e-03
4.0499999999999936e+00 +8.5385481158777683e+00 +0.0000000000000000e+00 +4.0499999663825079e+00 -3.0645001567859324e-02 -5.5049127649859542e-01 +5.5233144564820419e-03
4.0999999999999934e+00 +8.5385368855011379e+00 +0.0000000000000000e+00 +4.0999999651212784e+00 -3.0646478921229889e-02 -5.5051857851220487e-01 +5.5224851002915508e-03
4.1499999999999932e+00 +8.5385255171361436e+00 +0.0000000000000000e+00 +4.1499999638288649e+00 -3.0647977027275331e-02 -5.5054616044064197e-01 +5.5216655283322038e-03
4.1999999999999931e+00 +8.5385140107758719e+00 +0.0000000000000000e+00 +4.1999999625048856e+00 -3.0649495677695947e-02 -5.5057401935630546e-01 +5.5208558075405768e-03
4.2499999999999929e+00 +8.5385023664133417e+00 +0.0000000000000000e+00 +4.2499999611489576e+00 -3.0651034664191012e-02 -5.5060215233159893e-01 +5.5200560048540188e-03
4.2999999999999927e+00 +8.5384905840415009e+00 +0.0000000000000000e+00 +4.2999999597606990e+00 -3.0652593778458619e-02 -5.5063055643892855e-01 +5.5192661872106455e-03
4.3499999999999925e+00 +8.5384786636532297e+00 +0.0000000000000000e+00 +4.3499999583397262e+00 -3.0654172812195648e-02 -5.5065922875070350e-01 +5.5184864215493314e-03
4.3999999999999924e+00 +8.5384666052413412e+00 +0.0000000000000000e+00 +4.3999999568856571e+00 -3.0655771557097734e-02 -5.5068816633933615e-01 +5.5177167748097196e-03
4.4499999999999922e+00 +8.5384544087985823e+00 +0.0000000000000000e+00 +4.4499999553981091e+00 -3.0657389804859114e-02 -5.5071736627724188e-01 +5.5169573139322260e-03
4.4999999999999920e+00 +8.5384420743176346e+00 +0.0000000000000000e+00 +4.4999999538766993e+00 -3.0659027347172622e-02 -5.5074682563683819e-01 +5.5162081058580193e-03
4.5499999999999918e+00 +8.5384296017911137e+00 +0.0000000000000000e+00 +4.5499999523210439e+00 -3.0660683975729575e-02 -5.5077654149054422e-01 +5.5154692175290359e-03
4.5999999999999917e+00 +8.5384169912115730e+00 +0.0000000000000000e+00 +4.5999999507307612e+00 -3.0662359482219723e-02 -5.5080651091078237e-01 +5.5147407158879780e-03
4.6499999999999915e+00 +8.5384042425714988e+00 +0.0000000000000000e+00 +4.6499999491054673e+00 -3.0664053658331133e-02 -5.5083673096997543e-01 +5.5140226678782999e-03
4.6999999999999913e+00 +8.5383913558633182e+00 +0.0000000000000000e+00 +4.6999999474447787e+00 -3.0665766295750199e-02 -5.5086719874054935e-01 +5.5133151404442270e-03
4.7499999999999911e+00 +8.5383783310793930e+00 +0.0000000000000000e+00 +4.7499999457483124e+00 -3.0667497186161467e-02 -5.5089791129492960e-01 +5.5126182005307365e-03
4.7999999999999909e+00 +8.5383651682120263e+00 +0.0000000000000000e+00 +4.7999999440156857e+00 -3.0669246121247652e-02 -5.5092886570554411e-01 +5.5119319150835708e-03
4.8499999999999908e+00 +8.5383518672534588e+00 +0.0000000000000000e+00 +4.8499999422465150e+00 -3.0671012892689500e-02 -5.5096005904482115e-01 +5.5112563510492287e-03
4.8999999999999906e+00 +8.5383384281958730e+00 +0.0000000000000000e+00 +4.8999999404404164e+00 -3.0672797292165738e-02 -5.5099148838519008e-01 +5.5105915753749677e-03
4.9499999999999904e+00 +8.5383248510313905e+00 +0.0000000000000000e+00 +4.9499999385970064e+00 -3.0674599111352997e-02 -5.5102315079907949e-01 +5.5099376550087923e-03
4.9999999999999902e+00 +8.5383111357520747e+00 +0.0000000000000000e+00 +4.9999999367159011e+00 -3.0676418141925781e-02 -5.5105504335891986e-01 +5.5092946568994832e-03
5.0499999999999901e+00 +8.5382972823499319e+00 +0.0000000000000000e+00 +5.0499999347967179e+00 -3.0678254175556322e-02 -5.5108716313714023e-01 +5.5086626479965576e-03
5.0999999999999899e+00 +8.5382832908169135e+00 +0.0000000000000000e+00 +5.0999999328390722e+00 -3.0680107003914523e-02 -5.5111950720617020e-01 +5.5080416952502965e-03
5.1499999999999897e+00 +8.5382691611449104e+00 +0.0000000000000000e+00 +5.1499999308425801e+00 -3.0681976418667947e-02 -5.5115207263843879e-01 +5.5074318656117335e-03
5.1999999999999895e+00 +8.5382548933257603e+00 +0.0000000000000000e+00 +5.1999999288068572e+00 -3.0683862211481661e-02 -5.5118485650637383e-01 +5.5068332260326527e-03
5.2499999999999893e+00 +8.5382404873512474e+00 +0.0000000000000000e+00 +5.2499999267315207e+00 -3.0685764174018217e-02 -5.5121785588240257e-01 +5.5062458434655941e-03
5.2999999999999892e+00 +8.5382259432130994e+00 +0.0000000000000000e+00 +5.2999999246161851e+00 -3.0687682097937555e-02 -5.5125106783895095e-01 +5.5056697848638435e-03
5.3499999999999890e+00 +8.5382112609029921e+00 +0.0000000000000000e+00 +5.3499999224604666e+00 -3.0689615774896942e-02 -5.5128448944844410e-01 +5.5051051171814500e-03
5.3999999999999888e+00 +8.5381964404125483e+00 +0.0000000000000000e+00 +5.3999999202639817e+00 -3.0691564996550864e-02 -5.5131811778330464e-01 +5.5045519073731982e-03
5.4499999999999886e+00 +8.5381814817333392e+00 +0.0000000000000000e+00 +5.4499999180263448e+00 -3.0693529554551045e-02 -5.5135194991595415e-01 +5.5040102223946272e-03
5.4999999999999885e+00 +8.5381663848568863e+00 +0.0000000000000000e+00 +5.4999999157471722e+00 -3.0695509240546204e-02 -5.5138598291881147e-01 +5.5034801292020282e-03
5.5499999999999883e+00 +8.5381511497746576e+00 +0.0000000000000000e+00 +5.5499999134260793e+00 -3.0697503846182202e-02 -5.5142021386429374e-01 +5.5029616947524359e-03
5.5999999999999881e+00 +8.5381357764780734e+00 +0.0000000000000000e+00 +5.5999999110626808e+00 -3.0699513163101759e-02 -5.5145463982481524e-01 +5.5024549860036376e-03
5.6499999999999879e+00 +8.5381202649585060e+00 +0.0000000000000000e+00 +5.6499999086565929e+00 -3.0701536982944540e-02 -5.5148925787278769e-01 +5.5019600699141580e-03
5.6999999999999877e+00 +8.5381046152072777e+00 +0.0000000000000000e+00 +5.6999999062074300e+00 -3.0703575097346964e-02 -5.5152406508061935e-01 +5.5014770134432728e-03
5.7499999999999876e+00 +8.5380888272156650e+00 +0.0000000000000000e+00 +5.7499999037148068e+00 -3.0705627297942201e-02 -5.5155905852071596e-01 +5.5010058835509986e-03
5.7999999999999874e+00 +8.5380729009748961e+00 +0.0000000000000000e+00 +5.7999999011783396e+00 -3.0707693376360121e-02 -5.5159423526547979e-01 +5.5005467471981101e-03
5.8499999999999872e+00 +8.5380568364761533e+00 +0.0000000000000000e+00 +5.8499998985976420e+00 -3.0709773124227100e-02 -5.5162959238730869e-01 +5.5000996713461059e-03
5.8999999999999870e+00 +8.5380406337105761e+00 +0.0000000000000000e+00 +5.8999998959723303e+00 -3.0711866333166069e-02 -5.5166512695859771e-01 +5.4996647229572345e-03
