# field on trajectory
# s[mm] rx[mm] ry[mm] rz[mm] bx[T] by[T] bz[T]
0.0000000000000000e+00 +8.2850000000000001e+00 +0.0000000000000000e+00 +0.0000000000000000e+00 -3.0605977491270000e-02 -5.8140921522560707e-01 +5.9741718180259060e-03
-5.0000000000000003e-02 +8.2849999305526065e+00 +0.0000000000000000e+00 -4.9999999999935693e-02 -3.0606107967738067e-02 -5.8140879512202326e-01 +5.9742050945275722e-03
-1.0000000000000001e-01 +8.2849997222104754e+00 +0.0000000000000000e+00 -9.9999999999485556e-02 -3.0606252522793267e-02 -5.8140872824217782e-01 +5.9742391134731468e-03
-1.5000000000000002e-01 +8.2849993749736246e+00 +0.0000000000000000e+00 -1.4999999999826374e-01 -3.0606411375809287e-02 -5.8140901401157730e-01 +5.9742738655518069e-03
-2.0000000000000001e-01 +8.2849988888419865e+00 +0.0000000000000000e+00 -1.9999999999588441e-01 -3.0606584746160952e-02 -5.8140965185574345e-01 +5.9743093414528960e-03
-2.5000000000000000e-01 +8.2849982638154085e+00 +0.0000000000000000e+00 -2.4999999999196176e-01 -3.0606772853224253e-02 -5.8141064120021679e-01 +5.9743455318659365e-03
-2.9999999999999999e-01 +8.2849974998936524e+00 +0.0000000000000000e+00 -2.9999999998610993e-01 -3.0606975916376317e-02 -5.8141198147055295e-01 +5.9743824274806007e-03
-3.4999999999999998e-01 +8.2849965970764003e+00 +0.0000000000000000e+00 -3.4999999997794307e-01 -3.0607194154995382e-02 -5.8141367209232531e-01 +5.9744200189867343e-03
-3.9999999999999997e-01 +8.2849955553632473e+00 +0.0000000000000000e+00 -3.9999999996707530e-01 -3.0607427788460775e-02 -5.8141571249112278e-01 +5.9744582970743271e-03
-4.4999999999999996e-01 +8.2849943747537047e+00 +0.0000000000000000e+00 -4.4999999995312084e-01 -3.0607677036152903e-02 -5.8141810209255174e-01 +5.9744972524335251e-03
-4.9999999999999994e-01 +8.2849930552472042e+00 +0.0000000000000000e+00 -4.9999999993569377e-01 -3.0607942117453196e-02 -5.8142084032223429e-01 +5.9745368757546094e-03
-5.4999999999999993e-01 +8.2849915968430903e+00 +0.0000000000000000e+00 -5.4999999991440829e-01 -3.0608223251744140e-02 -5.8142392660580822e-01 +5.9745771577280008e-03
-5.9999999999999998e-01 +8.2849899995406258e+00 +0.0000000000000000e+00 -5.9999999988887842e-01 -3.0608520658409247e-02 -5.8142736036892884e-01 +5.9746180890442643e-03
-6.5000000000000002e-01 +8.2849882633389900e+00 +0.0000000000000000e+00 -6.4999999985871837e-01 -3.0608834556832984e-02 -5.8143114103726545e-01 +5.9746596603940773e-03
-7.0000000000000007e-01 +8.2849863882372805e+00 +0.0000000000000000e+00 -6.9999999982354222e-01 -3.0609165166400817e-02 -5.8143526803650525e-01 +5.9747018624682485e-03
-7.5000000000000011e-01 +8.2849843742345115e+00 +0.0000000000000000e+00 -7.4999999978296406e-01 -3.0609512706499149e-02 -5.8143974079234939e-01 +5.9747446859577053e-03
-8.0000000000000016e-01 +8.2849822213296136e+00 +0.0000000000000000e+00 -7.9999999973659797e-01 -3.0609877396515318e-02 -5.8144455873051593e-01 +5.9747881215534808e-03
-8.5000000000000020e-01 +8.2849799295214357e+00 +0.0000000000000000e+00 -8.4999999968405804e-01 -3.0610259455837605e-02 -5.8144972127673811e-01 +5.9748321599467219e-03
-9.0000000000000024e-01 +8.2849774988087468e+00 +0.0000000000000000e+00 -8.9999999962495836e-01 -3.0610659103855124e-02 -5.8145522785676418e-01 +5.9748767918286760e-03
-9.5000000000000029e-01 +8.2849749291902288e+00 +0.0000000000000000e+00 -9.4999999955891290e-01 -3.0611076559957907e-02 -5.8146107789635815e-01 +5.9749220078906843e-03
-1.0000000000000002e+00 +8.2849722206644856e+00 +0.0000000000000000e+00 -9.9999999948553564e-01 -3.0611512043536834e-02 -5.8146727082129879e-01 +5.9749677988241877e-03
-1.0500000000000003e+00 +8.2849693732300373e+00 +0.0000000000000000e+00 -1.0499999994044407e+00 -3.0611965773983597e-02 -5.8147380605738053e-01 +5.9750141553207067e-03
-1.1000000000000003e+00 +8.2849663868853227e+00 +0.0000000000000000e+00 -1.0999999993152421e+00 -3.0612437970690715e-02 -5.8148068303041234e-01 +5.9750610680718444e-03
-1.1500000000000004e+00 +8.2849632616287003e+00 +0.0000000000000000e+00 -1.1499999992175536e+00 -3.0612928853051509e-02 -5.8148790116621829e-01 +5.9751085277692838e-03
-1.2000000000000004e+00 +8.2849599974584436e+00 +0.0000000000000000e+00 -1.1999999991109893e+00 -3.0613438640460060e-02 -5.8149545989063700e-01 +5.9751565251047771e-03
-1.2500000000000004e+00 +8.2849565943727477e+00 +0.0000000000000000e+00 -1.2499999989951633e+00 -3.0613967552311189e-02 -5.8150335862952129e-01 +5.9752050507701441e-03
-1.3000000000000005e+00 +8.2849530523697261e+00 +0.0000000000000000e+00 -1.2999999988696893e+00 -3.0614515808000495e-02 -5.8151159680874032e-01 +5.9752540954572638e-03
-1.3500000000000005e+00 +8.2849493714474107e+00 +0.0000000000000000e+00 -1.3499999987341813e+00 -3.0615083626924236e-02 -5.8152017385417532e-01 +5.9753036498580723e-03
-1.4000000000000006e+00 +8.2849455516037533e+00 +0.0000000000000000e+00 -1.3999999985882532e+00 -3.0615671228479420e-02 -5.8152908919172341e-01 +5.9753537046645551e-03
-1.4500000000000006e+00 +8.2849415928366223e+00 +0.0000000000000000e+00 -1.4499999984315188e+00 -3.0616278832063651e-02 -5.8153834224729517e-01 +5.9754042505687490e-03
-1.5000000000000007e+00 +8.2849374951438080e+00 +0.0000000000000000e+00 -1.4999999982635919e+00 -3.0616906657075293e-02 -5.8154793244681602e-01 +5.9754552782627229e-03
-1.5500000000000007e+00 +8.2849332585230204e+00 +0.0000000000000000e+00 -1.5499999980840862e+00 -3.0617554922913248e-02 -5.8155785921622438e-01 +5.9755067784385907e-03
-1.6000000000000008e+00 +8.2849288829718866e+00 +0.0000000000000000e+00 -1.5999999978926156e+00 -3.0618223848977073e-02 -5.8156812198147323e-01 +5.9755587417884845e-03
-1.6500000000000008e+00 +8.2849243684879568e+00 +0.0000000000000000e+00 -1.6499999976887938e+00 -3.0618913654666916e-02 -5.8157872016852941e-01 +5.9756111590045721e-03
-1.7000000000000008e+00 +8.2849197150686980e+00 +0.0000000000000000e+00 -1.6999999974722346e+00 -3.0619624559383510e-02 -5.8158965320337286e-01 +5.9756640207790403e-03
-1.7500000000000009e+00 +8.2849149227114971e+00 +0.0000000000000000e+00 -1.7499999972425517e+00 -3.0620356782528120e-02 -5.8160092051199741e-01 +5.9757173178040862e-03
-1.8000000000000009e+00 +8.2849099914136648e+00 +0.0000000000000000e+00 -1.7999999969993588e+00 -3.0621110543502569e-02 -5.8161252152041032e-01 +5.9757710407719157e-03
-1.8500000000000010e+00 +8.2849049211724282e+00 +0.0000000000000000e+00 -1.8499999967422691e+00 -3.0621886061709166e-02 -5.8162445565463217e-01 +5.9758251803747452e-03
-1.9000000000000010e+00 +8.2848997119849379e+00 +0.0000000000000000e+00 -1.8999999964708967e+00 -3.0622683556550748e-02 -5.8163672234069685e-01 +5.9758797273047901e-03
-1.9500000000000011e+00 +8.2848943638482613e+00 +0.0000000000000000e+00 -1.9499999961848549e+00 -3.0623503247430593e-02 -5.8164932100465094e-01 +5.9759346722542536e-03
-2.0000000000000009e+00 +8.2848888767593909e+00 +0.0000000000000000e+00 -1.9999999958837573e+00 -3.0624345353752438e-02 -5.8166225107255420e-01 +5.9759900059153286e-03
-2.0500000000000007e+00 +8.2848832507152359e+00 +0.0000000000000000e+00 -2.0499999955672177e+00 -3.0625210014641590e-02 -5.8167551175847398e-01 +5.9760457147448902e-03
-2.1000000000000005e+00 +8.2848774857126308e+00 +0.0000000000000000e+00 -2.0999999952348491e+00 -3.0626097048107970e-02 -5.8168910142846264e-01 +5.9761017682584770e-03
-2.1500000000000004e+00 +8.2848715817483267e+00 +0.0000000000000000e+00 -2.1499999948862651e+00 -3.0627006191882970e-02 -5.8170301823657955e-01 +5.9761581317362179e-03
-2.2000000000000002e+00 +8.2848655388190018e+00 +0.0000000000000000e+00 -2.1999999945210793e+00 -3.0627937183698346e-02 -5.8171726033689586e-01 +5.9762147704581362e-03
-2.2500000000000000e+00 +8.2848593569212508e+00 +0.0000000000000000e+00 -2.2499999941389048e+00 -3.0628889761286190e-02 -5.8173182588349470e-01 +5.9762716497041195e-03
-2.2999999999999998e+00 +8.2848530360515973e+00 +0.0000000000000000e+00 -2.2999999937393549e+00 -3.0629863662378971e-02 -5.8174671303047132e-01 +5.9763287347539421e-03
-2.3499999999999996e+00 +8.2848465762064833e+00 +0.0000000000000000e+00 -2.3499999933220428e+00 -3.0630858624709437e-02 -5.8176191993193271e-01 +5.9763859908872159e-03
-2.3999999999999995e+00 +8.2848399773822745e+00 +0.0000000000000000e+00 -2.3999999928865821e+00 -3.0631874386010633e-02 -5.8177744474199655e-01 +5.9764433833834167e-03
-2.4499999999999993e+00 +8.2848332395752653e+00 +0.0000000000000000e+00 -2.4499999924325855e+00 -3.0632910684015868e-02 -5.8179328561479315e-01 +5.9765008775218495e-03
-2.4999999999999991e+00 +8.2848263627816685e+00 +0.0000000000000000e+00 -2.4999999919596663e+00 -3.0633967256458724e-02 -5.8180944070446328e-01 +5.9765584385816578e-03
-2.5499999999999989e+00 +8.2848193469976277e+00 +0.0000000000000000e+00 -2.5499999914674381e+00 -3.0635043841073000e-02 -5.8182590816515956e-01 +5.9766160318417919e-03
-2.5999999999999988e+00 +8.2848121922192064e+00 +0.0000000000000000e+00 -2.5999999909555136e+00 -3.0636140175592696e-02 -5.8184268615104473e-01 +5.9766736225810259e-03
-2.6499999999999986e+00 +8.2848048984423990e+00 +0.0000000000000000e+00 -2.6499999904235056e+00 -3.0637255997752019e-02 -5.8185977281629353e-01 +5.9767311760779238e-03
-2.6999999999999984e+00 +8.2847974656631216e+00 +0.0000000000000000e+00 -2.6999999898710274e+00 -3.0638391045285349e-02 -5.8187716631509057e-01 +5.9767886576108471e-03
-2.7499999999999982e+00 +8.2847898938772211e+00 +0.0000000000000000e+00 -2.7499999892976921e+00 -3.0639545055927201e-02 -5.8189486480163166e-01 +5.9768460324579288e-03
-2.7999999999999980e+00 +8.2847821830804680e+00 +0.0000000000000000e+00 -2.7999999887031120e+00 -3.0640717767412250e-02 -5.8191286643012297e-01 +5.9769032658970860e-03
-2.8499999999999979e+00 +8.2847743332685617e+00 +0.0000000000000000e+00 -2.8499999880869002e+00 -3.0641908917475244e-02 -5.8193116935478051e-01 +5.9769603232059879e-03
-2.8999999999999977e+00 +8.2847663444371307e+00 +0.0000000000000000e+00 -2.8999999874486697e+00 -3.0643118243851030e-02 -5.8194977172983131e-01 +5.9770171696620538e-03
-2.9499999999999975e+00 +8.2847582165817322e+00 +0.0000000000000000e+00 -2.9499999867880331e+00 -3.0644345484274544e-02 -5.8196867170951172e-01 +5.9770737705424539e-03
-2.9999999999999973e+00 +8.2847499496978489e+00 +0.0000000000000000e+00 -2.9999999861046032e+00 -3.0645590376480764e-02 -5.8198786744806896e-01 +5.9771300911240837e-03
-3.0499999999999972e+00 +8.2847415437808962e+00 +0.0000000000000000e+00 -3.0499999853979927e+00 -3.0646852658204698e-02 -5.8200735709975915e-01 +5.9771860966835628e-03
-3.0999999999999970e+00 +8.2847329988262182e+00 +0.0000000000000000e+00 -3.0999999846678139e+00 -3.0648132067181345e-02 -5.8202713881884871e-01 +5.9772417524972246e-03
-3.1499999999999968e+00 +8.2847243148290897e+00 +0.0000000000000000e+00 -3.1499999839136796e+00 -3.0649428341145712e-02 -5.8204721075961297e-01 +5.9772970238411091e-03
-3.1999999999999966e+00 +8.2847154917847163e+00 +0.0000000000000000e+00 -3.1999999831352026e+00 -3.0650741217832778e-02 -5.8206757107633722e-01 +5.9773518759909392e-03
-3.2499999999999964e+00 +8.2847065296882327e+00 +0.0000000000000000e+00 -3.2499999823319947e+00 -3.0652070434977471e-02 -5.8208821792331633e-01 +5.9774062742221357e-03
-3.2999999999999963e+00 +8.2846974285347077e+00 +0.0000000000000000e+00 -3.2999999815036687e+00 -3.0653415730314625e-02 -5.8210914945485293e-01 +5.9774601838097838e-03
-3.3499999999999961e+00 +8.2846881883191408e+00 +0.0000000000000000e+00 -3.3499999806498368e+00 -3.0654776841578999e-02 -5.8213036382526040e-01 +5.9775135700286365e-03
-3.3999999999999959e+00 +8.2846788090364623e+00 +0.0000000000000000e+00 -3.3999999797701115e+00 -3.0656153506505249e-02 -5.8215185918885948e-01 +5.9775663981531000e-03
-3.4499999999999957e+00 +8.2846692906815385e+00 +0.0000000000000000e+00 -3.4499999788641045e+00 -3.0657545462827882e-02 -5.8217363369998054e-01 +5.9776186334572282e-03
-3.4999999999999956e+00 +8.2846596332491682e+00 +0.0000000000000000e+00 -3.4999999779314281e+00 -3.0658952448281276e-02 -5.8219568551296219e-01 +5.9776702412147114e-03
-3.5499999999999954e+00 +8.2846498367340846e+00 +0.0000000000000000e+00 -3.5499999769716948e+00 -3.0660374200599617e-02 -5.8221801278215191e-01 +5.9777211866988570e-03
-3.5999999999999952e+00 +8.2846399011309515e+00 +0.0000000000000000e+00 -3.5999999759845167e+00 -3.0661810457516876e-02 -5.8224061366190460e-01 +5.9777714351826007e-03
-3.6499999999999950e+00 +8.2846298264343705e+00 +0.0000000000000000e+00 -3.6499999749695053e+00 -3.0663260956766886e-02 -5.8226348630658398e-01 +5.9778209519384768e-03
-3.6999999999999948e+00 +8.2846196126388794e+00 +0.0000000000000000e+00 -3.6999999739262730e+00 -3.0664725436083170e-02 -5.8228662887056237e-01 +5.9778697022386182e-03
-3.7499999999999947e+00 +8.2846092597389482e+00 +0.0000000000000000e+00 -3.7499999728544315e+00 -3.0666203633199038e-02 -5.8231003950821891e-01 +5.9779176513547411e-03
-3.7999999999999945e+00 +8.2845987677289834e+00 +0.0000000000000000e+00 -3.7999999717535928e+00 -3.0667695285847521e-02 -5.8233371637394082e-01 +5.9779647645581491e-03
-3.8499999999999943e+00 +8.2845881366033307e+00 +0.0000000000000000e+00 -3.8499999706233683e+00 -3.0669200131761349e-02 -5.8235765762212321e-01 +5.9780110071197008e-03
-3.8999999999999941e+00 +8.2845773663562703e+00 +0.0000000000000000e+00 -3.8999999694633698e+00 -3.0670717908672956e-02 -5.8238186140716897e-01 +5.9780563443098244e-03
-3.9499999999999940e+00 +8.2845664569820201e+00 +0.0000000000000000e+00 -3.9499999682732092e+00 -3.0672248354314421e-02 -5.8240632588348762e-01 +5.9781007413984878e-03
-3.9999999999999938e+00 +8.2845554084747359e+00 +0.0000000000000000e+00 -3.9999999670524979e+00 -3.0673791206417483e-02 -5.8243104920549627e-01 +5.9781441636552008e-03
-4.0499999999999936e+00 +8.2845442208285114e+00 +0.0000000000000000e+00 -4.0499999658008479e+00 -3.0675346220885802e-02 -5.8245602940302865e-01 +5.9781865780240400e-03
-4.0999999999999934e+00 +8.2845328940373779e+00 +0.0000000000000000e+00 -4.0999999645178695e+00 -3.0676913226312205e-02 -5.8248126400756306e-01 +5.9782279581489725e-03
-4.1499999999999932e+00 +8.2845214280953083e+00 +0.0000000000000000e+00 -4.1499999632031752e+00 -3.0678492069462007e-02 -5.8250675042599032e-01 +5.9782682793490154e-03
-4.1999999999999931e+00 +8.2845098229962151e+00 +0.0000000000000000e+00 -4.1999999618563759e+00 -3.0680082597100651e-02 -5.8253248606520491e-01 +5.9783075169432421e-03
-4.2499999999999929e+00 +8.2844980787339502e+00 +0.0000000000000000e+00 -4.2499999604770826e+00 -3.0681684655993764e-02 -5.8255846833210401e-01 +5.9783456462507789e-03
-4.2999999999999927e+00 +8.2844861953023052e+00 +0.0000000000000000e+00 -4.2999999590649072e+00 -3.0683298092907065e-02 -5.8258469463358853e-01 +5.9783826425908277e-03
-4.3499999999999925e+00 +8.2844741726950168e+00 +0.0000000000000000e+00 -4.3499999576194606e+00 -3.0684922754606454e-02 -5.8261116237656074e-01 +5.9784184812826631e-03
-4.3999999999999924e+00 +8.2844620109057612e+00 +0.0000000000000000e+00 -4.3999999561403529e+00 -3.0686558487857975e-02 -5.8263786896792713e-01 +5.9784531376456344e-03
-4.4499999999999922e+00 +8.2844497099281575e+00 +0.0000000000000000e+00 -4.4499999546271960e+00 -3.0688205139427775e-02 -5.8266481181459484e-01 +5.9784865869991826e-03
-4.4999999999999920e+00 +8.2844372697557702e+00 +0.0000000000000000e+00 -4.4999999530796009e+00 -3.0689862556082168e-02 -5.8269198832347358e-01 +5.9785188046628428e-03
-4.5499999999999918e+00 +8.2844246903821084e+00 +0.0000000000000000e+00 -4.5499999514971785e+00 -3.0691530584587574e-02 -5.8271939590147515e-01 +5.9785497659562512e-03
-4.5999999999999917e+00 +8.2844119718006226e+00 +0.0000000000000000e+00 -4.5999999498795390e+00 -3.0693209071710564e-02 -5.8274703195551247e-01 +5.9785794461991466e-03
-4.6499999999999915e+00 +8.2843991140047120e+00 +0.0000000000000000e+00 -4.6499999482262933e+00 -3.0694897864217779e-02 -5.8277489389249937e-01 +5.9786078207113838e-03
-4.6999999999999913e+00 +8.2843861169877222e+00 +0.0000000000000000e+00 -4.6999999465370523e+00 -3.0696596808876056e-02 -5.8280297911935142e-01 +5.9786348648129366e-03
-4.7499999999999911e+00 +8.2843729807429423e+00 +0.0000000000000000e+00 -4.7499999448114272e+00 -3.0698305752452294e-02 -5.8283128504298465e-01 +5.9786605538239071e-03
-4.7999999999999909e+00 +8.2843597052636095e+00 +0.0000000000000000e+00 -4.7999999430490279e+00 -3.0700024541713545e-02 -5.8285980907031576e-01 +5.9786848630645345e-03
-4.8499999999999908e+00 +8.2843462905429117e+00 +0.0000000000000000e+00 -4.8499999412494645e+00 -3.0701753023426929e-02 -5.8288854860826145e-01 +5.9787077678551863e-03
-4.8999999999999906e+00 +8.2843327365739814e+00 +0.0000000000000000e+00 -4.8999999394123472e+00 -3.0703491044359720e-02 -5.8291750106373907e-01 +5.9787292435163923e-03
-4.9499999999999904e+00 +8.2843190433499050e+00 +0.0000000000000000e+00 -4.9499999375372870e+00 -3.0705238451279267e-02 -5.8294666384366522e-01 +5.9787492653688191e-03
-4.9999999999999902e+00 +8.2843052108637139e+00 +0.0000000000000000e+00 -4.9999999356238938e+00 -3.0706995090953034e-02 -5.8297603435495637e-01 +5.9787678087333063e-03
-5.0499999999999901e+00 +8.2842912391083914e+00 +0.0000000000000000e+00 -5.0499999336717778e+00 -3.0708760810148589e-02 -5.8300561000452922e-01 +5.9787848489308536e-03
-5.0999999999999899e+00 +8.2842771280768730e+00 +0.0000000000000000e+00 -5.0999999316805491e+00 -3.0710535455633580e-02 -5.8303538819929779e-01 +5.9788003612826369e-03
-5.1499999999999897e+00 +8.2842628777620444e+00 +0.0000000000000000e+00 -5.1499999296498178e+00 -3.0712318874175783e-02 -5.8306536634617701e-01 +5.9788143211100091e-03
-5.1999999999999895e+00 +8.2842484881567451e+00 +0.0000000000000000e+00 -5.1999999275791939e+00 -3.0714110912543040e-02 -5.8309554185207901e-01 +5.9788267037345069e-03
-5.2499999999999893e+00 +8.2842339592537666e+00 +0.0000000000000000e+00 -5.2499999254682876e+00 -3.0715911417503260e-02 -5.8312591212391485e-01 +5.9788374844778709e-03
-5.2999999999999892e+00 +8.2842192910458525e+00 +0.0000000000000000e+00 -5.2999999233167081e+00 -3.0717720235824492e-02 -5.8315647456859421e-01 +5.9788466386620298e-03
-5.3499999999999890e+00 +8.2842044835257038e+00 +0.0000000000000000e+00 -5.3499999211240654e+00 -3.0719537214274843e-02 -5.8318722659302413e-01 +5.9788541416091233e-03
-5.3999999999999888e+00 +8.2841895366859735e+00 +0.0000000000000000e+00 -5.3999999188899688e+00 -3.0721362199622460e-02 -5.8321816560411011e-01 +5.9788599686415042e-03
-5.4499999999999886e+00 +8.2841744505192700e+00 +0.0000000000000000e+00 -5.4499999166140283e+00 -3.0723195038635649e-02 -5.8324928900875439e-01 +5.9788640950817432e-03
-5.4999999999999885e+00 +8.2841592250181577e+00 +0.0000000000000000e+00 -5.4999999142958531e+00 -3.0725035578082698e-02 -5.8328059421385703e-01 +5.9788664962526408e-03
-5.5499999999999883e+00 +8.2841438601751598e+00 +0.0000000000000000e+00 -5.5499999119350525e+00 -3.0726883664732040e-02 -5.8331207862631473e-01 +5.9788671474772228e-03
-5.5999999999999881e+00 +8.2841283559827534e+00 +0.0000000000000000e+00 -5.5999999095312365e+00 -3.0728739145352138e-02 -5.8334373965302144e-01 +5.9788660240787609e-03
-5.6499999999999879e+00 +8.2841127124333767e+00 +0.0000000000000000e+00 -5.6499999070840143e+00 -3.0730601866711532e-02 -5.8337557470086698e-01 +5.9788631013807771e-03
-5.6999999999999877e+00 +8.2840969295194231e+00 +0.0000000000000000e+00 -5.6999999045929943e+00 -3.0732471675578833e-02 -5.8340758117673897e-01 +5.9788583547070364e-03
-5.7499999999999876e+00 +8.2840810072332474e+00 +0.0000000000000000e+00 -5.7499999020577865e+00 -3.0734348418722659e-02 -5.8343975648751911e-01 +5.9788517593815623e-03
-5.7999999999999874e+00 +8.2840649455671631e+00 +0.0000000000000000e+00 -5.7999998994779993e+00 -3.0736231942911776e-02 -5.8347209804008615e-01 +5.9788432907286549e-03
-5.8499999999999872e+00 +8.2840487445134450e+00 +0.0000000000000000e+00 -5.8499998968532418e+00 -3.0738122094914923e-02 -5.8350460324131470e-01 +5.9788329240728806e-03
