# field on trajectory
# s[mm] rx[mm] ry[mm] rz[mm] bx[T] by[T] bz[T]
-0.0000000000000000e+00 +8.5269999999999904e+00 +0.0000000000000000e+00 -0.0000000000000000e+00 -2.4817479559218305e-04 -5.6955426695207401e-01 -1.2615237220700954e-03
-5.0000000000000003e-02 +8.5269999309457507e+00 +0.0000000000000000e+00 -4.9999999999936401e-02 -2.4789096777037687e-04 -5.6955460922301393e-01 -1.2635469653335550e-03
-1.0000000000000001e-01 +8.5269997237883199e+00 +0.0000000000000000e+00 -9.9999999999491399e-02 -2.4758610639911678e-04 -5.6955538567236419e-01 -1.2655629969606499e-03
-1.4999999999999999e-01 +8.5269993785295792e+00 +0.0000000000000000e+00 -1.4999999999828301e-01 -2.4726162309291394e-04 -5.6955659461948160e-01 -1.2675717146124119e-03
-2.0000000000000001e-01 +8.5269988951622508e+00 +0.0000000000000000e+00 -1.9999999999593099e-01 -2.4691892947353481e-04 -5.6955823438379338e-01 -1.2695730159503048e-03
-2.5000000000000000e-01 +8.5269982736936107e+00 +0.0000000000000000e+00 -2.4999999999205300e-01 -2.4655943716854120e-04 -5.6956030328461837e-01 -1.2715667986356123e-03
-2.9999999999999999e-01 +8.5269975141200103e+00 +0.0000000000000000e+00 -2.9999999998626797e-01 -2.4618455781108355e-04 -5.6956279964136314e-01 -1.2735529603297390e-03
-3.4999999999999998e-01 +8.5269966164378292e+00 +0.0000000000000000e+00 -3.4999999997819298e-01 -2.4579570303876575e-04 -5.6956572177343900e-01 -1.2755313986938324e-03
-4.0000000000000002e-01 +8.5269955806543294e+00 +0.0000000000000000e+00 -3.9999999996744900e-01 -2.4539428449251029e-04 -5.6956906800018325e-01 -1.2775020113884063e-03
-4.5000000000000001e-01 +8.5269944067658798e+00 +0.0000000000000000e+00 -4.4999999995365297e-01 -2.4498171381625986e-04 -5.6957283664102298e-01 -1.2794646960735778e-03
-5.0000000000000000e-01 +8.5269930947724806e+00 +0.0000000000000000e+00 -4.9999999993642402e-01 -2.4455940265574955e-04 -5.6957702601536930e-01 -1.2814193504086207e-03
-5.5000000000000004e-01 +8.5269916446777607e+00 +0.0000000000000000e+00 -5.4999999991537996e-01 -2.4412876265764901e-04 -5.6958163444261745e-01 -1.2833658720517924e-03
-5.9999999999999998e-01 +8.5269900564744603e+00 +0.0000000000000000e+00 -5.9999999989013997e-01 -2.4369120546908284e-04 -5.6958666024225824e-01 -1.2853041586604380e-03
-6.5000000000000002e-01 +8.5269883301661995e+00 +0.0000000000000000e+00 -6.4999999986032297e-01 -2.4324814273621017e-04 -5.6959210173371577e-01 -1.2872341078903997e-03
-6.9999999999999996e-01 +8.5269864657566394e+00 +0.0000000000000000e+00 -6.9999999982554695e-01 -2.4280098610364836e-04 -5.6959795723643125e-01 -1.2891556173960548e-03
-7.5000000000000000e-01 +8.5269844632421208e+00 +0.0000000000000000e+00 -7.4999999978543097e-01 -2.4235114721380939e-04 -5.6960422506991815e-01 -1.2910685848302806e-03
-8.0000000000000004e-01 +8.5269823226226400e+00 +0.0000000000000000e+00 -7.9999999973959202e-01 -2.4190003770575784e-04 -5.6961090355368282e-01 -1.2929729078440732e-03
-8.4999999999999998e-01 +8.5269800438982202e+00 +0.0000000000000000e+00 -8.4999999968765005e-01 -2.4144906921444898e-04 -5.6961799100725319e-01 -1.2948684840864446e-03
-9.0000000000000002e-01 +8.5269776270688507e+00 +0.0000000000000000e+00 -8.9999999962922395e-01 -2.4099965336987336e-04 -5.6962548575017979e-01 -1.2967552112042471e-03
-9.4999999999999996e-01 +8.5269750721381605e+00 +0.0000000000000000e+00 -9.4999999956393100e-01 -2.4055320179610339e-04 -5.6963338610201120e-01 -1.2986329868419338e-03
-1.0000000000000000e+00 +8.5269723790988792e+00 +0.0000000000000000e+00 -9.9999999949139096e-01 -2.4011112611082360e-04 -5.6964169038240353e-01 -1.3005017086416680e-03
-1.0500000000000000e+00 +8.5269695479546499e+00 +0.0000000000000000e+00 -1.0499999994112199e+00 -2.3967458466892701e-04 -5.6965039697488584e-01 -1.3023612866331219e-03
-1.1000000000000001e+00 +8.5269665787091107e+00 +0.0000000000000000e+00 -1.0999999993230400e+00 -2.3924372279713620e-04 -5.6965950451873093e-01 -1.3042116804051387e-03
-1.1499999999999999e+00 +8.5269634713586093e+00 +0.0000000000000000e+00 -1.1499999992264700e+00 -2.3881843255848801e-04 -5.6966901171723683e-01 -1.3060528619353027e-03
-1.2000000000000000e+00 +8.5269602259031707e+00 +0.0000000000000000e+00 -1.1999999991211201e+00 -2.3839860600623520e-04 -5.6967891727372466e-01 -1.3078848031993881e-03
-1.2500000000000000e+00 +8.5269568423427700e+00 +0.0000000000000000e+00 -1.2499999990066200e+00 -2.3798413518313119e-04 -5.6968921989156762e-01 -1.3097074761714109e-03
-1.3000000000000000e+00 +8.5269533206774195e+00 +0.0000000000000000e+00 -1.2999999988825901e+00 -2.3757491212061311e-04 -5.6969991827419475e-01 -1.3115208528235989e-03
-1.3500000000000001e+00 +8.5269496609071194e+00 +0.0000000000000000e+00 -1.3499999987486300e+00 -2.3717082883798846e-04 -5.6971101112509381e-01 -1.3133249051263617e-03
-1.3999999999999999e+00 +8.5269458630355093e+00 +0.0000000000000000e+00 -1.3999999986043801e+00 -2.3677177734152032e-04 -5.6972249714778833e-01 -1.3151196050481956e-03
-1.4500000000000000e+00 +8.5269419270553009e+00 +0.0000000000000000e+00 -1.4499999984494401e+00 -2.3637764962401091e-04 -5.6973437504594815e-01 -1.3169049245559492e-03
-1.5000000000000000e+00 +8.5269378529737896e+00 +0.0000000000000000e+00 -1.4999999982834400e+00 -2.3598833766328930e-04 -5.6974664352320403e-01 -1.3186808356142794e-03
-1.5500000000000000e+00 +8.5269336407873197e+00 +0.0000000000000000e+00 -1.5499999981060000e+00 -2.3560373342209492e-04 -5.6975930128333985e-01 -1.3204473101861426e-03
-1.6000000000000001e+00 +8.5269292904959002e+00 +0.0000000000000000e+00 -1.5999999979167401e+00 -2.3522372884686321e-04 -5.6977234703018764e-01 -1.3222043202324712e-03
-1.6499999999999999e+00 +8.5269248020995292e+00 +0.0000000000000000e+00 -1.6499999977152600e+00 -2.3484821586701115e-04 -5.6978577946765763e-01 -1.3239518377122215e-03
-1.7000000000000000e+00 +8.5269201755982102e+00 +0.0000000000000000e+00 -1.6999999975011999e+00 -2.3447708639412165e-04 -5.6979959729974272e-01 -1.3256898345823469e-03
-1.7500000000000000e+00 +8.5269154109919292e+00 +0.0000000000000000e+00 -1.7499999972741700e+00 -2.3411023232112953e-04 -5.6981379923052011e-01 -1.3274182827977697e-03
-1.8000000000000000e+00 +8.5269105082843506e+00 +0.0000000000000000e+00 -1.7999999970337901e+00 -2.3374754552140528e-04 -5.6982838396412816e-01 -1.3291371543112801e-03
-1.8500000000000001e+00 +8.5269054674718099e+00 +0.0000000000000000e+00 -1.8499999967796801e+00 -2.3338891784824260e-04 -5.6984335020485177e-01 -1.3308464210737363e-03
-1.8999999999999999e+00 +8.5269002885506797e+00 +0.0000000000000000e+00 -1.8999999965114500e+00 -2.3303424113384045e-04 -5.6985869665707067e-01 -1.3325460550338824e-03
-1.9500000000000000e+00 +8.5268949715282396e+00 +0.0000000000000000e+00 -1.9499999962287300e+00 -2.3268340718819047e-04 -5.6987442202518024e-01 -1.3342360281381020e-03
-2.0000000000000000e+00 +8.5268895164008391e+00 +0.0000000000000000e+00 -1.9999999959311201e+00 -2.3233630779886084e-04 -5.6989052501375947e-01 -1.3359163123308363e-03
-2.0499999999999998e+00 +8.5268839230666291e+00 +0.0000000000000000e+00 -2.0499999956182600e+00 -2.3199265617656153e-04 -5.6990700429830954e-01 -1.3375868618816038e-03
-2.1000000000000001e+00 +8.5268781914164702e+00 +0.0000000000000000e+00 -2.0999999952897199e+00 -2.3165145130118320e-04 -5.6992385843475646e-01 -1.3392475603609118e-03
-2.1499999999999999e+00 +8.5268723214576294e+00 +0.0000000000000000e+00 -2.1499999949451398e+00 -2.3131151361777949e-04 -5.6994108594818205e-01 -1.3408982736659975e-03
-2.2000000000000002e+00 +8.5268663131864706e+00 +0.0000000000000000e+00 -2.1999999945841302e+00 -2.3097166360270711e-04 -5.6995868536367655e-01 -1.3425388676991540e-03
-2.2500000000000000e+00 +8.5268601666030008e+00 +0.0000000000000000e+00 -2.2499999942063100e+00 -2.3063072176558565e-04 -5.6997665520622198e-01 -1.3441692083677971e-03
-2.2999999999999998e+00 +8.5268538817035697e+00 +0.0000000000000000e+00 -2.2999999938113000e+00 -2.3028750865185056e-04 -5.6999499400074016e-01 -1.3457891615849822e-03
-2.3500000000000001e+00 +8.5268474584954692e+00 +0.0000000000000000e+00 -2.3499999933987001e+00 -2.2994084484471948e-04 -5.7001370027197718e-01 -1.3473985932694740e-03
-2.3999999999999999e+00 +8.5268408969750507e+00 +0.0000000000000000e+00 -2.3999999929681501e+00 -2.2958955096813297e-04 -5.7003277254465745e-01 -1.3489973693465646e-03
-2.4500000000000002e+00 +8.5268341971459396e+00 +0.0000000000000000e+00 -2.4499999925192602e+00 -2.2923244768862614e-04 -5.7005220934334344e-01 -1.3505853557480667e-03
-2.5000000000000000e+00 +8.5268273590008903e+00 +0.0000000000000000e+00 -2.4999999920516398e+00 -2.2886835571816393e-04 -5.7007200919256140e-01 -1.3521624184130597e-03
-2.5499999999999998e+00 +8.5268203825435194e+00 +0.0000000000000000e+00 -2.5499999915649201e+00 -2.2849609581592479e-04 -5.7009217061663364e-01 -1.3537284232878028e-03
-2.6000000000000001e+00 +8.5268132677774702e+00 +0.0000000000000000e+00 -2.5999999910586999e+00 -2.2811448879094499e-04 -5.7011269213975135e-01 -1.3552832363263312e-03
-2.6499999999999999e+00 +8.5268060146954703e+00 +0.0000000000000000e+00 -2.6499999905326099e+00 -2.2772235550475858e-04 -5.7013357228604911e-01 -1.3568267234910529e-03
-2.7000000000000002e+00 +8.5267986233047797e+00 +0.0000000000000000e+00 -2.6999999899862699e+00 -2.2731851687309276e-04 -5.7015480957940834e-01 -1.3583587507525838e-03
-2.7500000000000000e+00 +8.5267910936017905e+00 +0.0000000000000000e+00 -2.7499999894192899e+00 -2.2690179386888467e-04 -5.7017640254363888e-01 -1.3598791840906486e-03
-2.7999999999999998e+00 +8.5267834255828294e+00 +0.0000000000000000e+00 -2.7999999888312899e+00 -2.2647100752435720e-04 -5.7019834970239258e-01 -1.3613878894942269e-03
-2.8500000000000001e+00 +8.5267756192552007e+00 +0.0000000000000000e+00 -2.8499999882218900e+00 -2.2602497893309403e-04 -5.7022064957907181e-01 -1.3628847329616809e-03
-2.8999999999999999e+00 +8.5267676746152592e+00 +0.0000000000000000e+00 -2.8999999875907001e+00 -2.2556252925296039e-04 -5.7024330069698703e-01 -1.3643695805015928e-03
-2.9500000000000002e+00 +8.5267595916629908e+00 +0.0000000000000000e+00 -2.9499999869373399e+00 -2.2508247970808596e-04 -5.7026630157924085e-01 -1.3658422981328224e-03
-3.0000000000000000e+00 +8.5267513703984203e+00 +0.0000000000000000e+00 -2.9999999862614302e+00 -2.2458365159131529e-04 -5.7028965074874738e-01 -1.3673027518849537e-03
-3.0499999999999998e+00 +8.5267430108251592e+00 +0.0000000000000000e+00 -3.0499999855625899e+00 -2.2406528915537623e-04 -5.7031334658352240e-01 -1.3687508393573037e-03
-3.1000000000000001e+00 +8.5267345129359509e+00 +0.0000000000000000e+00 -3.0999999848404300e+00 -2.2352832824405435e-04 -5.7033738688285596e-01 -1.3701865843918502e-03
-3.1499999999999999e+00 +8.5267258767344192e+00 +0.0000000000000000e+00 -3.1499999840945798e+00 -2.2297412755503283e-04 -5.7036176930135940e-01 -1.3716100423897153e-03
-3.2000000000000002e+00 +8.5267171022205694e+00 +0.0000000000000000e+00 -3.1999999833246400e+00 -2.2240404573850908e-04 -5.7038649149378162e-01 -1.3730212687516005e-03
-3.2500000000000000e+00 +8.5267081893980503e+00 +0.0000000000000000e+00 -3.2499999825302401e+00 -2.2181944139452341e-04 -5.7041155111495889e-01 -1.3744203188775165e-03
-3.2999999999999998e+00 +8.5266991382632096e+00 +0.0000000000000000e+00 -3.2999999817109900e+00 -2.2122167307075556e-04 -5.7043694581990279e-01 -1.3758072481668941e-03
-3.3500000000000001e+00 +8.5266899488124199e+00 +0.0000000000000000e+00 -3.3499999808665200e+00 -2.2061209925985229e-04 -5.7046267326375222e-01 -1.3771821120183117e-03
-3.3999999999999999e+00 +8.5266806210529502e+00 +0.0000000000000000e+00 -3.3999999799964300e+00 -2.1999207839666055e-04 -5.7048873110169462e-01 -1.3785449658291354e-03
-3.4500000000000002e+00 +8.5266711549811607e+00 +0.0000000000000000e+00 -3.4499999791003502e+00 -2.1936296885630472e-04 -5.7051511698913682e-01 -1.3798958649958717e-03
-3.5000000000000000e+00 +8.5266615505970496e+00 +0.0000000000000000e+00 -3.4999999781778901e+00 -2.1872612895132572e-04 -5.7054182858160030e-01 -1.3812348649137334e-03
-3.5499999999999998e+00 +8.5266518079006293e+00 +0.0000000000000000e+00 -3.5499999772286701e+00 -2.1808291692928879e-04 -5.7056886353475511e-01 -1.3825620209765967e-03
-3.6000000000000001e+00 +8.5266419268882601e+00 +0.0000000000000000e+00 -3.5999999762523198e+00 -2.1743469097039399e-04 -5.7059621950445094e-01 -1.3838773885769616e-03
-3.6499999999999999e+00 +8.5266319075708505e+00 +0.0000000000000000e+00 -3.6499999752484298e+00 -2.1678280918450990e-04 -5.7062389414658699e-01 -1.3851810231054324e-03
-3.6999999999999900e+00 +8.5266217499374797e+00 +0.0000000000000000e+00 -3.6999999742166398e+00 -2.1612862960964724e-04 -5.7065188511739073e-01 -1.3864729799513966e-03
-3.7499999999999898e+00 +8.5266114539917908e+00 +0.0000000000000000e+00 -3.7499999731565601e+00 -2.1547351020851204e-04 -5.7068019007314963e-01 -1.3877533145021026e-03
-3.7999999999999901e+00 +8.5266010197374307e+00 +0.0000000000000000e+00 -3.7999999720678099e+00 -2.1481880886640075e-04 -5.7070880667032531e-01 -1.3890220821428628e-03
-3.8499999999999899e+00 +8.5265904471671092e+00 +0.0000000000000000e+00 -3.8499999709499999e+00 -2.1416588338900970e-04 -5.7073773256564253e-01 -1.3902793382571724e-03
-3.8999999999999901e+00 +8.5265797362881095e+00 +0.0000000000000000e+00 -3.8999999698027499e+00 -2.1351609149926237e-04 -5.7076696541590133e-01 -1.3915251382260263e-03
-3.9499999999999900e+00 +8.5265688870931609e+00 +0.0000000000000000e+00 -3.9499999686256899e+00 -2.1287079083560548e-04 -5.7079650287820283e-01 -1.3927595374284465e-03
-3.9999999999999898e+00 +8.5265578995895304e+00 +0.0000000000000000e+00 -3.9999999674184199e+00 -2.1223133894873711e-04 -5.7082634260973442e-01 -1.3939825912407070e-03
-4.0499999999999901e+00 +8.5265467737735907e+00 +0.0000000000000000e+00 -4.0499999661805601e+00 -2.1159887259165972e-04 -5.7085648210602469e-01 -1.3951943543480116e-03
-4.0999999999999899e+00 +8.5265355096416897e+00 +0.0000000000000000e+00 -4.0999999649117402e+00 -2.1097364562563790e-04 -5.7088691821495685e-01 -1.3963948786761835e-03
-4.1499999999999897e+00 +8.5265241072047502e+00 +0.0000000000000000e+00 -4.1499999636115703e+00 -2.1035569120514690e-04 -5.7091764762235819e-01 -1.3975842154546796e-03
-4.1999999999999904e+00 +8.5265125664518600e+00 +0.0000000000000000e+00 -4.1999999622796604e+00 -2.0974504249716709e-04 -5.7094866701419822e-01 -1.3987624159055364e-03
-4.2499999999999902e+00 +8.5265008873866499e+00 +0.0000000000000000e+00 -4.2499999609156403e+00 -2.0914173268092299e-04 -5.7097997307631143e-01 -1.3999295312422755e-03
-4.2999999999999901e+00 +8.5264890700091200e+00 +0.0000000000000000e+00 -4.2999999595191198e+00 -2.0854579494910790e-04 -5.7101156249453400e-01 -1.4010856126700517e-03
-4.3499999999999899e+00 +8.5264771143192792e+00 +0.0000000000000000e+00 -4.3499999580897200e+00 -2.0795726250851369e-04 -5.7104343195467400e-01 -1.4022307113852979e-03
-4.3999999999999897e+00 +8.5264650203207601e+00 +0.0000000000000000e+00 -4.3999999566270596e+00 -2.0737616858066218e-04 -5.7107557814248211e-01 -1.4033648785753737e-03
-4.4499999999999904e+00 +8.5264527880062797e+00 +0.0000000000000000e+00 -4.4499999551307496e+00 -2.0680254640292940e-04 -5.7110799774376086e-01 -1.4044881654186386e-03
-4.4999999999999902e+00 +8.5264404173794901e+00 +0.0000000000000000e+00 -4.4999999536004101e+00 -2.0623642922868100e-04 -5.7114068744419610e-01 -1.4056006230836705e-03
-4.5499999999999901e+00 +8.5264279084440204e+00 +0.0000000000000000e+00 -4.5499999520356598e+00 -2.0567785032830124e-04 -5.7117364392944026e-01 -1.4067023027292574e-03
-4.5999999999999899e+00 +8.5264152611962292e+00 +0.0000000000000000e+00 -4.5999999504361098e+00 -2.0512684299011597e-04 -5.7120686388516373e-01 -1.4077932555042931e-03
-4.6499999999999897e+00 +8.5264024756361305e+00 +0.0000000000000000e+00 -4.6499999488013897e+00 -2.0458344052082727e-04 -5.7124034399697132e-01 -1.4088735325472591e-03
-4.6999999999999904e+00 +8.5263895517600794e+00 +0.0000000000000000e+00 -4.6999999471311096e+00 -2.0404767624643928e-04 -5.7127408095045595e-01 -1.4099431849861259e-03
-4.7499999999999902e+00 +8.5263764895753393e+00 +0.0000000000000000e+00 -4.7499999454248902e+00 -2.0351958351259993e-04 -5.7130807143108631e-01 -1.4110022639377382e-03
-4.7999999999999901e+00 +8.5263632890782901e+00 +0.0000000000000000e+00 -4.7999999436823400e+00 -2.0299919568591041e-04 -5.7134231212437037e-01 -1.4120508205080660e-03
-4.8499999999999899e+00 +8.5263499502725608e+00 +0.0000000000000000e+00 -4.8499999419030901e+00 -2.0248654615417314e-04 -5.7137679971571653e-01 -1.4130889057915028e-03
-4.8999999999999897e+00 +8.5263364731472393e+00 +0.0000000000000000e+00 -4.8999999400867402e+00 -2.0198166832769351e-04 -5.7141153089059682e-01 -1.4141165708711203e-03
-4.9499999999999904e+00 +8.5263228577168793e+00 +0.0000000000000000e+00 -4.9499999382329296e+00 -2.0148459563896308e-04 -5.7144650233424177e-01 -1.4151338668174410e-03
-4.9999999999999902e+00 +8.5263091039705596e+00 +0.0000000000000000e+00 -4.9999999363412497e+00 -2.0099536154471887e-04 -5.7148171073202558e-01 -1.4161408446893887e-03
-5.0499999999999901e+00 +8.5262952115954196e+00 +0.0000000000000000e+00 -5.0499999344112600e+00 -2.0051375834133285e-04 -5.7151715287485194e-01 -1.4171375319529393e-03
-5.0999999999999899e+00 +8.5262811802713294e+00 +0.0000000000000000e+00 -5.0999999324424596e+00 -2.0003861359114896e-04 -5.7155282596675883e-01 -1.4181238617147662e-03
-5.1499999999999897e+00 +8.5262670100019005e+00 +0.0000000000000000e+00 -5.1499999304344799e+00 -1.9956851371911641e-04 -5.7158872731248445e-01 -1.4190997434860818e-03
-5.1999999999999904e+00 +8.5262527007798798e+00 +0.0000000000000000e+00 -5.1999999283869203e+00 -1.9910204522094365e-04 -5.7162485421670617e-01 -1.4200650867799874e-03
-5.2499999999999902e+00 +8.5262382526088896e+00 +0.0000000000000000e+00 -5.2499999262994104e+00 -1.9863779466433796e-04 -5.7166120398387132e-01 -1.4210198011110299e-03
-5.2999999999999901e+00 +8.5262236654925800e+00 +0.0000000000000000e+00 -5.2999999241715603e+00 -1.9817434869107299e-04 -5.7169777391827514e-01 -1.4219637959955553e-03
-5.3499999999999899e+00 +8.5262089394273097e+00 +0.0000000000000000e+00 -5.3499999220029704e+00 -1.9771029401896030e-04 -5.7173456132411438e-01 -1.4228969809519749e-03
-5.3999999999999897e+00 +8.5261940744130698e+00 +0.0000000000000000e+00 -5.3999999197932702e+00 -1.9724421744336630e-04 -5.7177156350539782e-01 -1.4238192655005885e-03
-5.4499999999999904e+00 +8.5261790704498708e+00 +0.0000000000000000e+00 -5.4499999175420601e+00 -1.9677470583909565e-04 -5.7180877776597328e-01 -1.4247305591637575e-03
-5.4999999999999902e+00 +8.5261639275377092e+00 +0.0000000000000000e+00 -5.4999999152489698e+00 -1.9630034616218271e-04 -5.7184620140952069e-01 -1.4256307714659983e-03
-5.5499999999999901e+00 +8.5261486456802196e+00 +0.0000000000000000e+00 -5.5499999129136004e+00 -1.9581972545159684e-04 -5.7188383173952362e-01 -1.4265198119339749e-03
-5.5999999999999899e+00 +8.5261332248737691e+00 +0.0000000000000000e+00 -5.5999999105355700e+00 -1.9533143083129610e-04 -5.7192166605934536e-01 -1.4273975900968613e-03
-5.6499999999999897e+00 +8.5261176651147306e+00 +0.0000000000000000e+00 -5.6499999081144896e+00 -1.9483404951184331e-04 -5.7195970167217303e-01 -1.4282640154862488e-03
-5.6999999999999904e+00 +8.5261019664103497e+00 +0.0000000000000000e+00 -5.6999999056499897e+00 -1.9432616879194218e-04 -5.7199793588092851e-01 -1.4291189976359624e-03
-5.7499999999999902e+00 +8.5260861287570204e+00 +0.0000000000000000e+00 -5.7499999031416600e+00 -1.9380637606074776e-04 -5.7203636598843122e-01 -1.4299624460826922e-03
-5.7999999999999901e+00 +8.5260701521547198e+00 +0.0000000000000000e+00 -5.7999999005891203e+00 -1.9327325879931571e-04 -5.7207498929728462e-01 -1.4307942703657194e-03
-5.8499999999999899e+00 +8.5260540366070892e+00 +0.0000000000000000e+00 -5.8499998979920003e+00 -1.9272540458239589e-04 -5.7211380310987092e-01 -1.4316143800270041e-03
