# trajectory
# s[mm] rx[mm] ry[mm] rz[mm] px[rad] py[rad] pz[rad]
0.0000000000000000e+00 +8.5389999999999997e+00 +0.0000000000000000e+00 +0.0000000000000000e+00 +0.0000000000000000e+00 +0.0000000000000000e+00 +1.0000000000000000e+00
5.0000000000000003e-02 +8.5389999310861349e+00 +0.0000000000000000e+00 +4.9999999999936671e-02 -2.7565542742564633e-06 +0.0000000000000000e+00 +9.9999999999620071e-01
1.0000000000000001e-01 +8.5389997243445883e+00 +0.0000000000000000e+00 +9.9999999999493425e-02 -5.5131076081720250e-06 +0.0000000000000000e+00 +9.9999999998480282e-01
1.5000000000000002e-01 +8.5389993797753565e+00 +0.0000000000000000e+00 +1.4999999999829031e-01 -8.2696619742086421e-06 +0.0000000000000000e+00 +9.9999999996580635e-01
2.0000000000000001e-01 +8.5389988973783399e+00 +0.0000000000000000e+00 +1.9999999999594742e-01 -1.1026219341058529e-05 +0.0000000000000000e+00 +9.9999999993921129e-01
2.5000000000000000e-01 +8.5389982771533397e+00 +0.0000000000000000e+00 +2.4999999999208480e-01 -1.3782781673644248e-05 +0.0000000000000000e+00 +9.9999999990501753e-01
2.9999999999999999e-01 +8.5389975191000573e+00 +0.0000000000000000e+00 +2.9999999998632254e-01 -1.6539350933118799e-05 +0.0000000000000000e+00 +9.9999999986322496e-01
3.4999999999999998e-01 +8.5389966232180985e+00 +0.0000000000000000e+00 +3.4999999997828068e-01 -1.9295929076865711e-05 +0.0000000000000000e+00 +9.9999999981383358e-01
3.9999999999999997e-01 +8.5389955895069694e+00 +0.0000000000000000e+00 +3.9999999996757929e-01 -2.2052518058499140e-05 +0.0000000000000000e+00 +9.9999999975684328e-01
4.4999999999999996e-01 +8.5389944179660802e+00 +0.0000000000000000e+00 +4.4999999995383838e-01 -2.4809119827863956e-05 +0.0000000000000000e+00 +9.9999999969225384e-01
4.9999999999999994e-01 +8.5389931085947417e+00 +0.0000000000000000e+00 +4.9999999993667799e-01 -2.7565736331035832e-05 +0.0000000000000000e+00 +9.9999999962006514e-01
5.4999999999999993e-01 +8.5389916613921688e+00 +0.0000000000000000e+00 +5.4999999991571824e-01 -3.0322369510321336e-05 +0.0000000000000000e+00 +9.9999999954027696e-01
5.9999999999999998e-01 +8.5389900763574804e+00 +0.0000000000000000e+00 +5.9999999989057906e-01 -3.3079021304258020e-05 +0.0000000000000000e+00 +9.9999999945288920e-01
6.5000000000000002e-01 +8.5389883534896960e+00 +0.0000000000000000e+00 +6.4999999986088053e-01 -3.5835693647614511e-05 +0.0000000000000000e+00 +9.9999999935790151e-01
7.0000000000000007e-01 +8.5389864927877408e+00 +0.0000000000000000e+00 +6.9999999982624261e-01 -3.8592388471390600e-05 +0.0000000000000000e+00 +9.9999999925531380e-01
7.5000000000000011e-01 +8.5389844942504425e+00 +0.0000000000000000e+00 +7.4999999978628529e-01 -4.1349107702817334e-05 +0.0000000000000000e+00 +9.9999999914512572e-01
8.0000000000000016e-01 +8.5389823578765327e+00 +0.0000000000000000e+00 +7.9999999974062852e-01 -4.4105853265357091e-05 +0.0000000000000000e+00 +9.9999999902733694e-01
8.5000000000000020e-01 +8.5389800836646454e+00 +0.0000000000000000e+00 +8.4999999968889228e-01 -4.6862627078703694e-05 +0.0000000000000000e+00 +9.9999999890194713e-01
9.0000000000000024e-01 +8.5389776716133223e+00 +0.0000000000000000e+00 +8.9999999963069655e-01 -4.9619431058782460e-05 +0.0000000000000000e+00 +9.9999999876895607e-01
9.5000000000000029e-01 +8.5389751217210055e+00 +0.0000000000000000e+00 +9.4999999956566117e-01 -5.2376267117750331e-05 +0.0000000000000000e+00 +9.9999999862836331e-01
1.0000000000000002e+00 +8.5389724339860447e+00 +0.0000000000000000e+00 +9.9999999949340612e-01 -5.5133137163995923e-05 +0.0000000000000000e+00 +9.9999999848016863e-01
1.0500000000000003e+00 +8.5389696084066919e+00 +0.0000000000000000e+00 +1.0499999994135514e+00 -5.7890043102139645e-05 +0.0000000000000000e+00 +9.9999999832437148e-01
1.1000000000000003e+00 +8.5389666449811052e+00 +0.0000000000000000e+00 +1.0999999993257166e+00 -6.0646986833033755e-05 +0.0000000000000000e+00 +9.9999999816097151e-01
1.1500000000000004e+00 +8.5389635437073466e+00 +0.0000000000000000e+00 +1.1499999992295218e+00 -6.3403970253762468e-05 +0.0000000000000000e+00 +9.9999999798996830e-01
1.2000000000000004e+00 +8.5389603045833855e+00 +0.0000000000000000e+00 +1.1999999991245867e+00 -6.6160995257642037e-05 +0.0000000000000000e+00 +9.9999999781136140e-01
1.2500000000000004e+00 +8.5389569276070958e+00 +0.0000000000000000e+00 +1.2499999990105310e+00 -6.8918063734220829e-05 +0.0000000000000000e+00 +9.9999999762515024e-01
1.3000000000000005e+00 +8.5389534127762570e+00 +0.0000000000000000e+00 +1.2999999988869748e+00 -7.1675177569279424e-05 +0.0000000000000000e+00 +9.9999999743133450e-01
1.3500000000000005e+00 +8.5389497600885527e+00 +0.0000000000000000e+00 +1.3499999987535376e+00 -7.4432338644830678e-05 +0.0000000000000000e+00 +9.9999999722991351e-01
1.4000000000000006e+00 +8.5389459695415741e+00 +0.0000000000000000e+00 +1.3999999986098393e+00 -7.7189548839119831e-05 +0.0000000000000000e+00 +9.9999999702088682e-01
1.4500000000000006e+00 +8.5389420411328185e+00 +0.0000000000000000e+00 +1.4499999984554994e+00 -7.9946810026624576e-05 +0.0000000000000000e+00 +9.9999999680425378e-01
1.5000000000000007e+00 +8.5389379748596905e+00 +0.0000000000000000e+00 +1.4999999982901377e+00 -8.2704124078055149e-05 +0.0000000000000000e+00 +9.9999999658001393e-01
1.5500000000000007e+00 +8.5389337707194990e+00 +0.0000000000000000e+00 +1.5499999981133739e+00 -8.5461492860354404e-05 +0.0000000000000000e+00 +9.9999999634816661e-01
1.6000000000000008e+00 +8.5389294287094604e+00 +0.0000000000000000e+00 +1.5999999979248276e+00 -8.8218918236697901e-05 +0.0000000000000000e+00 +9.9999999610871126e-01
1.6500000000000008e+00 +8.5389249488267005e+00 +0.0000000000000000e+00 +1.6499999977241182e+00 -9.0976402066493995e-05 +0.0000000000000000e+00 +9.9999999586164712e-01
1.7000000000000008e+00 +8.5389203310682493e+00 +0.0000000000000000e+00 +1.6999999975108655e+00 -9.3733946205383893e-05 +0.0000000000000000e+00 +9.9999999560697361e-01
1.7500000000000009e+00 +8.5389155754310444e+00 +0.0000000000000000e+00 +1.7499999972846889e+00 -9.6491552505241775e-05 +0.0000000000000000e+00 +9.9999999534469008e-01
1.8000000000000009e+00 +8.5389106819119327e+00 +0.0000000000000000e+00 +1.7999999970452079e+00 -9.9249222814174837e-05 +0.0000000000000000e+00 +9.9999999507479587e-01
1.8500000000000010e+00 +8.5389056505076670e+00 +0.0000000000000000e+00 +1.8499999967920417e+00 -1.0200695897652339e-04 +0.0000000000000000e+00 +9.9999999479729018e-01
1.9000000000000010e+00 +8.5389004812149079e+00 +0.0000000000000000e+00 +1.8999999965248100e+00 -1.0476476283286094e-04 +0.0000000000000000e+00 +9.9999999451217225e-01
1.9500000000000011e+00 +8.5388951740302250e+00 +0.0000000000000000e+00 +1.9499999962431320e+00 -1.0752263621999427e-04 +0.0000000000000000e+00 +9.9999999421944141e-01
2.0000000000000009e+00 +8.5388897289500960e+00 +0.0000000000000000e+00 +1.9999999959466273e+00 -1.1028058097096351e-04 +0.0000000000000000e+00 +9.9999999391909677e-01
2.0500000000000007e+00 +8.5388841459709077e+00 +0.0000000000000000e+00 +2.0499999956349146e+00 -1.1303859891472178e-04 +0.0000000000000000e+00 +9.9999999361113767e-01
2.1000000000000005e+00 +8.5388784250889547e+00 +0.0000000000000000e+00 +2.0999999953076141e+00 -1.1579669187261031e-04 +0.0000000000000000e+00 +9.9999999329556322e-01
2.1500000000000004e+00 +8.5388725663004408e+00 +0.0000000000000000e+00 +2.1499999949643440e+00 -1.1855486165483359e-04 +0.0000000000000000e+00 +9.9999999297237252e-01
2.2000000000000002e+00 +8.5388665696014794e+00 +0.0000000000000000e+00 +2.1999999946047244e+00 -1.2131311006013898e-04 +0.0000000000000000e+00 +9.9999999264156481e-01
2.2500000000000000e+00 +8.5388604349880950e+00 +0.0000000000000000e+00 +2.2499999942283737e+00 -1.2407143887581678e-04 +0.0000000000000000e+00 +9.9999999230313918e-01
2.2999999999999998e+00 +8.5388541624562215e+00 +0.0000000000000000e+00 +2.2999999938349114e+00 -1.2682984987770024e-04 +0.0000000000000000e+00 +9.9999999195709477e-01
2.3499999999999996e+00 +8.5388477520017076e+00 +0.0000000000000000e+00 +2.3499999934239564e+00 -1.2958834483016573e-04 +0.0000000000000000e+00 +9.9999999160343067e-01
2.3999999999999995e+00 +8.5388412036203096e+00 +0.0000000000000000e+00 +2.3999999929951277e+00 -1.3234692548613267e-04 +0.0000000000000000e+00 +9.9999999124214589e-01
2.4499999999999993e+00 +8.5388345173077003e+00 +0.0000000000000000e+00 +2.4499999925480442e+00 -1.3510559358706373e-04 +0.0000000000000000e+00 +9.9999999087323954e-01
2.4999999999999991e+00 +8.5388276930594635e+00 +0.0000000000000000e+00 +2.4999999920823246e+00 -1.3786435086296471e-04 +0.0000000000000000e+00 +9.9999999049671062e-01
2.5499999999999989e+00 +8.5388207308710982e+00 +0.0000000000000000e+00 +2.5499999915975882e+00 -1.4062319903238474e-04 +0.0000000000000000e+00 +9.9999999011255813e-01
2.5999999999999988e+00 +8.5388136307380158e+00 +0.0000000000000000e+00 +2.5999999910934535e+00 -1.4338213980241634e-04 +0.0000000000000000e+00 +9.9999998972078119e-01
2.6499999999999986e+00 +8.5388063926555446e+00 +0.0000000000000000e+00 +2.6499999905695391e+00 -1.4614117486869534e-04 +0.0000000000000000e+00 +9.9999998932137868e-01
2.6999999999999984e+00 +8.5387990166189276e+00 +0.0000000000000000e+00 +2.6999999900254639e+00 -1.4890030591540104e-04 +0.0000000000000000e+00 +9.9999998891434960e-01
2.7499999999999982e+00 +8.5387915026233241e+00 +0.0000000000000000e+00 +2.7499999894608469e+00 -1.5165953461525626e-04 +0.0000000000000000e+00 +9.9999998849969296e-01
2.7999999999999980e+00 +8.5387838506638101e+00 +0.0000000000000000e+00 +2.7999999888753062e+00 -1.5441886262952732e-04 +0.0000000000000000e+00 +9.9999998807740764e-01
2.8499999999999979e+00 +8.5387760607353780e+00 +0.0000000000000000e+00 +2.8499999882684603e+00 -1.5717829160802419e-04 +0.0000000000000000e+00 +9.9999998764749254e-01
2.8999999999999977e+00 +8.5387681328329386e+00 +0.0000000000000000e+00 +2.8999999876399283e+00 -1.5993782318910043e-04 +0.0000000000000000e+00 +9.9999998720994654e-01
2.9499999999999975e+00 +8.5387600669513208e+00 +0.0000000000000000e+00 +2.9499999869893281e+00 -1.6269745899965334e-04 +0.0000000000000000e+00 +9.9999998676476864e-01
2.9999999999999973e+00 +8.5387518630852739e+00 +0.0000000000000000e+00 +2.9999999863162778e+00 -1.6545720065512388e-04 +0.0000000000000000e+00 +9.9999998631195763e-01
3.0499999999999972e+00 +8.5387435212294651e+00 +0.0000000000000000e+00 +3.0499999856203965e+00 -1.6821704975949686e-04 +0.0000000000000000e+00 +9.9999998585151229e-01
3.0999999999999970e+00 +8.5387350413784819e+00 +0.0000000000000000e+00 +3.0999999849013018e+00 -1.7097700790530087e-04 +0.0000000000000000e+00 +9.9999998538343160e-01
3.1499999999999968e+00 +8.5387264235268319e+00 +0.0000000000000000e+00 +3.1499999841586122e+00 -1.7373707667360836e-04 +0.0000000000000000e+00 +9.9999998490771436e-01
3.1999999999999966e+00 +8.5387176676689442e+00 +0.0000000000000000e+00 +3.1999999833919457e+00 -1.7649725763403570e-04 +0.0000000000000000e+00 +9.9999998442435933e-01
3.2499999999999964e+00 +8.5387087737991720e+00 +0.0000000000000000e+00 +3.2499999826009205e+00 -1.7925755234474318e-04 +0.0000000000000000e+00 +9.9999998393336531e-01
3.2999999999999963e+00 +8.5386997419117883e+00 +0.0000000000000000e+00 +3.2999999817851546e+00 -1.8201796235243508e-04 +0.0000000000000000e+00 +9.9999998343473107e-01
3.3499999999999961e+00 +8.5386905720009896e+00 +0.0000000000000000e+00 +3.3499999809442662e+00 -1.8477848919235969e-04 +0.0000000000000000e+00 +9.9999998292845538e-01
3.3999999999999959e+00 +8.5386812640608962e+00 +0.0000000000000000e+00 +3.3999999800778729e+00 -1.8753913438830937e-04 +0.0000000000000000e+00 +9.9999998241453691e-01
3.4499999999999957e+00 +8.5386718180855521e+00 +0.0000000000000000e+00 +3.4499999791855926e+00 -1.9029989945262054e-04 +0.0000000000000000e+00 +9.9999998189297445e-01
3.4999999999999956e+00 +8.5386622340689282e+00 +0.0000000000000000e+00 +3.4999999782670432e+00 -1.9306078588617376e-04 +0.0000000000000000e+00 +9.9999998136376678e-01
3.5499999999999954e+00 +8.5386525120049175e+00 +0.0000000000000000e+00 +3.5499999773218422e+00 -1.9582179517839375e-04 +0.0000000000000000e+00 +9.9999998082691255e-01
3.5999999999999952e+00 +8.5386426518873382e+00 +0.0000000000000000e+00 +3.5999999763496073e+00 -1.9858292880724934e-04 +0.0000000000000000e+00 +9.9999998028241044e-01
3.6499999999999950e+00 +8.5386326537099393e+00 +0.0000000000000000e+00 +3.6499999753499561e+00 -2.0134418823925367e-04 +0.0000000000000000e+00 +9.9999997973025911e-01
3.6999999999999948e+00 +8.5386225174663934e+00 +0.0000000000000000e+00 +3.6999999743225058e+00 -2.0410557492946406e-04 +0.0000000000000000e+00 +9.9999997917045735e-01
3.7499999999999947e+00 +8.5386122431503022e+00 +0.0000000000000000e+00 +3.7499999732668741e+00 -2.0686709032148210e-04 +0.0000000000000000e+00 +9.9999997860300371e-01
3.7999999999999945e+00 +8.5386018307551925e+00 +0.0000000000000000e+00 +3.7999999721826785e+00 -2.0962873584745370e-04 +0.0000000000000000e+00 +9.9999997802789675e-01
3.8499999999999943e+00 +8.5385912802745239e+00 +0.0000000000000000e+00 +3.8499999710695363e+00 -2.1239051292806907e-04 +0.0000000000000000e+00 +9.9999997744513525e-01
3.8999999999999941e+00 +8.5385805917016828e+00 +0.0000000000000000e+00 +3.8999999699270647e+00 -2.1515242297256277e-04 +0.0000000000000000e+00 +9.9999997685471764e-01
3.9499999999999940e+00 +8.5385697650299868e+00 +0.0000000000000000e+00 +3.9499999687548808e+00 -2.1791446737871371e-04 +0.0000000000000000e+00 +9.9999997625664261e-01
3.9999999999999938e+00 +8.5385588002526820e+00 +0.0000000000000000e+00 +3.9999999675526015e+00 -2.2067664753284521e-04 +0.0000000000000000e+00 +9.9999997565090881e-01
4.0499999999999936e+00 +8.5385476973629473e+00 +0.0000000000000000e+00 +4.0499999663198443e+00 -2.2343896480970835e-04 +0.0000000000000000e+00 +9.9999997503751470e-01
4.0999999999999934e+00 +8.5385364563538921e+00 +0.0000000000000000e+00 +4.0999999650562255e+00 -2.2620142057119876e-04 +0.0000000000000000e+00 +9.9999997441645883e-01
4.1499999999999932e+00 +8.5385250772185586e+00 +0.0000000000000000e+00 +4.1499999637613625e+00 -2.2896401616507342e-04 +0.0000000000000000e+00 +9.9999997378773975e-01
4.1999999999999931e+00 +8.5385135599499229e+00 +0.0000000000000000e+00 +4.1999999624348714e+00 -2.3172675292483408e-04 +0.0000000000000000e+00 +9.9999997315135603e-01
4.2499999999999929e+00 +8.5385019045408921e+00 +0.0000000000000000e+00 +4.2499999610763695e+00 -2.3448963216972715e-04 +0.0000000000000000e+00 +9.9999997250730621e-01
4.2999999999999927e+00 +8.5384901109843092e+00 +0.0000000000000000e+00 +4.2999999596854739e+00 -2.3725265520474381e-04 +0.0000000000000000e+00 +9.9999997185558875e-01
4.3499999999999925e+00 +8.5384781792729534e+00 +0.0000000000000000e+00 +4.3499999582618010e+00 -2.4001582332061988e-04 +0.0000000000000000e+00 +9.9999997119620221e-01
4.3999999999999924e+00 +8.5384661093995380e+00 +0.0000000000000000e+00 +4.3999999568049670e+00 -2.4277913779383590e-04 +0.0000000000000000e+00 +9.9999997052914502e-01
4.4499999999999922e+00 +8.5384539013567142e+00 +0.0000000000000000e+00 +4.4499999553145884e+00 -2.4554259988661712e-04 +0.0000000000000000e+00 +9.9999996985441575e-01
4.4999999999999920e+00 +8.5384415551370694e+00 +0.0000000000000000e+00 +4.4999999537902813e+00 -2.4830621084693340e-04 +0.0000000000000000e+00 +9.9999996917201273e-01
4.5499999999999918e+00 +8.5384290707331285e+00 +0.0000000000000000e+00 +4.5499999522316621e+00 -2.5106997190849935e-04 +0.0000000000000000e+00 +9.9999996848193451e-01
4.5999999999999917e+00 +8.5384164481373563e+00 +0.0000000000000000e+00 +4.5999999506383471e+00 -2.5383388429077414e-04 +0.0000000000000000e+00 +9.9999996778417943e-01
4.6499999999999915e+00 +8.5384036873421572e+00 +0.0000000000000000e+00 +4.6499999490099526e+00 -2.5659794919896157e-04 +0.0000000000000000e+00 +9.9999996707874605e-01
4.6999999999999913e+00 +8.5383907883398749e+00 +0.0000000000000000e+00 +4.6999999473460941e+00 -2.5936216782401007e-04 +0.0000000000000000e+00 +9.9999996636563271e-01
4.7499999999999911e+00 +8.5383777511227930e+00 +0.0000000000000000e+00 +4.7499999456463877e+00 -2.6212654134261272e-04 +0.0000000000000000e+00 +9.9999996564483784e-01
4.7999999999999909e+00 +8.5383645756831399e+00 +0.0000000000000000e+00 +4.7999999439104499e+00 -2.6489107091720701e-04 +0.0000000000000000e+00 +9.9999996491635990e-01
4.8499999999999908e+00 +8.5383512620130819e+00 +0.0000000000000000e+00 +4.8499999421378961e+00 -2.6765575769597513e-04 +0.0000000000000000e+00 +9.9999996418019732e-01
4.8999999999999906e+00 +8.5383378101047320e+00 +0.0000000000000000e+00 +4.8999999403283416e+00 -2.7042060281284370e-04 +0.0000000000000000e+00 +9.9999996343634845e-01
4.9499999999999904e+00 +8.5383242199501446e+00 +0.0000000000000000e+00 +4.9499999384814029e+00 -2.7318560738748380e-04 +0.0000000000000000e+00 +9.9999996268481162e-01
4.9999999999999902e+00 +8.5383104915413188e+00 +0.0000000000000000e+00 +4.9999999365966952e+00 -2.7595077252531104e-04 +0.0000000000000000e+00 +9.9999996192558516e-01
5.0499999999999901e+00 +8.5382966248701990e+00 +0.0000000000000000e+00 +5.0499999346738331e+00 -2.7871609931748542e-04 +0.0000000000000000e+00 +9.9999996115866752e-01
5.0999999999999899e+00 +8.5382826199286761e+00 +0.0000000000000000e+00 +5.0999999327124330e+00 -2.8148158884091134e-04 +0.0000000000000000e+00 +9.9999996038405703e-01
5.1499999999999897e+00 +8.5382684767085859e+00 +0.0000000000000000e+00 +5.1499999307121103e+00 -2.8424724215823759e-04 +0.0000000000000000e+00 +9.9999995960175214e-01
5.1999999999999895e+00 +8.5382541952017128e+00 +0.0000000000000000e+00 +5.1999999286724803e+00 -2.8701306031785718e-04 +0.0000000000000000e+00 +9.9999995881175108e-01
5.2499999999999893e+00 +8.5382397753997896e+00 +0.0000000000000000e+00 +5.2499999265931576e+00 -2.8977904435390753e-04 +0.0000000000000000e+00 +9.9999995801405217e-01
5.2999999999999892e+00 +8.5382252172944959e+00 +0.0000000000000000e+00 +5.2999999244737577e+00 -2.9254519528627024e-04 +0.0000000000000000e+00 +9.9999995720865376e-01
5.3499999999999890e+00 +8.5382105208774632e+00 +0.0000000000000000e+00 +5.3499999223138950e+00 -2.9531151412057107e-04 +0.0000000000000000e+00 +9.9999995639555417e-01
5.3999999999999888e+00 +8.5381956861402699e+00 +0.0000000000000000e+00 +5.3999999201131850e+00 -2.9807800184818004e-04 +0.0000000000000000e+00 +9.9999995557475174e-01
5.4499999999999886e+00 +8.5381807130744480e+00 +0.0000000000000000e+00 +5.4499999178712422e+00 -3.0084465944621127e-04 +0.0000000000000000e+00 +9.9999995474624470e-01
5.4999999999999885e+00 +8.5381656016714782e+00 +0.0000000000000000e+00 +5.4999999155876811e+00 -3.0361148787752285e-04 +0.0000000000000000e+00 +9.9999995391003149e-01
5.5499999999999883e+00 +8.5381503519227966e+00 +0.0000000000000000e+00 +5.5499999132621172e+00 -3.0637848809071699e-04 +0.0000000000000000e+00 +9.9999995306611023e-01
5.5999999999999881e+00 +8.5381349638197896e+00 +0.0000000000000000e+00 +5.5999999108941640e+00 -3.0914566102013987e-04 +0.0000000000000000e+00 +9.9999995221447935e-01
5.6499999999999879e+00 +8.5381194373537994e+00 +0.0000000000000000e+00 +5.6499999084834363e+00 -3.1191300758588150e-04 +0.0000000000000000e+00 +9.9999995135513697e-01
5.6999999999999877e+00 +8.5381037725161217e+00 +0.0000000000000000e+00 +5.6999999060295492e+00 -3.1468052869377584e-04 +0.0000000000000000e+00 +9.9999995048808155e-01
5.7499999999999876e+00 +8.5380879692980063e+00 +0.0000000000000000e+00 +5.7499999035321165e+00 -3.1744822523540066e-04 +0.0000000000000000e+00 +9.9999994961331118e-01
5.7999999999999874e+00 +8.5380720276906601e+00 +0.0000000000000000e+00 +5.7999999009907519e+00 -3.2021609808807739e-04 +0.0000000000000000e+00 +9.9999994873082421e-01
5.8499999999999872e+00 +8.5380559476852458e+00 +0.0000000000000000e+00 +5.8499998984050698e+00 -3.2298414811487123e-04 +0.0000000000000000e+00 +9.9999994784061896e-01
5.8999999999999870e+00 +8.5380397292728816e+00 +0.0000000000000000e+00 +5.8999998957746849e+00 -3.2575237616459107e-04 +0.0000000000000000e+00 +9.9999994694269356e-01
