# field on trajectory
# s[mm] rx[mm] ry[mm] rz[mm] bx[T] by[T] bz[T]
0.0000000000000000e+00 +8.5269999999999992e+00 +0.0000000000000000e+00 +0.0000000000000000e+00 -3.0342233326547424e-02 -5.7937477907119039e-01 +5.7300738905149504e-03
5.0000000000000003e-02 +8.5269999308070830e+00 +0.0000000000000000e+00 +4.9999999999936172e-02 -3.0342324966392976e-02 -5.7937488185643293e-01 +5.7312439850983653e-03
1.0000000000000001e-01 +8.5269997232283021e+00 +0.0000000000000000e+00 +9.9999999999489331e-02 -3.0342433964033733e-02 -5.7937535483949598e-01 +5.7324216403879125e-03
1.5000000000000002e-01 +8.5269993772635431e+00 +0.0000000000000000e+00 +1.4999999999827646e-01 -3.0342560265476159e-02 -5.7937619735349399e-01 +5.7336067758937204e-03
2.0000000000000001e-01 +8.5269988929126068e+00 +0.0000000000000000e+00 +1.9999999999591453e-01 -3.0342703816728534e-02 -5.7937740873155852e-01 +5.7347993111262234e-03
2.5000000000000000e-01 +8.5269982701752021e+00 +0.0000000000000000e+00 +2.4999999999202055e-01 -3.0342864563800961e-02 -5.7937898830683998e-01 +5.7359991655961786e-03
2.9999999999999999e-01 +8.5269975090509522e+00 +0.0000000000000000e+00 +2.9999999998621152e-01 -3.0343042452705169e-02 -5.7938093541250546e-01 +5.7372062588146285e-03
3.4999999999999998e-01 +8.5269966095393919e+00 +0.0000000000000000e+00 +3.4999999997810438e-01 -3.0343237429454519e-02 -5.7938324938174057e-01 +5.7384205102929131e-03
3.9999999999999997e-01 +8.5269955716399686e+00 +0.0000000000000000e+00 +3.9999999996731606e-01 -3.0343449440063890e-02 -5.7938592954774804e-01 +5.7396418395426361e-03
4.4999999999999996e-01 +8.5269943953520428e+00 +0.0000000000000000e+00 +4.4999999995346357e-01 -3.0343678430549508e-02 -5.7938897524374755e-01 +5.7408701660756692e-03
4.9999999999999994e-01 +8.5269930806748864e+00 +0.0000000000000000e+00 +4.9999999993616384e-01 -3.0343924346928976e-02 -5.7939238580297614e-01 +5.7421054094041303e-03
5.4999999999999993e-01 +8.5269916276076838e+00 +0.0000000000000000e+00 +5.4999999991503379e-01 -3.0344187135221124e-02 -5.7939616055868792e-01 +5.7433474890403726e-03
5.9999999999999998e-01 +8.5269900361495345e+00 +0.0000000000000000e+00 +5.9999999988969044e-01 -3.0344466741445891e-02 -5.7940029884415356e-01 +5.7445963244969799e-03
6.5000000000000002e-01 +8.5269883062994509e+00 +0.0000000000000000e+00 +6.4999999985975065e-01 -3.0344763111624307e-02 -5.7940479999266081e-01 +5.7458518352867458e-03
7.0000000000000007e-01 +8.5269864380563565e+00 +0.0000000000000000e+00 +6.9999999982483141e-01 -3.0345076191778324e-02 -5.7940966333751398e-01 +5.7471139409226660e-03
7.5000000000000011e-01 +8.5269844314190912e+00 +0.0000000000000000e+00 +7.4999999978454956e-01 -3.0345405927930776e-02 -5.7941488821203269e-01 +5.7483825609179230e-03
8.0000000000000016e-01 +8.5269822863864064e+00 +0.0000000000000000e+00 +7.9999999973852198e-01 -3.0345752266105322e-02 -5.7942047394955409e-01 +5.7496576147858802e-03
8.5000000000000020e-01 +8.5269800029569662e+00 +0.0000000000000000e+00 +8.4999999968636553e-01 -3.0346115152326221e-02 -5.7942641988343069e-01 +5.7509390220400625e-03
9.0000000000000024e-01 +8.5269775811293531e+00 +0.0000000000000000e+00 +8.9999999962769706e-01 -3.0346494532618434e-02 -5.7943272534703139e-01 +5.7522267021941527e-03
9.5000000000000029e-01 +8.5269750209020589e+00 +0.0000000000000000e+00 +9.4999999956213343e-01 -3.0346890353007340e-02 -5.7943938967373998e-01 +5.7535205747619670e-03
1.0000000000000002e+00 +8.5269723222734939e+00 +0.0000000000000000e+00 +9.9999999948929152e-01 -3.0347302559518792e-02 -5.7944641219695736e-01 +5.7548205592574597e-03
1.0500000000000003e+00 +8.5269694852419793e+00 +0.0000000000000000e+00 +1.0499999994087881e+00 -3.0347731098178964e-02 -5.7945379225009830e-01 +5.7561265751946960e-03
1.1000000000000003e+00 +8.5269665098057530e+00 +0.0000000000000000e+00 +1.0999999993202398e+00 -3.0348175915014236e-02 -5.7946152916659410e-01 +5.7574385420878452e-03
1.1500000000000004e+00 +8.5269633959629658e+00 +0.0000000000000000e+00 +1.1499999992232637e+00 -3.0348636956051188e-02 -5.7946962227989007e-01 +5.7587563794511730e-03
1.2000000000000004e+00 +8.5269601437116869e+00 +0.0000000000000000e+00 +1.1999999991174763e+00 -3.0349114167316418e-02 -5.7947807092344783e-01 +5.7600800067990248e-03
1.2500000000000004e+00 +8.5269567530498964e+00 +0.0000000000000000e+00 +1.2499999990024946e+00 -3.0349607494836506e-02 -5.7948687443074320e-01 +5.7614093436458135e-03
1.3000000000000005e+00 +8.5269532239754930e+00 +0.0000000000000000e+00 +1.2999999988779349e+00 -3.0350116884637911e-02 -5.7949603213526679e-01 +5.7627443095060139e-03
1.3500000000000005e+00 +8.5269495564862883e+00 +0.0000000000000000e+00 +1.3499999987434141e+00 -3.0350642282746858e-02 -5.7950554337052285e-01 +5.7640848238941335e-03
1.4000000000000006e+00 +8.5269457505800101e+00 +0.0000000000000000e+00 +1.3999999985985490e+00 -3.0351183635189304e-02 -5.7951540747003250e-01 +5.7654308063247251e-03
1.4500000000000006e+00 +8.5269418062543032e+00 +0.0000000000000000e+00 +1.4499999984429559e+00 -3.0351740887990804e-02 -5.7952562376732863e-01 +5.7667821763123578e-03
1.5000000000000007e+00 +8.5269377235067285e+00 +0.0000000000000000e+00 +1.4999999982762517e+00 -3.0352313987176405e-02 -5.7953619159595970e-01 +5.7681388533716103e-03
1.5500000000000007e+00 +8.5269335023347601e+00 +0.0000000000000000e+00 +1.5499999980980528e+00 -3.0352902878770582e-02 -5.7954711028948735e-01 +5.7695007570170492e-03
1.6000000000000008e+00 +8.5269291427357903e+00 +0.0000000000000000e+00 +1.5999999979079758e+00 -3.0353507508797183e-02 -5.7955837918148723e-01 +5.7708678067632368e-03
1.6500000000000008e+00 +8.5269246447071279e+00 +0.0000000000000000e+00 +1.6499999977056372e+00 -3.0354127823279269e-02 -5.7956999760554939e-01 +5.7722399221247049e-03
1.7000000000000008e+00 +8.5269200082459982e+00 +0.0000000000000000e+00 +1.6999999974906534e+00 -3.0354763768239059e-02 -5.7958196489527647e-01 +5.7736170226159438e-03
1.7500000000000009e+00 +8.5269152333495430e+00 +0.0000000000000000e+00 +1.7499999972626412e+00 -3.0355415289697849e-02 -5.7959428038428462e-01 +5.7749990277513926e-03
1.8000000000000009e+00 +8.5269103200148209e+00 +0.0000000000000000e+00 +1.7999999970212166e+00 -3.0356082333675902e-02 -5.7960694340620389e-01 +5.7763858570454253e-03
1.8500000000000010e+00 +8.5269052682388065e+00 +0.0000000000000000e+00 +1.8499999967659961e+00 -3.0356764846192350e-02 -5.7961995329467664e-01 +5.7777774300123430e-03
1.9000000000000010e+00 +8.5269000780183930e+00 +0.0000000000000000e+00 +1.8999999964965963e+00 -3.0357462773265155e-02 -5.7963330938335844e-01 +5.7791736661663559e-03
1.9500000000000011e+00 +8.5268947493503902e+00 +0.0000000000000000e+00 +1.9499999962126333e+00 -3.0358176060910961e-02 -5.7964701100591809e-01 +5.7805744850215821e-03
2.0000000000000009e+00 +8.5268892822315241e+00 +0.0000000000000000e+00 +1.9999999959137236e+00 -3.0358904655145003e-02 -5.7966105749603591e-01 +5.7819798060920165e-03
2.0500000000000007e+00 +8.5268836766584410e+00 +0.0000000000000000e+00 +2.0499999955994830e+00 -3.0359648494675307e-02 -5.7967544798897819e-01 +5.7833895523613744e-03
2.1000000000000005e+00 +8.5268779326277038e+00 +0.0000000000000000e+00 +2.0999999952695281e+00 -3.0360407488985882e-02 -5.7969018082630908e-01 +5.7848036606926653e-03
2.1500000000000004e+00 +8.5268720501357933e+00 +0.0000000000000000e+00 +2.1499999949234749e+00 -3.0361181540255511e-02 -5.7970525415117902e-01 +5.7862220714188454e-03
2.2000000000000002e+00 +8.5268660291791090e+00 +0.0000000000000000e+00 +2.1999999945609399e+00 -3.0361970550663742e-02 -5.7972066610675010e-01 +5.7876447248729956e-03
2.2500000000000000e+00 +8.5268598697539701e+00 +0.0000000000000000e+00 +2.2499999941815387e+00 -3.0362774422390906e-02 -5.7973641483619642e-01 +5.7890715613883202e-03
2.2999999999999998e+00 +8.5268535718566163e+00 +0.0000000000000000e+00 +2.2999999937848878e+00 -3.0363593057618224e-02 -5.7975249848270571e-01 +5.7905025212981681e-03
2.3499999999999996e+00 +8.5268471354832034e+00 +0.0000000000000000e+00 +2.3499999933706031e+00 -3.0364426358527798e-02 -5.7976891518947615e-01 +5.7919375449360247e-03
2.3999999999999995e+00 +8.5268405606298128e+00 +0.0000000000000000e+00 +2.3999999929383002e+00 -3.0365274227302744e-02 -5.7978566309971957e-01 +5.7933765726355174e-03
2.4499999999999993e+00 +8.5268338472924423e+00 +0.0000000000000000e+00 +2.4499999924875953e+00 -3.0366136566127116e-02 -5.7980274035665902e-01 +5.7948195447304184e-03
2.4999999999999991e+00 +8.5268269954670153e+00 +0.0000000000000000e+00 +2.4999999920181040e+00 -3.0367013277186078e-02 -5.7982014510352886e-01 +5.7962664015546511e-03
2.5499999999999989e+00 +8.5268200051493732e+00 +0.0000000000000000e+00 +2.5499999915294427e+00 -3.0367904262665880e-02 -5.7983787548357590e-01 +5.7977170834422938e-03
2.5999999999999988e+00 +8.5268128763352813e+00 +0.0000000000000000e+00 +2.5999999910212268e+00 -3.0368809424753927e-02 -5.7985592964005817e-01 +5.7991715307275839e-03
2.6499999999999986e+00 +8.5268056090204265e+00 +0.0000000000000000e+00 +2.6499999904930722e+00 -3.0369728665638852e-02 -5.7987430571624543e-01 +5.8006296837449216e-03
2.6999999999999984e+00 +8.5267982032004213e+00 +0.0000000000000000e+00 +2.6999999899445943e+00 -3.0370661887510496e-02 -5.7989300185541826e-01 +5.8020914828288703e-03
2.7499999999999982e+00 +8.5267906588707980e+00 +0.0000000000000000e+00 +2.7499999893754095e+00 -3.0371608992560067e-02 -5.7991201620086863e-01 +5.8035568683141641e-03
2.7999999999999980e+00 +8.5267829760270164e+00 +0.0000000000000000e+00 +2.7999999887851326e+00 -3.0372569882980077e-02 -5.7993134689589998e-01 +5.8050257805357134e-03
2.8499999999999979e+00 +8.5267751546644597e+00 +0.0000000000000000e+00 +2.8499999881733795e+00 -3.0373544460964443e-02 -5.7995099208382606e-01 +5.8064981598286020e-03
2.8999999999999977e+00 +8.5267671947784365e+00 +0.0000000000000000e+00 +2.8999999875397657e+00 -3.0374532628708546e-02 -5.7997094990797182e-01 +5.8079739465281000e-03
2.9499999999999975e+00 +8.5267590963641773e+00 +0.0000000000000000e+00 +2.9499999868839066e+00 -3.0375534288409292e-02 -5.7999121851167268e-01 +5.8094530809696598e-03
2.9999999999999973e+00 +8.5267508594168433e+00 +0.0000000000000000e+00 +2.9999999862054176e+00 -3.0376549342265077e-02 -5.8001179603827469e-01 +5.8109355034889247e-03
3.0499999999999972e+00 +8.5267424839315193e+00 +0.0000000000000000e+00 +3.0499999855039142e+00 -3.0377577692475954e-02 -5.8003268063113500e-01 +5.8124211544217331e-03
3.0999999999999970e+00 +8.5267339699032156e+00 +0.0000000000000000e+00 +3.0999999847790112e+00 -3.0378619241243583e-02 -5.8005387043361978e-01 +5.8139099741041124e-03
3.1499999999999968e+00 +8.5267253173268713e+00 +0.0000000000000000e+00 +3.1499999840303246e+00 -3.0379673890771345e-02 -5.8007536358910627e-01 +5.8154019028723025e-03
3.1999999999999966e+00 +8.5267165261973545e+00 +0.0000000000000000e+00 +3.1999999832574688e+00 -3.0380741543264353e-02 -5.8009715824098196e-01 +5.8168968810627429e-03
3.2499999999999964e+00 +8.5267075965094588e+00 +0.0000000000000000e+00 +3.2499999824600594e+00 -3.0381822100929538e-02 -5.8011925253264418e-01 +5.8183948490120804e-03
3.2999999999999963e+00 +8.5266985282579064e+00 +0.0000000000000000e+00 +3.2999999816377117e+00 -3.0382915465975619e-02 -5.8014164460749928e-01 +5.8198957470571742e-03
3.3499999999999961e+00 +8.5266893214373489e+00 +0.0000000000000000e+00 +3.3499999807900402e+00 -3.0384021540613298e-02 -5.8016433260896416e-01 +5.8213995155351065e-03
3.3999999999999959e+00 +8.5266799760423684e+00 +0.0000000000000000e+00 +3.3999999799166600e+00 -3.0385140227055140e-02 -5.8018731468046547e-01 +5.8229060947831745e-03
3.4499999999999957e+00 +8.5266704920674741e+00 +0.0000000000000000e+00 +3.4499999790171860e+00 -3.0386271427515727e-02 -5.8021058896543831e-01 +5.8244154251388966e-03
3.4999999999999956e+00 +8.5266608695071078e+00 +0.0000000000000000e+00 +3.4999999780912332e+00 -3.0387415044211719e-02 -5.8023415360732822e-01 +5.8259274469400317e-03
3.5499999999999954e+00 +8.5266511083556402e+00 +0.0000000000000000e+00 +3.5499999771384165e+00 -3.0388570979361786e-02 -5.8025800674958938e-01 +5.8274421005245569e-03
3.5999999999999952e+00 +8.5266412086073764e+00 +0.0000000000000000e+00 +3.5999999761583505e+00 -3.0389739135186829e-02 -5.8028214653568522e-01 +5.8289593262306951e-03
3.6499999999999950e+00 +8.5266311702565485e+00 +0.0000000000000000e+00 +3.6499999751506498e+00 -3.0390919413909867e-02 -5.8030657110908790e-01 +5.8304790643969066e-03
3.6999999999999948e+00 +8.5266209932973229e+00 +0.0000000000000000e+00 +3.6999999741149288e+00 -3.0392111717756205e-02 -5.8033127861327916e-01 +5.8320012553618947e-03
3.7499999999999947e+00 +8.5266106777237987e+00 +0.0000000000000000e+00 +3.7499999730508020e+00 -3.0393315948953410e-02 -5.8035626719174838e-01 +5.8335258394646081e-03
3.7999999999999945e+00 +8.5266002235300071e+00 +0.0000000000000000e+00 +3.7999999719578845e+00 -3.0394532009731374e-02 -5.8038153498799483e-01 +5.8350527570442566e-03
3.8499999999999943e+00 +8.5265896307099140e+00 +0.0000000000000000e+00 +3.8499999708357899e+00 -3.0395759802322394e-02 -5.8040708014552456e-01 +5.8365819484402929e-03
3.8999999999999941e+00 +8.5265788992574159e+00 +0.0000000000000000e+00 +3.8999999696841332e+00 -3.0396999228961222e-02 -5.8043290080785392e-01 +5.8381133539924376e-03
3.9499999999999940e+00 +8.5265680291663468e+00 +0.0000000000000000e+00 +3.9499999685025284e+00 -3.0398250191885055e-02 -5.8045899511850585e-01 +5.8396469140406778e-03
3.9999999999999938e+00 +8.5265570204304755e+00 +0.0000000000000000e+00 +3.9999999672905897e+00 -3.0399512593333639e-02 -5.8048536122101280e-01 +5.8411825689252562e-03
4.0499999999999936e+00 +8.5265458730435029e+00 +0.0000000000000000e+00 +4.0499999660479311e+00 -3.0400786333924189e-02 -5.8051199706524337e-01 +5.8427202499984820e-03
4.0999999999999934e+00 +8.5265345869990661e+00 +0.0000000000000000e+00 +4.0999999647741667e+00 -3.0402071307775065e-02 -5.8053889982638895e-01 +5.8442598526597511e-03
4.1499999999999932e+00 +8.5265231622907418e+00 +0.0000000000000000e+00 +4.1499999634689111e+00 -3.0403367407379336e-02 -5.8056606648596931e-01 +5.8458012633197873e-03
4.1999999999999931e+00 +8.5265115989120392e+00 +0.0000000000000000e+00 +4.1999999621317778e+00 -3.0404674525229606e-02 -5.8059349402550453e-01 +5.8473443683888082e-03
4.2499999999999929e+00 +8.5264998968564090e+00 +0.0000000000000000e+00 +4.2499999607623806e+00 -3.0405992553817967e-02 -5.8062117942651381e-01 +5.8488890542765177e-03
4.2999999999999927e+00 +8.5264880561172376e+00 +0.0000000000000000e+00 +4.2999999593603340e+00 -3.0407321385635934e-02 -5.8064911967051425e-01 +5.8504352073920620e-03
4.3499999999999925e+00 +8.5264760766878513e+00 +0.0000000000000000e+00 +4.3499999579252506e+00 -3.0408660913174474e-02 -5.8067731173902282e-01 +5.8519827141440437e-03
4.3999999999999924e+00 +8.5264639585615161e+00 +0.0000000000000000e+00 +4.3999999564567451e+00 -3.0410011028923829e-02 -5.8070575261355284e-01 +5.8535314609404702e-03
4.4499999999999922e+00 +8.5264517017314407e+00 +0.0000000000000000e+00 +4.4499999549544302e+00 -3.0411371625373627e-02 -5.8073443927561708e-01 +5.8550813341887590e-03
4.4999999999999920e+00 +8.5264393061907722e+00 +0.0000000000000000e+00 +4.4999999534179196e+00 -3.0412742595012716e-02 -5.8076336870672451e-01 +5.8566322202957067e-03
4.5499999999999918e+00 +8.5264267719326003e+00 +0.0000000000000000e+00 +4.5499999518468268e+00 -3.0414123830329150e-02 -5.8079253788838148e-01 +5.8581840056674672e-03
4.5999999999999917e+00 +8.5264140989499584e+00 +0.0000000000000000e+00 +4.5999999502407656e+00 -3.0415515223810197e-02 -5.8082194380209129e-01 +5.8597365767095377e-03
4.6499999999999915e+00 +8.5264012872358226e+00 +0.0000000000000000e+00 +4.6499999485993495e+00 -3.0416916667942211e-02 -5.8085158342935295e-01 +5.8612898198267460e-03
4.6999999999999913e+00 +8.5263883367831141e+00 +0.0000000000000000e+00 +4.6999999469221914e+00 -3.0418328055210671e-02 -5.8088145375166145e-01 +5.8628436214232102e-03
4.7499999999999911e+00 +8.5263752475846992e+00 +0.0000000000000000e+00 +4.7499999452089039e+00 -3.0419749278100042e-02 -5.8091155175050790e-01 +5.8643978679023441e-03
4.7999999999999909e+00 +8.5263620196333889e+00 +0.0000000000000000e+00 +4.7999999434591007e+00 -3.0421180229093840e-02 -5.8094187440737755e-01 +5.8659524456668253e-03
4.8499999999999908e+00 +8.5263486529219392e+00 +0.0000000000000000e+00 +4.8499999416723947e+00 -3.0422620800674486e-02 -5.8097241870375171e-01 +5.8675072411185688e-03
4.8999999999999906e+00 +8.5263351474430564e+00 +0.0000000000000000e+00 +4.8999999398483993e+00 -3.0424070885323312e-02 -5.8100318162110509e-01 +5.8690621406587281e-03
4.9499999999999904e+00 +8.5263215031893917e+00 +0.0000000000000000e+00 +4.9499999379867266e+00 -3.0425530375520524e-02 -5.8103416014090725e-01 +5.8706170306876519e-03
4.9999999999999902e+00 +8.5263077201535449e+00 +0.0000000000000000e+00 +4.9999999360869900e+00 -3.0426999163745121e-02 -5.8106535124462089e-01 +5.8721717976048873e-03
5.0499999999999901e+00 +8.5262937983280676e+00 +0.0000000000000000e+00 +5.0499999341488016e+00 -3.0428477142474892e-02 -5.8109675191370258e-01 +5.8737263278091419e-03
5.0999999999999899e+00 +8.5262797377054600e+00 +0.0000000000000000e+00 +5.0999999321717748e+00 -3.0429964204186307e-02 -5.8112835912960104e-01 +5.8752805076982776e-03
5.1499999999999897e+00 +8.5262655382781727e+00 +0.0000000000000000e+00 +5.1499999301555217e+00 -3.0431460241354576e-02 -5.8116016987375896e-01 +5.8768342236692854e-03
5.1999999999999895e+00 +8.5262512000386064e+00 +0.0000000000000000e+00 +5.1999999280996541e+00 -3.0432965146453481e-02 -5.8119218112761006e-01 +5.8783873621182630e-03
5.2499999999999893e+00 +8.5262367229791156e+00 +0.0000000000000000e+00 +5.2499999260037855e+00 -3.0434478811955414e-02 -5.8122438987258040e-01 +5.8799398094404060e-03
5.2999999999999892e+00 +8.5262221070920088e+00 +0.0000000000000000e+00 +5.2999999238675279e+00 -3.0436001130331319e-02 -5.8125679309008804e-01 +5.8814914520299733e-03
5.3499999999999890e+00 +8.5262073523695445e+00 +0.0000000000000000e+00 +5.3499999216904932e+00 -3.0437531994050630e-02 -5.8128938776154160e-01 +5.8830421762802879e-03
5.3999999999999888e+00 +8.5261924588039388e+00 +0.0000000000000000e+00 +5.3999999194722941e+00 -3.0439071295581221e-02 -5.8132217086834070e-01 +5.8845918685836909e-03
5.4499999999999886e+00 +8.5261774263873615e+00 +0.0000000000000000e+00 +5.4499999172125424e+00 -3.0440618927389390e-02 -5.8135513939187566e-01 +5.8861404153315528e-03
5.4999999999999885e+00 +8.5261622551119380e+00 +0.0000000000000000e+00 +5.4999999149108501e+00 -3.0442174781939807e-02 -5.8138829031352646e-01 +5.8876877029142311e-03
5.5499999999999883e+00 +8.5261469449697511e+00 +0.0000000000000000e+00 +5.5499999125668298e+00 -3.0443738751695395e-02 -5.8142162061466296e-01 +5.8892336177210538e-03
5.5999999999999881e+00 +8.5261314959528391e+00 +0.0000000000000000e+00 +5.5999999101800926e+00 -3.0445310729117443e-02 -5.8145512727664461e-01 +5.8907780461403174e-03
5.6499999999999879e+00 +8.5261159080531979e+00 +0.0000000000000000e+00 +5.6499999077502503e+00 -3.0446890606665385e-02 -5.8148880728081964e-01 +5.8923208745592396e-03
5.6999999999999877e+00 +8.5261001812627839e+00 +0.0000000000000000e+00 +5.6999999052769148e+00 -3.0448478276796878e-02 -5.8152265760852517e-01 +5.8938619893639703e-03
5.7499999999999876e+00 +8.5260843155735131e+00 +0.0000000000000000e+00 +5.7499999027596980e+00 -3.0450073631967708e-02 -5.8155667524108579e-01 +5.8954012769395457e-03
5.7999999999999874e+00 +8.5260683109772586e+00 +0.0000000000000000e+00 +5.7999999001982108e+00 -3.0451676564631741e-02 -5.8159085715981551e-01 +5.8969386236698866e-03
5.8499999999999872e+00 +8.5260521674658580e+00 +0.0000000000000000e+00 +5.8499998975920651e+00 -3.0453286967240908e-02 -5.8162520034601395e-01 +5.8984739159377722e-03
5.8999999999999870e+00 +8.5260358850311082e+00 +0.0000000000000000e+00 +5.8999998949408718e+00 -3.0454904732245120e-02 -5.8165970178096982e-01 +5.9000070401248189e-03
