# field on trajectory
# s[mm] rx[mm] ry[mm] rz[mm] bx[T] by[T] bz[T]
0.0000000000000000e+00 +8.5270000000000206e+00 +0.0000000000000000e+00 +0.0000000000000000e+00 -2.8250383749625185e-02 -5.5343535703457525e-01 +5.5054891467427522e-03
5.0000000000000003e-02 +8.5269999309457507e+00 +0.0000000000000000e+00 +4.9999999999936401e-02 -2.8250425697775611e-02 -5.5343519168114519e-01 +5.5053589082552177e-03
1.0000000000000001e-01 +8.5269997237846802e+00 +0.0000000000000000e+00 +9.9999999999491399e-02 -2.8250484932528418e-02 -5.5343535342802097e-01 +5.5052328121591148e-03
1.4999999999999999e-01 +8.5269993785186706e+00 +0.0000000000000000e+00 +1.4999999999828301e-01 -2.8250561341229177e-02 -5.5343584174612348e-01 +5.5051108650961576e-03
2.0000000000000001e-01 +8.5269988951477007e+00 +0.0000000000000000e+00 +1.9999999999593099e-01 -2.8250654811224143e-02 -5.5343665610640225e-01 +5.5049930737082935e-03
2.5000000000000000e-01 +8.5269982736681396e+00 +0.0000000000000000e+00 +2.4999999999205300e-01 -2.8250765229861047e-02 -5.5343779597984799e-01 +5.5048794446378255e-03
2.9999999999999999e-01 +8.5269975140799907e+00 +0.0000000000000000e+00 +2.9999999998626697e-01 -2.8250892484486173e-02 -5.5343926083744088e-01 +5.5047699845269032e-03
3.4999999999999998e-01 +8.5269966163905302e+00 +0.0000000000000000e+00 +3.4999999997819298e-01 -2.8251036462442886e-02 -5.5344105015012268e-01 +5.5046647000172276e-03
4.0000000000000002e-01 +8.5269955805888493e+00 +0.0000000000000000e+00 +3.9999999996744801e-01 -2.8251197051082276e-02 -5.5344316338898170e-01 +5.5045635977519613e-03
4.5000000000000001e-01 +8.5269944066858407e+00 +0.0000000000000000e+00 +4.4999999995365197e-01 -2.8251374137746629e-02 -5.5344560002496312e-01 +5.5044666843727464e-03
5.0000000000000000e-01 +8.5269930946742498e+00 +0.0000000000000000e+00 +4.9999999993642202e-01 -2.8251567609786005e-02 -5.5344835952915827e-01 +5.5043739665226890e-03
5.5000000000000004e-01 +8.5269916445577092e+00 +0.0000000000000000e+00 +5.4999999991537796e-01 -2.8251777354546374e-02 -5.5345144137259361e-01 +5.5042854508441938e-03
5.9999999999999998e-01 +8.5269900563289394e+00 +0.0000000000000000e+00 +5.9999999989013697e-01 -2.8252003259378638e-02 -5.5345484502638942e-01 +5.5042011439805976e-03
6.5000000000000002e-01 +8.5269883299988596e+00 +0.0000000000000000e+00 +6.4999999986031898e-01 -2.8252245211626639e-02 -5.5345856996154774e-01 +5.5041210525739832e-03
6.9999999999999996e-01 +8.5269864655601904e+00 +0.0000000000000000e+00 +6.9999999982554195e-01 -2.8252503098642273e-02 -5.5346261564921606e-01 +5.5040451832679181e-03
7.5000000000000000e-01 +8.5269844630165608e+00 +0.0000000000000000e+00 +7.4999999978542398e-01 -2.8252776807773619e-02 -5.5346698156047780e-01 +5.5039735427052710e-03
8.0000000000000004e-01 +8.5269823223679904e+00 +0.0000000000000000e+00 +7.9999999973958402e-01 -2.8253066226370843e-02 -5.5347166716645502e-01 +5.5039061375293059e-03
8.4999999999999998e-01 +8.5269800436108198e+00 +0.0000000000000000e+00 +8.4999999968764095e-01 -2.8253371241786431e-02 -5.5347667193831040e-01 +5.5038429743836806e-03
9.0000000000000002e-01 +8.5269776267450705e+00 +0.0000000000000000e+00 +8.9999999962921295e-01 -2.8253691741372138e-02 -5.5348199534719422e-01 +5.5037840599119030e-03
9.4999999999999996e-01 +8.5269750717743609e+00 +0.0000000000000000e+00 +9.4999999956391801e-01 -2.8254027612479075e-02 -5.5348763686424163e-01 +5.5037294007573428e-03
1.0000000000000000e+00 +8.5269723786986997e+00 +0.0000000000000000e+00 +9.9999999949137597e-01 -2.8254378742460805e-02 -5.5349359596062941e-01 +5.5036790035637743e-03
1.0500000000000000e+00 +8.5269695475144491e+00 +0.0000000000000000e+00 +1.0499999994111999e+00 -2.8254745018673390e-02 -5.5349987210757212e-01 +5.5036328749753635e-03
1.1000000000000001e+00 +8.5269665782288904e+00 +0.0000000000000000e+00 +1.0999999993230201e+00 -2.8255126328469431e-02 -5.5350646477621923e-01 +5.5035910216356104e-03
1.1499999999999999e+00 +8.5269634708311095e+00 +0.0000000000000000e+00 +1.1499999992264500e+00 -2.8255522559210176e-02 -5.5351337343786366e-01 +5.5035534501894998e-03
1.2000000000000000e+00 +8.5269602253283701e+00 +0.0000000000000000e+00 +1.1999999991210999e+00 -2.8255933598250540e-02 -5.5352059756367933e-01 +5.5035201672807982e-03
1.2500000000000000e+00 +8.5269568417206791e+00 +0.0000000000000000e+00 +1.2499999990065900e+00 -2.8256359332949690e-02 -5.5352813662490563e-01 +5.5034911795539612e-03
1.3000000000000000e+00 +8.5269533200044005e+00 +0.0000000000000000e+00 +1.2999999988825499e+00 -2.8256799650669618e-02 -5.5353599009282028e-01 +5.5034664936538533e-03
1.3500000000000001e+00 +8.5269496601795307e+00 +0.0000000000000000e+00 +1.3499999987485900e+00 -2.8257254438772181e-02 -5.5354415743868657e-01 +5.5034461162252165e-03
1.3999999999999999e+00 +8.5269458622533403e+00 +0.0000000000000000e+00 +1.3999999986043401e+00 -2.8257723584617669e-02 -5.5355263813372713e-01 +5.5034300539123920e-03
1.4500000000000000e+00 +8.5269419262185693e+00 +0.0000000000000000e+00 +1.4499999984494001e+00 -2.8258206975573873e-02 -5.5356143164928162e-01 +5.5034183133609591e-03
1.5000000000000000e+00 +8.5269378520752106e+00 +0.0000000000000000e+00 +1.4999999982833900e+00 -2.8258704499007189e-02 -5.5357053745664930e-01 +5.5034109012161063e-03
1.5500000000000000e+00 +8.5269336398268898e+00 +0.0000000000000000e+00 +1.5499999981059500e+00 -2.8259216042284090e-02 -5.5357995502711388e-01 +5.5034078241229046e-03
1.6000000000000001e+00 +8.5269292894736299e+00 +0.0000000000000000e+00 +1.5999999979166799e+00 -2.8259741492774253e-02 -5.5358968383199680e-01 +5.5034090887268452e-03
1.6499999999999999e+00 +8.5269248010117700e+00 +0.0000000000000000e+00 +1.6499999977152000e+00 -2.8260280737850661e-02 -5.5359972334265772e-01 +5.5034147016738613e-03
1.7000000000000000e+00 +8.5269201744449692e+00 +0.0000000000000000e+00 +1.6999999975011300e+00 -2.8260833664885025e-02 -5.5361007303041398e-01 +5.5034246696094875e-03
1.7500000000000000e+00 +8.5269154097695701e+00 +0.0000000000000000e+00 +1.7499999972740901e+00 -2.8261400161254047e-02 -5.5362073236664711e-01 +5.5034389991799769e-03
1.8000000000000000e+00 +8.5269105069892195e+00 +0.0000000000000000e+00 +1.7999999970336999e+00 -2.8261980114333275e-02 -5.5363170082269597e-01 +5.5034576970311938e-03
1.8500000000000001e+00 +8.5269054661039299e+00 +0.0000000000000000e+00 +1.8499999967795799e+00 -2.8262573411501832e-02 -5.5364297786993710e-01 +5.5034807698094443e-03
1.8999999999999999e+00 +8.5269002871100401e+00 +0.0000000000000000e+00 +1.8999999965113501e+00 -2.8263179940142387e-02 -5.5365456297978421e-01 +5.5035082241614757e-03
1.9500000000000000e+00 +8.5268949700112007e+00 +0.0000000000000000e+00 +1.9499999962286201e+00 -2.8263799587636768e-02 -5.5366645562360761e-01 +5.5035400667336623e-03
2.0000000000000000e+00 +8.5268895148037700e+00 +0.0000000000000000e+00 +1.9999999959310100e+00 -2.8264432241371984e-02 -5.5367865527284121e-01 +5.5035763041730926e-03
2.0499999999999998e+00 +8.5268839213858900e+00 +0.0000000000000000e+00 +2.0499999956181298e+00 -2.8265077810293651e-02 -5.5369116115389083e-01 +5.5036169379444879e-03
2.1000000000000001e+00 +8.5268781896593300e+00 +0.0000000000000000e+00 +2.0999999952895898e+00 -2.8265736289410238e-02 -5.5370397151012207e-01 +5.5036619487529356e-03
2.1499999999999999e+00 +8.5268723196240899e+00 +0.0000000000000000e+00 +2.1499999949449999e+00 -2.8266407695205935e-02 -5.5371708433843647e-01 +5.5037113121064142e-03
2.2000000000000002e+00 +8.5268663112729008e+00 +0.0000000000000000e+00 +2.1999999945839801e+00 -2.8267092044168690e-02 -5.5373049763579996e-01 +5.5037650035136042e-03
2.2500000000000000e+00 +8.5268601646093902e+00 +0.0000000000000000e+00 +2.2499999942061502e+00 -2.8267789352782541e-02 -5.5374420939910862e-01 +5.5038229984825078e-03
2.2999999999999998e+00 +8.5268538796335598e+00 +0.0000000000000000e+00 +2.2999999938111202e+00 -2.8268499637533674e-02 -5.5375821762529398e-01 +5.5038852725215314e-03
2.3500000000000001e+00 +8.5268474563490599e+00 +0.0000000000000000e+00 +2.3499999933985198e+00 -2.8269222914907348e-02 -5.5377252031127167e-01 +5.5039518011389503e-03
2.3999999999999999e+00 +8.5268408947522403e+00 +0.0000000000000000e+00 +2.3999999929679601e+00 -2.8269959201392435e-02 -5.5378711545401993e-01 +5.5040225598437372e-03
2.4500000000000002e+00 +8.5268341948467405e+00 +0.0000000000000000e+00 +2.4499999925190501e+00 -2.8270708513475247e-02 -5.5380200105047328e-01 +5.5040975241444452e-03
2.5000000000000000e+00 +8.5268273566252901e+00 +0.0000000000000000e+00 +2.4999999920514302e+00 -2.8271470867647155e-02 -5.5381717509765538e-01 +5.5041766695505968e-03
2.5499999999999998e+00 +8.5268203800987994e+00 +0.0000000000000000e+00 +2.5499999915646900e+00 -2.8272246280392405e-02 -5.5383263559246620e-01 +5.5042599715704847e-03
2.6000000000000001e+00 +8.5268132652563509e+00 +0.0000000000000000e+00 +2.5999999910584699e+00 -2.8273034768204745e-02 -5.5384838053197438e-01 +5.5043474057141790e-03
2.6499999999999999e+00 +8.5268060121015896e+00 +0.0000000000000000e+00 +2.6499999905323701e+00 -2.8273836347572277e-02 -5.5386440791315161e-01 +5.5044389474908050e-03
2.7000000000000002e+00 +8.5267986206345103e+00 +0.0000000000000000e+00 +2.6999999899860101e+00 -2.8274651034984898e-02 -5.5388071573300468e-01 +5.5045345724098870e-03
2.7500000000000000e+00 +8.5267910908551094e+00 +0.0000000000000000e+00 +2.7499999894190199e+00 -2.8275478846932895e-02 -5.5389730198854936e-01 +5.5046342559811048e-03
2.7999999999999998e+00 +8.5267834227670392e+00 +0.0000000000000000e+00 +2.7999999888310101e+00 -2.8276319799905251e-02 -5.5391416467678323e-01 +5.5047379737139888e-03
2.8500000000000001e+00 +8.5267756163666508e+00 +0.0000000000000000e+00 +2.8499999882215898e+00 -2.8277173910394266e-02 -5.5393130179476624e-01 +5.5048457011187667e-03
2.8999999999999999e+00 +8.5267676716539391e+00 +0.0000000000000000e+00 +2.8999999875903901e+00 -2.8278041194890927e-02 -5.5394871133953927e-01 +5.5049574137055303e-03
2.9500000000000002e+00 +8.5267595886289200e+00 +0.0000000000000000e+00 +2.9499999869370299e+00 -2.8278921669886391e-02 -5.5396639130815262e-01 +5.5050730869845065e-03
3.0000000000000000e+00 +8.5267513672915793e+00 +0.0000000000000000e+00 +2.9999999862611100e+00 -2.8279815351871945e-02 -5.5398433969766414e-01 +5.5051926964660644e-03
3.0499999999999998e+00 +8.5267430076455604e+00 +0.0000000000000000e+00 +3.0499999855622502e+00 -2.8280722257337493e-02 -5.5400255450511304e-01 +5.5053162176604362e-03
3.1000000000000001e+00 +8.5267345096872305e+00 +0.0000000000000000e+00 +3.0999999848400801e+00 -2.8281642402776013e-02 -5.5402103372760048e-01 +5.5054436260785437e-03
3.1499999999999999e+00 +8.5267258734165807e+00 +0.0000000000000000e+00 +3.1499999840942201e+00 -2.8282575804679019e-02 -5.5403977536220750e-01 +5.5055748972311688e-03
3.2000000000000002e+00 +8.5267170988336094e+00 +0.0000000000000000e+00 +3.1999999833242700e+00 -2.8283522479538036e-02 -5.5405877740602461e-01 +5.5057100066292367e-03
3.2500000000000000e+00 +8.5267081859419704e+00 +0.0000000000000000e+00 +3.2499999825298600e+00 -2.8284482443843007e-02 -5.5407803785612197e-01 +5.5058489297835295e-03
3.2999999999999998e+00 +8.5266991347380099e+00 +0.0000000000000000e+00 +3.2999999817106000e+00 -2.8285455714086898e-02 -5.5409755470963129e-01 +5.5059916422055275e-03
3.3500000000000001e+00 +8.5266899452181004e+00 +0.0000000000000000e+00 +3.3499999808661101e+00 -2.8286442306762499e-02 -5.5411732596369090e-01 +5.5061381194068401e-03
3.3999999999999999e+00 +8.5266806173895002e+00 +0.0000000000000000e+00 +3.3999999799960099e+00 -2.8287442238357972e-02 -5.5413734961536742e-01 +5.5062883368983944e-03
3.4500000000000002e+00 +8.5266711512522306e+00 +0.0000000000000000e+00 +3.4499999790999101e+00 -2.8288455525364339e-02 -5.5415762366178734e-01 +5.5064422701918084e-03
3.5000000000000000e+00 +8.5266615468026394e+00 +0.0000000000000000e+00 +3.4999999781774398e+00 -2.8289482184273906e-02 -5.5417814610011062e-01 +5.5065998947991046e-03
3.5499999999999998e+00 +8.5266518040407409e+00 +0.0000000000000000e+00 +3.5499999772282100e+00 -2.8290522231577225e-02 -5.5419891492747764e-01 +5.5067611862321718e-03
3.6000000000000001e+00 +8.5266419229665207e+00 +0.0000000000000000e+00 +3.5999999762518402e+00 -2.8291575683764596e-02 -5.5421992814103627e-01 +5.5069261200030393e-03
3.6499999999999999e+00 +8.5266319035799807e+00 +0.0000000000000000e+00 +3.6499999752479400e+00 -2.8292642557325987e-02 -5.5424118373794007e-01 +5.5070946716238734e-03
3.6999999999999900e+00 +8.5266217458847695e+00 +0.0000000000000000e+00 +3.6999999742161398e+00 -2.8293722868749517e-02 -5.5426267971532250e-01 +5.5072668166066966e-03
3.7499999999999898e+00 +8.5266114498736005e+00 +0.0000000000000000e+00 +3.7499999731560498e+00 -2.8294816634527483e-02 -5.5428441407040463e-01 +5.5074425304645026e-03
3.7999999999999901e+00 +8.5266010155537497e+00 +0.0000000000000000e+00 +3.7999999720672801e+00 -2.8295923871145701e-02 -5.5430638480030603e-01 +5.5076217887093165e-03
3.8499999999999899e+00 +8.5265904429179500e+00 +0.0000000000000000e+00 +3.8499999709494599e+00 -2.8297044595095581e-02 -5.5432858990225953e-01 +5.5078045668544009e-03
3.8999999999999901e+00 +8.5265797319771099e+00 +0.0000000000000000e+00 +3.8999999698022001e+00 -2.8298178822860516e-02 -5.5435102737337050e-01 +5.5079908404117844e-03
3.9499999999999900e+00 +8.5265688827203103e+00 +0.0000000000000000e+00 +3.9499999686251202e+00 -2.8299326570932433e-02 -5.5437369521091084e-01 +5.5081805848952829e-03
3.9999999999999898e+00 +8.5265578951548395e+00 +0.0000000000000000e+00 +3.9999999674178399e+00 -2.8300487855795156e-02 -5.5439659141202402e-01 +5.5083737758174611e-03
4.0499999999999901e+00 +8.5265467692734092e+00 +0.0000000000000000e+00 +4.0499999661799704e+00 -2.8301662666961405e-02 -5.5441971393103551e-01 +5.5085703909460212e-03
4.0999999999999899e+00 +8.5265355050833005e+00 +0.0000000000000000e+00 +4.0999999649111301e+00 -2.8302850886030812e-02 -5.5444306055044279e-01 +5.5087704170631137e-03
4.1499999999999897e+00 +8.5265241025808791e+00 +0.0000000000000000e+00 +4.1499999636109504e+00 -2.8304052367630585e-02 -5.5446662900989385e-01 +5.5089738432053340e-03
4.1999999999999904e+00 +8.5265125617697795e+00 +0.0000000000000000e+00 +4.1999999622790298e+00 -2.8305266966384621e-02 -5.5449041704898372e-01 +5.5091806584084179e-03
4.2499999999999902e+00 +8.5265008826427202e+00 +0.0000000000000000e+00 +4.2499999609149901e+00 -2.8306494536921013e-02 -5.5451442240738835e-01 +5.5093908517085911e-03
4.2999999999999901e+00 +8.5264890652069898e+00 +0.0000000000000000e+00 +4.2999999595184599e+00 -2.8307734933861479e-02 -5.5453864282467724e-01 +5.5096044121406311e-03
4.3499999999999899e+00 +8.5264771094589396e+00 +0.0000000000000000e+00 +4.3499999580890396e+00 -2.8308988011831907e-02 -5.5456307604050104e-01 +5.5098213287397991e-03
4.3999999999999897e+00 +8.5264650153985695e+00 +0.0000000000000000e+00 +4.3999999566263703e+00 -2.8310253625456309e-02 -5.5458771979448229e-01 +5.5100415905406895e-03
4.4499999999999904e+00 +8.5264527830295300e+00 +0.0000000000000000e+00 +4.4499999551300400e+00 -2.8311531629356731e-02 -5.5461257182621715e-01 +5.5102651865772505e-03
4.4999999999999902e+00 +8.5264404123481707e+00 +0.0000000000000000e+00 +4.4999999535996897e+00 -2.8312821878157864e-02 -5.5463762987535459e-01 +5.5104921058835785e-03
4.5499999999999901e+00 +8.5264279033544899e+00 +0.0000000000000000e+00 +4.5499999520349199e+00 -2.8314124226482409e-02 -5.5466289168151617e-01 +5.5107223374930830e-03
4.5999999999999899e+00 +8.5264152560448601e+00 +0.0000000000000000e+00 +4.5999999504353601e+00 -2.8315438528954111e-02 -5.5468835498434887e-01 +5.5109558704390261e-03
4.6499999999999897e+00 +8.5264024704301793e+00 +0.0000000000000000e+00 +4.6499999488006196e+00 -2.8316764640190135e-02 -5.5471401752339122e-01 +5.5111926937531312e-03
4.6999999999999904e+00 +8.5263895464995603e+00 +0.0000000000000000e+00 +4.6999999471303298e+00 -2.8318102414816249e-02 -5.5473987703834116e-01 +5.5114327964683159e-03
4.7499999999999902e+00 +8.5263764842602505e+00 +0.0000000000000000e+00 +4.7499999454240900e+00 -2.8319451707450049e-02 -5.5476593126876050e-01 +5.5116761676156601e-03
4.7999999999999901e+00 +8.5263632837050007e+00 +0.0000000000000000e+00 +4.7999999436815299e+00 -2.8320812372714714e-02 -5.5479217795431657e-01 +5.5119227962268664e-03
4.8499999999999899e+00 +8.5263499448447000e+00 +0.0000000000000000e+00 +4.8499999419022597e+00 -2.8322184265225155e-02 -5.5481861483453998e-01 +5.5121726713317689e-03
4.8999999999999897e+00 +8.5263364676684397e+00 +0.0000000000000000e+00 +4.8999999400859000e+00 -2.8323567239604823e-02 -5.5484523964911969e-01 +5.5124257819613451e-03
4.9499999999999904e+00 +8.5263228521798702e+00 +0.0000000000000000e+00 +4.9499999382320699e+00 -2.8324961150470451e-02 -5.5487205013763452e-01 +5.5126821171449574e-03
4.9999999999999902e+00 +8.5263090983826295e+00 +0.0000000000000000e+00 +4.9999999363403900e+00 -2.8326365852438119e-02 -5.5489904403966062e-01 +5.5129416659114288e-03
5.0499999999999901e+00 +8.5262952059529198e+00 +0.0000000000000000e+00 +5.0499999344103799e+00 -2.8327781200259947e-02 -5.5492621909718276e-01 +5.5132044173138578e-03
5.0999999999999899e+00 +8.5262811745706095e+00 +0.0000000000000000e+00 +5.0999999324415599e+00 -2.8329207048685918e-02 -5.5495357305215642e-01 +5.5134703604045252e-03
5.1499999999999897e+00 +8.5262670042357094e+00 +0.0000000000000000e+00 +5.1499999304335597e+00 -2.8330643252331651e-02 -5.5498110364417685e-01 +5.5137394842108920e-03
5.1999999999999904e+00 +8.5262526949518396e+00 +0.0000000000000000e+00 +5.1999999283859903e+00 -2.8332089665810491e-02 -5.5500880861280788e-01 +5.5140117777595582e-03
5.2499999999999902e+00 +8.5262382467153692e+00 +0.0000000000000000e+00 +5.2499999262984600e+00 -2.8333546143738033e-02 -5.5503668569766207e-01 +5.5142872300770742e-03
5.2999999999999901e+00 +8.5262236595299292e+00 +0.0000000000000000e+00 +5.2999999241705797e+00 -2.8335012540726050e-02 -5.5506473263829470e-01 +5.5145658301888221e-03
5.3499999999999899e+00 +8.5262089333882596e+00 +0.0000000000000000e+00 +5.3499999220019703e+00 -2.8336488711390058e-02 -5.5509294717433599e-01 +5.5148475671203860e-03
5.3999999999999897e+00 +8.5261940682976292e+00 +0.0000000000000000e+00 +5.3999999197922497e+00 -2.8337974510338634e-02 -5.5512132704530448e-01 +5.5151324298956103e-03
5.4499999999999904e+00 +8.5261790642507496e+00 +0.0000000000000000e+00 +5.4499999175410201e+00 -2.8339469792185594e-02 -5.5514986999082028e-01 +5.5154204075387797e-03
5.4999999999999902e+00 +8.5261639212585596e+00 +0.0000000000000000e+00 +5.4999999152479004e+00 -2.8340974411536234e-02 -5.5517857375036372e-01 +5.5157114890721391e-03
5.5499999999999901e+00 +8.5261486393137602e+00 +0.0000000000000000e+00 +5.5499999129125097e+00 -2.8342488223002584e-02 -5.5520743606354406e-01 +5.5160056635186281e-03
5.5999999999999899e+00 +8.5261332184127205e+00 +0.0000000000000000e+00 +5.5999999105344500e+00 -2.8344011081194189e-02 -5.5523645466993665e-01 +5.5163029199002201e-03
5.6499999999999897e+00 +8.5261176585627307e+00 +0.0000000000000000e+00 +5.6499999081133403e+00 -2.8345542840715065e-02 -5.5526562730903151e-01 +5.5166032472373427e-03
5.6999999999999904e+00 +8.5261019597637606e+00 +0.0000000000000000e+00 +5.6999999056488004e+00 -2.8347083356171334e-02 -5.5529495172036414e-01 +5.5169066345502641e-03
5.7499999999999902e+00 +8.5260861220122006e+00 +0.0000000000000000e+00 +5.7499999031404396e+00 -2.8348632482169591e-02 -5.5532442564349094e-01 +5.5172130708587841e-03
5.7999999999999901e+00 +8.5260701453080401e+00 +0.0000000000000000e+00 +5.7999999005878804e+00 -2.8350190073313915e-02 -5.5535404681793477e-01 +5.5175225451816832e-03
5.8499999999999899e+00 +8.5260540296512808e+00 +0.0000000000000000e+00 +5.8499998979907204e+00 -2.8351755984207305e-02 -5.5538381298321038e-01 +5.5178350465369813e-03
5.8999999999999897e+00 +8.5260377750455500e+00 +0.0000000000000000e+00 +5.8999998953485804e+00 -2.8353330069450216e-02 -5.5541372187879845e-01 +5.5181505639416350e-03
