# trajectory
# s[mm] rx[mm] ry[mm] rz[mm] px[rad] py[rad] pz[rad]
0.0000000000000000e+00 +8.5980000000000008e+00 +0.0000000000000000e+00 +0.0000000000000000e+00 +0.0000000000000000e+00 +0.0000000000000000e+00 +1.0000000000000000e+00
-5.0000000000000003e-02 +8.5979999309553925e+00 +0.0000000000000000e+00 -4.9999999999936436e-02 +2.7617848090311698e-06 +0.0000000000000000e+00 +9.9999999999618627e-01
-1.0000000000000001e-01 +8.5979997238214558e+00 +0.0000000000000000e+00 -9.9999999999491496e-02 +5.5235734054949501e-06 +0.0000000000000000e+00 +9.9999999998474509e-01
-1.5000000000000002e-01 +8.5979993785979580e+00 +0.0000000000000000e+00 -1.4999999999828381e-01 +8.2853675591024114e-06 +0.0000000000000000e+00 +9.9999999996567634e-01
-2.0000000000000001e-01 +8.5979988952845776e+00 +0.0000000000000000e+00 -1.9999999999593199e-01 +1.1047169037432653e-05 +0.0000000000000000e+00 +9.9999999993898003e-01
-2.5000000000000000e-01 +8.5979982738809024e+00 +0.0000000000000000e+00 -2.4999999999205469e-01 +1.3808979605932875e-05 +0.0000000000000000e+00 +9.9999999990465605e-01
-2.9999999999999999e-01 +8.5979975143864351e+00 +0.0000000000000000e+00 -2.9999999998627047e-01 +1.6570801027918460e-05 +0.0000000000000000e+00 +9.9999999986270427e-01
-3.4999999999999998e-01 +8.5979966168005895e+00 +0.0000000000000000e+00 -3.4999999997819797e-01 +1.9332635064573049e-05 +0.0000000000000000e+00 +9.9999999981312460e-01
-3.9999999999999997e-01 +8.5979955811226887e+00 +0.0000000000000000e+00 -3.9999999996745578e-01 +2.2094483474948626e-05 +0.0000000000000000e+00 +9.9999999975591691e-01
-4.4999999999999996e-01 +8.5979944073519725e+00 +0.0000000000000000e+00 -4.4999999995366252e-01 +2.4856348015965584e-05 +0.0000000000000000e+00 +9.9999999969108100e-01
-4.9999999999999994e-01 +8.5979930954875901e+00 +0.0000000000000000e+00 -4.9999999993643673e-01 +2.7618230442412811e-05 +0.0000000000000000e+00 +9.9999999961861674e-01
-5.4999999999999993e-01 +8.5979916455286016e+00 +0.0000000000000000e+00 -5.4999999991539705e-01 +3.0380132506947767e-05 +0.0000000000000000e+00 +9.9999999953852381e-01
-5.9999999999999998e-01 +8.5979900574739823e+00 +0.0000000000000000e+00 -5.9999999989016195e-01 +3.3142055960096558e-05 +0.0000000000000000e+00 +9.9999999945080209e-01
-6.5000000000000002e-01 +8.5979883313226200e+00 +0.0000000000000000e+00 -6.4999999986035006e-01 +3.5904002550254022e-05 +0.0000000000000000e+00 +9.9999999935545136e-01
-7.0000000000000007e-01 +8.5979864670733122e+00 +0.0000000000000000e+00 -6.9999999982557992e-01 +3.8665974023683801e-05 +0.0000000000000000e+00 +9.9999999925247129e-01
-7.5000000000000011e-01 +8.5979844647247727e+00 +0.0000000000000000e+00 -7.4999999978547005e-01 +4.1427972124518425e-05 +0.0000000000000000e+00 +9.9999999914186166e-01
-8.0000000000000016e-01 +8.5979823242756268e+00 +0.0000000000000000e+00 -7.9999999973963898e-01 +4.4189998594759373e-05 +0.0000000000000000e+00 +9.9999999902362213e-01
-8.5000000000000020e-01 +8.5979800457244124e+00 +0.0000000000000000e+00 -8.4999999968770512e-01 +4.6952055174277189e-05 +0.0000000000000000e+00 +9.9999999889775237e-01
-9.0000000000000024e-01 +8.5979776290695789e+00 +0.0000000000000000e+00 -8.9999999962928701e-01 +4.9714143600811518e-05 +0.0000000000000000e+00 +9.9999999876425205e-01
-9.5000000000000029e-01 +8.5979750743094918e+00 +0.0000000000000000e+00 -9.4999999956400316e-01 +5.2476265609971209e-05 +0.0000000000000000e+00 +9.9999999862312083e-01
-1.0000000000000002e+00 +8.5979723814424283e+00 +0.0000000000000000e+00 -9.9999999949147189e-01 +5.5238422935234403e-05 +0.0000000000000000e+00 +9.9999999847435839e-01
-1.0500000000000003e+00 +8.5979695504665798e+00 +0.0000000000000000e+00 -1.0499999994113118e+00 +5.8000617307948581e-05 +0.0000000000000000e+00 +9.9999999831796427e-01
-1.1000000000000003e+00 +8.5979665813800512e+00 +0.0000000000000000e+00 -1.0999999993231413e+00 +6.0762850457330670e-05 +0.0000000000000000e+00 +9.9999999815393803e-01
-1.1500000000000004e+00 +8.5979634741808599e+00 +0.0000000000000000e+00 -1.1499999992265786e+00 +6.3525124110467115e-05 +0.0000000000000000e+00 +9.9999999798227934e-01
-1.2000000000000004e+00 +8.5979602288669366e+00 +0.0000000000000000e+00 -1.1999999991212420e+00 +6.6287439992313943e-05 +0.0000000000000000e+00 +9.9999999780298765e-01
-1.2500000000000004e+00 +8.5979568454361281e+00 +0.0000000000000000e+00 -1.2499999990067501e+00 +6.9049799825696880e-05 +0.0000000000000000e+00 +9.9999999761606262e-01
-1.3000000000000005e+00 +8.5979533238861929e+00 +0.0000000000000000e+00 -1.2999999988827211e+00 +7.1812205331311398e-05 +0.0000000000000000e+00 +9.9999999742150358e-01
-1.3500000000000005e+00 +8.5979496642148057e+00 +0.0000000000000000e+00 -1.3499999987487732e+00 +7.4574658227722797e-05 +0.0000000000000000e+00 +9.9999999721931021e-01
-1.4000000000000006e+00 +8.5979458664195523e+00 +0.0000000000000000e+00 -1.3999999986045248e+00 +7.7337160231366283e-05 +0.0000000000000000e+00 +9.9999999700948183e-01
-1.4500000000000006e+00 +8.5979419304979352e+00 +0.0000000000000000e+00 -1.4499999984495942e+00 +8.0099713056547097e-05 +0.0000000000000000e+00 +9.9999999679201801e-01
-1.5000000000000007e+00 +8.5979378564473716e+00 +0.0000000000000000e+00 -1.4999999982835994e+00 +8.2862318415440506e-05 +0.0000000000000000e+00 +9.9999999656691807e-01
-1.5500000000000007e+00 +8.5979336442651899e+00 +0.0000000000000000e+00 -1.5499999981061587e+00 +8.5624978018091974e-05 +0.0000000000000000e+00 +9.9999999633418157e-01
-1.6000000000000008e+00 +8.5979292939486367e+00 +0.0000000000000000e+00 -1.5999999979168904e+00 +8.8387693572417170e-05 +0.0000000000000000e+00 +9.9999999609380785e-01
-1.6500000000000008e+00 +8.5979248054948716e+00 +0.0000000000000000e+00 -1.6499999977154123e+00 +9.1150466784202104e-05 +0.0000000000000000e+00 +9.9999999584579624e-01
-1.7000000000000008e+00 +8.5979201789009689e+00 +0.0000000000000000e+00 -1.6999999975013427e+00 +9.3913299357103173e-05 +0.0000000000000000e+00 +9.9999999559014618e-01
-1.7500000000000009e+00 +8.5979154141639178e+00 +0.0000000000000000e+00 -1.7499999972742997e+00 +9.6676192992647248e-05 +0.0000000000000000e+00 +9.9999999532685691e-01
-1.8000000000000009e+00 +8.5979105112806238e+00 +0.0000000000000000e+00 -1.7999999970339011e+00 +9.9439149390231760e-05 +0.0000000000000000e+00 +9.9999999505592785e-01
-1.8500000000000010e+00 +8.5979054702479054e+00 +0.0000000000000000e+00 -1.8499999967797651e+00 +1.0220217024712478e-04 +0.0000000000000000e+00 +9.9999999477735824e-01
-1.9000000000000010e+00 +8.5979002910624978e+00 +0.0000000000000000e+00 -1.8999999965115095e+00 +1.0496525725846511e-04 +0.0000000000000000e+00 +9.9999999449114740e-01
-1.9500000000000011e+00 +8.5978949737210488e+00 +0.0000000000000000e+00 -1.9499999962287524e+00 +1.0772841211726234e-04 +0.0000000000000000e+00 +9.9999999419729468e-01
-2.0000000000000009e+00 +8.5978895182201267e+00 +0.0000000000000000e+00 -1.9999999959311117e+00 +1.1049163651439695e-04 +0.0000000000000000e+00 +9.9999999389579919e-01
-2.0500000000000007e+00 +8.5978839245562106e+00 +0.0000000000000000e+00 -2.0499999956182049e+00 +1.1325493213820091e-04 +0.0000000000000000e+00 +9.9999999358666025e-01
-2.1000000000000005e+00 +8.5978781927256982e+00 +0.0000000000000000e+00 -2.0999999952896502e+00 +1.1601830066984368e-04 +0.0000000000000000e+00 +9.9999999326987699e-01
-2.1500000000000004e+00 +8.5978723227249017e+00 +0.0000000000000000e+00 -2.1499999949450652e+00 +1.1878174377871817e-04 +0.0000000000000000e+00 +9.9999999294544872e-01
-2.2000000000000002e+00 +8.5978663145500498e+00 +0.0000000000000000e+00 -2.1999999945840676e+00 +1.2154526312202130e-04 +0.0000000000000000e+00 +9.9999999261337458e-01
-2.2500000000000000e+00 +8.5978601681972915e+00 +0.0000000000000000e+00 -2.2499999942062749e+00 +1.2430886034475407e-04 +0.0000000000000000e+00 +9.9999999227365366e-01
-2.2999999999999998e+00 +8.5978538836626903e+00 +0.0000000000000000e+00 -2.2999999938113054e+00 +1.2707253707972167e-04 +0.0000000000000000e+00 +9.9999999192628519e-01
-2.3499999999999996e+00 +8.5978474609422317e+00 +0.0000000000000000e+00 -2.3499999933987761e+00 +1.2983629494753342e-04 +0.0000000000000000e+00 +9.9999999157126829e-01
-2.3999999999999995e+00 +8.5978409000318177e+00 +0.0000000000000000e+00 -2.3999999929683047e+00 +1.3260013555660289e-04 +0.0000000000000000e+00 +9.9999999120860206e-01
-2.4499999999999993e+00 +8.5978342009272701e+00 +0.0000000000000000e+00 -2.4499999925195088e+00 +1.3536406050314792e-04 +0.0000000000000000e+00 +9.9999999083828561e-01
-2.4999999999999991e+00 +8.5978273636243348e+00 +0.0000000000000000e+00 -2.4999999920520057e+00 +1.3812807137119073e-04 +0.0000000000000000e+00 +9.9999999046031796e-01
-2.5499999999999989e+00 +8.5978203881186754e+00 +0.0000000000000000e+00 -2.5499999915654130e+00 +1.4089216973255786e-04 +0.0000000000000000e+00 +9.9999999007469831e-01
-2.5999999999999988e+00 +8.5978132744058779e+00 +0.0000000000000000e+00 -2.5999999910593479e+00 +1.4365635714688033e-04 +0.0000000000000000e+00 +9.9999998968142556e-01
-2.6499999999999986e+00 +8.5978060224814516e+00 +0.0000000000000000e+00 -2.6499999905334279e+00 +1.4642063516159357e-04 +0.0000000000000000e+00 +9.9999998928049882e-01
-2.6999999999999984e+00 +8.5977986323408278e+00 +0.0000000000000000e+00 -2.6999999899872704e+00 +1.4918500531193752e-04 +0.0000000000000000e+00 +9.9999998887191710e-01
-2.7499999999999982e+00 +8.5977911039793611e+00 +0.0000000000000000e+00 -2.7499999894204921e+00 +1.5194946912095670e-04 +0.0000000000000000e+00 +9.9999998845567939e-01
-2.7999999999999980e+00 +8.5977834373923301e+00 +0.0000000000000000e+00 -2.7999999888327105e+00 +1.5471402809950015e-04 +0.0000000000000000e+00 +9.9999998803178469e-01
-2.8499999999999979e+00 +8.5977756325749404e+00 +0.0000000000000000e+00 -2.8499999882235429e+00 +1.5747868374622157e-04 +0.0000000000000000e+00 +9.9999998760023201e-01
-2.8999999999999977e+00 +8.5977676895223194e+00 +0.0000000000000000e+00 -2.8999999875926061e+00 +1.6024343754757929e-04 +0.0000000000000000e+00 +9.9999998716102023e-01
-2.9499999999999975e+00 +8.5977596082295236e+00 +0.0000000000000000e+00 -2.9499999869395173e+00 +1.6300829097783633e-04 +0.0000000000000000e+00 +9.9999998671414836e-01
-2.9999999999999973e+00 +8.5977513886915364e+00 +0.0000000000000000e+00 -2.9999999862638931e+00 +1.6577324549906043e-04 +0.0000000000000000e+00 +9.9999998625961539e-01
-3.0499999999999972e+00 +8.5977430309032652e+00 +0.0000000000000000e+00 -3.0499999855653508e+00 +1.6853830256112405e-04 +0.0000000000000000e+00 +9.9999998579742011e-01
-3.0999999999999970e+00 +8.5977345348595478e+00 +0.0000000000000000e+00 -3.0999999848435071e+00 +1.7130346360170448e-04 +0.0000000000000000e+00 +9.9999998532756151e-01
-3.1499999999999968e+00 +8.5977259005551492e+00 +0.0000000000000000e+00 -3.1499999840979789e+00 +1.7406873004628375e-04 +0.0000000000000000e+00 +9.9999998485003849e-01
-3.1999999999999966e+00 +8.5977171279847635e+00 +0.0000000000000000e+00 -3.1999999833283832e+00 +1.7683410330814875e-04 +0.0000000000000000e+00 +9.9999998436484983e-01
-3.2499999999999964e+00 +8.5977082171430155e+00 +0.0000000000000000e+00 -3.2499999825343364e+00 +1.7959958478839120e-04 +0.0000000000000000e+00 +9.9999998387199440e-01
-3.2999999999999963e+00 +8.5976991680244588e+00 +0.0000000000000000e+00 -3.2999999817154548e+00 +1.8236517587590776e-04 +0.0000000000000000e+00 +9.9999998337147111e-01
-3.3499999999999961e+00 +8.5976899806235778e+00 +0.0000000000000000e+00 -3.3499999808713556e+00 +1.8513087794739990e-04 +0.0000000000000000e+00 +9.9999998286327885e-01
-3.3999999999999959e+00 +8.5976806549347913e+00 +0.0000000000000000e+00 -3.3999999800016552e+00 +1.8789669236737410e-04 +0.0000000000000000e+00 +9.9999998234741627e-01
-3.4499999999999957e+00 +8.5976711909524468e+00 +0.0000000000000000e+00 -3.4499999791059697e+00 +1.9066262048814171e-04 +0.0000000000000000e+00 +9.9999998182388239e-01
-3.4999999999999956e+00 +8.5976615886708263e+00 +0.0000000000000000e+00 -3.4999999781839155e+00 +1.9342866364981906e-04 +0.0000000000000000e+00 +9.9999998129267587e-01
-3.5499999999999954e+00 +8.5976518480841424e+00 +0.0000000000000000e+00 -3.5499999772351094e+00 +1.9619482318032746e-04 +0.0000000000000000e+00 +9.9999998075379548e-01
-3.5999999999999952e+00 +8.5976419691865456e+00 +0.0000000000000000e+00 -3.5999999762591672e+00 +1.9896110039539319e-04 +0.0000000000000000e+00 +9.9999998020724001e-01
-3.6499999999999950e+00 +8.5976319519721187e+00 +0.0000000000000000e+00 -3.6499999752557053e+00 +2.0172749659854754e-04 +0.0000000000000000e+00 +9.9999997965300824e-01
-3.6999999999999948e+00 +8.5976217964348809e+00 +0.0000000000000000e+00 -3.6999999742243399e+00 +2.0449401308112681e-04 +0.0000000000000000e+00 +9.9999997909109895e-01
-3.7499999999999947e+00 +8.5976115025687854e+00 +0.0000000000000000e+00 -3.7499999731646874e+00 +2.0726065112227236e-04 +0.0000000000000000e+00 +9.9999997852151090e-01
-3.7999999999999945e+00 +8.5976010703677215e+00 +0.0000000000000000e+00 -3.7999999720763631e+00 +2.1002741198893052e-04 +0.0000000000000000e+00 +9.9999997794424278e-01
-3.8499999999999943e+00 +8.5975904998255182e+00 +0.0000000000000000e+00 -3.8499999709589834e+00 +2.1279429693585268e-04 +0.0000000000000000e+00 +9.9999997735929325e-01
-3.8999999999999941e+00 +8.5975797909359386e+00 +0.0000000000000000e+00 -3.8999999698121641e+00 +2.1556130720559529e-04 +0.0000000000000000e+00 +9.9999997676666108e-01
-3.9499999999999940e+00 +8.5975689436926874e+00 +0.0000000000000000e+00 -3.9499999686355212e+00 +2.1832844402851985e-04 +0.0000000000000000e+00 +9.9999997616634495e-01
-3.9999999999999938e+00 +8.5975579580894053e+00 +0.0000000000000000e+00 -3.9999999674286704e+00 +2.2109570862279289e-04 +0.0000000000000000e+00 +9.9999997555834352e-01
-4.0499999999999936e+00 +8.5975468341196741e+00 +0.0000000000000000e+00 -4.0499999661912272e+00 +2.2386310219440740e-04 +0.0000000000000000e+00 +9.9999997494265547e-01
-4.0999999999999934e+00 +8.5975355717770157e+00 +0.0000000000000000e+00 -4.0999999649228078e+00 +2.2663062593741788e-04 +0.0000000000000000e+00 +9.9999997431927945e-01
-4.1499999999999932e+00 +8.5975241710548911e+00 +0.0000000000000000e+00 -4.1499999636230269e+00 +2.2939828103417547e-04 +0.0000000000000000e+00 +9.9999997368821403e-01
-4.1999999999999931e+00 +8.5975126319467030e+00 +0.0000000000000000e+00 -4.1999999622915007e+00 +2.3216606865534927e-04 +0.0000000000000000e+00 +9.9999997304945798e-01
-4.2499999999999929e+00 +8.5975009544457972e+00 +0.0000000000000000e+00 -4.2499999609278447e+00 +2.3493398995992650e-04 +0.0000000000000000e+00 +9.9999997240300986e-01
-4.2999999999999927e+00 +8.5974891385454608e+00 +0.0000000000000000e+00 -4.2999999595316734e+00 +2.3770204609521237e-04 +0.0000000000000000e+00 +9.9999997174886834e-01
-4.3499999999999925e+00 +8.5974771842389224e+00 +0.0000000000000000e+00 -4.3499999581026030e+00 +2.4047023819683019e-04 +0.0000000000000000e+00 +9.9999997108703198e-01
-4.3999999999999924e+00 +8.5974650915193571e+00 +0.0000000000000000e+00 -4.3999999566402481e+00 +2.4323856738872130e-04 +0.0000000000000000e+00 +9.9999997041749933e-01
-4.4499999999999922e+00 +8.5974528603798817e+00 +0.0000000000000000e+00 -4.4499999551442242e+00 +2.4600703478314513e-04 +0.0000000000000000e+00 +9.9999996974026906e-01
-4.4999999999999920e+00 +8.5974404908135575e+00 +0.0000000000000000e+00 -4.4999999536141466e+00 +2.4877564148067930e-04 +0.0000000000000000e+00 +9.9999996905533972e-01
-4.5499999999999918e+00 +8.5974279828133930e+00 +0.0000000000000000e+00 -4.5499999520496299e+00 +2.5154438857021943e-04 +0.0000000000000000e+00 +9.9999996836270988e-01
-4.5999999999999917e+00 +8.5974153363723431e+00 +0.0000000000000000e+00 -4.5999999504502895e+00 +2.5431327712897931e-04 +0.0000000000000000e+00 +9.9999996766237809e-01
-4.6499999999999915e+00 +8.5974025514833059e+00 +0.0000000000000000e+00 -4.6499999488157400e+00 +2.5708230822249088e-04 +0.0000000000000000e+00 +9.9999996695434290e-01
-4.6999999999999913e+00 +8.5973896281391280e+00 +0.0000000000000000e+00 -4.6999999471455958e+00 +2.5985148290460412e-04 +0.0000000000000000e+00 +9.9999996623860288e-01
-4.7499999999999911e+00 +8.5973765663326045e+00 +0.0000000000000000e+00 -4.7499999454394715e+00 +2.6262080221748729e-04 +0.0000000000000000e+00 +9.9999996551515657e-01
-4.7999999999999909e+00 +8.5973633660564790e+00 +0.0000000000000000e+00 -4.7999999436969825e+00 +2.6539026719162669e-04 +0.0000000000000000e+00 +9.9999996478400244e-01
-4.8499999999999908e+00 +8.5973500273034418e+00 +0.0000000000000000e+00 -4.8499999419177433e+00 +2.6815987884582681e-04 +0.0000000000000000e+00 +9.9999996404513902e-01
-4.8999999999999906e+00 +8.5973365500661334e+00 +0.0000000000000000e+00 -4.8999999401013676e+00 +2.7092963818721032e-04 +0.0000000000000000e+00 +9.9999996329856489e-01
-4.9499999999999904e+00 +8.5973229343371447e+00 +0.0000000000000000e+00 -4.9499999382474709e+00 +2.7369954621121804e-04 +0.0000000000000000e+00 +9.9999996254427848e-01
-4.9999999999999902e+00 +8.5973091801090167e+00 +0.0000000000000000e+00 -4.9999999363556666e+00 +2.7646960390160900e-04 +0.0000000000000000e+00 +9.9999996178227835e-01
-5.0499999999999901e+00 +8.5972952873742425e+00 +0.0000000000000000e+00 -5.0499999344255695e+00 +2.7923981223046027e-04 +0.0000000000000000e+00 +9.9999996101256294e-01
-5.0999999999999899e+00 +8.5972812561252656e+00 +0.0000000000000000e+00 -5.0999999324567939e+00 +2.8201017215816724e-04 +0.0000000000000000e+00 +9.9999996023513071e-01
-5.1499999999999897e+00 +8.5972670863544831e+00 +0.0000000000000000e+00 -5.1499999304489537e+00 +2.8478068463344336e-04 +0.0000000000000000e+00 +9.9999995944998010e-01
-5.1999999999999895e+00 +8.5972527780542443e+00 +0.0000000000000000e+00 -5.1999999284016631e+00 +2.8755135059332026e-04 +0.0000000000000000e+00 +9.9999995865710967e-01
-5.2499999999999893e+00 +8.5972383312168503e+00 +0.0000000000000000e+00 -5.2499999263145360e+00 +2.9032217096314780e-04 +0.0000000000000000e+00 +9.9999995785651774e-01
-5.2999999999999892e+00 +8.5972237458345582e+00 +0.0000000000000000e+00 -5.2999999241871860e+00 +2.9309314665659395e-04 +0.0000000000000000e+00 +9.9999995704820288e-01
-5.3499999999999890e+00 +8.5972090218995803e+00 +0.0000000000000000e+00 -5.3499999220192276e+00 +2.9586427857564488e-04 +0.0000000000000000e+00 +9.9999995623216353e-01
-5.3999999999999888e+00 +8.5971941594040828e+00 +0.0000000000000000e+00 -5.3999999198102735e+00 +2.9863556761060484e-04 +0.0000000000000000e+00 +9.9999995540839803e-01
-5.4499999999999886e+00 +8.5971791583401860e+00 +0.0000000000000000e+00 -5.4499999175599383e+00 +3.0140701464009633e-04 +0.0000000000000000e+00 +9.9999995457690483e-01
-5.4999999999999885e+00 +8.5971640186999707e+00 +0.0000000000000000e+00 -5.4999999152678356e+00 +3.0417862053105997e-04 +0.0000000000000000e+00 +9.9999995373768247e-01
-5.5499999999999883e+00 +8.5971487404754718e+00 +0.0000000000000000e+00 -5.5499999129335782e+00 +3.0695038613875444e-04 +0.0000000000000000e+00 +9.9999995289072929e-01
-5.5999999999999881e+00 +8.5971333236586815e+00 +0.0000000000000000e+00 -5.5999999105567797e+00 +3.0972231230675664e-04 +0.0000000000000000e+00 +9.9999995203604364e-01
-5.6499999999999879e+00 +8.5971177682415512e+00 +0.0000000000000000e+00 -5.6499999081370538e+00 +3.1249439986696156e-04 +0.0000000000000000e+00 +9.9999995117362395e-01
-5.6999999999999877e+00 +8.5971020742159912e+00 +0.0000000000000000e+00 -5.6999999056740132e+00 +3.1526664963958234e-04 +0.0000000000000000e+00 +9.9999995030346867e-01
-5.7499999999999876e+00 +8.5970862415738711e+00 +0.0000000000000000e+00 -5.7499999031672715e+00 +3.1803906243315012e-04 +0.0000000000000000e+00 +9.9999994942557624e-01
-5.7999999999999874e+00 +8.5970702703070181e+00 +0.0000000000000000e+00 -5.7999999006164416e+00 +3.2081163904451425e-04 +0.0000000000000000e+00 +9.9999994853994489e-01
-5.8499999999999872e+00 +8.5970541604072235e+00 +0.0000000000000000e+00 -5.8499998980211370e+00 +3.2358438025884207e-04 +0.0000000000000000e+00 +9.9999994764657318e-01
