# field on trajectory
# s[mm] rx[mm] ry[mm] rz[mm] bx[T] by[T] bz[T]
0.0000000000000000e+00 +8.5389999999999997e+00 +0.0000000000000000e+00 +0.0000000000000000e+00 -3.0414815778750735e-02 -5.7682239383423473e-01 +5.6280250230578577e-03
5.0000000000000003e-02 +8.5389999311008111e+00 +0.0000000000000000e+00 +4.9999999999936699e-02 -3.0414459101248181e-02 -5.7681382793278235e-01 +5.6282928538322697e-03
1.0000000000000001e-01 +8.5389997244045936e+00 +0.0000000000000000e+00 +9.9999999999493633e-02 -3.0414123521351068e-02 -5.7680565826634844e-01 +5.6285666927869873e-03
1.5000000000000002e-01 +8.5389993799132977e+00 +0.0000000000000000e+00 +1.4999999999829106e-01 -3.0413808951280187e-02 -5.7679788484726180e-01 +5.6288465438906555e-03
2.0000000000000001e-01 +8.5389988976287814e+00 +0.0000000000000000e+00 +1.9999999999594925e-01 -3.0413515303257282e-02 -5.7679050768786932e-01 +5.6291324111122538e-03
2.5000000000000000e-01 +8.5389982775528068e+00 +0.0000000000000000e+00 +2.4999999999208850e-01 -3.0413242489505068e-02 -5.7678352680053568e-01 +5.6294242984210935e-03
2.9999999999999999e-01 +8.5389975196870420e+00 +0.0000000000000000e+00 +2.9999999998632909e-01 -3.0412990422247235e-02 -5.7677694219764419e-01 +5.6297222097868192e-03
3.4999999999999998e-01 +8.5389966240330590e+00 +0.0000000000000000e+00 +3.4999999997829129e-01 -3.0412759013708345e-02 -5.7677075389159616e-01 +5.6300261491793960e-03
3.9999999999999997e-01 +8.5389955905923358e+00 +0.0000000000000000e+00 +3.9999999996759544e-01 -3.0412548176113909e-02 -5.7676496189481108e-01 +5.6303361205691134e-03
4.4999999999999996e-01 +8.5389944193662579e+00 +0.0000000000000000e+00 +4.4999999995386192e-01 -3.0412357821690283e-02 -5.7675956621972735e-01 +5.6306521279265651e-03
4.9999999999999994e-01 +8.5389931103561132e+00 +0.0000000000000000e+00 +4.9999999993671101e-01 -3.0412187862664752e-02 -5.7675456687880133e-01 +5.6309741752226692e-03
5.4999999999999993e-01 +8.5389916635630971e+00 +0.0000000000000000e+00 +5.4999999991576309e-01 -3.0412038211265320e-02 -5.7674996388450794e-01 +5.6313022664286365e-03
5.9999999999999998e-01 +8.5389900789883075e+00 +0.0000000000000000e+00 +5.9999999989063846e-01 -3.0411908779720949e-02 -5.7674575724934141e-01 +5.6316364055159843e-03
6.5000000000000002e-01 +8.5389883566327498e+00 +0.0000000000000000e+00 +6.4999999986095758e-01 -3.0411799480261299e-02 -5.7674194698581349e-01 +5.6319765964565243e-03
7.0000000000000007e-01 +8.5389864964973352e+00 +0.0000000000000000e+00 +6.9999999982634076e-01 -3.0411710225116798e-02 -5.7673853310645573e-01 +5.6323228432223517e-03
7.5000000000000011e-01 +8.5389844985828791e+00 +0.0000000000000000e+00 +7.4999999978640830e-01 -3.0411640926518688e-02 -5.7673551562381786e-01 +5.6326751497858584e-03
8.0000000000000016e-01 +8.5389823628901009e+00 +0.0000000000000000e+00 +7.9999999974078062e-01 -3.0411591496698885e-02 -5.7673289455046850e-01 +5.6330335201197112e-03
8.5000000000000020e-01 +8.5389800894196295e+00 +0.0000000000000000e+00 +8.4999999968907813e-01 -3.0411561847890050e-02 -5.7673066989899591e-01 +5.6333979581968500e-03
9.0000000000000024e-01 +8.5389776781719942e+00 +0.0000000000000000e+00 +8.9999999963092114e-01 -3.0411551892325479e-02 -5.7672884168200622e-01 +5.6337684679904918e-03
9.5000000000000029e-01 +8.5389751291476319e+00 +0.0000000000000000e+00 +9.4999999956593006e-01 -3.0411561542239195e-02 -5.7672740991212568e-01 +5.6341450534741159e-03
1.0000000000000002e+00 +8.5389724423468856e+00 +0.0000000000000000e+00 +9.9999999949372520e-01 -3.0411590709865811e-02 -5.7672637460199938e-01 +5.6345277186214664e-03
1.0500000000000003e+00 +8.5389696177700021e+00 +0.0000000000000000e+00 +1.0499999994139271e+00 -3.0411639307440581e-02 -5.7672573576429131e-01 +5.6349164674065417e-03
1.1000000000000003e+00 +8.5389666554171342e+00 +0.0000000000000000e+00 +1.0999999993261560e+00 -3.0411707247199358e-02 -5.7672549341168533e-01 +5.6353113038035895e-03
1.1500000000000004e+00 +8.5389635552883387e+00 +0.0000000000000000e+00 +1.1499999992300323e+00 -3.0411794441378554e-02 -5.7672564755688394e-01 +5.6357122317871131e-03
1.2000000000000004e+00 +8.5389603173835802e+00 +0.0000000000000000e+00 +1.1999999991251762e+00 -3.0411900802215161e-02 -5.7672619821260984e-01 +5.6361192553318470e-03
1.2500000000000004e+00 +8.5389569417027271e+00 +0.0000000000000000e+00 +1.2499999990112081e+00 -3.0412026241946648e-02 -5.7672714539160452e-01 +5.6365323784127704e-03
1.3000000000000005e+00 +8.5389534282455521e+00 +0.0000000000000000e+00 +1.2999999988877484e+00 -3.0412170672811066e-02 -5.7672848910662944e-01 +5.6369516050050949e-03
1.3500000000000005e+00 +8.5389497770117355e+00 +0.0000000000000000e+00 +1.3499999987544176e+00 -3.0412334007046900e-02 -5.7673022937046603e-01 +5.6373769390842569e-03
1.4000000000000006e+00 +8.5389459880008616e+00 +0.0000000000000000e+00 +1.3999999986108358e+00 -3.0412516156893145e-02 -5.7673236619591450e-01 +5.6378083846259190e-03
1.4500000000000006e+00 +8.5389420612124187e+00 +0.0000000000000000e+00 +1.4499999984566232e+00 -3.0412717034589202e-02 -5.7673489959579582e-01 +5.6382459456059573e-03
1.5000000000000007e+00 +8.5389379966458030e+00 +0.0000000000000000e+00 +1.4999999982914003e+00 -3.0412936552374890e-02 -5.7673782958295017e-01 +5.6386896260004690e-03
1.5500000000000007e+00 +8.5389337943003127e+00 +0.0000000000000000e+00 +1.5499999981147874e+00 -3.0413174622490491e-02 -5.7674115617023791e-01 +5.6391394297857509e-03
1.6000000000000008e+00 +8.5389294541751557e+00 +0.0000000000000000e+00 +1.5999999979264048e+00 -3.0413431157176568e-02 -5.7674487937053931e-01 +5.6395953609383077e-03
1.6500000000000008e+00 +8.5389249762694401e+00 +0.0000000000000000e+00 +1.6499999977258726e+00 -3.0413706068674124e-02 -5.7674899919675449e-01 +5.6400574234348423e-03
1.7000000000000008e+00 +8.5389203605821837e+00 +0.0000000000000000e+00 +1.6999999975128111e+00 -3.0413999269224473e-02 -5.7675351566180466e-01 +5.6405256212522575e-03
1.7500000000000009e+00 +8.5389156071123065e+00 +0.0000000000000000e+00 +1.7499999972868405e+00 -3.0414310671069214e-02 -5.7675842877862948e-01 +5.6409999583676351e-03
1.8000000000000009e+00 +8.5389107158586341e+00 +0.0000000000000000e+00 +1.7999999970475811e+00 -3.0414640186450272e-02 -5.7676373856019048e-01 +5.6414804387582519e-03
1.8500000000000010e+00 +8.5389056868199003e+00 +0.0000000000000000e+00 +1.8499999967946530e+00 -3.0414987727609834e-02 -5.7676944501946870e-01 +5.6419670664015504e-03
1.9000000000000010e+00 +8.5389005199947405e+00 +0.0000000000000000e+00 +1.8999999965276764e+00 -3.0415353206790306e-02 -5.7677554816946608e-01 +5.6424598452751648e-03
1.9500000000000011e+00 +8.5388952153816966e+00 +0.0000000000000000e+00 +1.9499999962462713e+00 -3.0415736536234375e-02 -5.7678204802320432e-01 +5.6429587793568889e-03
2.0000000000000009e+00 +8.5388897729792159e+00 +0.0000000000000000e+00 +1.9999999959500581e+00 -3.0416137628184872e-02 -5.7678894459372654e-01 +5.6434638726246839e-03
2.0500000000000007e+00 +8.5388841927856518e+00 +0.0000000000000000e+00 +2.0499999956386565e+00 -3.0416556406847539e-02 -5.7679623762664034e-01 +5.6439751188437724e-03
2.1000000000000005e+00 +8.5388784747992599e+00 +0.0000000000000000e+00 +2.0999999953116872e+00 -3.0416992844279296e-02 -5.7680392579774808e-01 +5.6444924709279322e-03
2.1500000000000004e+00 +8.5388726190182052e+00 +0.0000000000000000e+00 +2.1499999949687698e+00 -3.0417446924500692e-02 -5.7681200751541317e-01 +5.6450158715782121e-03
2.2000000000000002e+00 +8.5388666254405585e+00 +0.0000000000000000e+00 +2.1999999946095241e+00 -3.0417918631533352e-02 -5.7682048118801366e-01 +5.6455452634958485e-03
2.2500000000000000e+00 +8.5388604940642931e+00 +0.0000000000000000e+00 +2.2499999942335704e+00 -3.0418407949399977e-02 -5.7682934522394302e-01 +5.6460805893822500e-03
2.2999999999999998e+00 +8.5388542248872934e+00 +0.0000000000000000e+00 +2.2999999938405287e+00 -3.0418914862124356e-02 -5.7683859803160953e-01 +5.6466217919389971e-03
2.3499999999999996e+00 +8.5388478179073477e+00 +0.0000000000000000e+00 +2.3499999934300191e+00 -3.0419439353731478e-02 -5.7684823801943608e-01 +5.6471688138678465e-03
2.3999999999999995e+00 +8.5388412731221539e+00 +0.0000000000000000e+00 +2.3999999930016611e+00 -3.0419981408247414e-02 -5.7685826359585979e-01 +5.6477215978707109e-03
2.4499999999999993e+00 +8.5388345905293157e+00 +0.0000000000000000e+00 +2.4499999925550746e+00 -3.0420541009699532e-02 -5.7686867316933177e-01 +5.6482800866496808e-03
2.4999999999999991e+00 +8.5388277701263480e+00 +0.0000000000000000e+00 +2.4999999920898799e+00 -3.0421118142116357e-02 -5.7687946514831734e-01 +5.6488442229069968e-03
2.5499999999999989e+00 +8.5388208119106732e+00 +0.0000000000000000e+00 +2.5499999916056963e+00 -3.0421712789527711e-02 -5.7689063794129536e-01 +5.6494139493450659e-03
2.5999999999999988e+00 +8.5388137158796198e+00 +0.0000000000000000e+00 +2.5999999911021439e+00 -3.0422324935964716e-02 -5.7690218995675824e-01 +5.6499892086664498e-03
2.6499999999999986e+00 +8.5388064820304308e+00 +0.0000000000000000e+00 +2.6499999905788423e+00 -3.0422954565459775e-02 -5.7691411960321104e-01 +5.6505699435738556e-03
2.6999999999999984e+00 +8.5387991103602552e+00 +0.0000000000000000e+00 +2.6999999900354115e+00 -3.0423601662046690e-02 -5.7692642528917248e-01 +5.6511560967701466e-03
2.7499999999999982e+00 +8.5387916008661531e+00 +0.0000000000000000e+00 +2.7499999894714708e+00 -3.0424266209760614e-02 -5.7693910542317317e-01 +5.6517476109583346e-03
2.7999999999999980e+00 +8.5387839535450958e+00 +0.0000000000000000e+00 +2.7999999888866398e+00 -3.0424948192638128e-02 -5.7695215841375702e-01 +5.6523444288415683e-03
2.8499999999999979e+00 +8.5387761683939640e+00 +0.0000000000000000e+00 +2.8499999882805382e+00 -3.0425647594717241e-02 -5.7696558266947950e-01 +5.6529464931231403e-03
2.8999999999999977e+00 +8.5387682454095533e+00 +0.0000000000000000e+00 +2.8999999876527855e+00 -3.0426364400037431e-02 -5.7697937659890852e-01 +5.6535537465064786e-03
2.9499999999999975e+00 +8.5387601845885666e+00 +0.0000000000000000e+00 +2.9499999870030016e+00 -3.0427098592639711e-02 -5.7699353861062330e-01 +5.6541661316951491e-03
2.9999999999999973e+00 +8.5387519859276217e+00 +0.0000000000000000e+00 +2.9999999863308053e+00 -3.0427850156566578e-02 -5.7700806711321473e-01 +5.6547835913928531e-03
3.0499999999999972e+00 +8.5387436494232460e+00 +0.0000000000000000e+00 +3.0499999856358166e+00 -3.0428619075862109e-02 -5.7702296051528512e-01 +5.6554060683034080e-03
3.0999999999999970e+00 +8.5387351750718832e+00 +0.0000000000000000e+00 +3.0999999849176545e+00 -3.0429405334572005e-02 -5.7703821722544801e-01 +5.6560335051307658e-03
3.1499999999999968e+00 +8.5387265628698898e+00 +0.0000000000000000e+00 +3.1499999841759383e+00 -3.0430208916743542e-02 -5.7705383565232693e-01 +5.6566658445790022e-03
3.1999999999999966e+00 +8.5387178128135339e+00 +0.0000000000000000e+00 +3.1999999834102875e+00 -3.0431029806425654e-02 -5.7706981420455639e-01 +5.6573030293523103e-03
3.2499999999999964e+00 +8.5387089248989980e+00 +0.0000000000000000e+00 +3.2499999826203214e+00 -3.0431867987668979e-02 -5.7708615129078145e-01 +5.6579450021549960e-03
3.2999999999999963e+00 +8.5386998991223795e+00 +0.0000000000000000e+00 +3.2999999818056591e+00 -3.0432723444525873e-02 -5.7710284531965717e-01 +5.6585917056914854e-03
3.3499999999999961e+00 +8.5386907354796904e+00 +0.0000000000000000e+00 +3.3499999809659200e+00 -3.0433596161050392e-02 -5.7711989469984815e-01 +5.6592430826663135e-03
3.3999999999999959e+00 +8.5386814339668575e+00 +0.0000000000000000e+00 +3.3999999801007226e+00 -3.0434486121298392e-02 -5.7713729784002898e-01 +5.6598990757841198e-03
3.4499999999999957e+00 +8.5386719945797225e+00 +0.0000000000000000e+00 +3.4499999792096863e+00 -3.0435393309327548e-02 -5.7715505314888305e-01 +5.6605596277496560e-03
3.4999999999999956e+00 +8.5386624173140451e+00 +0.0000000000000000e+00 +3.4999999782924300e+00 -3.0436317709197320e-02 -5.7717315903510313e-01 +5.6612246812677656e-03
3.5499999999999954e+00 +8.5386527021654999e+00 +0.0000000000000000e+00 +3.5499999773485733e+00 -3.0437259304969055e-02 -5.7719161390739160e-01 +5.6618941790433971e-03
3.5999999999999952e+00 +8.5386428491296797e+00 +0.0000000000000000e+00 +3.5999999763777342e+00 -3.0438218080705997e-02 -5.7721041617445801e-01 +5.6625680637815935e-03
3.6499999999999950e+00 +8.5386328582020905e+00 +0.0000000000000000e+00 +3.6499999753795320e+00 -3.0439194020473320e-02 -5.7722956424502170e-01 +5.6632462781874959e-03
3.6999999999999948e+00 +8.5386227293781598e+00 +0.0000000000000000e+00 +3.6999999743535854e+00 -3.0440187108338120e-02 -5.7724905652780900e-01 +5.6639287649663259e-03
3.7499999999999947e+00 +8.5386124626532300e+00 +0.0000000000000000e+00 +3.7499999732995133e+00 -3.0441197328369498e-02 -5.7726889143155569e-01 +5.6646154668233946e-03
3.7999999999999945e+00 +8.5386020580225637e+00 +0.0000000000000000e+00 +3.7999999722169342e+00 -3.0442224664638549e-02 -5.7728906736500329e-01 +5.6653063264641076e-03
3.8499999999999943e+00 +8.5385915154813397e+00 +0.0000000000000000e+00 +3.8499999711054667e+00 -3.0443269101218431e-02 -5.7730958273690258e-01 +5.6660012865939373e-03
3.8999999999999941e+00 +8.5385808350246588e+00 +0.0000000000000000e+00 +3.8999999699647292e+00 -3.0444330622184355e-02 -5.7733043595601041e-01 +5.6667002899184410e-03
3.9499999999999940e+00 +8.5385700166475385e+00 +0.0000000000000000e+00 +3.9499999687943403e+00 -3.0445409211613639e-02 -5.7735162543109098e-01 +5.6674032791432481e-03
3.9999999999999938e+00 +8.5385590603449160e+00 +0.0000000000000000e+00 +3.9999999675939186e+00 -3.0446504853585746e-02 -5.7737314957091512e-01 +5.6681101969740660e-03
4.0499999999999936e+00 +8.5385479661116506e+00 +0.0000000000000000e+00 +4.0499999663630826e+00 -3.0447617516948411e-02 -5.7739500661811938e-01 +5.6688209870095459e-03
4.0999999999999934e+00 +8.5385367339425216e+00 +0.0000000000000000e+00 +4.0999999651014507e+00 -3.0448747109615284e-02 -5.7741719415078141e-01 +5.6695355964198543e-03
4.1499999999999932e+00 +8.5385253638322283e+00 +0.0000000000000000e+00 +4.1499999638086411e+00 -3.0449893524266525e-02 -5.7743970958084334e-01 +5.6702539732679360e-03
4.1999999999999931e+00 +8.5385138557753919e+00 +0.0000000000000000e+00 +4.1999999624842719e+00 -3.0451056653582491e-02 -5.7746255032025362e-01 +5.6709760656166019e-03
4.2499999999999929e+00 +8.5385022097665555e+00 +0.0000000000000000e+00 +4.2499999611279611e+00 -3.0452236390243685e-02 -5.7748571378096569e-01 +5.6717018215285105e-03
4.2999999999999927e+00 +8.5384904258001857e+00 +0.0000000000000000e+00 +4.2999999597393268e+00 -3.0453432626930857e-02 -5.7750919737494011e-01 +5.6724311890661754e-03
4.3499999999999925e+00 +8.5384785038706728e+00 +0.0000000000000000e+00 +4.3499999583179871e+00 -3.0454645256324808e-02 -5.7753299851414153e-01 +5.6731641162919445e-03
4.3999999999999924e+00 +8.5384664439723306e+00 +0.0000000000000000e+00 +4.3999999568635602e+00 -3.0455874171106474e-02 -5.7755711461054016e-01 +5.6739005512680026e-03
4.4499999999999922e+00 +8.5384542460993984e+00 +0.0000000000000000e+00 +4.4499999553756631e+00 -3.0457119263956819e-02 -5.7758154307611087e-01 +5.6746404420563454e-03
4.4999999999999920e+00 +8.5384419102460409e+00 +0.0000000000000000e+00 +4.4999999538539148e+00 -3.0458380427556917e-02 -5.7760628132283398e-01 +5.6753837367187893e-03
4.5499999999999918e+00 +8.5384294364063482e+00 +0.0000000000000000e+00 +4.5499999522979317e+00 -3.0459657554587766e-02 -5.7763132676269280e-01 +5.6761303833169491e-03
4.5999999999999917e+00 +8.5384168245743375e+00 +0.0000000000000000e+00 +4.5999999507073328e+00 -3.0460950537730378e-02 -5.7765667680767618e-01 +5.6768803299122386e-03
4.6499999999999915e+00 +8.5384040747439514e+00 +0.0000000000000000e+00 +4.6499999490817352e+00 -3.0462259269665750e-02 -5.7768232886977655e-01 +5.6776335245658557e-03
4.6999999999999913e+00 +8.5383911869090632e+00 +0.0000000000000000e+00 +4.6999999474207561e+00 -3.0463583643074728e-02 -5.7770828036098987e-01 +5.6783899153387794e-03
4.7499999999999911e+00 +8.5383781610634735e+00 +0.0000000000000000e+00 +4.7499999457240136e+00 -3.0464923550638092e-02 -5.7773452869331554e-01 +5.6791494502917515e-03
4.7999999999999909e+00 +8.5383649972009117e+00 +0.0000000000000000e+00 +4.7999999439911250e+00 -3.0466278885036460e-02 -5.7776107127875687e-01 +5.6799120774852774e-03
4.8499999999999908e+00 +8.5383516953150380e+00 +0.0000000000000000e+00 +4.8499999422217073e+00 -3.0467649538950283e-02 -5.7778790552931913e-01 +5.6806777449796156e-03
4.8999999999999906e+00 +8.5383382553994416e+00 +0.0000000000000000e+00 +4.8999999404153778e+00 -3.0469035405059814e-02 -5.7781502885701153e-01 +5.6814464008347635e-03
4.9499999999999904e+00 +8.5383246774476422e+00 +0.0000000000000000e+00 +4.9499999385717537e+00 -3.0470436376045081e-02 -5.7784243867384510e-01 +5.6822179931104539e-03
4.9999999999999902e+00 +8.5383109614530923e+00 +0.0000000000000000e+00 +4.9999999366904531e+00 -3.0471852344585798e-02 -5.7787013239183338e-01 +5.6829924698661412e-03
5.0499999999999901e+00 +8.5382971074091767e+00 +0.0000000000000000e+00 +5.0499999347710922e+00 -3.0473283203361470e-02 -5.7789810742299208e-01 +5.6837697791610031e-03
5.0999999999999899e+00 +8.5382831153092127e+00 +0.0000000000000000e+00 +5.0999999328132875e+00 -3.0474728845051199e-02 -5.7792636117933904e-01 +5.6845498690539223e-03
5.1499999999999897e+00 +8.5382689851464502e+00 +0.0000000000000000e+00 +5.1499999308166569e+00 -3.0476189162333807e-02 -5.7795489107289322e-01 +5.6853326876034754e-03
5.1999999999999895e+00 +8.5382547169140732e+00 +0.0000000000000000e+00 +5.1999999287808167e+00 -3.0477664047887671e-02 -5.7798369451567533e-01 +5.6861181828679365e-03
5.2499999999999893e+00 +8.5382403106052021e+00 +0.0000000000000000e+00 +5.2499999267053834e+00 -3.0479153394390793e-02 -5.7801276891970765e-01 +5.6869063029052532e-03
5.2999999999999892e+00 +8.5382257662128911e+00 +0.0000000000000000e+00 +5.2999999245899740e+00 -3.0480657094520712e-02 -5.7804211169701214e-01 +5.6876969957730507e-03
5.3499999999999890e+00 +8.5382110837301308e+00 +0.0000000000000000e+00 +5.3499999224342050e+00 -3.0482175040954514e-02 -5.7807172025961295e-01 +5.6884902095286193e-03
5.3999999999999888e+00 +8.5381962631498460e+00 +0.0000000000000000e+00 +5.3999999202376934e+00 -3.0483707126368765e-02 -5.7810159201953371e-01 +5.6892858922289024e-03
5.4499999999999886e+00 +8.5381813044649029e+00 +0.0000000000000000e+00 +5.4499999180000547e+00 -3.0485253243439512e-02 -5.7813172438879901e-01 +5.6900839919304834e-03
5.4999999999999885e+00 +8.5381662076681035e+00 +0.0000000000000000e+00 +5.4999999157209061e+00 -3.0486813284842217e-02 -5.7816211477943302e-01 +5.6908844566895952e-03
5.5499999999999883e+00 +8.5381509727521863e+00 +0.0000000000000000e+00 +5.5499999133998639e+00 -3.0488387143251770e-02 -5.7819276060345914e-01 +5.6916872345620885e-03
5.5999999999999881e+00 +8.5381355997098307e+00 +0.0000000000000000e+00 +5.5999999110365435e+00 -3.0489974711342432e-02 -5.7822365927290198e-01 +5.6924922736034398e-03
5.6499999999999879e+00 +8.5381200885336561e+00 +0.0000000000000000e+00 +5.6499999086305621e+00 -3.0491575881787837e-02 -5.7825480819978370e-01 +5.6932995218687381e-03
5.6999999999999877e+00 +8.5381044392162213e+00 +0.0000000000000000e+00 +5.6999999061815352e+00 -3.0493190547260879e-02 -5.7828620479612658e-01 +5.6941089274126708e-03
5.7499999999999876e+00 +8.5380886517500265e+00 +0.0000000000000000e+00 +5.7499999036890781e+00 -3.0494818600433776e-02 -5.7831784647395157e-01 +5.6949204382895227e-03
5.7999999999999874e+00 +8.5380727261275116e+00 +0.0000000000000000e+00 +5.7999999011528072e+00 -3.0496459933977992e-02 -5.7834973064527795e-01 +5.6957340025531548e-03
5.8499999999999872e+00 +8.5380566623410594e+00 +0.0000000000000000e+00 +5.8499998985723387e+00 -3.0498114440564231e-02 -5.7838185472212356e-01 +5.6965495682570182e-03
5.8999999999999870e+00 +8.5380404603829980e+00 +0.0000000000000000e+00 +5.8999998959472881e+00 -3.0499782012862398e-02 -5.7841421611650479e-01 +5.6973670834541195e-03
