# multipoles
# s[mm] polynom_b[n=0][T/m^n] polynom_b[n=1][T/m^n] polynom_b[n=2][T/m^n] polynom_b[n=3][T/m^n] polynom_b[n=4][T/m^n] polynom_b[n=5][T/m^n] polynom_b[n=6][T/m^n] 
+0.0000000000000000e+00 -5.7960935984027906e-01 +7.5595012500662628e+00 +5.7229023327772026e+00 +1.2229914002672116e+01 +3.1069253174172200e+03 -5.3125092905589414e+05 -3.4214754683129946e+06 
-5.0000000000000003e-02 -5.7960964424173600e-01 +7.5594612236961556e+00 +5.7202455670026895e+00 +1.2770156560163111e+01 +3.1489222097893912e+03 -5.3507427557453921e+05 -3.5271543836640720e+06 
-1.0000000000000001e-01 -5.7961033658865468e-01 +7.5594427313563211e+00 +5.7174109575484469e+00 +1.3315311222371122e+01 +3.1866806059960304e+03 -5.3887652552390669e+05 -3.6163481737927208e+06 
-1.5000000000000002e-01 -5.7961143613149257e-01 +7.5594457783759212e+00 +5.7143952703840064e+00 +1.3863935924703224e+01 +3.2202869750688260e+03 -5.4264904465250077e+05 -3.6895081286716722e+06 
-2.0000000000000001e-01 -5.7961294212070258e-01 +7.5594703700817272e+00 +5.7111952673790691e+00 +1.4414588722831349e+01 +3.2498278934438431e+03 -5.4638319966730534e+05 -3.7470862498623766e+06 
-2.5000000000000000e-01 -5.7961485380677169e-01 +7.5595165117988721e+00 +5.7078077128230635e+00 +1.4965827762399682e+01 +3.2753898774766540e+03 -5.5007035798165377e+05 -3.7895341556663411e+06 
-2.9999999999999999e-01 -5.7961717044019168e-01 +7.5595842088562284e+00 +5.7042293688660042e+00 +1.5516211076871876e+01 +3.2970594970761908e+03 -5.5370188611487136e+05 -3.8173038120559347e+06 
-3.4999999999999998e-01 -5.7961989127148916e-01 +7.5596734665800547e+00 +5.7004570004664030e+00 +1.6064296801033102e+01 +3.3149232477979890e+03 -5.5726915128547221e+05 -3.8308466894990639e+06 
-3.9999999999999997e-01 -5.7962301555120510e-01 +7.5597842903012742e+00 +5.6964873718819451e+00 +1.6608642917113261e+01 +3.3290676443270286e+03 -5.6076351947487798e+05 -3.8306143906892892e+06 
-4.4999999999999996e-01 -5.7962654252988299e-01 +7.5599166853474031e+00 +5.6923172445270911e+00 +1.7147807571020000e+01 +3.3395792771661545e+03 -5.6417635798798420e+05 -3.8170590275571132e+06 
-4.9999999999999994e-01 -5.7963047145811519e-01 +7.5600706570454106e+00 +5.6879433852236856e+00 +1.7680348948174892e+01 +3.3465445915468240e+03 -5.6749903440283041e+05 -3.7906317346852529e+06 
-5.4999999999999993e-01 -5.7963480158646985e-01 +7.5602462107241752e+00 +5.6833625532945709e+00 +1.8204825178522608e+01 +3.3500502368240700e+03 -5.7072291581009468e+05 -3.7517850353956511e+06 
-5.9999999999999998e-01 -5.7963953216558806e-01 +7.5604433517157865e+00 +5.6785715173993543e+00 +1.8719794285013649e+01 +3.3501826110353641e+03 -5.7383936839190603e+05 -3.7009697572013927e+06 
-6.5000000000000002e-01 -5.7964466244608159e-01 +7.5606620853478601e+00 +5.6735670386542330e+00 +1.9223814499714010e+01 +3.3470283106404613e+03 -5.7683976003289875e+05 -3.6386380519029782e+06 
-7.0000000000000007e-01 -5.7965019167861354e-01 +7.5609024169514392e+00 +5.6683458826231075e+00 +1.9715443928566764e+01 +3.3406738238319726e+03 -5.7971545752601768e+05 -3.5652413831736785e+06 
-7.5000000000000011e-01 -5.7965611911383708e-01 +7.5611643518560987e+00 +5.6629048113039362e+00 +2.0193240771428624e+01 +3.3312057224144273e+03 -5.8245782844417996e+05 -3.4812317348289411e+06 
-8.0000000000000016e-01 -5.7966244400245293e-01 +7.5614478953923596e+00 +5.6572405911700177e+00 +2.0655763199069327e+01 +3.3187104665828497e+03 -5.8505824003572599e+05 -3.3870603732974883e+06 
-8.5000000000000020e-01 -5.7966916559516612e-01 +7.5617530528897818e+00 +5.6513499859004881e+00 +2.1101569445898857e+01 +3.3032745946890382e+03 -5.8750806006855168e+05 -3.2831791031700857e+06 
-9.0000000000000024e-01 -5.7967628314268871e-01 +7.5620798296841540e+00 +5.6452297582445690e+00 +2.1529217522128828e+01 +3.2849846615806564e+03 -5.8979865445548610e+05 -3.1700398104745713e+06 
-9.5000000000000029e-01 -5.7968379589578212e-01 +7.5624282311036284e+00 +5.6388766754640045e+00 +2.1937265771332843e+01 +3.2639271115529400e+03 -5.9192139182825573e+05 -3.0480936782957800e+06 
-1.0000000000000002e+00 -5.7969170310520202e-01 +7.5627982624808263e+00 +5.6322875010210138e+00 +2.2324272357558176e+01 +3.2401884872664145e+03 -5.9386763923371129e+05 -2.9177925381009150e+06 
-1.0500000000000003e+00 -5.7970000402172572e-01 +7.5631899291503428e+00 +5.6254589990235280e+00 +2.2688795415344785e+01 +3.2138553162401818e+03 -5.9562876356713066e+05 -2.7795881305627436e+06 
-1.1000000000000003e+00 -5.7970869789615576e-01 +7.5636032364425168e+00 +5.6183879351451083e+00 +2.3029393257228694e+01 +3.1850140815571017e+03 -5.9719613309015194e+05 -2.6339318885820326e+06 
-1.1500000000000004e+00 -5.7971778397931628e-01 +7.5640381896910887e+00 +5.6110710748366595e+00 +2.3344624077647264e+01 +3.1537512825421672e+03 -5.9856111506203189e+05 -2.4812753938242062e+06 
-1.2000000000000004e+00 -5.7972726152204246e-01 +7.5644947942323286e+00 +5.6035051831888731e+00 +2.3633046001290566e+01 +3.1201534208590124e+03 -5.9971507619190961e+05 -2.3220702187989079e+06 
-1.2500000000000004e+00 -5.7973712977519187e-01 +7.5649730553980312e+00 +5.5956870259453639e+00 +2.3893217335952631e+01 +3.0843069821593622e+03 -6.0064938457302633e+05 -2.1567678320259685e+06 
-1.3000000000000005e+00 -5.7974738798963810e-01 +7.5654729785231369e+00 +5.5876133679849600e+00 +2.4123696305395420e+01 +3.0462984858412510e+03 -6.0135540769154124e+05 -1.9858199753279851e+06 
-1.3500000000000005e+00 -5.7975803541628479e-01 +7.5659945689428936e+00 +5.5792809766927505e+00 +2.4323041133564089e+01 +3.0062143777831316e+03 -6.0182451295828808e+05 -1.8096778667063254e+06 
-1.4000000000000006e+00 -5.7976907130603450e-01 +7.5665378319926520e+00 +5.5706866162247106e+00 +2.4489810061610680e+01 +2.9641411935663818e+03 -6.0204806791014492e+05 -1.6287933450152501e+06 
-1.4500000000000006e+00 -5.7978049490982253e-01 +7.5671027730096121e+00 +5.5618270533871081e+00 +2.4622561271210486e+01 +2.9201653999734140e+03 -6.0201743954700977e+05 -1.4436177956957705e+06 
-1.5000000000000007e+00 -5.7979230547861649e-01 +7.5676893973280972e+00 +5.5526990571260537e+00 +2.4719853089476935e+01 +2.8743734102210656e+03 -6.0172399606662209e+05 -1.2546022564330320e+06 
-1.5500000000000007e+00 -5.7980450226336366e-01 +7.5682977102864442e+00 +5.5432993900120646e+00 +2.4780243703168669e+01 +2.8268518095790064e+03 -6.0115910449655121e+05 -1.0621989301340424e+06 
-1.6000000000000008e+00 -5.7981708451507286e-01 +7.5689277172215350e+00 +5.5336248226396858e+00 +2.4802291367887094e+01 +2.7776869650115646e+03 -6.0031413236275967e+05 -8.6685853922141728e+05 
-1.6500000000000008e+00 -5.7983005148473632e-01 +7.5695794234715512e+00 +5.5236721186048987e+00 +2.4784554322961650e+01 +2.7269654447336115e+03 -5.9918044710447534e+05 -6.6903321198547061e+05 
-1.7000000000000008e+00 -5.7984340242340382e-01 +7.5702528343724360e+00 +5.5134380495273421e+00 +2.4725590905912615e+01 +2.6747735930227063e+03 -5.9774941687628289e+05 -4.6917353888295137e+05 
-1.7500000000000009e+00 -5.7985713658209992e-01 +7.5709479552669467e+00 +5.5029193789659203e+00 +2.4623959206750524e+01 +2.6211979770337730e+03 -5.9601240782027051e+05 -2.6773163374030252e+05 
-1.8000000000000009e+00 -5.7987125321190680e-01 +7.5716647914925090e+00 +5.4921128779345185e+00 +2.4478217546892186e+01 +2.5663249652702880e+03 -5.9396078793475172e+05 -6.5158283570123982e+04 
-1.8500000000000010e+00 -5.7988575156390298e-01 +7.5724033483869508e+00 +5.4810153129272559e+00 +2.4286924257856054e+01 +2.5102410545861453e+03 -5.9158592530071083e+05 +1.3809483621430793e+05 
-1.9000000000000010e+00 -5.7990063088920030e-01 +7.5731636312944142e+00 +5.4696234539600184e+00 +2.4048637436858755e+01 +2.4530326439755254e+03 -5.8887918606222398e+05 +3.4157672098458133e+05 
-1.9500000000000011e+00 -5.7991589043891101e-01 +7.5739456455527190e+00 +5.4579340679182291e+00 +2.3761915448934651e+01 +2.3947862213095336e+03 -5.8583193849816150e+05 +5.4483574489804881e+05 
-2.0000000000000009e+00 -5.7993152946419124e-01 +7.5747493965042274e+00 +5.4459439261087415e+00 +2.3425316503547180e+01 +2.3355881581843464e+03 -5.8243554961929040e+05 +7.4742106191464898e+05 
-2.0500000000000007e+00 -5.7994754695038320e-01 +7.5755748542084644e+00 +5.4336501129457222e+00 +2.3037897282824499e+01 +2.2755095812564264e+03 -5.7868446550092718e+05 +9.4903805725930107e+05 
-2.1000000000000005e+00 -5.7996394081942071e-01 +7.5764218401422099e+00 +5.4210519016232359e+00 +2.2600731953593083e+01 +2.2145480668266778e+03 -5.7458574265380914e+05 +1.1500944660710997e+06 
-2.1500000000000004e+00 -5.7998070872731733e-01 +7.5772901367634535e+00 +5.4081493498927715e+00 +2.2115404366648121e+01 +2.1526798658718189e+03 -5.7014966439877159e+05 +1.3511918147528858e+06 
-2.2000000000000002e+00 -5.7999784833009493e-01 +7.5781795265317164e+00 +5.3949425147716790e+00 +2.1583498325265708e+01 +2.0898812497422027e+03 -5.6538651368591178e+05 +1.5529314898877656e+06 
-2.2500000000000000e+00 -5.8001535728379827e-01 +7.5790897919054609e+00 +5.3814314547039652e+00 +2.1006597693291049e+01 +2.0261284540844297e+03 -5.6030657397705526e+05 +1.7559151079682440e+06 
-2.2999999999999998e+00 -5.8003323324449374e-01 +7.5800207153450776e+00 +5.3676162299134269e+00 +2.0386286286929863e+01 +1.9613976605430332e+03 -5.5492012841295858e+05 +1.9607446769414288e+06 
-2.3499999999999996e+00 -5.8005147386822442e-01 +7.5809720793107447e+00 +5.3534968941146204e+00 +1.9724147953632276e+01 +1.8956652336807124e+03 -5.4923746041920339e+05 +2.1680209341331315e+06 
-2.3999999999999995e+00 -5.8007007681108491e-01 +7.5819436662633031e+00 +5.3390735082755336e+00 +1.9021766531695949e+01 +1.8289073362810893e+03 -5.4326885337221785e+05 +2.3783460066222083e+06 
-2.4499999999999993e+00 -5.8008903972915782e-01 +7.5829352586636727e+00 +5.3243461292188581e+00 +1.8280725877538398e+01 +1.7611002412735911e+03 -5.3702459082289145e+05 +2.5923212822130807e+06 
-2.4999999999999991e+00 -5.8010836027854673e-01 +7.5839466389763883e+00 +5.3093148147948099e+00 +1.7502609745204406e+01 +1.6922201986522668e+03 -5.3051495563162898e+05 +2.8105482870086571e+06 
-2.5499999999999989e+00 -5.8012803611538000e-01 +7.5849775896622065e+00 +5.2939796257424039e+00 +1.6689002029405245e+01 +1.6222433769768732e+03 -5.2375023170070053e+05 +3.0336291069674580e+06 
-2.5999999999999988e+00 -5.8014806489575599e-01 +7.5860278931840979e+00 +5.2783406153511532e+00 +1.5841486589063422e+01 +1.5511461455879646e+03 -5.1674070282226201e+05 +3.2621644737170781e+06 
-2.6499999999999986e+00 -5.8016844427582692e-01 +7.5870973320090229e+00 +5.2623978447194020e+00 +1.4961647132567972e+01 +1.4789046596007233e+03 -5.0949665156707936e+05 +3.4967565786894355e+06 
-2.6999999999999984e+00 -5.8018917191173247e-01 +7.5881856885991770e+00 +5.2461513707075387e+00 +1.4051067588353488e+01 +1.4054951900888257e+03 -5.0202836237427604e+05 +3.7380068240773398e+06 
-2.7499999999999982e+00 -5.8021024545963096e-01 +7.5892927454199937e+00 +5.2296012514774217e+00 +1.3111331768625188e+01 +1.3308939710711736e+03 -4.9434611875920952e+05 +3.9865168706798139e+06 
-2.7999999999999980e+00 -5.8023166257568115e-01 +7.5904182849384005e+00 +5.2127475438352828e+00 +1.2144023456062776e+01 +1.2550772719139818e+03 -4.8646020409311354e+05 +4.2428881426839633e+06 
-2.8499999999999979e+00 -5.8025342091606325e-01 +7.5915620896212328e+00 +5.1955903062384792e+00 +1.1150726462469930e+01 +1.1780213182195416e+03 -4.7838090205690538e+05 +4.5077223572289655e+06 
-2.8999999999999977e+00 -5.8027551813695233e-01 +7.5927239419353336e+00 +5.1781295951182589e+00 +1.0133024617697114e+01 +1.0997023835440450e+03 -4.7011849653575767e+05 +4.7816209328095475e+06 
-2.9499999999999975e+00 -5.8029795189455113e-01 +7.5939036243497000e+00 +5.1603654694438363e+00 +9.0925016848046347e+00 +1.0200966780359259e+03 -4.6168327091974061e+05 +5.0651856983636320e+06 
-2.9999999999999973e+00 -5.8032071984505418e-01 +7.5951009193315890e+00 +5.1422979857088036e+00 +8.0307415365969099e+00 +9.3918047318996639e+02 -4.5308550964774867e+05 +5.3590180866762996e+06 
-3.0499999999999972e+00 -5.8034381964466963e-01 +7.5963156093523319e+00 +5.1239272011116848e+00 +6.9493278843015958e+00 +8.5693001802378490e+02 -4.4433549581862765e+05 +5.6637196981860157e+06 
-3.0999999999999970e+00 -5.8036724894961189e-01 +7.5975474768792957e+00 +5.1052531724106922e+00 +5.8498446417730507e+00 +7.7332157663809539e+02 -4.3544351436044608e+05 +5.9798920149289723e+06 
-3.1499999999999968e+00 -5.8039100541610411e-01 +7.5987963043860054e+00 +5.0862759562907787e+00 +4.7338754864171397e+00 +6.8833141096218299e+02 -4.2641984829998290e+05 +6.3081365538636902e+06 
-3.1999999999999966e+00 -5.8041508670038477e-01 +7.6000618743433357e+00 +5.0669956110707668e+00 +3.6030042267348912e+00 +6.0193573562017400e+02 -4.1727478182974557e+05 +6.6490551611330817e+06 
-3.2499999999999964e+00 -5.8043949045869325e-01 +7.6013439692215705e+00 +5.0474121936870580e+00 +2.4588147265226952e+00 +5.1411080115786012e+02 -4.0801859970409772e+05 +7.0032494458641410e+06 
-3.2999999999999963e+00 -5.8046421434725570e-01 +7.6026423714967404e+00 +5.0275257573208005e+00 +1.3028906342297004e+00 +4.2483295944660119e+02 -3.9866158499565790e+05 +7.3713203330203528e+06 
-3.3499999999999961e+00 -5.8048925602233836e-01 +7.6039568636407555e+00 +5.0073363614920527e+00 +1.3681579298412022e-01 +3.3407838359165595e+02 -3.8921402248550608e+05 +7.7538699847468706e+06 
-3.3999999999999959e+00 -5.8051461314020258e-01 +7.6052872281298161e+00 +4.9868440627819739e+00 -1.0378261067823682e+00 +2.4182333149253154e+02 -3.7968619577556982e+05 +8.1514999688058747e+06 
-3.4499999999999957e+00 -5.8054028335709029e-01 +7.6066332474363572e+00 +4.9660489137911430e+00 -2.2194511931535721e+00 +1.4804415930059059e+02 -3.7008839009484922e+05 +8.5648112262178473e+06 
-3.4999999999999956e+00 -5.8056626432928460e-01 +7.6079947040386724e+00 +4.9449509730684804e+00 -3.4064758125686967e+00 +5.2717064547862279e+01 -3.6043088895627193e+05 +8.9944057593026068e+06 
-3.5499999999999954e+00 -5.8059255371305696e-01 +7.6093713804128083e+00 +4.9235502962854101e+00 -4.5973161865773760e+00 -4.4181683632513142e+01 -3.5072397704849299e+05 +9.4408851107374877e+06 
-3.5999999999999952e+00 -5.8061914916467894e-01 +7.6107630590371507e+00 +4.9018469375441898e+00 -5.7903886227195978e+00 -1.4267577400865153e+02 -3.4097793841088796e+05 +9.9048505433574934e+06 
-3.6499999999999950e+00 -5.8064604834043398e-01 +7.6121695223882737e+00 +4.8798409524912207e+00 -6.9841093167950214e+00 -2.4278893997500779e+02 -3.3120305815812416e+05 +1.0386903628551008e+07 
-3.6999999999999948e+00 -5.8067324889660787e-01 +7.6135905529456442e+00 +4.8575323964082795e+00 -8.1768945578352330e+00 -3.4454491200221906e+02 -3.2140962076850730e+05 +1.0887645945892196e+07 
-3.7499999999999947e+00 -5.8070074848949138e-01 +7.6150259331913270e+00 +4.8349213240308426e+00 -9.3671607329614943e+00 -4.4796740367713141e+02 -3.1160790996275848e+05 +1.1407678955302373e+07 
-3.7999999999999945e+00 -5.8072854477538138e-01 +7.6164754456032071e+00 +4.8120077903314407e+00 -1.0553324001639428e+01 -5.5308013535826660e+02 -3.0180821158978587e+05 +1.1947604159579115e+07 
-3.8499999999999943e+00 -5.8075663541057065e-01 +7.6179388726654009e+00 +4.7887918495318686e+00 -1.1733800787927146e+01 -6.5990682177354904e+02 -2.9202080930863036e+05 +1.2508023084500376e+07 
-3.8999999999999941e+00 -5.8078501805134375e-01 +7.6194159968571684e+00 +4.7652735529064500e+00 -1.2907007274962268e+01 -7.6847109179433221e+02 -2.8225598895893636e+05 +1.3089536647965301e+07 
-3.9499999999999940e+00 -5.8081369035402930e-01 +7.6209066006642283e+00 +4.7414529588738734e+00 -1.4071359880571659e+01 -8.7879677107901466e+02 -2.7252403460320592e+05 +1.3692747115366545e+07 
-3.9999999999999938e+00 -5.8084264997491275e-01 +7.6224104665716483e+00 +4.7173301180144991e+00 -1.5225274971292146e+01 -9.9090748138752429e+02 -2.6283523081866704e+05 +1.4318255406128574e+07 
-4.0499999999999936e+00 -5.8087189446217047e-01 +7.6239273747677121e+00 +4.6929046702480068e+00 -1.6367166955328756e+01 -1.1047711274332303e+03 -2.5320035045008594e+05 +1.4966154598743195e+07 
-4.0999999999999934e+00 -5.8090142093063690e-01 +7.6254570930291603e+00 +4.6681745816279019e+00 -1.7495636808773739e+01 -1.2201265421338671e+03 -2.4363055299485262e+05 +1.5634486756997140e+07 
-4.1499999999999932e+00 -5.8093122638658523e-01 +7.6269993852138196e+00 +4.6431373998245054e+00 -1.8609380835938339e+01 -1.3366530133046099e+03 -2.3413671633898592e+05 +1.6320770537081989e+07 
-4.1999999999999931e+00 -5.8096130783629230e-01 +7.6285540151831119e+00 +4.6177906733741105e+00 -1.9707095524838060e+01 -1.4540298598487802e+03 -2.2472971680768905e+05 +1.7022524851674147e+07 
-4.2499999999999929e+00 -5.8099166228604926e-01 +7.6301207467977319e+00 +4.5921319531064588e+00 -2.0787477341200319e+01 -1.5719364619166111e+03 -2.1542043088070810e+05 +1.7737269025153171e+07 
-4.2999999999999927e+00 -5.8102228674212342e-01 +7.6316993439199647e+00 +4.5661587850750518e+00 -2.1849222826350989e+01 -1.6900520706069278e+03 -2.0621973435198667e+05 +1.8462521515084907e+07 
-4.3499999999999925e+00 -5.8105317821078839e-01 +7.6332895704118000e+00 +4.5398687165216414e+00 -2.2891028529500272e+01 -1.8080559741455888e+03 -1.9713850286820962e+05 +1.9195801051879972e+07 
-4.3999999999999924e+00 -5.8108433369832291e-01 +7.6348911901337724e+00 +4.5132592952113466e+00 -2.3911590965264864e+01 -1.9256274720223141e+03 -1.8818761225448549e+05 +1.9934626434468593e+07 
-4.4499999999999922e+00 -5.8111575021099315e-01 +7.6365039669468926e+00 +4.4863280671427495e+00 -2.4909606683429342e+01 -2.0424458225637609e+03 -1.7937793797002287e+05 +2.0676516211291678e+07 
-4.4999999999999920e+00 -5.8114742475507120e-01 +7.6381276647156060e+00 +4.4590725789430223e+00 -2.5883772402182387e+01 -2.1581903026817722e+03 -1.7072035397553409e+05 +2.1418989069444481e+07 
-4.5499999999999918e+00 -5.8117935433682621e-01 +7.6397620472992118e+00 +4.4314903766824729e+00 -2.6832784633607613e+01 -2.2725401711321410e+03 -1.6222573590157949e+05 +2.2159563562446836e+07 
-4.5999999999999917e+00 -5.8121153596251618e-01 +7.6414068785620755e+00 +4.4035790049488801e+00 -2.7755340141854294e+01 -2.3851746552432664e+03 -1.5390495712083537e+05 +2.2895758070046466e+07 
-4.6499999999999915e+00 -5.8124396663840316e-01 +7.6430619223663019e+00 +4.3753360086891089e+00 -2.8650135603177858e+01 -2.4957729873949188e+03 -1.4576889171980027e+05 +2.3625090991308197e+07 
-4.6999999999999913e+00 -5.8127664337073492e-01 +7.6447269425757236e+00 +4.3467589312081296e+00 -2.9515867802512851e+01 -2.6040143656963623e+03 -1.3782841272164832e+05 +2.4345080537896473e+07 
-4.7499999999999911e+00 -5.8130956316577298e-01 +7.6464017030502101e+00 +4.3178453176206997e+00 -3.0351233398216298e+01 -2.7095780292020549e+03 -1.3009439405416683e+05 +2.5053245170501892e+07 
-4.7999999999999909e+00 -5.8134272302976320e-01 +7.6480859676555459e+00 +4.2885927113199296e+00 -3.1154929292056512e+01 -2.8121431812727683e+03 -1.2257770764170536e+05 +2.5747103155590340e+07 
-4.8499999999999908e+00 -5.8137611996894867e-01 +7.6497795002539322e+00 +4.2589986550158638e+00 -3.1925652288364120e+01 -2.9113890027939278e+03 -1.1528922601016733e+05 +2.6424172597136945e+07 
-4.8999999999999906e+00 -5.8140975098955350e-01 +7.6514820647055126e+00 +4.2290606890693025e+00 -3.2662099131656504e+01 -3.0069946204265088e+03 -1.0823982208420392e+05 +2.7081971272252653e+07 
-4.9499999999999904e+00 -5.8144361309782200e-01 +7.6531934248774700e+00 +4.1987763572390593e+00 -3.3362966888334242e+01 -3.0986392462076906e+03 -1.0144036600943790e+05 +2.7718017514318235e+07 
-4.9999999999999902e+00 -5.8147770329997639e-01 +7.6549133446306845e+00 +4.1681432001302756e+00 -3.4026952393250880e+01 -3.1860020144959672e+03 -9.4901729729773462e+04 +2.8329829168177567e+07 
-5.0499999999999901e+00 -5.8151201860222868e-01 +7.6566415878294078e+00 +4.1371587571847144e+00 -3.4652752654684043e+01 -3.2687620284045629e+03 -8.8634783637294371e+04 +2.8914923869027488e+07 
