# field on trajectory
# s[mm] rx[mm] ry[mm] rz[mm] bx[T] by[T] bz[T]
0.0000000000000000e+00 +8.5270000000000206e+00 +0.0000000000000000e+00 +0.0000000000000000e+00 -3.0635301713099646e-02 -5.7850264838996568e-01 +5.7622377204532369e-03
5.0000000000000003e-02 +8.5269999309457507e+00 +0.0000000000000000e+00 +4.9999999999936401e-02 -3.0635371026054951e-02 -5.7850295789331674e-01 +5.7630183395773393e-03
1.0000000000000001e-01 +8.5269997237846802e+00 +0.0000000000000000e+00 +9.9999999999491399e-02 -3.0635461191777277e-02 -5.7850365521200009e-01 +5.7638041107611476e-03
1.4999999999999999e-01 +8.5269993785186706e+00 +0.0000000000000000e+00 +1.4999999999828301e-01 -3.0635572168841510e-02 -5.7850473965121030e-01 +5.7645949634901892e-03
2.0000000000000001e-01 +8.5269988951477007e+00 +0.0000000000000000e+00 +1.9999999999593099e-01 -3.0635703915824406e-02 -5.7850621051617157e-01 +5.7653908272505003e-03
2.5000000000000000e-01 +8.5269982736681396e+00 +0.0000000000000000e+00 +2.4999999999205300e-01 -3.0635856391305158e-02 -5.7850806711215186e-01 +5.7661916315287168e-03
2.9999999999999999e-01 +8.5269975140799907e+00 +0.0000000000000000e+00 +2.9999999998626697e-01 -3.0636029553862552e-02 -5.7851030874440856e-01 +5.7669973058115430e-03
3.4999999999999998e-01 +8.5269966163905302e+00 +0.0000000000000000e+00 +3.4999999997819298e-01 -3.0636223362073622e-02 -5.7851293471816090e-01 +5.7678077795854498e-03
4.0000000000000002e-01 +8.5269955805888493e+00 +0.0000000000000000e+00 +3.9999999996744801e-01 -3.0636437774523302e-02 -5.7851594433878095e-01 +5.7686229823385969e-03
4.5000000000000001e-01 +8.5269944066858407e+00 +0.0000000000000000e+00 +4.4999999995365197e-01 -3.0636672749789026e-02 -5.7851933691149282e-01 +5.7694428435577901e-03
5.0000000000000000e-01 +8.5269930946742498e+00 +0.0000000000000000e+00 +4.9999999993642202e-01 -3.0636928246456082e-02 -5.7852311174167381e-01 +5.7702672927315039e-03
5.5000000000000004e-01 +8.5269916445577092e+00 +0.0000000000000000e+00 +5.4999999991537796e-01 -3.0637204223106392e-02 -5.7852726813463462e-01 +5.7710962593476613e-03
5.9999999999999998e-01 +8.5269900563289394e+00 +0.0000000000000000e+00 +5.9999999989013697e-01 -3.0637500638326858e-02 -5.7853180539578597e-01 +5.7719296728952910e-03
6.5000000000000002e-01 +8.5269883299988596e+00 +0.0000000000000000e+00 +6.4999999986031898e-01 -3.0637817450698102e-02 -5.7853672283041546e-01 +5.7727674628622839e-03
6.9999999999999996e-01 +8.5269864655601904e+00 +0.0000000000000000e+00 +6.9999999982554195e-01 -3.0638154618808401e-02 -5.7854201974396446e-01 +5.7736095587381693e-03
7.5000000000000000e-01 +8.5269844630165608e+00 +0.0000000000000000e+00 +7.4999999978542398e-01 -3.0638512101242573e-02 -5.7854769544180851e-01 +5.7744558900118832e-03
8.0000000000000004e-01 +8.5269823223679904e+00 +0.0000000000000000e+00 +7.9999999973958402e-01 -3.0638889856587369e-02 -5.7855374922936531e-01 +5.7753063861728559e-03
8.4999999999999998e-01 +8.5269800436108198e+00 +0.0000000000000000e+00 +8.4999999968764095e-01 -3.0639287843431548e-02 -5.7856018041209678e-01 +5.7761609767110192e-03
9.0000000000000002e-01 +8.5269776267450705e+00 +0.0000000000000000e+00 +8.9999999962921295e-01 -3.0639706020363002e-02 -5.7856698829545283e-01 +5.7770195911162319e-03
9.4999999999999996e-01 +8.5269750717743609e+00 +0.0000000000000000e+00 +9.4999999956391801e-01 -3.0640144345968651e-02 -5.7857417218486995e-01 +5.7778821588782576e-03
1.0000000000000000e+00 +8.5269723786986997e+00 +0.0000000000000000e+00 +9.9999999949137597e-01 -3.0640602778837314e-02 -5.7858173138583024e-01 +5.7787486094873315e-03
1.0500000000000000e+00 +8.5269695475144491e+00 +0.0000000000000000e+00 +1.0499999994111999e+00 -3.0641081277559597e-02 -5.7858966520385646e-01 +5.7796188724341330e-03
1.1000000000000001e+00 +8.5269665782288904e+00 +0.0000000000000000e+00 +1.0999999993230201e+00 -3.0641579800722282e-02 -5.7859797294440551e-01 +5.7804928772086745e-03
1.1499999999999999e+00 +8.5269634708311095e+00 +0.0000000000000000e+00 +1.1499999992264500e+00 -3.0642098306919455e-02 -5.7860665391308674e-01 +5.7813705533025046e-03
1.2000000000000000e+00 +8.5269602253283701e+00 +0.0000000000000000e+00 +1.1999999991210999e+00 -3.0642636754738474e-02 -5.7861570741538737e-01 +5.7822518302059252e-03
1.2500000000000000e+00 +8.5269568417206791e+00 +0.0000000000000000e+00 +1.2499999990065900e+00 -3.0643195102769770e-02 -5.7862513275686434e-01 +5.7831366374099212e-03
1.3000000000000000e+00 +8.5269533200044005e+00 +0.0000000000000000e+00 +1.2999999988825499e+00 -3.0643773309605320e-02 -5.7863492924311788e-01 +5.7840249044058814e-03
1.3500000000000001e+00 +8.5269496601795307e+00 +0.0000000000000000e+00 +1.3499999987485900e+00 -3.0644371333835921e-02 -5.7864509617973547e-01 +5.7849165606850134e-03
1.3999999999999999e+00 +8.5269458622533403e+00 +0.0000000000000000e+00 +1.3999999986043401e+00 -3.0644989134049616e-02 -5.7865563287226440e-01 +5.7858115357380755e-03
1.4500000000000000e+00 +8.5269419262185693e+00 +0.0000000000000000e+00 +1.4499999984494001e+00 -3.0645626668840149e-02 -5.7866653862637663e-01 +5.7867097590570240e-03
1.5000000000000000e+00 +8.5269378520752106e+00 +0.0000000000000000e+00 +1.4999999982833900e+00 -3.0646283896798521e-02 -5.7867781274770469e-01 +5.7876111601333335e-03
1.5500000000000000e+00 +8.5269336398268898e+00 +0.0000000000000000e+00 +1.5499999981059500e+00 -3.0646960776514284e-02 -5.7868945454186782e-01 +5.7885156684582672e-03
1.6000000000000001e+00 +8.5269292894736299e+00 +0.0000000000000000e+00 +1.5999999979166799e+00 -3.0647657266578344e-02 -5.7870146331452765e-01 +5.7894232135234204e-03
1.6499999999999999e+00 +8.5269248010117700e+00 +0.0000000000000000e+00 +1.6499999977152000e+00 -3.0648373325582970e-02 -5.7871383837138834e-01 +5.7903337248207155e-03
1.7000000000000000e+00 +8.5269201744449692e+00 +0.0000000000000000e+00 +1.6999999975011300e+00 -3.0649108912117393e-02 -5.7872657901811231e-01 +5.7912471318415457e-03
1.7500000000000000e+00 +8.5269154097695701e+00 +0.0000000000000000e+00 +1.7499999972740901e+00 -3.0649863984773571e-02 -5.7873968456043290e-01 +5.7921633640778897e-03
1.8000000000000000e+00 +8.5269105069892195e+00 +0.0000000000000000e+00 +1.7999999970336999e+00 -3.0650638502140375e-02 -5.7875315430404239e-01 +5.7930823510211780e-03
1.8500000000000001e+00 +8.5269054661039299e+00 +0.0000000000000000e+00 +1.8499999967795799e+00 -3.0651432422807833e-02 -5.7876698755467437e-01 +5.7940040221631205e-03
1.8999999999999999e+00 +8.5269002871100401e+00 +0.0000000000000000e+00 +1.8999999965113501e+00 -3.0652245705367124e-02 -5.7878118361810538e-01 +5.7949283069957088e-03
1.9500000000000000e+00 +8.5268949700112007e+00 +0.0000000000000000e+00 +1.9499999962286201e+00 -3.0653078308406231e-02 -5.7879574180007021e-01 +5.7958551350103431e-03
2.0000000000000000e+00 +8.5268895148037700e+00 +0.0000000000000000e+00 +1.9999999959310100e+00 -3.0653930190515565e-02 -5.7881066140637316e-01 +5.7967844356989580e-03
2.0499999999999998e+00 +8.5268839213858900e+00 +0.0000000000000000e+00 +2.0499999956181298e+00 -3.0654801276687182e-02 -5.7882594151417865e-01 +5.7977161454164025e-03
2.1000000000000001e+00 +8.5268781896593300e+00 +0.0000000000000000e+00 +2.0999999952895898e+00 -3.0655691357368266e-02 -5.7884158028303490e-01 +5.7986502279385914e-03
2.1499999999999999e+00 +8.5268723196240899e+00 +0.0000000000000000e+00 +2.1499999949449999e+00 -3.0656600189333100e-02 -5.7885757564235718e-01 +5.7995866538891414e-03
2.2000000000000002e+00 +8.5268663112729008e+00 +0.0000000000000000e+00 +2.1999999945839801e+00 -3.0657527529359827e-02 -5.7887392552162831e-01 +5.8005253938921897e-03
2.2500000000000000e+00 +8.5268601646093902e+00 +0.0000000000000000e+00 +2.2499999942061502e+00 -3.0658473134223527e-02 -5.7889062785026235e-01 +5.8014664185709807e-03
2.2999999999999998e+00 +8.5268538796335598e+00 +0.0000000000000000e+00 +2.2999999938111202e+00 -3.0659436760701785e-02 -5.7890768055771369e-01 +5.8024096985489779e-03
2.3500000000000001e+00 +8.5268474563490599e+00 +0.0000000000000000e+00 +2.3499999933985198e+00 -3.0660418165572047e-02 -5.7892508157342260e-01 +5.8033552044492948e-03
2.3999999999999999e+00 +8.5268408947522403e+00 +0.0000000000000000e+00 +2.3999999929679601e+00 -3.0661417105615815e-02 -5.7894282882689807e-01 +5.8043029068955343e-03
2.4500000000000002e+00 +8.5268341948467405e+00 +0.0000000000000000e+00 +2.4499999925190501e+00 -3.0662433337613065e-02 -5.7896092024760593e-01 +5.8052527765106452e-03
2.5000000000000000e+00 +8.5268273566252901e+00 +0.0000000000000000e+00 +2.4999999920514302e+00 -3.0663466618349351e-02 -5.7897935376510801e-01 +5.8062047839183301e-03
2.5499999999999998e+00 +8.5268203800987994e+00 +0.0000000000000000e+00 +2.5499999915646900e+00 -3.0664516704604638e-02 -5.7899812730884170e-01 +5.8071588997407721e-03
2.6000000000000001e+00 +8.5268132652563509e+00 +0.0000000000000000e+00 +2.5999999910584699e+00 -3.0665583353168744e-02 -5.7901723880842160e-01 +5.8081150946017440e-03
2.6499999999999999e+00 +8.5268060121015896e+00 +0.0000000000000000e+00 +2.6499999905323701e+00 -3.0666666320827391e-02 -5.7903668619336546e-01 +5.8090733391237617e-03
2.7000000000000002e+00 +8.5267986206345103e+00 +0.0000000000000000e+00 +2.6999999899860101e+00 -3.0667765364369205e-02 -5.7905646739323036e-01 +5.8100336039294855e-03
2.7500000000000000e+00 +8.5267910908551094e+00 +0.0000000000000000e+00 +2.7499999894190199e+00 -3.0668880240584485e-02 -5.7907658033758647e-01 +5.8109958596414520e-03
2.7999999999999998e+00 +8.5267834227670392e+00 +0.0000000000000000e+00 +2.7999999888310101e+00 -3.0670010706263698e-02 -5.7909702295598775e-01 +5.8119600768817429e-03
2.8500000000000001e+00 +8.5267756163666508e+00 +0.0000000000000000e+00 +2.8499999882215898e+00 -3.0671156518201861e-02 -5.7911779317805678e-01 +5.8129262262728697e-03
2.8999999999999999e+00 +8.5267676716539391e+00 +0.0000000000000000e+00 +2.8999999875903901e+00 -3.0672317433194315e-02 -5.7913888893340004e-01 +5.8138942784368855e-03
2.9500000000000002e+00 +8.5267595886289200e+00 +0.0000000000000000e+00 +2.9499999869370299e+00 -3.0673493208038187e-02 -5.7916030815163588e-01 +5.8148642039956662e-03
3.0000000000000000e+00 +8.5267513672915793e+00 +0.0000000000000000e+00 +2.9999999862611100e+00 -3.0674683599532463e-02 -5.7918204876239499e-01 +5.8158359735709011e-03
3.0499999999999998e+00 +8.5267430076455604e+00 +0.0000000000000000e+00 +3.0499999855622502e+00 -3.0675888364476583e-02 -5.7920410869529204e-01 +5.8168095577838088e-03
3.1000000000000001e+00 +8.5267345096872305e+00 +0.0000000000000000e+00 +3.0999999848400801e+00 -3.0677107259674739e-02 -5.7922648588000869e-01 +5.8177849272559659e-03
3.1499999999999999e+00 +8.5267258734165807e+00 +0.0000000000000000e+00 +3.1499999840942201e+00 -3.0678340041931720e-02 -5.7924917824621125e-01 +5.8187620526084574e-03
3.2000000000000002e+00 +8.5267170988336094e+00 +0.0000000000000000e+00 +3.1999999833242700e+00 -3.0679586468054347e-02 -5.7927218372357703e-01 +5.8197409044621487e-03
3.2500000000000000e+00 +8.5267081859419704e+00 +0.0000000000000000e+00 +3.2499999825298600e+00 -3.0680846294850093e-02 -5.7929550024176668e-01 +5.8207214534373884e-03
3.2999999999999998e+00 +8.5266991347380099e+00 +0.0000000000000000e+00 +3.2999999817106000e+00 -3.0682119279131396e-02 -5.7931912573050881e-01 +5.8217036701548588e-03
3.3500000000000001e+00 +8.5266899452181004e+00 +0.0000000000000000e+00 +3.3499999808661101e+00 -3.0683405177712848e-02 -5.7934305811954256e-01 +5.8226875252349874e-03
3.3999999999999999e+00 +8.5266806173895002e+00 +0.0000000000000000e+00 +3.3999999799960099e+00 -3.0684703747407088e-02 -5.7936729533853526e-01 +5.8236729892971019e-03
3.4500000000000002e+00 +8.5266711512522306e+00 +0.0000000000000000e+00 +3.4499999790999101e+00 -3.0686014745031794e-02 -5.7939183531722094e-01 +5.8246600329608282e-03
3.5000000000000000e+00 +8.5266615468026394e+00 +0.0000000000000000e+00 +3.4999999781774398e+00 -3.0687337927408402e-02 -5.7941667598537205e-01 +5.8256486268457993e-03
3.5499999999999998e+00 +8.5266518040407409e+00 +0.0000000000000000e+00 +3.5499999772282100e+00 -3.0688673051359305e-02 -5.7944181527274441e-01 +5.8266387415710878e-03
3.6000000000000001e+00 +8.5266419229665207e+00 +0.0000000000000000e+00 +3.5999999762518402e+00 -3.0690019873709319e-02 -5.7946725110910524e-01 +5.8276303477554688e-03
3.6499999999999999e+00 +8.5266319035799807e+00 +0.0000000000000000e+00 +3.6499999752479400e+00 -3.0691378151285732e-02 -5.7949298142423122e-01 +5.8286234160174217e-03
3.6999999999999900e+00 +8.5266217458847695e+00 +0.0000000000000000e+00 +3.6999999742161398e+00 -3.0692747640916906e-02 -5.7951900414788315e-01 +5.8296179169748203e-03
3.7499999999999898e+00 +8.5266114498736005e+00 +0.0000000000000000e+00 +3.7499999731560498e+00 -3.0694128099438056e-02 -5.7954531720991498e-01 +5.8306138212460877e-03
3.7999999999999901e+00 +8.5266010155537497e+00 +0.0000000000000000e+00 +3.7999999720672801e+00 -3.0695519283681312e-02 -5.7957191854008039e-01 +5.8316110994481706e-03
3.8499999999999899e+00 +8.5265904429179500e+00 +0.0000000000000000e+00 +3.8499999709494599e+00 -3.0696920950487160e-02 -5.7959880606825420e-01 +5.8326097221988197e-03
3.8999999999999901e+00 +8.5265797319771099e+00 +0.0000000000000000e+00 +3.8999999698022001e+00 -3.0698332856691667e-02 -5.7962597772418301e-01 +5.8336096601140121e-03
3.9499999999999900e+00 +8.5265688827203103e+00 +0.0000000000000000e+00 +3.9499999686251202e+00 -3.0699754759142224e-02 -5.7965343143779002e-01 +5.8346108838110934e-03
3.9999999999999898e+00 +8.5265578951548395e+00 +0.0000000000000000e+00 +3.9999999674178399e+00 -3.0701186414681874e-02 -5.7968116513886936e-01 +5.8356133639055991e-03
4.0499999999999901e+00 +8.5265467692734092e+00 +0.0000000000000000e+00 +4.0499999661799704e+00 -3.0702627624152108e-02 -5.7970917660833365e-01 +5.8366170678037623e-03
4.0999999999999899e+00 +8.5265355050833005e+00 +0.0000000000000000e+00 +4.0999999649111301e+00 -3.0704078364350386e-02 -5.7973746303097851e-01 +5.8376219500700568e-03
4.1499999999999897e+00 +8.5265241025808791e+00 +0.0000000000000000e+00 +4.1499999636109504e+00 -3.0705538656068093e-02 -5.7976602144267775e-01 +5.8386279620597573e-03
4.1999999999999904e+00 +8.5265125617697795e+00 +0.0000000000000000e+00 +4.1999999622790298e+00 -3.0707008520093223e-02 -5.7979484887924970e-01 +5.8396350551276621e-03
4.2499999999999902e+00 +8.5265008826427202e+00 +0.0000000000000000e+00 +4.2499999609149901e+00 -3.0708487977217216e-02 -5.7982394237659329e-01 +5.8406431806295317e-03
4.2999999999999901e+00 +8.5264890652069898e+00 +0.0000000000000000e+00 +4.2999999595184599e+00 -3.0709977048225107e-02 -5.7985329897049387e-01 +5.8416522899200655e-03
4.3499999999999899e+00 +8.5264771094589396e+00 +0.0000000000000000e+00 +4.3499999580890396e+00 -3.0711475753905364e-02 -5.7988291569681805e-01 +5.8426623343549536e-03
4.3999999999999897e+00 +8.5264650153985695e+00 +0.0000000000000000e+00 +4.3999999566263703e+00 -3.0712984115044098e-02 -5.7991278959140069e-01 +5.8436732652896962e-03
4.4499999999999904e+00 +8.5264527830295300e+00 +0.0000000000000000e+00 +4.4499999551300400e+00 -3.0714502152425081e-02 -5.7994291769004569e-01 +5.8446850340796276e-03
4.4999999999999902e+00 +8.5264404123481707e+00 +0.0000000000000000e+00 +4.4999999535996897e+00 -3.0716029886833897e-02 -5.7997329702860845e-01 +5.8456975920807902e-03
4.5499999999999901e+00 +8.5264279033544899e+00 +0.0000000000000000e+00 +4.5499999520349199e+00 -3.0717567339053637e-02 -5.8000392464291295e-01 +5.8467108906490647e-03
4.5999999999999899e+00 +8.5264152560448601e+00 +0.0000000000000000e+00 +4.5999999504353601e+00 -3.0719114529867680e-02 -5.8003479756880427e-01 +5.8477248811407536e-03
4.6499999999999897e+00 +8.5264024704301793e+00 +0.0000000000000000e+00 +4.6499999488006196e+00 -3.0720671480052551e-02 -5.8006591284201237e-01 +5.8487395149111462e-03
4.6999999999999904e+00 +8.5263895464995603e+00 +0.0000000000000000e+00 +4.6999999471303298e+00 -3.0722238210392022e-02 -5.8009726749842816e-01 +5.8497547433174132e-03
4.7499999999999902e+00 +8.5263764842602505e+00 +0.0000000000000000e+00 +4.7499999454240900e+00 -3.0723814741661446e-02 -5.8012885857379692e-01 +5.8507705177154330e-03
4.7999999999999901e+00 +8.5263632837050007e+00 +0.0000000000000000e+00 +4.7999999436815299e+00 -3.0725401094640534e-02 -5.8016068310396884e-01 +5.8517867894624011e-03
4.8499999999999899e+00 +8.5263499448447000e+00 +0.0000000000000000e+00 +4.8499999419022597e+00 -3.0726997290100422e-02 -5.8019273812464844e-01 +5.8528035099142178e-03
4.8999999999999897e+00 +8.5263364676684397e+00 +0.0000000000000000e+00 +4.8999999400859000e+00 -3.0728603348819303e-02 -5.8022502067169957e-01 +5.8538206304287049e-03
4.9499999999999904e+00 +8.5263228521798702e+00 +0.0000000000000000e+00 +4.9499999382320699e+00 -3.0730219291568116e-02 -5.8025752778086603e-01 +5.8548381023626889e-03
4.9999999999999902e+00 +8.5263090983826295e+00 +0.0000000000000000e+00 +4.9999999363403900e+00 -3.0731845139116240e-02 -5.8029025648788479e-01 +5.8558558770731824e-03
5.0499999999999901e+00 +8.5262952059529198e+00 +0.0000000000000000e+00 +5.0499999344103799e+00 -3.0733480912359112e-02 -5.8032320383099634e-01 +5.8568739059436346e-03
5.0999999999999899e+00 +8.5262811745706095e+00 +0.0000000000000000e+00 +5.0999999324415599e+00 -3.0735126632189195e-02 -5.8035636684840719e-01 +5.8578921403574452e-03
5.1499999999999897e+00 +8.5262670042357094e+00 +0.0000000000000000e+00 +5.1499999304335597e+00 -3.0736782319372276e-02 -5.8038974257585707e-01 +5.8589105316725707e-03
5.1999999999999904e+00 +8.5262526949518396e+00 +0.0000000000000000e+00 +5.1999999283859903e+00 -3.0738447994670889e-02 -5.8042332804904850e-01 +5.8599290312468782e-03
5.2499999999999902e+00 +8.5262382467153692e+00 +0.0000000000000000e+00 +5.2499999262984600e+00 -3.0740123678848517e-02 -5.8045712030372920e-01 +5.8609475904390232e-03
5.2999999999999901e+00 +8.5262236595299292e+00 +0.0000000000000000e+00 +5.2999999241705797e+00 -3.0741809392663837e-02 -5.8049111637557982e-01 +5.8619661606072867e-03
5.3499999999999899e+00 +8.5262089333882596e+00 +0.0000000000000000e+00 +5.3499999220019703e+00 -3.0743505156877775e-02 -5.8052531330035473e-01 +5.8629846931110520e-03
5.3999999999999897e+00 +8.5261940682976292e+00 +0.0000000000000000e+00 +5.3999999197922497e+00 -3.0745210992243473e-02 -5.8055970811368429e-01 +5.8640031393087499e-03
5.4499999999999904e+00 +8.5261790642507496e+00 +0.0000000000000000e+00 +5.4499999175410201e+00 -3.0746926919517630e-02 -5.8059429785129846e-01 +5.8650214505602165e-03
5.4999999999999902e+00 +8.5261639212585596e+00 +0.0000000000000000e+00 +5.4999999152479004e+00 -3.0748652959447665e-02 -5.8062907954877485e-01 +5.8660395782240554e-03
5.5499999999999901e+00 +8.5261486393137602e+00 +0.0000000000000000e+00 +5.5499999129125097e+00 -3.0750389132785799e-02 -5.8066405024181866e-01 +5.8670574736605745e-03
5.5999999999999899e+00 +8.5261332184127205e+00 +0.0000000000000000e+00 +5.5999999105344500e+00 -3.0752135460280574e-02 -5.8069920696609345e-01 +5.8680750882300382e-03
5.6499999999999897e+00 +8.5261176585627307e+00 +0.0000000000000000e+00 +5.6499999081133403e+00 -3.0753891962673814e-02 -5.8073454675716474e-01 +5.8690923732920798e-03
5.6999999999999904e+00 +8.5261019597637606e+00 +0.0000000000000000e+00 +5.6999999056488004e+00 -3.0755658660707823e-02 -5.8077006665064046e-01 +5.8701092802071761e-03
5.7499999999999902e+00 +8.5260861220122006e+00 +0.0000000000000000e+00 +5.7499999031404396e+00 -3.0757435575123764e-02 -5.8080576368214165e-01 +5.8711257603363595e-03
5.7999999999999901e+00 +8.5260701453080401e+00 +0.0000000000000000e+00 +5.7999999005878804e+00 -3.0759222726658896e-02 -5.8084163488724627e-01 +5.8721417650406411e-03
5.8499999999999899e+00 +8.5260540296512808e+00 +0.0000000000000000e+00 +5.8499998979907204e+00 -3.0761020136047808e-02 -5.8087767730151729e-01 +5.8731572456813012e-03
5.8999999999999897e+00 +8.5260377750455500e+00 +0.0000000000000000e+00 +5.8999998953485804e+00 -3.0762827824020997e-02 -5.8091388796047327e-01 +5.8741721536196070e-03
