# field on trajectory
# s[mm] rx[mm] ry[mm] rz[mm] bx[T] by[T] bz[T]
0.0000000000000000e+00 +8.5389999999999997e+00 +0.0000000000000000e+00 +0.0000000000000000e+00 -2.9299888512957329e-02 -5.7661211957045866e-01 +5.9799704628936568e-03
5.0000000000000003e-02 +8.5389999311257156e+00 +0.0000000000000000e+00 +4.9999999999936748e-02 -2.9299351205734018e-02 -5.7660886590542360e-01 +5.9783030124293457e-03
1.0000000000000001e-01 +8.5389997245033662e+00 +0.0000000000000000e+00 +9.9999999999493994e-02 -2.9298841027105386e-02 -5.7660602733223965e-01 +5.9766318722018867e-03
1.5000000000000002e-01 +8.5389993801336299e+00 +0.0000000000000000e+00 +1.4999999999829228e-01 -2.9298357913363975e-02 -5.7660360312737025e-01 +5.9749571112075088e-03
2.0000000000000001e-01 +8.5389988980170841e+00 +0.0000000000000000e+00 +1.9999999999595211e-01 -2.9297901800803789e-02 -5.7660159256729726e-01 +5.9732787984424938e-03
2.5000000000000000e-01 +8.5389982781542102e+00 +0.0000000000000000e+00 +2.4999999999209399e-01 -2.9297472625720227e-02 -5.7659999492852199e-01 +5.9715970029031382e-03
2.9999999999999999e-01 +8.5389975205453901e+00 +0.0000000000000000e+00 +2.9999999998633847e-01 -2.9297070324410049e-02 -5.7659880948756503e-01 +5.9699117935857532e-03
3.4999999999999998e-01 +8.5389966251909080e+00 +0.0000000000000000e+00 +3.4999999997830605e-01 -2.9296694833171322e-02 -5.7659803552096534e-01 +5.9682232394866353e-03
3.9999999999999997e-01 +8.5389955920909468e+00 +0.0000000000000000e+00 +3.9999999996761726e-01 -2.9296346088303435e-02 -5.7659767230528103e-01 +5.9665314096020447e-03
4.4999999999999996e-01 +8.5389944212455937e+00 +0.0000000000000000e+00 +4.4999999995389267e-01 -2.9296024026106988e-02 -5.7659771911708912e-01 +5.9648363729281981e-03
4.9999999999999994e-01 +8.5389931126548380e+00 +0.0000000000000000e+00 +4.9999999993675276e-01 -2.9295728582883828e-02 -5.7659817523298484e-01 +5.9631381984612359e-03
5.4999999999999993e-01 +8.5389916663185712e+00 +0.0000000000000000e+00 +5.4999999991581805e-01 -2.9295459694936927e-02 -5.7659903992958217e-01 +5.9614369551972092e-03
5.9999999999999998e-01 +8.5389900822365856e+00 +0.0000000000000000e+00 +5.9999999989070907e-01 -2.9295217298570458e-02 -5.7660031248351407e-01 +5.9597327121320683e-03
6.5000000000000002e-01 +8.5389883604085792e+00 +0.0000000000000000e+00 +6.4999999986104628e-01 -2.9295001330089627e-02 -5.7660199217143104e-01 +5.9580255382616232e-03
7.0000000000000007e-01 +8.5389865008341488e+00 +0.0000000000000000e+00 +6.9999999982645034e-01 -2.9294811725800753e-02 -5.7660407827000215e-01 +5.9563155025815460e-03
7.5000000000000011e-01 +8.5389845035127969e+00 +0.0000000000000000e+00 +7.4999999978654164e-01 -2.9294648422011134e-02 -5.7660657005591520e-01 +5.9546026740873404e-03
8.0000000000000016e-01 +8.5389823684439286e+00 +0.0000000000000000e+00 +7.9999999974094060e-01 -2.9294511355029081e-02 -5.7660946680587577e-01 +5.9528871217743246e-03
8.5000000000000020e-01 +8.5389800956268509e+00 +0.0000000000000000e+00 +8.4999999968926776e-01 -2.9294400461163835e-02 -5.7661276779660720e-01 +5.9511689146376119e-03
9.0000000000000024e-01 +8.5389776850607753e+00 +0.0000000000000000e+00 +8.9999999963114363e-01 -2.9294315676725562e-02 -5.7661647230485125e-01 +5.9494481216720912e-03
9.5000000000000029e-01 +8.5389751367448170e+00 +0.0000000000000000e+00 +9.4999999956618864e-01 -2.9294256938025287e-02 -5.7662057960736712e-01 +5.9477248118724110e-03
1.0000000000000002e+00 +8.5389724506779956e+00 +0.0000000000000000e+00 +9.9999999949402330e-01 -2.9294224181374864e-02 -5.7662508898093179e-01 +5.9459990542329562e-03
1.0500000000000003e+00 +8.5389696268592328e+00 +0.0000000000000000e+00 +1.0499999994142679e+00 -2.9294217343086959e-02 -5.7662999970234052e-01 +5.9442709177478341e-03
1.1000000000000003e+00 +8.5389666652873562e+00 +0.0000000000000000e+00 +1.0999999993265430e+00 -2.9294236359474989e-02 -5.7663531104840571e-01 +5.9425404714108440e-03
1.1500000000000004e+00 +8.5389635659610974e+00 +0.0000000000000000e+00 +1.1499999992304690e+00 -2.9294281166853092e-02 -5.7664102229595715e-01 +5.9408077842154731e-03
1.2000000000000004e+00 +8.5389603288790923e+00 +0.0000000000000000e+00 +1.1999999991256662e+00 -2.9294351701536089e-02 -5.7664713272184254e-01 +5.9390729251548677e-03
1.2500000000000004e+00 +8.5389569540398806e+00 +0.0000000000000000e+00 +1.2499999990117550e+00 -2.9294447899839426e-02 -5.7665364160292631e-01 +5.9373359632218150e-03
1.3000000000000005e+00 +8.5389534414419064e+00 +0.0000000000000000e+00 +1.2999999988883557e+00 -2.9294569698079198e-02 -5.7666054821609070e-01 +5.9355969674087256e-03
1.3500000000000005e+00 +8.5389497910835210e+00 +0.0000000000000000e+00 +1.3499999987550888e+00 -2.9294717032572026e-02 -5.7666785183823455e-01 +5.9338560067076131e-03
1.4000000000000006e+00 +8.5389460029629785e+00 +0.0000000000000000e+00 +1.3999999986115745e+00 -2.9294889839635088e-02 -5.7667555174627416e-01 +5.9321131501100782e-03
1.4500000000000006e+00 +8.5389420770784401e+00 +0.0000000000000000e+00 +1.4499999984574330e+00 -2.9295088055586071e-02 -5.7668364721714294e-01 +5.9303684666072911e-03
1.5000000000000007e+00 +8.5389380134279733e+00 +0.0000000000000000e+00 +1.4999999982922847e+00 -2.9295311616743067e-02 -5.7669213752779058e-01 +5.9286220251899540e-03
1.5500000000000007e+00 +8.5389338120095477e+00 +0.0000000000000000e+00 +1.5499999981157497e+00 -2.9295560459424646e-02 -5.7670102195518436e-01 +5.9268738948483118e-03
1.6000000000000008e+00 +8.5389294728210423e+00 +0.0000000000000000e+00 +1.5999999979274484e+00 -2.9295834519949694e-02 -5.7671029977630761e-01 +5.9251241445721099e-03
1.6500000000000008e+00 +8.5389249958602402e+00 +0.0000000000000000e+00 +1.6499999977270008e+00 -2.9296133734637513e-02 -5.7671997026816069e-01 +5.9233728433505826e-03
1.7000000000000008e+00 +8.5389203811248322e+00 +0.0000000000000000e+00 +1.6999999975140272e+00 -2.9296458039807648e-02 -5.7673003270776080e-01 +5.9216200601724354e-03
1.7500000000000009e+00 +8.5389156286124130e+00 +0.0000000000000000e+00 +1.7499999972881477e+00 -2.9296807371779945e-02 -5.7674048637214048e-01 +5.9198658640258221e-03
1.8000000000000009e+00 +8.5389107383204870e+00 +0.0000000000000000e+00 +1.7999999970489824e+00 -2.9297181666874474e-02 -5.7675133053834993e-01 +5.9181103238983316e-03
1.8500000000000010e+00 +8.5389057102464623e+00 +0.0000000000000000e+00 +1.8499999967961513e+00 -2.9297580861411505e-02 -5.7676256448345475e-01 +5.9163535087769633e-03
1.9000000000000010e+00 +8.5389005443876549e+00 +0.0000000000000000e+00 +1.8999999965292746e+00 -2.9298004891711440e-02 -5.7677418748453702e-01 +5.9145954876481067e-03
1.9500000000000011e+00 +8.5388952407412884e+00 +0.0000000000000000e+00 +1.9499999962479722e+00 -2.9298453694094822e-02 -5.7678619881869497e-01 +5.9128363294975277e-03
2.0000000000000009e+00 +8.5388897993044939e+00 +0.0000000000000000e+00 +1.9999999959518640e+00 -2.9298927204882249e-02 -5.7679859776304321e-01 +5.9110761033103467e-03
2.0500000000000007e+00 +8.5388842200743102e+00 +0.0000000000000000e+00 +2.0499999956405701e+00 -2.9299425349449071e-02 -5.7681138339579552e-01 +5.9093148854847599e-03
2.1000000000000005e+00 +8.5388785030476821e+00 +0.0000000000000000e+00 +2.0999999953137105e+00 -2.9299948009389818e-02 -5.7682455399951871e-01 +5.9075527820734840e-03
2.1500000000000004e+00 +8.5388726482214636e+00 +0.0000000000000000e+00 +2.1499999949709050e+00 -2.9300495055354661e-02 -5.7683810765787757e-01 +5.9057899065429343e-03
2.2000000000000002e+00 +8.5388666555924164e+00 +0.0000000000000000e+00 +2.1999999946117730e+00 -2.9301066357994992e-02 -5.7685204245455290e-01 +5.9040263723595630e-03
2.2500000000000000e+00 +8.5388605251572116e+00 +0.0000000000000000e+00 +2.2499999942359348e+00 -2.9301661787963309e-02 -5.7686635647323881e-01 +5.9022622929898677e-03
2.2999999999999998e+00 +8.5388542569124297e+00 +0.0000000000000000e+00 +2.2999999938430102e+00 -2.9302281215913314e-02 -5.7688104779764526e-01 +5.9004977819004300e-03
2.3499999999999996e+00 +8.5388478508545624e+00 +0.0000000000000000e+00 +2.3499999934326188e+00 -2.9302924512499943e-02 -5.7689611451149558e-01 +5.8987329525579304e-03
2.3999999999999995e+00 +8.5388413069800091e+00 +0.0000000000000000e+00 +2.3999999930043798e+00 -2.9303591548379377e-02 -5.7691155469852806e-01 +5.8969679184291699e-03
2.4499999999999993e+00 +8.5388346252850820e+00 +0.0000000000000000e+00 +2.4499999925579137e+00 -2.9304282194209098e-02 -5.7692736644249476e-01 +5.8952027929810970e-03
2.4999999999999991e+00 +8.5388278057660045e+00 +0.0000000000000000e+00 +2.4999999920928393e+00 -2.9304996320647869e-02 -5.7694354782716162e-01 +5.8934376896808234e-03
2.5499999999999989e+00 +8.5388208484189096e+00 +0.0000000000000000e+00 +2.5499999916087766e+00 -2.9305733798355816e-02 -5.7696009693630879e-01 +5.8916727219956635e-03
2.5999999999999988e+00 +8.5388137532398449e+00 +0.0000000000000000e+00 +2.5999999911053449e+00 -2.9306494497994419e-02 -5.7697701185372963e-01 +5.8899080033931349e-03
2.6499999999999986e+00 +8.5388065202247692e+00 +0.0000000000000000e+00 +2.6499999905821641e+00 -2.9307278290226575e-02 -5.7699429066323138e-01 +5.8881436473409874e-03
2.6999999999999984e+00 +8.5387991493695541e+00 +0.0000000000000000e+00 +2.6999999900388532e+00 -2.9308085045716598e-02 -5.7701193144863550e-01 +5.8863797673072444e-03
2.7499999999999982e+00 +8.5387916406699862e+00 +0.0000000000000000e+00 +2.7499999894750315e+00 -2.9308914635130252e-02 -5.7702993229377475e-01 +5.8846164767601987e-03
2.7999999999999980e+00 +8.5387839941217667e+00 +0.0000000000000000e+00 +2.7999999888903186e+00 -2.9309766929134812e-02 -5.7704829128249691e-01 +5.8828538891684571e-03
2.8499999999999979e+00 +8.5387762097205080e+00 +0.0000000000000000e+00 +2.8499999882843339e+00 -2.9310641798399040e-02 -5.7706700649866183e-01 +5.8810921180009381e-03
2.8999999999999977e+00 +8.5387682874617390e+00 +0.0000000000000000e+00 +2.8999999876566962e+00 -2.9311539113593268e-02 -5.7708607602614304e-01 +5.8793312767269285e-03
2.9499999999999975e+00 +8.5387602273409051e+00 +0.0000000000000000e+00 +2.9499999870070250e+00 -2.9312458745389399e-02 -5.7710549794882549e-01 +5.8775714788160778e-03
2.9999999999999973e+00 +8.5387520293533665e+00 +0.0000000000000000e+00 +2.9999999863349394e+00 -2.9313400564460926e-02 -5.7712527035060834e-01 +5.8758128377384257e-03
3.0499999999999972e+00 +8.5387436934943999e+00 +0.0000000000000000e+00 +3.0499999856400581e+00 -2.9314364441482981e-02 -5.7714539131540166e-01 +5.8740554669644406e-03
3.0999999999999970e+00 +8.5387352197591984e+00 +0.0000000000000000e+00 +3.0999999849220004e+00 -2.9315350247132374e-02 -5.7716585892712924e-01 +5.8722994799650288e-03
3.1499999999999968e+00 +8.5387266081428734e+00 +0.0000000000000000e+00 +3.1499999841803850e+00 -2.9316357852087579e-02 -5.7718667126972600e-01 +5.8705449902115544e-03
3.1999999999999966e+00 +8.5387178586404531e+00 +0.0000000000000000e+00 +3.1999999834148314e+00 -2.9317387127028822e-02 -5.7720782642713941e-01 +5.8687921111758700e-03
3.2499999999999964e+00 +8.5387089712468818e+00 +0.0000000000000000e+00 +3.2499999826249577e+00 -2.9318437942638071e-02 -5.7722932248332948e-01 +5.8670409563303426e-03
3.2999999999999963e+00 +8.5386999459570259e+00 +0.0000000000000000e+00 +3.2999999818103833e+00 -2.9319510169599054e-02 -5.7725115752226652e-01 +5.8652916391478621e-03
3.3499999999999961e+00 +8.5386907827656682e+00 +0.0000000000000000e+00 +3.3499999809707268e+00 -2.9320603678597335e-02 -5.7727332962793354e-01 +5.8635442731018771e-03
3.3999999999999959e+00 +8.5386814816675134e+00 +0.0000000000000000e+00 +3.3999999801056067e+00 -2.9321718340320286e-02 -5.7729583688432506e-01 +5.8617989716664171e-03
3.4499999999999957e+00 +8.5386720426571845e+00 +0.0000000000000000e+00 +3.4499999792146419e+00 -2.9322854025457194e-02 -5.7731867737544651e-01 +5.8600558483160991e-03
3.4999999999999956e+00 +8.5386624657292245e+00 +0.0000000000000000e+00 +3.4999999782974505e+00 -2.9324010604699184e-02 -5.7734184918531495e-01 +5.8583150165261756e-03
3.5499999999999954e+00 +8.5386527508780983e+00 +0.0000000000000000e+00 +3.5499999773536515e+00 -2.9325187948739378e-02 -5.7736535039795822e-01 +5.8565765897725351e-03
3.5999999999999952e+00 +8.5386428980981908e+00 +0.0000000000000000e+00 +3.5999999763828630e+00 -2.9326385928272782e-02 -5.7738917909741527e-01 +5.8548406815317434e-03
3.6499999999999950e+00 +8.5386329073838105e+00 +0.0000000000000000e+00 +3.6499999753847034e+00 -2.9327604413996435e-02 -5.7741333336773615e-01 +5.8531074052810446e-03
3.6999999999999948e+00 +8.5386227787291880e+00 +0.0000000000000000e+00 +3.6999999743587910e+00 -2.9328843276609378e-02 -5.7743781129298100e-01 +5.8513768744984061e-03
3.7499999999999947e+00 +8.5386125121284753e+00 +0.0000000000000000e+00 +3.7499999733047442e+00 -2.9330102386812690e-02 -5.7746261095722073e-01 +5.8496492026625267e-03
3.7999999999999945e+00 +8.5386021075757466e+00 +0.0000000000000000e+00 +3.7999999722221811e+00 -2.9331381615309536e-02 -5.7748773044453749e-01 +5.8479245032528656e-03
3.8499999999999943e+00 +8.5385915650650031e+00 +0.0000000000000000e+00 +3.8499999711107198e+00 -2.9332680832805175e-02 -5.7751316783902229e-01 +5.8462028897496637e-03
3.8999999999999941e+00 +8.5385808845901661e+00 +0.0000000000000000e+00 +3.8999999699699783e+00 -2.9333999910007000e-02 -5.7753892122477724e-01 +5.8444844756339659e-03
3.9499999999999940e+00 +8.5385700661450858e+00 +0.0000000000000000e+00 +3.9499999687995748e+00 -2.9335338717624570e-02 -5.7756498868591410e-01 +5.8427693743876409e-03
3.9999999999999938e+00 +8.5385591097235327e+00 +0.0000000000000000e+00 +3.9999999675991273e+00 -2.9336697126369618e-02 -5.7759136830655489e-01 +5.8410576994934139e-03
4.0499999999999936e+00 +8.5385480153192059e+00 +0.0000000000000000e+00 +4.0499999663682535e+00 -2.9338075000646512e-02 -5.7761805798001176e-01 +5.8393495526075576e-03
4.0999999999999934e+00 +8.5385367829257302e+00 +0.0000000000000000e+00 +4.0999999651065711e+00 -2.9339472179622437e-02 -5.7764505483632755e-01 +5.8376449880776678e-03
4.1499999999999932e+00 +8.5385254125366554e+00 +0.0000000000000000e+00 +4.1499999638136975e+00 -2.9340888496154641e-02 -5.7767235581472842e-01 +5.8359440484242473e-03
4.1999999999999931e+00 +8.5385139041454607e+00 +0.0000000000000000e+00 +4.1999999624892510e+00 -2.9342323783099752e-02 -5.7769995785444184e-01 +5.8342467761680330e-03
4.2499999999999929e+00 +8.5385022577455523e+00 +0.0000000000000000e+00 +4.2499999611328487e+00 -2.9343777873313756e-02 -5.7772785789469738e-01 +5.8325532138299788e-03
4.2999999999999927e+00 +8.5384904733302633e+00 +0.0000000000000000e+00 +4.2999999597441088e+00 -2.9345250599651915e-02 -5.7775605287472553e-01 +5.8308634039312803e-03
4.3499999999999925e+00 +8.5384785508928598e+00 +0.0000000000000000e+00 +4.3499999583226474e+00 -2.9346741794968715e-02 -5.7778453973375810e-01 +5.8291773889933510e-03
4.3999999999999924e+00 +8.5384664904265364e+00 +0.0000000000000000e+00 +4.3999999568680828e+00 -2.9348251292117808e-02 -5.7781331541102610e-01 +5.8274952115378430e-03
4.4499999999999922e+00 +8.5384542919244186e+00 +0.0000000000000000e+00 +4.4499999553800320e+00 -2.9349778923951988e-02 -5.7784237684576234e-01 +5.8258169140866381e-03
4.4999999999999920e+00 +8.5384419553795645e+00 +0.0000000000000000e+00 +4.4999999538581124e+00 -2.9351324523323077e-02 -5.7787172097719797e-01 +5.8241425391618515e-03
4.5499999999999918e+00 +8.5384294807849646e+00 +0.0000000000000000e+00 +4.5499999523019410e+00 -2.9352887923081928e-02 -5.7790134474456500e-01 +5.8224721292858411e-03
4.5999999999999917e+00 +8.5384168681335417e+00 +0.0000000000000000e+00 +4.5999999507111351e+00 -2.9354468956078305e-02 -5.7793124508709293e-01 +5.8208057269812001e-03
4.6499999999999915e+00 +8.5384041174181515e+00 +0.0000000000000000e+00 +4.6499999490853119e+00 -2.9356067455160895e-02 -5.7796141894401087e-01 +5.8191433747707627e-03
4.6999999999999913e+00 +8.5383912286315873e+00 +0.0000000000000000e+00 +4.6999999474240877e+00 -2.9357683253177190e-02 -5.7799186325454588e-01 +5.8174851151776025e-03
4.7499999999999911e+00 +8.5383782017665766e+00 +0.0000000000000000e+00 +4.7499999457270796e+00 -2.9359316182973477e-02 -5.7802257495792353e-01 +5.8158309907250360e-03
4.7999999999999909e+00 +8.5383650368157813e+00 +0.0000000000000000e+00 +4.7999999439939041e+00 -2.9360966077394763e-02 -5.7805355099336631e-01 +5.8141810439366276e-03
4.8499999999999908e+00 +8.5383517337718029e+00 +0.0000000000000000e+00 +4.8499999422241782e+00 -2.9362632769284695e-02 -5.7808478830009447e-01 +5.8125353173361866e-03
4.8999999999999906e+00 +8.5383382926271789e+00 +0.0000000000000000e+00 +4.8999999404175183e+00 -2.9364316091485564e-02 -5.7811628381732538e-01 +5.8108938534477735e-03
4.9499999999999904e+00 +8.5383247133743847e+00 +0.0000000000000000e+00 +4.9499999385735416e+00 -2.9366015876838195e-02 -5.7814803448427166e-01 +5.8092566947956963e-03
4.9999999999999902e+00 +8.5383109960058370e+00 +0.0000000000000000e+00 +4.9999999366918635e+00 -2.9367731958181879e-02 -5.7818003724014366e-01 +5.8076238839045117e-03
5.0499999999999901e+00 +8.5382971405138886e+00 +0.0000000000000000e+00 +5.0499999347721012e+00 -2.9369464168354398e-02 -5.7821228902414712e-01 +5.8059954632990376e-03
5.0999999999999899e+00 +8.5382831468908371e+00 +0.0000000000000000e+00 +5.0999999328138701e+00 -2.9371212340191872e-02 -5.7824478677548274e-01 +5.8043714755043399e-03
5.1499999999999897e+00 +8.5382690151289182e+00 +0.0000000000000000e+00 +5.1499999308167874e+00 -2.9372976306528770e-02 -5.7827752743334671e-01 +5.8027519630457422e-03
5.1999999999999895e+00 +8.5382547452203106e+00 +0.0000000000000000e+00 +5.1999999287804686e+00 -2.9374755900197825e-02 -5.7831050793692984e-01 +5.8011369684488317e-03
5.2499999999999893e+00 +8.5382403371571343e+00 +0.0000000000000000e+00 +5.2499999267045299e+00 -2.9376550954029964e-02 -5.7834372522541744e-01 +5.7995265342394480e-03
5.2999999999999892e+00 +8.5382257909314561e+00 +0.0000000000000000e+00 +5.2999999245885867e+00 -2.9378361300854292e-02 -5.7837717623798923e-01 +5.7979207029437013e-03
5.3499999999999890e+00 +8.5382111065352841e+00 +0.0000000000000000e+00 +5.3499999224322554e+00 -2.9380186773498001e-02 -5.7841085791381752e-01 +5.7963195170879517e-03
5.3999999999999888e+00 +8.5381962839605716e+00 +0.0000000000000000e+00 +5.3999999202351523e+00 -2.9382027204786321e-02 -5.7844476719206928e-01 +5.7947230191988421e-03
5.4499999999999886e+00 +8.5381813231992183e+00 +0.0000000000000000e+00 +5.4499999179968928e+00 -2.9383882427542501e-02 -5.7847890101190358e-01 +5.7931312518032683e-03
5.4999999999999885e+00 +8.5381662242430707e+00 +0.0000000000000000e+00 +5.4999999157170922e+00 -2.9385752274587680e-02 -5.7851325631247241e-01 +5.7915442574283989e-03
5.5499999999999883e+00 +8.5381509870839221e+00 +0.0000000000000000e+00 +5.5499999133953661e+00 -2.9387636578740876e-02 -5.7854783003291987e-01 +5.7899620786016756e-03
5.5999999999999881e+00 +8.5381356117135123e+00 +0.0000000000000000e+00 +5.5999999110313299e+00 -2.9389535172818951e-02 -5.7858261911238218e-01 +5.7883847578508053e-03
5.6499999999999879e+00 +8.5381200981235299e+00 +0.0000000000000000e+00 +5.6499999086245989e+00 -2.9391447889636504e-02 -5.7861762048998633e-01 +5.7868123377037752e-03
5.6999999999999877e+00 +8.5381044463056153e+00 +0.0000000000000000e+00 +5.6999999061747886e+00 -2.9393374562005841e-02 -5.7865283110485211e-01 +5.7852448606888415e-03
5.7499999999999876e+00 +8.5380886562513556e+00 +0.0000000000000000e+00 +5.7499999036815144e+00 -2.9395315022736890e-02 -5.7868824789608786e-01 +5.7836823693345422e-03
5.7999999999999874e+00 +8.5380727279522919e+00 +0.0000000000000000e+00 +5.7999999011443917e+00 -2.9397269104637233e-02 -5.7872386780279472e-01 +5.7821249061696927e-03
5.8499999999999872e+00 +8.5380566613999136e+00 +0.0000000000000000e+00 +5.8499998985630350e+00 -2.9399236640511934e-02 -5.7875968776406250e-01 +5.7805725137233879e-03
5.8999999999999870e+00 +8.5380404565856640e+00 +0.0000000000000000e+00 +5.8999998959370590e+00 -2.9401217463163550e-02 -5.7879570471897124e-01 +5.7790252345250002e-03
