# field on trajectory
# s[mm] rx[mm] ry[mm] rz[mm] bx[T] by[T] bz[T]
0.0000000000000000e+00 +8.3650000000000002e+00 +0.0000000000000000e+00 +0.0000000000000000e+00 -3.0222784683144543e-02 -5.7763482608238803e-01 +5.7127473793955963e-03
5.0000000000000003e-02 +8.3649999311576586e+00 +0.0000000000000000e+00 +4.9999999999936803e-02 -3.0222711531309881e-02 -5.7763505323618891e-01 +5.7117352181545880e-03
1.0000000000000001e-01 +8.3649997246305787e+00 +0.0000000000000000e+00 +9.9999999999494465e-02 -3.0222666267124838e-02 -5.7763570879235282e-01 +5.7107247257504245e-03
1.5000000000000002e-01 +8.3649993804186060e+00 +0.0000000000000000e+00 +1.4999999999829383e-01 -3.0222648816653125e-02 -5.7763679189324613e-01 +5.7097159956899868e-03
2.0000000000000001e-01 +8.3649988985214812e+00 +0.0000000000000000e+00 +1.9999999999595577e-01 -3.0222659105959136e-02 -5.7763830168125385e-01 +5.7087091214800528e-03
2.5000000000000000e-01 +8.3649982789388453e+00 +0.0000000000000000e+00 +2.4999999999210115e-01 -3.0222697061107934e-02 -5.7764023729877978e-01 +5.7077041966273065e-03
2.9999999999999999e-01 +8.3649975216702366e+00 +0.0000000000000000e+00 +2.9999999998635080e-01 -3.0222762608165282e-02 -5.7764259788824579e-01 +5.7067013146383534e-03
3.4999999999999998e-01 +8.3649966267150919e+00 +0.0000000000000000e+00 +3.4999999997832554e-01 -3.0222855673197779e-02 -5.7764538259209208e-01 +5.7057005690197352e-03
3.9999999999999997e-01 +8.3649955940727487e+00 +0.0000000000000000e+00 +3.9999999996764624e-01 -3.0222976182272852e-02 -5.7764859055277817e-01 +5.7047020532779488e-03
4.4999999999999996e-01 +8.3649944237424414e+00 +0.0000000000000000e+00 +4.4999999995393369e-01 -3.0223124061458877e-02 -5.7765222091278168e-01 +5.7037058609194597e-03
4.9999999999999994e-01 +8.3649931157233048e+00 +0.0000000000000000e+00 +4.9999999993680877e-01 -3.0223299236825176e-02 -5.7765627281459819e-01 +5.7027120854507190e-03
5.4999999999999993e-01 +8.3649916700143727e+00 +0.0000000000000000e+00 +5.4999999991589221e-01 -3.0223501634442151e-02 -5.7766074540074352e-01 +5.7017208203781772e-03
5.9999999999999998e-01 +8.3649900866145810e+00 +0.0000000000000000e+00 +5.9999999989080488e-01 -3.0223731180381293e-02 -5.7766563781375080e-01 +5.7007321592083028e-03
6.5000000000000002e-01 +8.3649883655227608e+00 +0.0000000000000000e+00 +6.4999999986116752e-01 -3.0223987800715231e-02 -5.7767094919617235e-01 +5.6997461954475994e-03
7.0000000000000007e-01 +8.3649865067376474e+00 +0.0000000000000000e+00 +6.9999999982660088e-01 -3.0224271421517859e-02 -5.7767667869057926e-01 +5.6987630226026124e-03
7.5000000000000011e-01 +8.3649845102578766e+00 +0.0000000000000000e+00 +7.4999999978672571e-01 -3.0224581968864319e-02 -5.7768282543956118e-01 +5.6977827341799575e-03
8.0000000000000016e-01 +8.3649823760819810e+00 +0.0000000000000000e+00 +7.9999999974116287e-01 -3.0224919368831142e-02 -5.7768938858572716e-01 +5.6968054236863274e-03
8.5000000000000020e-01 +8.3649801042083975e+00 +0.0000000000000000e+00 +8.4999999968953299e-01 -3.0225283547496231e-02 -5.7769636727170437e-01 +5.6958311846285123e-03
9.0000000000000024e-01 +8.3649776946354617e+00 +0.0000000000000000e+00 +8.9999999963145672e-01 -3.0225674430938963e-02 -5.7770376064013884e-01 +5.6948601105134035e-03
9.5000000000000029e-01 +8.3649751473614131e+00 +0.0000000000000000e+00 +9.4999999956655490e-01 -3.0226091945240268e-02 -5.7771156783369626e-01 +5.6938922948480374e-03
1.0000000000000002e+00 +8.3649724623843902e+00 +0.0000000000000000e+00 +9.9999999949444807e-01 -3.0226536016482633e-02 -5.7771978799506085e-01 +5.6929278311395803e-03
1.0500000000000003e+00 +8.3649696397024318e+00 +0.0000000000000000e+00 +1.0499999994147569e+00 -3.0227006570750229e-02 -5.7772842026693572e-01 +5.6919668128953610e-03
1.1000000000000003e+00 +8.3649666793134827e+00 +0.0000000000000000e+00 +1.0999999993271019e+00 -3.0227503534128914e-02 -5.7773746379204260e-01 +5.6910093336228788e-03
1.1500000000000004e+00 +8.3649635812153864e+00 +0.0000000000000000e+00 +1.1499999992311041e+00 -3.0228026832706329e-02 -5.7774691771312303e-01 +5.6900554868298302e-03
1.2000000000000004e+00 +8.3649603454058887e+00 +0.0000000000000000e+00 +1.1999999991263837e+00 -3.0228576392571965e-02 -5.7775678117293761e-01 +5.6891053660241128e-03
1.2500000000000004e+00 +8.3649569718826395e+00 +0.0000000000000000e+00 +1.2499999990125612e+00 -3.0229152139817181e-02 -5.7776705331426526e-01 +5.6881590647138488e-03
1.3000000000000005e+00 +8.3649534606431910e+00 +0.0000000000000000e+00 +1.2999999988892574e+00 -3.0229754000535309e-02 -5.7777773327990467e-01 +5.6872166764073947e-03
1.3500000000000005e+00 +8.3649498116849976e+00 +0.0000000000000000e+00 +1.3499999987560927e+00 -3.0230381900821710e-02 -5.7778882021267353e-01 +5.6862782946133627e-03
1.4000000000000006e+00 +8.3649460250054162e+00 +0.0000000000000000e+00 +1.3999999986126874e+00 -3.0231035766773794e-02 -5.7780031325540870e-01 +5.6853440128406324e-03
1.4500000000000006e+00 +8.3649421006017057e+00 +0.0000000000000000e+00 +1.4499999984586622e+00 -3.0231715524491137e-02 -5.7781221155096651e-01 +5.6844139245983676e-03
1.5000000000000007e+00 +8.3649380384710312e+00 +0.0000000000000000e+00 +1.4999999982936374e+00 -3.0232421100075516e-02 -5.7782451424222225e-01 +5.6834881233960421e-03
1.5500000000000007e+00 +8.3649338386104617e+00 +0.0000000000000000e+00 +1.5499999981172332e+00 -3.0233152419630951e-02 -5.7783722047207076e-01 +5.6825667027434303e-03
1.6000000000000008e+00 +8.3649295010169666e+00 +0.0000000000000000e+00 +1.5999999979290702e+00 -3.0233909409263786e-02 -5.7785032938342573e-01 +5.6816497561506512e-03
1.6500000000000008e+00 +8.3649250256874232e+00 +0.0000000000000000e+00 +1.6499999977287687e+00 -3.0234691995082781e-02 -5.7786384011922121e-01 +5.6807373771281672e-03
1.7000000000000008e+00 +8.3649204126186092e+00 +0.0000000000000000e+00 +1.6999999975159488e+00 -3.0235500103199087e-02 -5.7787775182240975e-01 +5.6798296591868032e-03
1.7500000000000009e+00 +8.3649156618072098e+00 +0.0000000000000000e+00 +1.7499999972902309e+00 -3.0236333659726437e-02 -5.7789206363596368e-01 +5.6789266958377684e-03
1.8000000000000009e+00 +8.3649107732498145e+00 +0.0000000000000000e+00 +1.7999999970512353e+00 -3.0237192590781052e-02 -5.7790677470287444e-01 +5.6780285805926589e-03
1.8500000000000010e+00 +8.3649057469429149e+00 +0.0000000000000000e+00 +1.8499999967985818e+00 -3.0238076822481846e-02 -5.7792188416615387e-01 +5.6771354069634948e-03
1.9000000000000010e+00 +8.3649005828829104e+00 +0.0000000000000000e+00 +1.8999999965318908e+00 -3.0238986280950366e-02 -5.7793739116883236e-01 +5.6762472684627101e-03
1.9500000000000011e+00 +8.3648952810661061e+00 +0.0000000000000000e+00 +1.9499999962507824e+00 -3.0239920892310972e-02 -5.7795329485396063e-01 +5.6753642586031923e-03
2.0000000000000009e+00 +8.3648898414887096e+00 +0.0000000000000000e+00 +1.9999999959548764e+00 -3.0240880582690761e-02 -5.7796959436460826e-01 +5.6744864708982755e-03
2.0500000000000007e+00 +8.3648842641468359e+00 +0.0000000000000000e+00 +2.0499999956437933e+00 -3.0241865260445245e-02 -5.7798628857681811e-01 +5.6736139995723252e-03
2.1000000000000005e+00 +8.3648785490365061e+00 +0.0000000000000000e+00 +2.0999999953171526e+00 -3.0242874762833941e-02 -5.7800337529846024e-01 +5.6727469416923458e-03
2.1500000000000004e+00 +8.3648726961536486e+00 +0.0000000000000000e+00 +2.1499999949745745e+00 -3.0243908909343125e-02 -5.7802085207037246e-01 +5.6718853950364391e-03
2.2000000000000002e+00 +8.3648667054940962e+00 +0.0000000000000000e+00 +2.1999999946156787e+00 -3.0244967519459997e-02 -5.7803871643340621e-01 +5.6710294573832634e-03
2.2500000000000000e+00 +8.3648605770535926e+00 +0.0000000000000000e+00 +2.2499999942400852e+00 -3.0246050412672785e-02 -5.7805696592842604e-01 +5.6701792265120548e-03
2.2999999999999998e+00 +8.3648543108277860e+00 +0.0000000000000000e+00 +2.2999999938474134e+00 -3.0247157408470591e-02 -5.7807559809630993e-01 +5.6693348002026540e-03
2.3499999999999996e+00 +8.3648479068122370e+00 +0.0000000000000000e+00 +2.3499999934372835e+00 -3.0248288326343385e-02 -5.7809461047794863e-01 +5.6684962762355165e-03
2.3999999999999995e+00 +8.3648413650024125e+00 +0.0000000000000000e+00 +2.3999999930093150e+00 -3.0249442985781937e-02 -5.7811400061424589e-01 +5.6676637523917295e-03
2.4499999999999993e+00 +8.3648346853936921e+00 +0.0000000000000000e+00 +2.4499999925631273e+00 -3.0250621206277754e-02 -5.7813376604611655e-01 +5.6668373264530340e-03
2.4999999999999991e+00 +8.3648278679813632e+00 +0.0000000000000000e+00 +2.4999999920983402e+00 -3.0251822807323074e-02 -5.7815390431448865e-01 +5.6660170962018440e-03
2.5499999999999989e+00 +8.3648209127606261e+00 +0.0000000000000000e+00 +2.5499999916145732e+00 -3.0253047608410757e-02 -5.7817441296030159e-01 +5.6652031594212606e-03
2.5999999999999988e+00 +8.3648138197265940e+00 +0.0000000000000000e+00 +2.5999999911114462e+00 -3.0254295429034260e-02 -5.7819528952450483e-01 +5.6643956138950910e-03
2.6499999999999986e+00 +8.3648065888742895e+00 +0.0000000000000000e+00 +2.6499999905885780e+00 -3.0255566088687565e-02 -5.7821653154806074e-01 +5.6635945574078682e-03
2.6999999999999984e+00 +8.3647992201986501e+00 +0.0000000000000000e+00 +2.6999999900455882e+00 -3.0256859406865191e-02 -5.7823813657194134e-01 +5.6628000877448721e-03
2.7499999999999982e+00 +8.3647917136945242e+00 +0.0000000000000000e+00 +2.7499999894820961e+00 -3.0258175203062027e-02 -5.7826010213712919e-01 +5.6620123026921354e-03
2.7999999999999980e+00 +8.3647840693566788e+00 +0.0000000000000000e+00 +2.7999999888977212e+00 -3.0259513296773406e-02 -5.7828242578461697e-01 +5.6612313000364758e-03
2.8499999999999979e+00 +8.3647762871797919e+00 +0.0000000000000000e+00 +2.8499999882920823e+00 -3.0260873507494949e-02 -5.7830510505540755e-01 +5.6604571775655099e-03
2.8999999999999977e+00 +8.3647683671584581e+00 +0.0000000000000000e+00 +2.8999999876647991e+00 -3.0262255654722566e-02 -5.7832813749051282e-01 +5.6596900330676565e-03
2.9499999999999975e+00 +8.3647603092871865e+00 +0.0000000000000000e+00 +2.9499999870154903e+00 -3.0263659557952391e-02 -5.7835152063095452e-01 +5.6589299643321888e-03
2.9999999999999973e+00 +8.3647521135604048e+00 +0.0000000000000000e+00 +2.9999999863437750e+00 -3.0265085036680742e-02 -5.7837525201776230e-01 +5.6581770691492145e-03
3.0499999999999972e+00 +8.3647437799724553e+00 +0.0000000000000000e+00 +3.0499999856492721e+00 -3.0266531910404054e-02 -5.7839932919197556e-01 +5.6574314453097154e-03
3.0999999999999970e+00 +8.3647353085176004e+00 +0.0000000000000000e+00 +3.0999999849316007e+00 -3.0267999998618837e-02 -5.7842374969464139e-01 +5.6566931906055695e-03
3.1499999999999968e+00 +8.3647266991900189e+00 +0.0000000000000000e+00 +3.1499999841903796e+00 -3.0269489120821572e-02 -5.7844851106681472e-01 +5.6559624028295402e-03
3.1999999999999966e+00 +8.3647179519838080e+00 +0.0000000000000000e+00 +3.1999999834252275e+00 -3.0270999096508756e-02 -5.7847361084955906e-01 +5.6552391797753373e-03
3.2499999999999964e+00 +8.3647090668929867e+00 +0.0000000000000000e+00 +3.2499999826357633e+00 -3.0272529745176781e-02 -5.7849904658394435e-01 +5.6545236192375985e-03
3.2999999999999963e+00 +8.3647000439114905e+00 +0.0000000000000000e+00 +3.2999999818216055e+00 -3.0274080886321879e-02 -5.7852481581104798e-01 +5.6538158190119255e-03
3.3499999999999961e+00 +8.3646908830331785e+00 +0.0000000000000000e+00 +3.3499999809823726e+00 -3.0275652339440098e-02 -5.7855091607195419e-01 +5.6531158768948972e-03
3.3999999999999959e+00 +8.3646815842518283e+00 +0.0000000000000000e+00 +3.3999999801176832e+00 -3.0277243924027242e-02 -5.7857734490775403e-01 +5.6524238906840892e-03
3.4499999999999957e+00 +8.3646721475611425e+00 +0.0000000000000000e+00 +3.4499999792271558e+00 -3.0278855459578813e-02 -5.7860409985954453e-01 +5.6517399581780918e-03
3.4999999999999956e+00 +8.3646625729547424e+00 +0.0000000000000000e+00 +3.4999999783104090e+00 -3.0280486765589958e-02 -5.7863117846842804e-01 +5.6510641771765242e-03
3.5499999999999954e+00 +8.3646528604261743e+00 +0.0000000000000000e+00 +3.5499999773670612e+00 -3.0282137661555419e-02 -5.7865857827551348e-01 +5.6503966454800594e-03
3.5999999999999952e+00 +8.3646430099689066e+00 +0.0000000000000000e+00 +3.5999999763967301e+00 -3.0283807966969469e-02 -5.7868629682191419e-01 +5.6497374608904406e-03
3.6499999999999950e+00 +8.3646330215763331e+00 +0.0000000000000000e+00 +3.6499999753990342e+00 -3.0285497501325902e-02 -5.7871433164874930e-01 +5.6490867212104934e-03
3.6999999999999948e+00 +8.3646228952417712e+00 +0.0000000000000000e+00 +3.6999999743735916e+00 -3.0287206084117904e-02 -5.7874268029714193e-01 +5.6484445242441419e-03
3.7499999999999947e+00 +8.3646126309584634e+00 +0.0000000000000000e+00 +3.7499999733200204e+00 -3.0288933534838074e-02 -5.7877134030821986e-01 +5.6478109677964529e-03
3.7999999999999945e+00 +8.3646022287195798e+00 +0.0000000000000000e+00 +3.7999999722379387e+00 -3.0290679672978361e-02 -5.7880030922311565e-01 +5.6471861496736140e-03
3.8499999999999943e+00 +8.3645916885182139e+00 +0.0000000000000000e+00 +3.8499999711269646e+00 -3.0292444318029937e-02 -5.7882958458296463e-01 +5.6465701676829830e-03
3.8999999999999941e+00 +8.3645810103473881e+00 +0.0000000000000000e+00 +3.8999999699867152e+00 -3.0294227289483260e-02 -5.7885916392890557e-01 +5.6459631196330894e-03
3.9499999999999940e+00 +8.3645701942000539e+00 +0.0000000000000000e+00 +3.9499999688168090e+00 -3.0296028406827907e-02 -5.7888904480208114e-01 +5.6453651033336596e-03
3.9999999999999938e+00 +8.3645592400690862e+00 +0.0000000000000000e+00 +3.9999999676168634e+00 -3.0297847489552623e-02 -5.7891922474363711e-01 +5.6447762165956353e-03
4.0499999999999936e+00 +8.3645481479472945e+00 +0.0000000000000000e+00 +4.0499999663864958e+00 -3.0299684377200049e-02 -5.7894970118423250e-01 +5.6441965464238460e-03
4.0999999999999934e+00 +8.3645369178274116e+00 +0.0000000000000000e+00 +4.0999999651253241e+00 -3.0301538989531664e-02 -5.7898047111257689e-01 +5.6436261365946068e-03
4.1499999999999932e+00 +8.3645255497021047e+00 +0.0000000000000000e+00 +4.1499999638329657e+00 -3.0303411266364093e-02 -5.7901153140689110e-01 +5.6430650200772923e-03
4.1999999999999931e+00 +8.3645140435639718e+00 +0.0000000000000000e+00 +4.1999999625090378e+00 -3.0305301147514171e-02 -5.7904287894539597e-01 +5.6425132298416093e-03
4.2499999999999929e+00 +8.3645023994055396e+00 +0.0000000000000000e+00 +4.2499999611531578e+00 -3.0307208572798949e-02 -5.7907451060631143e-01 +5.6419707988576021e-03
4.2999999999999927e+00 +8.3644906172192677e+00 +0.0000000000000000e+00 +4.2999999597649428e+00 -3.0309133482035747e-02 -5.7910642326785644e-01 +5.6414377600956496e-03
4.3499999999999925e+00 +8.3644786969975513e+00 +0.0000000000000000e+00 +4.3499999583440099e+00 -3.0311075815042030e-02 -5.7913861380824849e-01 +5.6409141465264441e-03
4.3999999999999924e+00 +8.3644666387327167e+00 +0.0000000000000000e+00 +4.3999999568899764e+00 -3.0313035511635521e-02 -5.7917107910570420e-01 +5.6403999911209786e-03
4.4499999999999922e+00 +8.3644544424170260e+00 +0.0000000000000000e+00 +4.4499999554024594e+00 -3.0315012511634092e-02 -5.7920381603843707e-01 +5.6398953268505534e-03
4.4999999999999920e+00 +8.3644421080426756e+00 +0.0000000000000000e+00 +4.4999999538810753e+00 -3.0317006754855762e-02 -5.7923682148465860e-01 +5.6394001866867556e-03
4.5499999999999918e+00 +8.3644296356018000e+00 +0.0000000000000000e+00 +4.5499999523254413e+00 -3.0319018181118748e-02 -5.7927009232257776e-01 +5.6389146036014458e-03
4.5999999999999917e+00 +8.3644170250864676e+00 +0.0000000000000000e+00 +4.5999999507351745e+00 -3.0321046730241372e-02 -5.7930362543040004e-01 +5.6384386105667577e-03
4.6499999999999915e+00 +8.3644042764886848e+00 +0.0000000000000000e+00 +4.6499999491098913e+00 -3.0323092342042109e-02 -5.7933741768632729e-01 +5.6379722405550878e-03
4.6999999999999913e+00 +8.3643913898003994e+00 +0.0000000000000000e+00 +4.6999999474492080e+00 -3.0325154956339521e-02 -5.7937146596855782e-01 +5.6375155265390737e-03
4.7499999999999911e+00 +8.3643783650134935e+00 +0.0000000000000000e+00 +4.7499999457527418e+00 -3.0327234512952293e-02 -5.7940576715528558e-01 +5.6370685014916003e-03
4.7999999999999909e+00 +8.3643652021197923e+00 +0.0000000000000000e+00 +4.7999999440201080e+00 -3.0329330951699204e-02 -5.7944031812470009e-01 +5.6366311983857857e-03
4.8499999999999908e+00 +8.3643519011110605e+00 +0.0000000000000000e+00 +4.8499999422509239e+00 -3.0331444212399063e-02 -5.7947511575498512e-01 +5.6362036501949606e-03
4.8999999999999906e+00 +8.3643384619790044e+00 +0.0000000000000000e+00 +4.8999999404448049e+00 -3.0333574234870778e-02 -5.7951015692432073e-01 +5.6357858898926760e-03
4.9499999999999904e+00 +8.3643248847152716e+00 +0.0000000000000000e+00 +4.9499999386013682e+00 -3.0335720958933308e-02 -5.7954543851087925e-01 +5.6353779504526779e-03
4.9999999999999902e+00 +8.3643111693114527e+00 +0.0000000000000000e+00 +4.9999999367202292e+00 -3.0337884324405606e-02 -5.7958095739282856e-01 +5.6349798648489113e-03
5.0499999999999901e+00 +8.3642973157590799e+00 +0.0000000000000000e+00 +5.0499999348010043e+00 -3.0340064271106686e-02 -5.7961671044832985e-01 +5.6345916660554985e-03
5.0999999999999899e+00 +8.3642833240496337e+00 +0.0000000000000000e+00 +5.0999999328433088e+00 -3.0342260738855552e-02 -5.7965269455553714e-01 +5.6342133870467400e-03
5.1499999999999897e+00 +8.3642691941745362e+00 +0.0000000000000000e+00 +5.1499999308467590e+00 -3.0344473667471193e-02 -5.7968890659259720e-01 +5.6338450607970993e-03
5.1999999999999895e+00 +8.3642549261251542e+00 +0.0000000000000000e+00 +5.1999999288109704e+00 -3.0346702996772584e-02 -5.7972534343764981e-01 +5.6334867202811906e-03
5.2499999999999893e+00 +8.3642405198928049e+00 +0.0000000000000000e+00 +5.2499999267355593e+00 -3.0348948666578678e-02 -5.7976200196882710e-01 +5.6331383984737759e-03
5.2999999999999892e+00 +8.3642259754687505e+00 +0.0000000000000000e+00 +5.2999999246201401e+00 -3.0351210616708365e-02 -5.7979887906425187e-01 +5.6328001283497539e-03
5.3499999999999890e+00 +8.3642112928442014e+00 +0.0000000000000000e+00 +5.3499999224643293e+00 -3.0353488786980475e-02 -5.7983597160203959e-01 +5.6324719428841414e-03
5.3999999999999888e+00 +8.3641964720103150e+00 +0.0000000000000000e+00 +5.3999999202677422e+00 -3.0355783117213771e-02 -5.7987327646029596e-01 +5.6321538750520794e-03
5.4499999999999886e+00 +8.3641815129582007e+00 +0.0000000000000000e+00 +5.4499999180299934e+00 -3.0358093547226930e-02 -5.7991079051711791e-01 +5.6318459578288127e-03
5.4999999999999885e+00 +8.3641664156789162e+00 +0.0000000000000000e+00 +5.4999999157506991e+00 -3.0360420016838519e-02 -5.7994851065059261e-01 +5.6315482241896808e-03
5.5499999999999883e+00 +8.3641511801634714e+00 +0.0000000000000000e+00 +5.5499999134294740e+00 -3.0362762465866999e-02 -5.7998643373879710e-01 +5.6312607071101126e-03
5.5999999999999881e+00 +8.3641358064028264e+00 +0.0000000000000000e+00 +5.5999999110659324e+00 -3.0365120834130691e-02 -5.8002455665979802e-01 +5.6309834395656122e-03
5.6499999999999879e+00 +8.3641202943878952e+00 +0.0000000000000000e+00 +5.6499999086596899e+00 -3.0367495061447782e-02 -5.8006287629165110e-01 +5.6307164545317499e-03
5.6999999999999877e+00 +8.3641046441095437e+00 +0.0000000000000000e+00 +5.6999999062103619e+00 -3.0369885087636321e-02 -5.8010138951240175e-01 +5.6304597849841653e-03
5.7499999999999876e+00 +8.3640888555585917e+00 +0.0000000000000000e+00 +5.7499999037175629e+00 -3.0372290852514156e-02 -5.8014009320008297e-01 +5.6302134638985327e-03
5.7999999999999874e+00 +8.3640729287258146e+00 +0.0000000000000000e+00 +5.7999999011809065e+00 -3.0374712295898974e-02 -5.8017898423271630e-01 +5.6299775242505731e-03
5.8499999999999872e+00 +8.3640568636019434e+00 +0.0000000000000000e+00 +5.8499998986000081e+00 -3.0377149357608251e-02 -5.8021805948831118e-01 +5.6297519990160354e-03
5.8999999999999870e+00 +8.3640406601776629e+00 +0.0000000000000000e+00 +5.8999998959744824e+00 -3.0379601977459265e-02 -5.8025731584486451e-01 +5.6295369211706893e-03
