# multipoles
# s[mm] polynom_b[n=0][T/m^n] polynom_b[n=1][T/m^n] polynom_b[n=2][T/m^n] polynom_b[n=3][T/m^n] polynom_b[n=4][T/m^n] polynom_b[n=5][T/m^n] polynom_b[n=6][T/m^n] 
-0.0000000000000000e+00 -5.5036164589748637e-01 +7.2043308100976207e+00 +6.6102900782855762e+00 +1.2437851897069935e+01 -1.4948349276808642e+04 -4.1509874169722811e+05 +8.0808797298363239e+07 
-5.0000000000000003e-02 -5.5036236044899534e-01 +7.2043636045256276e+00 +6.6160032836858065e+00 +1.2611593019977102e+01 -1.5104271384791557e+04 -4.1514897934663005e+05 +8.1742607624127567e+07 
-1.0000000000000001e-01 -5.5036346343029685e-01 +7.2044178585450087e+00 +6.6215063117701227e+00 +1.2764428662628577e+01 -1.5267870590296698e+04 -4.1499095792375680e+05 +8.2728891976646408e+07 
-1.4999999999999999e-01 -5.5036495390755968e-01 +7.2044935036425359e+00 +6.6267849948232520e+00 +1.2896990708070552e+01 -1.5438688436117845e+04 -4.1463114783376962e+05 +8.3764553539661229e+07 
-2.0000000000000001e-01 -5.5036683094704086e-01 +7.2045904713064628e+00 +6.6318251655792020e+00 +1.3009911026051283e+01 -1.5616266472765610e+04 -4.1407601944265002e+05 +8.4846495531131074e+07 
-2.5000000000000000e-01 -5.5036909361490838e-01 +7.2047086930238420e+00 +6.6366126571099233e+00 +1.3103821568132174e+01 -1.5800146264387779e+04 -4.1333204378888116e+05 +8.5971621275285855e+07 
-2.9999999999999999e-01 -5.5037174097743979e-01 +7.2048481002857452e+00 +6.6411333045525378e+00 +1.3179354161542021e+01 -1.5989869427878230e+04 -4.1240569093015057e+05 +8.7136834438383803e+07 
-3.4999999999999998e-01 -5.5037477210090158e-01 +7.2050086245810228e+00 +6.6453729379926036e+00 +1.3237140746667487e+01 -1.6184977442382879e+04 -4.1130343184008205e+05 +8.8339037750847533e+07 
-4.0000000000000002e-01 -5.5037818605152566e-01 +7.2051901974010564e+00 +6.6493173923009010e+00 +1.3277813199257430e+01 -1.6385011917172760e+04 -4.1003173695909232e+05 +8.9575134823487714e+07 
-4.5000000000000001e-01 -5.5038198189564214e-01 +7.2053927502346840e+00 +6.6529525032342232e+00 +1.3302003537309622e+01 -1.6589514489526508e+04 -4.0859707796645566e+05 +9.0842029470562026e+07 
-5.0000000000000000e-01 -5.5038615869953644e-01 +7.2056162145772147e+00 +6.6562640999129821e+00 +1.3310343529530464e+01 -1.6798026612048285e+04 -4.0700592441390618e+05 +9.2136624235250056e+07 
-5.5000000000000004e-01 -5.5039071552952767e-01 +7.2058605219178453e+00 +6.6592380190206697e+00 +1.3303465252414377e+01 -1.7010089943730116e+04 -4.0526474849743629e+05 +9.3455823064139694e+07 
-5.9999999999999998e-01 -5.5039565145200675e-01 +7.2061256037517456e+00 +6.6618600933729439e+00 +1.3282000536275836e+01 -1.7225246039557587e+04 -4.0338002027677023e+05 +9.4796529199501604e+07 
-6.5000000000000002e-01 -5.5040096553330586e-01 +7.2064113915719936e+00 +6.6641161563878217e+00 +1.3246581347633839e+01 -1.7443036469899675e+04 -4.0135821099426958e+05 +9.6155645981671423e+07 
-6.9999999999999996e-01 -5.5040665683978351e-01 +7.2067178168746233e+00 +6.6659920426100694e+00 +1.3197839557085123e+01 -1.7663002834725685e+04 -3.9920579109082039e+05 +9.7530076952316239e+07 
-7.5000000000000000e-01 -5.5041272443784706e-01 +7.2070448111542174e+00 +6.6674735838293255e+00 +1.3136407129094192e+01 -1.7884686660612966e+04 -3.9692923180632270e+05 +9.8916725152495265e+07 
-8.0000000000000004e-01 -5.5041916739393071e-01 +7.2073923059094502e+00 +6.6685466176652923e+00 +1.3062915872754255e+01 -1.8107629629483316e+04 -3.9453500303062808e+05 +1.0031249466902424e+08 
-8.4999999999999998e-01 -5.5042598477444082e-01 +7.2077602326341479e+00 +6.6691969744016282e+00 +1.2977997841436441e+01 -1.8331373228054719e+04 -3.9202957672448095e+05 +1.0171428827761823e+08 
-9.0000000000000002e-01 -5.5043317564582783e-01 +7.2081485228276430e+00 +6.6694104888652896e+00 +1.2882284875544373e+01 -1.8555459063029604e+04 -3.8941942303523881e+05 +1.0311900955593006e+08 
-9.4999999999999996e-01 -5.5044073907452729e-01 +7.2085571079910933e+00 +6.6691729952199941e+00 +1.2776408777089244e+01 -1.8779428723834295e+04 -3.8671101179943839e+05 +1.0452356196376148e+08 
-1.0000000000000000e+00 -5.5044867412705778e-01 +7.2089859196224948e+00 +6.6684703258188094e+00 +1.2661001501554260e+01 -1.9002823753283552e+04 -3.8391081413746759e+05 +1.0592484865430053e+08 
-1.0500000000000000e+00 -5.5045697986989572e-01 +7.2094348892225328e+00 +6.6672883157249396e+00 +1.2536694909690306e+01 -1.9225185759186985e+04 -3.8102530030241830e+05 +1.0731977319050507e+08 
-1.1000000000000001e+00 -5.5046565536952563e-01 +7.2099039482937215e+00 +6.6656127997015941e+00 +1.2404120830808830e+01 -1.9446056351608437e+04 -3.7806094034285127e+05 +1.0870523918702725e+08 
-1.1499999999999999e+00 -5.5047469969248952e-01 +7.2103930283397109e+00 +6.6634296098660828e+00 +1.2263911055977866e+01 -1.9664977061112142e+04 -3.7502420393525285e+05 +1.1007814969122395e+08 
-1.2000000000000000e+00 -5.5048411190531699e-01 +7.2109020608614749e+00 +6.6607245780239124e+00 +1.2116697510680448e+01 -1.9881489410669146e+04 -3.7192156182701542e+05 +1.1143540770183492e+08 
-1.2500000000000000e+00 -5.5049389107458446e-01 +7.2114309773656498e+00 +6.6574835418998530e+00 +1.1963111921372825e+01 -2.0095135086720820e+04 -3.6875948315065628e+05 +1.1277391733544391e+08 
-1.3000000000000000e+00 -5.5050403626684519e-01 +7.2119797093570019e+00 +6.6536923318376369e+00 +1.1803786108574092e+01 -2.0305455572160365e+04 -3.6554443775741267e+05 +1.1409058131833690e+08 
-1.3500000000000001e+00 -5.5051454654869436e-01 +7.2125481883437086e+00 +6.6493367831724637e+00 +1.1639351762654027e+01 -2.0511992485937928e+04 -3.6228289436797204e+05 +1.1538230329885477e+08 
-1.3999999999999999e+00 -5.5052542098669943e-01 +7.2131363458317681e+00 +6.6444027280235352e+00 +1.1470440710218437e+01 -2.0714287358824771e+04 -3.5898132287240942e+05 +1.1664598632476084e+08 
-1.4500000000000000e+00 -5.5053665864752932e-01 +7.2137441133303897e+00 +6.6388759999507512e+00 +1.1297684640752330e+01 -2.0911881761898137e+04 -3.5564619193140703e+05 +1.1787853372295569e+08 
-1.5000000000000000e+00 -5.5054825859776724e-01 +7.2143714223492061e+00 +6.6327424330117370e+00 +1.1121715262946415e+01 -2.1104317277084108e+04 -3.5228397035733610e+05 +1.1907684888289107e+08 
-1.5500000000000000e+00 -5.5056021990408210e-01 +7.2150182044016242e+00 +6.6259878598081929e+00 +1.0943164142176700e+01 -2.1291135447037319e+04 -3.4890112573820417e+05 +1.2023783492868069e+08 
-1.6000000000000001e+00 -5.5057254163312597e-01 +7.2156843909964286e+00 +6.6185981121509077e+00 +1.0762663062994001e+01 -2.1471877795364871e+04 -3.4550412746457645e+05 +1.2135839486602503e+08 
-1.6499999999999999e+00 -5.5058522285157840e-01 +7.2163699136470330e+00 +6.6105590235719198e+00 +1.0580843617329156e+01 -2.1646085886870962e+04 -3.4209944321936788e+05 +1.2243543195797107e+08 
-1.7000000000000000e+00 -5.5059826262614098e-01 +7.2170747038702370e+00 +6.6018564291166690e+00 +1.0398337296031020e+01 -2.1813301329993774e+04 -3.3869353988780180e+05 +1.2346584977487800e+08 
-1.7500000000000000e+00 -5.5061166002349760e-01 +7.2177986931806464e+00 +6.5924761581630502e+00 +1.0215775690099367e+01 -2.1973065581092465e+04 -3.3529288511182641e+05 +1.2444655086148329e+08 
-1.8000000000000000e+00 -5.5062541411035371e-01 +7.2185418130945642e+00 +6.5824040453530577e+00 +1.0033790340161204e+01 -2.2124920232483277e+04 -3.3190394606542768e+05 +1.2537443866106649e+08 
-1.8500000000000001e+00 -5.5063952395345517e-01 +7.2193039951288984e+00 +6.5716259212674064e+00 +9.8530127668017276e+00 -2.2268406773855771e+04 -3.2853318969103403e+05 +1.2624641594860041e+08 
-1.8999999999999999e+00 -5.5065398861958692e-01 +7.2200851708054508e+00 +6.5601276202240779e+00 +9.6740743149139856e+00 -2.2403066788460907e+04 -3.2518708146453241e+05 +1.2705938610446896e+08 
-1.9500000000000000e+00 -5.5066880717544475e-01 +7.2208852716419907e+00 +6.5478949719625410e+00 +9.4976065193295085e+00 -2.2528441737959260e+04 -3.2187208840104111e+05 +1.2781025169906946e+08 
-2.0000000000000000e+00 -5.5068397868783281e-01 +7.2217042291625049e+00 +6.5349138097166790e+00 +9.3242406506106548e+00 -2.2644073181254327e+04 -3.1859467519253626e+05 +1.2849591596724692e+08 
-2.0499999999999998e+00 -5.5069950202531837e-01 +7.2225419622998048e+00 +6.5211741276603412e+00 +9.1544334102241880e+00 -2.2749617968833827e+04 -3.1535975715206028e+05 +1.2911409165175986e+08 
-2.1000000000000001e+00 -5.5071537526168424e-01 +7.2233983401414052e+00 +6.5066826729210892e+00 +8.9880119090469162e+00 -2.2845195555899849e+04 -3.1216659054498444e+05 +1.2966573021747200e+08 
-2.1499999999999999e+00 -5.5073159627143953e-01 +7.2242732156186564e+00 +6.4914506294967174e+00 +8.8246583725204513e+00 -2.2931041623894569e+04 -3.0901315686697676e+05 +1.3015259519181198e+08 
-2.2000000000000002e+00 -5.5074816292916695e-01 +7.2251664416715116e+00 +6.4754891772084333e+00 +8.6640546826320950e+00 -2.3007391729051466e+04 -3.0589743480883673e+05 +1.3057644921223375e+08 
-2.2500000000000000e+00 -5.5076507310944955e-01 +7.2260778712350877e+00 +6.4588094991020073e+00 +8.5058829344850508e+00 -2.3074481522333452e+04 -3.0281740481349232e+05 +1.3093905558764340e+08 
-2.2999999999999998e+00 -5.5078232468689892e-01 +7.2270073572504296e+00 +6.4414227768800165e+00 +8.3498250059355250e+00 -2.3132546618090324e+04 -2.9977104557592515e+05 +1.3124217737596631e+08 
-2.3500000000000001e+00 -5.5079991553606689e-01 +7.2279547526549495e+00 +6.4233401933359655e+00 +8.1955629454605603e+00 -2.3181822658622983e+04 -2.9675633722502016e+05 +1.3148757782247448e+08 
-2.3999999999999999e+00 -5.5081784353158370e-01 +7.2289199103883730e+00 +6.4045729287343764e+00 +8.0427787137280813e+00 -2.3222545212741174e+04 -2.9377125914107566e+05 +1.3167701965494719e+08 
-2.4500000000000002e+00 -5.5083610654804716e-01 +7.2299026833896827e+00 +6.3851321657888214e+00 +7.8911543368275892e+00 -2.3254949921317610e+04 -2.9081379133898701e+05 +1.3181226611179778e+08 
-2.5000000000000000e+00 -5.5085470246014923e-01 +7.2309029246005982e+00 +6.3650290878311226e+00 +7.7403717248184032e+00 -2.3279272439773766e+04 -2.8788191282793501e+05 +1.3189508052170447e+08 
-2.5499999999999998e+00 -5.5087362914249605e-01 +7.2319204869612035e+00 +6.3442748749870246e+00 +7.5901128915883120e+00 -2.3295748336605528e+04 -2.8497360355672741e+05 +1.3192722562655711e+08 
-2.6000000000000001e+00 -5.5089288446972684e-01 +7.2329552234141694e+00 +6.3228807113435117e+00 +7.4400597570566758e+00 -2.3304613284661267e+04 -2.8208684271654562e+05 +1.3191046486529908e+08 
-2.6499999999999999e+00 -5.5091246631655078e-01 +7.2340069869005861e+00 +6.3008577778432739e+00 +7.2898943238600591e+00 -2.3306102874654040e+04 -2.7921961022279295e+05 +1.3184656113296179e+08 
-2.7000000000000002e+00 -5.5093237255758831e-01 +7.2350756303641530e+00 +6.2782172568195493e+00 +7.1392985077207616e+00 -2.3300452734242230e+04 -2.7636988529815263e+05 +1.3173727756918272e+08 
-2.7500000000000000e+00 -5.5095260106755106e-01 +7.2361610067480164e+00 +6.2549703303897743e+00 +6.9879542546100017e+00 -2.3287898481217573e+04 -2.7353564743565460e+05 +1.3158437724116462e+08 
-2.7999999999999998e+00 -5.5097314972115519e-01 +7.2372629689959957e+00 +6.2311281807817469e+00 +6.8355435053089497e+00 -2.3268675741425726e+04 -2.7071487614452821e+05 +1.3138962328156921e+08 
-2.8500000000000001e+00 -5.5099401639305967e-01 +7.2383813700485264e+00 +6.2067019915817943e+00 +6.6817483660813295e+00 -2.3243020170833563e+04 -2.6790555236257910e+05 +1.3115477900871839e+08 
-2.8999999999999999e+00 -5.5101519895799367e-01 +7.2395160628546531e+00 +6.1817029437142157e+00 +6.5262505917278393e+00 -2.3211167357893675e+04 -2.6510565412681026e+05 +1.3088160730201660e+08 
-2.9500000000000002e+00 -5.5103669529068411e-01 +7.2406669003583284e+00 +6.1561422211118817e+00 +6.3687321711613496e+00 -2.3173352973273468e+04 -2.6231316148893791e+05 +1.3057187159956041e+08 
-3.0000000000000000e+00 -5.5105850326585504e-01 +7.2418337355014479e+00 +6.1300310049861411e+00 +6.2088751932093373e+00 -2.3129812607167489e+04 -2.5952605535508835e+05 +1.3022733477202551e+08 
-3.0499999999999998e+00 -5.5108062075822195e-01 +7.2430164212335404e+00 +6.1033804787478996e+00 +6.0463614536297579e+00 -2.3080781913556773e+04 -2.5674231428951453e+05 +1.2984976013770287e+08 
-3.1000000000000001e+00 -5.5110304564258561e-01 +7.2442148104983835e+00 +6.0762018253089485e+00 +5.8808729865045439e+00 -2.3026496532481851e+04 -2.5395991883389227e+05 +1.2944091092328562e+08 
-3.1499999999999999e+00 -5.5112577579367084e-01 +7.2454287562427551e+00 +6.0485062269835721e+00 +5.7120917307915215e+00 -2.2967192086453262e+04 -2.5117684882401975e+05 +1.2900255022976895e+08 
-3.2000000000000002e+00 -5.5114880908624198e-01 +7.2466581114126924e+00 +6.0203048667187398e+00 +5.5396996717390063e+00 -2.2903104214244820e+04 -2.4839108454797740e+05 +1.2853644126897921e+08 
-3.2500000000000000e+00 -5.5117214339504805e-01 +7.2479027289560101e+00 +5.9916089282984535e+00 +5.3633787338978740e+00 -2.2834468576591476e+04 -2.4560060583509746e+05 +1.2804434739900871e+08 
-3.2999999999999998e+00 -5.5119577659488905e-01 +7.2491624618185639e+00 +5.9624295943610637e+00 +5.1828109395983102e+00 -2.2761520807841331e+04 -2.4280339339976825e+05 +1.2752803181827122e+08 
-3.3500000000000001e+00 -5.5121970656057351e-01 +7.2504371629486428e+00 +5.9327780467972229e+00 +4.9976782191803890e+00 -2.2684496511918387e+04 -2.3999742723267077e+05 +1.2698925748466942e+08 
-3.3999999999999999e+00 -5.5124393116685189e-01 +7.2517266852946607e+00 +5.9026654709885404e+00 +4.8076625259726740e+00 -2.2603631395073742e+04 -2.3718068761519436e+05 +1.2642978807719213e+08 
-3.4500000000000002e+00 -5.5126844828855248e-01 +7.2530308818015428e+00 +5.8721030506984224e+00 +4.6124459556630120e+00 -2.2519161118310651e+04 -2.3435115602205656e+05 +1.2585138696653166e+08 
-3.5000000000000000e+00 -5.5129325580046484e-01 +7.2543496054192920e+00 +5.8411019660339489e+00 +4.4117104308523656e+00 -2.2431321239396606e+04 -2.3150681266130920e+05 +1.2525581681022176e+08 
-3.5499999999999998e+00 -5.5131835157742282e-01 +7.2556827090958311e+00 +5.8096734042357436e+00 +4.2051379559963191e+00 -2.2340347511606804e+04 -2.2864563839611568e+05 +1.2464484159931900e+08 
-3.6000000000000001e+00 -5.5134373349426347e-01 +7.2570300457781496e+00 +5.7778285473554662e+00 +3.9924105898293551e+00 -2.2246475547449034e+04 -2.2576561464613213e+05 +1.2402022437473048e+08 
-3.6499999999999999e+00 -5.5136939942573182e-01 +7.2583914684172255e+00 +5.7455785787063798e+00 +3.7732102495229540e+00 -2.2149940991645512e+04 -2.2286472173411347e+05 +1.2338372838661814e+08 
-3.6999999999999900e+00 -5.5139534724674788e-01 +7.2597668299603848e+00 +5.7129346837214801e+00 +3.5472190185789487e+00 -2.2050979548407748e+04 -2.1994094148628952e+05 +1.2273711730300939e+08 
-3.7499999999999898e+00 -5.5142157483212184e-01 +7.2611559833557031e+00 +5.6799080461646758e+00 +3.3141189551954331e+00 -2.1949826873137219e+04 -2.1699225554333604e+05 +1.2208215444309516e+08 
-3.7999999999999901e+00 -5.5144808005666979e-01 +7.2625587815533406e+00 +5.6465098499742403e+00 +3.0735920436636261e+00 -2.1846718628733121e+04 -2.1401664501157930e+05 +1.2142060319492003e+08 
-3.8499999999999899e+00 -5.5147486079529207e-01 +7.2639750775009384e+00 +5.6127512787830627e+00 +2.8253203891875569e+00 -2.1741890465681034e+04 -2.1101209211351207e+05 +1.2075422684771109e+08 
-3.8999999999999901e+00 -5.5150191492279599e-01 +7.2654047241465989e+00 +5.5786435182513694e+00 +2.5689861017655176e+00 -2.1635578093765907e+04 -2.0797657921850181e+05 +1.2008478911024018e+08 
-3.9499999999999900e+00 -5.5152924031409323e-01 +7.2668475744408489e+00 +5.5441977525785306e+00 +2.3042711822548023e+00 -2.1528017177232367e+04 -2.0490808782298429e+05 +1.1941405336162436e+08 
-3.9999999999999898e+00 -5.5155683484399221e-01 +7.2683034813317011e+00 +5.5094251660563973e+00 +2.0308577776249677e+00 -2.1419443388930307e+04 -2.0180460076816217e+05 +1.1874378307125002e+08 
-4.0499999999999901e+00 -5.5158469629240348e-01 +7.2697722849496529e+00 +5.4743370439765799e+00 +1.7486339818659131e+00 -2.1310068987009767e+04 -1.9866532313013531e+05 +1.1807551446115507e+08 
-4.0999999999999899e+00 -5.5161282205844553e-01 +7.2712537701964228e+00 +5.4389456113168224e+00 +1.4582084758689842e+00 -2.1200017935187712e+04 -1.9549355752658722e+05 +1.1740990032512163e+08 
-4.1499999999999897e+00 -5.5164120944572959e-01 +7.2727477071705380e+00 +5.4032634765113592e+00 +1.1603428393355402e+00 -2.1089393150946085e+04 -1.9229342767718024e+05 +1.1674737651940733e+08 
-4.1999999999999904e+00 -5.5166985575802008e-01 +7.2742538659637530e+00 +5.3673032470186435e+00 +8.5579889932215303e-01 -2.0978297526775114e+04 -1.8906905937781418e+05 +1.1608837874525402e+08 
-4.2499999999999902e+00 -5.5169875829900583e-01 +7.2757720166739022e+00 +5.3310775357737681e+00 +5.4533823437039819e-01 -2.0866834103334226e+04 -1.8582457640155495e+05 +1.1543334370286506e+08 
-4.2999999999999901e+00 -5.5172791437236257e-01 +7.2773019293926975e+00 +5.2945989483520632e+00 +2.2972266340576247e-01 -2.0755105723180866e+04 -1.8256410449886462e+05 +1.1478270675874390e+08 
-4.3499999999999899e+00 -5.5175732128179533e-01 +7.2788433742179306e+00 +5.2578800959766729e+00 -9.0286276215007788e-02 -2.0643215384089210e+04 -1.7929176700909436e+05 +1.1413690433486775e+08 
-4.3999999999999897e+00 -5.5178697633096341e-01 +7.2803961212398507e+00 +5.2209335865666029e+00 -4.1392673317619660e-01 -2.0531265996098387e+04 -1.7601168991992340e+05 +1.1349637226690069e+08 
-4.4499999999999904e+00 -5.5181687682361180e-01 +7.2819599405515545e+00 +5.1837720288837525e+00 -7.4043700745262886e-01 -2.0419360491861218e+04 -1.7272799788549426e+05 +1.1286154654384702e+08 
-4.4999999999999902e+00 -5.5184702006339437e-01 +7.2835346022436616e+00 +5.1464080306521636e+00 -1.0690552971050835e+00 -2.0307601782573583e+04 -1.6944481643916463e+05 +1.1223286303122556e+08 
-4.5499999999999901e+00 -5.5187740335397206e-01 +7.2851198764088974e+00 +5.1088542005899891e+00 -1.3990199101691516e+00 -2.0196092801092731e+04 -1.6616627016066661e+05 +1.1161075771941185e+08 
-4.5999999999999899e+00 -5.5190802399906014e-01 +7.2867155331349336e+00 +5.0711231476292609e+00 -1.7295689677795372e+00 -2.0084936489834097e+04 -1.6289648514705949e+05 +1.1099566668241271e+08 
-4.6499999999999897e+00 -5.5193887930232854e-01 +7.2883213425112441e+00 +5.0332274790995735e+00 -2.0599406859457354e+00 -1.9974235756203965e+04 -1.5963958668688076e+05 +1.1038802578126277e+08 
-4.6999999999999904e+00 -5.5196996656748609e-01 +7.2899370746268444e+00 +4.9951798035690675e+00 -2.3893732836139279e+00 -1.9864093534199670e+04 -1.5639970000537811e+05 +1.0978827103509451e+08 
-4.7499999999999902e+00 -5.5200128309814656e-01 +7.2915624995664574e+00 +4.9569927280663784e+00 -2.7171048121192265e+00 -1.9754612722169841e+04 -1.5318095172820633e+05 +1.0919683824160741e+08 
-4.7999999999999901e+00 -5.5203282619800964e-01 +7.2931973874181288e+00 +4.9186788614620554e+00 -3.0423734943256937e+00 -1.9645896271750458e+04 -1.4998746699705164e+05 +1.0861416356969900e+08 
-4.8499999999999899e+00 -5.5206459317070689e-01 +7.2948415082662157e+00 +4.8802508098862791e+00 -3.3644174247512746e+00 -1.9538047057446878e+04 -1.4682337197821640e+05 +1.0804068265672573e+08 
-4.8999999999999897e+00 -5.5209658131997352e-01 +7.2964946321940261e+00 +4.8417211802639324e+00 -3.6824746616798767e+00 -1.9431167981639202e+04 -1.4369279318941169e+05 +1.0747683135120413e+08 
-4.9499999999999904e+00 -5.5212878794937348e-01 +7.2981565292851123e+00 +4.8031025827899958e+00 -3.9957833266020812e+00 -1.9325362035894690e+04 -1.4059985644998762e+05 +1.0692304610308681e+08 
-4.9999999999999902e+00 -5.5216121036261867e-01 +7.2998269696209350e+00 +4.7644076213916069e+00 -4.3035814543973778e+00 -1.9220732044556342e+04 -1.3754868839701187e+05 +1.0637976224490117e+08 
-5.0499999999999901e+00 -5.5219384586564135e-01 +7.3015057149315465e+00 +4.7256493328559710e+00 -4.6051158656509994e+00 -1.9117381018716773e+04 -1.3454341235609323e+05 +1.0584741662810431e+08 
