# trajectory
# s[mm] rx[mm] ry[mm] rz[mm] px[rad] py[rad] pz[rad]
0.0000000000000000e+00 +8.5980000000000008e+00 +0.0000000000000000e+00 +0.0000000000000000e+00 +0.0000000000000000e+00 +0.0000000000000000e+00 +1.0000000000000000e+00
5.0000000000000003e-02 +8.5979999311458215e+00 +0.0000000000000000e+00 +4.9999999999936789e-02 -2.7541669125842783e-06 +0.0000000000000000e+00 +9.9999999999620726e-01
1.0000000000000001e-01 +8.5979997245833193e+00 +0.0000000000000000e+00 +9.9999999999494299e-02 -5.5083332054888612e-06 +0.0000000000000000e+00 +9.9999999998482914e-01
1.5000000000000002e-01 +8.5979993803124763e+00 +0.0000000000000000e+00 +1.4999999999829328e-01 -8.2625008765917672e-06 +0.0000000000000000e+00 +9.9999999996586553e-01
2.0000000000000001e-01 +8.5979988983331754e+00 +0.0000000000000000e+00 +1.9999999999595444e-01 -1.1016671919661311e-05 +0.0000000000000000e+00 +9.9999999993931643e-01
2.5000000000000000e-01 +8.5979982786451963e+00 +0.0000000000000000e+00 +2.4999999999209849e-01 -1.3770848324356202e-05 +0.0000000000000000e+00 +9.9999999990518185e-01
2.9999999999999999e-01 +8.5979975212482209e+00 +0.0000000000000000e+00 +2.9999999998634619e-01 -1.6525032076225633e-05 +0.0000000000000000e+00 +9.9999999986346166e-01
3.4999999999999998e-01 +8.5979966261418337e+00 +0.0000000000000000e+00 +3.4999999997831821e-01 -1.9279225156709381e-05 +0.0000000000000000e+00 +9.9999999981415577e-01
3.9999999999999997e-01 +8.5979955933255177e+00 +0.0000000000000000e+00 +3.9999999996763530e-01 -2.2033429543137896e-05 +0.0000000000000000e+00 +9.9999999975726406e-01
4.4999999999999996e-01 +8.5979944227986582e+00 +0.0000000000000000e+00 +4.4999999995391815e-01 -2.4787647208732393e-05 +0.0000000000000000e+00 +9.9999999969278630e-01
4.9999999999999994e-01 +8.5979931145605430e+00 +0.0000000000000000e+00 +4.9999999993678745e-01 -2.7541880122604936e-05 +0.0000000000000000e+00 +9.9999999962072250e-01
5.4999999999999993e-01 +8.5979916686103603e+00 +0.0000000000000000e+00 +5.4999999991586390e-01 -3.0296130249758545e-05 +0.0000000000000000e+00 +9.9999999954107233e-01
5.9999999999999998e-01 +8.5979900849471989e+00 +0.0000000000000000e+00 +5.9999999989076824e-01 -3.3050399551087274e-05 +0.0000000000000000e+00 +9.9999999945383566e-01
6.5000000000000002e-01 +8.5979883635700531e+00 +0.0000000000000000e+00 +6.4999999986112100e-01 -3.5804689983376306e-05 +0.0000000000000000e+00 +9.9999999935901218e-01
7.0000000000000007e-01 +8.5979865044778165e+00 +0.0000000000000000e+00 +6.9999999982654293e-01 -3.8559003499302046e-05 +0.0000000000000000e+00 +9.9999999925660177e-01
7.5000000000000011e-01 +8.5979845076692865e+00 +0.0000000000000000e+00 +7.4999999978665466e-01 -4.1313342047432196e-05 +0.0000000000000000e+00 +9.9999999914660398e-01
8.0000000000000016e-01 +8.5979823731431626e+00 +0.0000000000000000e+00 +7.9999999974107683e-01 -4.4067707572225865e-05 +0.0000000000000000e+00 +9.9999999902901870e-01
8.5000000000000020e-01 +8.5979801008980470e+00 +0.0000000000000000e+00 +8.4999999968943007e-01 -4.6822102014033634e-05 +0.0000000000000000e+00 +9.9999999890384550e-01
9.0000000000000024e-01 +8.5979776909324457e+00 +0.0000000000000000e+00 +8.9999999963133492e-01 -4.9576527309097653e-05 +0.0000000000000000e+00 +9.9999999877108414e-01
9.5000000000000029e-01 +8.5979751432447689e+00 +0.0000000000000000e+00 +9.4999999956641201e-01 -5.2330985389551743e-05 +0.0000000000000000e+00 +9.9999999863073419e-01
1.0000000000000002e+00 +8.5979724578333290e+00 +0.0000000000000000e+00 +9.9999999949428187e-01 -5.5085478183421454e-05 +0.0000000000000000e+00 +9.9999999848279530e-01
1.0500000000000003e+00 +8.5979696346963408e+00 +0.0000000000000000e+00 +1.0499999994145650e+00 -5.7840007614624170e-05 +0.0000000000000000e+00 +9.9999999832726705e-01
1.1000000000000003e+00 +8.5979666738319249e+00 +0.0000000000000000e+00 +1.0999999993268821e+00 -6.0594575602969195e-05 +0.0000000000000000e+00 +9.9999999816414897e-01
1.1500000000000004e+00 +8.5979635752381061e+00 +0.0000000000000000e+00 +1.1499999992308534e+00 -6.3349184064157815e-05 +0.0000000000000000e+00 +9.9999999799344075e-01
1.2000000000000004e+00 +8.5979603389128130e+00 +0.0000000000000000e+00 +1.1999999991260997e+00 -6.6103834909783427e-05 +0.0000000000000000e+00 +9.9999999781514182e-01
1.2500000000000004e+00 +8.5979569648538767e+00 +0.0000000000000000e+00 +1.2499999990122412e+00 -6.8858530047331571e-05 +0.0000000000000000e+00 +9.9999999762925174e-01
1.3000000000000005e+00 +8.5979534530590378e+00 +0.0000000000000000e+00 +1.2999999988888984e+00 -7.1613271380180054e-05 +0.0000000000000000e+00 +9.9999999743576995e-01
1.3500000000000005e+00 +8.5979498035259372e+00 +0.0000000000000000e+00 +1.3499999987556917e+00 -7.4368060807598991e-05 +0.0000000000000000e+00 +9.9999999723469601e-01
1.4000000000000006e+00 +8.5979460162521235e+00 +0.0000000000000000e+00 +1.3999999986122413e+00 -7.7122900224750943e-05 +0.0000000000000000e+00 +9.9999999702602937e-01
1.4500000000000006e+00 +8.5979420912350495e+00 +0.0000000000000000e+00 +1.4499999984581680e+00 -7.9877791522690945e-05 +0.0000000000000000e+00 +9.9999999680976948e-01
1.5000000000000007e+00 +8.5979380284720754e+00 +0.0000000000000000e+00 +1.4999999982930918e+00 -8.2632736588366613e-05 +0.0000000000000000e+00 +9.9999999658591565e-01
1.5500000000000007e+00 +8.5979338279604640e+00 +0.0000000000000000e+00 +1.5499999981166330e+00 -8.5387737304618225e-05 +0.0000000000000000e+00 +9.9999999635446735e-01
1.6000000000000008e+00 +8.5979294896973855e+00 +0.0000000000000000e+00 +1.5999999979284119e+00 -8.8142795550178805e-05 +0.0000000000000000e+00 +9.9999999611542401e-01
1.6500000000000008e+00 +8.5979250136799177e+00 +0.0000000000000000e+00 +1.6499999977280488e+00 -9.0897913199674185e-05 +0.0000000000000000e+00 +9.9999999586878485e-01
1.7000000000000008e+00 +8.5979203999050444e+00 +0.0000000000000000e+00 +1.6999999975151638e+00 -9.3653092123623094e-05 +0.0000000000000000e+00 +9.9999999561454933e-01
1.7500000000000009e+00 +8.5979156483696535e+00 +0.0000000000000000e+00 +1.7499999972893772e+00 -9.6408334188437234e-05 +0.0000000000000000e+00 +9.9999999535271666e-01
1.8000000000000009e+00 +8.5979107590705421e+00 +0.0000000000000000e+00 +1.7999999970503089e+00 -9.9163641256421362e-05 +0.0000000000000000e+00 +9.9999999508328619e-01
1.8500000000000010e+00 +8.5979057320044134e+00 +0.0000000000000000e+00 +1.8499999967975791e+00 -1.0191901518577336e-04 +0.0000000000000000e+00 +9.9999999480625723e-01
1.9000000000000010e+00 +8.5979005671678781e+00 +0.0000000000000000e+00 +1.8999999965308079e+00 -1.0467445783058432e-04 +0.0000000000000000e+00 +9.9999999452162902e-01
1.9500000000000011e+00 +8.5978952645574545e+00 +0.0000000000000000e+00 +1.9499999962496153e+00 -1.0742997104083863e-04 +0.0000000000000000e+00 +9.9999999422940078e-01
2.0000000000000009e+00 +8.5978898241695667e+00 +0.0000000000000000e+00 +1.9999999959536212e+00 -1.1018555666241402e-04 +0.0000000000000000e+00 +9.9999999392957162e-01
2.0500000000000007e+00 +8.5978842460005502e+00 +0.0000000000000000e+00 +2.0499999956424455e+00 -1.1294121653678953e-04 +0.0000000000000000e+00 +9.9999999362214087e-01
2.1000000000000005e+00 +8.5978785300466445e+00 +0.0000000000000000e+00 +2.0999999953157085e+00 -1.1569695249783223e-04 +0.0000000000000000e+00 +9.9999999330710765e-01
2.1500000000000004e+00 +8.5978726763040019e+00 +0.0000000000000000e+00 +2.1499999949730295e+00 -1.1845276636858389e-04 +0.0000000000000000e+00 +9.9999999298447118e-01
2.2000000000000002e+00 +8.5978666847686789e+00 +0.0000000000000000e+00 +2.1999999946140290e+00 -1.2120865996096891e-04 +0.0000000000000000e+00 +9.9999999265423045e-01
2.2500000000000000e+00 +8.5978605554366467e+00 +0.0000000000000000e+00 +2.2499999942383262e+00 -1.2396463507579442e-04 +0.0000000000000000e+00 +9.9999999231638470e-01
2.2999999999999998e+00 +8.5978542883037825e+00 +0.0000000000000000e+00 +2.2999999938455407e+00 -1.2672069350275030e-04 +0.0000000000000000e+00 +9.9999999197093303e-01
2.3499999999999996e+00 +8.5978478833658780e+00 +0.0000000000000000e+00 +2.3499999934352926e+00 -1.2947683702040923e-04 +0.0000000000000000e+00 +9.9999999161787445e-01
2.3999999999999995e+00 +8.5978413406186327e+00 +0.0000000000000000e+00 +2.3999999930072016e+00 -1.3223306739622680e-04 +0.0000000000000000e+00 +9.9999999125720807e-01
2.4499999999999993e+00 +8.5978346600576607e+00 +0.0000000000000000e+00 +2.4499999925608869e+00 -1.3498938638654149e-04 +0.0000000000000000e+00 +9.9999999088893288e-01
2.4999999999999991e+00 +8.5978278416784875e+00 +0.0000000000000000e+00 +2.4999999920959679e+00 -1.3774579573657479e-04 +0.0000000000000000e+00 +9.9999999051304800e-01
2.5499999999999989e+00 +8.5978208854765512e+00 +0.0000000000000000e+00 +2.5499999916120646e+00 -1.4050229718043123e-04 +0.0000000000000000e+00 +9.9999999012955232e-01
2.5999999999999988e+00 +8.5978137914472050e+00 +0.0000000000000000e+00 +2.5999999911087963e+00 -1.4325889244109837e-04 +0.0000000000000000e+00 +9.9999998973844495e-01
2.6499999999999986e+00 +8.5978065595857149e+00 +0.0000000000000000e+00 +2.6499999905857821e+00 -1.4601558323044695e-04 +0.0000000000000000e+00 +9.9999998933972478e-01
2.6999999999999984e+00 +8.5977991898872617e+00 +0.0000000000000000e+00 +2.6999999900426417e+00 -1.4877237124923082e-04 +0.0000000000000000e+00 +9.9999998893339082e-01
2.7499999999999982e+00 +8.5977916823469407e+00 +0.0000000000000000e+00 +2.7499999894789942e+00 -1.5152925818708715e-04 +0.0000000000000000e+00 +9.9999998851944194e-01
2.7999999999999980e+00 +8.5977840369597658e+00 +0.0000000000000000e+00 +2.7999999888944589e+00 -1.5428624572253629e-04 +0.0000000000000000e+00 +9.9999998809787716e-01
2.8499999999999979e+00 +8.5977762537206637e+00 +0.0000000000000000e+00 +2.8499999882886549e+00 -1.5704333552298195e-04 +0.0000000000000000e+00 +9.9999998766869536e-01
2.8999999999999977e+00 +8.5977683326244811e+00 +0.0000000000000000e+00 +2.8999999876612015e+00 -1.5980052924471119e-04 +0.0000000000000000e+00 +9.9999998723189543e-01
2.9499999999999975e+00 +8.5977602736659797e+00 +0.0000000000000000e+00 +2.9499999870117177e+00 -1.6255782853289441e-04 +0.0000000000000000e+00 +9.9999998678747615e-01
2.9999999999999973e+00 +8.5977520768398410e+00 +0.0000000000000000e+00 +2.9999999863398221e+00 -1.6531523502158552e-04 +0.0000000000000000e+00 +9.9999998633543652e-01
3.0499999999999972e+00 +8.5977437421406631e+00 +0.0000000000000000e+00 +3.0499999856451341e+00 -1.6807275033372187e-04 +0.0000000000000000e+00 +9.9999998587577532e-01
3.0999999999999970e+00 +8.5977352695629659e+00 +0.0000000000000000e+00 +3.0999999849272726e+00 -1.7083037608112429e-04 +0.0000000000000000e+00 +9.9999998540849133e-01
3.1499999999999968e+00 +8.5977266591011876e+00 +0.0000000000000000e+00 +3.1499999841858561e+00 -1.7358811386449720e-04 +0.0000000000000000e+00 +9.9999998493358333e-01
3.1999999999999966e+00 +8.5977179107496866e+00 +0.0000000000000000e+00 +3.1999999834205037e+00 -1.7634596527342855e-04 +0.0000000000000000e+00 +9.9999998445105021e-01
3.2499999999999964e+00 +8.5977090245027412e+00 +0.0000000000000000e+00 +3.2499999826308339e+00 -1.7910393188638992e-04 +0.0000000000000000e+00 +9.9999998396089074e-01
3.2999999999999963e+00 +8.5977000003545516e+00 +0.0000000000000000e+00 +3.2999999818164656e+00 -1.8186201527073655e-04 +0.0000000000000000e+00 +9.9999998346310359e-01
3.3499999999999961e+00 +8.5976908382992416e+00 +0.0000000000000000e+00 +3.3499999809770173e+00 -1.8462021698270733e-04 +0.0000000000000000e+00 +9.9999998295768766e-01
3.3999999999999959e+00 +8.5976815383308551e+00 +0.0000000000000000e+00 +3.3999999801121072e+00 -1.8737853856742488e-04 +0.0000000000000000e+00 +9.9999998244464150e-01
3.4499999999999957e+00 +8.5976721004433614e+00 +0.0000000000000000e+00 +3.4499999792213543e+00 -1.9013698155889548e-04 +0.0000000000000000e+00 +9.9999998192396400e-01
3.4999999999999956e+00 +8.5976625246306515e+00 +0.0000000000000000e+00 +3.4999999783043765e+00 -1.9289554748000927e-04 +0.0000000000000000e+00 +9.9999998139565371e-01
3.5499999999999954e+00 +8.5976528108865402e+00 +0.0000000000000000e+00 +3.5499999773607924e+00 -1.9565423784254009e-04 +0.0000000000000000e+00 +9.9999998085970943e-01
3.5999999999999952e+00 +8.5976429592047676e+00 +0.0000000000000000e+00 +3.5999999763902202e+00 -1.9841305414714560e-04 +0.0000000000000000e+00 +9.9999998031612980e-01
3.6499999999999950e+00 +8.5976329695790010e+00 +0.0000000000000000e+00 +3.6499999753922783e+00 -2.0117199788336732e-04 +0.0000000000000000e+00 +9.9999997976491350e-01
3.6999999999999948e+00 +8.5976228420028313e+00 +0.0000000000000000e+00 +3.6999999743665843e+00 -2.0393107052963058e-04 +0.0000000000000000e+00 +9.9999997920605910e-01
3.7499999999999947e+00 +8.5976125764697748e+00 +0.0000000000000000e+00 +3.7499999733127569e+00 -2.0669027355324461e-04 +0.0000000000000000e+00 +9.9999997863956525e-01
3.7999999999999945e+00 +8.5976021729732786e+00 +0.0000000000000000e+00 +3.7999999722304136e+00 -2.0944960841040247e-04 +0.0000000000000000e+00 +9.9999997806543062e-01
3.8499999999999943e+00 +8.5975916315067131e+00 +0.0000000000000000e+00 +3.8499999711191726e+00 -2.1220907654618119e-04 +0.0000000000000000e+00 +9.9999997748365377e-01
3.8999999999999941e+00 +8.5975809520633781e+00 +0.0000000000000000e+00 +3.8999999699786514e+00 -2.1496867939454172e-04 +0.0000000000000000e+00 +9.9999997689423326e-01
3.9499999999999940e+00 +8.5975701346365039e+00 +0.0000000000000000e+00 +3.9499999688084682e+00 -2.1772841837832888e-04 +0.0000000000000000e+00 +9.9999997629716775e-01
3.9999999999999938e+00 +8.5975591792192478e+00 +0.0000000000000000e+00 +3.9999999676082405e+00 -2.2048829490927150e-04 +0.0000000000000000e+00 +9.9999997569245569e-01
4.0499999999999936e+00 +8.5975480858046964e+00 +0.0000000000000000e+00 +4.0499999663775865e+00 -2.2324831038784992e-04 +0.0000000000000000e+00 +9.9999997508009575e-01
4.0999999999999934e+00 +8.5975368543858686e+00 +0.0000000000000000e+00 +4.0999999651161225e+00 -2.2600846620183908e-04 +0.0000000000000000e+00 +9.9999997446008637e-01
4.1499999999999932e+00 +8.5975254849557139e+00 +0.0000000000000000e+00 +4.1499999638234675e+00 -2.2876876372485177e-04 +0.0000000000000000e+00 +9.9999997383242611e-01
4.1999999999999931e+00 +8.5975139775071110e+00 +0.0000000000000000e+00 +4.1999999624992377e+00 -2.3152920431620611e-04 +0.0000000000000000e+00 +9.9999997319711353e-01
4.2499999999999929e+00 +8.5975023320328745e+00 +0.0000000000000000e+00 +4.2499999611430512e+00 -2.3428978932092562e-04 +0.0000000000000000e+00 +9.9999997255414708e-01
4.2999999999999927e+00 +8.5974905485257498e+00 +0.0000000000000000e+00 +4.2999999597545253e+00 -2.3705052006973922e-04 +0.0000000000000000e+00 +9.9999997190352519e-01
4.3499999999999925e+00 +8.5974786269784165e+00 +0.0000000000000000e+00 +4.3499999583332762e+00 -2.3981139787908123e-04 +0.0000000000000000e+00 +9.9999997124524642e-01
4.3999999999999924e+00 +8.5974665673834885e+00 +0.0000000000000000e+00 +4.3999999568789221e+00 -2.4257242405109142e-04 +0.0000000000000000e+00 +9.9999997057930923e-01
4.4499999999999922e+00 +8.5974543697335157e+00 +0.0000000000000000e+00 +4.4499999553910792e+00 -2.4533359987361501e-04 +0.0000000000000000e+00 +9.9999996990571205e-01
4.4999999999999920e+00 +8.5974420340209843e+00 +0.0000000000000000e+00 +4.4999999538693656e+00 -2.4809492662020269e-04 +0.0000000000000000e+00 +9.9999996922445333e-01
4.5499999999999918e+00 +8.5974295602383162e+00 +0.0000000000000000e+00 +4.5499999523133967e+00 -2.5085640555011057e-04 +0.0000000000000000e+00 +9.9999996853553152e-01
4.5999999999999917e+00 +8.5974169483778713e+00 +0.0000000000000000e+00 +4.5999999507227907e+00 -2.5361803790830030e-04 +0.0000000000000000e+00 +9.9999996783894507e-01
4.6499999999999915e+00 +8.5974041984319474e+00 +0.0000000000000000e+00 +4.6499999490971637e+00 -2.5637982492543899e-04 +0.0000000000000000e+00 +9.9999996713469230e-01
4.6999999999999913e+00 +8.5973913103927799e+00 +0.0000000000000000e+00 +4.6999999474361323e+00 -2.5914176781789927e-04 +0.0000000000000000e+00 +9.9999996642277167e-01
4.7499999999999911e+00 +8.5973782842525459e+00 +0.0000000000000000e+00 +4.7499999457393134e+00 -2.6190386778775926e-04 +0.0000000000000000e+00 +9.9999996570318161e-01
4.7999999999999909e+00 +8.5973651200033618e+00 +0.0000000000000000e+00 +4.7999999440063226e+00 -2.6466612602280270e-04 +0.0000000000000000e+00 +9.9999996497592047e-01
4.8499999999999908e+00 +8.5973518176372856e+00 +0.0000000000000000e+00 +4.8499999422367770e+00 -2.6742854369651874e-04 +0.0000000000000000e+00 +9.9999996424098658e-01
4.8999999999999906e+00 +8.5973383771463148e+00 +0.0000000000000000e+00 +4.8999999404302930e+00 -2.7019112196810210e-04 +0.0000000000000000e+00 +9.9999996349837839e-01
4.9499999999999904e+00 +8.5973247985223917e+00 +0.0000000000000000e+00 +4.9499999385864868e+00 -2.7295386198245307e-04 +0.0000000000000000e+00 +9.9999996274809422e-01
4.9999999999999902e+00 +8.5973110817574021e+00 +0.0000000000000000e+00 +4.9999999367049748e+00 -2.7571676487017741e-04 +0.0000000000000000e+00 +9.9999996199013241e-01
5.0499999999999901e+00 +8.5972972268431729e+00 +0.0000000000000000e+00 +5.0499999347853723e+00 -2.7847983174758654e-04 +0.0000000000000000e+00 +9.9999996122449131e-01
5.0999999999999899e+00 +8.5972832337714760e+00 +0.0000000000000000e+00 +5.0999999328272958e+00 -2.8124306371669731e-04 +0.0000000000000000e+00 +9.9999996045116912e-01
5.1499999999999897e+00 +8.5972691025340318e+00 +0.0000000000000000e+00 +5.1499999308303614e+00 -2.8400646186523221e-04 +0.0000000000000000e+00 +9.9999995967016431e-01
5.1999999999999895e+00 +8.5972548331225020e+00 +0.0000000000000000e+00 +5.1999999287941847e+00 -2.8677002726661924e-04 +0.0000000000000000e+00 +9.9999995888147519e-01
5.2499999999999893e+00 +8.5972404255284989e+00 +0.0000000000000000e+00 +5.2499999267183810e+00 -2.8953376097999193e-04 +0.0000000000000000e+00 +9.9999995808510000e-01
5.2999999999999892e+00 +8.5972258797435810e+00 +0.0000000000000000e+00 +5.2999999246025666e+00 -2.9229766405018941e-04 +0.0000000000000000e+00 +9.9999995728103719e-01
5.3499999999999890e+00 +8.5972111957592539e+00 +0.0000000000000000e+00 +5.3499999224463570e+00 -2.9506173750775631e-04 +0.0000000000000000e+00 +9.9999995646928486e-01
5.3999999999999888e+00 +8.5971963735669732e+00 +0.0000000000000000e+00 +5.3999999202493676e+00 -2.9782598236894275e-04 +0.0000000000000000e+00 +9.9999995564984145e-01
5.4499999999999886e+00 +8.5971814131581432e+00 +0.0000000000000000e+00 +5.4499999180112138e+00 -3.0059039963570446e-04 +0.0000000000000000e+00 +9.9999995482270509e-01
5.4999999999999885e+00 +8.5971663145241202e+00 +0.0000000000000000e+00 +5.4999999157315100e+00 -3.0335499029570274e-04 +0.0000000000000000e+00 +9.9999995398787411e-01
5.5499999999999883e+00 +8.5971510776562088e+00 +0.0000000000000000e+00 +5.5499999134098728e+00 -3.0611975532230426e-04 +0.0000000000000000e+00 +9.9999995314534684e-01
5.5999999999999881e+00 +8.5971357025456658e+00 +0.0000000000000000e+00 +5.5999999110459164e+00 -3.0888469567458136e-04 +0.0000000000000000e+00 +9.9999995229512151e-01
5.6499999999999879e+00 +8.5971201891837037e+00 +0.0000000000000000e+00 +5.6499999086392565e+00 -3.1164981229731177e-04 +0.0000000000000000e+00 +9.9999995143719633e-01
5.6999999999999877e+00 +8.5971045375614832e+00 +0.0000000000000000e+00 +5.6999999061895075e+00 -3.1441510612097872e-04 +0.0000000000000000e+00 +9.9999995057156954e-01
5.7499999999999876e+00 +8.5970887476701225e+00 +0.0000000000000000e+00 +5.7499999036962848e+00 -3.1718057806177105e-04 +0.0000000000000000e+00 +9.9999994969823947e-01
5.7999999999999874e+00 +8.5970728195006938e+00 +0.0000000000000000e+00 +5.7999999011592029e+00 -3.1994622902158294e-04 +0.0000000000000000e+00 +9.9999994881720422e-01
5.8499999999999872e+00 +8.5970567530442228e+00 +0.0000000000000000e+00 +5.8499998985778765e+00 -3.2271205988801405e-04 +0.0000000000000000e+00 +9.9999994792846214e-01
5.8999999999999870e+00 +8.5970405482916927e+00 +0.0000000000000000e+00 +5.8999998959519209e+00 -3.2547807153436950e-04 +0.0000000000000000e+00 +9.9999994703201134e-01
