# field on trajectory
# s[mm] rx[mm] ry[mm] rz[mm] bx[T] by[T] bz[T]
0.0000000000000000e+00 +8.5269999999999992e+00 +0.0000000000000000e+00 +0.0000000000000000e+00 -3.0877531197909886e-02 -5.7790892082469514e-01 +5.6319367569737698e-03
5.0000000000000003e-02 +8.5269999309821518e+00 +0.0000000000000000e+00 +4.9999999999936498e-02 -3.0877694815433648e-02 -5.7790886334505565e-01 +5.6321467451429727e-03
1.0000000000000001e-01 +8.5269997239286042e+00 +0.0000000000000000e+00 +9.9999999999491912e-02 -3.0877881127675588e-02 -5.7790920096612342e-01 +5.6323594685144156e-03
1.5000000000000002e-01 +8.5269993788392746e+00 +0.0000000000000000e+00 +1.4999999999828517e-01 -3.0878090084702374e-02 -5.7790993284414405e-01 +5.6325749562103952e-03
2.0000000000000001e-01 +8.5269988957139891e+00 +0.0000000000000000e+00 +1.9999999999593521e-01 -3.0878321636582457e-02 -5.7791105813538179e-01 +5.6327932373533597e-03
2.5000000000000000e-01 +8.5269982745524775e+00 +0.0000000000000000e+00 +2.4999999999206091e-01 -3.0878575733386000e-02 -5.7791257599612034e-01 +5.6330143410659042e-03
2.9999999999999999e-01 +8.5269975153543793e+00 +0.0000000000000000e+00 +2.9999999998628124e-01 -3.0878852325184884e-02 -5.7791448558266112e-01 +5.6332382964707660e-03
3.4999999999999998e-01 +8.5269966181192363e+00 +0.0000000000000000e+00 +3.4999999997821507e-01 -3.0879151362052690e-02 -5.7791678605132335e-01 +5.6334651326908425e-03
3.9999999999999997e-01 +8.5269955828465012e+00 +0.0000000000000000e+00 +3.9999999996748131e-01 -3.0879472794064708e-02 -5.7791947655844511e-01 +5.6336948788491834e-03
4.4999999999999996e-01 +8.5269944095355292e+00 +0.0000000000000000e+00 +4.4999999995369888e-01 -3.0879816571297874e-02 -5.7792255626038247e-01 +5.6339275640690063e-03
4.9999999999999994e-01 +8.5269930981855868e+00 +0.0000000000000000e+00 +4.9999999993648664e-01 -3.0880182643830800e-02 -5.7792602431350903e-01 +5.6341632174736807e-03
5.4999999999999993e-01 +8.5269916487958444e+00 +0.0000000000000000e+00 +5.4999999991546344e-01 -3.0880570961743726e-02 -5.7792987987421673e-01 +5.6344018681867549e-03
5.9999999999999998e-01 +8.5269900613653817e+00 +0.0000000000000000e+00 +5.9999999989024821e-01 -3.0880981475118557e-02 -5.7793412209891537e-01 +5.6346435453319384e-03
6.5000000000000002e-01 +8.5269883358931846e+00 +0.0000000000000000e+00 +6.4999999986045975e-01 -3.0881414134038804e-02 -5.7793875014403251e-01 +5.6348882780331297e-03
7.0000000000000007e-01 +8.5269864723781481e+00 +0.0000000000000000e+00 +6.9999999982571703e-01 -3.0881868888589549e-02 -5.7794376316601281e-01 +5.6351360954143975e-03
7.5000000000000011e-01 +8.5269844708190767e+00 +0.0000000000000000e+00 +7.4999999978563880e-01 -3.0882345688857473e-02 -5.7794916032131860e-01 +5.6353870265999856e-03
8.0000000000000016e-01 +8.5269823312146791e+00 +0.0000000000000000e+00 +7.9999999973984381e-01 -3.0882844484930862e-02 -5.7795494076642995e-01 +5.6356411007143382e-03
8.5000000000000020e-01 +8.5269800535635749e+00 +0.0000000000000000e+00 +8.4999999968795104e-01 -3.0883365226899533e-02 -5.7796110365784492e-01 +5.6358983468820832e-03
9.0000000000000024e-01 +8.5269776378642934e+00 +0.0000000000000000e+00 +8.9999999962957911e-01 -3.0883907864854860e-02 -5.7796764815207735e-01 +5.6361587942280389e-03
9.5000000000000029e-01 +8.5269750841152696e+00 +0.0000000000000000e+00 +9.4999999956434689e-01 -3.0884472348889760e-02 -5.7797457340565983e-01 +5.6364224718772251e-03
1.0000000000000002e+00 +8.5269723923148497e+00 +0.0000000000000000e+00 +9.9999999949187313e-01 -3.0885058629098620e-02 -5.7798187857514038e-01 +5.6366894089548598e-03
1.0500000000000003e+00 +8.5269695624612893e+00 +0.0000000000000000e+00 +1.0499999994117766e+00 -3.0885666655577387e-02 -5.7798956281708580e-01 +5.6369596345863665e-03
1.1000000000000003e+00 +8.5269665945527535e+00 +0.0000000000000000e+00 +1.0999999993236760e+00 -3.0886296378423429e-02 -5.7799762528807797e-01 +5.6372331778973776e-03
1.1500000000000004e+00 +8.5269634885873167e+00 +0.0000000000000000e+00 +1.1499999992271899e+00 -3.0886947747735670e-02 -5.7800606514471742e-01 +5.6375100680137354e-03
1.2000000000000004e+00 +8.5269602445629626e+00 +0.0000000000000000e+00 +1.1999999991219370e+00 -3.0887620713614436e-02 -5.7801488154362013e-01 +5.6377903340615000e-03
1.2500000000000004e+00 +8.5269568624775864e+00 +0.0000000000000000e+00 +1.2499999990075361e+00 -3.0888315226161506e-02 -5.7802407364141917e-01 +5.6380740051669431e-03
1.3000000000000005e+00 +8.5269533423289907e+00 +0.0000000000000000e+00 +1.2999999988836057e+00 -3.0889031235480095e-02 -5.7803364059476436e-01 +5.6383611104565733e-03
1.3500000000000005e+00 +8.5269496841148911e+00 +0.0000000000000000e+00 +1.3499999987497646e+00 -3.0889768691674837e-02 -5.7804358156032132e-01 +5.6386516790571098e-03
1.4000000000000006e+00 +8.5269458878329143e+00 +0.0000000000000000e+00 +1.3999999986056313e+00 -3.0890527544851758e-02 -5.7805389569477306e-01 +5.6389457400955120e-03
1.4500000000000006e+00 +8.5269419534805948e+00 +0.0000000000000000e+00 +1.4499999984508241e+00 -3.0891307745118293e-02 -5.7806458215481804e-01 +5.6392433226989712e-03
1.5000000000000007e+00 +8.5269378810553818e+00 +0.0000000000000000e+00 +1.4999999982849617e+00 -3.0892109242583239e-02 -5.7807564009717094e-01 +5.6395444559949118e-03
1.5500000000000007e+00 +8.5269336705546337e+00 +0.0000000000000000e+00 +1.5499999981076626e+00 -3.0892931987356740e-02 -5.7808706867856352e-01 +5.6398491691110096e-03
1.6000000000000008e+00 +8.5269293219756204e+00 +0.0000000000000000e+00 +1.5999999979185453e+00 -3.0893775929550286e-02 -5.7809886705574209e-01 +5.6401574911751689e-03
1.6500000000000008e+00 +8.5269248353155245e+00 +0.0000000000000000e+00 +1.6499999977172282e+00 -3.0894641019276723e-02 -5.7811103438546996e-01 +5.6404694513155591e-03
1.7000000000000008e+00 +8.5269202105714399e+00 +0.0000000000000000e+00 +1.6999999975033298e+00 -3.0895527206650186e-02 -5.7812356982452606e-01 +5.6407850786605890e-03
1.7500000000000009e+00 +8.5269154477403717e+00 +0.0000000000000000e+00 +1.7499999972764684e+00 -3.0896434441786143e-02 -5.7813647252970479e-01 +5.6411044023389340e-03
1.8000000000000009e+00 +8.5269105468192379e+00 +0.0000000000000000e+00 +1.7999999970362621e+00 -3.0897362674801292e-02 -5.7814974165781652e-01 +5.6414274514795170e-03
1.8500000000000010e+00 +8.5269055078048712e+00 +0.0000000000000000e+00 +1.8499999967823295e+00 -3.0898311855813675e-02 -5.7816337636568704e-01 +5.6417542552115322e-03
1.9000000000000010e+00 +8.5269003306940121e+00 +0.0000000000000000e+00 +1.8999999965142889e+00 -3.0899281934942537e-02 -5.7817737581015771e-01 +5.6420848426644386e-03
1.9500000000000011e+00 +8.5268950154833192e+00 +0.0000000000000000e+00 +1.9499999962317582e+00 -3.0900272862308405e-02 -5.7819173914808553e-01 +5.6424192429679670e-03
2.0000000000000009e+00 +8.5268895621693606e+00 +0.0000000000000000e+00 +1.9999999959343560e+00 -3.0901284588033002e-02 -5.7820646553634159e-01 +5.6427574852521162e-03
2.0500000000000007e+00 +8.5268839707486190e+00 +0.0000000000000000e+00 +2.0499999956217003e+00 -3.0902317064718896e-02 -5.7822155388791696e-01 +5.6430995966599657e-03
2.1000000000000005e+00 +8.5268782412174904e+00 +0.0000000000000000e+00 +2.0999999952934090e+00 -3.0903370254887923e-02 -5.7823700214022600e-01 +5.6434455963860555e-03
2.1500000000000004e+00 +8.5268723735722869e+00 +0.0000000000000000e+00 +2.1499999949491007e+00 -3.0904444123542207e-02 -5.7825280798679879e-01 +5.6437955016380801e-03
2.2000000000000002e+00 +8.5268663678092302e+00 +0.0000000000000000e+00 +2.1999999945883930e+00 -3.0905538635684428e-02 -5.7826896912117842e-01 +5.6441493296241025e-03
2.2500000000000000e+00 +8.5268602239244622e+00 +0.0000000000000000e+00 +2.2499999942109041e+00 -3.0906653756317796e-02 -5.7828548323691953e-01 +5.6445070975525632e-03
2.2999999999999998e+00 +8.5268539419140392e+00 +0.0000000000000000e+00 +2.2999999938162516e+00 -3.0907789450445977e-02 -5.7830234802758917e-01 +5.6448688226322921e-03
2.3499999999999996e+00 +8.5268475217739308e+00 +0.0000000000000000e+00 +2.3499999934040536e+00 -3.0908945683073057e-02 -5.7831956118676442e-01 +5.6452345220725014e-03
2.3999999999999995e+00 +8.5268409635000282e+00 +0.0000000000000000e+00 +2.3999999929739282e+00 -3.0910122419203528e-02 -5.7833712040803631e-01 +5.6456042130828207e-03
2.4499999999999993e+00 +8.5268342670881356e+00 +0.0000000000000000e+00 +2.4499999925254929e+00 -3.0911319623842200e-02 -5.7835502338500555e-01 +5.6459779128732856e-03
2.4999999999999991e+00 +8.5268274325339775e+00 +0.0000000000000000e+00 +2.4999999920583660e+00 -3.0912537261994139e-02 -5.7837326781128384e-01 +5.6463556386543460e-03
2.5499999999999989e+00 +8.5268204598331963e+00 +0.0000000000000000e+00 +2.5499999915721645e+00 -3.0913775298664691e-02 -5.7839185138049365e-01 +5.6467374076368841e-03
2.5999999999999988e+00 +8.5268133489813529e+00 +0.0000000000000000e+00 +2.5999999910665066e+00 -3.0915033698859347e-02 -5.7841077178626854e-01 +5.6471232370322189e-03
2.6499999999999986e+00 +8.5268060999739284e+00 +0.0000000000000000e+00 +2.6499999905410094e+00 -3.0916312427583744e-02 -5.7843002672225174e-01 +5.6475131440521026e-03
2.6999999999999984e+00 +8.5267987128063236e+00 +0.0000000000000000e+00 +2.6999999899952911e+00 -3.0917611449843618e-02 -5.7844961388209626e-01 +5.6479071459087484e-03
2.7499999999999982e+00 +8.5267911874738616e+00 +0.0000000000000000e+00 +2.7499999894289688e+00 -3.0918930730644761e-02 -5.7846953095946585e-01 +5.6483052598148287e-03
2.7999999999999980e+00 +8.5267835239717833e+00 +0.0000000000000000e+00 +2.7999999888416602e+00 -3.0920270234992917e-02 -5.7848977564803250e-01 +5.6487075029834771e-03
2.8499999999999979e+00 +8.5267757222952536e+00 +0.0000000000000000e+00 +2.8499999882329830e+00 -3.0921629927893806e-02 -5.7851034564147896e-01 +5.6491138926283149e-03
2.8999999999999977e+00 +8.5267677824393608e+00 +0.0000000000000000e+00 +2.8999999876025537e+00 -3.0923009774353031e-02 -5.7853123863349565e-01 +5.6495244459634350e-03
2.9499999999999975e+00 +8.5267597043991135e+00 +0.0000000000000000e+00 +2.9499999869499907e+00 -3.0924409739376053e-02 -5.7855245231778274e-01 +5.6499391802034282e-03
2.9999999999999973e+00 +8.5267514881694453e+00 +0.0000000000000000e+00 +2.9999999862749105e+00 -3.0925829787968127e-02 -5.7857398438804897e-01 +5.6503581125633886e-03
3.0499999999999972e+00 +8.5267431337452120e+00 +0.0000000000000000e+00 +3.0499999855769304e+00 -3.0927269885134279e-02 -5.7859583253801072e-01 +5.6507812602589157e-03
3.0999999999999970e+00 +8.5267346411211964e+00 +0.0000000000000000e+00 +3.0999999848556681e+00 -3.0928729995879211e-02 -5.7861799446139361e-01 +5.6512086405061286e-03
3.1499999999999968e+00 +8.5267260102921050e+00 +0.0000000000000000e+00 +3.1499999841107402e+00 -3.0930210085207317e-02 -5.7864046785192991e-01 +5.6516402705216653e-03
3.1999999999999966e+00 +8.5267172412525714e+00 +0.0000000000000000e+00 +3.1999999833417636e+00 -3.0931710118122561e-02 -5.7866325040336064e-01 +5.6520761675227047e-03
3.2499999999999964e+00 +8.5267083339971510e+00 +0.0000000000000000e+00 +3.2499999825483559e+00 -3.0933230059628492e-02 -5.7868633980943340e-01 +5.6525163487269620e-03
3.2999999999999963e+00 +8.5266992885203319e+00 +0.0000000000000000e+00 +3.2999999817301333e+00 -3.0934769874728176e-02 -5.7870973376390367e-01 +5.6529608313527092e-03
3.3499999999999961e+00 +8.5266901048165238e+00 +0.0000000000000000e+00 +3.3499999808867131e+00 -3.0936329528424143e-02 -5.7873342996053367e-01 +5.6534096326187654e-03
3.3999999999999959e+00 +8.5266807828800690e+00 +0.0000000000000000e+00 +3.3999999800177121e+00 -3.0937908985718323e-02 -5.7875742609309244e-01 +5.6538627697445259e-03
3.4499999999999957e+00 +8.5266713227052353e+00 +0.0000000000000000e+00 +3.4499999791227469e+00 -3.0939508211612010e-02 -5.7878171985535465e-01 +5.6543202599499496e-03
3.4999999999999956e+00 +8.5266617242862210e+00 +0.0000000000000000e+00 +3.4999999782014344e+00 -3.0941127171105864e-02 -5.7880630894110219e-01 +5.6547821204555905e-03
3.5499999999999954e+00 +8.5266519876171518e+00 +0.0000000000000000e+00 +3.5499999772533912e+00 -3.0942765829199772e-02 -5.7883119104412251e-01 +5.6552483684825829e-03
3.5999999999999952e+00 +8.5266421126920839e+00 +0.0000000000000000e+00 +3.5999999762782338e+00 -3.0944424150892866e-02 -5.7885636385820971e-01 +5.6557190212526663e-03
3.6499999999999950e+00 +8.5266320995050062e+00 +0.0000000000000000e+00 +3.6499999752755787e+00 -3.0946102101183467e-02 -5.7888182507716235e-01 +5.6561940959881842e-03
3.6999999999999948e+00 +8.5266219480498382e+00 +0.0000000000000000e+00 +3.6999999742450425e+00 -3.0947799645068982e-02 -5.7890757239478430e-01 +5.6566736099120923e-03
3.7499999999999947e+00 +8.5266116583204283e+00 +0.0000000000000000e+00 +3.7499999731862412e+00 -3.0949516747545928e-02 -5.7893360350488510e-01 +5.6571575802479776e-03
3.7999999999999945e+00 +8.5266012303105594e+00 +0.0000000000000000e+00 +3.7999999720987914e+00 -3.0951253373609895e-02 -5.7895991610127928e-01 +5.6576460242200527e-03
3.8499999999999943e+00 +8.5265906640139466e+00 +0.0000000000000000e+00 +3.8499999709823092e+00 -3.0953009488255367e-02 -5.7898650787778516e-01 +5.6581389590531729e-03
3.8999999999999941e+00 +8.5265799594242395e+00 +0.0000000000000000e+00 +3.8999999698364110e+00 -3.0954785056475840e-02 -5.7901337652822615e-01 +5.6586364019728360e-03
3.9499999999999940e+00 +8.5265691165350201e+00 +0.0000000000000000e+00 +3.9499999686607126e+00 -3.0956580043263661e-02 -5.7904051974642923e-01 +5.6591383702052018e-03
3.9999999999999938e+00 +8.5265581353398048e+00 +0.0000000000000000e+00 +3.9999999674548303e+00 -3.0958394413610039e-02 -5.7906793522622602e-01 +5.6596448809770944e-03
4.0499999999999936e+00 +8.5265470158320458e+00 +0.0000000000000000e+00 +4.0499999662183797e+00 -3.0960228085495367e-02 -5.7909562059860709e-01 +5.6601559456643039e-03
4.0999999999999934e+00 +8.5265357580051315e+00 +0.0000000000000000e+00 +4.0999999649509773e+00 -3.0962080788860466e-02 -5.7912357324318964e-01 +5.6606715522362844e-03
4.1499999999999932e+00 +8.5265243618523847e+00 +0.0000000000000000e+00 +4.1499999636522382e+00 -3.0963952206635965e-02 -5.7915179047674936e-01 +5.6611916828109878e-03
4.1999999999999931e+00 +8.5265128273670641e+00 +0.0000000000000000e+00 +4.1999999623217787e+00 -3.0965842021752212e-02 -5.7918026961606472e-01 +5.6617163195065608e-03
4.2499999999999929e+00 +8.5265011545423697e+00 +0.0000000000000000e+00 +4.2499999609592143e+00 -3.0967749917139176e-02 -5.7920900797791497e-01 +5.6622454444413203e-03
4.2999999999999927e+00 +8.5264893433714359e+00 +0.0000000000000000e+00 +4.2999999595641611e+00 -3.0969675575726500e-02 -5.7923800287908178e-01 +5.6627790397337516e-03
4.3499999999999925e+00 +8.5264773938473386e+00 +0.0000000000000000e+00 +4.3499999581362339e+00 -3.0971618680443413e-02 -5.7926725163634851e-01 +5.6633170875025072e-03
4.3999999999999924e+00 +8.5264653059630913e+00 +0.0000000000000000e+00 +4.3999999566750487e+00 -3.0973578914218803e-02 -5.7929675156649907e-01 +5.6638595698663948e-03
4.4499999999999922e+00 +8.5264530797116471e+00 +0.0000000000000000e+00 +4.4499999551802203e+00 -3.0975555959981100e-02 -5.7932649998631924e-01 +5.6644064689443758e-03
4.4999999999999920e+00 +8.5264407150859025e+00 +0.0000000000000000e+00 +4.4999999536513648e+00 -3.0977549500658317e-02 -5.7935649421259428e-01 +5.6649577668555426e-03
4.5499999999999918e+00 +8.5264282120786916e+00 +0.0000000000000000e+00 +4.5499999520880969e+00 -3.0979559219178048e-02 -5.7938673156211074e-01 +5.6655134457191366e-03
4.5999999999999917e+00 +8.5264155706827935e+00 +0.0000000000000000e+00 +4.5999999504900320e+00 -3.0981584798467361e-02 -5.7941720935165542e-01 +5.6660734876545181e-03
4.6499999999999915e+00 +8.5264027908909270e+00 +0.0000000000000000e+00 +4.6499999488567854e+00 -3.0983625921452911e-02 -5.7944792489801478e-01 +5.6666378747811724e-03
4.6999999999999913e+00 +8.5263898726957574e+00 +0.0000000000000000e+00 +4.6999999471879716e+00 -3.0985682271060817e-02 -5.7947887551797439e-01 +5.6672065892186992e-03
4.7499999999999911e+00 +8.5263768160898916e+00 +0.0000000000000000e+00 +4.7499999454832063e+00 -3.0987753530216676e-02 -5.7951005852832060e-01 +5.6677796130868100e-03
4.7999999999999909e+00 +8.5263636210658813e+00 +0.0000000000000000e+00 +4.7999999437421037e+00 -3.0989839381845550e-02 -5.7954147124583744e-01 +5.6683569285053120e-03
4.8499999999999908e+00 +8.5263502876162232e+00 +0.0000000000000000e+00 +4.8499999419642785e+00 -3.0991939508871962e-02 -5.7957311098730868e-01 +5.6689385175941074e-03
4.8999999999999906e+00 +8.5263368157333606e+00 +0.0000000000000000e+00 +4.8999999401493461e+00 -3.0994053594219861e-02 -5.7960497506951669e-01 +5.6695243624731873e-03
4.9499999999999904e+00 +8.5263232054096836e+00 +0.0000000000000000e+00 +4.9499999382969211e+00 -3.0996181320812589e-02 -5.7963706080924149e-01 +5.6701144452626223e-03
4.9999999999999902e+00 +8.5263094566375273e+00 +0.0000000000000000e+00 +4.9999999364066179e+00 -3.0998322371572882e-02 -5.7966936552326243e-01 +5.6707087480825560e-03
5.0499999999999901e+00 +8.5262955694091769e+00 +0.0000000000000000e+00 +5.0499999344780511e+00 -3.1000476429422885e-02 -5.7970188652835586e-01 +5.6713072530531960e-03
5.0999999999999899e+00 +8.5262815437168644e+00 +0.0000000000000000e+00 +5.0999999325108343e+00 -3.1002643177284059e-02 -5.7973462114129604e-01 +5.6719099422948135e-03
5.1499999999999897e+00 +8.5262673795527721e+00 +0.0000000000000000e+00 +5.1499999305045829e+00 -3.1004822298077217e-02 -5.7976756667885432e-01 +5.6725167979277307e-03
5.1999999999999895e+00 +8.5262530769090290e+00 +0.0000000000000000e+00 +5.1999999284589107e+00 -3.1007013474722511e-02 -5.7980072045779940e-01 +5.6731278020723140e-03
5.2499999999999893e+00 +8.5262386357777178e+00 +0.0000000000000000e+00 +5.2499999263734320e+00 -3.1009216390139354e-02 -5.7983407979489643e-01 +5.6737429368489646e-03
5.2999999999999892e+00 +8.5262240561508698e+00 +0.0000000000000000e+00 +5.2999999242477607e+00 -3.1011430727246502e-02 -5.7986764200690777e-01 +5.6743621843781287e-03
5.3499999999999890e+00 +8.5262093380204700e+00 +0.0000000000000000e+00 +5.3499999220815111e+00 -3.1013656168961942e-02 -5.7990140441059168e-01 +5.6749855267802631e-03
5.3999999999999888e+00 +8.5261944813784520e+00 +0.0000000000000000e+00 +5.3999999198742969e+00 -3.1015892398202908e-02 -5.7993536432270232e-01 +5.6756129461758460e-03
5.4499999999999886e+00 +8.5261794862167068e+00 +0.0000000000000000e+00 +5.4499999176257319e+00 -3.1018139097885887e-02 -5.7996951905998984e-01 +5.6762444246853741e-03
5.4999999999999885e+00 +8.5261643525270756e+00 +0.0000000000000000e+00 +5.4999999153354304e+00 -3.1020395950926566e-02 -5.8000386593920006e-01 +5.6768799444293378e-03
5.5499999999999883e+00 +8.5261490803013551e+00 +0.0000000000000000e+00 +5.5499999130030053e+00 -3.1022662640239826e-02 -5.8003840227707426e-01 +5.6775194875282268e-03
5.5999999999999881e+00 +8.5261336695312959e+00 +0.0000000000000000e+00 +5.5999999106280711e+00 -3.1024938848739744e-02 -5.8007312539034794e-01 +5.6781630361025272e-03
5.6499999999999879e+00 +8.5261181202086043e+00 +0.0000000000000000e+00 +5.6499999082102406e+00 -3.1027224259339535e-02 -5.8010803259575217e-01 +5.6788105722727026e-03
5.6999999999999877e+00 +8.5261024323249437e+00 +0.0000000000000000e+00 +5.6999999057491273e+00 -3.1029518554951601e-02 -5.8014312121001244e-01 +5.6794620781591941e-03
5.7499999999999876e+00 +8.5260866058719316e+00 +0.0000000000000000e+00 +5.7499999032443450e+00 -3.1031821418487392e-02 -5.8017838854984760e-01 +5.6801175358824124e-03
5.7999999999999874e+00 +8.5260706408411462e+00 +0.0000000000000000e+00 +5.7999999006955072e+00 -3.1034132532857535e-02 -5.8021383193197196e-01 +5.6807769275627282e-03
5.8499999999999872e+00 +8.5260545372241197e+00 +0.0000000000000000e+00 +5.8499998981022268e+00 -3.1036451580971732e-02 -5.8024944867309192e-01 +5.6814402353204708e-03
5.8999999999999870e+00 +8.5260382950123468e+00 +0.0000000000000000e+00 +5.8999998954641164e+00 -3.1038778245738731e-02 -5.8028523608990901e-01 +5.6821074412759147e-03
