# multipoles
# s[mm] polynom_b[n=0][T/m^n] polynom_b[n=1][T/m^n] polynom_b[n=2][T/m^n] polynom_b[n=3][T/m^n] polynom_b[n=4][T/m^n] polynom_b[n=5][T/m^n] polynom_b[n=6][T/m^n] 
+0.0000000000000000e+00 -5.7791037072834195e-01 +7.5806386694543182e+00 +5.8700566517289019e+00 +9.5764733243675266e+00 +1.1023757373670009e+04 -4.1294568371065793e+05 -7.6928030774929032e+07 
+5.0000000000000003e-02 -5.7791032028944733e-01 +7.5806611028685955e+00 +5.8717720127207036e+00 +9.9053190193878038e+00 +1.1012061386484846e+04 -4.1611995351362292e+05 -7.7029358388116539e+07 
+1.0000000000000001e-01 -5.7791066518804235e-01 +7.5807053409830329e+00 +5.8729887521217750e+00 +1.0235361328849830e+01 +1.1002114789061558e+04 -4.1931570826952590e+05 -7.7143189935282797e+07 
+1.5000000000000002e-01 -5.7791140455935508e-01 +7.5807713047894643e+00 +5.8737120414597577e+00 +1.0566432096726455e+01 +1.0993781374120832e+04 -4.2252926829188876e+05 -7.7268536173466712e+07 
+2.0000000000000001e-01 -5.7791253753862892e-01 +7.5808589152749315e+00 +5.8739470526663000e+00 +1.0898363396199876e+01 +1.0986924918245679e+04 -4.2575695580677176e+05 -7.7404407732518554e+07 
+2.5000000000000000e-01 -5.7791406326112937e-01 +7.5809680934294921e+00 +5.8736989574676688e+00 +1.1230987194521608e+01 +1.0981409206490624e+04 -4.2899509211801761e+05 -7.7549815306617260e+07 
+2.9999999999999999e-01 -5.7791598086214480e-01 +7.5810987602470901e+00 +5.8729729287667505e+00 +1.1564135327617638e+01 +1.0977097991009001e+04 -4.3223999745894189e+05 -7.7703769365767360e+07 
+3.4999999999999998e-01 -5.7791828947696855e-01 +7.5812508367157960e+00 +5.8717741371922694e+00 +1.1897639911083115e+01 +1.0973855085633881e+04 -4.3548799440777150e+05 -7.7865280798753202e+07 
+3.9999999999999997e-01 -5.7792098824093940e-01 +7.5814242438285397e+00 +5.8701077576968990e+00 +1.2231332863800356e+01 +1.0971544191641453e+04 -4.3873540382353752e+05 -7.8033359748522744e+07 
+4.4999999999999996e-01 -5.7792407628937925e-01 +7.5816189025785317e+00 +5.8679789595870968e+00 +1.2565046144815341e+01 +1.0970029156939467e+04 -4.4197854699527210e+05 -7.8207017327040181e+07 
+4.9999999999999994e-01 -5.7792755275765273e-01 +7.5818347339563843e+00 +5.8653929160847902e+00 +1.2898611832482622e+01 +1.0969173727987894e+04 -4.4521374614028941e+05 -7.8385263977008998e+07 
+5.4999999999999993e-01 -5.7793141678112347e-01 +7.5820716589612625e+00 +5.8623547976349606e+00 +1.3231861693939392e+01 +1.0968841721660714e+04 -4.4843732097115944e+05 -7.8567110600689277e+07 
+5.9999999999999998e-01 -5.7793566749519376e-01 +7.5823295985828727e+00 +5.8588697779868566e+00 +1.3564627881450877e+01 +1.0968896869837379e+04 -4.5164559423788858e+05 -7.8751567542691961e+07 
+6.5000000000000002e-01 -5.7794030403527263e-01 +7.5826084738198922e+00 +5.8549430289776767e+00 +1.3896742242877467e+01 +1.0969202955144649e+04 -4.5483488634997519e+05 -7.8937645489045337e+07 
+7.0000000000000007e-01 -5.7794532553678191e-01 +7.5829082056676214e+00 +5.8505797217275317e+00 +1.4228036776728935e+01 +1.0969623778487297e+04 -4.5800151889029087e+05 -7.9124355244447052e+07 
+7.5000000000000011e-01 -5.7795073113517992e-01 +7.5832287151218951e+00 +5.8457850308572423e+00 +1.4558343481531363e+01 +1.0970023045606476e+04 -4.6114181343508727e+05 -7.9310706970675871e+07 
+8.0000000000000016e-01 -5.7795651996591180e-01 +7.5835699231809590e+00 +5.8405641252948310e+00 +1.4887494287100420e+01 +1.0970264617444223e+04 -4.6425209100758669e+05 -7.9495711883893207e+07 
+8.5000000000000020e-01 -5.7796269116446142e-01 +7.5839317508413835e+00 +5.8349221780290215e+00 +1.5215321218181007e+01 +1.0970212243945118e+04 -4.6732867341718450e+05 -7.9678380445950285e+07 
+9.0000000000000024e-01 -5.7796924386634307e-01 +7.5843141191042607e+00 +5.8288643645972869e+00 +1.5541656148942831e+01 +1.0969729604752078e+04 -4.7036788126927312e+05 -7.9857722642694920e+07 
+9.5000000000000029e-01 -5.7797617720703798e-01 +7.5847169489654451e+00 +5.8223958512466316e+00 +1.5866331187911339e+01 +1.0968680633395459e+04 -4.7336603708380001e+05 -8.0032750185278565e+07 
+1.0000000000000002e+00 -5.7798349032211038e-01 +7.5851401614266871e+00 +5.8155218161884150e+00 +1.6189178232500069e+01 +1.0966928937797984e+04 -4.7631946165173827e+05 -8.0202472577736974e+07 
+1.0500000000000003e+00 -5.7799118234708269e-01 +7.5855836774874632e+00 +5.8082474272331179e+00 +1.6510029298245133e+01 +1.0964338407294497e+04 -4.7922447675650741e+05 -8.0365901229727685e+07 
+1.1000000000000003e+00 -5.7799925241754380e-01 +7.5860474181507707e+00 +5.8005778612589154e+00 +1.6828716292542712e+01 +1.0960772685191285e+04 -4.8207740332058660e+05 -8.0522045888281196e+07 
+1.1500000000000004e+00 -5.7800769966904664e-01 +7.5865313044144251e+00 +5.7925182855037809e+00 +1.7145071344108441e+01 +1.0956095675393226e+04 -4.8487456403422193e+05 -8.0669918060090780e+07 
+1.2000000000000004e+00 -5.7801652323721431e-01 +7.5870352572829818e+00 +5.7840738770991518e+00 +1.7458926358177358e+01 +1.0950171012362418e+04 -4.8761227986130223e+05 -8.0808527428317025e+07 
+1.2500000000000004e+00 -5.7802572225764248e-01 +7.5875591977606351e+00 +5.7752498051621304e+00 +1.7770113256357799e+01 +1.0942862550543983e+04 -4.9028687181106868e+05 -8.0936885177413270e+07 
+1.3000000000000005e+00 -5.7803529586597757e-01 +7.5881030468468209e+00 +5.7660512450681685e+00 +1.8078464200431032e+01 +1.0934033972731228e+04 -4.9289466295707645e+05 -8.1054001324870303e+07 
+1.3500000000000005e+00 -5.7804524319785722e-01 +7.5886667255483395e+00 +5.7564833680401728e+00 +1.8383811082443192e+01 +1.0923549069964454e+04 -4.9543197417933861e+05 -8.1158886606146812e+07 
+1.4000000000000006e+00 -5.7805556338895514e-01 +7.5892501548676909e+00 +5.7465513485311970e+00 +1.8685985978382863e+01 +1.0911271551837548e+04 -4.9789512782101409e+05 -8.1250551233362541e+07 
+1.4500000000000006e+00 -5.7806625557493008e-01 +7.5898532558112768e+00 +5.7362603557583123e+00 +1.8984820850928237e+01 +1.0897065263264445e+04 -5.0028044537223922e+05 -8.1328006310705602e+07 
+1.5000000000000007e+00 -5.7807731889149305e-01 +7.5904759493829523e+00 +5.7256155652626335e+00 +1.9280147785003074e+01 +1.0880793883430882e+04 -5.0258424931472453e+05 -8.1390261846496105e+07 
+1.5500000000000007e+00 -5.7808875247435865e-01 +7.5911181565910466e+00 +5.7146221510184052e+00 +1.9571798712935635e+01 +1.0862321124862790e+04 -5.0480286090964440e+05 -8.1436328042264834e+07 
+1.6000000000000008e+00 -5.7810055545924610e-01 +7.5917797984395365e+00 +5.7032852842972757e+00 +1.9859605778049954e+01 +1.0841510781027626e+04 -5.0693260319516191e+05 -8.1465215679922044e+07 
+1.6500000000000008e+00 -5.7811272698189875e-01 +7.5924607959389423e+00 +5.6916101385758067e+00 +2.0143400871262489e+01 +1.0818226580994788e+04 -5.0896979709227692e+05 -8.1475935092611358e+07 
+1.7000000000000008e+00 -5.7812526617807947e-01 +7.5931610700924699e+00 +5.6796018879563093e+00 +2.0423016226656728e+01 +1.0792332235535465e+04 -5.1091076644523127e+05 -8.1467496487060741e+07 
+1.7500000000000009e+00 -5.7813817218356023e-01 +7.5938805419104263e+00 +5.6672657052073108e+00 +2.0698283803672453e+01 +1.0763691493718969e+04 -5.1275183280503628e+05 -8.1438910341834769e+07 
+1.8000000000000009e+00 -5.7815144413412789e-01 +7.5946191324021388e+00 +5.6546067635462176e+00 +2.0969035648360329e+01 +1.0732168088522829e+04 -5.1448931854041887e+05 -8.1389187015251428e+07 
+1.8500000000000010e+00 -5.7816508116558296e-01 +7.5953767625750945e+00 +5.6416302358338841e+00 +2.1235103878731966e+01 +1.0697625763239419e+04 -5.1611954650729417e+05 -8.1317336941795975e+07 
+1.9000000000000010e+00 -5.7817908241375882e-01 +7.5961533534406627e+00 +5.6283412978037912e+00 +2.1496320515463204e+01 +1.0659928184542203e+04 -5.1763883891780116e+05 -8.1222370045773000e+07 
+1.9500000000000011e+00 -5.7819344701448516e-01 +7.5969488260069191e+00 +5.6147451227214624e+00 +2.1752517717740076e+01 +1.0618939079439971e+04 -5.1904351906570554e+05 -8.1103296640135482e+07 
+2.0000000000000009e+00 -5.7820817410360958e-01 +7.5977631012862199e+00 +5.6008468839871259e+00 +2.2003527518295744e+01 +1.0574522175230775e+04 -5.2032990928883711e+05 -8.0959127058683559e+07 
+2.0500000000000007e+00 -5.7822326258306178e-01 +7.5985960909600987e+00 +5.5866494314497412e+00 +2.2249233960277387e+01 +1.0526621464213113e+04 -5.2149553917316988e+05 -8.0789410620771855e+07 
+2.1000000000000005e+00 -5.7823871041834729e-01 +7.5994476645082676e+00 +5.5721464419344926e+00 +2.2489676150165920e+01 +1.0475504910024107e+04 -5.2254249772946315e+05 -8.0595850387402475e+07 
+2.1500000000000004e+00 -5.7825451534067474e-01 +7.6003176796370608e+00 +5.5573293338575134e+00 +2.2724918607338449e+01 +1.0421522373209240e+04 -5.2347395266048267e+05 -8.0380688322429389e+07 
+2.2000000000000002e+00 -5.7827067508128216e-01 +7.6012059940516696e+00 +5.5421895280508151e+00 +2.2955025918714515e+01 +1.0365023654803239e+04 -5.2429307227873686e+05 -8.0146166007311419e+07 
+2.2500000000000000e+00 -5.7828718737141194e-01 +7.6021124654609418e+00 +5.5267184437880710e+00 +2.3180062521888409e+01 +1.0306358596506097e+04 -5.2500302360207506e+05 -7.9894525289337739e+07 
+2.2999999999999998e+00 -5.7830404994230333e-01 +7.6030369515708704e+00 +5.5109074980680308e+00 +2.3400093001753689e+01 +1.0245877101898615e+04 -5.2560697492895823e+05 -7.9628008440579250e+07 
+2.3499999999999996e+00 -5.7832126052525701e-01 +7.6039793100934858e+00 +5.4947481162888794e+00 +2.3615181710909756e+01 +1.0183928849129710e+04 -5.2610809264243487e+05 -7.9348856212294653e+07 
+2.3999999999999995e+00 -5.7833881685151134e-01 +7.6049393987350129e+00 +5.4782317107061242e+00 +2.3825393231397509e+01 +1.0120863869595914e+04 -5.2650954494290566e+05 -7.9059311735832676e+07 
+2.4499999999999993e+00 -5.7835671665237465e-01 +7.6059170752064249e+00 +5.4613497041205310e+00 +2.4030791991516406e+01 +1.0057031912169316e+04 -5.2681449885784183e+05 -7.8761616243973970e+07 
+2.4999999999999991e+00 -5.7837495765915559e-01 +7.6069121972208471e+00 +5.4440935173743670e+00 +2.4231442318771446e+01 +9.9927827766211140e+03 -5.2702612049865141e+05 -7.8458011304316074e+07 
+2.5499999999999989e+00 -5.7839353760315815e-01 +7.6079246224900654e+00 +5.4264545681795964e+00 +2.4427408618354772e+01 +9.9284663514142849e+03 -5.2714757665093453e+05 -7.8150739099775076e+07 
+2.5999999999999988e+00 -5.7841245421570009e-01 +7.6089542087249074e+00 +5.4084242749011304e+00 +2.4618755342971859e+01 +9.8644325062549651e+03 -5.2718203447351500e+05 -7.7842041680582255e+07 
+2.6499999999999986e+00 -5.7843170522811727e-01 +7.6100008136417836e+00 +5.3899940573219070e+00 +2.4805546723117775e+01 +9.8010310705407410e+03 -5.2713265929992648e+05 -7.7534160817324176e+07 
+2.6999999999999984e+00 -5.7845128837176096e-01 +7.6110642949548595e+00 +5.3711553358230812e+00 +2.4987847099367606e+01 +9.7386118616072054e+03 -5.2700261737428966e+05 -7.7229338212126181e+07 
+2.7499999999999982e+00 -5.7847120137797536e-01 +7.6121445103782825e+00 +5.3518995279439014e+00 +2.5165720810374307e+01 +9.6775247724176497e+03 -5.2679507488362724e+05 -7.6929816076063395e+07 
+2.7999999999999980e+00 -5.7849144197814018e-01 +7.6132413176304263e+00 +5.3322180554446152e+00 +2.5339232029168464e+01 +9.6181195820429257e+03 -5.2651319664433785e+05 -7.6637835846277982e+07 
+2.8499999999999979e+00 -5.7851200790361668e-01 +7.6143545744268186e+00 +5.3121023349090661e+00 +2.5508445067018219e+01 +9.5607462143546436e+03 -5.2616014866618591e+05 -7.6355639958922312e+07 
+2.8999999999999977e+00 -5.7853289688579268e-01 +7.6154841384876208e+00 +5.2915437865689325e+00 +2.5673424031427665e+01 +9.5057544882776929e+03 -5.2573909517401387e+05 -7.6085470115953699e+07 
+2.9499999999999975e+00 -5.7855410665606455e-01 +7.6166298675306781e+00 +5.2705338296316100e+00 +2.5834233140888962e+01 +9.4534942565322908e+03 -5.2525320135331596e+05 -7.5829568265945360e+07 
+2.9999999999999973e+00 -5.7857563494582809e-01 +7.6177916192772868e+00 +5.2490638815739645e+00 +2.5990936482591515e+01 +9.4043154197598087e+03 -5.2470563130995957e+05 -7.5590176685866296e+07 
+3.0499999999999972e+00 -5.7859747948651041e-01 +7.6189692514489007e+00 +5.2271253642218154e+00 +2.6143598123704496e+01 +9.3585677601874813e+03 -5.2409954890914395e+05 -7.5369536849464938e+07 
+3.0999999999999970e+00 -5.7861963800951943e-01 +7.6201626217670819e+00 +5.2047096943852376e+00 +2.6292282147447072e+01 +9.3166011933699738e+03 -5.2343811819469655e+05 -7.5169891117821231e+07 
+3.1499999999999968e+00 -5.7864210824628193e-01 +7.6213715879540613e+00 +5.1818082901085525e+00 +2.6437052607808017e+01 +9.2787656089070697e+03 -5.2272450294463430e+05 -7.4993481706521675e+07 
+3.1999999999999966e+00 -5.7866488792824322e-01 +7.6225960077361803e+00 +5.1584125717173350e+00 +2.6577973387178449e+01 +9.2454108309536514e+03 -5.2196186548114679e+05 -7.4842550370472237e+07 
+3.2499999999999964e+00 -5.7868797478684642e-01 +7.6238357388364788e+00 +5.1345139571799496e+00 +2.6715108509340325e+01 +9.2168867500655142e+03 -5.2115336929452018e+05 -7.4719339319626421e+07 
+3.2999999999999963e+00 -5.7871136655354760e-01 +7.6250906389808488e+00 +5.1101038654875719e+00 +2.6848521880945313e+01 +9.1935432315849666e+03 -5.2030217689789069e+05 -7.4626090603758574e+07 
+3.3499999999999961e+00 -5.7873506095980287e-01 +7.6263605658990912e+00 +5.0851737142258768e+00 +2.6978277246114665e+01 +9.1757301767575227e+03 -5.1941144943332532e+05 -7.4565046503398702e+07 
+3.3999999999999959e+00 -5.7875905573708852e-01 +7.6276453773164405e+00 +5.0597149232241945e+00 +2.7104438533861526e+01 +9.1637974289063550e+03 -5.1848434953871148e+05 -7.4538448916015893e+07 
+3.4499999999999957e+00 -5.7878334861687086e-01 +7.6289449309637254e+00 +5.0337189088583534e+00 +2.7227069454951423e+01 +9.1580949263178954e+03 -5.1752403809200256e+05 -7.4548540382620856e+07 
+3.4999999999999956e+00 -5.7880793733064873e-01 +7.6302590845727645e+00 +5.0071770921473586e+00 +2.7346233663780435e+01 +9.1589724833809014e+03 -5.1653367542709829e+05 -7.4597562613632351e+07 
+3.5499999999999954e+00 -5.7883281960989375e-01 +7.6315876958702313e+00 +4.9800808879134921e+00 +2.7461995026863175e+01 +9.1667800813228951e+03 -5.1551642361637688e+05 -7.4687758437755316e+07 
+3.5999999999999952e+00 -5.7885799318610887e-01 +7.6329306225929896e+00 +4.9524217150245926e+00 +2.7574416987566405e+01 +9.1818675979052459e+03 -5.1447544123082649e+05 -7.4821370007556438e+07 
+3.6499999999999950e+00 -5.7888345579081024e-01 +7.6342877224730943e+00 +4.9241909940566169e+00 +2.7683563188259185e+01 +9.2045848572615723e+03 -5.1341388846624090e+05 -7.5000639077568412e+07 
+3.6999999999999948e+00 -5.7890920515550237e-01 +7.6356588532444203e+00 +4.8953801416997527e+00 +2.7789497186550822e+01 +9.2352817981930584e+03 -5.1233492478676245e+05 -7.5227808214116007e+07 
+3.7499999999999947e+00 -5.7893523901168287e-01 +7.6370438726438925e+00 +4.8659805722423011e+00 +2.7892282411809031e+01 +9.2743084256958809e+03 -5.1124170858887292e+05 -7.5505120431546971e+07 
+3.7999999999999945e+00 -5.7896155509089930e-01 +7.6384426384067536e+00 +4.8359837081071513e+00 +2.7991982353121774e+01 +9.3220145212462467e+03 -5.1013739870587538e+05 -7.5834817215309590e+07 
+3.8499999999999943e+00 -5.7898815112466195e-01 +7.6398550082714385e+00 +4.8053809639843257e+00 +2.8088660367233139e+01 +9.3787500767922738e+03 -5.0902515289601107e+05 -7.6219141475953177e+07 
+3.8999999999999941e+00 -5.7901502484451361e-01 +7.6412808399797818e+00 +4.7741637586047077e+00 +2.8182379658514382e+01 +9.4448649841528131e+03 -5.0790812760509708e+05 -7.6660335477598190e+07 
+3.9499999999999940e+00 -5.7904217398197777e-01 +7.6427199912678105e+00 +4.7423235069516858e+00 +2.8273203664665587e+01 +9.5207092299443793e+03 -5.0678948119227757e+05 -7.7160642097810000e+07 
+3.9999999999999938e+00 -5.7906959626861332e-01 +7.6441723198803775e+00 +4.7098516290802293e+00 +2.8361195451823477e+01 +9.6066326689087691e+03 -5.0567236890833982e+05 -7.7722303336800486e+07 
+4.0499999999999936e+00 -5.7909728936027738e-01 +7.6456376747617592e+00 +4.6767443213588358e+00 +2.8446405083935772e+01 +9.7028586644020961e+03 -5.0455946840828320e+05 -7.8346753397879228e+07 
+4.0999999999999934e+00 -5.7912525061140518e-01 +7.6471158617194073e+00 +4.6430176876442140e+00 +2.8528913527930506e+01 +9.8090966635602636e+03 -5.0345202223756624e+05 -7.9032160830875218e+07 
+4.1499999999999932e+00 -5.7915347730143085e-01 +7.6486066737680947e+00 +4.6086930357407745e+00 +2.8608829112458707e+01 +9.9249253617654776e+03 -5.0235103168907133e+05 -7.9775867431487575e+07 
+4.1999999999999931e+00 -5.7918196670979893e-01 +7.6501099039212637e+00 +4.5737916752773558e+00 +2.8686260233502622e+01 +1.0049923403321718e+04 -5.0125749875233881e+05 -8.0575214633852631e+07 
+4.2499999999999929e+00 -5.7921071611595332e-01 +7.6516253451980276e+00 +4.5383349154397168e+00 +2.8761315043659728e+01 +1.0183669445076132e+04 -5.0017242340271326e+05 -8.1427543956563801e+07 
+4.2999999999999927e+00 -5.7923972279932534e-01 +7.6531527906113235e+00 +4.5023440630949025e+00 +2.8834101958012589e+01 +1.0325742205500332e+04 -4.9909680782446160e+05 -8.2330197329987243e+07 
+4.3499999999999925e+00 -5.7926898403937732e-01 +7.6546920331760564e+00 +4.4658404301101475e+00 +2.8904729310781068e+01 +1.0475720271584569e+04 -4.9803165356287686e+05 -8.3280515806328923e+07 
+4.3999999999999924e+00 -5.7929849711553738e-01 +7.6562428659041801e+00 +4.4288453227914273e+00 +2.8973305547301422e+01 +1.0633182374893160e+04 -4.9697796307092346e+05 -8.4275841393035695e+07 
+4.4499999999999922e+00 -5.7932825930725351e-01 +7.6578050818084860e+00 +4.3913800506951937e+00 +2.9039939103546743e+01 +1.0797707160252025e+04 -4.9593673883933213e+05 -8.5313515512021810e+07 
+4.4999999999999920e+00 -5.7935826789397737e-01 +7.6593784738990927e+00 +4.3534659234980282e+00 +2.9104738506473009e+01 +1.0968873274440901e+04 -4.9490898407303134e+05 -8.6390879614988059e+07 
+4.5499999999999918e+00 -5.7938852015514219e-01 +7.6609628351879042e+00 +4.3151242487225758e+00 +2.9167812220226175e+01 +1.1146259413995534e+04 -4.9389570153974701e+05 -8.7505275458692387e+07 
+4.5999999999999917e+00 -5.7941901337021007e-01 +7.6625579586834984e+00 +4.2763763381739368e+00 +2.9229268844261487e+01 +1.1329444165164354e+04 -4.9289789513397281e+05 -8.8654044069254175e+07 
+4.6499999999999915e+00 -5.7944974481860356e-01 +7.6641636373955482e+00 +4.2372434974353119e+00 +2.9289216923457769e+01 +1.1518006278538282e+04 -4.9191656831622071e+05 -8.9834527568226218e+07 
+4.6999999999999913e+00 -5.7948071177977656e-01 +7.6657796643298770e+00 +4.1977470376054908e+00 +2.9347765173202006e+01 +1.1711524357366186e+04 -4.9095272602726059e+05 -9.1044067086440489e+07 
+4.7499999999999911e+00 -5.7951191153316073e-01 +7.6674058324941967e+00 +4.1579082662441422e+00 +2.9405022228002998e+01 +1.1909577099191611e+04 -4.9000737257467164e+05 -9.2280004383477688e+07 
+4.7999999999999909e+00 -5.7954334135820462e-01 +7.6690419348901724e+00 +4.1177484936360056e+00 +2.9461096960715960e+01 +1.2111743131936690e+04 -4.8908151423435227e+05 -9.3539680759757012e+07 
+4.8499999999999908e+00 -5.7957499853434002e-01 +7.6706877645257645e+00 +4.0772890284355574e+00 +2.9516097999547661e+01 +1.2317601119108533e+04 -4.8817615536361415e+05 -9.4820437723441288e+07 
+4.8999999999999906e+00 -5.7960688034100283e-01 +7.6723431144015644e+00 +4.0365511797607052e+00 +2.9570134259574836e+01 +1.2526729717534958e+04 -4.8729230266915774e+05 -9.6119616756653205e+07 
+4.9499999999999904e+00 -5.7963898405760772e-01 +7.6740077775194298e+00 +3.9955562538269067e+00 +2.9623314613262338e+01 +1.2738707658758052e+04 -4.8643096258746739e+05 -9.7434559829857737e+07 
+4.9999999999999902e+00 -5.7967130696361080e-01 +7.6756815468778301e+00 +3.9543255645883582e+00 +2.9675748060305679e+01 +1.2953113465913362e+04 -4.8559314261483692e+05 -9.8762607504215732e+07 
+5.0499999999999901e+00 -5.7970384633842409e-01 +7.6773642154767847e+00 +3.9128804183653694e+00 +2.9727543547651162e+01 +1.3169525871618378e+04 -4.8477984990957851e+05 -1.0010110176623771e+08 
