# trajectory
# s[mm] rx[mm] ry[mm] rz[mm] px[rad] py[rad] pz[rad]
0.0000000000000000e+00 +8.5269999999999992e+00 +0.0000000000000000e+00 +0.0000000000000000e+00 +0.0000000000000000e+00 +0.0000000000000000e+00 +1.0000000000000000e+00
5.0000000000000003e-02 +8.5269999309821518e+00 +0.0000000000000000e+00 +4.9999999999936498e-02 -2.7607138405069131e-06 +0.0000000000000000e+00 +9.9999999999618927e-01
1.0000000000000001e-01 +8.5269997239286042e+00 +0.0000000000000000e+00 +9.9999999999491912e-02 -5.5214283504569555e-06 +0.0000000000000000e+00 +9.9999999998475697e-01
1.5000000000000002e-01 +8.5269993788392746e+00 +0.0000000000000000e+00 +1.4999999999828517e-01 -8.2821454152393656e-06 +0.0000000000000000e+00 +9.9999999996570310e-01
2.0000000000000001e-01 +8.5269988957139891e+00 +0.0000000000000000e+00 +1.9999999999593521e-01 -1.1042866916212753e-05 +0.0000000000000000e+00 +9.9999999993902766e-01
2.5000000000000000e-01 +8.5269982745524775e+00 +0.0000000000000000e+00 +2.4999999999206091e-01 -1.3803594730705181e-05 +0.0000000000000000e+00 +9.9999999990473054e-01
2.9999999999999999e-01 +8.5269975153543793e+00 +0.0000000000000000e+00 +2.9999999998628124e-01 -1.6564330732014257e-05 +0.0000000000000000e+00 +9.9999999986281163e-01
3.4999999999999998e-01 +8.5269966181192363e+00 +0.0000000000000000e+00 +3.4999999997821507e-01 -1.9325076789407222e-05 +0.0000000000000000e+00 +9.9999999981327081e-01
3.9999999999999997e-01 +8.5269955828465012e+00 +0.0000000000000000e+00 +3.9999999996748131e-01 -2.2085834768121035e-05 +0.0000000000000000e+00 +9.9999999975610809e-01
4.4999999999999996e-01 +8.5269944095355292e+00 +0.0000000000000000e+00 +4.4999999995369888e-01 -2.4846606529362459e-05 +0.0000000000000000e+00 +9.9999999969132325e-01
4.9999999999999994e-01 +8.5269930981855868e+00 +0.0000000000000000e+00 +4.9999999993648664e-01 -2.7607393930308155e-05 +0.0000000000000000e+00 +9.9999999961891606e-01
5.4999999999999993e-01 +8.5269916487958444e+00 +0.0000000000000000e+00 +5.4999999991546344e-01 -3.0368198824104747e-05 +0.0000000000000000e+00 +9.9999999953888641e-01
5.9999999999999998e-01 +8.5269900613653817e+00 +0.0000000000000000e+00 +5.9999999989024821e-01 -3.3129023059868936e-05 +0.0000000000000000e+00 +9.9999999945123408e-01
6.5000000000000002e-01 +8.5269883358931846e+00 +0.0000000000000000e+00 +6.4999999986045975e-01 -3.5889868482687555e-05 +0.0000000000000000e+00 +9.9999999935595885e-01
7.0000000000000007e-01 +8.5269864723781481e+00 +0.0000000000000000e+00 +6.9999999982571703e-01 -3.8650736933617683e-05 +0.0000000000000000e+00 +9.9999999925306049e-01
7.5000000000000011e-01 +8.5269844708190767e+00 +0.0000000000000000e+00 +7.4999999978563880e-01 -4.1411630249686702e-05 +0.0000000000000000e+00 +9.9999999914253868e-01
8.0000000000000016e-01 +8.5269823312146791e+00 +0.0000000000000000e+00 +7.9999999973984381e-01 -4.4172550263892398e-05 +0.0000000000000000e+00 +9.9999999902439318e-01
8.5000000000000020e-01 +8.5269800535635749e+00 +0.0000000000000000e+00 +8.4999999968795104e-01 -4.6933498805203033e-05 +0.0000000000000000e+00 +9.9999999889862368e-01
9.0000000000000024e-01 +8.5269776378642934e+00 +0.0000000000000000e+00 +8.9999999962957911e-01 -4.9694477698557444e-05 +0.0000000000000000e+00 +9.9999999876522983e-01
9.5000000000000029e-01 +8.5269750841152696e+00 +0.0000000000000000e+00 +9.4999999956434689e-01 -5.2455488764865100e-05 +0.0000000000000000e+00 +9.9999999862421118e-01
1.0000000000000002e+00 +8.5269723923148497e+00 +0.0000000000000000e+00 +9.9999999949187313e-01 -5.5216533821006213e-05 +0.0000000000000000e+00 +9.9999999847556753e-01
1.0500000000000003e+00 +8.5269695624612893e+00 +0.0000000000000000e+00 +1.0499999994117766e+00 -5.7977614679831785e-05 +0.0000000000000000e+00 +9.9999999831929842e-01
1.1000000000000003e+00 +8.5269665945527535e+00 +0.0000000000000000e+00 +1.0999999993236760e+00 -6.0738733150163727e-05 +0.0000000000000000e+00 +9.9999999815540352e-01
1.1500000000000004e+00 +8.5269634885873167e+00 +0.0000000000000000e+00 +1.1499999992271899e+00 -6.3499891036794908e-05 +0.0000000000000000e+00 +9.9999999798388228e-01
1.2000000000000004e+00 +8.5269602445629626e+00 +0.0000000000000000e+00 +1.1999999991219370e+00 -6.6261090140489265e-05 +0.0000000000000000e+00 +9.9999999780473436e-01
1.2500000000000004e+00 +8.5269568624775864e+00 +0.0000000000000000e+00 +1.2499999990075361e+00 -6.9022332257981833e-05 +0.0000000000000000e+00 +9.9999999761795921e-01
1.3000000000000005e+00 +8.5269533423289907e+00 +0.0000000000000000e+00 +1.2999999988836057e+00 -7.1783619181978883e-05 +0.0000000000000000e+00 +9.9999999742355639e-01
1.3500000000000005e+00 +8.5269496841148911e+00 +0.0000000000000000e+00 +1.3499999987497646e+00 -7.4544952701157977e-05 +0.0000000000000000e+00 +9.9999999722152544e-01
1.4000000000000006e+00 +8.5269458878329143e+00 +0.0000000000000000e+00 +1.3999999986056313e+00 -7.7306334600168016e-05 +0.0000000000000000e+00 +9.9999999701186570e-01
1.4500000000000006e+00 +8.5269419534805948e+00 +0.0000000000000000e+00 +1.4499999984508241e+00 -8.0067766659629367e-05 +0.0000000000000000e+00 +9.9999999679457674e-01
1.5000000000000007e+00 +8.5269378810553818e+00 +0.0000000000000000e+00 +1.4999999982849617e+00 -8.2829250656133927e-05 +0.0000000000000000e+00 +9.9999999656965799e-01
1.5500000000000007e+00 +8.5269336705546337e+00 +0.0000000000000000e+00 +1.5499999981076626e+00 -8.5590788362245167e-05 +0.0000000000000000e+00 +9.9999999633710890e-01
1.6000000000000008e+00 +8.5269293219756204e+00 +0.0000000000000000e+00 +1.5999999979185453e+00 -8.8352381546498237e-05 +0.0000000000000000e+00 +9.9999999609692880e-01
1.6500000000000008e+00 +8.5269248353155245e+00 +0.0000000000000000e+00 +1.6499999977172282e+00 -9.1114031973400065e-05 +0.0000000000000000e+00 +9.9999999584911703e-01
1.7000000000000008e+00 +8.5269202105714399e+00 +0.0000000000000000e+00 +1.6999999975033298e+00 -9.3875741403429377e-05 +0.0000000000000000e+00 +9.9999999559367303e-01
1.7500000000000009e+00 +8.5269154477403717e+00 +0.0000000000000000e+00 +1.7499999972764684e+00 -9.6637511593036817e-05 +0.0000000000000000e+00 +9.9999999533059614e-01
1.8000000000000009e+00 +8.5269105468192379e+00 +0.0000000000000000e+00 +1.7999999970362621e+00 -9.9399344294645001e-05 +0.0000000000000000e+00 +9.9999999505988568e-01
1.8500000000000010e+00 +8.5269055078048712e+00 +0.0000000000000000e+00 +1.8499999967823295e+00 -1.0216124125664860e-04 +0.0000000000000000e+00 +9.9999999478154089e-01
1.9000000000000010e+00 +8.5269003306940121e+00 +0.0000000000000000e+00 +1.8999999965142889e+00 -1.0492320422341440e-04 +0.0000000000000000e+00 +9.9999999449556110e-01
1.9500000000000011e+00 +8.5268950154833192e+00 +0.0000000000000000e+00 +1.9499999962317582e+00 -1.0768523493528139e-04 +0.0000000000000000e+00 +9.9999999420194552e-01
2.0000000000000009e+00 +8.5268895621693606e+00 +0.0000000000000000e+00 +1.9999999959343560e+00 -1.1044733512856086e-04 +0.0000000000000000e+00 +9.9999999390069350e-01
2.0500000000000007e+00 +8.5268839707486190e+00 +0.0000000000000000e+00 +2.0499999956217003e+00 -1.1320950653524514e-04 +0.0000000000000000e+00 +9.9999999359180425e-01
2.1000000000000005e+00 +8.5268782412174904e+00 +0.0000000000000000e+00 +2.0999999952934090e+00 -1.1597175087980363e-04 +0.0000000000000000e+00 +9.9999999327527689e-01
2.1500000000000004e+00 +8.5268723735722869e+00 +0.0000000000000000e+00 +2.1499999949491007e+00 -1.1873406987597879e-04 +0.0000000000000000e+00 +9.9999999295111075e-01
2.2000000000000002e+00 +8.5268663678092302e+00 +0.0000000000000000e+00 +2.1999999945883930e+00 -1.2149646522649495e-04 +0.0000000000000000e+00 +9.9999999261930494e-01
2.2500000000000000e+00 +8.5268602239244622e+00 +0.0000000000000000e+00 +2.2499999942109041e+00 -1.2425893862305832e-04 +0.0000000000000000e+00 +9.9999999227985858e-01
2.2999999999999998e+00 +8.5268539419140392e+00 +0.0000000000000000e+00 +2.2999999938162516e+00 -1.2702149174635710e-04 +0.0000000000000000e+00 +9.9999999193277078e-01
2.3499999999999996e+00 +8.5268475217739308e+00 +0.0000000000000000e+00 +2.3499999934040536e+00 -1.2978412626606147e-04 +0.0000000000000000e+00 +9.9999999157804076e-01
2.3999999999999995e+00 +8.5268409635000282e+00 +0.0000000000000000e+00 +2.3999999929739282e+00 -1.3254684384082370e-04 +0.0000000000000000e+00 +9.9999999121566752e-01
2.4499999999999993e+00 +8.5268342670881356e+00 +0.0000000000000000e+00 +2.4499999925254929e+00 -1.3530964611827820e-04 +0.0000000000000000e+00 +9.9999999084565028e-01
2.4999999999999991e+00 +8.5268274325339775e+00 +0.0000000000000000e+00 +2.4999999920583660e+00 -1.3807253473504153e-04 +0.0000000000000000e+00 +9.9999999046798804e-01
2.5499999999999989e+00 +8.5268204598331963e+00 +0.0000000000000000e+00 +2.5499999915721645e+00 -1.4083551131671251e-04 +0.0000000000000000e+00 +9.9999999008267981e-01
2.5999999999999988e+00 +8.5268133489813529e+00 +0.0000000000000000e+00 +2.5999999910665066e+00 -1.4359857747787223e-04 +0.0000000000000000e+00 +9.9999998968972470e-01
2.6499999999999986e+00 +8.5268060999739284e+00 +0.0000000000000000e+00 +2.6499999905410094e+00 -1.4636173482208411e-04 +0.0000000000000000e+00 +9.9999998928912170e-01
2.6999999999999984e+00 +8.5267987128063236e+00 +0.0000000000000000e+00 +2.6999999899952911e+00 -1.4912498494189396e-04 +0.0000000000000000e+00 +9.9999998888086983e-01
2.7499999999999982e+00 +8.5267911874738616e+00 +0.0000000000000000e+00 +2.7499999894289688e+00 -1.5188832941883000e-04 +0.0000000000000000e+00 +9.9999998846496807e-01
2.7999999999999980e+00 +8.5267835239717833e+00 +0.0000000000000000e+00 +2.7999999888416602e+00 -1.5465176982340292e-04 +0.0000000000000000e+00 +9.9999998804141543e-01
2.8499999999999979e+00 +8.5267757222952536e+00 +0.0000000000000000e+00 +2.8499999882329830e+00 -1.5741530771510594e-04 +0.0000000000000000e+00 +9.9999998761021081e-01
2.8999999999999977e+00 +8.5267677824393608e+00 +0.0000000000000000e+00 +2.8999999876025537e+00 -1.6017894464241485e-04 +0.0000000000000000e+00 +9.9999998717135319e-01
2.9499999999999975e+00 +8.5267597043991135e+00 +0.0000000000000000e+00 +2.9499999869499907e+00 -1.6294268214278802e-04 +0.0000000000000000e+00 +9.9999998672484147e-01
2.9999999999999973e+00 +8.5267514881694453e+00 +0.0000000000000000e+00 +2.9999999862749105e+00 -1.6570652174266649e-04 +0.0000000000000000e+00 +9.9999998627067466e-01
3.0499999999999972e+00 +8.5267431337452120e+00 +0.0000000000000000e+00 +3.0499999855769304e+00 -1.6847046495747396e-04 +0.0000000000000000e+00 +9.9999998580885152e-01
3.0999999999999970e+00 +8.5267346411211964e+00 +0.0000000000000000e+00 +3.0999999848556681e+00 -1.7123451329161687e-04 +0.0000000000000000e+00 +9.9999998533937107e-01
3.1499999999999968e+00 +8.5267260102921050e+00 +0.0000000000000000e+00 +3.1499999841107402e+00 -1.7399866823848443e-04 +0.0000000000000000e+00 +9.9999998486223207e-01
3.1999999999999966e+00 +8.5267172412525714e+00 +0.0000000000000000e+00 +3.1999999833417636e+00 -1.7676293128044863e-04 +0.0000000000000000e+00 +9.9999998437743343e-01
3.2499999999999964e+00 +8.5267083339971510e+00 +0.0000000000000000e+00 +3.2499999825483559e+00 -1.7952730388886431e-04 +0.0000000000000000e+00 +9.9999998388497391e-01
3.2999999999999963e+00 +8.5266992885203319e+00 +0.0000000000000000e+00 +3.2999999817301333e+00 -1.8229178752406918e-04 +0.0000000000000000e+00 +9.9999998338485241e-01
3.3499999999999961e+00 +8.5266901048165238e+00 +0.0000000000000000e+00 +3.3499999808867131e+00 -1.8505638363538386e-04 +0.0000000000000000e+00 +9.9999998287706771e-01
3.3999999999999959e+00 +8.5266807828800690e+00 +0.0000000000000000e+00 +3.3999999800177121e+00 -1.8782109366111190e-04 +0.0000000000000000e+00 +9.9999998236161869e-01
3.4499999999999957e+00 +8.5266713227052353e+00 +0.0000000000000000e+00 +3.4499999791227469e+00 -1.9058591902853980e-04 +0.0000000000000000e+00 +9.9999998183850403e-01
3.4999999999999956e+00 +8.5266617242862210e+00 +0.0000000000000000e+00 +3.4999999782014344e+00 -1.9335086115393710e-04 +0.0000000000000000e+00 +9.9999998130772250e-01
3.5499999999999954e+00 +8.5266519876171518e+00 +0.0000000000000000e+00 +3.5499999772533912e+00 -1.9611592144255636e-04 +0.0000000000000000e+00 +9.9999998076927288e-01
3.5999999999999952e+00 +8.5266421126920839e+00 +0.0000000000000000e+00 +3.5999999762782338e+00 -1.9888110128863317e-04 +0.0000000000000000e+00 +9.9999998022315395e-01
3.6499999999999950e+00 +8.5266320995050062e+00 +0.0000000000000000e+00 +3.6499999752755787e+00 -2.0164640207538621e-04 +0.0000000000000000e+00 +9.9999997966936438e-01
3.6999999999999948e+00 +8.5266219480498382e+00 +0.0000000000000000e+00 +3.6999999742450425e+00 -2.0441182517501731e-04 +0.0000000000000000e+00 +9.9999997910790295e-01
3.7499999999999947e+00 +8.5266116583204283e+00 +0.0000000000000000e+00 +3.7499999731862412e+00 -2.0717737194871137e-04 +0.0000000000000000e+00 +9.9999997853876832e-01
3.7999999999999945e+00 +8.5266012303105594e+00 +0.0000000000000000e+00 +3.7999999720987914e+00 -2.0994304374663650e-04 +0.0000000000000000e+00 +9.9999997796195927e-01
3.8499999999999943e+00 +8.5265906640139466e+00 +0.0000000000000000e+00 +3.8499999709823092e+00 -2.1270884190794395e-04 +0.0000000000000000e+00 +9.9999997737747437e-01
3.8999999999999941e+00 +8.5265799594242395e+00 +0.0000000000000000e+00 +3.8999999698364110e+00 -2.1547476776076821e-04 +0.0000000000000000e+00 +9.9999997678531227e-01
3.9499999999999940e+00 +8.5265691165350201e+00 +0.0000000000000000e+00 +3.9499999686607126e+00 -2.1824082262222698e-04 +0.0000000000000000e+00 +9.9999997618547165e-01
3.9999999999999938e+00 +8.5265581353398048e+00 +0.0000000000000000e+00 +3.9999999674548303e+00 -2.2100700779842118e-04 +0.0000000000000000e+00 +9.9999997557795117e-01
4.0499999999999936e+00 +8.5265470158320458e+00 +0.0000000000000000e+00 +4.0499999662183797e+00 -2.2377332458435996e-04 +0.0000000000000000e+00 +9.9999997496274950e-01
4.0999999999999934e+00 +8.5265357580051315e+00 +0.0000000000000000e+00 +4.0999999649509773e+00 -2.2653977426313510e-04 +0.0000000000000000e+00 +9.9999997433986521e-01
4.1499999999999932e+00 +8.5265243618523847e+00 +0.0000000000000000e+00 +4.1499999636522382e+00 -2.2930635810509547e-04 +0.0000000000000000e+00 +9.9999997370929694e-01
4.1999999999999931e+00 +8.5265128273670641e+00 +0.0000000000000000e+00 +4.1999999623217787e+00 -2.3207307736777195e-04 +0.0000000000000000e+00 +9.9999997307104327e-01
4.2499999999999929e+00 +8.5265011545423697e+00 +0.0000000000000000e+00 +4.2499999609592143e+00 -2.3483993329587749e-04 +0.0000000000000000e+00 +9.9999997242510275e-01
4.2999999999999927e+00 +8.5264893433714359e+00 +0.0000000000000000e+00 +4.2999999595641611e+00 -2.3760692712130707e-04 +0.0000000000000000e+00 +9.9999997177147393e-01
4.3499999999999925e+00 +8.5264773938473386e+00 +0.0000000000000000e+00 +4.3499999581362339e+00 -2.4037406006313774e-04 +0.0000000000000000e+00 +9.9999997111015548e-01
4.3999999999999924e+00 +8.5264653059630913e+00 +0.0000000000000000e+00 +4.3999999566750487e+00 -2.4314133332762860e-04 +0.0000000000000000e+00 +9.9999997044114586e-01
4.4499999999999922e+00 +8.5264530797116471e+00 +0.0000000000000000e+00 +4.4499999551802203e+00 -2.4590874810822086e-04 +0.0000000000000000e+00 +9.9999996976444361e-01
4.4999999999999920e+00 +8.5264407150859025e+00 +0.0000000000000000e+00 +4.4999999536513648e+00 -2.4867630558553775e-04 +0.0000000000000000e+00 +9.9999996908004729e-01
4.5499999999999918e+00 +8.5264282120786916e+00 +0.0000000000000000e+00 +4.5499999520880969e+00 -2.5144400692738458e-04 +0.0000000000000000e+00 +9.9999996838795546e-01
4.5999999999999917e+00 +8.5264155706827935e+00 +0.0000000000000000e+00 +4.5999999504900320e+00 -2.5421185328874880e-04 +0.0000000000000000e+00 +9.9999996768816657e-01
4.6499999999999915e+00 +8.5264027908909270e+00 +0.0000000000000000e+00 +4.6499999488567854e+00 -2.5697984581179995e-04 +0.0000000000000000e+00 +9.9999996698067917e-01
4.6999999999999913e+00 +8.5263898726957574e+00 +0.0000000000000000e+00 +4.6999999471879716e+00 -2.5974798562588956e-04 +0.0000000000000000e+00 +9.9999996626549170e-01
4.7499999999999911e+00 +8.5263768160898916e+00 +0.0000000000000000e+00 +4.7499999454832063e+00 -2.6251627384755126e-04 +0.0000000000000000e+00 +9.9999996554260273e-01
4.7999999999999909e+00 +8.5263636210658813e+00 +0.0000000000000000e+00 +4.7999999437421037e+00 -2.6528471158050076e-04 +0.0000000000000000e+00 +9.9999996481201059e-01
4.8499999999999908e+00 +8.5263502876162232e+00 +0.0000000000000000e+00 +4.8499999419642785e+00 -2.6805329991563587e-04 +0.0000000000000000e+00 +9.9999996407371383e-01
4.8999999999999906e+00 +8.5263368157333606e+00 +0.0000000000000000e+00 +4.8999999401493461e+00 -2.7082203993103644e-04 +0.0000000000000000e+00 +9.9999996332771091e-01
4.9499999999999904e+00 +8.5263232054096836e+00 +0.0000000000000000e+00 +4.9499999382969211e+00 -2.7359093269196439e-04 +0.0000000000000000e+00 +9.9999996257400026e-01
4.9999999999999902e+00 +8.5263094566375273e+00 +0.0000000000000000e+00 +4.9999999364066179e+00 -2.7635997925086367e-04 +0.0000000000000000e+00 +9.9999996181258044e-01
5.0499999999999901e+00 +8.5262955694091769e+00 +0.0000000000000000e+00 +5.0499999344780511e+00 -2.7912918064736022e-04 +0.0000000000000000e+00 +9.9999996104344968e-01
5.0999999999999899e+00 +8.5262815437168644e+00 +0.0000000000000000e+00 +5.0999999325108343e+00 -2.8189853790826209e-04 +0.0000000000000000e+00 +9.9999996026660654e-01
5.1499999999999897e+00 +8.5262673795527721e+00 +0.0000000000000000e+00 +5.1499999305045829e+00 -2.8466805204755926e-04 +0.0000000000000000e+00 +9.9999995948204945e-01
5.1999999999999895e+00 +8.5262530769090290e+00 +0.0000000000000000e+00 +5.1999999284589107e+00 -2.8743772406642382e-04 +0.0000000000000000e+00 +9.9999995868977676e-01
5.2499999999999893e+00 +8.5262386357777178e+00 +0.0000000000000000e+00 +5.2499999263734320e+00 -2.9020755495320975e-04 +0.0000000000000000e+00 +9.9999995788978691e-01
5.2999999999999892e+00 +8.5262240561508698e+00 +0.0000000000000000e+00 +5.2999999242477607e+00 -2.9297754568345300e-04 +0.0000000000000000e+00 +9.9999995708207823e-01
5.3499999999999890e+00 +8.5262093380204700e+00 +0.0000000000000000e+00 +5.3499999220815111e+00 -2.9574769721987153e-04 +0.0000000000000000e+00 +9.9999995626664917e-01
5.3999999999999888e+00 +8.5261944813784520e+00 +0.0000000000000000e+00 +5.3999999198742969e+00 -2.9851801051236523e-04 +0.0000000000000000e+00 +9.9999995544349807e-01
5.4499999999999886e+00 +8.5261794862167068e+00 +0.0000000000000000e+00 +5.4499999176257319e+00 -3.0128848649801584e-04 +0.0000000000000000e+00 +9.9999995461262325e-01
5.4999999999999885e+00 +8.5261643525270756e+00 +0.0000000000000000e+00 +5.4999999153354304e+00 -3.0405912610108706e-04 +0.0000000000000000e+00 +9.9999995377402318e-01
5.5499999999999883e+00 +8.5261490803013551e+00 +0.0000000000000000e+00 +5.5499999130030053e+00 -3.0682993023302445e-04 +0.0000000000000000e+00 +9.9999995292769617e-01
5.5999999999999881e+00 +8.5261336695312959e+00 +0.0000000000000000e+00 +5.5999999106280711e+00 -3.0960089979245538e-04 +0.0000000000000000e+00 +9.9999995207364056e-01
5.6499999999999879e+00 +8.5261181202086043e+00 +0.0000000000000000e+00 +5.6499999082102406e+00 -3.1237203566518906e-04 +0.0000000000000000e+00 +9.9999995121185481e-01
5.6999999999999877e+00 +8.5261024323249437e+00 +0.0000000000000000e+00 +5.6999999057491273e+00 -3.1514333872421658e-04 +0.0000000000000000e+00 +9.9999995034233713e-01
5.7499999999999876e+00 +8.5260866058719316e+00 +0.0000000000000000e+00 +5.7499999032443450e+00 -3.1791480982971070e-04 +0.0000000000000000e+00 +9.9999994946508586e-01
5.7999999999999874e+00 +8.5260706408411462e+00 +0.0000000000000000e+00 +5.7999999006955072e+00 -3.2068644982902596e-04 +0.0000000000000000e+00 +9.9999994858009944e-01
5.8499999999999872e+00 +8.5260545372241197e+00 +0.0000000000000000e+00 +5.8499998981022268e+00 -3.2345825955669855e-04 +0.0000000000000000e+00 +9.9999994768737610e-01
5.8999999999999870e+00 +8.5260382950123468e+00 +0.0000000000000000e+00 +5.8999998954641164e+00 -3.2623023983444646e-04 +0.0000000000000000e+00 +9.9999994678691417e-01
