# multipoles
# s[mm] polynom_b[n=0][T/m^n] polynom_b[n=1][T/m^n] polynom_b[n=2][T/m^n] polynom_b[n=3][T/m^n] polynom_b[n=4][T/m^n] polynom_b[n=5][T/m^n] polynom_b[n=6][T/m^n] 
-0.0000000000000000e+00 -5.2335752755715870e-01 +6.8652026490126552e+00 +5.6719097202407376e+00 -8.8891136629815961e+01 -2.0697183010888511e+03 +3.6843322092818539e+05 +1.4436534838686761e+07 
-5.0000000000000003e-02 -5.2336535755479330e-01 +6.8656326987416625e+00 +5.6634456912994073e+00 -8.8836914798202585e+01 -2.1148570314770109e+03 +3.6912046369404835e+05 +1.4704509102914078e+07 
-1.0000000000000001e-01 -5.2337354782383116e-01 +6.8660824200756156e+00 +5.6541171847221943e+00 -8.8773271351523462e+01 -2.1514999871222144e+03 +3.6974085554604721e+05 +1.4925558687810233e+07 
-1.4999999999999999e-01 -5.2338209703103256e-01 +6.8665516962670363e+00 +5.6439465629108634e+00 -8.8700405935881378e+01 -2.1800224958050089e+03 +3.7029631957535708e+05 +1.5101797166861365e+07 
-2.0000000000000001e-01 -5.2339100384319759e-01 +6.8670404105657097e+00 +5.6329561911797263e+00 -8.8618518051984267e+01 -2.2007999794775496e+03 +3.7078877765709249e+05 +1.5235338813939163e+07 
-2.5000000000000000e-01 -5.2340026692715746e-01 +6.8675484462289935e+00 +5.6211684323042501e+00 -8.8527807479367254e+01 -2.2142077769349157e+03 +3.7122015393389575e+05 +1.5328297279699989e+07 
-2.9999999999999999e-01 -5.2340988494972807e-01 +6.8680756865073480e+00 +5.6086056487282150e+00 -8.8428473691472064e+01 -2.2206212309517382e+03 +3.7159237005478435e+05 +1.5382786293760151e+07 
-3.4999999999999998e-01 -5.2341985657771317e-01 +6.8686220146581265e+00 +5.5952902058637841e+00 -8.8320716401234307e+01 -2.2204157544988484e+03 +3.7190734958865598e+05 +1.5400920023199379e+07 
-4.0000000000000002e-01 -5.2343018047803602e-01 +6.8691873139385295e+00 +5.5812444659827705e+00 -8.8204735301354958e+01 -2.2139666789844255e+03 +3.7216701595231961e+05 +1.5384812092070810e+07 
-4.5000000000000001e-01 -5.2344085531748730e-01 +6.8697714676051964e+00 +5.5664907917615318e+00 -8.8080730016936172e+01 -2.2016493519956557e+03 +3.7237329197601788e+05 +1.5336576257539140e+07 
-5.0000000000000000e-01 -5.2345187976301177e-01 +6.8703743589172337e+00 +5.5510515480887452e+00 -8.7948900255910374e+01 -2.1838391738644050e+03 +3.7252810116786440e+05 +1.5258326603800040e+07 
-5.5000000000000004e-01 -5.2346325248147885e-01 +6.8709958711330277e+00 +5.5349490973089708e+00 -8.7809445669630890e+01 -2.1609114806997291e+03 +3.7263336657800310e+05 +1.5152176797429377e+07 
-5.9999999999999998e-01 -5.2347497213985816e-01 +6.8716358875154500e+00 +5.5182058033534425e+00 -8.7662566056053890e+01 -2.1332416501008101e+03 +3.7269101239936764e+05 +1.5020240783223957e+07 
-6.5000000000000002e-01 -5.2348703740499791e-01 +6.8722942913216878e+00 +5.5008440283485056e+00 -8.7508460970510484e+01 -2.1012050109343413e+03 +3.7270296092201996e+05 +1.4864632171911344e+07 
-6.9999999999999996e-01 -5.2349944694389716e-01 +6.8729709658163598e+00 +5.4828861362879193e+00 -8.7347330228186138e+01 -2.0651769428658640e+03 +3.7267113645583537e+05 +1.4687464922612663e+07 
-7.5000000000000000e-01 -5.2351219942349048e-01 +6.8736657942608286e+00 +5.4643544907771098e+00 -8.7179373504675269e+01 -2.0255328169427607e+03 +3.7259746225018747e+05 +1.4490852939710466e+07 
-8.0000000000000004e-01 -5.2352529351074395e-01 +6.8743786599189134e+00 +5.4452714537331186e+00 -8.7004790536335918e+01 -1.9826479558604963e+03 +3.7248386198588001e+05 +1.4276909791637762e+07 
-8.4999999999999998e-01 -5.2353872787267164e-01 +6.8751094460524040e+00 +5.4256593885957605e+00 -8.6823780964490737e+01 -1.9368977242626822e+03 +3.7233225860141963e+05 +1.4047749333277246e+07 
-9.0000000000000002e-01 -5.2355250117628782e-01 +6.8758580359267958e+00 +5.4055406612317958e+00 -8.6636544550733873e+01 -1.8886575561303764e+03 +3.7214457599131484e+05 +1.3805485902075179e+07 
-9.4999999999999996e-01 -5.2356661208855548e-01 +6.8766243128059505e+00 +5.3849376299279097e+00 -8.6443280971769070e+01 -1.8383026755907654e+03 +3.7192273737222806e+05 +1.3552232396585353e+07 
-1.0000000000000000e+00 -5.2358105927652698e-01 +6.8774081599558841e+00 +5.3638726621986601e+00 -8.6244189970952206e+01 -1.7862085585895422e+03 +3.7166866651304741e+05 +1.3290103426320417e+07 
-1.0500000000000000e+00 -5.2359584140725302e-01 +6.8782094606400817e+00 +5.3423681186278182e+00 -8.6039471159432722e+01 -1.7327504965791215e+03 +3.7138428605047090e+05 +1.3021212365560981e+07 
-1.1000000000000001e+00 -5.2361095714773642e-01 +6.8790280981255991e+00 +5.3204463621389051e+00 -8.5829324285547756e+01 -1.6783038410352096e+03 +3.7107151982327807e+05 +1.2747672979326002e+07 
-1.1499999999999999e+00 -5.2362640516513537e-01 +6.8798639556761261e+00 +5.2981297585230909e+00 -8.5613948934141561e+01 -1.6232440208235412e+03 +3.7073229027061886e+05 +1.2471599556082983e+07 
-1.2000000000000000e+00 -5.2364218412646679e-01 +6.8807169165608855e+00 +5.2754406683954400e+00 -8.5393544897041380e+01 -1.5679463270588499e+03 +3.7036852156397235e+05 +1.2195105462939247e+07 
-1.2500000000000000e+00 -5.2365829269882447e-01 +6.8815868640422453e+00 +5.2524014554092116e+00 -8.5168311660086289e+01 -1.5127861338773371e+03 +3.6998213533815491e+05 +1.1920304626675654e+07 
-1.3000000000000000e+00 -5.2367472954934213e-01 +6.8824736813898371e+00 +5.2290344831056963e+00 -8.4938449006951657e+01 -1.4581388100339350e+03 +3.6957505572748010e+05 +1.1649310931171199e+07 
-1.3500000000000001e+00 -5.2369149334513854e-01 +6.8833772518687937e+00 +5.2053621147987803e+00 -8.4704156498213294e+01 -1.4043797214758265e+03 +3.6914920498346357e+05 +1.1384238254037907e+07 
-1.3999999999999999e+00 -5.2370858275329335e-01 +6.8842974587434096e+00 +5.1814067134347574e+00 -8.4465633658954644e+01 -1.3518842196517726e+03 +3.6870650512498600e+05 +1.1127200353976490e+07 
-1.4500000000000000e+00 -5.2372599644099260e-01 +6.8852341852836352e+00 +5.1571906413129449e+00 -8.4223080223389189e+01 -1.3010276449501748e+03 +3.6824887986764323e+05 +1.0880310941686181e+07 
-1.5000000000000000e+00 -5.2374373307540334e-01 +6.8861873147523012e+00 +5.1327362635787264e+00 -8.3976695623659324e+01 -1.2521854096949935e+03 +3.6777825047392171e+05 +1.0645684194661643e+07 
-1.5500000000000000e+00 -5.2376179132365375e-01 +6.8871567304180603e+00 +5.1080659413931864e+00 -8.3726679501079843e+01 -1.2057328218501955e+03 +3.6729653988564073e+05 +1.0425433593784500e+07 
-1.6000000000000001e+00 -5.2378016985292797e-01 +6.8881423155419972e+00 +5.0832020390701658e+00 -8.3473231190723155e+01 -1.1620452739462662e+03 +3.6680566861224815e+05 +1.0221673191667229e+07 
-1.6499999999999999e+00 -5.2379886733044034e-01 +6.8891439533962631e+00 +5.0581669199286763e+00 -8.3216550454038710e+01 -1.1214981325354818e+03 +3.6630756060785259e+05 +1.0036516867028529e+07 
-1.7000000000000000e+00 -5.2381788242336702e-01 +6.8901615272410188e+00 +5.0329829470700860e+00 -8.2956836556388041e+01 -1.0844667541989579e+03 +3.6580413581688650e+05 +9.8720784141530972e+06 
-1.7500000000000000e+00 -5.2383721379893500e-01 +6.8911949203425413e+00 +5.0076724823432883e+00 -8.2694289005508665e+01 -1.0513264700239038e+03 +3.6529731618930027e+05 +9.7304714890962839e+06 
-1.8000000000000000e+00 -5.2385686012436128e-01 +6.8922440159643816e+00 +4.9822578925280609e+00 -8.2429107168833283e+01 -1.0224527382552309e+03 +3.6478902248417743e+05 +9.6138105784681402e+06 
-1.8500000000000001e+00 -5.2387682006686387e-01 +6.8933086973722251e+00 +4.9567615379892533e+00 -8.2161490498542221e+01 -9.9822084580021874e+02 +3.6428117619721894e+05 +9.5242090234251190e+06 
-1.8999999999999999e+00 -5.2389709229370873e-01 +6.8943888478278907e+00 +4.9312057817681429e+00 -8.1891638292111296e+01 -9.7900615440966806e+02 +3.6377569762347528e+05 +9.4637806761976909e+06 
-1.9500000000000000e+00 -5.2391767547214851e-01 +6.8954843505946330e+00 +4.9056129911080788e+00 -8.1619749872435534e+01 -9.6518413465377137e+02 +3.6327450719637505e+05 +9.4346401068804879e+06 
-2.0000000000000000e+00 -5.2393856826944962e-01 +6.8965950889356629e+00 +4.8800055253818941e+00 -8.1346024569258859e+01 -9.5713004922036225e+02 +3.6277952549868461e+05 +9.4389004977053944e+06 
-2.0499999999999998e+00 -5.2395976915303277e-01 +6.8977209370992290e+00 +4.8544019522059640e+00 -8.1070640856990821e+01 -9.5513647162861366e+02 +3.6229228585470538e+05 +9.4782047152744234e+06 
-2.1000000000000001e+00 -5.2398127578771159e-01 +6.8988617395849658e+00 +4.8288052346694501e+00 -8.0793678676734473e+01 -9.5916348417857091e+02 +3.6181267967240367e+05 +9.5523078891741242e+06 
-2.1499999999999999e+00 -5.2400308563687492e-01 +6.9000173298472500e+00 +4.8032146079520022e+00 -8.0515195869521989e+01 -9.6908754944292832e+02 +3.6134016242739261e+05 +9.6604916176141724e+06 
-2.2000000000000002e+00 -5.2402519616398435e-01 +6.9011875413400441e+00 +4.7776293101833183e+00 -8.0235250274221997e+01 -9.8478521056224497e+02 +3.6087418963751954e+05 +9.8020380440190714e+06 
-2.2500000000000000e+00 -5.2404760483243862e-01 +6.9023722075170397e+00 +4.7520485800816088e+00 -7.9953899696448829e+01 -1.0061330271593702e+03 +3.6041421651513589e+05 +9.9762294297569692e+06 
-2.2999999999999998e+00 -5.2407030910565855e-01 +6.9035711618348730e+00 +4.7264716542008562e+00 -7.9671202061957842e+01 -1.0330074980783240e+03 +3.5995969928240316e+05 +1.0182347616817717e+07 
-2.3500000000000001e+00 -5.2409330644704943e-01 +6.9047842377460755e+00 +4.7008977698105525e+00 -7.9387215114742943e+01 -1.0652851445140266e+03 +3.5951009264864755e+05 +1.0419674608599184e+07 
-2.3999999999999999e+00 -5.2411659432007318e-01 +6.9060112687065436e+00 +4.6753261638052370e+00 -7.9101996743134094e+01 -1.1028424764573954e+03 +3.5906485255127400e+05 +1.0687492331042022e+07 
-2.4500000000000002e+00 -5.2414017018815973e-01 +6.9072520881710551e+00 +4.6497560747567235e+00 -7.8815604768915165e+01 -1.1455560453215710e+03 +3.5862343433158688e+05 +1.0985082974590579e+07 
-2.5000000000000000e+00 -5.2416403151481117e-01 +6.9085065295932528e+00 +4.6241867399971452e+00 -7.8528096974392582e+01 -1.1933023757698782e+03 +3.5818529304284812e+05 +1.1311728577158945e+07 
-2.5499999999999998e+00 -5.2418817576341192e-01 +6.9097744264287604e+00 +4.5986173966843493e+00 -7.8239531204560336e+01 -1.2459579822525864e+03 +3.5774988422601885e+05 +1.1666711084957032e+07 
-2.6000000000000001e+00 -5.2421260039751461e-01 +6.9110556121331017e+00 +4.5730472839229144e+00 -7.7949965312410825e+01 -1.3033994341743260e+03 +3.5731666352213098e+05 +1.2049312828022368e+07 
-2.6499999999999999e+00 -5.2423730288054493e-01 +6.9123499201602714e+00 +4.5474756350257186e+00 -7.7659457074221976e+01 -1.3655031433801068e+03 +3.5688508592160279e+05 +1.2458815067941755e+07 
-2.7000000000000002e+00 -5.2426228067600888e-01 +6.9136571839657979e+00 +4.5219016921690951e+00 -7.7368064328874368e+01 -1.4321457608301371e+03 +3.5645460693731386e+05 +1.2894500679207509e+07 
-2.7500000000000000e+00 -5.2428753124738037e-01 +6.9149772370049938e+00 +4.4963246904053698e+00 -7.7075844901133578e+01 -1.5032037446187994e+03 +3.5602468195565365e+05 +1.3355651236678299e+07 
-2.7999999999999998e+00 -5.2431305205812861e-01 +6.9163099127321246e+00 +4.4707438681450471e+00 -7.6782856574309164e+01 -1.5785536472512993e+03 +3.5559476604104874e+05 +1.3841548965619685e+07 
-2.8500000000000001e+00 -5.2433884057176738e-01 +6.9176550446020499e+00 +4.4451584610534702e+00 -7.6489157149954792e+01 -1.6580719407362392e+03 +3.5516431438106165e+05 +1.4351475524206815e+07 
-2.8999999999999999e+00 -5.2436489425181676e-01 +6.9190124660711678e+00 +4.4195677099227799e+00 -7.6194804500242242e+01 -1.7416352399353043e+03 +3.5473278277917305e+05 +1.4884713555357486e+07 
-2.9500000000000002e+00 -5.2439121056176496e-01 +6.9203820105939826e+00 +4.3939708487740834e+00 -7.5899856407549905e+01 -1.8291199753265264e+03 +3.5429962625884166e+05 +1.5440544451769477e+07 
-3.0000000000000000e+00 -5.2441778696513275e-01 +6.9217635116251737e+00 +4.3683671167060796e+00 -7.5604370674344324e+01 -1.9204027127904906e+03 +3.5386430005604593e+05 +1.6018250513500910e+07 
-3.0499999999999998e+00 -5.2444462092541877e-01 +6.9231568026214694e+00 +4.3427557524282809e+00 -7.5308405175915027e+01 -2.0153600080655119e+03 +3.5342625996305782e+05 +1.6617113977135941e+07 
-3.1000000000000001e+00 -5.2447170990615977e-01 +6.9245617170371023e+00 +4.3171359918654622e+00 -7.5012017689556799e+01 -2.1138683440902860e+03 +3.5298496097566246e+05 +1.7236416597839914e+07 
-3.1499999999999999e+00 -5.2449905137087793e-01 +6.9259780883271320e+00 +4.2915070721730206e+00 -7.4715266037950613e+01 -2.2158042336198728e+03 +3.5253985849020479e+05 +1.7875440318573162e+07 
-3.2000000000000002e+00 -5.2452664278311323e-01 +6.9274057499478880e+00 +4.2658682327221884e+00 -7.4418208086272529e+01 -2.3210442494732270e+03 +3.5209040822125471e+05 +1.8533467493449707e+07 
-3.2500000000000000e+00 -5.2455448160636264e-01 +6.9288445353533596e+00 +4.2402187094897741e+00 -7.4120901607787061e+01 -2.4294648754121295e+03 +3.5163606512739352e+05 +1.9209779883877628e+07 
-3.2999999999999998e+00 -5.2458256530418801e-01 +6.9302942780010728e+00 +4.2145577398867538e+00 -7.3823404527262355e+01 -2.5409426290372844e+03 +3.5117628541299445e+05 +1.9903659465743098e+07 
-3.3500000000000001e+00 -5.2461089134016037e-01 +6.9317548113457272e+00 +4.1888845629154527e+00 -7.3525774659338694e+01 -2.6553540727755362e+03 +3.5071052439171367e+05 +2.0614388522855740e+07 
-3.3999999999999999e+00 -5.2463945717775906e-01 +6.9332259688417963e+00 +4.1631984140331282e+00 -7.3228069809590181e+01 -2.7725756739500598e+03 +3.5023823729245865e+05 +2.1341248703143954e+07 
-3.4500000000000002e+00 -5.2466826028053404e-01 +6.9347075839459578e+00 +4.1374985316715351e+00 -7.2930347878572292e+01 -2.8924839793070614e+03 +3.4975888010878681e+05 +2.2083522191098779e+07 
-3.5000000000000000e+00 -5.2469729811206667e-01 +6.9361994901124575e+00 +4.1117841552921330e+00 -7.2632666675893503e+01 -3.0149555630128584e+03 +3.4927190810515435e+05 +2.2840491353040788e+07 
-3.5499999999999998e+00 -5.2472656813588603e-01 +6.9377015207975772e+00 +4.0860545185985711e+00 -7.2335084102075342e+01 -3.1398668402170624e+03 +3.4877677728919266e+05 +2.3611437471680917e+07 
-3.6000000000000001e+00 -5.2475606781556006e-01 +6.9392135094570939e+00 +4.0603088625749821e+00 -7.2037658034479890e+01 -3.2670944284300385e+03 +3.4827294344818499e+05 +2.4395643219938584e+07 
-3.6499999999999999e+00 -5.2478579461462438e-01 +6.9407352895455778e+00 +4.0345464217016680e+00 -7.1740446320068642e+01 -3.3965147656804515e+03 +3.4775986216114386e+05 +2.5192390047427841e+07 
-3.6999999999999900e+00 -5.2481574599662173e-01 +6.9422666945218303e+00 +4.0087664357397008e+00 -7.1443506971585862e+01 -3.5280044280130555e+03 +3.4723699031232495e+05 +2.6000960317564905e+07 
-3.7499999999999898e+00 -5.2484591942515357e-01 +6.9438075578365668e+00 +3.9829681417870009e+00 -7.1146897696611120e+01 -3.6614399280701186e+03 +3.4670378233415069e+05 +2.6820636003494378e+07 
-3.7999999999999901e+00 -5.2487631236372312e-01 +6.9453577129485771e+00 +3.9571507769498226e+00 -7.0850676528056567e+01 -3.7966977725087622e+03 +3.4615969529027957e+05 +2.7650699014223520e+07 
-3.8499999999999899e+00 -5.2490692227593538e-01 +6.9469169933133426e+00 +3.9313135783603368e+00 -7.0554901379636604e+01 -3.9336544697803520e+03 +3.4560418527056207e+05 +2.8490431279119872e+07 
-3.8999999999999901e+00 -5.2493774662527293e-01 +6.9484852323851607e+00 +3.9054557835632986e+00 -7.0259630118617693e+01 -4.0721865357512238e+03 +3.4503670797712763e+05 +2.9339114761957005e+07 
-3.9499999999999900e+00 -5.2496878287537374e-01 +6.9500622636202278e+00 +3.8795766308524415e+00 -6.9964920710235234e+01 -4.2121705099405217e+03 +3.4445671991935658e+05 +3.0196031607189223e+07 
-3.9999999999999898e+00 -5.2500002848974370e-01 +6.9516479204749233e+00 +3.8536753578983118e+00 -6.9670831130818826e+01 -4.3534829153201126e+03 +3.4386367770459800e+05 +3.1060463847766206e+07 
-4.0499999999999901e+00 -5.2503148088935692e-01 +6.9532420314634793e+00 +3.8277514523980867e+00 -6.9377358287537746e+01 -4.4960035440656757e+03 +3.4325677715070127e+05 +3.1931703960860342e+07 
-4.0999999999999899e+00 -5.2506313732456911e-01 +6.9548444030084768e+00 +3.8018056832440958e+00 -6.9084264705278258e+01 -4.6396285050574807e+03 +3.4263425687872525e+05 +3.2809099799257185e+07 
-4.1499999999999897e+00 -5.2509499500313161e-01 +6.9564548354291196e+00 +3.7758392083810843e+00 -6.8791257596198591e+01 -4.7842585269525316e+03 +3.4199414235257445e+05 +3.3692014641204521e+07 
-4.1999999999999904e+00 -5.2512705113274116e-01 +6.9580731290444966e+00 +3.7498531847885626e+00 -6.8498044201623017e+01 -4.9297943007332024e+03 +3.4133445932845195e+05 +3.4579811462893449e+07 
-4.2499999999999902e+00 -5.2515930292118485e-01 +6.9596990841709427e+00 +3.7238487726342728e+00 -6.8204331660914875e+01 -5.0761366104746603e+03 +3.4065323270237900e+05 +3.5471853903708659e+07 
-4.2999999999999901e+00 -5.2519174757613385e-01 +6.9613325011275924e+00 +3.6978271298905807e+00 -6.7909827245677519e+01 -5.2231861770445848e+03 +3.3994848848848912e+05 +3.6367505156348638e+07 
-4.3499999999999899e+00 -5.2522438230533464e-01 +6.9629731802307253e+00 +3.6717894149586909e+00 -6.7614238124530885e+01 -5.3708437363140483e+03 +3.3921825183785340e+05 +3.7266128532119989e+07 
-4.3999999999999897e+00 -5.2525720431650846e-01 +6.9646209218000843e+00 +3.6457367869608861e+00 -6.7317271629641141e+01 -5.5190100444044674e+03 +3.3846054927881534e+05 +3.8167087482058346e+07 
-4.4499999999999904e+00 -5.2529021081734328e-01 +6.9662755261486291e+00 +3.6196704041046797e+00 -6.7018634836576652e+01 -5.6675858301466842e+03 +3.3767340525157965e+05 +3.9069745261500001e+07 
-4.4999999999999902e+00 -5.2532339901556979e-01 +6.9679367935987200e+00 +3.5935914236633284e+00 -6.6718035221895391e+01 -5.8164717982783832e+03 +3.3685484748938662e+05 +3.9973464971625946e+07 
-4.5499999999999901e+00 -5.2535676611889692e-01 +6.9696045244616469e+00 +3.5675010045685434e+00 -6.6415179831822712e+01 -5.9655687010465681e+03 +3.3600290021298634e+05 +4.0877610042694986e+07 
-4.5999999999999899e+00 -5.2539030933504560e-01 +6.9712785190573809e+00 +3.5414003041656734e+00 -6.6109776090300144e+01 -6.1147772478719407e+03 +3.3511559076300426e+05 +4.1781543618289776e+07 
-4.6499999999999897e+00 -5.2542402587164549e-01 +6.9729585777007985e+00 +3.5152904819046653e+00 -6.5801531223320126e+01 -6.2639982016336007e+03 +3.3419094484572863e+05 +4.2684629190258093e+07 
-4.6999999999999904e+00 -5.2545791293645039e-01 +6.9746445007085338e+00 +3.4891726936009908e+00 -6.5490152565857144e+01 -6.4131322317075528e+03 +3.3322698910577310e+05 +4.3586229637073658e+07 
-4.7499999999999902e+00 -5.2549196773709828e-01 +6.9763360883953540e+00 +3.4630480976384441e+00 -6.5175347391255585e+01 -6.5620800732578482e+03 +3.3222174968886684e+05 +4.4485708268990554e+07 
-4.7999999999999901e+00 -5.2552618748132562e-01 +6.9780331410779128e+00 +3.4369178532355837e+00 -6.4856823077863851e+01 -6.7107424914250987e+03 +3.3117325362033839e+05 +4.5382428628123760e+07 
-4.8499999999999899e+00 -5.2556056937672613e-01 +6.9797354590718435e+00 +3.4107831171240002e+00 -6.4534286979771494e+01 -6.8590201760530999e+03 +3.3007952773373848e+05 +4.6275753717180550e+07 
-4.8999999999999897e+00 -5.2559511063103748e-01 +6.9814428426900381e+00 +3.3846450459098665e+00 -6.4207446370212125e+01 -7.0068138183302053e+03 +3.2893859822032286e+05 +4.7165046567520373e+07 
-4.9499999999999904e+00 -5.2562980845189677e-01 +6.9831550922492083e+00 +3.3585047979670231e+00 -6.3876008702152397e+01 -7.1540241605786068e+03 +3.2774849277095887e+05 +4.8049670567528516e+07 
-4.9999999999999902e+00 -5.2566466004693002e-01 +6.9848720080640740e+00 +3.3323635301701238e+00 -6.3539681364964430e+01 -7.3005519004508378e+03 +3.2650723853791493e+05 +4.8928988790115260e+07 
-5.0499999999999901e+00 -5.2569966262604617e-01 +6.9865933814851084e+00 +3.3062228413091588e+00 -6.3198180177463023e+01 -7.4462976494487493e+03 +3.2521286251550110e+05 +4.9802363982322767e+07 
