# field on trajectory
# s[mm] rx[mm] ry[mm] rz[mm] bx[T] by[T] bz[T]
0.0000000000000000e+00 +8.5389999999999997e+00 +0.0000000000000000e+00 +0.0000000000000000e+00 -2.8838518284659959e-02 -5.5182771431071986e-01 +5.4553960680695504e-03
5.0000000000000003e-02 +8.5389999311455487e+00 +0.0000000000000000e+00 +4.9999999999936789e-02 -2.8838528633274806e-02 -5.5182782085328153e-01 +5.4544327127602418e-03
1.0000000000000001e-01 +8.5389997245821583e+00 +0.0000000000000000e+00 +9.9999999999494299e-02 -2.8838562902294397e-02 -5.5182833613382343e-01 +5.4534708314060059e-03
1.5000000000000002e-01 +8.5389993803097006e+00 +0.0000000000000000e+00 +1.4999999999829328e-01 -2.8838621001787721e-02 -5.5182925929481197e-01 +5.4525105289416698e-03
2.0000000000000001e-01 +8.5389988983279466e+00 +0.0000000000000000e+00 +1.9999999999595441e-01 -2.8838702841825228e-02 -5.5183058947873287e-01 +5.4515519103020922e-03
2.5000000000000000e-01 +8.5389982786365639e+00 +0.0000000000000000e+00 +2.4999999999209843e-01 -2.8838808332478778e-02 -5.5183232582809028e-01 +5.4505950804221602e-03
2.9999999999999999e-01 +8.5389975212351175e+00 +0.0000000000000000e+00 +2.9999999998634608e-01 -2.8838937383821556e-02 -5.5183446748540743e-01 +5.4496401442368442e-03
3.4999999999999998e-01 +8.5389966261230743e+00 +0.0000000000000000e+00 +3.4999999997831799e-01 -2.8839089905928116e-02 -5.5183701359322623e-01 +5.4486872066811902e-03
3.9999999999999997e-01 +8.5389955932998003e+00 +0.0000000000000000e+00 +3.9999999996763491e-01 -2.8839265808874224e-02 -5.5183996329410645e-01 +5.4477363726903429e-03
4.4999999999999996e-01 +8.5389944227645564e+00 +0.0000000000000000e+00 +4.4999999995391760e-01 -2.8839465002736847e-02 -5.5184331573062761e-01 +5.4467877471995781e-03
4.9999999999999994e-01 +8.5389931145165079e+00 +0.0000000000000000e+00 +4.9999999993678668e-01 -2.8839687397594137e-02 -5.5184707004538647e-01 +5.4458414351443102e-03
5.4999999999999993e-01 +8.5389916685547185e+00 +0.0000000000000000e+00 +5.4999999991586279e-01 -2.8839932903525368e-02 -5.5185122538099873e-01 +5.4448975414601161e-03
5.9999999999999998e-01 +8.5389900848781508e+00 +0.0000000000000000e+00 +5.9999999989076669e-01 -2.8840201430610817e-02 -5.5185578088009890e-01 +5.4439561710827537e-03
6.5000000000000002e-01 +8.5389883634856663e+00 +0.0000000000000000e+00 +6.4999999986111900e-01 -2.8840492888931819e-02 -5.5186073568533889e-01 +5.4430174289481848e-03
7.0000000000000007e-01 +8.5389865043760302e+00 +0.0000000000000000e+00 +6.9999999982654026e-01 -2.8840807188570631e-02 -5.5186608893938915e-01 +5.4420814199925829e-03
7.5000000000000011e-01 +8.5389845075479069e+00 +0.0000000000000000e+00 +7.4999999978665122e-01 -2.8841144239610456e-02 -5.5187183978493937e-01 +5.4411482491523765e-03
8.0000000000000016e-01 +8.5389823729998611e+00 +0.0000000000000000e+00 +7.9999999974107250e-01 -2.8841503952135326e-02 -5.5187798736469518e-01 +5.4402180213642343e-03
8.5000000000000020e-01 +8.5389801007303578e+00 +0.0000000000000000e+00 +8.4999999968942463e-01 -2.8841886236230081e-02 -5.5188453082138222e-01 +5.4392908415651217e-03
9.0000000000000024e-01 +8.5389776907377648e+00 +0.0000000000000000e+00 +8.9999999963132815e-01 -2.8842291001980349e-02 -5.5189146929774302e-01 +5.4383668146922937e-03
9.5000000000000029e-01 +8.5389751430203500e+00 +0.0000000000000000e+00 +9.4999999956640369e-01 -2.8842718159472435e-02 -5.5189880193653873e-01 +5.4374460456833229e-03
1.0000000000000002e+00 +8.5389724575762838e+00 +0.0000000000000000e+00 +9.9999999949427176e-01 -2.8843167618793332e-02 -5.5190652788054773e-01 +5.4365286394761209e-03
1.0500000000000003e+00 +8.5389696344036388e+00 +0.0000000000000000e+00 +1.0499999994145528e+00 -2.8843639290030598e-02 -5.5191464627256615e-01 +5.4356147010089567e-03
1.1000000000000003e+00 +8.5389666735003882e+00 +0.0000000000000000e+00 +1.0999999993268674e+00 -2.8844133083272390e-02 -5.5192315625540900e-01 +5.4347043352204758e-03
1.1500000000000004e+00 +8.5389635748644093e+00 +0.0000000000000000e+00 +1.1499999992308361e+00 -2.8844648908607370e-02 -5.5193205697190750e-01 +5.4337976470497174e-03
1.2000000000000004e+00 +8.5389603384934816e+00 +0.0000000000000000e+00 +1.1999999991260792e+00 -2.8845186676124623e-02 -5.5194134756491120e-01 +5.4328947414361371e-03
1.2500000000000004e+00 +8.5389569643852852e+00 +0.0000000000000000e+00 +1.2499999990122173e+00 -2.8845746295913702e-02 -5.5195102717728750e-01 +5.4319957233196284e-03
1.3000000000000005e+00 +8.5389534525374042e+00 +0.0000000000000000e+00 +1.2999999988888706e+00 -2.8846327678064474e-02 -5.5196109495192114e-01 +5.4311006976405360e-03
1.3500000000000005e+00 +8.5389498029473270e+00 +0.0000000000000000e+00 +1.3499999987556597e+00 -2.8846930732667118e-02 -5.5197155003171361e-01 +5.4302097693396736e-03
1.4000000000000006e+00 +8.5389460156124457e+00 +0.0000000000000000e+00 +1.3999999986122047e+00 -2.8847555369812105e-02 -5.5198239155958417e-01 +5.4293230433583662e-03
1.4500000000000006e+00 +8.5389420905300533e+00 +0.0000000000000000e+00 +1.4499999984581262e+00 -2.8848201499590099e-02 -5.5199361867847008e-01 +5.4284406246384257e-03
1.5000000000000007e+00 +8.5389380276973483e+00 +0.0000000000000000e+00 +1.4999999982930443e+00 -2.8848869032091870e-02 -5.5200523053132466e-01 +5.4275626181222187e-03
1.5500000000000007e+00 +8.5389338271114337e+00 +0.0000000000000000e+00 +1.5499999981165793e+00 -2.8849557877408404e-02 -5.5201722626111993e-01 +5.4266891287526511e-03
1.6000000000000008e+00 +8.5389294887693161e+00 +0.0000000000000000e+00 +1.5999999979283512e+00 -2.8850267945630663e-02 -5.5202960501084364e-01 +5.4258202614732064e-03
1.6500000000000008e+00 +8.5389250126679048e+00 +0.0000000000000000e+00 +1.6499999977279807e+00 -2.8850999146849653e-02 -5.5204236592350098e-01 +5.4249561212279546e-03
1.7000000000000008e+00 +8.5389203988040165e+00 +0.0000000000000000e+00 +1.6999999975150875e+00 -2.8851751391156328e-02 -5.5205550814211479e-01 +5.4240968129615798e-03
1.7500000000000009e+00 +8.5389156471743721e+00 +0.0000000000000000e+00 +1.7499999972892917e+00 -2.8852524588641570e-02 -5.5206903080972414e-01 +5.4232424416193947e-03
1.8000000000000009e+00 +8.5389107577755965e+00 +0.0000000000000000e+00 +1.7999999970502136e+00 -2.8853318649396102e-02 -5.5208293306938550e-01 +5.4223931121473636e-03
1.8500000000000010e+00 +8.5389057306042204e+00 +0.0000000000000000e+00 +1.8499999967974732e+00 -2.8854133483510468e-02 -5.5209721406417200e-01 +5.4215489294921126e-03
1.9000000000000010e+00 +8.5389005656566805e+00 +0.0000000000000000e+00 +1.8999999965306904e+00 -2.8854969001074968e-02 -5.5211187293717323e-01 +5.4207099986009677e-03
1.9500000000000011e+00 +8.5388952629293193e+00 +0.0000000000000000e+00 +1.9499999962494854e+00 -2.8855825112179597e-02 -5.5212690883149584e-01 +5.4198764244219513e-03
2.0000000000000009e+00 +8.5388898224183833e+00 +0.0000000000000000e+00 +1.9999999959534780e+00 -2.8856701726914076e-02 -5.5214232089026349e-01 +5.4190483119038206e-03
2.0500000000000007e+00 +8.5388842441200268e+00 +0.0000000000000000e+00 +2.0499999956422879e+00 -2.8857598770049883e-02 -5.5215810800907761e-01 +5.4182257579786872e-03
2.1000000000000005e+00 +8.5388785280303097e+00 +0.0000000000000000e+00 +2.0999999953155353e+00 -2.8858516225087727e-02 -5.5217426809340431e-01 +5.4174088275097242e-03
2.1500000000000004e+00 +8.5388726741451997e+00 +0.0000000000000000e+00 +2.1499999949728399e+00 -2.8859454090211765e-02 -5.5219079880118505e-01 +5.4165975773431112e-03
2.2000000000000002e+00 +8.5388666824605721e+00 +0.0000000000000000e+00 +2.1999999946138211e+00 -2.8860412363607590e-02 -5.5220769779037360e-01 +5.4157920643254087e-03
2.2500000000000000e+00 +8.5388605529722099e+00 +0.0000000000000000e+00 +2.2499999942380988e+00 -2.8861391043462331e-02 -5.5222496271893784e-01 +5.4149923453035449e-03
2.2999999999999998e+00 +8.5388542856758036e+00 +0.0000000000000000e+00 +2.2999999938452929e+00 -2.8862390127964679e-02 -5.5224259124485686e-01 +5.4141984771248122e-03
2.3499999999999996e+00 +8.5388478805669550e+00 +0.0000000000000000e+00 +2.3499999934350226e+00 -2.8863409615304914e-02 -5.5226058102612163e-01 +5.4134105166368596e-03
2.3999999999999995e+00 +8.5388413376411751e+00 +0.0000000000000000e+00 +2.3999999930069080e+00 -2.8864449503675050e-02 -5.5227892972073656e-01 +5.4126285206876961e-03
2.4499999999999993e+00 +8.5388346568938847e+00 +0.0000000000000000e+00 +2.4499999925605684e+00 -2.8865509791268808e-02 -5.5229763498671636e-01 +5.4118525461256768e-03
2.4999999999999991e+00 +8.5388278383204170e+00 +0.0000000000000000e+00 +2.4999999920956233e+00 -2.8866590476281734e-02 -5.5231669448208787e-01 +5.4110826497995078e-03
2.5499999999999989e+00 +8.5388208819160152e+00 +0.0000000000000000e+00 +2.5499999916116920e+00 -2.8867691556911244e-02 -5.5233610586488868e-01 +5.4103188885582321e-03
2.5999999999999988e+00 +8.5388137876758332e+00 +0.0000000000000000e+00 +2.5999999911083935e+00 -2.8868813031356678e-02 -5.5235586679316773e-01 +5.4095613192512316e-03
2.6499999999999986e+00 +8.5388065555949417e+00 +0.0000000000000000e+00 +2.6499999905853477e+00 -2.8869954897819343e-02 -5.5237597492498414e-01 +5.4088099987282248e-03
2.6999999999999984e+00 +8.5387991856683225e+00 +0.0000000000000000e+00 +2.6999999900421736e+00 -2.8871117154502628e-02 -5.5239642791840804e-01 +5.4080649838392520e-03
2.7499999999999982e+00 +8.5387916778908721e+00 +0.0000000000000000e+00 +2.7499999894784906e+00 -2.8872299799612009e-02 -5.5241722343151867e-01 +5.4073263314346831e-03
2.7999999999999980e+00 +8.5387840322574018e+00 +0.0000000000000000e+00 +2.7999999888939175e+00 -2.8873502831355119e-02 -5.5243835912240646e-01 +5.4065940983652003e-03
2.8499999999999979e+00 +8.5387762487626357e+00 +0.0000000000000000e+00 +2.8499999882880740e+00 -2.8874726247941837e-02 -5.5245983264917042e-01 +5.4058683414818110e-03
2.8999999999999977e+00 +8.5387683274012147e+00 +0.0000000000000000e+00 +2.8999999876605784e+00 -2.8875970047584340e-02 -5.5248164166991964e-01 +5.4051491176358209e-03
2.9499999999999975e+00 +8.5387602681676977e+00 +0.0000000000000000e+00 +2.9499999870110503e+00 -2.8877234228497126e-02 -5.5250378384277188e-01 +5.4044364836788473e-03
2.9999999999999973e+00 +8.5387520710565585e+00 +0.0000000000000000e+00 +2.9999999863391080e+00 -2.8878518788897117e-02 -5.5252625682585388e-01 +5.4037304964628082e-03
3.0499999999999972e+00 +8.5387437360621909e+00 +0.0000000000000000e+00 +3.0499999856443707e+00 -2.8879823727003696e-02 -5.5254905827730083e-01 +5.4030312128399149e-03
3.0999999999999970e+00 +8.5387352631789035e+00 +0.0000000000000000e+00 +3.0999999849264572e+00 -2.8881149041038778e-02 -5.5257218585525691e-01 +5.4023386896626798e-03
3.1499999999999968e+00 +8.5387266524009249e+00 +0.0000000000000000e+00 +3.1499999841849862e+00 -2.8882494729226889e-02 -5.5259563721787375e-01 +5.4016529837838971e-03
3.1999999999999966e+00 +8.5387179037224019e+00 +0.0000000000000000e+00 +3.1999999834195765e+00 -2.8883860789795150e-02 -5.5261941002331116e-01 +5.4009741520566366e-03
3.2499999999999964e+00 +8.5387090171374034e+00 +0.0000000000000000e+00 +3.2499999826298467e+00 -2.8885247220973468e-02 -5.5264350192973588e-01 +5.4003022513342564e-03
3.2999999999999963e+00 +8.5386999926399163e+00 +0.0000000000000000e+00 +3.2999999818154153e+00 -2.8886654020994454e-02 -5.5266791059532350e-01 +5.3996373384703911e-03
3.3499999999999961e+00 +8.5386908302238513e+00 +0.0000000000000000e+00 +3.3499999809759009e+00 -2.8888081188093585e-02 -5.5269263367825483e-01 +5.3989794703189348e-03
3.3999999999999959e+00 +8.5386815298830374e+00 +0.0000000000000000e+00 +3.3999999801109215e+00 -2.8889528720509216e-02 -5.5271766883671902e-01 +5.3983287037340537e-03
3.4499999999999957e+00 +8.5386720916112271e+00 +0.0000000000000000e+00 +3.4499999792200957e+00 -2.8890996616482648e-02 -5.5274301372891088e-01 +5.3976850955701709e-03
3.4999999999999956e+00 +8.5386625154020965e+00 +0.0000000000000000e+00 +3.4999999783030420e+00 -2.8892484874258214e-02 -5.5276866601303187e-01 +5.3970487026819671e-03
3.5499999999999954e+00 +8.5386528012492438e+00 +0.0000000000000000e+00 +3.5499999773593784e+00 -2.8893993492083294e-02 -5.5279462334728913e-01 +5.3964195819243745e-03
3.5999999999999952e+00 +8.5386429491461922e+00 +0.0000000000000000e+00 +3.5999999763887232e+00 -2.8895522468208423e-02 -5.5282088338989666e-01 +5.3957977901525752e-03
3.6499999999999950e+00 +8.5386329590863888e+00 +0.0000000000000000e+00 +3.6499999753906942e+00 -2.8897071800887304e-02 -5.5284744379907269e-01 +5.3951833842219863e-03
3.6999999999999948e+00 +8.5386228310632042e+00 +0.0000000000000000e+00 +3.6999999743649097e+00 -2.8898641488376925e-02 -5.5287430223304168e-01 +5.3945764209882693e-03
3.7499999999999947e+00 +8.5386125650699363e+00 +0.0000000000000000e+00 +3.7499999733109877e+00 -2.8900231528937542e-02 -5.5290145635003263e-01 +5.3939769573073185e-03
3.7999999999999945e+00 +8.5386021610998082e+00 +0.0000000000000000e+00 +3.7999999722285458e+00 -2.8901841920832814e-02 -5.5292890380827930e-01 +5.3933850500352543e-03
3.8499999999999943e+00 +8.5385916191459721e+00 +0.0000000000000000e+00 +3.8499999711172022e+00 -2.8903472662329847e-02 -5.5295664226602081e-01 +5.3928007560284244e-03
3.8999999999999941e+00 +8.5385809392015055e+00 +0.0000000000000000e+00 +3.8999999699765739e+00 -2.8905123751699208e-02 -5.5298466938149926e-01 +5.3922241321433936e-03
3.9499999999999940e+00 +8.5385701212594149e+00 +0.0000000000000000e+00 +3.9499999688062792e+00 -2.8906795187215034e-02 -5.5301298281296163e-01 +5.3916552352369458e-03
3.9999999999999938e+00 +8.5385591653126340e+00 +0.0000000000000000e+00 +3.9999999676059357e+00 -2.8908486967155068e-02 -5.5304158021865879e-01 +5.3910941221660715e-03
4.0499999999999936e+00 +8.5385480713540254e+00 +0.0000000000000000e+00 +4.0499999663751609e+00 -2.8910199061031937e-02 -5.5307045916209163e-01 +5.3905408500578124e-03
4.0999999999999934e+00 +8.5385368393763841e+00 +0.0000000000000000e+00 +4.0999999651135717e+00 -2.8911931323284963e-02 -5.5309961682775444e-01 +5.3899954771188408e-03
4.1499999999999932e+00 +8.5385254693724342e+00 +0.0000000000000000e+00 +4.1499999638207861e+00 -2.8913683579583994e-02 -5.5312905030538995e-01 +5.3894580618261091e-03
4.1999999999999931e+00 +8.5385139613348287e+00 +0.0000000000000000e+00 +4.1999999624964213e+00 -2.8915455655597683e-02 -5.5315875668474235e-01 +5.3889286626570172e-03
4.2499999999999929e+00 +8.5385023152561565e+00 +0.0000000000000000e+00 +4.2499999611400936e+00 -2.8917247376993586e-02 -5.5318873305555760e-01 +5.3884073380894215e-03
4.2999999999999927e+00 +8.5384905311289359e+00 +0.0000000000000000e+00 +4.2999999597514211e+00 -2.8919058569437956e-02 -5.5321897650758201e-01 +5.3878941466016421e-03
4.3499999999999925e+00 +8.5384786089456206e+00 +0.0000000000000000e+00 +4.3499999583300211e+00 -2.8920889058595720e-02 -5.5324948413056374e-01 +5.3873891466724661e-03
4.3999999999999924e+00 +8.5384665486985973e+00 +0.0000000000000000e+00 +4.3999999568755097e+00 -2.8922738670130330e-02 -5.5328025301424966e-01 +5.3868923967811382e-03
4.4499999999999922e+00 +8.5384543503801869e+00 +0.0000000000000000e+00 +4.4499999553875043e+00 -2.8924607229703764e-02 -5.5331128024838883e-01 +5.3864039554073814e-03
4.4999999999999920e+00 +8.5384420139826478e+00 +0.0000000000000000e+00 +4.4999999538656210e+00 -2.8926494562976350e-02 -5.5334256292272843e-01 +5.3859238810313858e-03
4.5499999999999918e+00 +8.5384295394981731e+00 +0.0000000000000000e+00 +4.5499999523094772e+00 -2.8928400495606747e-02 -5.5337409812701632e-01 +5.3854522321338232e-03
4.5999999999999917e+00 +8.5384169269188934e+00 +0.0000000000000000e+00 +4.5999999507186899e+00 -2.8930324853251831e-02 -5.5340588295099857e-01 +5.3849890671958381e-03
4.6499999999999915e+00 +8.5384041762368774e+00 +0.0000000000000000e+00 +4.6499999490928747e+00 -2.8932267461566623e-02 -5.5343791448442159e-01 +5.3845344446990639e-03
4.6999999999999913e+00 +8.5383912874441315e+00 +0.0000000000000000e+00 +4.6999999474316487e+00 -2.8934228146204170e-02 -5.5347018981702922e-01 +5.3840884231256235e-03
4.7499999999999911e+00 +8.5383782605326015e+00 +0.0000000000000000e+00 +4.7499999457346282e+00 -2.8936206732815512e-02 -5.5350270603856433e-01 +5.3836510609581133e-03
4.7999999999999909e+00 +8.5383650954941732e+00 +0.0000000000000000e+00 +4.7999999440014296e+00 -2.8938203047049534e-02 -5.5353546023876787e-01 +5.3832224166796405e-03
4.8499999999999908e+00 +8.5383517923206718e+00 +0.0000000000000000e+00 +4.8499999422316691e+00 -2.8940216914552959e-02 -5.5356844950737860e-01 +5.3828025487737919e-03
4.8999999999999906e+00 +8.5383383510038655e+00 +0.0000000000000000e+00 +4.8999999404249630e+00 -2.8942248160970185e-02 -5.5360167093413271e-01 +5.3823915157246698e-03
4.9499999999999904e+00 +8.5383247715354660e+00 +0.0000000000000000e+00 +4.9499999385809277e+00 -2.8944296611943240e-02 -5.5363512160876338e-01 +5.3819893760168576e-03
4.9999999999999902e+00 +8.5383110539071225e+00 +0.0000000000000000e+00 +4.9999999366991785e+00 -2.8946362093111706e-02 -5.5366879862100116e-01 +5.3815961881354671e-03
5.0499999999999901e+00 +8.5382971981104330e+00 +0.0000000000000000e+00 +5.0499999347793318e+00 -2.8948444430112578e-02 -5.5370269906057279e-01 +5.3812120105660981e-03
5.0999999999999899e+00 +8.5382832041369383e+00 +0.0000000000000000e+00 +5.0999999328210031e+00 -2.8950543448580258e-02 -5.5373682001720204e-01 +5.3808369017948714e-03
5.1499999999999897e+00 +8.5382690719781227e+00 +0.0000000000000000e+00 +5.1499999308238076e+00 -2.8952658974146405e-02 -5.5377115858060832e-01 +5.3804709203084241e-03
5.1999999999999895e+00 +8.5382548016254169e+00 +0.0000000000000000e+00 +5.1999999287873617e+00 -2.8954790832439889e-02 -5.5380571184050720e-01 +5.3801141245939056e-03
5.2499999999999893e+00 +8.5382403930702004e+00 +0.0000000000000000e+00 +5.2499999267112809e+00 -2.8956938849086639e-02 -5.5384047688660831e-01 +5.3797665731389896e-03
5.2999999999999892e+00 +8.5382258463037957e+00 +0.0000000000000000e+00 +5.2999999245951805e+00 -2.8959102849709685e-02 -5.5387545080861855e-01 +5.3794283244318767e-03
5.3499999999999890e+00 +8.5382111613174754e+00 +0.0000000000000000e+00 +5.3499999224386761e+00 -2.8961282659928939e-02 -5.5391063069623825e-01 +5.3790994369612849e-03
5.3999999999999888e+00 +8.5381963381024608e+00 +0.0000000000000000e+00 +5.3999999202413829e+00 -2.8963478105361165e-02 -5.5394601363916318e-01 +5.3787799692164755e-03
5.4499999999999886e+00 +8.5381813766499217e+00 +0.0000000000000000e+00 +5.4499999180029164e+00 -2.8965689011619934e-02 -5.5398159672708303e-01 +5.3784699796872396e-03
5.4999999999999885e+00 +8.5381662769509798e+00 +0.0000000000000000e+00 +5.4999999157228912e+00 -2.8967915204315471e-02 -5.5401737704968168e-01 +5.3781695268638957e-03
5.5499999999999883e+00 +8.5381510389967055e+00 +0.0000000000000000e+00 +5.5499999134009226e+00 -2.8970156509054549e-02 -5.5405335169663628e-01 +5.3778786692373183e-03
5.5999999999999881e+00 +8.5381356627781209e+00 +0.0000000000000000e+00 +5.5999999110366252e+00 -2.8972412751440555e-02 -5.5408951775761839e-01 +5.3775974652989153e-03
5.6499999999999879e+00 +8.5381201482862021e+00 +0.0000000000000000e+00 +5.6499999086296144e+00 -2.8974683757073197e-02 -5.5412587232229171e-01 +5.3773259735406375e-03
5.6999999999999877e+00 +8.5381044955118757e+00 +0.0000000000000000e+00 +5.6999999061795048e+00 -2.8976969351548580e-02 -5.5416241248031339e-01 +5.3770642524550022e-03
5.7499999999999876e+00 +8.5380887044460234e+00 +0.0000000000000000e+00 +5.7499999036859109e+00 -2.8979269360459022e-02 -5.5419913532133291e-01 +5.3768123605350644e-03
5.7999999999999874e+00 +8.5380727750794829e+00 +0.0000000000000000e+00 +5.7999999011484480e+00 -2.8981583609393041e-02 -5.5423603793499265e-01 +5.3765703562744368e-03
5.8499999999999872e+00 +8.5380567074030438e+00 +0.0000000000000000e+00 +5.8499998985667299e+00 -2.8983911923935228e-02 -5.5427311741092589e-01 +5.3763382981673021e-03
5.8999999999999870e+00 +8.5380405014074530e+00 +0.0000000000000000e+00 +5.8999998959403710e+00 -2.8986254129666142e-02 -5.5431037083875856e-01 +5.3761162447083935e-03
