# field on trajectory
# s[mm] rx[mm] ry[mm] rz[mm] bx[T] by[T] bz[T]
0.0000000000000000e+00 +8.5269999999999992e+00 +0.0000000000000000e+00 +0.0000000000000000e+00 -2.9043667485711175e-02 -5.5439090851112194e-01 +5.4047721805831435e-03
-5.0000000000000003e-02 +8.5269999308367854e+00 +0.0000000000000000e+00 -4.9999999999936214e-02 -2.9043853321661463e-02 -5.5439394554211519e-01 +5.4073063237148958e-03
-1.0000000000000001e-01 +8.5269997233466253e+00 +0.0000000000000000e+00 -9.9999999999489747e-02 -2.9044058754804748e-02 -5.5439734147267239e-01 +5.4098477511844816e-03
-1.5000000000000002e-01 +8.5269993775286714e+00 +0.0000000000000000e+00 -1.4999999999827790e-01 -2.9044283871181357e-02 -5.5440109538326943e-01 +5.4123962627382434e-03
-2.0000000000000001e-01 +8.5269988933819878e+00 +0.0000000000000000e+00 -1.9999999999591797e-01 -2.9044528756832409e-02 -5.5440520635439960e-01 +5.4149516581226643e-03
-2.5000000000000000e-01 +8.5269982709055476e+00 +0.0000000000000000e+00 -2.4999999999202727e-01 -2.9044793497799808e-02 -5.5440967346657444e-01 +5.4175137370843533e-03
-2.9999999999999999e-01 +8.5269975100982371e+00 +0.0000000000000000e+00 -2.9999999998622306e-01 -2.9045078180126249e-02 -5.5441449580032365e-01 +5.4200822993700371e-03
-3.4999999999999998e-01 +8.5269966109588520e+00 +0.0000000000000000e+00 -3.4999999997812259e-01 -2.9045382889855153e-02 -5.5441967243619372e-01 +5.4226571447265285e-03
-3.9999999999999997e-01 +8.5269955734861025e+00 +0.0000000000000000e+00 -3.9999999996734315e-01 -2.9045707713030763e-02 -5.5442520245474913e-01 +5.4252380729007269e-03
-4.4999999999999996e-01 +8.5269943976786067e+00 +0.0000000000000000e+00 -4.4999999995350198e-01 -2.9046052735698078e-02 -5.5443108493657178e-01 +5.4278248836396124e-03
-4.9999999999999994e-01 +8.5269930835348990e+00 +0.0000000000000000e+00 -4.9999999993621630e-01 -2.9046418043902882e-02 -5.5443731896226034e-01 +5.4304173766902024e-03
-5.4999999999999993e-01 +8.5269916310534217e+00 +0.0000000000000000e+00 -5.4999999991510329e-01 -2.9046803723691679e-02 -5.5444390361243112e-01 +5.4330153517995654e-03
-5.9999999999999998e-01 +8.5269900402325334e+00 +0.0000000000000000e+00 -5.9999999988978026e-01 -2.9047209861111797e-02 -5.5445083796771688e-01 +5.4356186087147970e-03
-6.5000000000000002e-01 +8.5269883110705038e+00 +0.0000000000000000e+00 -6.4999999985986423e-01 -2.9047636542211309e-02 -5.5445812110876735e-01 +5.4382269471830013e-03
-7.0000000000000007e-01 +8.5269864435655158e+00 +0.0000000000000000e+00 -6.9999999982497252e-01 -2.9048083853039031e-02 -5.5446575211624904e-01 +5.4408401669512824e-03
-7.5000000000000011e-01 +8.5269844377156652e+00 +0.0000000000000000e+00 -7.4999999978472220e-01 -2.9048551879644575e-02 -5.5447373007084433e-01 +5.4434580677667306e-03
-8.0000000000000016e-01 +8.5269822935189605e+00 +0.0000000000000000e+00 -7.9999999973873048e-01 -2.9049040708078289e-02 -5.5448205405325302e-01 +5.4460804493764066e-03
-8.5000000000000020e-01 +8.5269800109733271e+00 +0.0000000000000000e+00 -8.4999999968661433e-01 -2.9049550424391286e-02 -5.5449072314419023e-01 +5.4487071115273209e-03
-9.0000000000000024e-01 +8.5269775900765996e+00 +0.0000000000000000e+00 -8.9999999962799093e-01 -2.9050081114635449e-02 -5.5449973642438743e-01 +5.4513378539664346e-03
-9.5000000000000029e-01 +8.5269750308265309e+00 +0.0000000000000000e+00 -9.4999999956247738e-01 -2.9050632864863382e-02 -5.5450909297459217e-01 +5.4539724764406296e-03
-1.0000000000000002e+00 +8.5269723332207850e+00 +0.0000000000000000e+00 -9.9999999948969065e-01 -2.9051205761128459e-02 -5.5451879187556719e-01 +5.4566107786967050e-03
-1.0500000000000003e+00 +8.5269694972569425e+00 +0.0000000000000000e+00 -1.0499999994092477e+00 -2.9051799889484822e-02 -5.5452883220809168e-01 +5.4592525604813596e-03
-1.1000000000000003e+00 +8.5269665229324989e+00 +0.0000000000000000e+00 -1.0999999993207656e+00 -2.9052415335987351e-02 -5.5453921305296006e-01 +5.4618976215411773e-03
-1.1500000000000004e+00 +8.5269634102448641e+00 +0.0000000000000000e+00 -1.1499999992238614e+00 -2.9053052186691658e-02 -5.5454993349098181e-01 +5.4645457616226125e-03
-1.2000000000000004e+00 +8.5269601591913631e+00 +0.0000000000000000e+00 -1.1999999991181520e+00 -2.9053710527654136e-02 -5.5456099260298208e-01 +5.4671967804719793e-03
-1.2500000000000004e+00 +8.5269567697692352e+00 +0.0000000000000000e+00 -1.2499999990032542e+00 -2.9054390444931865e-02 -5.5457238946980070e-01 +5.4698504778354267e-03
-1.3000000000000005e+00 +8.5269532419756384e+00 +0.0000000000000000e+00 -1.2999999988787849e+00 -2.9055092024582740e-02 -5.5458412317229255e-01 +5.4725066534589443e-03
-1.3500000000000005e+00 +8.5269495758076452e+00 +0.0000000000000000e+00 -1.3499999987443612e+00 -2.9055815352665337e-02 -5.5459619279132744e-01 +5.4751651070883266e-03
-1.4000000000000006e+00 +8.5269457712622430e+00 +0.0000000000000000e+00 -1.3999999985995994e+00 -2.9056560515238992e-02 -5.5460859740779000e-01 +5.4778256384691738e-03
-1.4500000000000006e+00 +8.5269418283363372e+00 +0.0000000000000000e+00 -1.4499999984441168e+00 -2.9057327598363786e-02 -5.5462133610257858e-01 +5.4804880473468733e-03
-1.5000000000000007e+00 +8.5269377470267500e+00 +0.0000000000000000e+00 -1.4999999982775298e+00 -2.9058116688100533e-02 -5.5463440795660701e-01 +5.4831521334665805e-03
-1.5500000000000007e+00 +8.5269335273302200e+00 +0.0000000000000000e+00 -1.5499999980994554e+00 -2.9058927870510752e-02 -5.5464781205080216e-01 +5.4858176965732102e-03
-1.6000000000000008e+00 +8.5269291692434024e+00 +0.0000000000000000e+00 -1.5999999979095103e+00 -2.9059761231656756e-02 -5.5466154746610596e-01 +5.4884845364114275e-03
-1.6500000000000008e+00 +8.5269246727628687e+00 +0.0000000000000000e+00 -1.6499999977073110e+00 -2.9060616857601518e-02 -5.5467561328347403e-01 +5.4911524527256174e-03
-1.7000000000000008e+00 +8.5269200378851107e+00 +0.0000000000000000e+00 -1.6999999974924742e+00 -2.9061494834408792e-02 -5.5469000858387540e-01 +5.4938212452598865e-03
-1.7500000000000009e+00 +8.5269152646065365e+00 +0.0000000000000000e+00 -1.7499999972646163e+00 -2.9062395248143011e-02 -5.5470473244829355e-01 +5.4964907137580420e-03
-1.8000000000000009e+00 +8.5269103529234727e+00 +0.0000000000000000e+00 -1.7999999970233540e+00 -2.9063318184869406e-02 -5.5471978395772426e-01 +5.4991606579635798e-03
-1.8500000000000010e+00 +8.5269053028321640e+00 +0.0000000000000000e+00 -1.8499999967683038e+00 -2.9064263730653843e-02 -5.5473516219317809e-01 +5.5018308776196645e-03
-1.9000000000000010e+00 +8.5269001143287735e+00 +0.0000000000000000e+00 -1.8999999964990821e+00 -2.9065231971562973e-02 -5.5475086623567804e-01 +5.5045011724691303e-03
-1.9500000000000011e+00 +8.5268947874093826e+00 +0.0000000000000000e+00 -1.9499999962153054e+00 -2.9066222993664140e-02 -5.5476689516625965e-01 +5.5071713422544383e-03
-2.0000000000000009e+00 +8.5268893220699926e+00 +0.0000000000000000e+00 -1.9999999959165902e+00 -2.9067236883025410e-02 -5.5478324806597290e-01 +5.5098411867176974e-03
-2.0500000000000007e+00 +8.5268837183065216e+00 +0.0000000000000000e+00 -2.0499999956025525e+00 -2.9068273681810086e-02 -5.5479992386879895e-01 +5.5125105156728863e-03
-2.1000000000000005e+00 +8.5268779761148110e+00 +0.0000000000000000e+00 -2.0999999952728090e+00 -2.9069333256560258e-02 -5.5481692092041057e-01 +5.5151791792226665e-03
-2.1500000000000004e+00 +8.5268720954906190e+00 +0.0000000000000000e+00 -2.1499999949269757e+00 -2.9070415429913510e-02 -5.5483423741941151e-01 +5.5178470375416531e-03
-2.2000000000000002e+00 +8.5268660764296254e+00 +0.0000000000000000e+00 -2.1999999945646689e+00 -2.9071520024508406e-02 -5.5485187156441695e-01 +5.5205139508041363e-03
-2.2500000000000000e+00 +8.5268599189274283e+00 +0.0000000000000000e+00 -2.2499999941855044e+00 -2.9072646862984587e-02 -5.5486982155405440e-01 +5.5231797791840910e-03
-2.2999999999999998e+00 +8.5268536229795515e+00 +0.0000000000000000e+00 -2.2999999937890987e+00 -2.9073795767982684e-02 -5.5488808558696157e-01 +5.5258443828551506e-03
-2.3499999999999996e+00 +8.5268471885814368e+00 +0.0000000000000000e+00 -2.3499999933750679e+00 -2.9074966562144443e-02 -5.5490666186178839e-01 +5.5285076219906129e-03
-2.3999999999999995e+00 +8.5268406157284513e+00 +0.0000000000000000e+00 -2.3999999929430280e+00 -2.9076159068112634e-02 -5.5492554857719523e-01 +5.5311693567634251e-03
-2.4499999999999993e+00 +8.5268339044158807e+00 +0.0000000000000000e+00 -2.4499999924925948e+00 -2.9077373108531129e-02 -5.5494474393185245e-01 +5.5338294473461702e-03
-2.4999999999999991e+00 +8.5268270546389360e+00 +0.0000000000000000e+00 -2.4999999920233842e+00 -2.9078608506044924e-02 -5.5496424612444228e-01 +5.5364877539110773e-03
-2.5499999999999989e+00 +8.5268200663927516e+00 +0.0000000000000000e+00 -2.5499999915350124e+00 -2.9079865083300134e-02 -5.5498405335365653e-01 +5.5391441366300009e-03
-2.5999999999999988e+00 +8.5268129396723857e+00 +0.0000000000000000e+00 -2.5999999910270950e+00 -2.9081142662943978e-02 -5.5500416381819773e-01 +5.5417984556744033e-03
-2.6499999999999986e+00 +8.5268056744728202e+00 +0.0000000000000000e+00 -2.6499999904992477e+00 -2.9082441067624868e-02 -5.5502457571677744e-01 +5.5444505712153652e-03
-2.6999999999999984e+00 +8.5267982707889622e+00 +0.0000000000000000e+00 -2.6999999899510865e+00 -2.9083760119992356e-02 -5.5504528724811841e-01 +5.5471003434235683e-03
-2.7499999999999982e+00 +8.5267907286156426e+00 +0.0000000000000000e+00 -2.7499999893822267e+00 -2.9085099642697159e-02 -5.5506629661095175e-01 +5.5497476324692869e-03
-2.7999999999999980e+00 +8.5267830479476210e+00 +0.0000000000000000e+00 -2.7999999887922842e+00 -2.9086459458391226e-02 -5.5508760200401874e-01 +5.5523922985223828e-03
-2.8499999999999979e+00 +8.5267752287795826e+00 +0.0000000000000000e+00 -2.8499999881808744e+00 -2.9087839389727674e-02 -5.5510920162607014e-01 +5.5550342017522958e-03
-2.8999999999999977e+00 +8.5267672711061362e+00 +0.0000000000000000e+00 -2.8999999875476128e+00 -2.9089239259360890e-02 -5.5513109367586511e-01 +5.5576732023280328e-03
-2.9499999999999975e+00 +8.5267591749218212e+00 +0.0000000000000000e+00 -2.9499999868921147e+00 -2.9090658889946466e-02 -5.5515327635217215e-01 +5.5603091604181634e-03
-2.9999999999999973e+00 +8.5267509402211026e+00 +0.0000000000000000e+00 -2.9999999862139957e+00 -2.9092098104141269e-02 -5.5517574785376833e-01 +5.5629419361908124e-03
-3.0499999999999972e+00 +8.5267425669983723e+00 +0.0000000000000000e+00 -3.0499999855128710e+00 -2.9093556724603419e-02 -5.5519850637943946e-01 +5.5655713898136476e-03
-3.0999999999999970e+00 +8.5267340552479531e+00 +0.0000000000000000e+00 -3.0999999847883561e+00 -2.9095034573992328e-02 -5.5522155012797969e-01 +5.5681973814538707e-03
-3.1499999999999968e+00 +8.5267254049640950e+00 +0.0000000000000000e+00 -3.1499999840400661e+00 -2.9096531474968733e-02 -5.5524487729819072e-01 +5.5708197712782204e-03
-3.1999999999999966e+00 +8.5267166161409786e+00 +0.0000000000000000e+00 -3.1999999832676158e+00 -2.9098047250194638e-02 -5.5526848608888335e-01 +5.5734384194529524e-03
-3.2499999999999964e+00 +8.5267076887727118e+00 +0.0000000000000000e+00 -3.2499999824706207e+00 -2.9099581722333432e-02 -5.5529237469887571e-01 +5.5760531861438348e-03
-3.2999999999999963e+00 +8.5266986228533366e+00 +0.0000000000000000e+00 -3.2999999816486958e+00 -2.9101134714049792e-02 -5.5531654132699260e-01 +5.5786639315161344e-03
-3.3499999999999961e+00 +8.5266894183768205e+00 +0.0000000000000000e+00 -3.3499999808014560e+00 -2.9102706048009803e-02 -5.5534098417206812e-01 +5.5812705157346305e-03
-3.3999999999999959e+00 +8.5266800753370671e+00 +0.0000000000000000e+00 -3.3999999799285159e+00 -2.9104295546880904e-02 -5.5536570143294162e-01 +5.5838727989635699e-03
-3.4499999999999957e+00 +8.5266705937279088e+00 +0.0000000000000000e+00 -3.4499999790294908e+00 -2.9105903033331933e-02 -5.5539069130846141e-01 +5.5864706413666981e-03
-3.4999999999999956e+00 +8.5266609735431089e+00 +0.0000000000000000e+00 -3.4999999781039954e+00 -2.9107528330033130e-02 -5.5541595199748151e-01 +5.5890639031072184e-03
-3.5499999999999954e+00 +8.5266512147763667e+00 +0.0000000000000000e+00 -3.5499999771516442e+00 -2.9109171259656140e-02 -5.5544148169886265e-01 +5.5916524443478102e-03
-3.5999999999999952e+00 +8.5266413174213120e+00 +0.0000000000000000e+00 -3.5999999761720520e+00 -2.9110831644874085e-02 -5.5546727861147294e-01 +5.5942361252505979e-03
-3.6499999999999950e+00 +8.5266312814715075e+00 +0.0000000000000000e+00 -3.6499999751648331e+00 -2.9112509308361480e-02 -5.5549334093418590e-01 +5.5968148059771586e-03
-3.6999999999999948e+00 +8.5266211069204516e+00 +0.0000000000000000e+00 -3.6999999741296024e+00 -2.9114204072794365e-02 -5.5551966686588172e-01 +5.5993883466885106e-03
-3.7499999999999947e+00 +8.5266107937615736e+00 +0.0000000000000000e+00 -3.7499999730659739e+00 -2.9115915760850233e-02 -5.5554625460544627e-01 +5.6019566075450992e-03
-3.7999999999999945e+00 +8.5266003419882423e+00 +0.0000000000000000e+00 -3.7999999719735622e+00 -2.9117644195208042e-02 -5.5557310235177126e-01 +5.6045194487067927e-03
-3.8499999999999943e+00 +8.5265897515937574e+00 +0.0000000000000000e+00 -3.8499999708519814e+00 -2.9119389198548350e-02 -5.5560020830375467e-01 +5.6070767303328835e-03
-3.8999999999999941e+00 +8.5265790225713562e+00 +0.0000000000000000e+00 -3.8999999697008461e+00 -2.9121150593553139e-02 -5.5562757066029866e-01 +5.6096283125820550e-03
-3.9499999999999940e+00 +8.5265681549142123e+00 +0.0000000000000000e+00 -3.9499999685197702e+00 -2.9122928202905993e-02 -5.5565518762031207e-01 +5.6121740556124063e-03
-3.9999999999999938e+00 +8.5265571486154350e+00 +0.0000000000000000e+00 -3.9999999673083679e+00 -2.9124721849292042e-02 -5.5568305738270762e-01 +5.6147138195814135e-03
-4.0499999999999936e+00 +8.5265460036680700e+00 +0.0000000000000000e+00 -4.0499999660662533e+00 -2.9126531358041465e-02 -5.5571117800423719e-01 +5.6172474718080264e-03
-4.0999999999999934e+00 +8.5265347200651007e+00 +0.0000000000000000e+00 -4.0999999647930405e+00 -2.9128356565059122e-02 -5.5573954697299144e-01 +5.6197749082589890e-03
-4.1499999999999932e+00 +8.5265232977994501e+00 +0.0000000000000000e+00 -4.1499999634883427e+00 -2.9130197308892634e-02 -5.5576816163489551e-01 +5.6222960320625372e-03
-4.1999999999999931e+00 +8.5265117368639789e+00 +0.0000000000000000e+00 -4.1999999621517743e+00 -2.9132053428088639e-02 -5.5579701933587589e-01 +5.6248107463463008e-03
-4.2499999999999929e+00 +8.5265000372514859e+00 +0.0000000000000000e+00 -4.2499999607829491e+00 -2.9133924761192666e-02 -5.5582611742185983e-01 +5.6273189542372735e-03
-4.2999999999999927e+00 +8.5264881989547110e+00 +0.0000000000000000e+00 -4.2999999593814806e+00 -2.9135811146749152e-02 -5.5585545323877517e-01 +5.6298205588618264e-03
-4.3499999999999925e+00 +8.5264762219663357e+00 +0.0000000000000000e+00 -4.3499999579469817e+00 -2.9137712423301314e-02 -5.5588502413254981e-01 +5.6323154633456862e-03
-4.3999999999999924e+00 +8.5264641062789810e+00 +0.0000000000000000e+00 -4.3999999564790668e+00 -2.9139628429391141e-02 -5.5591482744911158e-01 +5.6348035708139264e-03
-4.4499999999999922e+00 +8.5264518518852110e+00 +0.0000000000000000e+00 -4.4499999549773488e+00 -2.9141559003559286e-02 -5.5594486053438807e-01 +5.6372847843909760e-03
-4.4999999999999920e+00 +8.5264394587775314e+00 +0.0000000000000000e+00 -4.4999999534414412e+00 -2.9143503984345051e-02 -5.5597512073430622e-01 +5.6397590072005911e-03
-4.5499999999999918e+00 +8.5264269269483925e+00 +0.0000000000000000e+00 -4.5499999518709577e+00 -2.9145463210286271e-02 -5.5600560539479182e-01 +5.6422261423658667e-03
-4.5999999999999917e+00 +8.5264142563901899e+00 +0.0000000000000000e+00 -4.5999999502655111e+00 -2.9147436519919280e-02 -5.5603631186177005e-01 +5.6446860930092144e-03
-4.6499999999999915e+00 +8.5264014470952603e+00 +0.0000000000000000e+00 -4.6499999486247150e+00 -2.9149423751778855e-02 -5.5606723748116382e-01 +5.6471387622523605e-03
-4.6999999999999913e+00 +8.5263884990558889e+00 +0.0000000000000000e+00 -4.6999999469481821e+00 -2.9151424744398149e-02 -5.5609837959889519e-01 +5.6495840532163437e-03
-4.7499999999999911e+00 +8.5263754122643043e+00 +0.0000000000000000e+00 -4.7499999452355253e+00 -2.9153439336308640e-02 -5.5612973556088330e-01 +5.6520218690214999e-03
-4.7999999999999909e+00 +8.5263621867126851e+00 +0.0000000000000000e+00 -4.7999999434863572e+00 -2.9155467366040026e-02 -5.5616130271304620e-01 +5.6544521127874564e-03
-4.8499999999999908e+00 +8.5263488223931532e+00 +0.0000000000000000e+00 -4.8499999417002906e+00 -2.9157508672120198e-02 -5.5619307840129772e-01 +5.6568746876331259e-03
-4.8999999999999906e+00 +8.5263353192977807e+00 +0.0000000000000000e+00 -4.8999999398769383e+00 -2.9159563093075175e-02 -5.5622505997155003e-01 +5.6592894966766985e-03
-4.9499999999999904e+00 +8.5263216774185882e+00 +0.0000000000000000e+00 -4.9499999380159139e+00 -2.9161630467429048e-02 -5.5625724476971183e-01 +5.6616964430356385e-03
-4.9999999999999902e+00 +8.5263078967475465e+00 +0.0000000000000000e+00 -4.9999999361168292e+00 -2.9163710633703908e-02 -5.5628963014168786e-01 +5.6640954298266622e-03
-5.0499999999999901e+00 +8.5262939772765733e+00 +0.0000000000000000e+00 -5.0499999341792963e+00 -2.9165803430419759e-02 -5.5632221343338073e-01 +5.6664863601657610e-03
-5.0999999999999899e+00 +8.5262799189975400e+00 +0.0000000000000000e+00 -5.0999999322029277e+00 -2.9167908696094494e-02 -5.5635499199068672e-01 +5.6688691371681484e-03
-5.1499999999999897e+00 +8.5262657219022682e+00 +0.0000000000000000e+00 -5.1499999301873363e+00 -2.9170026269243834e-02 -5.5638796315949968e-01 +5.6712436639482942e-03
-5.1999999999999895e+00 +8.5262513859825315e+00 +0.0000000000000000e+00 -5.1999999281321339e+00 -2.9172155988381215e-02 -5.5642112428570811e-01 +5.6736098436199001e-03
-5.2499999999999893e+00 +8.5262369112300558e+00 +0.0000000000000000e+00 -5.2499999260369332e+00 -2.9174297692017809e-02 -5.5645447271519599e-01 +5.6759675792958869e-03
-5.2999999999999892e+00 +8.5262222976365205e+00 +0.0000000000000000e+00 -5.2999999239013462e+00 -2.9176451218662362e-02 -5.5648800579384183e-01 +5.6783167740883959e-03
-5.3499999999999890e+00 +8.5262075451935591e+00 +0.0000000000000000e+00 -5.3499999217249847e+00 -2.9178616406821234e-02 -5.5652172086751883e-01 +5.6806573311087771e-03
-5.3999999999999888e+00 +8.5261926538927586e+00 +0.0000000000000000e+00 -5.3999999195074606e+00 -2.9180793094998225e-02 -5.5655561528209463e-01 +5.6829891534675853e-03
-5.4499999999999886e+00 +8.5261776237256637e+00 +0.0000000000000000e+00 -5.4499999172483857e+00 -2.9182981121694637e-02 -5.5658968638343120e-01 +5.6853121442745711e-03
-5.4999999999999885e+00 +8.5261624546837727e+00 +0.0000000000000000e+00 -5.4999999149473711e+00 -2.9185180325409101e-02 -5.5662393151738343e-01 +5.6876262066386648e-03
-5.5499999999999883e+00 +8.5261471467585412e+00 +0.0000000000000000e+00 -5.5499999126040294e+00 -2.9187390544637593e-02 -5.5665834802980030e-01 +5.6899312436679891e-03
-5.5999999999999881e+00 +8.5261316999413825e+00 +0.0000000000000000e+00 -5.5999999102179716e+00 -2.9189611617873330e-02 -5.5669293326652403e-01 +5.6922271584698278e-03
-5.6499999999999879e+00 +8.5261161142236670e+00 +0.0000000000000000e+00 -5.6499999077888097e+00 -2.9191843383606690e-02 -5.5672768457338928e-01 +5.6945138541506339e-03
-5.6999999999999877e+00 +8.5261003895967242e+00 +0.0000000000000000e+00 -5.6999999053161545e+00 -2.9194085680325239e-02 -5.5676259929622385e-01 +5.6967912338160192e-03
-5.7499999999999876e+00 +8.5260845260518430e+00 +0.0000000000000000e+00 -5.7499999027996180e+00 -2.9196338346513549e-02 -5.5679767478084730e-01 +5.6990592005707443e-03
-5.7999999999999874e+00 +8.5260685235802711e+00 +0.0000000000000000e+00 -5.7999999002388112e+00 -2.9198601220653219e-02 -5.5683290837307209e-01 +5.7013176575187114e-03
-5.8499999999999872e+00 +8.5260523821732175e+00 +0.0000000000000000e+00 -5.8499998976333449e+00 -2.9200874141222778e-02 -5.5686829741870092e-01 +5.7035665077629577e-03
