# field on trajectory
# s[mm] rx[mm] ry[mm] rz[mm] bx[T] by[T] bz[T]
0.0000000000000000e+00 +8.5270000000000206e+00 +0.0000000000000000e+00 +0.0000000000000000e+00 -2.9040282952060768e-02 -5.5254853032053974e-01 +5.6643235067740235e-03
5.0000000000000003e-02 +8.5269999273587000e+00 +0.0000000000000000e+00 +5.1282051281982703e-02 -2.9040173997721627e-02 -5.5254930147935710e-01 +5.6642955406001651e-03
1.0000000000000001e-01 +8.5269997094401297e+00 +0.0000000000000000e+00 +1.0256410256355400e-01 -2.9040081735058249e-02 -5.5255042306969837e-01 +5.6642687739586620e-03
1.4999999999999999e-01 +8.5269993462388793e+00 +0.0000000000000000e+00 +1.5384615384430200e-01 -2.9040006156282432e-02 -5.5255189410140459e-01 +5.6642431921314802e-03
2.0000000000000001e-01 +8.5269988377622195e+00 +0.0000000000000000e+00 +2.0512820512381499e-01 -2.9039947253602573e-02 -5.5255371358424155e-01 +5.6642187803997443e-03
2.5000000000000000e-01 +8.5269981840028795e+00 +0.0000000000000000e+00 +2.5641025640168202e-01 -2.9039905019234102e-02 -5.5255588052809634e-01 +5.6641955240458314e-03
2.9999999999999999e-01 +8.5269973849644902e+00 +0.0000000000000000e+00 +3.0769230767749101e-01 -2.9039879445389633e-02 -5.5255839394279382e-01 +5.6641734083513976e-03
3.4999999999999998e-01 +8.5269964406470500e+00 +0.0000000000000000e+00 +3.5897435895083102e-01 -2.9039870524284656e-02 -5.5256125283820090e-01 +5.6641524185985122e-03
4.0000000000000002e-01 +8.5269953510505694e+00 +0.0000000000000000e+00 +4.1025641022129000e-01 -2.9039878248136038e-02 -5.5256445622419992e-01 +5.6641325400693769e-03
4.5000000000000001e-01 +8.5269941161714105e+00 +0.0000000000000000e+00 +4.6153846148845601e-01 -2.9039902609163417e-02 -5.5256800311071597e-01 +5.6641137580465935e-03
5.0000000000000000e-01 +8.5269927360132005e+00 +0.0000000000000000e+00 +5.1282051275191798e-01 -2.9039943599585092e-02 -5.5257189250763694e-01 +5.6640960578123309e-03
5.5000000000000004e-01 +8.5269912105795793e+00 +0.0000000000000000e+00 +5.6410256401126402e-01 -2.9040001211620696e-02 -5.5257612342486562e-01 +5.6640794246488914e-03
5.9999999999999998e-01 +8.5269895398632798e+00 +0.0000000000000000e+00 +6.1538461526608301e-01 -2.9040075437495424e-02 -5.5258069487240025e-01 +5.6640638438395369e-03
6.5000000000000002e-01 +8.5269877238679292e+00 +0.0000000000000000e+00 +6.6666666651596296e-01 -2.9040166269431619e-02 -5.5258560586017391e-01 +5.6640493006668118e-03
6.9999999999999996e-01 +8.5269857625899004e+00 +0.0000000000000000e+00 +7.1794871776049296e-01 -2.9040273699655852e-02 -5.5259085539818886e-01 +5.6640357804139492e-03
7.5000000000000000e-01 +8.5269836560364602e+00 +0.0000000000000000e+00 +7.6923076899926102e-01 -2.9040397720391766e-02 -5.5259644249638173e-01 +5.6640232683634667e-03
8.0000000000000004e-01 +8.5269814042003400e+00 +0.0000000000000000e+00 +8.2051282023185501e-01 -2.9040538323869949e-02 -5.5260236616481018e-01 +5.6640117497991178e-03
8.4999999999999998e-01 +8.5269790070851705e+00 +0.0000000000000000e+00 +8.7179487145786405e-01 -2.9040695502318130e-02 -5.5260862541346756e-01 +5.6640012100039527e-03
9.0000000000000002e-01 +8.5269764646909607e+00 +0.0000000000000000e+00 +9.2307692267687602e-01 -2.9040869247966745e-02 -5.5261521925238677e-01 +5.6639916342614057e-03
9.4999999999999996e-01 +8.5269737770140601e+00 +0.0000000000000000e+00 +9.7435897388848103e-01 -2.9041059553048917e-02 -5.5262214669164345e-01 +5.6639830078553241e-03
1.0000000000000000e+00 +8.5269709440617607e+00 +0.0000000000000000e+00 +1.0256410250922601e+00 -2.9041266409794896e-02 -5.5262940674124672e-01 +5.6639753160688342e-03
1.0500000000000000e+00 +8.5269679658304103e+00 +0.0000000000000000e+00 +1.0769230762878199e+00 -2.9041489810440399e-02 -5.5263699841129876e-01 +5.6639685441860184e-03
1.1000000000000001e+00 +8.5269648423163709e+00 +0.0000000000000000e+00 +1.1282051274747300e+00 -2.9041729747222415e-02 -5.5264492071191740e-01 +5.6639626774910848e-03
1.1499999999999999e+00 +8.5269615735232893e+00 +0.0000000000000000e+00 +1.1794871786525800e+00 -2.9041986212376407e-02 -5.5265317265317948e-01 +5.6639577012677945e-03
1.2000000000000000e+00 +8.5269581594511692e+00 +0.0000000000000000e+00 +1.2307692298209700e+00 -2.9042259198140505e-02 -5.5266175324520272e-01 +5.6639536008003099e-03
1.2500000000000000e+00 +8.5269546000999998e+00 +0.0000000000000000e+00 +1.2820512809794800e+00 -2.9042548696754059e-02 -5.5267066149811805e-01 +5.6639503613729091e-03
1.3000000000000000e+00 +8.5269508954661397e+00 +0.0000000000000000e+00 +1.3333333321277101e+00 -2.9042854700459086e-02 -5.5267989642209681e-01 +5.6639479682702738e-03
1.3500000000000001e+00 +8.5269470455568808e+00 +0.0000000000000000e+00 +1.3846153832652299e+00 -2.9043177201494637e-02 -5.5268945702724370e-01 +5.6639464067763544e-03
1.3999999999999999e+00 +8.5269430503649293e+00 +0.0000000000000000e+00 +1.4358974343916400e+00 -2.9043516192106548e-02 -5.5269934232378182e-01 +5.6639456621763425e-03
1.4500000000000000e+00 +8.5269389098939392e+00 +0.0000000000000000e+00 +1.4871794855065199e+00 -2.9043871664537688e-02 -5.5270955132186850e-01 +5.6639457197547047e-03
1.5000000000000000e+00 +8.5269346241439106e+00 +0.0000000000000000e+00 +1.5384615366094700e+00 -2.9044243611033530e-02 -5.5272008303169973e-01 +5.6639465647962944e-03
1.5500000000000000e+00 +8.5269301931148203e+00 +0.0000000000000000e+00 +1.5897435877000701e+00 -2.9044632023840739e-02 -5.5273093646348481e-01 +5.6639481825860906e-03
1.6000000000000001e+00 +8.5269256168030605e+00 +0.0000000000000000e+00 +1.6410256387779201e+00 -2.9045036895208539e-02 -5.5274211062747136e-01 +5.6639505584094628e-03
1.6499999999999999e+00 +8.5269208952158806e+00 +0.0000000000000000e+00 +1.6923076898425899e+00 -2.9045458217383184e-02 -5.5275360453384059e-01 +5.6639536775510476e-03
1.7000000000000000e+00 +8.5269160283460206e+00 +0.0000000000000000e+00 +1.7435897408936800e+00 -2.9045895982617614e-02 -5.5276541719289063e-01 +5.6639575252967235e-03
1.7500000000000000e+00 +8.5269110161934805e+00 +0.0000000000000000e+00 +1.7948717919307799e+00 -2.9046350183163167e-02 -5.5277754761487996e-01 +5.6639620869319094e-03
1.8000000000000000e+00 +8.5269058587655309e+00 +0.0000000000000000e+00 +1.8461538429534701e+00 -2.9046820811269542e-02 -5.5278999481002500e-01 +5.6639673477415914e-03
1.8500000000000001e+00 +8.5269005560585391e+00 +0.0000000000000000e+00 +1.8974358939613500e+00 -2.9047307859191740e-02 -5.5280275778863397e-01 +5.6639732930116879e-03
1.8999999999999999e+00 +8.5268951080688602e+00 +0.0000000000000000e+00 +1.9487179449540000e+00 -2.9047811319185896e-02 -5.5281583556102676e-01 +5.6639799080282424e-03
1.9500000000000000e+00 +8.5268895148037700e+00 +0.0000000000000000e+00 +1.9999999959310100e+00 -2.9048331183505086e-02 -5.5282922713745486e-01 +5.6639871780765618e-03
2.0000000000000000e+00 +8.5268838253941794e+00 +0.0000000000000000e+00 +2.0508474532398102e+00 -2.9048862822505163e-02 -5.5284281389648138e-01 +5.6639950220855684e-03
2.0499999999999998e+00 +8.5268779929429002e+00 +0.0000000000000000e+00 +2.1016949105324101e+00 -2.9049410522934849e-02 -5.5285670613425164e-01 +5.6640035012027754e-03
2.1000000000000001e+00 +8.5268720174499304e+00 +0.0000000000000000e+00 +2.1525423678083899e+00 -2.9049974226289424e-02 -5.5287090179304776e-01 +5.6640126210088029e-03
2.1499999999999999e+00 +8.5268658989189099e+00 +0.0000000000000000e+00 +2.2033898250673700e+00 -2.9050553874063179e-02 -5.5288539881513754e-01 +5.6640223870840483e-03
2.2000000000000002e+00 +8.5268596373498404e+00 +0.0000000000000000e+00 +2.2542372823089400e+00 -2.9051149407752164e-02 -5.5290019514282485e-01 +5.6640328050092219e-03
2.2500000000000000e+00 +8.5268532327390893e+00 +0.0000000000000000e+00 +2.3050847395326799e+00 -2.9051760768854094e-02 -5.5291528871845030e-01 +5.6640438803653523e-03
2.2999999999999998e+00 +8.5268466850902804e+00 +0.0000000000000000e+00 +2.3559321967382099e+00 -2.9052387898864235e-02 -5.5293067748431224e-01 +5.6640556187329532e-03
2.3500000000000001e+00 +8.5268399943961395e+00 +0.0000000000000000e+00 +2.4067796539251201e+00 -2.9053030739282146e-02 -5.5294635938279757e-01 +5.6640680256933897e-03
2.3999999999999999e+00 +8.5268331606675893e+00 +0.0000000000000000e+00 +2.4576271110930099e+00 -2.9053689231600677e-02 -5.5296233235617076e-01 +5.6640811068266669e-03
2.4500000000000002e+00 +8.5268261838973594e+00 +0.0000000000000000e+00 +2.5084745682414700e+00 -2.9054363317319722e-02 -5.5297859434683894e-01 +5.6640948677142058e-03
2.5000000000000000e+00 +8.5268190640890698e+00 +0.0000000000000000e+00 +2.5593220253701001e+00 -2.9055052937935113e-02 -5.5299514329713872e-01 +5.6641093139366107e-03
2.5499999999999998e+00 +8.5268118012427294e+00 +0.0000000000000000e+00 +2.6101694824785100e+00 -2.9055758034944076e-02 -5.5301197714944272e-01 +5.6641244510747752e-03
2.6000000000000001e+00 +8.5268043953510606e+00 +0.0000000000000000e+00 +2.6610169395662799e+00 -2.9056478549846661e-02 -5.5302909384618637e-01 +5.6641402847101702e-03
2.6499999999999999e+00 +8.5267968464213499e+00 +0.0000000000000000e+00 +2.7118643966330200e+00 -2.9057214424137202e-02 -5.5304649132970718e-01 +5.6641568204231418e-03
2.7000000000000002e+00 +8.5267891544535797e+00 +0.0000000000000000e+00 +2.7627118536783102e+00 -2.9057965599312816e-02 -5.5306416754240562e-01 +5.6641740637946155e-03
2.7500000000000000e+00 +8.5267813194441295e+00 +0.0000000000000000e+00 +2.8135593107017698e+00 -2.9058732016871820e-02 -5.5308212042671689e-01 +5.6641920204057797e-03
2.7999999999999998e+00 +8.5267733413966198e+00 +0.0000000000000000e+00 +2.8644067677029899e+00 -2.9059513618309545e-02 -5.5310034792503204e-01 +5.6642106958372691e-03
2.8500000000000001e+00 +8.5267652203074196e+00 +0.0000000000000000e+00 +2.9152542246815600e+00 -2.9060310345123904e-02 -5.5311884797980393e-01 +5.6642300956702644e-03
2.8999999999999999e+00 +8.5267569561765395e+00 +0.0000000000000000e+00 +2.9661016816370900e+00 -2.9061122138811096e-02 -5.5313761853346699e-01 +5.6642502254856562e-03
2.9500000000000002e+00 +8.5267485490112396e+00 +0.0000000000000000e+00 +3.0169491385691698e+00 -2.9061948940864214e-02 -5.5315665752841081e-01 +5.6642710908637569e-03
3.0000000000000000e+00 +8.5267399988042598e+00 +0.0000000000000000e+00 +3.0677965954773900e+00 -2.9062790692781573e-02 -5.5317596290713977e-01 +5.6642926973859836e-03
3.0499999999999998e+00 +8.5267313055555896e+00 +0.0000000000000000e+00 +3.1186440523613599e+00 -2.9063647336058280e-02 -5.5319553261211241e-01 +5.6643150506331588e-03
3.1000000000000001e+00 +8.5267224692688597e+00 +0.0000000000000000e+00 +3.1694915092206801e+00 -2.9064518812187544e-02 -5.5321536458576936e-01 +5.6643381561858096e-03
3.1499999999999999e+00 +8.5267134899368102e+00 +0.0000000000000000e+00 +3.2203389660549400e+00 -2.9065405062666309e-02 -5.5323545677063857e-01 +5.6643620196252659e-03
3.2000000000000002e+00 +8.5267043675703498e+00 +0.0000000000000000e+00 +3.2711864228637300e+00 -2.9066306028983913e-02 -5.5325580710912159e-01 +5.6643866465314208e-03
3.2500000000000000e+00 +8.5266951021658297e+00 +0.0000000000000000e+00 +3.3220338796466700e+00 -2.9067221652634742e-02 -5.5327641354373525e-01 +5.6644120424852460e-03
3.2999999999999998e+00 +8.5266856937196298e+00 +0.0000000000000000e+00 +3.3728813364033301e+00 -2.9068151875112493e-02 -5.5329727401700290e-01 +5.6644382130676780e-03
3.3500000000000001e+00 +8.5266761422317394e+00 +0.0000000000000000e+00 +3.4237287931333298e+00 -2.9069096637908794e-02 -5.5331838647142828e-01 +5.6644651638593189e-03
3.3999999999999999e+00 +8.5266664477057894e+00 +0.0000000000000000e+00 +3.4745762498362600e+00 -2.9070055882513154e-02 -5.5333974884949622e-01 +5.6644929004404420e-03
3.4500000000000002e+00 +8.5266566101381596e+00 +0.0000000000000000e+00 +3.5254237065117100e+00 -2.9071029550417047e-02 -5.5336135909375106e-01 +5.6645214283918268e-03
3.5000000000000000e+00 +8.5266466295324808e+00 +0.0000000000000000e+00 +3.5762711631592898e+00 -2.9072017583108366e-02 -5.5338321514669087e-01 +5.6645507532936314e-03
3.5499999999999998e+00 +8.5266365058887494e+00 +0.0000000000000000e+00 +3.6271186197785901e+00 -2.9073019922075484e-02 -5.5340531495084677e-01 +5.6645808807262357e-03
3.6000000000000001e+00 +8.5266262391996896e+00 +0.0000000000000000e+00 +3.6779660763692101e+00 -2.9074036508808718e-02 -5.5342765644880998e-01 +5.6646118162705043e-03
3.6499999999999999e+00 +8.5266158294762100e+00 +0.0000000000000000e+00 +3.7288135329307499e+00 -2.9075067284790354e-02 -5.5345023758304501e-01 +5.6646435655058475e-03
3.6999999999999900e+00 +8.5266052767074108e+00 +0.0000000000000000e+00 +3.7796609894627999e+00 -2.9076112191510118e-02 -5.5347305629618104e-01 +5.6646761340132636e-03
3.7499999999999898e+00 +8.5265945809042005e+00 +0.0000000000000000e+00 +3.8305084459649699e+00 -2.9077171170448227e-02 -5.5349611053069536e-01 +5.6647095273720067e-03
3.7999999999999901e+00 +8.5265837420592998e+00 +0.0000000000000000e+00 +3.8813559024368498e+00 -2.9078244163090867e-02 -5.5351939822920304e-01 +5.6647437511626406e-03
3.8499999999999899e+00 +8.5265727601727104e+00 +0.0000000000000000e+00 +3.9322033588780299e+00 -2.9079331110920210e-02 -5.5354291733427197e-01 +5.6647788109650873e-03
3.8999999999999901e+00 +8.5265616352480702e+00 +0.0000000000000000e+00 +3.9830508152881201e+00 -2.9080431955415882e-02 -5.5356666578844960e-01 +5.6648147123588982e-03
3.9499999999999900e+00 +8.5265503672853793e+00 +0.0000000000000000e+00 +4.0338982716667102e+00 -2.9081546634017102e-02 -5.5359064151407167e-01 +5.6648514596430478e-03
3.9999999999999898e+00 +8.5265389562773599e+00 +0.0000000000000000e+00 +4.0847457280134103e+00 -2.9082675037193771e-02 -5.5361484219820711e-01 +5.6648890422280771e-03
4.0499999999999901e+00 +8.5265274022313005e+00 +0.0000000000000000e+00 +4.1355931843278002e+00 -2.9083817025106207e-02 -5.5363926537599695e-01 +5.6649274399176511e-03
4.0999999999999899e+00 +8.5265157051508105e+00 +0.0000000000000000e+00 +4.1864406406094901e+00 -2.9084972457411529e-02 -5.5366390858007897e-01 +5.6649666323556769e-03
4.1499999999999897e+00 +8.5265038650250098e+00 +0.0000000000000000e+00 +4.2372880968580704e+00 -2.9086141193772959e-02 -5.5368876934319811e-01 +5.6650065991872252e-03
4.1999999999999904e+00 +8.5264918818611495e+00 +0.0000000000000000e+00 +4.2881355530731398e+00 -2.9087323093847189e-02 -5.5371384519796585e-01 +5.6650473200560245e-03
4.2499999999999902e+00 +8.5264797556556005e+00 +0.0000000000000000e+00 +4.3389830092543002e+00 -2.9088518017295586e-02 -5.5373913367707317e-01 +5.6650887746066839e-03
4.2999999999999901e+00 +8.5264674864120007e+00 +0.0000000000000000e+00 +4.3898304654011504e+00 -2.9089725823777269e-02 -5.5376463231315698e-01 +5.6651309424833231e-03
4.3499999999999899e+00 +8.5264550741303502e+00 +0.0000000000000000e+00 +4.4406779215132799e+00 -2.9090946372953241e-02 -5.5379033863888105e-01 +5.6651738033303865e-03
4.3999999999999897e+00 +8.5264425188070199e+00 +0.0000000000000000e+00 +4.4915253775902899e+00 -2.9092179524486443e-02 -5.5381625018693303e-01 +5.6652173367926538e-03
4.4499999999999904e+00 +8.5264298204419902e+00 +0.0000000000000000e+00 +4.5423728336317897e+00 -2.9093425138038965e-02 -5.5384236448997382e-01 +5.6652615225146839e-03
4.4999999999999902e+00 +8.5264169790425495e+00 +0.0000000000000000e+00 +4.5932202896373502e+00 -2.9094683073270629e-02 -5.5386867908060888e-01 +5.6653063401405305e-03
4.5499999999999901e+00 +8.5264039945941494e+00 +0.0000000000000000e+00 +4.6440677456066002e+00 -2.9095953189850244e-02 -5.5389519149160193e-01 +5.6653517693159867e-03
4.5999999999999899e+00 +8.5263908671149693e+00 +0.0000000000000000e+00 +4.6949152015391098e+00 -2.9097235347434521e-02 -5.5392189925547353e-01 +5.6653977896843847e-03
4.6499999999999897e+00 +8.5263775965941004e+00 +0.0000000000000000e+00 +4.7457626574344998e+00 -2.9098529405692030e-02 -5.5394879990495638e-01 +5.6654443808913501e-03
4.6999999999999904e+00 +8.5263641830315500e+00 +0.0000000000000000e+00 +4.7966101132923500e+00 -2.9099835224287687e-02 -5.5397589097269950e-01 +5.6654915225817400e-03
4.7499999999999902e+00 +8.5263506264309399e+00 +0.0000000000000000e+00 +4.8474575691122697e+00 -2.9101152662885609e-02 -5.5400316999132260e-01 +5.6655391944001824e-03
4.7999999999999901e+00 +8.5263369267886393e+00 +0.0000000000000000e+00 +4.8983050248938502e+00 -2.9102481581153340e-02 -5.5403063449349510e-01 +5.6655873759919352e-03
4.8499999999999899e+00 +8.5263230841010191e+00 +0.0000000000000000e+00 +4.9491524806366902e+00 -2.9103821838759026e-02 -5.5405828201188279e-01 +5.6656360470023091e-03
4.8999999999999897e+00 +8.5263090983826295e+00 +0.0000000000000000e+00 +4.9999999363403900e+00 -2.9105173295364408e-02 -5.5408611007901443e-01 +5.6656851870752842e-03
4.9499999999999904e+00 +8.5262950649157592e+00 +0.0000000000000000e+00 +5.0505049848957304e+00 -2.9106526598909659e-02 -5.5411392704634577e-01 +5.6657344404955684e-03
4.9999999999999902e+00 +8.5262808896768494e+00 +0.0000000000000000e+00 +5.1010100334114901e+00 -2.9107890675426250e-02 -5.5414191729173468e-01 +5.6657841167053651e-03
5.0499999999999901e+00 +8.5262665726659197e+00 +0.0000000000000000e+00 +5.1515150818872497e+00 -2.9109265387399563e-02 -5.5417007839731647e-01 +5.6658341957584266e-03
5.0999999999999899e+00 +8.5262521138793108e+00 +0.0000000000000000e+00 +5.2020201303226203e+00 -2.9110650597317052e-02 -5.5419840794524955e-01 +5.6658846577088435e-03
5.1499999999999897e+00 +8.5262375133206696e+00 +0.0000000000000000e+00 +5.2525251787172103e+00 -2.9112046167664055e-02 -5.5422690351763304e-01 +5.6659354826102213e-03
5.1999999999999904e+00 +8.5262227709863492e+00 +0.0000000000000000e+00 +5.3030302270706198e+00 -2.9113451960929362e-02 -5.5425556269661491e-01 +5.6659866505167859e-03
5.2499999999999902e+00 +8.5262078868836397e+00 +0.0000000000000000e+00 +5.3535352753824403e+00 -2.9114867839598223e-02 -5.5428438306425609e-01 +5.6660381414819936e-03
5.2999999999999901e+00 +8.5261928610125306e+00 +0.0000000000000000e+00 +5.4040403236522803e+00 -2.9116293666159383e-02 -5.5431336220266525e-01 +5.6660899355599264e-03
5.3499999999999899e+00 +8.5261776933584805e+00 +0.0000000000000000e+00 +5.4545453718797399e+00 -2.9117729303107950e-02 -5.5434249769405364e-01 +5.6661420128058535e-03
5.3999999999999897e+00 +8.5261623839360308e+00 +0.0000000000000000e+00 +5.5050504200644301e+00 -2.9119174612928473e-02 -5.5437178712040980e-01 +5.6661943532728869e-03
5.4499999999999904e+00 +8.5261469327415398e+00 +0.0000000000000000e+00 +5.5555554682059496e+00 -2.9120629458113244e-02 -5.5440122806385062e-01 +5.6662469370155882e-03
5.4999999999999902e+00 +8.5261313397750200e+00 +0.0000000000000000e+00 +5.6060605163038897e+00 -2.9122093701153894e-02 -5.5443081810645845e-01 +5.6662997440883297e-03
5.5499999999999901e+00 +8.5261156050328299e+00 +0.0000000000000000e+00 +5.6565655643578596e+00 -2.9123567204544187e-02 -5.5446055483033618e-01 +5.6663527545458238e-03
5.5999999999999899e+00 +8.5260997285186004e+00 +0.0000000000000000e+00 +5.7070706123674597e+00 -2.9125049830775854e-02 -5.5449043581752455e-01 +5.6664059484423050e-03
5.6499999999999897e+00 +8.5260837102287006e+00 +0.0000000000000000e+00 +5.7575756603323001e+00 -2.9126541442344164e-02 -5.5452045865011068e-01 +5.6664593058326339e-03
5.6999999999999904e+00 +8.5260675501704100e+00 +0.0000000000000000e+00 +5.8080807082519703e+00 -2.9128041901740918e-02 -5.5455062091009277e-01 +5.6665128067709056e-03
5.7499999999999902e+00 +8.5260512483400799e+00 +0.0000000000000000e+00 +5.8585857561260797e+00 -2.9129551071462995e-02 -5.5458092017954175e-01 +5.6665664313121349e-03
5.7999999999999901e+00 +8.5260348047340795e+00 +0.0000000000000000e+00 +5.9090908039542303e+00 -2.9131068814008003e-02 -5.5461135404051931e-01 +5.6666201595114143e-03
5.8499999999999899e+00 +8.5260182193524106e+00 +0.0000000000000000e+00 +5.9595958517360303e+00 -2.9132594991872943e-02 -5.5464192007505209e-01 +5.6666739714236287e-03
5.8999999999999897e+00 +8.5260014921987004e+00 +0.0000000000000000e+00 +6.0101008994710599e+00 -2.9134129467562730e-02 -5.5467261586506222e-01 +5.6667278471012449e-03
