# multipoles
# s[mm] polynom_b[n=0][T/m^n] polynom_b[n=1][T/m^n] polynom_b[n=2][T/m^n] polynom_b[n=3][T/m^n] polynom_b[n=4][T/m^n] polynom_b[n=5][T/m^n] polynom_b[n=6][T/m^n] 
+0.0000000000000000e+00 -5.5381320365069497e-01 +7.2274456011584469e+00 +5.0819453572861537e+00 -1.9619541382230807e+01 +4.9565450356498213e+03 -2.5157442719067758e+05 -5.4440462948214561e+06 
-5.0000000000000003e-02 -5.5381301172269937e-01 +7.2274772667462361e+00 +5.0763720493430942e+00 -1.9343065791289945e+01 +5.0585253418361826e+03 -2.5355967604643377e+05 -6.0773160265874872e+06 
-1.0000000000000001e-01 -5.5381322159807611e-01 +7.2275301831989456e+00 +5.0706573094460090e+00 -1.9056270809952395e+01 +5.1509097147995044e+03 -2.5555548572815594e+05 -6.6468829111587731e+06 
-1.5000000000000002e-01 -5.5381383238646609e-01 +7.2276043061355715e+00 +5.0647929563382279e+00 -1.8759834972435382e+01 +5.2340100023960840e+03 -2.5755810393778101e+05 -7.1548712681103107e+06 
-2.0000000000000001e-01 -5.5381484319754515e-01 +7.2276995911704827e+00 +5.0587708120529520e+00 -1.8454436583801037e+01 +5.3081379580442026e+03 -2.5956378031213448e+05 -7.6034047593071023e+06 
-2.5000000000000000e-01 -5.5381625314099758e-01 +7.2278159939217996e+00 +5.0525826969915171e+00 -1.8140754080351932e+01 +5.3736053793591163e+03 -2.6156876338275376e+05 -7.9946073466420826e+06 
-2.9999999999999999e-01 -5.5381806132652300e-01 +7.2279534700056267e+00 +5.0462204305197407e+00 -1.7819465773281308e+01 +5.4307240963242502e+03 -2.6356930276583636e+05 -8.3306032298023086e+06 
-3.4999999999999998e-01 -5.5382026686384755e-01 +7.2281119750399503e+00 +5.0396758339521224e+00 -1.7491250026274109e+01 +5.4798058808616843e+03 -2.6556164763364388e+05 -8.6135161954976246e+06 
-3.9999999999999997e-01 -5.5382286886271226e-01 +7.2282914646458289e+00 +5.0329407280548919e+00 -1.7156785289973978e+01 +5.5211625192690490e+03 -2.6754204648392712e+05 -8.8454701276469696e+06 
-4.4999999999999996e-01 -5.5382586643287179e-01 +7.2284918944354333e+00 +5.0260069323801950e+00 -1.6816749626145992e+01 +5.5551058353640901e+03 -2.6950675100413605e+05 -9.0285891831894740e+06 
-4.9999999999999994e-01 -5.5382925868409572e-01 +7.2287132200348179e+00 +5.0188662666133670e+00 -1.6471821635914296e+01 +5.5819476421384688e+03 -2.7145200844911480e+05 -9.1649974195739012e+06 
-5.4999999999999993e-01 -5.5383304472618333e-01 +7.2289553970599876e+00 +5.0115105521849443e+00 -1.6122679472036982e+01 +5.6019997084556171e+03 -2.7337406979625381e+05 -9.2568186084358096e+06 
-5.9999999999999998e-01 -5.5383722366895793e-01 +7.2292183811321920e+00 +5.0039316116105965e+00 -1.5770001478157585e+01 +5.6155737759046897e+03 -2.7526918444936868e+05 -9.3061763469447531e+06 
-6.5000000000000002e-01 -5.5384179462223082e-01 +7.2295021278711191e+00 +4.9961212625542810e+00 -1.5414465901969320e+01 +5.6229817104796666e+03 -2.7713360260216129e+05 -9.3151950475861505e+06 
-7.0000000000000007e-01 -5.5384675669585259e-01 +7.2298065928986581e+00 +4.9880713255716529e+00 -1.5056751052833976e+01 +5.6245353103800335e+03 -2.7896357396517514e+05 -9.2859987058809046e+06 
-7.5000000000000011e-01 -5.5385210899969373e-01 +7.2301317318368383e+00 +4.9797736231001037e+00 -1.4697535223872812e+01 +5.6205463100365741e+03 -2.8075534834893874e+05 -9.2207108393898718e+06 
-8.0000000000000016e-01 -5.5385785064363136e-01 +7.2304775003075008e+00 +4.9712199746009293e+00 -1.4337496663884654e+01 +5.6113265332597084e+03 -2.8250517597820680e+05 -9.1214556030336600e+06 
-8.5000000000000020e-01 -5.5386398073757348e-01 +7.2308438539333721e+00 +4.9624022022099608e+00 -1.3977313644753572e+01 +5.5971877292234740e+03 -2.8420930682675669e+05 -8.9903566410660055e+06 
-9.0000000000000024e-01 -5.5387049839141722e-01 +7.2312307483375848e+00 +4.9533121233107842e+00 -1.3617664412260865e+01 +5.5784417732478205e+03 -2.8586399114952562e+05 -8.8295384419074915e+06 
-9.5000000000000029e-01 -5.5387740271511865e-01 +7.2316381391442448e+00 +4.9439415622442668e+00 -1.3259227236340539e+01 +5.5554003584922275e+03 -2.8746547896579828e+05 -8.6411242871365827e+06 
-1.0000000000000002e+00 -5.5388469281862207e-01 +7.2320659819781685e+00 +4.9342823385988268e+00 -1.2902680391929843e+01 +5.5283753015237489e+03 -2.8901002023407409e+05 -8.4272382738491148e+06 
-1.0500000000000003e+00 -5.5389236781188800e-01 +7.2325142324642204e+00 +4.9243262718311991e+00 -1.2548702128760430e+01 +5.4976784238970295e+03 -2.9049386513897078e+05 -8.1900045408784691e+06 
-1.1000000000000003e+00 -5.5390042680491303e-01 +7.2329828462282508e+00 +4.9140651847535031e+00 -1.2197970706664991e+01 +5.4636214558865613e+03 -2.9191326378244045e+05 -7.9315466059647733e+06 
-1.1500000000000004e+00 -5.5390886890769542e-01 +7.2334717788964102e+00 +4.9034908973765896e+00 -1.1851164392383135e+01 +5.4265162067907759e+03 -2.9326446614110569e+05 -7.6539885381806316e+06 
-1.2000000000000004e+00 -5.5391769323025630e-01 +7.2339809860949957e+00 +4.8925952309018399e+00 -1.1508961411455893e+01 +5.3866744513078893e+03 -2.9454372261950647e+05 -7.3594541619679034e+06 
-1.2500000000000004e+00 -5.5392689888262636e-01 +7.2345104234518320e+00 +4.8813700052927675e+00 -1.1172040048775076e+01 +5.3444079989399352e+03 -2.9574728303304681e+05 -7.0500675457967706e+06 
-1.3000000000000005e+00 -5.5393648497487424e-01 +7.2350600465953594e+00 +4.8698070441445065e+00 -1.0841078584234994e+01 +5.3000285619577535e+03 -2.9687139726040175e+05 -6.7279521023635902e+06 
-1.3500000000000005e+00 -5.5394645061705017e-01 +7.2356298111546460e+00 +4.8578981651794999e+00 -1.0516755306767747e+01 +5.2538480103040083e+03 -2.9791231508391036e+05 -6.3952323113551894e+06 
-1.4000000000000006e+00 -5.5395679491926386e-01 +7.2362196727571337e+00 +4.8456351932079187e+00 -1.0199748413355767e+01 +5.2061780269616011e+03 -2.9886628702617227e+05 -6.0540314041550783e+06 
-1.4500000000000006e+00 -5.5396751699160374e-01 +7.2368295870350092e+00 +4.8330099470769676e+00 -9.8907362757145982e+00 +5.1573304497647732e+03 -2.9972956217262219e+05 -5.7064736366736479e+06 
-1.5000000000000007e+00 -5.5397861594419806e-01 +7.2374595096180752e+00 +4.8200142493816216e+00 -9.5903971492928353e+00 +5.1076170217424678e+03 -3.0049839051672787e+05 -5.3546826513250666e+06 
-1.5500000000000007e+00 -5.5399009088717743e-01 +7.2381093961377632e+00 +4.8066399201589105e+00 -9.2994093400024251e+00 +5.0573495545611604e+03 -3.0116902162124409e+05 -5.0007825514543895e+06 
-1.6000000000000008e+00 -5.5400194093070720e-01 +7.2387792022265192e+00 +4.7928787829104875e+00 -9.0184511679118557e+00 +5.0068397663805272e+03 -3.0173770493897982e+05 -4.6468968115275139e+06 
-1.6500000000000008e+00 -5.5401416518495328e-01 +7.2394688835174543e+00 +4.7787226584175224e+00 -8.7482009781313241e+00 +4.9563994500075587e+03 -3.0220068962958502e+05 -4.2951494157677405e+06 
-1.7000000000000008e+00 -5.5402676276009166e-01 +7.2401783956419052e+00 +4.7641633666307230e+00 -8.4893370057966067e+00 +4.9063404193845427e+03 -3.0255422580633179e+05 -3.9476644874168225e+06 
-1.7500000000000009e+00 -5.5403973276634233e-01 +7.2409076942366575e+00 +4.7491927319657457e+00 -8.2425377090492749e+00 +4.8569743724429627e+03 -3.0279456166078255e+05 -3.6065653829768887e+06 
-1.8000000000000009e+00 -5.5405307431391304e-01 +7.2416567349353596e+00 +4.7338025744029668e+00 -8.0084813875058938e+00 +4.8086131250609797e+03 -3.0291794670843746e+05 -3.2739762533855638e+06 
-1.8500000000000010e+00 -5.5406678651304198e-01 +7.2424254733732374e+00 +4.7179847160171935e+00 -7.7878464011924837e+00 +4.7615684395208082e+03 -3.0292062988768052e+05 -2.9520208949923939e+06 
-1.9000000000000010e+00 -5.5408086847399007e-01 +7.2432138651868252e+00 +4.7017309806996295e+00 -7.5813111454526698e+00 +4.7161520279727420e+03 -3.0279885983224347e+05 -2.6428227675804743e+06 
-1.9500000000000011e+00 -5.5409531930701295e-01 +7.2440218660132674e+00 +4.6850331879907197e+00 -7.3895540176297096e+00 +4.6726757240848656e+03 -3.0254888515105110e+05 -2.3485061632820820e+06 
-2.0000000000000009e+00 -5.5411013812239995e-01 +7.2448494314929164e+00 +4.6678831613856460e+00 -7.2132535411503778e+00 +4.6314512523815929e+03 -3.0216695334477699e+05 -2.0711946328184360e+06 
-2.0500000000000007e+00 -5.5412532379674173e-01 +7.2456964965875486e+00 +4.6502747754879374e+00 -7.0528365623907048e+00 +4.5927363878047108e+03 -3.0165111966840731e+05 -1.8126376456195929e+06 
-2.1000000000000005e+00 -5.5414087427175152e-01 +7.2465629064631969e+00 +4.6322106759423676e+00 -6.9077004474552766e+00 +4.5565664834408217e+03 -3.0100690385983995e+05 -1.5730404804880186e+06 
-2.1500000000000004e+00 -5.5415678725543327e-01 +7.2474484820538381e+00 +4.6136958547811497e+00 -6.7769795817864731e+00 +4.5229195958003020e+03 -3.0024175460186345e+05 -1.3522100613884020e+06 
-2.2000000000000002e+00 -5.5417306045578929e-01 +7.2483530442911714e+00 +4.5947353020370247e+00 -6.6598082468139568e+00 +4.4917738316494278e+03 -2.9936312144073175e+05 -1.1499536334683078e+06 
-2.2500000000000000e+00 -5.5418969158083764e-01 +7.2492764141054780e+00 +4.5753340079098788e+00 -6.5553206462129898e+00 +4.4631072967963701e+03 -2.9837845456958190e+05 -9.6607844946146070e+05 
-2.2999999999999998e+00 -5.5420667833860482e-01 +7.2502184124315514e+00 +4.5554969623200279e+00 -6.4626511613696600e+00 +4.4368981006572467e+03 -2.9729520269764453e+05 -8.0039176881473721e+05 
-2.3499999999999996e+00 -5.5422401843714242e-01 +7.2511788602021960e+00 +4.5352291571167402e+00 -6.3809340667019727e+00 +4.4131243054790102e+03 -2.9612081545346079e+05 -6.5270055168576643e+05 
-2.3999999999999995e+00 -5.5424170958449859e-01 +7.2521575783513965e+00 +4.5145355820695743e+00 -6.3093036959742657e+00 +4.3917640224569041e+03 -2.9486274187478388e+05 -5.2281205764056626e+05 
-2.4499999999999993e+00 -5.5425974948873902e-01 +7.2531543878142140e+00 +4.4934212274699901e+00 -6.2468943882484478e+00 +4.3727953544879529e+03 -2.9352843105943041e+05 -4.1053351256121084e+05 
-2.4999999999999991e+00 -5.5427813585794505e-01 +7.2541691095229419e+00 +4.4718910845560815e+00 -6.1928403763313531e+00 +4.3561963775008890e+03 -2.9212533289416868e+05 -3.1567195369879546e+05 
-2.5499999999999989e+00 -5.5429686640019338e-01 +7.2552015644145502e+00 +4.4499501419388023e+00 -6.1462760528078517e+00 +4.3419452362130505e+03 -2.9066089603330422e+05 -2.3803487213961748e+05 
-2.5999999999999988e+00 -5.5431593882359087e-01 +7.2562515734233717e+00 +4.4276033913269428e+00 -6.1063357150760487e+00 +4.3300199933594595e+03 -2.8914256981136173e+05 -1.7742920846844788e+05 
-2.6499999999999986e+00 -5.5433535083623875e-01 +7.2573189574833856e+00 +4.4048558220633165e+00 -6.0721536202667714e+00 +4.3203987735011706e+03 -2.8757780394981458e+05 -1.3366231442673475e+05 
-2.6999999999999984e+00 -5.5435510014625622e-01 +7.2584035375329652e+00 +4.3817124246293639e+00 -6.0428641941926422e+00 +4.3130596701358072e+03 -2.8597404678671545e+05 -1.0654132620692988e+05 
-2.7499999999999982e+00 -5.5437518446176193e-01 +7.2595051345075188e+00 +4.3581781875138681e+00 -6.0176017363550596e+00 +4.3079808318534015e+03 -2.8433874767398933e+05 -9.5873757136786066e+04 
-2.7999999999999980e+00 -5.5439560149089473e-01 +7.2606235693414733e+00 +4.3342581009908603e+00 -5.9955004937627123e+00 +4.3051403580890683e+03 -2.8267935640750563e+05 -1.0146677947279879e+05 
-2.8499999999999979e+00 -5.5441634894179503e-01 +7.2617586629743238e+00 +4.3099571540577282e+00 -5.9756949183855497e+00 +4.3045163823778494e+03 -2.8100332106650498e+05 -1.2312779545074711e+05 
-2.8999999999999977e+00 -5.5443742452262379e-01 +7.2629102363404785e+00 +4.2852803377671096e+00 -5.9573192360270300e+00 +4.3060869810670711e+03 -2.7931809162335203e+05 -1.6066381000606451e+05 
-2.9499999999999975e+00 -5.5445882594153395e-01 +7.2640781103795735e+00 +4.2602326398841690e+00 -5.9395078815563558e+00 +4.3098303190524421e+03 -2.7763111632720748e+05 -2.1388242204120592e+05 
-2.9999999999999973e+00 -5.5448055090669701e-01 +7.2652621060286968e+00 +4.2348190501762897e+00 -5.9213951736956334e+00 +4.3157245078182086e+03 -2.7594984438493848e+05 -2.8259087415220088e+05 
-3.0499999999999972e+00 -5.5450259712629046e-01 +7.2664620442235472e+00 +4.2090445575143560e+00 -5.9021153805549131e+00 +4.3237476824297864e+03 -2.7428172537286923e+05 -3.6659655721214070e+05 
-3.0999999999999970e+00 -5.5452496230849757e-01 +7.2676777459033879e+00 +4.1829141507693643e+00 -5.8808028896130704e+00 +4.3338779752055880e+03 -2.7263420796387555e+05 -4.6570683338530711e+05 
-3.1499999999999968e+00 -5.5454764416150604e-01 +7.2689090320066274e+00 +4.1564328175856682e+00 -5.8565920569359076e+00 +4.3460935546951587e+03 -2.7101474104612373e+05 -5.7972931768712820e+05 
-3.1999999999999966e+00 -5.5457064039352744e-01 +7.2701557234715910e+00 +4.1296055490713330e+00 -5.8286172355095029e+00 +4.3603724904516675e+03 -2.6943077351230057e+05 -7.0847093322447827e+05 
-3.2499999999999964e+00 -5.5459394871275580e-01 +7.2714176412357610e+00 +4.1024373313170361e+00 -5.7960127279081020e+00 +4.3766929912252517e+03 -2.6788975470733427e+05 -8.5173955404310906e+05 
-3.2999999999999963e+00 -5.5461756682740670e-01 +7.2726946062396625e+00 +4.0749331528166026e+00 -5.7579129488953127e+00 +4.3950331993283644e+03 -2.6639913308544975e+05 -1.0093425942334033e+06 
-3.3499999999999961e+00 -5.5464149244570282e-01 +7.2739864394199403e+00 +4.0470980026003325e+00 -5.7134521756345906e+00 +4.4153712386702682e+03 -2.6496635813326144e+05 -1.1810873274972520e+06 
-3.3999999999999959e+00 -5.5466572327586106e-01 +7.2752929617176427e+00 +4.0189368668692813e+00 -5.6617648270183221e+00 +4.4376853127647782e+03 -2.6359887830835104e+05 -1.3667815736755950e+06 
-3.4499999999999957e+00 -5.5469025702611607e-01 +7.2766139940706944e+00 +3.9904547339118914e+00 -5.6019852226350677e+00 +4.4619535668805784e+03 -2.6230414275013236e+05 -1.5662327479806596e+06 
-3.4999999999999956e+00 -5.5471509140470443e-01 +7.2779493574202823e+00 +3.9616565913665829e+00 -5.5332477803919895e+00 +4.4881541591114910e+03 -2.6108959993480291e+05 -1.7792483286335994e+06 
-3.5499999999999954e+00 -5.5474022411987545e-01 +7.2792988727027135e+00 +3.9325474275898533e+00 -5.4546867441863771e+00 +4.5162652347340945e+03 -2.5996269964950386e+05 -2.0056357323775631e+06 
-3.5999999999999952e+00 -5.5476565287986068e-01 +7.2806623608609833e+00 +3.9031322270311986e+00 -5.3654366045893314e+00 +4.5462650366421558e+03 -2.5893088974874702e+05 -2.2452029972226280e+06 
-3.6499999999999950e+00 -5.5479137539291623e-01 +7.2820396428327490e+00 +3.8734159770208669e+00 -5.2646316500220820e+00 +4.5781317357026937e+03 -2.5800161968822117e+05 -2.4977576950049852e+06 
-3.6999999999999948e+00 -5.5481738936731340e-01 +7.2834305395565586e+00 +3.8434036670337894e+00 -5.1514061882452342e+00 +4.6118434374363806e+03 -2.5718233882739593e+05 -2.7631069223084003e+06 
-3.7499999999999947e+00 -5.5484369251128485e-01 +7.2848348719752627e+00 +3.8131002787490766e+00 -5.0248947187655375e+00 +4.6473784571701190e+03 -2.5648049488222695e+05 -3.0410591865358809e+06 
-3.7999999999999945e+00 -5.5487028253310955e-01 +7.2862524610274750e+00 +3.7825108005768047e+00 -4.8842315453796017e+00 +4.6847149335650274e+03 -2.5590353727670517e+05 -3.3314218171711075e+06 
-3.8499999999999943e+00 -5.5489715714106647e-01 +7.2876831276521825e+00 +3.7516402198665921e+00 -4.7285509950335047e+00 +4.7238310323230689e+03 -2.5545891521033418e+05 -3.6340023124277261e+06 
-3.8999999999999941e+00 -5.5492431404340925e-01 +7.2891266927922382e+00 +3.7204935198195890e+00 -4.5569875642651514e+00 +4.7647050213020693e+03 -2.5515407644911524e+05 -3.9486088243751158e+06 
-3.9499999999999940e+00 -5.5495175094842164e-01 +7.2905829773831261e+00 +3.6890756871015165e+00 -4.3686754256361775e+00 +4.8073150804436827e+03 -2.5499647152481554e+05 -4.2750489219867270e+06 
-3.9999999999999938e+00 -5.5497946556437783e-01 +7.2920518023668857e+00 +3.6573917058798120e+00 -4.1627490473382780e+00 +4.8516394593922205e+03 -2.5499354840924649e+05 -4.6131306501586651e+06 
-4.0499999999999936e+00 -5.5500745551446540e-01 +7.2935329859019742e+00 +3.6254475019590799e+00 -3.9385410584078286e+00 +4.8976326993115472e+03 -2.5515088172959775e+05 -4.9625012312290715e+06 
-4.0999999999999934e+00 -5.5503571808221519e-01 +7.2950263297638918e+00 +3.5932530891282264e+00 -3.6961644442489603e+00 +4.9451609570583796e+03 -2.5546669489069670e+05 -5.3222351594496584e+06 
-4.1499999999999932e+00 -5.5506425046642838e-01 +7.2965316303503327e+00 +3.5608196031386905e+00 -3.4359274012017473e+00 +4.9940697931367331e+03 -2.5593738993872961e+05 -5.6912803514586324e+06 
-4.1999999999999931e+00 -5.5509304986591246e-01 +7.2980486840589966e+00 +3.5281581811709430e+00 -3.1581381388610215e+00 +5.0442047264311059e+03 -2.5655936886332787e+05 -6.0685844244208811e+06 
-4.2499999999999929e+00 -5.5512211347946117e-01 +7.2995772872848903e+00 +3.4952799574003106e+00 -2.8631047628595292e+00 +5.0954113603806936e+03 -2.5732903453827975e+05 -6.4530955821365900e+06 
-4.2999999999999927e+00 -5.5515143850589588e-01 +7.3011172364270669e+00 +3.4621960706015664e+00 -2.5511355425411399e+00 +5.1475351742956391e+03 -2.5824278852797896e+05 -6.8437611906172223e+06 
-4.3499999999999925e+00 -5.5518102214401055e-01 +7.3026683278792044e+00 +3.4289176551980751e+00 -2.2225385441788563e+00 +5.2004217606616266e+03 -2.5929703404310197e+05 -7.2395293680564361e+06 
-4.3999999999999924e+00 -5.5521086159261246e-01 +7.3042303580360510e+00 +3.3954558474428516e+00 -1.8776218655894901e+00 +5.2539166657931974e+03 -2.6048817413283992e+05 -7.6393479331617784e+06 
-4.4499999999999922e+00 -5.5524095405051987e-01 +7.3058031232941625e+00 +3.3618217859866144e+00 -1.5166937064400052e+00 +5.3078653674906782e+03 -2.6181261094067598e+05 -8.0421642288153786e+06 
-4.4999999999999920e+00 -5.5527129671651854e-01 +7.3073864200460532e+00 +3.3280266034253843e+00 -1.1400620858724781e+00 +5.3621135097072183e+03 -2.6326674820778437e+05 -8.4469267354140766e+06 
-4.5499999999999918e+00 -5.5530188678942127e-01 +7.3089800446870647e+00 +3.2940814378258585e+00 -7.4803517031340616e-01 +5.4165065833672652e+03 -2.6484698838894005e+05 -8.8525828782848902e+06 
-4.5999999999999917e+00 -5.5533272146804469e-01 +7.3105837936084459e+00 +3.2599974275650991e+00 -3.4092093966030429e-01 +5.4708900747668322e+03 -2.6654973560938373e+05 -9.2580800689663161e+06 
-4.6499999999999915e+00 -5.5536379795116908e-01 +7.3121974632039128e+00 +3.2257857053483949e+00 +8.0972501061900723e-02 +5.5251096199897056e+03 -2.6837139291714615e+05 -9.6623667226475198e+06 
-4.6999999999999913e+00 -5.5539511343761283e-01 +7.3138208498670085e+00 +3.1914574104678706e+00 +5.1733703872243175e-01 +5.5790106794319918e+03 -2.7030836330405163e+05 -1.0064390075281229e+07 
-4.7499999999999911e+00 -5.5542666512618510e-01 +7.3154537499856476e+00 +3.1570236813611570e+00 +9.6786480334313985e-01 +5.6324387319157904e+03 -2.7235705187215138e+05 -1.0463097472896326e+07 
-4.7999999999999909e+00 -5.5545845021565232e-01 +7.3170959599531624e+00 +3.1224956491689508e+00 +1.4322476705745135e+00 +5.6852394550604504e+03 -2.7451386156662361e+05 -1.0857437615345839e+07 
-4.8499999999999908e+00 -5.5549046590484075e-01 +7.3187472761565084e+00 +3.0878844557398639e+00 +1.9101777905062183e+00 +5.7372582379477972e+03 -2.7677519771031488e+05 -1.1246357255065365e+07 
-4.8999999999999906e+00 -5.5552270939252324e-01 +7.3204074949902234e+00 +3.0532012349278159e+00 +2.4013469669509475e+00 +5.7883406787793256e+03 -2.7913746271072555e+05 -1.1628804537933556e+07 
-4.9499999999999904e+00 -5.5555517787750441e-01 +7.3220764128380766e+00 +3.0184571257108082e+00 +2.9054474529433572e+00 +5.8383322458431039e+03 -2.8159706276948994e+05 -1.2003726766478946e+07 
-4.9999999999999902e+00 -5.5558786855856013e-01 +7.3237538260887787e+00 +2.9836632631678479e+00 +3.4221712782915370e+00 +5.8870785040509300e+03 -2.8415040225759143e+05 -1.2370071862756897e+07 
-5.0499999999999901e+00 -5.5562077863448600e-01 +7.3254395311317984e+00 +2.9488307866710315e+00 +3.9512104333270943e+00 +5.9344249039089418e+03 -2.8679388525713491e+05 -1.2726786987173099e+07 
