# multipoles
# s[mm] polynom_b[n=0][T/m^n] polynom_b[n=1][T/m^n] polynom_b[n=2][T/m^n] polynom_b[n=3][T/m^n] polynom_b[n=4][T/m^n] polynom_b[n=5][T/m^n] polynom_b[n=6][T/m^n] 
+0.0000000000000000e+00 -5.7833215631503831e-01 +7.5924707235389590e+00 +6.5182916248062028e+00 -4.4710281696269639e+01 -1.5693066535237242e+04 +1.5271767381817694e+04 +1.1299936738999783e+08 
+5.0000000000000003e-02 -5.7833422501142551e-01 +7.5926558394007451e+00 +6.5180702749444350e+00 -4.4819788491490556e+01 -1.5795305075718776e+04 +1.6063100084024592e+04 +1.1360734166408445e+08 
+1.0000000000000001e-01 -5.7833668280144723e-01 +7.5928623225594256e+00 +6.5174704310894382e+00 -4.4922241225362313e+01 -1.5898324493345643e+04 +1.6772505485983602e+04 +1.1421721337510701e+08 
+1.4999999999999999e-01 -5.7833952845428882e-01 +7.5930900679291708e+00 +6.5164820648665467e+00 -4.5018000459958927e+01 -1.6001869766636008e+04 +1.7405304216572513e+04 +1.1482759783234896e+08 
+2.0000000000000001e-01 -5.7834276073922142e-01 +7.5933389704304854e+00 +6.5150951475083048e+00 -4.5107426981632294e+01 -1.6105685862158347e+04 +1.7966818726617443e+04 +1.1543711026067631e+08 
+2.5000000000000000e-01 -5.7834637842542458e-01 +7.5936089249826360e+00 +6.5132996504948473e+00 -4.5190881505879972e+01 -1.6209517754551440e+04 +1.8462370948712087e+04 +1.1604436594757806e+08 
+2.9999999999999999e-01 -5.7835038028218810e-01 +7.5938998265060285e+00 +6.5110855472738631e+00 -4.5268724770417535e+01 -1.6313110470401722e+04 +1.8897282998967607e+04 +1.1664798052311702e+08 
+3.4999999999999998e-01 -5.7835476507879990e-01 +7.5942115699190200e+00 +6.5084428076798488e+00 -4.5341317393835219e+01 -1.6416208938481501e+04 +1.9276875989887536e+04 +1.1724656896013790e+08 
+4.0000000000000002e-01 -5.7835953158449382e-01 +7.5945440501470580e+00 +6.5053614037813476e+00 -4.5409020255267293e+01 -1.6518558149881985e+04 +1.9606473194087805e+04 +1.1783874665822546e+08 
+4.5000000000000001e-01 -5.7836467856861462e-01 +7.5948971621089667e+00 +6.5018313093636220e+00 -4.5472193943939359e+01 -1.6619903139201680e+04 +1.9891395513726595e+04 +1.1842312930205612e+08 
+5.0000000000000000e-01 -5.7837020480046553e-01 +7.5952708007293772e+00 +6.4978424932555425e+00 -4.5531199254103313e+01 -1.6719988809327599e+04 +2.0136965540262921e+04 +1.1899833169095445e+08 
+5.5000000000000004e-01 -5.7837610904935466e-01 +7.5956648609326063e+00 +6.4933849266691075e+00 -4.5586396942638366e+01 -1.6818560127071549e+04 +2.0348505558881516e+04 +1.1956296905657604e+08 
+5.9999999999999998e-01 -5.7838239008470482e-01 +7.5960792376409483e+00 +6.4884485838997472e+00 -4.5638147658347741e+01 -1.6915362142257811e+04 +2.0531336967334883e+04 +1.2011565718920350e+08 
+6.5000000000000002e-01 -5.7838904667584157e-01 +7.5965138257837284e+00 +6.4830234336295147e+00 -4.5686812305581469e+01 -1.7010139753668434e+04 +2.0690783260219127e+04 +1.2065501086019461e+08 
+6.9999999999999996e-01 -5.7839607759213862e-01 +7.5969685202830934e+00 +6.4770994500569783e+00 -4.5732751472523631e+01 -1.7102638007607133e+04 +2.0832165344254183e+04 +1.2117964583184335e+08 
+7.5000000000000000e-01 -5.7840348160301280e-01 +7.5974432160687160e+00 +6.4706666027530240e+00 -4.5776326030163368e+01 -1.7192601828351442e+04 +2.0960806452412820e+04 +1.2168817705083980e+08 
+8.0000000000000004e-01 -5.7841125747788502e-01 +7.5979378080699718e+00 +6.4637148638674251e+00 -4.5817896809119290e+01 -1.7279776205840673e+04 +2.1082029472929786e+04 +1.2217921988940902e+08 
+8.4999999999999998e-01 -5.7841940398619174e-01 +7.5984521912145988e+00 +6.4562342056500350e+00 -4.5857824551079119e+01 -1.7363906136702866e+04 +2.1201156583127227e+04 +1.2265138978297351e+08 
+9.0000000000000002e-01 -5.7842791989737341e-01 +7.5989862604321390e+00 +6.4482145983808694e+00 -4.5896470038226298e+01 -1.7444736562602637e+04 +2.1323510253748202e+04 +1.2310330178355767e+08 
+9.4999999999999996e-01 -5.7843680398087105e-01 +7.5995399106555501e+00 +6.4396460146640031e+00 -4.5934194172858447e+01 -1.7522012490210727e+04 +2.1454413976099710e+04 +1.2353357139061834e+08 
+1.0000000000000000e+00 -5.7844605500622270e-01 +7.6001130368138012e+00 +6.4305184262514672e+00 -4.5971357672464634e+01 -1.7595478896863879e+04 +2.1599189710892912e+04 +1.2394081387924977e+08 
+1.0500000000000000e+00 -5.7845567174288404e-01 +7.6007055338429126e+00 +6.4208218034513473e+00 -4.6008321514126060e+01 -1.7664880730478388e+04 +2.1763161547100790e+04 +1.2432364435954019e+08 
+1.1000000000000001e+00 -5.7846565296034780e-01 +7.6013172966750053e+00 +6.4105461198368010e+00 -4.6045446483078983e+01 -1.7729963021887277e+04 +2.1951651970741081e+04 +1.2468067847869012e+08 
+1.1499999999999999e+00 -5.7847599742815647e-01 +7.6019482202476736e+00 +6.3996813453868606e+00 -4.6083093575613752e+01 -1.7790470703643521e+04 +2.2169985220815466e+04 +1.2501053121373720e+08 
+1.2000000000000000e+00 -5.7848670391584756e-01 +7.6025981994966205e+00 +6.3882174516954491e+00 -4.6121623679994848e+01 -1.7846148756045779e+04 +2.2423484628197668e+04 +1.2531181787802774e+08 
+1.2500000000000000e+00 -5.7849777119298562e-01 +7.6032671293582368e+00 +6.3761444124182249e+00 -4.6161397690543723e+01 -1.7896742211708432e+04 +2.2717473575019227e+04 +1.2558315412037422e+08 
+1.3000000000000000e+00 -5.7850919802912981e-01 +7.6039549047728157e+00 +6.3634521982284378e+00 -4.6202776640963975e+01 -1.7941996027075664e+04 +2.3057276590003537e+04 +1.2582315508855425e+08 
+1.3500000000000001e+00 -5.7852098319385703e-01 +7.6046614206773748e+00 +6.3501307798080280e+00 -4.6246121397400330e+01 -1.7981655154142747e+04 +2.3448216779943952e+04 +1.2603043588066521e+08 
+1.3999999999999999e+00 -5.7853312545674496e-01 +7.6053865720154779e+00 +6.3361701309861393e+00 -4.6291793072426053e+01 -1.8015464635661552e+04 +2.3895619285252043e+04 +1.2620361222542225e+08 
+1.4500000000000000e+00 -5.7854562358745099e-01 +7.6061302537278888e+00 +6.3215602220120930e+00 -4.6340152651339572e+01 -1.8043169412299958e+04 +2.4404808204741643e+04 +1.2634129913871661e+08 
+1.5000000000000000e+00 -5.7855847635555568e-01 +7.6068923607591454e+00 +6.3062910272196380e+00 -4.6391561235680420e+01 -1.8064514538620868e+04 +2.4981108556023006e+04 +1.2644211241334170e+08 
+1.5500000000000000e+00 -5.7857168253071178e-01 +7.6076727880534394e+00 +6.2903525163709091e+00 -4.6446379904714995e+01 -1.8079244945661114e+04 +2.5629845195532402e+04 +1.2650466700490220e+08 
+1.6000000000000001e+00 -5.7858524088256502e-01 +7.6084714305578194e+00 +6.2737346609695166e+00 -4.6504969819651222e+01 -1.8087105613789259e+04 +2.6356343599227119e+04 +1.2652757820561378e+08 
+1.6499999999999999e+00 -5.7859915018079333e-01 +7.6092881832168846e+00 +6.2564274350448539e+00 -4.6567692021510034e+01 -1.8087841585284023e+04 +2.7165928252296435e+04 +1.2650946169804357e+08 
+1.7000000000000000e+00 -5.7861340919507420e-01 +7.6101229409819275e+00 +6.2384208110071055e+00 -4.6634907805847874e+01 -1.8081197865353639e+04 +2.8063925728919196e+04 +1.2644893293651104e+08 
+1.7500000000000000e+00 -5.7862801669508512e-01 +7.6109755988012342e+00 +6.2197047588105097e+00 -4.6706978320820312e+01 -1.8066919391924359e+04 +2.9055661364887081e+04 +1.2634460690899175e+08 
+1.8000000000000000e+00 -5.7864297145051757e-01 +7.6118460516262383e+00 +6.2002692536834143e+00 -4.6784264822646925e+01 -1.8044751245751875e+04 +3.0146461388391559e+04 +1.2619509956741378e+08 
+1.8500000000000001e+00 -5.7865827223111310e-01 +7.6127341944117681e+00 +6.1801042670824371e+00 -4.6867128677795371e+01 -1.8014438401416068e+04 +3.1341652868670702e+04 +1.2599902612398833e+08 
+1.8999999999999999e+00 -5.7867391780661481e-01 +7.6136399221091331e+00 +6.1591997693999287e+00 -4.6955931100140724e+01 -1.7975725811603788e+04 +3.2646561653605906e+04 +1.2575500166132942e+08 
+1.9500000000000000e+00 -5.7868990694672318e-01 +7.6145631296748189e+00 +6.1375457352838039e+00 -4.7051033482421786e+01 -1.7928358541583952e+04 +3.4066515024057459e+04 +1.2546164201517718e+08 
+2.0000000000000000e+00 -5.7870623842122171e-01 +7.6155037120671860e+00 +6.1151321381748343e+00 -4.7152797274026952e+01 -1.7872081625530169e+04 +3.5606840689883924e+04 +1.2511756280133773e+08 
+2.0499999999999998e+00 -5.7872291083591287e-01 +7.6164615550887280e+00 +6.0919545424774881e+00 -4.7261480491159823e+01 -1.7806753638603819e+04 +3.7271322542155503e+04 +1.2472202261417547e+08 
+2.1000000000000001e+00 -5.7873992213773939e-01 +7.6174365103428840e+00 +6.0680306342762975e+00 -4.7376928267438061e+01 -1.7732690325972497e+04 +3.9057704838097809e+04 +1.2427689369800310e+08 
+2.1499999999999999e+00 -5.7875727010804634e-01 +7.6184284173540098e+00 +6.0433838152089283e+00 -4.7498887041000650e+01 -1.7650322475081153e+04 +4.0962244499904198e+04 +1.2378471231814604e+08 
+2.2000000000000002e+00 -5.7877495252829125e-01 +7.6194371156510998e+00 +6.0180374899512454e+00 -4.7627103461832121e+01 -1.7560080948010254e+04 +4.2981200300827753e+04 +1.2324801521349773e+08 
+2.2500000000000000e+00 -5.7879296717989526e-01 +7.6204624447592328e+00 +5.9920150602502860e+00 -4.7761323970182488e+01 -1.7462396534461506e+04 +4.5110829142348070e+04 +1.2266933866301656e+08 
+2.2999999999999998e+00 -5.7881131184432111e-01 +7.6215042442053598e+00 +5.9653399280735870e+00 -4.7901295088917877e+01 -1.7357700023338341e+04 +4.7347388691550455e+04 +1.2205121891010277e+08 
+2.3500000000000001e+00 -5.7882998430296329e-01 +7.6225623535166021e+00 +5.9380354964385429e+00 -4.8046763327832956e+01 -1.7246422237624236e+04 +4.9687136483640999e+04 +1.2139619245649967e+08 
+2.3999999999999999e+00 -5.7884898233729620e-01 +7.6236366122210812e+00 +5.9101251666765711e+00 -4.8197475219020546e+01 -1.7128993955043908e+04 +5.2126330204229569e+04 +1.2070679549141531e+08 
+2.4500000000000002e+00 -5.7886830372876530e-01 +7.6247268598440083e+00 +5.8816323428778352e+00 -4.8353177167252781e+01 -1.7005846027123025e+04 +5.4661226516370029e+04 +1.1998556470544186e+08 
+2.5000000000000000e+00 -5.7888794625890194e-01 +7.6258329359139116e+00 +5.8525804270849333e+00 -4.8513615700566440e+01 -1.6877409243595383e+04 +5.7288083079232194e+04 +1.1923503634778261e+08 
+2.5499999999999998e+00 -5.7890790770915268e-01 +7.6269546799567269e+00 +5.8229928210384196e+00 -4.8678537229806373e+01 -1.6744114398981554e+04 +6.0003156600502865e+04 +1.1845774674758540e+08 
+2.6000000000000001e+00 -5.7892818586098593e-01 +7.6280919314981883e+00 +5.7928929276735657e+00 -4.8847688142607566e+01 -1.6606392308952756e+04 +6.2802703588214186e+04 +1.1765623233602934e+08 
+2.6499999999999999e+00 -5.7894877849595949e-01 +7.6292445300640672e+00 +5.7623041500749554e+00 -4.9020814811571299e+01 -1.6464673799177996e+04 +6.5682980377977292e+04 +1.1683302963602743e+08 
+2.7000000000000002e+00 -5.7896968339552068e-01 +7.6304123151813572e+00 +5.7312498897282813e+00 -4.9197663659627352e+01 -1.6319389652391337e+04 +6.8640243791576489e+04 +1.1599067488382481e+08 
+2.7500000000000000e+00 -5.7899089834122131e-01 +7.6315951263758999e+00 +5.6997535506377970e+00 -4.9377981041194658e+01 -1.6170970715136666e+04 +7.1670750015821293e+04 +1.1513170472733134e+08 
+2.7999999999999998e+00 -5.7901242111460116e-01 +7.6327928031718635e+00 +5.6678385332697196e+00 -4.9561513241917666e+01 -1.6019847745362187e+04 +7.4770754710983354e+04 +1.1425865524915753e+08 
+2.8500000000000001e+00 -5.7903424949714610e-01 +7.6340051850915600e+00 +5.6355282418427377e+00 -4.9748006452550094e+01 -1.5866451596441471e+04 +7.7936512735436045e+04 +1.1337406315226255e+08 
+2.8999999999999999e+00 -5.7905638127041359e-01 +7.6352321116627513e+00 +5.6028460773790822e+00 -4.9937207086029154e+01 -1.5711213038812606e+04 +8.1164280783597380e+04 +1.1248046459524781e+08 
+2.9500000000000002e+00 -5.7907881421596152e-01 +7.6364734224066577e+00 +5.5698154440980572e+00 -5.0128861274529470e+01 -1.5554562925892797e+04 +8.4450313231061620e+04 +1.1158039628701237e+08 
+3.0000000000000000e+00 -5.7910154611533282e-01 +7.6377289568468685e+00 +5.5364597433845315e+00 -5.0322715239124229e+01 -1.5396932041991775e+04 +8.7790865177577900e+04 +1.1067639449817249e+08 
+3.0499999999999998e+00 -5.7912457475005863e-01 +7.6389985545038863e+00 +5.5028023772343611e+00 -5.0518515062543649e+01 -1.5238751179480198e+04 +9.1182190572567197e+04 +1.0977099552480656e+08 
+3.1000000000000001e+00 -5.7914789790176602e-01 +7.6402820548997612e+00 +5.4688667494919425e+00 -5.0716006892115246e+01 -1.5080451187613991e+04 +9.4620543915210292e+04 +1.0886673607595868e+08 
+3.1499999999999999e+00 -5.7917151335198669e-01 +7.6415792975545438e+00 +5.4346762602078718e+00 -5.0914936786268022e+01 -1.4922462809545937e+04 +9.8102178980533092e+04 +1.0796615213322818e+08 
+3.2000000000000002e+00 -5.7919541888231019e-01 +7.6428901219880414e+00 +5.4002543140232309e+00 -5.1115050780269307e+01 -1.4765216914255738e+04 +1.0162334932403969e+05 +1.0707178053694963e+08 
+3.2500000000000000e+00 -5.7921961227429397e-01 +7.6442143677192478e+00 +5.3656243136381958e+00 -5.1316094868994306e+01 -1.4609144316446198e+04 +1.0518030816560586e+05 +1.0618615775651431e+08 
+3.2999999999999998e+00 -5.7924409130954402e-01 +7.6455518742662418e+00 +5.3308096596427168e+00 -5.1517815016925795e+01 -1.4454675778115061e+04 +1.0876930851352641e+05 +1.0531181992619376e+08 
+3.3500000000000001e+00 -5.7926885376968595e-01 +7.6469024811434982e+00 +5.2958337549225023e+00 -5.1719957023042156e+01 -1.4302242117237092e+04 +1.1238660195662768e+05 +1.0445130353506830e+08 
+3.3999999999999999e+00 -5.7929389743626247e-01 +7.6482660278691919e+00 +5.2607200016931381e+00 -5.1922266838737819e+01 -1.4152274139216830e+04 +1.1602844137794057e+05 +1.0360714501607454e+08 
+3.4500000000000002e+00 -5.7931922009090864e-01 +7.6496423539559366e+00 +5.2254918031304030e+00 -5.2124490184149721e+01 -1.4005202675347062e+04 +1.1969107774301506e+05 +1.0278188097667144e+08 
+3.5000000000000000e+00 -5.7934481951522510e-01 +7.6510312989183351e+00 +5.1901725597759238e+00 -5.2326372852175119e+01 -1.3861458481651189e+04 +1.2337076259935266e+05 +1.0197804750572777e+08 
+3.5499999999999998e+00 -5.7937069349082837e-01 +7.6524327022671903e+00 +5.1547856748090215e+00 -5.2527660490149948e+01 -1.3721472389882152e+04 +1.2706374634710327e+05 +1.0119818122311218e+08 
+3.6000000000000001e+00 -5.7939683979937140e-01 +7.6538464035137599e+00 +5.1193545517962873e+00 -5.2728098750574098e+01 -1.3585675240227660e+04 +1.3076627938097874e+05 +1.0044481880318914e+08 
+3.6499999999999999e+00 -5.7942325622238222e-01 +7.6552722421689063e+00 +5.0839025912857680e+00 -5.2927433261712835e+01 -1.3454497792330340e+04 +1.3447461189398161e+05 +9.9720496382384419e+07 
+3.6999999999999900e+00 -5.7944994054157206e-01 +7.6567100577363538e+00 +5.0484531960082659e+00 -5.3125409375014534e+01 -1.3328370864658660e+04 +1.3818499183226013e+05 +9.9027750500724152e+07 
+3.7499999999999898e+00 -5.7947689053853813e-01 +7.6581596897285342e+00 +5.0130297674022648e+00 -5.3321772782366700e+01 -1.3207725239704760e+04 +1.4189366991582309e+05 +9.8369117453233272e+07 
+3.7999999999999901e+00 -5.7950410399488161e-01 +7.6596209776458952e+00 +4.9776557075303867e+00 -5.3516268696814521e+01 -1.3092991720831104e+04 +1.4559689296532414e+05 +9.7747133695519611e+07 
+3.8499999999999899e+00 -5.7953157869229643e-01 +7.6610937609935341e+00 +4.9423544188473993e+00 -5.3708642504299235e+01 -1.2984601117715605e+04 +1.4929090914672267e+05 +9.7164335715881675e+07 
+3.8999999999999901e+00 -5.7955931241237180e-01 +7.6625778792747861e+00 +4.9071493046092902e+00 -5.3898639539019932e+01 -1.2882984263119652e+04 +1.5297196629750435e+05 +9.6623260169417903e+07 
+3.9499999999999900e+00 -5.7958730293679295e-01 +7.6640731719879165e+00 +4.8720637654416095e+00 -5.4086004917168438e+01 -1.2788571920588636e+04 +1.5663631039587976e+05 +9.6126443250846177e+07 
+3.9999999999999898e+00 -5.7961554804714388e-01 +7.6655794786321145e+00 +4.8371212028286257e+00 -5.4270483789173170e+01 -1.2701794878242563e+04 +1.6028018774583520e+05 +9.5676421340749979e+07 
+4.0499999999999901e+00 -5.7964404540011549e-01 +7.6670966330771249e+00 +4.8023406232233627e+00 -5.4451830962244252e+01 -1.2622981666802147e+04 +1.6390015653931233e+05 +9.5275122973939061e+07 
+4.0999999999999899e+00 -5.7967279215189860e-01 +7.6686244430398789e+00 +4.7677236603486204e+00 -5.4629867272882464e+01 -1.2552047800941453e+04 +1.6749404542944950e+05 +9.4922005679206043e+07 
+4.1499999999999897e+00 -5.7970178533327854e-01 +7.6701627087972870e+00 +4.7332676633393316e+00 -5.4804438570618636e+01 -1.2488804284175769e+04 +1.7106001355776613e+05 +9.4615898003132701e+07 
+4.1999999999999904e+00 -5.7973102197522230e-01 +7.6717112306271869e+00 +4.6989699838281158e+00 -5.4975390773745993e+01 -1.2433062186861855e+04 +1.7459622059728618e+05 +9.4355628951029703e+07 
+4.2499999999999902e+00 -5.7976049910855376e-01 +7.6732698088040463e+00 +4.6648279677100701e+00 -5.5142569669188497e+01 -1.2384632421461563e+04 +1.7810082516872170e+05 +9.4140026452106625e+07 
+4.2999999999999901e+00 -5.7979021376414286e-01 +7.6748382436075362e+00 +4.6308389649439237e+00 -5.5305821270122102e+01 -1.2343326017338526e+04 +1.8157198775030629e+05 +9.3967919253725305e+07 
+4.3499999999999899e+00 -5.7982016297286854e-01 +7.6764163353120320e+00 +4.5970003264485619e+00 -5.5464991364650544e+01 -1.2308954021357216e+04 +1.8500786690106950e+05 +9.3838136191654429e+07 
+4.3999999999999897e+00 -5.7985034376555655e-01 +7.6780038841971434e+00 +4.5633093992315299e+00 -5.5619925988088056e+01 -1.2281327379383903e+04 +1.8840662331587920e+05 +9.3749505439096615e+07 
+4.4499999999999904e+00 -5.7988075317313026e-01 +7.6796006905355441e+00 +4.5297635326306747e+00 -5.5770470905109569e+01 -1.2260257094721641e+04 +1.9176641544433948e+05 +9.3700855537765115e+07 
+4.4999999999999902e+00 -5.7991138822642230e-01 +7.6812065546065087e+00 +4.4963600761305162e+00 -5.5916472144112149e+01 -1.2245554185932111e+04 +1.9508540386012534e+05 +9.3691015177940324e+07 
+4.5499999999999901e+00 -5.7994224595625077e-01 +7.6828212766852371e+00 +4.4630963756464554e+00 -5.6057775583976110e+01 -1.2237029562382537e+04 +1.9836174792173173e+05 +9.3718812264916405e+07 
+4.5999999999999899e+00 -5.7997332339351204e-01 +7.6844446570471279e+00 +4.4299697824776407e+00 -5.6194227145814395e+01 -1.2234494286947120e+04 +2.0159360741348052e+05 +9.3783075773560509e+07 
+4.6499999999999897e+00 -5.8000461756905475e-01 +7.6860764959707195e+00 +4.3969776445461193e+00 -5.6325672865114434e+01 -1.2237759328531729e+04 +2.0477914295905308e+05 +9.3882634035472319e+07 
+4.6999999999999904e+00 -5.8003612551375328e-01 +7.6877165937309702e+00 +4.3641173096218617e+00 -5.6451958669094957e+01 -1.2246635651328161e+04 +2.0791651437416722e+05 +9.4016315353149220e+07 
+4.7499999999999902e+00 -5.8006784425840086e-01 +7.6893647506027740e+00 +4.3313861268057643e+00 -5.6572930478031161e+01 -1.2260934254641414e+04 +2.1100388136410734e+05 +9.4182948259960577e+07 
+4.7999999999999901e+00 -5.8009977083386111e-01 +7.6910207668619641e+00 +4.2987814434437439e+00 -5.6688434286766380e+01 -1.2280466092424875e+04 +2.1403940432039276e+05 +9.4381360995517418e+07 
+4.8499999999999899e+00 -5.8013190227094780e-01 +7.6926844427859260e+00 +4.2663006084187662e+00 -5.6798316153909006e+01 -1.2305042159545896e+04 +2.1702124410277815e+05 +9.4610382077726141e+07 
+4.8999999999999897e+00 -5.8016423560057451e-01 +7.6943555786506961e+00 +4.2339409694112078e+00 -5.6902422109735788e+01 -1.2334473417547933e+04 +2.1994756135941730e+05 +9.4868839794302687e+07 
+4.9499999999999904e+00 -5.8019676785345664e-01 +7.6960339747290627e+00 +4.2016998741209122e+00 -5.7000598060279891e+01 -1.2368570827573767e+04 +2.2281651572125166e+05 +9.5155562431751162e+07 
+4.9999999999999902e+00 -5.8022949606050345e-01 +7.6977194312976751e+00 +4.1695746709001096e+00 -5.7092690105400862e+01 -1.2407145369507223e+04 +2.2562626845443327e+05 +9.5469378409151152e+07 
+5.0499999999999901e+00 -5.8026241725493555e-01 +7.6994117402335700e+00 +4.1375631384803642e+00 -5.7178553186313650e+01 -1.2450007993691375e+04 +2.2837498412851986e+05 +9.5809116491094351e+07 
