# multipoles
# s[mm] polynom_b[n=0][T/m^n] polynom_b[n=1][T/m^n] polynom_b[n=2][T/m^n] polynom_b[n=3][T/m^n] polynom_b[n=4][T/m^n] polynom_b[n=5][T/m^n] polynom_b[n=6][T/m^n] 
+0.0000000000000000e+00 -5.5464292293524320e-01 +7.2711492483794782e+00 +5.8416475556513259e+00 -1.1916950120945435e+02 -3.8663082092280747e+03 +4.4614879604548146e+05 +2.0111800482870527e+07 
-5.0000000000000003e-02 -5.5464348182871159e-01 +7.2711737052725187e+00 +5.8436248679699947e+00 -1.1951615523385999e+02 -3.9019232507394740e+03 +4.4799430111641070e+05 +2.0308317002900850e+07 
-1.0000000000000001e-01 -5.5464442309177420e-01 +7.2712186463285571e+00 +5.8453265314273768e+00 -1.1985661456530698e+02 -3.9432742608167664e+03 +4.4981920568001817e+05 +2.0544111095247421e+07 
-1.5000000000000002e-01 -5.5464574594435334e-01 +7.2712839948868488e+00 +5.8467444209573509e+00 -1.2019050951371048e+02 -3.9900174722425072e+03 +4.5162190433183708e+05 +2.0816765874801517e+07 
-2.0000000000000001e-01 -5.5464744960636181e-01 +7.2713696742887244e+00 +5.8478704058853328e+00 -1.2051747042754786e+02 -4.0418089562248988e+03 +4.5340079190869717e+05 +2.1123863323788092e+07 
-2.5000000000000000e-01 -5.5464953329773314e-01 +7.2714756078765621e+00 +5.8486963571106907e+00 -1.2083712767442309e+02 -4.0983048378507792e+03 +4.5515426343139354e+05 +2.1462985831768032e+07 
-2.9999999999999999e-01 -5.5465199623843520e-01 +7.2716017189872453e+00 +5.8492141476996560e+00 -1.2114911136245293e+02 -4.1591612934543746e+03 +4.5688071174941951e+05 +2.1831716107766870e+07 
-3.4999999999999998e-01 -5.5465483764843160e-01 +7.2717479309674120e+00 +5.8494156471768104e+00 -1.2145305197744227e+02 -4.2240344075680214e+03 +4.5857853284373280e+05 +2.2227636254399776e+07 
-3.9999999999999997e-01 -5.5465805674771473e-01 +7.2719141671587293e+00 +5.8492927273022595e+00 -1.2174857976390548e+02 -4.2925803244947801e+03 +4.6024612066699774e+05 +2.2648328772664998e+07 
-4.4999999999999996e-01 -5.5466165275628543e-01 +7.2721003509035489e+00 +5.8488372579797305e+00 -1.2203532496935404e+02 -4.3644551390501565e+03 +4.6188186921033706e+05 +2.3091375834995843e+07 
-4.9999999999999994e-01 -5.5466562489417948e-01 +7.2723064055452662e+00 +5.8480411125594225e+00 -1.2231291786046833e+02 -4.4393150401744106e+03 +4.6348417263145681e+05 +2.3554360250033915e+07 
-5.4999999999999993e-01 -5.5466997238142601e-01 +7.2725322544304278e+00 +5.8468961599463531e+00 -1.2258098879895236e+02 -4.5168160948898330e+03 +4.6505142583532969e+05 +2.4034863995324284e+07 
-5.9999999999999998e-01 -5.5467469443809470e-01 +7.2727778209034168e+00 +5.8453942734420741e+00 -1.2283916803733908e+02 -4.5966144917424399e+03 +4.6658202286641445e+05 +2.4530469879817359e+07 
-6.5000000000000002e-01 -5.5467979028424907e-01 +7.2730430283074181e+00 +5.8435273225024460e+00 -1.2308708575242741e+02 -4.6783663179980122e+03 +4.6807435713882098e+05 +2.5038760036220543e+07 
-7.0000000000000007e-01 -5.5468525913998068e-01 +7.2733277999932433e+00 +5.8412871778461106e+00 -1.2332437240284459e+02 -4.7617276876812275e+03 +4.6952682437098853e+05 +2.5557316749342091e+07 
-7.5000000000000011e-01 -5.5469110022540447e-01 +7.2736320593041839e+00 +5.8386657120852634e+00 -1.2355065812791794e+02 -4.8463547744039661e+03 +4.7093781771131040e+05 +2.6083722738729276e+07 
-8.0000000000000016e-01 -5.5469731276063372e-01 +7.2739557295896242e+00 +5.8356547945214086e+00 -1.2376557327917976e+02 -4.9319036604472785e+03 +4.7230573201106337e+05 +2.6615560095862783e+07 
-8.5000000000000020e-01 -5.5470389596579883e-01 +7.2742987341981502e+00 +5.8322462944304103e+00 -1.2396874816057533e+02 -5.0180304277041269e+03 +4.7362896177893493e+05 +2.7150410912082158e+07 
-9.0000000000000024e-01 -5.5471084906107604e-01 +7.2746609964777553e+00 +5.8284320863882879e+00 -1.2415981302756670e+02 -5.1043913012963903e+03 +4.7490590112598828e+05 +2.7685858242898956e+07 
-9.5000000000000029e-01 -5.5471817126661949e-01 +7.2750424397786748e+00 +5.8242040382252158e+00 -1.2433839820425297e+02 -5.1906423250815933e+03 +4.7613494474610791e+05 +2.8219483922345266e+07 
-1.0000000000000002e+00 -5.5472586180262973e-01 +7.2754429874498427e+00 +5.8195540229942866e+00 -1.2450413395198174e+02 -5.2764396849733967e+03 +4.7731448687197140e+05 +2.8748870748143617e+07 
-1.0500000000000003e+00 -5.5473391988929555e-01 +7.2758625628444751e+00 +5.8144739091096538e+00 -1.2465665066254959e+02 -5.3614394435680124e+03 +4.7844292274346889e+05 +2.9271600688360505e+07 
-1.1000000000000003e+00 -5.5474234474683692e-01 +7.2763010893135300e+00 +5.8089555672036690e+00 -1.2479557865063209e+02 -5.4452977182309842e+03 +4.7951864711708395e+05 +2.9785256059511062e+07 
-1.1500000000000004e+00 -5.5475113559549016e-01 +7.2767584902080227e+00 +5.8029908686747502e+00 -1.2492054818162715e+02 -5.5276706563205689e+03 +4.8054005425442016e+05 +3.0287419417198036e+07 
-1.2000000000000004e+00 -5.5476029165550522e-01 +7.2772346888828157e+00 +5.7965716841142090e+00 -1.2503118968829313e+02 -5.6082143785608541e+03 +4.8150553992096672e+05 +3.0775673114421029e+07 
-1.2500000000000004e+00 -5.5476981214714671e-01 +7.2777296086902146e+00 +5.7896898838880411e+00 -1.2512713345308026e+02 -5.6865850003367541e+03 +4.8241349856811238e+05 +3.1247599469668653e+07 
-1.3000000000000005e+00 -5.5477969629068258e-01 +7.2782431729849426e+00 +5.7823373366880277e+00 -1.2520800986718601e+02 -5.7624385960040190e+03 +4.8326232568242436e+05 +3.1700780537591830e+07 
-1.3500000000000005e+00 -5.5478994330641407e-01 +7.2787753051228989e+00 +5.7745059137381727e+00 -1.2527344934504751e+02 -5.8354313054219801e+03 +4.8405041693770554e+05 +3.2132798804932803e+07 
-1.4000000000000006e+00 -5.5480055241465154e-01 +7.2793259284599792e+00 +5.7661874856193283e+00 -1.2532308227684096e+02 -5.9052192536614584e+03 +4.8477616781680816e+05 +3.2541236662389174e+07 
-1.4500000000000006e+00 -5.5481152283571356e-01 +7.2798949663514749e+00 +5.7573739213590542e+00 -1.2535653903128419e+02 -5.9714585228325786e+03 +4.8543797373039130e+05 +3.2923676207188383e+07 
-1.5000000000000007e+00 -5.5482285378994112e-01 +7.2804823421559766e+00 +5.7480570917657259e+00 -1.2537345008216043e+02 -6.0338052492036231e+03 +4.8603423094304354e+05 +3.3277699922427617e+07 
-1.5500000000000007e+00 -5.5483454449768288e-01 +7.2810879792335976e+00 +5.7382288655863816e+00 -1.2537344595667706e+02 -6.0919155055543597e+03 +4.8656333620426705e+05 +3.3600889829368338e+07 
-1.6000000000000008e+00 -5.5484659417930748e-01 +7.2817118009377566e+00 +5.7278811133342327e+00 -1.2535615690105855e+02 -6.1454454226176176e+03 +4.8702368403495842e+05 +3.3890828377741396e+07 
-1.6500000000000008e+00 -5.5485900205520233e-01 +7.2823537306328348e+00 +5.7170057054219878e+00 -1.2532121359576419e+02 -6.1940511215265551e+03 +4.8741367255869112e+05 +3.4145097925258912e+07 
-1.7000000000000008e+00 -5.5487176734575228e-01 +7.2830136916784092e+00 +5.7055945097032010e+00 -1.2526824652106225e+02 -6.2373886602051489e+03 +4.8773169833921909e+05 +3.4361280420029163e+07 
-1.7500000000000009e+00 -5.5488488927137325e-01 +7.2836916074350189e+00 +5.6936393968932908e+00 -1.2519688616937349e+02 -6.2751141746896637e+03 +4.8797615802708693e+05 +3.4536958340899482e+07 
-1.8000000000000009e+00 -5.5489836705247630e-01 +7.2843874012653682e+00 +5.6811322339309296e+00 -1.2510676312279028e+02 -6.3068836942114731e+03 +4.8814544910251797e+05 +3.4669713420087039e+07 
-1.8500000000000010e+00 -5.5491219990951224e-01 +7.2851009965308995e+00 +5.6680648926844475e+00 -1.2499750790964912e+02 -6.3323533904257838e+03 +4.8823796869824891e+05 +3.4757128389611647e+07 
-1.9000000000000010e+00 -5.5492638706292863e-01 +7.2858323165970704e+00 +5.6544292415469304e+00 -1.2486875120669616e+02 -6.3511793345112192e+03 +4.8825211519408185e+05 +3.4796785269609354e+07 
-1.9500000000000011e+00 -5.5494092773319026e-01 +7.2865812848259752e+00 +5.6402171495867277e+00 -1.2472012353908968e+02 -6.3630176220328040e+03 +4.8818628575879376e+05 +3.4786266269741781e+07 
-2.0000000000000009e+00 -5.5495582114077513e-01 +7.2873478245864449e+00 +5.6254204857854386e+00 -1.2455125571448346e+02 -6.3675243462675435e+03 +4.8803888001489313e+05 +3.4723153579688847e+07 
-2.0500000000000007e+00 -5.5497106627251724e-01 +7.2881318535624313e+00 +5.6100346983790379e+00 -1.2436192493406992e+02 -6.3644750409456146e+03 +4.8780873123431602e+05 +3.4605879388605714e+07 
-2.1000000000000005e+00 -5.5498666118115980e-01 +7.2889332584646889e+00 +5.5940698361378276e+00 -1.2415241165334361e+02 -6.3541223940611426e+03 +4.8749578586654807e+05 +3.4436287454691753e+07 
-2.1500000000000004e+00 -5.5500260368602716e-01 +7.2897519161824906e+00 +5.5775396760441982e+00 -1.2392310112647341e+02 -6.3368381954360984e+03 +4.8710010277563852e+05 +3.4217077217796110e+07 
-2.2000000000000002e+00 -5.5501889160647233e-01 +7.2905877036110320e+00 +5.5604579984111568e+00 -1.2367437881992414e+02 -6.3129943287075675e+03 +4.8662174249127589e+05 +3.3950948767623976e+07 
-2.2500000000000000e+00 -5.5503552276185519e-01 +7.2914404976442686e+00 +5.5428385822960928e+00 -1.2340663014050871e+02 -6.2829626404657665e+03 +4.8606076507818239e+05 +3.3640601934343562e+07 
-2.2999999999999998e+00 -5.5505249497153875e-01 +7.2923101751739638e+00 +5.5246952051694569e+00 -1.2312024037099052e+02 -6.2471149358307493e+03 +4.8541722950356506e+05 +3.3288736275682196e+07 
-2.3499999999999996e+00 -5.5506980605490663e-01 +7.2931966130954713e+00 +5.5060416465208517e+00 -1.2281559492146089e+02 -6.2058230754260931e+03 +4.8469119575471414e+05 +3.2898051726799726e+07 
-2.3999999999999995e+00 -5.5508745383136315e-01 +7.2940996883032332e+00 +5.4868916868824051e+00 -1.2249307915049182e+02 -6.1594589446955424e+03 +4.8388272339855944e+05 +3.2471248381875046e+07 
-2.4499999999999993e+00 -5.5510543612029617e-01 +7.2950192776917060e+00 +5.4672591020790398e+00 -1.2215307839451563e+02 -6.1083943056662865e+03 +4.8299187178622960e+05 +3.2011025518523440e+07 
-2.4999999999999991e+00 -5.5512375074113596e-01 +7.2959552581530982e+00 +5.4471576739054557e+00 -1.2179597785793904e+02 -6.0530010816920376e+03 +4.8201869906216394e+05 +3.1520083503604334e+07 
-2.5499999999999989e+00 -5.5514239551329791e-01 +7.2969075065866509e+00 +5.4266011791008371e+00 -1.2142216303489495e+02 -5.9936510578062052e+03 +4.8096326581659034e+05 +3.1001121767260127e+07 
-2.5999999999999988e+00 -5.5516136825622597e-01 +7.2978758998856499e+00 +5.4056033974105047e+00 -1.2103201914097282e+02 -5.9307160981363686e+03 +4.7982563025549595e+05 +3.0456840269080538e+07 
-2.6499999999999986e+00 -5.5518066678937017e-01 +7.2988603149459319e+00 +5.3841781082054494e+00 -1.2062593146367313e+02 -5.8645680598945009e+03 +4.7860585109275213e+05 +2.9889938934401058e+07 
-2.6999999999999984e+00 -5.5520028893218021e-01 +7.2998606286636774e+00 +5.3623390886805495e+00 -1.2020428529654613e+02 -5.7955787394495828e+03 +4.7730398709596228e+05 +2.9303117275133714e+07 
-2.7499999999999982e+00 -5.5522023250413188e-01 +7.3008767179345933e+00 +5.3401001191416100e+00 -1.1976746589082398e+02 -5.7241200195474485e+03 +4.7592009664166020e+05 +2.8699075396866966e+07 
-2.7999999999999980e+00 -5.5524049532469422e-01 +7.3019084596531671e+00 +5.3174749767903817e+00 -1.1931585841015760e+02 -5.6505636974182044e+03 +4.7445423726426071e+05 +2.8080512824643295e+07 
-2.8499999999999979e+00 -5.5526107521337154e-01 +7.3029557307174944e+00 +5.2944774429705834e+00 -1.1884984814354630e+02 -5.5752816800367737e+03 +4.7290646748433192e+05 +2.7450129822058715e+07 
-2.8999999999999977e+00 -5.5528196998965640e-01 +7.3040184080241337e+00 +5.2711212955010120e+00 -1.1836982031429851e+02 -5.4986457790208033e+03 +4.7127684529876721e+05 +2.6810626009970378e+07 
-2.9499999999999975e+00 -5.5530317747304203e-01 +7.3050963684666170e+00 +5.2474203111918705e+00 -1.1787615996037472e+02 -5.4210277853813204e+03 +4.6956542697232222e+05 +2.6164700898314442e+07 
-2.9999999999999973e+00 -5.5532469548305796e-01 +7.3061894889451802e+00 +5.2233882706185693e+00 -1.1736925240840462e+02 -5.3427995814252581e+03 +4.6777227122588729e+05 +2.5515054580152061e+07 
-3.0499999999999972e+00 -5.5534652183922473e-01 +7.3072976463542645e+00 +5.1990389519230558e+00 -1.1684948268858047e+02 -5.2643329906089693e+03 +4.6589743412894389e+05 +2.4864386779408328e+07 
-3.0999999999999970e+00 -5.5536865436109595e-01 +7.3084207175888398e+00 +5.1743861371583089e+00 -1.1631723585222176e+02 -5.1859999372505163e+03 +4.6394097195975599e+05 +2.4215397888292030e+07 
-3.1499999999999968e+00 -5.5539109086819105e-01 +7.3095585795484448e+00 +5.1494436008908133e+00 -1.1577289710145385e+02 -5.1081721459758983e+03 +4.6190294210539159e+05 +2.3570786964982904e+07 
-3.1999999999999966e+00 -5.5541382918006954e-01 +7.3107111091285306e+00 +5.1242251232614953e+00 -1.1521685143765917e+02 -5.0312214904094790e+03 +4.5978340019651962e+05 +2.2933254071923729e+07 
-3.2499999999999964e+00 -5.5543686711630036e-01 +7.3118781832240760e+00 +5.0987444844741869e+00 -1.1464948383198676e+02 -4.9555198435354287e+03 +4.5758240158683673e+05 +2.2305499263092738e+07 
-3.2999999999999963e+00 -5.5546020249645600e-01 +7.3130596787324889e+00 +5.0730154639872174e+00 -1.1407117931951130e+02 -4.8814390592863410e+03 +4.5530000203204900e+05 +2.1690222473042630e+07 
-3.3499999999999961e+00 -5.5548383314009286e-01 +7.3142554725522597e+00 +5.0470518373370865e+00 -1.1348232295870314e+02 -4.8093508893535854e+03 +4.5293625741136947e+05 +2.1090122965681911e+07 
-3.3999999999999959e+00 -5.5550775686681975e-01 +7.3154654415754559e+00 +5.0208673871662199e+00 -1.1288329950938586e+02 -4.7396272662839674e+03 +4.5049122101303574e+05 +2.0507901188530885e+07 
-3.4499999999999957e+00 -5.5553197149621569e-01 +7.3166894627011878e+00 +4.9944758906382161e+00 -1.1227449400017809e+02 -4.6726399881414181e+03 +4.4796494828200660e+05 +1.9946256738999669e+07 
-3.4999999999999956e+00 -5.5555647484789383e-01 +7.3179274128257177e+00 +4.9678911283352996e+00 -1.1165629131153766e+02 -4.6087609297382814e+03 +4.4535749331352854e+05 +1.9407889677883774e+07 
-3.5499999999999954e+00 -5.5558126474145142e-01 +7.3191791688434247e+00 +4.9411268775579735e+00 -1.1102907622511336e+02 -4.5483618864009459e+03 +4.4266890931738564e+05 +1.8895499570997622e+07 
-3.5999999999999952e+00 -5.5560633899651291e-01 +7.3204446076506589e+00 +4.9141969190993651e+00 -1.1039323356634014e+02 -4.4918147448796390e+03 +4.3989924971438223e+05 +1.8411786596627571e+07 
-3.6499999999999950e+00 -5.5563169543269375e-01 +7.3217236061418509e+00 +4.8871150308304045e+00 -1.0974914806284114e+02 -4.4394913119869780e+03 +4.3704856705350854e+05 +1.7959450394274395e+07 
-3.6999999999999948e+00 -5.5565733186964184e-01 +7.3230160412149754e+00 +4.8598949949460257e+00 -1.0909720455066470e+02 -4.3917635071203667e+03 +4.3411691462714935e+05 +1.7541191355106283e+07 
-3.7499999999999947e+00 -5.5568324612697273e-01 +7.3243217897622763e+00 +4.8325505871529701e+00 -1.0843778760953964e+02 -4.3490030805112565e+03 +4.3110434352532524e+05 +1.7159708759763494e+07 
-3.7999999999999945e+00 -5.5570943602434153e-01 +7.3256407286800576e+00 +4.8050955887349573e+00 -1.0777128195182057e+02 -4.3115819261257120e+03 +4.2801090579638816e+05 +1.6817702836295638e+07 
-3.8499999999999943e+00 -5.5573589938139512e-01 +7.3269727348631273e+00 +4.7775437785740085e+00 -1.0709807220626087e+02 -4.2798718745105089e+03 +4.2483665270531527e+05 +1.6517873399275590e+07 
-3.8999999999999941e+00 -5.5576263401779613e-01 +7.3283176852050245e+00 +4.7499089372279837e+00 -1.0641854291210662e+02 -4.2542448002113979e+03 +4.2158163461867685e+05 +1.6262920561977290e+07 
-3.9499999999999940e+00 -5.5578963775319778e-01 +7.3296754566000040e+00 +4.7222048427927561e+00 -1.0573307861689884e+02 -4.2350725125043509e+03 +4.1824590188144048e+05 +1.6055544010338092e+07 
-3.9999999999999938e+00 -5.5581690840727227e-01 +7.3310459259428491e+00 +4.6944452753448678e+00 -1.0504206384631971e+02 -4.2227268686762300e+03 +4.1482950450687844e+05 +1.5898443741599618e+07 
-4.0499999999999936e+00 -5.5584444371651354e-01 +7.3324289583968492e+00 +4.6666417162512559e+00 -1.0434590068522040e+02 -4.2174816049788960e+03 +4.1133344544217311e+05 +1.5793614281946788e+07 
-4.0999999999999934e+00 -5.5587224108433642e-01 +7.3338243712850071e+00 +4.6387970122297340e+00 -1.0364524570249233e+02 -4.2192138467293817e+03 +4.0776369188217784e+05 +1.5740156262462655e+07 
-4.1499999999999932e+00 -5.5590029783082162e-01 +7.3352319697562915e+00 +4.6109119964637433e+00 -1.0294086872521967e+02 -4.2276999538510809e+03 +4.0412776373391837e+05 +1.5736425139310934e+07 
-4.1999999999999931e+00 -5.5592861127600945e-01 +7.3366515589640446e+00 +4.5829874952341703e+00 -1.0223353978265951e+02 -4.2427160996706680e+03 +4.0043318249649950e+05 +1.5780775111233257e+07 
-4.2499999999999929e+00 -5.5595717873997041e-01 +7.3380829440582316e+00 +4.5550243397384405e+00 -1.0152402879874131e+02 -4.2640385871031340e+03 +3.9668746892270044e+05 +1.5871561235832335e+07 
-4.2999999999999927e+00 -5.5598599754277467e-01 +7.3395259301892981e+00 +4.5270233609505208e+00 -1.0081310571768437e+02 -4.2914437139296833e+03 +3.9289814389420312e+05 +1.6007138536593156e+07 
-4.3499999999999925e+00 -5.5601506500448139e-01 +7.3409803225107533e+00 +4.4989853884432609e+00 -1.0010154063304178e+02 -4.3247077425859297e+03 +3.8907272958404152e+05 +1.6185861801383967e+07 
-4.3999999999999924e+00 -5.5604437844515675e-01 +7.3424459261682866e+00 +4.4709112522791763e+00 -9.9390103342291781e+01 -4.3636069425643091e+03 +3.8521874578822835e+05 +1.6406085838539528e+07 
-4.4499999999999922e+00 -5.5607393518486947e-01 +7.3439225463165965e+00 +4.4428017834071989e+00 -9.8679564019657832e+01 -4.4079176086052603e+03 +3.8134371539824328e+05 +1.6666165625404567e+07 
-4.4999999999999920e+00 -5.5610373254369361e-01 +7.3454099881037873e+00 +4.4146578139405888e+00 -9.7970692608821238e+01 -4.4574160696191911e+03 +3.7745515951761894e+05 +1.6964456377883967e+07 
-4.5499999999999918e+00 -5.5613376784168633e-01 +7.3469080566793670e+00 +4.3864801728472882e+00 -9.7264259119111898e+01 -4.5118785639136440e+03 +3.7356059979094536e+05 +1.7299312670023739e+07 
-4.5999999999999917e+00 -5.5616403839891326e-01 +7.3484165571952706e+00 +4.3582696909446472e+00 -9.6561033691991184e+01 -4.5710813811904118e+03 +3.6966755902562389e+05 +1.7669089425796028e+07 
-4.6499999999999915e+00 -5.5619454153545655e-01 +7.3499352947974961e+00 +4.3300272023423032e+00 -9.5861786245616926e+01 -4.6348009002959971e+03 +3.6578355822985619e+05 +1.8072142164187085e+07 
-4.6999999999999913e+00 -5.5622527457137627e-01 +7.3514640746376498e+00 +4.3017535372971087e+00 -9.5167286957583670e+01 -4.7028133922869411e+03 +3.6191612060383847e+05 +1.8506825657344487e+07 
-4.7499999999999911e+00 -5.5625623482672537e-01 +7.3530027018647308e+00 +4.2734495257111389e+00 -9.4478305922541466e+01 -4.7748951237510282e+03 +3.5807276871708373e+05 +1.8971494659052331e+07 
-4.7999999999999909e+00 -5.5628741962158601e-01 +7.3545509816275469e+00 +4.2451160022523284e+00 -9.3795613261204778e+01 -4.8508224806738954e+03 +3.5426102543598996e+05 +1.9464504689912714e+07 
-4.8499999999999908e+00 -5.5631882627601903e-01 +7.3561087190741814e+00 +4.2167537989510828e+00 -9.3119979088174546e+01 -4.9303717846010040e+03 +3.5048841359887359e+05 +1.9984210854402076e+07 
-4.8999999999999906e+00 -5.5635045211006862e-01 +7.3576757193517475e+00 +4.1883637452256259e+00 -9.2452173508779126e+01 -5.0133192817058980e+03 +3.4676245604456816e+05 +2.0528967720288653e+07 
-4.9499999999999904e+00 -5.5638229444381571e-01 +7.3592517876110275e+00 +4.1599466776057126e+00 -9.1792966821017203e+01 -5.0994414109204999e+03 +3.4309067729886412e+05 +2.1097131154989343e+07 
-4.9999999999999902e+00 -5.5641435059730560e-01 +7.3608367289977368e+00 +4.1315034268170177e+00 -9.1143129129997831e+01 -5.1885144534855826e+03 +3.3948060029082111e+05 +2.1687055951679934e+07 
-5.0499999999999901e+00 -5.5644661789059213e-01 +7.3624303486580178e+00 +4.1030348258660556e+00 -9.0503430619178999e+01 -5.2803147503523924e+03 +3.3593974877558101e+05 +2.2297097289238941e+07 
