# field on trajectory
# s[mm] rx[mm] ry[mm] rz[mm] bx[T] by[T] bz[T]
0.0000000000000000e+00 +8.5269999999999992e+00 +0.0000000000000000e+00 +0.0000000000000000e+00 -3.1179913987916825e-02 -5.7798556711779070e-01 +5.3772335680430678e-03
5.0000000000000003e-02 +8.5269999309730391e+00 +0.0000000000000000e+00 +4.9999999999936463e-02 -3.1180589314555043e-02 -5.7798449345351000e-01 +5.3772493958429840e-03
1.0000000000000001e-01 +8.5269997238923132e+00 +0.0000000000000000e+00 +9.9999999999491759e-02 -3.1181283990746263e-02 -5.7798381925993980e-01 +5.3772717133541183e-03
1.5000000000000002e-01 +8.5269993787579832e+00 +0.0000000000000000e+00 +1.4999999999828470e-01 -3.1181997981581073e-02 -5.7798354356665316e-01 +5.3773005774785674e-03
2.0000000000000001e-01 +8.5269988955701148e+00 +0.0000000000000000e+00 +1.9999999999593412e-01 -3.1182731252151739e-02 -5.7798366540324064e-01 +5.3773360451186709e-03
2.5000000000000000e-01 +8.5269982743286779e+00 +0.0000000000000000e+00 +2.4999999999205885e-01 -3.1183483767552152e-02 -5.7798418379931138e-01 +5.3773781731770425e-03
2.9999999999999999e-01 +8.5269975150335497e+00 +0.0000000000000000e+00 +2.9999999998627769e-01 -3.1184255492877677e-02 -5.7798509778449225e-01 +5.3774270185565493e-03
3.4999999999999998e-01 +8.5269966176845120e+00 +0.0000000000000000e+00 +3.4999999997820946e-01 -3.1185046393225144e-02 -5.7798640638842835e-01 +5.3774826381603304e-03
3.9999999999999997e-01 +8.5269955822812520e+00 +0.0000000000000000e+00 +3.9999999996747299e-01 -3.1185856433692701e-02 -5.7798810864078154e-01 +5.3775450888917907e-03
4.4999999999999996e-01 +8.5269944088233629e+00 +0.0000000000000000e+00 +4.4999999995368706e-01 -3.1186685579379730e-02 -5.7799020357123276e-01 +5.3776144276546107e-03
4.9999999999999994e-01 +8.5269930973103456e+00 +0.0000000000000000e+00 +4.9999999993647049e-01 -3.1187533795386788e-02 -5.7799269020947974e-01 +5.3776907113527520e-03
5.4999999999999993e-01 +8.5269916477416050e+00 +0.0000000000000000e+00 +5.4999999991544213e-01 -3.1188401046815528e-02 -5.7799556758523807e-01 +5.3777739968904571e-03
5.9999999999999998e-01 +8.5269900601164537e+00 +0.0000000000000000e+00 +5.9999999989022068e-01 -3.1189287298768555e-02 -5.7799883472824087e-01 +5.3778643411722584e-03
6.5000000000000002e-01 +8.5269883344341117e+00 +0.0000000000000000e+00 +6.4999999986042500e-01 -3.1190192516349403e-02 -5.7800249066823794e-01 +5.3779618011029675e-03
7.0000000000000007e-01 +8.5269864706937053e+00 +0.0000000000000000e+00 +6.9999999982567385e-01 -3.1191116664662431e-02 -5.7800653443499772e-01 +5.3780664335877039e-03
7.5000000000000011e-01 +8.5269844688942698e+00 +0.0000000000000000e+00 +7.4999999978558596e-01 -3.1192059708812683e-02 -5.7801096505830407e-01 +5.3781782955318750e-03
8.0000000000000016e-01 +8.5269823290347464e+00 +0.0000000000000000e+00 +7.9999999973978009e-01 -3.1193021613905858e-02 -5.7801578156795963e-01 +5.3782974438411936e-03
8.5000000000000020e-01 +8.5269800511139842e+00 +0.0000000000000000e+00 +8.4999999968787499e-01 -3.1194002345048225e-02 -5.7802098299378302e-01 +5.3784239354216735e-03
9.0000000000000024e-01 +8.5269776351307414e+00 +0.0000000000000000e+00 +8.9999999962948940e-01 -3.1195001867346497e-02 -5.7802656836560995e-01 +5.3785578271796485e-03
9.5000000000000029e-01 +8.5269750810836840e+00 +0.0000000000000000e+00 +9.4999999956424197e-01 -3.1196020145907787e-02 -5.7803253671329358e-01 +5.3786991760217525e-03
1.0000000000000002e+00 +8.5269723889713855e+00 +0.0000000000000000e+00 +9.9999999949175145e-01 -3.1197057145839490e-02 -5.7803888706670281e-01 +5.3788480388549491e-03
1.0500000000000003e+00 +8.5269695587923309e+00 +0.0000000000000000e+00 +1.0499999994116365e+00 -3.1198112832249169e-02 -5.7804561845572378e-01 +5.3790044725865131e-03
1.1000000000000003e+00 +8.5269665905449106e+00 +0.0000000000000000e+00 +1.0999999993235157e+00 -3.1199187170244568e-02 -5.7805272991025969e-01 +5.3791685341240455e-03
1.1500000000000004e+00 +8.5269634842274264e+00 +0.0000000000000000e+00 +1.1499999992270078e+00 -3.1200280124933408e-02 -5.7806022046022909e-01 +5.3793402803754839e-03
1.2000000000000004e+00 +8.5269602398380915e+00 +0.0000000000000000e+00 +1.1999999991217314e+00 -3.1201391661423373e-02 -5.7806808913556795e-01 +5.3795197682490895e-03
1.2500000000000004e+00 +8.5269568573750245e+00 +0.0000000000000000e+00 +1.2499999990073050e+00 -3.1202521744821986e-02 -5.7807633496622768e-01 +5.3797070546534667e-03
1.3000000000000005e+00 +8.5269533368362556e+00 +0.0000000000000000e+00 +1.2999999988833471e+00 -3.1203670340236547e-02 -5.7808495698217688e-01 +5.3799021964975532e-03
1.3500000000000005e+00 +8.5269496782197258e+00 +0.0000000000000000e+00 +1.3499999987494764e+00 -3.1204837412774078e-02 -5.7809395421339971e-01 +5.3801052506906380e-03
1.4000000000000006e+00 +8.5269458815232859e+00 +0.0000000000000000e+00 +1.3999999986053115e+00 -3.1206022927541106e-02 -5.7810332568989609e-01 +5.3803162741423551e-03
1.4500000000000006e+00 +8.5269419467446976e+00 +0.0000000000000000e+00 +1.4499999984504708e+00 -3.1207226849643707e-02 -5.7811307044168259e-01 +5.3805353237626891e-03
1.5000000000000007e+00 +8.5269378738816339e+00 +0.0000000000000000e+00 +1.4999999982845729e+00 -3.1208449144187415e-02 -5.7812318749879121e-01 +5.3807624564619835e-03
1.5500000000000007e+00 +8.5269336629316790e+00 +0.0000000000000000e+00 +1.5499999981072359e+00 -3.1209689776277031e-02 -5.7813367589126985e-01 +5.3809977291509386e-03
1.6000000000000008e+00 +8.5269293138923263e+00 +0.0000000000000000e+00 +1.5999999979180786e+00 -3.1210948711016640e-02 -5.7814453464918214e-01 +5.3812411987406257e-03
1.6500000000000008e+00 +8.5269248267609825e+00 +0.0000000000000000e+00 +1.6499999977167192e+00 -3.1212225913509455e-02 -5.7815576280260739e-01 +5.3814929221424699e-03
1.7000000000000008e+00 +8.5269202015349670e+00 +0.0000000000000000e+00 +1.6999999975027762e+00 -3.1213521348857774e-02 -5.7816735938164010e-01 +5.3817529562682816e-03
1.7500000000000009e+00 +8.5269154382115087e+00 +0.0000000000000000e+00 +1.7499999972758677e+00 -3.1214834982162893e-02 -5.7817932341639067e-01 +5.3820213580302381e-03
1.8000000000000009e+00 +8.5269105367877494e+00 +0.0000000000000000e+00 +1.7999999970356122e+00 -3.1216166778524977e-02 -5.7819165393698446e-01 +5.3822981843409000e-03
1.8500000000000010e+00 +8.5269054972607456e+00 +0.0000000000000000e+00 +1.8499999967816281e+00 -3.1217516703043000e-02 -5.7820434997356218e-01 +5.3825834921132102e-03
1.9000000000000010e+00 +8.5269003196274635e+00 +0.0000000000000000e+00 +1.8999999965135332e+00 -3.1218884720814660e-02 -5.7821741055628029e-01 +5.3828773382604981e-03
1.9500000000000011e+00 +8.5268950038847855e+00 +0.0000000000000000e+00 +1.9499999962309462e+00 -3.1220270796936300e-02 -5.7823083471530923e-01 +5.3831797796964811e-03
2.0000000000000009e+00 +8.5268895500295034e+00 +0.0000000000000000e+00 +1.9999999959334849e+00 -3.1221674896502797e-02 -5.7824462148083544e-01 +5.3834908733352751e-03
2.0500000000000007e+00 +8.5268839580583240e+00 +0.0000000000000000e+00 +2.0499999956207677e+00 -3.1223096991867882e-02 -5.7825876969574064e-01 +5.3838106692333607e-03
2.1000000000000005e+00 +8.5268782279678703e+00 +0.0000000000000000e+00 +2.0999999952924124e+00 -3.1224537084425921e-02 -5.7827327745364598e-01 +5.3841391900154847e-03
2.1500000000000004e+00 +8.5268723597546749e+00 +0.0000000000000000e+00 +2.1499999949480371e+00 -3.1225995182831867e-02 -5.7828814266086548e-01 +5.3844764514488037e-03
2.2000000000000002e+00 +8.5268663534151887e+00 +0.0000000000000000e+00 +2.1999999945872601e+00 -3.1227471295740994e-02 -5.7830336322372655e-01 +5.3848224693009315e-03
2.2500000000000000e+00 +8.5268602089457755e+00 +0.0000000000000000e+00 +2.2499999942096993e+00 -3.1228965431809020e-02 -5.7831893704856907e-01 +5.3851772593399433e-03
2.2999999999999998e+00 +8.5268539263427154e+00 +0.0000000000000000e+00 +2.2999999938149722e+00 -3.1230477599692042e-02 -5.7833486204174411e-01 +5.3855408373343835e-03
2.3499999999999996e+00 +8.5268475056022055e+00 +0.0000000000000000e+00 +2.3499999934026974e+00 -3.1232007808046643e-02 -5.7835113610961586e-01 +5.3859132190532720e-03
2.3999999999999995e+00 +8.5268409467203572e+00 +0.0000000000000000e+00 +2.3999999929724920e+00 -3.1233556065529890e-02 -5.7836775715855937e-01 +5.3862944202661134e-03
2.4499999999999993e+00 +8.5268342496932021e+00 +0.0000000000000000e+00 +2.4499999925239742e+00 -3.1235122380799393e-02 -5.7838472309496236e-01 +5.3866844567428962e-03
2.4999999999999991e+00 +8.5268274145166885e+00 +0.0000000000000000e+00 +2.4999999920567619e+00 -3.1236706762513264e-02 -5.7840203182522232e-01 +5.3870833442541052e-03
2.5499999999999989e+00 +8.5268204411866808e+00 +0.0000000000000000e+00 +2.5499999915704725e+00 -3.1238309219330278e-02 -5.7841968125574916e-01 +5.3874910985707318e-03
2.5999999999999988e+00 +8.5268133296989639e+00 +0.0000000000000000e+00 +2.5999999910647240e+00 -3.1239929759909781e-02 -5.7843766929296314e-01 +5.3879077354642702e-03
2.6499999999999986e+00 +8.5268060800492407e+00 +0.0000000000000000e+00 +2.6499999905391340e+00 -3.1241568392911812e-02 -5.7845599384329582e-01 +5.3883332707067265e-03
2.6999999999999984e+00 +8.5267986922331360e+00 +0.0000000000000000e+00 +2.6999999899933198e+00 -3.1243225126997058e-02 -5.7847465281318866e-01 +5.3887677200706282e-03
2.7499999999999982e+00 +8.5267911662461913e+00 +0.0000000000000000e+00 +2.7499999894268989e+00 -3.1244899970826967e-02 -5.7849364410909354e-01 +5.3892110993290403e-03
2.7999999999999980e+00 +8.5267835020838714e+00 +0.0000000000000000e+00 +2.7999999888394891e+00 -3.1246592933063710e-02 -5.7851296563747279e-01 +5.3896634242555442e-03
2.8499999999999979e+00 +8.5267756997415614e+00 +0.0000000000000000e+00 +2.8499999882307079e+00 -3.1248304022370284e-02 -5.7853261530479883e-01 +5.3901247106242830e-03
2.8999999999999977e+00 +8.5267677592145681e+00 +0.0000000000000000e+00 +2.8999999876001721e+00 -3.1250033247410457e-02 -5.7855259101755274e-01 +5.3905949742099214e-03
2.9499999999999975e+00 +8.5267596804981203e+00 +0.0000000000000000e+00 +2.9499999869474998e+00 -3.1251780616848905e-02 -5.7857289068222661e-01 +5.3910742307876911e-03
2.9999999999999973e+00 +8.5267514635873702e+00 +0.0000000000000000e+00 +2.9999999862723077e+00 -3.1253546139351128e-02 -5.7859351220532029e-01 +5.3915624961333834e-03
3.0499999999999972e+00 +8.5267431084773921e+00 +0.0000000000000000e+00 +3.0499999855742130e+00 -3.1255329823583602e-02 -5.7861445349334428e-01 +5.3920597860233560e-03
3.0999999999999970e+00 +8.5267346151631838e+00 +0.0000000000000000e+00 +3.0999999848528335e+00 -3.1257131678213715e-02 -5.7863571245281642e-01 +5.3925661162345312e-03
3.1499999999999968e+00 +8.5267259836396665e+00 +0.0000000000000000e+00 +3.1499999841077857e+00 -3.1258951711909906e-02 -5.7865728699026475e-01 +5.3930815025444185e-03
3.1999999999999966e+00 +8.5267172139016889e+00 +0.0000000000000000e+00 +3.1999999833386865e+00 -3.1260789933341519e-02 -5.7867917501222477e-01 +5.3936059607311059e-03
3.2499999999999964e+00 +8.5267083059440232e+00 +0.0000000000000000e+00 +3.2499999825451535e+00 -3.1262646351179049e-02 -5.7870137442524061e-01 +5.3941395065732773e-03
3.2999999999999963e+00 +8.5266992597613651e+00 +0.0000000000000000e+00 +3.2999999817268035e+00 -3.1264520974094025e-02 -5.7872388313586431e-01 +5.3946821558502143e-03
3.3499999999999961e+00 +8.5266900753483394e+00 +0.0000000000000000e+00 +3.3499999808832532e+00 -3.1266413810759092e-02 -5.7874669905065612e-01 +5.3952339243417968e-03
3.3999999999999959e+00 +8.5266807526994981e+00 +0.0000000000000000e+00 +3.3999999800141194e+00 -3.1268324869848083e-02 -5.7876982007618394e-01 +5.3957948278285286e-03
3.4499999999999957e+00 +8.5266712918093166e+00 +0.0000000000000000e+00 +3.4499999791190192e+00 -3.1270254160035982e-02 -5.7879324411902255e-01 +5.3963648820915169e-03
3.4999999999999956e+00 +8.5266616926722012e+00 +0.0000000000000000e+00 +3.4999999781975690e+00 -3.1272201689998981e-02 -5.7881696908575464e-01 +5.3969441029124987e-03
3.5499999999999954e+00 +8.5266519552824853e+00 +0.0000000000000000e+00 +3.5499999772493855e+00 -3.1274167468414563e-02 -5.7884099288296997e-01 +5.3975325060738443e-03
3.5999999999999952e+00 +8.5266420796344295e+00 +0.0000000000000000e+00 +3.5999999762740855e+00 -3.1276151503961416e-02 -5.7886531341726444e-01 +5.3981301073585579e-03
3.6499999999999950e+00 +8.5266320657222270e+00 +0.0000000000000000e+00 +3.6499999752712853e+00 -3.1278153805319592e-02 -5.7888992859524158e-01 +5.3987369225502839e-03
3.6999999999999948e+00 +8.5266219135399961e+00 +0.0000000000000000e+00 +3.6999999742406011e+00 -3.1280174381170520e-02 -5.7891483632351048e-01 +5.3993529674333232e-03
3.7499999999999947e+00 +8.5266116230817897e+00 +0.0000000000000000e+00 +3.7499999731816498e+00 -3.1282213240196949e-02 -5.7894003450868747e-01 +5.3999782577926290e-03
3.7999999999999945e+00 +8.5266011943415876e+00 +0.0000000000000000e+00 +3.7999999720940476e+00 -3.1284270391083058e-02 -5.7896552105739341e-01 +5.4006128094138137e-03
3.8499999999999943e+00 +8.5265906273133041e+00 +0.0000000000000000e+00 +3.8499999709774109e+00 -3.1286345842514489e-02 -5.7899129387625647e-01 +5.4012566380831637e-03
3.8999999999999941e+00 +8.5265799219907823e+00 +0.0000000000000000e+00 +3.8999999698313554e+00 -3.1288439603178328e-02 -5.7901735087191009e-01 +5.4019097595876401e-03
3.9499999999999940e+00 +8.5265690783677979e+00 +0.0000000000000000e+00 +3.9499999686554981e+00 -3.1290551681763208e-02 -5.7904368995099276e-01 +5.4025721897148875e-03
3.9999999999999938e+00 +8.5265580964380607e+00 +0.0000000000000000e+00 +3.9999999674494542e+00 -3.1292682086959289e-02 -5.7907030902014811e-01 +5.4032439442532349e-03
4.0499999999999936e+00 +8.5265469761952133e+00 +0.0000000000000000e+00 +4.0499999662128401e+00 -3.1294830778203511e-02 -5.7909720587917612e-01 +5.4039250359639544e-03
4.0999999999999934e+00 +8.5265357176328305e+00 +0.0000000000000000e+00 +4.0999999649452716e+00 -3.1296997517914663e-02 -5.7912437790048266e-01 +5.4046154654979056e-03
4.1499999999999932e+00 +8.5265243207444232e+00 +0.0000000000000000e+00 +4.1499999636463647e+00 -3.1299182019257403e-02 -5.7915182234962848e-01 +5.4053152304786578e-03
4.1999999999999931e+00 +8.5265127855234351e+00 +0.0000000000000000e+00 +4.1999999623157356e+00 -3.1301383995397232e-02 -5.7917953649217635e-01 +5.4060243285302470e-03
4.2499999999999929e+00 +8.5265011119632472e+00 +0.0000000000000000e+00 +4.2499999609529997e+00 -3.1303603159500468e-02 -5.7920751759369227e-01 +5.4067427572771611e-03
4.2999999999999927e+00 +8.5264893000571771e+00 +0.0000000000000000e+00 +4.2999999595577725e+00 -3.1305839224734296e-02 -5.7923576291974499e-01 +5.4074705143443398e-03
4.3499999999999925e+00 +8.5264773497984780e+00 +0.0000000000000000e+00 +4.3499999581296693e+00 -3.1308091904266665e-02 -5.7926426973590606e-01 +5.4082075973571958e-03
4.3999999999999924e+00 +8.5264652611803395e+00 +0.0000000000000000e+00 +4.3999999566683066e+00 -3.1310360911266481e-02 -5.7929303530774845e-01 +5.4089540039415785e-03
4.4499999999999922e+00 +8.5264530341958924e+00 +0.0000000000000000e+00 +4.4499999551732987e+00 -3.1312645958903436e-02 -5.7932205690084748e-01 +5.4097097317238052e-03
4.4999999999999920e+00 +8.5264406688382053e+00 +0.0000000000000000e+00 +4.4999999536442621e+00 -3.1314946760348114e-02 -5.7935133178077980e-01 +5.4104747783306354e-03
4.5499999999999918e+00 +8.5264281651002864e+00 +0.0000000000000000e+00 +4.5499999520808112e+00 -3.1317263028771955e-02 -5.7938085721312393e-01 +5.4112491413892839e-03
4.5999999999999917e+00 +8.5264155229750820e+00 +0.0000000000000000e+00 +4.5999999504825615e+00 -3.1319594477347314e-02 -5.7941063046345942e-01 +5.4120328185274166e-03
4.6499999999999915e+00 +8.5264027424554811e+00 +0.0000000000000000e+00 +4.6499999488491284e+00 -3.1321940819247412e-02 -5.7944064879736656e-01 +5.4128258073731488e-03
4.6999999999999913e+00 +8.5263898235343145e+00 +0.0000000000000000e+00 +4.6999999471801273e+00 -3.1324301767646348e-02 -5.7947090948042634e-01 +5.4136281055550432e-03
4.7499999999999911e+00 +8.5263767662043541e+00 +0.0000000000000000e+00 +4.7499999454751727e+00 -3.1326677035719175e-02 -5.7950140977822040e-01 +5.4144397107021109e-03
4.7999999999999909e+00 +8.5263635704583152e+00 +0.0000000000000000e+00 +4.7999999437338792e+00 -3.1329066336641842e-02 -5.7953214695633093e-01 +5.4152606204438108e-03
4.8499999999999908e+00 +8.5263502362888559e+00 +0.0000000000000000e+00 +4.8499999419558621e+00 -3.1331469383591201e-02 -5.7956311828033880e-01 +5.4160908324100429e-03
4.8999999999999906e+00 +8.5263367636885796e+00 +0.0000000000000000e+00 +4.8999999401407361e+00 -3.1333885889745033e-02 -5.7959432101582631e-01 +5.4169303442311518e-03
4.9499999999999904e+00 +8.5263231526500327e+00 +0.0000000000000000e+00 +4.9499999382881166e+00 -3.1336315568282085e-02 -5.7962575242837366e-01 +5.4177791535379299e-03
4.9999999999999902e+00 +8.5263094031657083e+00 +0.0000000000000000e+00 +4.9999999363976171e+00 -3.1338758132382009e-02 -5.7965740978356151e-01 +5.4186372579616057e-03
5.0499999999999901e+00 +8.5262955152280444e+00 +0.0000000000000000e+00 +5.0499999344688531e+00 -3.1341213295225448e-02 -5.7968929034696914e-01 +5.4195046551338546e-03
5.0999999999999899e+00 +8.5262814888294276e+00 +0.0000000000000000e+00 +5.0999999325014382e+00 -3.1343680769993963e-02 -5.7972139138417411e-01 +5.4203813426867836e-03
5.1499999999999897e+00 +8.5262673239621893e+00 +0.0000000000000000e+00 +5.1499999304949879e+00 -3.1346160269870117e-02 -5.7975371016075272e-01 +5.4212673182529453e-03
5.1999999999999895e+00 +8.5262530206186113e+00 +0.0000000000000000e+00 +5.1999999284491158e+00 -3.1348651508037437e-02 -5.7978624394228007e-01 +5.4221625794653302e-03
5.2499999999999893e+00 +8.5262385787909221e+00 +0.0000000000000000e+00 +5.2499999263634356e+00 -3.1351154197680413e-02 -5.7981898999432879e-01 +5.4230671239573576e-03
5.2999999999999892e+00 +8.5262239984713002e+00 +0.0000000000000000e+00 +5.2999999242375626e+00 -3.1353668051984557e-02 -5.7985194558246866e-01 +5.4239809493628922e-03
5.3499999999999890e+00 +8.5262092796518747e+00 +0.0000000000000000e+00 +5.3499999220711105e+00 -3.1356192784136372e-02 -5.7988510797226878e-01 +5.4249040533162268e-03
5.3999999999999888e+00 +8.5261944223247248e+00 +0.0000000000000000e+00 +5.3999999198636930e+00 -3.1358728107323354e-02 -5.7991847442929345e-01 +5.4258364334520909e-03
5.4499999999999886e+00 +8.5261794264818800e+00 +0.0000000000000000e+00 +5.4499999176149236e+00 -3.1361273734733998e-02 -5.7995204221910546e-01 +5.4267780874056410e-03
5.4999999999999885e+00 +8.5261642921153236e+00 +0.0000000000000000e+00 +5.4999999153244170e+00 -3.1363829379557860e-02 -5.7998580860726368e-01 +5.4277290128124690e-03
5.5499999999999883e+00 +8.5261490192169909e+00 +0.0000000000000000e+00 +5.5499999129917867e+00 -3.1366394754985504e-02 -5.8001977085932410e-01 +5.4286892073085995e-03
5.5999999999999881e+00 +8.5261336077787693e+00 +0.0000000000000000e+00 +5.5999999106166465e+00 -3.1368969574208531e-02 -5.8005392624083840e-01 +5.4296586685304788e-03
5.6499999999999879e+00 +8.5261180577925018e+00 +0.0000000000000000e+00 +5.6499999081986099e+00 -3.1371553550419588e-02 -5.8008827201735469e-01 +5.4306373941149875e-03
5.6999999999999877e+00 +8.5261023692499851e+00 +0.0000000000000000e+00 +5.6999999057372905e+00 -3.1374146396812359e-02 -5.8012280545441663e-01 +5.4316253816994297e-03
5.7499999999999876e+00 +8.5260865421429699e+00 +0.0000000000000000e+00 +5.7499999032323013e+00 -3.1376747826581647e-02 -5.8015752381756447e-01 +5.4326226289215344e-03
5.7999999999999874e+00 +8.5260705764631641e+00 +0.0000000000000000e+00 +5.7999999006832557e+00 -3.1379357552923239e-02 -5.8019242437233187e-01 +5.4336291334194584e-03
5.8499999999999872e+00 +8.5260544722022313e+00 +0.0000000000000000e+00 +5.8499998980897674e+00 -3.1381975289034067e-02 -5.8022750438424919e-01 +5.4346448928317788e-03
5.8999999999999870e+00 +8.5260382293517925e+00 +0.0000000000000000e+00 +5.8999998954514492e+00 -3.1384600748112092e-02 -5.8026276111884134e-01 +5.4356699047975006e-03
