# trajectory
# s[mm] rx[mm] ry[mm] rz[mm] px[rad] py[rad] pz[rad]
0.0000000000000000e+00 +8.5980000000000008e+00 +0.0000000000000000e+00 +0.0000000000000000e+00 +0.0000000000000000e+00 +0.0000000000000000e+00 +1.0000000000000000e+00
-5.0000000000000003e-02 +8.5979999309433897e+00 +0.0000000000000000e+00 -4.9999999999936422e-02 +2.7622657308238710e-06 +0.0000000000000000e+00 +9.9999999999618494e-01
-1.0000000000000001e-01 +8.5979997237732828e+00 +0.0000000000000000e+00 -9.9999999999491329e-02 +5.5245401232225691e-06 +0.0000000000000000e+00 +9.9999999998473976e-01
-1.5000000000000002e-01 +8.5979993784892024e+00 +0.0000000000000000e+00 -1.4999999999828323e-01 +8.2868250127828436e-06 +0.0000000000000000e+00 +9.9999999996566435e-01
-2.0000000000000001e-01 +8.5979988950905764e+00 +0.0000000000000000e+00 -1.9999999999593060e-01 +1.1049122230878199e-05 +0.0000000000000000e+00 +9.9999999993895849e-01
-2.5000000000000000e-01 +8.5979982735767440e+00 +0.0000000000000000e+00 -2.4999999999205191e-01 +1.3811433604668979e-05 +0.0000000000000000e+00 +9.9999999990462218e-01
-2.9999999999999999e-01 +8.5979975139469502e+00 +0.0000000000000000e+00 -2.9999999998626564e-01 +1.6573760957102447e-05 +0.0000000000000000e+00 +9.9999999986265531e-01
-3.4999999999999998e-01 +8.5979966162003514e+00 +0.0000000000000000e+00 -3.4999999997819026e-01 +1.9336106106912870e-05 +0.0000000000000000e+00 +9.9999999981305754e-01
-3.9999999999999997e-01 +8.5979955803360131e+00 +0.0000000000000000e+00 -3.9999999996744423e-01 +2.2098470868621591e-05 +0.0000000000000000e+00 +9.9999999975582887e-01
-4.4999999999999996e-01 +8.5979944063529086e+00 +0.0000000000000000e+00 -4.4999999995364598e-01 +2.4860857052537110e-05 +0.0000000000000000e+00 +9.9999999969096898e-01
-4.9999999999999994e-01 +8.5979930942499205e+00 +0.0000000000000000e+00 -4.9999999993641392e-01 +2.7623266464755181e-05 +0.0000000000000000e+00 +9.9999999961847763e-01
-5.4999999999999993e-01 +8.5979916440258446e+00 +0.0000000000000000e+00 -5.4999999991536652e-01 +3.0385700907158872e-05 +0.0000000000000000e+00 +9.9999999953835461e-01
-5.9999999999999998e-01 +8.5979900556793822e+00 +0.0000000000000000e+00 -5.9999999989012220e-01 +3.3148162177418652e-05 +0.0000000000000000e+00 +9.9999999945059970e-01
-6.5000000000000002e-01 +8.5979883292091497e+00 +0.0000000000000000e+00 -6.4999999986029933e-01 +3.5910652068992470e-05 +0.0000000000000000e+00 +9.9999999935521255e-01
-7.0000000000000007e-01 +8.5979864646136690e+00 +0.0000000000000000e+00 -6.9999999982551631e-01 +3.8673172371125830e-05 +0.0000000000000000e+00 +9.9999999925219285e-01
-7.5000000000000011e-01 +8.5979844618913752e+00 +0.0000000000000000e+00 -7.4999999978539145e-01 +4.1435724868851885e-05 +0.0000000000000000e+00 +9.9999999914154036e-01
-8.0000000000000016e-01 +8.5979823210406146e+00 +0.0000000000000000e+00 -7.9999999973954317e-01 +4.4198311342991494e-05 +0.0000000000000000e+00 +9.9999999902325465e-01
-8.5000000000000020e-01 +8.5979800420596444e+00 +0.0000000000000000e+00 -8.4999999968758977e-01 +4.6960933570153316e-05 +0.0000000000000000e+00 +9.9999999889733537e-01
-9.0000000000000024e-01 +8.5979776249466315e+00 +0.0000000000000000e+00 -8.9999999962914945e-01 +4.9723593322733878e-05 +0.0000000000000000e+00 +9.9999999876378209e-01
-9.5000000000000029e-01 +8.5979750696996575e+00 +0.0000000000000000e+00 -9.4999999956384062e-01 +5.2486292368917662e-05 +0.0000000000000000e+00 +9.9999999862259448e-01
-1.0000000000000002e+00 +8.5979723763167115e+00 +0.0000000000000000e+00 -9.9999999949128160e-01 +5.5249032472677175e-05 +0.0000000000000000e+00 +9.9999999847377208e-01
-1.0500000000000003e+00 +8.5979695447956974e+00 +0.0000000000000000e+00 -1.0499999994110907e+00 +5.8011815393773034e-05 +0.0000000000000000e+00 +9.9999999831731456e-01
-1.1000000000000003e+00 +8.5979665751344303e+00 +0.0000000000000000e+00 -1.0999999993228859e+00 +6.0774642887754030e-05 +0.0000000000000000e+00 +9.9999999815322127e-01
-1.1500000000000004e+00 +8.5979634673306364e+00 +0.0000000000000000e+00 -1.1499999992262855e+00 +6.3537516705957221e-05 +0.0000000000000000e+00 +9.9999999798149186e-01
-1.2000000000000004e+00 +8.5979602213819586e+00 +0.0000000000000000e+00 -1.1999999991209078e+00 +6.6300438595507988e-05 +0.0000000000000000e+00 +9.9999999780212578e-01
-1.2500000000000004e+00 +8.5979568372859472e+00 +0.0000000000000000e+00 -1.2499999990063708e+00 +6.9063410299320126e-05 +0.0000000000000000e+00 +9.9999999761512259e-01
-1.3000000000000005e+00 +8.5979533150400691e+00 +0.0000000000000000e+00 -1.2999999988822928e+00 +7.1826433556095932e-05 +0.0000000000000000e+00 +9.9999999742048162e-01
-1.3500000000000005e+00 +8.5979496546417025e+00 +0.0000000000000000e+00 -1.3499999987482918e+00 +7.4589510100326250e-05 +0.0000000000000000e+00 +9.9999999721820243e-01
-1.4000000000000006e+00 +8.5979458560881419e+00 +0.0000000000000000e+00 -1.3999999986039857e+00 +7.7352641662290563e-05 +0.0000000000000000e+00 +9.9999999700828435e-01
-1.4500000000000006e+00 +8.5979419193765914e+00 +0.0000000000000000e+00 -1.4499999984489929e+00 +8.0115829968057078e-05 +0.0000000000000000e+00 +9.9999999679072682e-01
-1.5000000000000007e+00 +8.5979378445041714e+00 +0.0000000000000000e+00 -1.4999999982829311e+00 +8.2879076739482787e-05 +0.0000000000000000e+00 +9.9999999656552929e-01
-1.5500000000000007e+00 +8.5979336314679156e+00 +0.0000000000000000e+00 -1.5499999981054184e+00 +8.5642383694213532e-05 +0.0000000000000000e+00 +9.9999999633269099e-01
-1.6000000000000008e+00 +8.5979292802647702e+00 +0.0000000000000000e+00 -1.5999999979160728e+00 +8.8405752545684112e-05 +0.0000000000000000e+00 +9.9999999609221135e-01
-1.6500000000000008e+00 +8.5979247908916001e+00 +0.0000000000000000e+00 -1.6499999977145121e+00 +9.1169185003118315e-05 +0.0000000000000000e+00 +9.9999999584408972e-01
-1.7000000000000008e+00 +8.5979201633451812e+00 +0.0000000000000000e+00 -1.6999999975003544e+00 +9.3932682771529034e-05 +0.0000000000000000e+00 +9.9999999558832542e-01
-1.7500000000000009e+00 +8.5979153976222058e+00 +0.0000000000000000e+00 -1.7499999972732172e+00 +9.6696247551718311e-05 +0.0000000000000000e+00 +9.9999999532491768e-01
-1.8000000000000009e+00 +8.5979104937192812e+00 +0.0000000000000000e+00 -1.7999999970327187e+00 +9.9459881040277420e-05 +0.0000000000000000e+00 +9.9999999505386583e-01
-1.8500000000000010e+00 +8.5979054516329292e+00 +0.0000000000000000e+00 -1.8499999967784764e+00 +1.0222358492958694e-04 +0.0000000000000000e+00 +9.9999999477516910e-01
-1.9000000000000010e+00 +8.5979002713595865e+00 +0.0000000000000000e+00 -1.8999999965101082e+00 +1.0498736090781683e-04 +0.0000000000000000e+00 +9.9999999448882682e-01
-1.9500000000000011e+00 +8.5978949528956079e+00 +0.0000000000000000e+00 -1.9499999962272316e+00 +1.0775121065892651e-04 +0.0000000000000000e+00 +9.9999999419483809e-01
-2.0000000000000009e+00 +8.5978894962372632e+00 +0.0000000000000000e+00 -1.9999999959294645e+00 +1.1051513586266489e-04 +0.0000000000000000e+00 +9.9999999389320215e-01
-2.0500000000000007e+00 +8.5978839013807367e+00 +0.0000000000000000e+00 -2.0499999956164245e+00 +1.1327913819430880e-04 +0.0000000000000000e+00 +9.9999999358391822e-01
-2.1000000000000005e+00 +8.5978781683221310e+00 +0.0000000000000000e+00 -2.0999999952877291e+00 +1.1604321932178420e-04 +0.0000000000000000e+00 +9.9999999326698541e-01
-2.1500000000000004e+00 +8.5978722970574637e+00 +0.0000000000000000e+00 -2.1499999949429958e+00 +1.1880738090278742e-04 +0.0000000000000000e+00 +9.9999999294240294e-01
-2.2000000000000002e+00 +8.5978662875826721e+00 +0.0000000000000000e+00 -2.1999999945818418e+00 +1.2157162458452352e-04 +0.0000000000000000e+00 +9.9999999261016981e-01
-2.2500000000000000e+00 +8.5978601398936103e+00 +0.0000000000000000e+00 -2.2499999942038849e+00 +1.2433595200370638e-04 +0.0000000000000000e+00 +9.9999999227028524e-01
-2.2999999999999998e+00 +8.5978538539860487e+00 +0.0000000000000000e+00 -2.2999999938087425e+00 +1.2710036478655871e-04 +0.0000000000000000e+00 +9.9999999192274835e-01
-2.3499999999999996e+00 +8.5978474298556815e+00 +0.0000000000000000e+00 -2.3499999933960320e+00 +1.2986486454881209e-04 +0.0000000000000000e+00 +9.9999999156755814e-01
-2.3999999999999995e+00 +8.5978408674981175e+00 +0.0000000000000000e+00 -2.3999999929653706e+00 +1.3262945289570710e-04 +0.0000000000000000e+00 +9.9999999120471372e-01
-2.4499999999999993e+00 +8.5978341669088891e+00 +0.0000000000000000e+00 -2.4499999925163758e+00 +1.3539413142199329e-04 +0.0000000000000000e+00 +9.9999999083421420e-01
-2.4999999999999991e+00 +8.5978273280834472e+00 +0.0000000000000000e+00 -2.4999999920486644e+00 +1.3815890171192934e-04 +0.0000000000000000e+00 +9.9999999045605859e-01
-2.5499999999999989e+00 +8.5978203510171625e+00 +0.0000000000000000e+00 -2.5499999915618541e+00 +1.4092376533928299e-04 +0.0000000000000000e+00 +9.9999999007024587e-01
-2.5999999999999988e+00 +8.5978132357053312e+00 +0.0000000000000000e+00 -2.5999999910555616e+00 +1.4368872386733114e-04 +0.0000000000000000e+00 +9.9999998967677495e-01
-2.6499999999999986e+00 +8.5978059821431678e+00 +0.0000000000000000e+00 -2.6499999905294040e+00 +1.4645377884885992e-04 +0.0000000000000000e+00 +9.9999998927564493e-01
-2.6999999999999984e+00 +8.5977985903258123e+00 +0.0000000000000000e+00 -2.6999999899829983e+00 +1.4921893182616474e-04 +0.0000000000000000e+00 +9.9999998886685482e-01
-2.7499999999999982e+00 +8.5977910602483263e+00 +0.0000000000000000e+00 -2.7499999894159615e+00 +1.5198418433105029e-04 +0.0000000000000000e+00 +9.9999998845040350e-01
-2.7999999999999980e+00 +8.5977833919056952e+00 +0.0000000000000000e+00 -2.7999999888279108e+00 +1.5474953788483062e-04 +0.0000000000000000e+00 +9.9999998802628987e-01
-2.8499999999999979e+00 +8.5977755852928279e+00 +0.0000000000000000e+00 -2.8499999882184630e+00 +1.5751499399832921e-04 +0.0000000000000000e+00 +9.9999998759451292e-01
-2.8999999999999977e+00 +8.5977676404045607e+00 +0.0000000000000000e+00 -2.8999999875872344e+00 +1.6028055417187899e-04 +0.0000000000000000e+00 +9.9999998715507155e-01
-2.9499999999999975e+00 +8.5977595572356513e+00 +0.0000000000000000e+00 -2.9499999869338422e+00 +1.6304621989532233e-04 +0.0000000000000000e+00 +9.9999998670796464e-01
-2.9999999999999973e+00 +8.5977513357807869e+00 +0.0000000000000000e+00 -2.9999999862579032e+00 +1.6581199264801118e-04 +0.0000000000000000e+00 +9.9999998625319109e-01
-3.0499999999999972e+00 +8.5977429760345778e+00 +0.0000000000000000e+00 -3.0499999855590336e+00 +1.6857787389880705e-04 +0.0000000000000000e+00 +9.9999998579074978e-01
-3.0999999999999970e+00 +8.5977344779915637e+00 +0.0000000000000000e+00 -3.0999999848368502e+00 +1.7134386510608105e-04 +0.0000000000000000e+00 +9.9999998532063950e-01
-3.1499999999999968e+00 +8.5977258416462110e+00 +0.0000000000000000e+00 -3.1499999840909698e+00 +1.7410996771771397e-04 +0.0000000000000000e+00 +9.9999998484285912e-01
-3.1999999999999966e+00 +8.5977170669929119e+00 +0.0000000000000000e+00 -3.1999999833210087e+00 +1.7687618317109628e-04 +0.0000000000000000e+00 +9.9999998435740745e-01
-3.2499999999999964e+00 +8.5977081540259892e+00 +0.0000000000000000e+00 -3.2499999825265831e+00 +1.7964251289312818e-04 +0.0000000000000000e+00 +9.9999998386428335e-01
-3.2999999999999963e+00 +8.5976991027396945e+00 +0.0000000000000000e+00 -3.2999999817073093e+00 +1.8240895830021965e-04 +0.0000000000000000e+00 +9.9999998336348550e-01
-3.3499999999999961e+00 +8.5976899131282085e+00 +0.0000000000000000e+00 -3.3499999808628038e+00 +1.8517552079829047e-04 +0.0000000000000000e+00 +9.9999998285501279e-01
-3.3999999999999959e+00 +8.5976805851856408e+00 +0.0000000000000000e+00 -3.3999999799926828e+00 +1.8794220178277026e-04 +0.0000000000000000e+00 +9.9999998233886389e-01
-3.4499999999999957e+00 +8.5976711189060318e+00 +0.0000000000000000e+00 -3.4499999790965621e+00 +1.9070900263859849e-04 +0.0000000000000000e+00 +9.9999998181503769e-01
-3.4999999999999956e+00 +8.5976615142833559e+00 +0.0000000000000000e+00 -3.4999999781740585e+00 +1.9347592474022458e-04 +0.0000000000000000e+00 +9.9999998128353285e-01
-3.5499999999999954e+00 +8.5976517713115150e+00 +0.0000000000000000e+00 -3.5499999772247874e+00 +1.9624296945160784e-04 +0.0000000000000000e+00 +9.9999998074434804e-01
-3.5999999999999952e+00 +8.5976418899843452e+00 +0.0000000000000000e+00 -3.5999999762483652e+00 +1.9901013812621756e-04 +0.0000000000000000e+00 +9.9999998019748204e-01
-3.6499999999999950e+00 +8.5976318702956149e+00 +0.0000000000000000e+00 -3.6499999752444077e+00 +2.0177743210703303e-04 +0.0000000000000000e+00 +9.9999997964293352e-01
-3.6999999999999948e+00 +8.5976217122390253e+00 +0.0000000000000000e+00 -3.6999999742125307e+00 +2.0454485272654359e-04 +0.0000000000000000e+00 +9.9999997908070115e-01
-3.7499999999999947e+00 +8.5976114158082098e+00 +0.0000000000000000e+00 -3.7499999731523497e+00 +2.0731240130674860e-04 +0.0000000000000000e+00 +9.9999997851078370e-01
-3.7999999999999945e+00 +8.5976009809967398e+00 +0.0000000000000000e+00 -3.7999999720634809e+00 +2.1008007915915749e-04 +0.0000000000000000e+00 +9.9999997793317974e-01
-3.8499999999999943e+00 +8.5975904077981173e+00 +0.0000000000000000e+00 -3.8499999709455395e+00 +2.1284788758478985e-04 +0.0000000000000000e+00 +9.9999997734788793e-01
-3.8999999999999941e+00 +8.5975796962057824e+00 +0.0000000000000000e+00 -3.8999999697981416e+00 +2.1561582787417533e-04 +0.0000000000000000e+00 +9.9999997675490693e-01
-3.9499999999999940e+00 +8.5975688462131110e+00 +0.0000000000000000e+00 -3.9499999686209022e+00 +2.1838390130735381e-04 +0.0000000000000000e+00 +9.9999997615423530e-01
-3.9999999999999938e+00 +8.5975578578134115e+00 +0.0000000000000000e+00 -3.9999999674134368e+00 +2.2115210915387527e-04 +0.0000000000000000e+00 +9.9999997554587172e-01
-4.0499999999999936e+00 +8.5975467309999338e+00 +0.0000000000000000e+00 -4.0499999661753607e+00 +2.2392045267267128e-04 +0.0000000000000000e+00 +9.9999997492981485e-01
-4.0999999999999934e+00 +8.5975354657658620e+00 +0.0000000000000000e+00 -4.0999999649062895e+00 +2.2668893311063976e-04 +0.0000000000000000e+00 +9.9999997430606324e-01
-4.1499999999999932e+00 +8.5975240621043199e+00 +0.0000000000000000e+00 -4.1499999636058389e+00 +2.2945755170122978e-04 +0.0000000000000000e+00 +9.9999997367461546e-01
-4.1999999999999931e+00 +8.5975125200083689e+00 +0.0000000000000000e+00 -4.1999999622736235e+00 +2.3222630966431289e-04 +0.0000000000000000e+00 +9.9999997303547006e-01
-4.2499999999999929e+00 +8.5975008394710102e+00 +0.0000000000000000e+00 -4.2499999609092578e+00 +2.3499520820618314e-04 +0.0000000000000000e+00 +9.9999997238862559e-01
-4.2999999999999927e+00 +8.5974890204851846e+00 +0.0000000000000000e+00 -4.2999999595123573e+00 +2.3776424851955713e-04 +0.0000000000000000e+00 +9.9999997173408062e-01
-4.3499999999999925e+00 +8.5974770630437742e+00 +0.0000000000000000e+00 -4.3499999580825373e+00 +2.4053343178357392e-04 +0.0000000000000000e+00 +9.9999997107183358e-01
-4.3999999999999924e+00 +8.5974649671396026e+00 +0.0000000000000000e+00 -4.3999999566194123e+00 +2.4330275916379507e-04 +0.0000000000000000e+00 +9.9999997040188315e-01
-4.4499999999999922e+00 +8.5974527327654364e+00 +0.0000000000000000e+00 -4.4499999551225971e+00 +2.4607223181220464e-04 +0.0000000000000000e+00 +9.9999996972422778e-01
-4.4999999999999920e+00 +8.5974403599139819e+00 +0.0000000000000000e+00 -4.4999999535917068e+00 +2.4884185086720918e-04 +0.0000000000000000e+00 +9.9999996903886601e-01
-4.5499999999999918e+00 +8.5974278485778903e+00 +0.0000000000000000e+00 -4.5499999520263552e+00 +2.5161161745363770e-04 +0.0000000000000000e+00 +9.9999996834579630e-01
-4.5999999999999917e+00 +8.5974151987497578e+00 +0.0000000000000000e+00 -4.5999999504261577e+00 +2.5438153268274175e-04 +0.0000000000000000e+00 +9.9999996764501720e-01
-4.6499999999999915e+00 +8.5974024104221254e+00 +0.0000000000000000e+00 -4.6499999487907289e+00 +2.5715159765219526e-04 +0.0000000000000000e+00 +9.9999996693652715e-01
-4.6999999999999913e+00 +8.5973894835874791e+00 +0.0000000000000000e+00 -4.6999999471196823e+00 +2.5992181344609464e-04 +0.0000000000000000e+00 +9.9999996622032461e-01
-4.7499999999999911e+00 +8.5973764182382499e+00 +0.0000000000000000e+00 -4.7499999454126325e+00 +2.6269218113495878e-04 +0.0000000000000000e+00 +9.9999996549640813e-01
-4.7999999999999909e+00 +8.5973632143668173e+00 +0.0000000000000000e+00 -4.7999999436691940e+00 +2.6546270177572895e-04 +0.0000000000000000e+00 +9.9999996476477615e-01
-4.8499999999999908e+00 +8.5973498719655073e+00 +0.0000000000000000e+00 -4.8499999418889814e+00 +2.6823337641176877e-04 +0.0000000000000000e+00 +9.9999996402542701e-01
-4.8999999999999906e+00 +8.5973363910265928e+00 +0.0000000000000000e+00 -4.8999999400716083e+00 +2.7100420607286438e-04 +0.0000000000000000e+00 +9.9999996327835927e-01
-4.9499999999999904e+00 +8.5973227715422986e+00 +0.0000000000000000e+00 -4.9499999382166884e+00 +2.7377519177522420e-04 +0.0000000000000000e+00 +9.9999996252357126e-01
-4.9999999999999902e+00 +8.5973090135047983e+00 +0.0000000000000000e+00 -4.9999999363238361e+00 +2.7654633452147906e-04 +0.0000000000000000e+00 +9.9999996176106143e-01
-5.0499999999999901e+00 +8.5972951169062135e+00 +0.0000000000000000e+00 -5.0499999343926651e+00 +2.7931763530068208e-04 +0.0000000000000000e+00 +9.9999996099082822e-01
-5.0999999999999899e+00 +8.5972810817386183e+00 +0.0000000000000000e+00 -5.0999999324227900e+00 +2.8208909508830866e-04 +0.0000000000000000e+00 +9.9999996021287008e-01
-5.1499999999999897e+00 +8.5972669079940385e+00 +0.0000000000000000e+00 -5.1499999304138235e+00 +2.8486071484625652e-04 +0.0000000000000000e+00 +9.9999995942718545e-01
-5.1999999999999895e+00 +8.5972525956644521e+00 +0.0000000000000000e+00 -5.1999999283653793e+00 +2.8763249552284564e-04 +0.0000000000000000e+00 +9.9999995863377256e-01
-5.2499999999999893e+00 +8.5972381447417892e+00 +0.0000000000000000e+00 -5.2499999262770718e+00 +2.9040443805281821e-04 +0.0000000000000000e+00 +9.9999995783262996e-01
-5.2999999999999892e+00 +8.5972235552179335e+00 +0.0000000000000000e+00 -5.2999999241485138e+00 +2.9317654335733864e-04 +0.0000000000000000e+00 +9.9999995702375599e-01
-5.3499999999999890e+00 +8.5972088270847244e+00 +0.0000000000000000e+00 -5.3499999219793191e+00 +2.9594881234399348e-04 +0.0000000000000000e+00 +9.9999995620714899e-01
-5.3999999999999888e+00 +8.5971939603339553e+00 +0.0000000000000000e+00 -5.3999999197691002e+00 +2.9872124590679146e-04 +0.0000000000000000e+00 +9.9999995538280728e-01
-5.4499999999999886e+00 +8.5971789549573749e+00 +0.0000000000000000e+00 -5.4499999175174709e+00 +3.0149384492616333e-04 +0.0000000000000000e+00 +9.9999995455072932e-01
-5.4999999999999885e+00 +8.5971638109466895e+00 +0.0000000000000000e+00 -5.4999999152240440e+00 +3.0426661026896202e-04 +0.0000000000000000e+00 +9.9999995371091344e-01
-5.5499999999999883e+00 +8.5971485282935607e+00 +0.0000000000000000e+00 -5.5499999128884330e+00 +3.0703954278846240e-04 +0.0000000000000000e+00 +9.9999995286335808e-01
-5.5999999999999881e+00 +8.5971331069896095e+00 +0.0000000000000000e+00 -5.5999999105102507e+00 +3.0981264332436131e-04 +0.0000000000000000e+00 +9.9999995200806147e-01
-5.6499999999999879e+00 +8.5971175470264143e+00 +0.0000000000000000e+00 -5.6499999080891099e+00 +3.1258591270277766e-04 +0.0000000000000000e+00 +9.9999995114502205e-01
-5.6999999999999877e+00 +8.5971018483955124e+00 +0.0000000000000000e+00 -5.6999999056246233e+00 +3.1535935173625219e-04 +0.0000000000000000e+00 +9.9999995027423805e-01
-5.7499999999999876e+00 +8.5970860110884004e+00 +0.0000000000000000e+00 -5.7499999031164046e+00 +3.1813296122374751e-04 +0.0000000000000000e+00 +9.9999994939570791e-01
-5.7999999999999874e+00 +8.5970700350965359e+00 +0.0000000000000000e+00 -5.7999999005640657e+00 +3.2090674195064809e-04 +0.0000000000000000e+00 +9.9999994850942986e-01
-5.8499999999999872e+00 +8.5970539204113390e+00 +0.0000000000000000e+00 -5.8499998979672192e+00 +3.2368069468876015e-04 +0.0000000000000000e+00 +9.9999994761540223e-01
