# trajectory
# s[mm] rx[mm] ry[mm] rz[mm] px[rad] py[rad] pz[rad]
0.0000000000000000e+00 +8.5269999999999992e+00 +0.0000000000000000e+00 +0.0000000000000000e+00 +0.0000000000000000e+00 +0.0000000000000000e+00 +1.0000000000000000e+00
5.0000000000000003e-02 +8.5269999308443882e+00 +0.0000000000000000e+00 +4.9999999999936227e-02 -2.7662259549564114e-06 +0.0000000000000000e+00 +9.9999999999617395e-01
1.0000000000000001e-01 +8.5269997233772390e+00 +0.0000000000000000e+00 +9.9999999999489858e-02 -5.5324618026667844e-06 +0.0000000000000000e+00 +9.9999999998469591e-01
1.5000000000000002e-01 +8.5269993775980133e+00 +0.0000000000000000e+00 +1.4999999999827829e-01 -8.2987093165044083e-06 +0.0000000000000000e+00 +9.9999999996556566e-01
2.0000000000000001e-01 +8.5269988935060841e+00 +0.0000000000000000e+00 +1.9999999999591889e-01 -1.1064970265262880e-05 +0.0000000000000000e+00 +9.9999999993878319e-01
2.5000000000000000e-01 +8.5269982711007337e+00 +0.0000000000000000e+00 +2.4999999999202907e-01 -1.3831246413156190e-05 +0.0000000000000000e+00 +9.9999999990434829e-01
2.9999999999999999e-01 +8.5269975103811593e+00 +0.0000000000000000e+00 +2.9999999998622617e-01 -1.6597539519818802e-05 +0.0000000000000000e+00 +9.9999999986226085e-01
3.4999999999999998e-01 +8.5269966113464690e+00 +0.0000000000000000e+00 +3.4999999997812759e-01 -1.9363851340305744e-05 +0.0000000000000000e+00 +9.9999999981252063e-01
3.9999999999999997e-01 +8.5269955739956842e+00 +0.0000000000000000e+00 +3.9999999996735069e-01 -2.2130183625092687e-05 +0.0000000000000000e+00 +9.9999999975512754e-01
4.4999999999999996e-01 +8.5269943983277372e+00 +0.0000000000000000e+00 +4.4999999995351281e-01 -2.4896538120076023e-05 +0.0000000000000000e+00 +9.9999999969008124e-01
4.9999999999999994e-01 +8.5269930843414734e+00 +0.0000000000000000e+00 +4.9999999993623129e-01 -2.7662916566572952e-05 +0.0000000000000000e+00 +9.9999999961738162e-01
5.4999999999999993e-01 +8.5269916320356529e+00 +0.0000000000000000e+00 +5.4999999991512338e-01 -3.0429320701321561e-05 +0.0000000000000000e+00 +9.9999999953702834e-01
5.9999999999999998e-01 +8.5269900414089470e+00 +0.0000000000000000e+00 +5.9999999988980646e-01 -3.3195752256480899e-05 +0.0000000000000000e+00 +9.9999999944902118e-01
6.5000000000000002e-01 +8.5269883124599417e+00 +0.0000000000000000e+00 +6.4999999985989787e-01 -3.5962212959631069e-05 +0.0000000000000000e+00 +9.9999999935335981e-01
7.0000000000000007e-01 +8.5269864451871360e+00 +0.0000000000000000e+00 +6.9999999982501482e-01 -3.8728704533773301e-05 +0.0000000000000000e+00 +9.9999999925004390e-01
7.5000000000000011e-01 +8.5269844395889454e+00 +0.0000000000000000e+00 +7.4999999978477461e-01 -4.1495228697330017e-05 +0.0000000000000000e+00 +9.9999999913907323e-01
8.0000000000000016e-01 +8.5269822956636947e+00 +0.0000000000000000e+00 +7.9999999973879454e-01 -4.4261787164144937e-05 +0.0000000000000000e+00 +9.9999999902044734e-01
8.5000000000000020e-01 +8.5269800134096290e+00 +0.0000000000000000e+00 +8.4999999968669182e-01 -4.7028381643483130e-05 +0.0000000000000000e+00 +9.9999999889416591e-01
9.0000000000000024e-01 +8.5269775928249025e+00 +0.0000000000000000e+00 +8.9999999962808364e-01 -4.9795013840031104e-05 +0.0000000000000000e+00 +9.9999999876022849e-01
9.5000000000000029e-01 +8.5269750339075880e+00 +0.0000000000000000e+00 +9.4999999956258707e-01 -5.2561685453896876e-05 +0.0000000000000000e+00 +9.9999999861863476e-01
1.0000000000000002e+00 +8.5269723366556729e+00 +0.0000000000000000e+00 +9.9999999948981944e-01 -5.5328398180610062e-05 +0.0000000000000000e+00 +9.9999999846938437e-01
1.0500000000000003e+00 +8.5269695010670574e+00 +0.0000000000000000e+00 +1.0499999994093978e+00 -5.8095153711121927e-05 +0.0000000000000000e+00 +9.9999999831247677e-01
1.1000000000000003e+00 +8.5269665271395603e+00 +0.0000000000000000e+00 +1.0999999993209395e+00 -6.0861953731805478e-05 +0.0000000000000000e+00 +9.9999999814791152e-01
1.1500000000000004e+00 +8.5269634148709148e+00 +0.0000000000000000e+00 +1.1499999992240615e+00 -6.3628799924455527e-05 +0.0000000000000000e+00 +9.9999999797568817e-01
1.2000000000000004e+00 +8.5269601642587709e+00 +0.0000000000000000e+00 +1.1999999991183807e+00 -6.6395693966288775e-05 +0.0000000000000000e+00 +9.9999999779580617e-01
1.2500000000000004e+00 +8.5269567753006932e+00 +0.0000000000000000e+00 +1.2499999990035144e+00 -6.9162637529943889e-05 +0.0000000000000000e+00 +9.9999999760826508e-01
1.3000000000000005e+00 +8.5269532479941645e+00 +0.0000000000000000e+00 +1.2999999988790796e+00 -7.1929632283481549e-05 +0.0000000000000000e+00 +9.9999999741306433e-01
1.3500000000000005e+00 +8.5269495823365844e+00 +0.0000000000000000e+00 +1.3499999987446931e+00 -7.4696679890384529e-05 +0.0000000000000000e+00 +9.9999999721020338e-01
1.4000000000000006e+00 +8.5269457783252669e+00 +0.0000000000000000e+00 +1.3999999985999723e+00 -7.7463782009557790e-05 +0.0000000000000000e+00 +9.9999999699968156e-01
1.4500000000000006e+00 +8.5269418359574463e+00 +0.0000000000000000e+00 +1.4499999984445338e+00 -8.0230940295328521e-05 +0.0000000000000000e+00 +9.9999999678149842e-01
1.5000000000000007e+00 +8.5269377552302732e+00 +0.0000000000000000e+00 +1.4999999982779946e+00 -8.2998156397446216e-05 +0.0000000000000000e+00 +9.9999999655565330e-01
1.5500000000000007e+00 +8.5269335361408150e+00 +0.0000000000000000e+00 +1.5499999980999715e+00 -8.5765431961082764e-05 +0.0000000000000000e+00 +9.9999999632214565e-01
1.6000000000000008e+00 +8.5269291786860588e+00 +0.0000000000000000e+00 +1.5999999979100814e+00 -8.8532768626832482e-05 +0.0000000000000000e+00 +9.9999999608097478e-01
1.6500000000000008e+00 +8.5269246828629068e+00 +0.0000000000000000e+00 +1.6499999977079411e+00 -9.1300168030712211e-05 +0.0000000000000000e+00 +9.9999999583214005e-01
1.7000000000000008e+00 +8.5269200486681829e+00 +0.0000000000000000e+00 +1.6999999974931677e+00 -9.4067631804161376e-05 +0.0000000000000000e+00 +9.9999999557564068e-01
1.7500000000000009e+00 +8.5269152760986273e+00 +0.0000000000000000e+00 +1.7499999972653775e+00 -9.6835161574042046e-05 +0.0000000000000000e+00 +9.9999999531147610e-01
1.8000000000000009e+00 +8.5269103651508988e+00 +0.0000000000000000e+00 +1.7999999970241876e+00 -9.9602758962638992e-05 +0.0000000000000000e+00 +9.9999999503964554e-01
1.8500000000000010e+00 +8.5269053158215762e+00 +0.0000000000000000e+00 +1.8499999967692144e+00 -1.0237042558765977e-04 +0.0000000000000000e+00 +9.9999999476014834e-01
1.9000000000000010e+00 +8.5269001281071581e+00 +0.0000000000000000e+00 +1.8999999965000747e+00 -1.0513816306223478e-04 +0.0000000000000000e+00 +9.9999999447298371e-01
1.9500000000000011e+00 +8.5268948020040618e+00 +0.0000000000000000e+00 +1.9499999962163850e+00 -1.0790597299491735e-04 +0.0000000000000000e+00 +9.9999999417815089e-01
2.0000000000000009e+00 +8.5268893375086243e+00 +0.0000000000000000e+00 +1.9999999959177619e+00 -1.1067385698968374e-04 +0.0000000000000000e+00 +9.9999999387564908e-01
2.0500000000000007e+00 +8.5268837346171011e+00 +0.0000000000000000e+00 +2.0499999956038222e+00 -1.1344181664568502e-04 +0.0000000000000000e+00 +9.9999999356547753e-01
2.1000000000000005e+00 +8.5268779933256713e+00 +0.0000000000000000e+00 +2.0999999952741821e+00 -1.1620985355451637e-04 +0.0000000000000000e+00 +9.9999999324763533e-01
2.1500000000000004e+00 +8.5268721136304322e+00 +0.0000000000000000e+00 +2.1499999949284581e+00 -1.1897796929748640e-04 +0.0000000000000000e+00 +9.9999999292212183e-01
2.2000000000000002e+00 +8.5268660955274012e+00 +0.0000000000000000e+00 +2.1999999945662663e+00 -1.2174616544536896e-04 +0.0000000000000000e+00 +9.9999999258893602e-01
2.2500000000000000e+00 +8.5268599390125210e+00 +0.0000000000000000e+00 +2.2499999941872235e+00 -1.2451444355840319e-04 +0.0000000000000000e+00 +9.9999999224807712e-01
2.2999999999999998e+00 +8.5268536440816529e+00 +0.0000000000000000e+00 +2.2999999937909461e+00 -1.2728280518629358e-04 +0.0000000000000000e+00 +9.9999999189954425e-01
2.3499999999999996e+00 +8.5268472107305833e+00 +0.0000000000000000e+00 +2.3499999933770499e+00 -1.3005125186821002e-04 +0.0000000000000000e+00 +9.9999999154333641e-01
2.3999999999999995e+00 +8.5268406389550222e+00 +0.0000000000000000e+00 +2.3999999929451517e+00 -1.3281978513278786e-04 +0.0000000000000000e+00 +9.9999999117945282e-01
2.4499999999999993e+00 +8.5268339287506016e+00 +0.0000000000000000e+00 +2.4499999924948672e+00 -1.3558840649812790e-04 +0.0000000000000000e+00 +9.9999999080789248e-01
2.4999999999999991e+00 +8.5268270801128789e+00 +0.0000000000000000e+00 +2.4999999920258129e+00 -1.3835711747179651e-04 +0.0000000000000000e+00 +9.9999999042865451e-01
2.5499999999999989e+00 +8.5268200930373368e+00 +0.0000000000000000e+00 +2.5499999915376046e+00 -1.4112591955082562e-04 +0.0000000000000000e+00 +9.9999999004173790e-01
2.5999999999999988e+00 +8.5268129675193816e+00 +0.0000000000000000e+00 +2.5999999910298586e+00 -1.4389481422171283e-04 +0.0000000000000000e+00 +9.9999998964714165e-01
2.6499999999999986e+00 +8.5268057035543467e+00 +0.0000000000000000e+00 +2.6499999905021907e+00 -1.4666380296042141e-04 +0.0000000000000000e+00 +9.9999998924486488e-01
2.6999999999999984e+00 +8.5267983011374930e+00 +0.0000000000000000e+00 +2.6999999899542169e+00 -1.4943288723238033e-04 +0.0000000000000000e+00 +9.9999998883490648e-01
2.7499999999999982e+00 +8.5267907602640065e+00 +0.0000000000000000e+00 +2.7499999893855533e+00 -1.5220206849248433e-04 +0.0000000000000000e+00 +9.9999998841726556e-01
2.7999999999999980e+00 +8.5267830809290022e+00 +0.0000000000000000e+00 +2.7999999887958156e+00 -1.5497134818509393e-04 +0.0000000000000000e+00 +9.9999998799194101e-01
2.8499999999999979e+00 +8.5267752631275222e+00 +0.0000000000000000e+00 +2.8499999881846194e+00 -1.5774072774403554e-04 +0.0000000000000000e+00 +9.9999998755893182e-01
2.8999999999999977e+00 +8.5267673068545395e+00 +0.0000000000000000e+00 +2.8999999875515807e+00 -1.6051020859260144e-04 +0.0000000000000000e+00 +9.9999998711823690e-01
2.9499999999999975e+00 +8.5267592121049525e+00 +0.0000000000000000e+00 +2.9499999868963149e+00 -1.6327979214354982e-04 +0.0000000000000000e+00 +9.9999998666985512e-01
2.9999999999999973e+00 +8.5267509788735900e+00 +0.0000000000000000e+00 +2.9999999862184379e+00 -1.6604947979910483e-04 +0.0000000000000000e+00 +9.9999998621378550e-01
3.0499999999999972e+00 +8.5267426071552137e+00 +0.0000000000000000e+00 +3.0499999855175650e+00 -1.6881927295095661e-04 +0.0000000000000000e+00 +9.9999998575002691e-01
3.0999999999999970e+00 +8.5267340969445140e+00 +0.0000000000000000e+00 +3.0999999847933122e+00 -1.7158917298026131e-04 +0.0000000000000000e+00 +9.9999998527857825e-01
3.1499999999999968e+00 +8.5267254482361121e+00 +0.0000000000000000e+00 +3.1499999840452948e+00 -1.7435918125764121e-04 +0.0000000000000000e+00 +9.9999998479943830e-01
3.1999999999999966e+00 +8.5267166610245617e+00 +0.0000000000000000e+00 +3.1999999832731278e+00 -1.7712929914318463e-04 +0.0000000000000000e+00 +9.9999998431260606e-01
3.2499999999999964e+00 +8.5267077353043490e+00 +0.0000000000000000e+00 +3.2499999824764272e+00 -1.7989952798644603e-04 +0.0000000000000000e+00 +9.9999998381808031e-01
3.2999999999999963e+00 +8.5266986710698927e+00 +0.0000000000000000e+00 +3.2999999816548078e+00 -1.8266986912644602e-04 +0.0000000000000000e+00 +9.9999998331585982e-01
3.3499999999999961e+00 +8.5266894683155439e+00 +0.0000000000000000e+00 +3.3499999808078851e+00 -1.8544032389167142e-04 +0.0000000000000000e+00 +9.9999998280594349e-01
3.3999999999999959e+00 +8.5266801270355881e+00 +0.0000000000000000e+00 +3.3999999799352740e+00 -1.8821089360007524e-04 +0.0000000000000000e+00 +9.9999998228833009e-01
3.4499999999999957e+00 +8.5266706472242468e+00 +0.0000000000000000e+00 +3.4499999790365896e+00 -1.9098157955907679e-04 +0.0000000000000000e+00 +9.9999998176301841e-01
3.4999999999999956e+00 +8.5266610288756741e+00 +0.0000000000000000e+00 +3.4999999781114473e+00 -1.9375238306556158e-04 +0.0000000000000000e+00 +9.9999998123000733e-01
3.5499999999999954e+00 +8.5266512719839600e+00 +0.0000000000000000e+00 +3.5499999771594619e+00 -1.9652330540588145e-04 +0.0000000000000000e+00 +9.9999998068929552e-01
3.5999999999999952e+00 +8.5266413765431324e+00 +0.0000000000000000e+00 +3.5999999761802486e+00 -1.9929434785585461e-04 +0.0000000000000000e+00 +9.9999998014088176e-01
3.6499999999999950e+00 +8.5266313425471516e+00 +0.0000000000000000e+00 +3.6499999751734218e+00 -2.0206551168076555e-04 +0.0000000000000000e+00 +9.9999997958476483e-01
3.6999999999999948e+00 +8.5266211699899195e+00 +0.0000000000000000e+00 +3.6999999741385965e+00 -2.0483679813536513e-04 +0.0000000000000000e+00 +9.9999997902094340e-01
3.7499999999999947e+00 +8.5266108588652738e+00 +0.0000000000000000e+00 +3.7499999730753877e+00 -2.0760820846387065e-04 +0.0000000000000000e+00 +9.9999997844941624e-01
3.7999999999999945e+00 +8.5266004091669885e+00 +0.0000000000000000e+00 +3.7999999719834099e+00 -2.1037974389996578e-04 +0.0000000000000000e+00 +9.9999997787018202e-01
3.8499999999999943e+00 +8.5265898208887787e+00 +0.0000000000000000e+00 +3.8499999708622776e+00 -2.1315140566680065e-04 +0.0000000000000000e+00 +9.9999997728323942e-01
3.8999999999999941e+00 +8.5265790940242958e+00 +0.0000000000000000e+00 +3.8999999697116055e+00 -2.1592319497699180e-04 +0.0000000000000000e+00 +9.9999997668858720e-01
3.9499999999999940e+00 +8.5265682285671343e+00 +0.0000000000000000e+00 +3.9499999685310079e+00 -2.1869511303262228e-04 +0.0000000000000000e+00 +9.9999997608622404e-01
3.9999999999999938e+00 +8.5265572245108263e+00 +0.0000000000000000e+00 +3.9999999673200994e+00 -2.2146716102524160e-04 +0.0000000000000000e+00 +9.9999997547614861e-01
4.0499999999999936e+00 +8.5265460818488457e+00 +0.0000000000000000e+00 +4.0499999660784942e+00 -2.2423934013573584e-04 +0.0000000000000000e+00 +9.9999997485835945e-01
4.0999999999999934e+00 +8.5265348005746073e+00 +0.0000000000000000e+00 +4.0999999648058063e+00 -2.2701165153289811e-04 +0.0000000000000000e+00 +9.9999997423285525e-01
4.1499999999999932e+00 +8.5265233806814678e+00 +0.0000000000000000e+00 +4.1499999635016511e+00 -2.2978409637199913e-04 +0.0000000000000000e+00 +9.9999997359963477e-01
4.1999999999999931e+00 +8.5265118221627265e+00 +0.0000000000000000e+00 +4.1999999621656414e+00 -2.3255667579465730e-04 +0.0000000000000000e+00 +9.9999997295869647e-01
4.2499999999999929e+00 +8.5265001250116264e+00 +0.0000000000000000e+00 +4.2499999607973917e+00 -2.3532939092883853e-04 +0.0000000000000000e+00 +9.9999997231003901e-01
4.2999999999999927e+00 +8.5264882892213532e+00 +0.0000000000000000e+00 +4.2999999593965166e+00 -2.3810224288885645e-04 +0.0000000000000000e+00 +9.9999997165366106e-01
4.3499999999999925e+00 +8.5264763147850378e+00 +0.0000000000000000e+00 +4.3499999579626296e+00 -2.4087523277537223e-04 +0.0000000000000000e+00 +9.9999997098956117e-01
4.3999999999999924e+00 +8.5264642016957577e+00 +0.0000000000000000e+00 +4.3999999564953445e+00 -2.4364836167539464e-04 +0.0000000000000000e+00 +9.9999997031773791e-01
4.4499999999999922e+00 +8.5264519499465354e+00 +0.0000000000000000e+00 +4.4499999549942748e+00 -2.4642163066228003e-04 +0.0000000000000000e+00 +9.9999996963818993e-01
4.4999999999999920e+00 +8.5264395595303402e+00 +0.0000000000000000e+00 +4.4999999534590343e+00 -2.4919504079573226e-04 +0.0000000000000000e+00 +9.9999996895091581e-01
4.5499999999999918e+00 +8.5264270304400860e+00 +0.0000000000000000e+00 +4.5499999518892373e+00 -2.5196859312180280e-04 +0.0000000000000000e+00 +9.9999996825591397e-01
4.5999999999999917e+00 +8.5264143626686408e+00 +0.0000000000000000e+00 +4.5999999502844968e+00 -2.5474228867289057e-04 +0.0000000000000000e+00 +9.9999996755318310e-01
4.6499999999999915e+00 +8.5264015562088158e+00 +0.0000000000000000e+00 +4.6499999486444263e+00 -2.5751612846774198e-04 +0.0000000000000000e+00 +9.9999996684272163e-01
4.6999999999999913e+00 +8.5263886110533740e+00 +0.0000000000000000e+00 +4.6999999469686395e+00 -2.6029011351145099e-04 +0.0000000000000000e+00 +9.9999996612452824e-01
4.7499999999999911e+00 +8.5263755271950270e+00 +0.0000000000000000e+00 +4.7499999452567501e+00 -2.6306424479545894e-04 +0.0000000000000000e+00 +9.9999996539860136e-01
4.7999999999999909e+00 +8.5263623046264403e+00 +0.0000000000000000e+00 +4.7999999435083707e+00 -2.6583852329755461e-04 +0.0000000000000000e+00 +9.9999996466493957e-01
4.8499999999999908e+00 +8.5263489433402277e+00 +0.0000000000000000e+00 +4.8499999417231150e+00 -2.6861294998187419e-04 +0.0000000000000000e+00 +9.9999996392354129e-01
4.8999999999999906e+00 +8.5263354433289571e+00 +0.0000000000000000e+00 +4.8999999399005958e+00 -2.7138752579890121e-04 +0.0000000000000000e+00 +9.9999996317440509e-01
4.9499999999999904e+00 +8.5263218045851463e+00 +0.0000000000000000e+00 +4.9499999380404267e+00 -2.7416225168546652e-04 +0.0000000000000000e+00 +9.9999996241752953e-01
4.9999999999999902e+00 +8.5263080271012708e+00 +0.0000000000000000e+00 +4.9999999361422196e+00 -2.7693712856474831e-04 +0.0000000000000000e+00 +9.9999996165291305e-01
5.0499999999999901e+00 +8.5262941108697579e+00 +0.0000000000000000e+00 +5.0499999342055881e+00 -2.7971215734627197e-04 +0.0000000000000000e+00 +9.9999996088055410e-01
5.0999999999999899e+00 +8.5262800558829888e+00 +0.0000000000000000e+00 +5.0999999322301459e+00 -2.8248733892591023e-04 +0.0000000000000000e+00 +9.9999996010045122e-01
5.1499999999999897e+00 +8.5262658621333038e+00 +0.0000000000000000e+00 +5.1499999302155048e+00 -2.8526267418588290e-04 +0.0000000000000000e+00 +9.9999995931260288e-01
5.1999999999999895e+00 +8.5262515296129955e+00 +0.0000000000000000e+00 +5.1999999281612777e+00 -2.8803816399475702e-04 +0.0000000000000000e+00 +9.9999995851700751e-01
5.2499999999999893e+00 +8.5262370583143152e+00 +0.0000000000000000e+00 +5.2499999260670771e+00 -2.9081380920744672e-04 +0.0000000000000000e+00 +9.9999995771366368e-01
5.2999999999999892e+00 +8.5262224482294720e+00 +0.0000000000000000e+00 +5.2999999239325151e+00 -2.9358961066521319e-04 +0.0000000000000000e+00 +9.9999995690256971e-01
5.3499999999999890e+00 +8.5262076993506319e+00 +0.0000000000000000e+00 +5.3499999217572043e+00 -2.9636556919566465e-04 +0.0000000000000000e+00 +9.9999995608372416e-01
5.3999999999999888e+00 +8.5261928116699206e+00 +0.0000000000000000e+00 +5.3999999195407575e+00 -2.9914168561275629e-04 +0.0000000000000000e+00 +9.9999995525712537e-01
5.4499999999999886e+00 +8.5261777851794260e+00 +0.0000000000000000e+00 +5.4499999172827875e+00 -3.0191796071679026e-04 +0.0000000000000000e+00 +9.9999995442277190e-01
5.4999999999999885e+00 +8.5261626198711919e+00 +0.0000000000000000e+00 +5.4999999149829053e+00 -3.0469439529441558e-04 +0.0000000000000000e+00 +9.9999995358066207e-01
5.5499999999999883e+00 +8.5261473157372265e+00 +0.0000000000000000e+00 +5.5499999126407245e+00 -3.0747099011862805e-04 +0.0000000000000000e+00 +9.9999995273079445e-01
5.5999999999999881e+00 +8.5261318727694970e+00 +0.0000000000000000e+00 +5.5999999102558560e+00 -3.1024774594877035e-04 +0.0000000000000000e+00 +9.9999995187316737e-01
5.6499999999999879e+00 +8.5261162909599353e+00 +0.0000000000000000e+00 +5.6499999078279117e+00 -3.1302466353053186e-04 +0.0000000000000000e+00 +9.9999995100777928e-01
5.6999999999999877e+00 +8.5261005703004358e+00 +0.0000000000000000e+00 +5.6999999053565045e+00 -3.1580174359594864e-04 +0.0000000000000000e+00 +9.9999995013462861e-01
5.7499999999999876e+00 +8.5260847107828557e+00 +0.0000000000000000e+00 +5.7499999028412452e+00 -3.1857898686340330e-04 +0.0000000000000000e+00 +9.9999994925371372e-01
5.7999999999999874e+00 +8.5260687123990184e+00 +0.0000000000000000e+00 +5.7999999002817466e+00 -3.2135639403762503e-04 +0.0000000000000000e+00 +9.9999994836503314e-01
5.8499999999999872e+00 +8.5260525751407101e+00 +0.0000000000000000e+00 +5.8499998976776197e+00 -3.2413396580968960e-04 +0.0000000000000000e+00 +9.9999994746858523e-01
5.8999999999999870e+00 +8.5260362989996832e+00 +0.0000000000000000e+00 +5.8999998950284755e+00 -3.2691170285701910e-04 +0.0000000000000000e+00 +9.9999994656436830e-01
