# field on trajectory
# s[mm] rx[mm] ry[mm] rz[mm] bx[T] by[T] bz[T]
-0.0000000000000000e+00 +8.5270000000000206e+00 +0.0000000000000000e+00 -0.0000000000000000e+00 -3.1488394363305305e-02 -5.7801363996366817e-01 +5.8806148938775182e-03
-5.0000000000000003e-02 +8.5269999309457507e+00 +0.0000000000000000e+00 -4.9999999999936401e-02 -3.1488386161228718e-02 -5.7801379522829299e-01 +5.8784520852529594e-03
-1.0000000000000001e-01 +8.5269997237846802e+00 +0.0000000000000000e+00 -9.9999999999491399e-02 -3.1488397811329727e-02 -5.7801435075728380e-01 +5.8762943507252802e-03
-1.4999999999999999e-01 +8.5269993785186706e+00 +0.0000000000000000e+00 -1.4999999999828301e-01 -3.1488429273374509e-02 -5.7801530567709825e-01 +5.8741417856062288e-03
-2.0000000000000001e-01 +8.5269988951477007e+00 +0.0000000000000000e+00 -1.9999999999593099e-01 -3.1488480507130656e-02 -5.7801665911422284e-01 +5.8719944852079408e-03
-2.5000000000000000e-01 +8.5269982736681396e+00 +0.0000000000000000e+00 -2.4999999999205300e-01 -3.1488551472367912e-02 -5.7801841019518907e-01 +5.8698525448430613e-03
-2.9999999999999999e-01 +8.5269975140799907e+00 +0.0000000000000000e+00 -2.9999999998626697e-01 -3.1488642128855493e-02 -5.7802055804651598e-01 +5.8677160598242161e-03
-3.4999999999999998e-01 +8.5269966163905302e+00 +0.0000000000000000e+00 -3.4999999997819298e-01 -3.1488752436360803e-02 -5.7802310179468530e-01 +5.8655851254637422e-03
-4.0000000000000002e-01 +8.5269955805888493e+00 +0.0000000000000000e+00 -3.9999999996744801e-01 -3.1488882354658868e-02 -5.7802604056633233e-01 +5.8634598370756472e-03
-4.5000000000000001e-01 +8.5269944066858407e+00 +0.0000000000000000e+00 -4.4999999995365197e-01 -3.1489031843517583e-02 -5.7802937348794337e-01 +5.8613402899725412e-03
-5.0000000000000000e-01 +8.5269930946742498e+00 +0.0000000000000000e+00 -4.9999999993642202e-01 -3.1489200862712549e-02 -5.7803309968615824e-01 +5.8592265794687451e-03
-5.5000000000000004e-01 +8.5269916445577092e+00 +0.0000000000000000e+00 -5.4999999991537796e-01 -3.1489389372016369e-02 -5.7803721828755095e-01 +5.8571188008780303e-03
-5.9999999999999998e-01 +8.5269900563289394e+00 +0.0000000000000000e+00 -5.9999999989013697e-01 -3.1489597331206730e-02 -5.7804172841879553e-01 +5.8550170495153490e-03
-6.5000000000000002e-01 +8.5269883299988596e+00 +0.0000000000000000e+00 -6.4999999986031898e-01 -3.1489824700055680e-02 -5.7804662920644279e-01 +5.8529214206945639e-03
-6.9999999999999996e-01 +8.5269864655601904e+00 +0.0000000000000000e+00 -6.9999999982554195e-01 -3.1490071438343092e-02 -5.7805191977719828e-01 +5.8508320097312898e-03
-7.5000000000000000e-01 +8.5269844630165608e+00 +0.0000000000000000e+00 -7.4999999978542398e-01 -3.1490337505846046e-02 -5.7805759925770195e-01 +5.8487489119406532e-03
-8.0000000000000004e-01 +8.5269823223679904e+00 +0.0000000000000000e+00 -7.9999999973958402e-01 -3.1490622862344129e-02 -5.7806366677463661e-01 +5.8466722226384119e-03
-8.4999999999999998e-01 +8.5269800436108198e+00 +0.0000000000000000e+00 -8.4999999968764095e-01 -3.1490927467619528e-02 -5.7807012145472969e-01 +5.8446020371409942e-03
-9.0000000000000002e-01 +8.5269776267450705e+00 +0.0000000000000000e+00 -8.9999999962921295e-01 -3.1491251281454372e-02 -5.7807696242469686e-01 +5.8425384507649154e-03
-9.4999999999999996e-01 +8.5269750717743609e+00 +0.0000000000000000e+00 -9.4999999956391801e-01 -3.1491594263630761e-02 -5.7808418881124246e-01 +5.8404815588268145e-03
-1.0000000000000000e+00 +8.5269723786986997e+00 +0.0000000000000000e+00 -9.9999999949137597e-01 -3.1491956373933504e-02 -5.7809179974111524e-01 +5.8384314566440141e-03
-1.0500000000000000e+00 +8.5269695475144491e+00 +0.0000000000000000e+00 -1.0499999994111999e+00 -3.1492337572150135e-02 -5.7809979434110692e-01 +5.8363882395345281e-03
-1.1000000000000001e+00 +8.5269665782288904e+00 +0.0000000000000000e+00 -1.0999999993230201e+00 -3.1492737818065657e-02 -5.7810817173794360e-01 +5.8343520028159707e-03
-1.1499999999999999e+00 +8.5269634708311095e+00 +0.0000000000000000e+00 -1.1499999992264500e+00 -3.1493157071473162e-02 -5.7811693105850526e-01 +5.8323228418077702e-03
-1.2000000000000000e+00 +8.5269602253283701e+00 +0.0000000000000000e+00 -1.1999999991210999e+00 -3.1493595292160600e-02 -5.7812607142955019e-01 +5.8303008518284264e-03
-1.2500000000000000e+00 +8.5269568417206791e+00 +0.0000000000000000e+00 -1.2499999990065900e+00 -3.1494052439920185e-02 -5.7813559197790798e-01 +5.8282861281974485e-03
-1.3000000000000000e+00 +8.5269533200044005e+00 +0.0000000000000000e+00 -1.2999999988825499e+00 -3.1494528474546972e-02 -5.7814549183045205e-01 +5.8262787662350900e-03
-1.3500000000000001e+00 +8.5269496601795307e+00 +0.0000000000000000e+00 -1.3499999987485900e+00 -3.1495023355836378e-02 -5.7815577011404529e-01 +5.8242788612618097e-03
-1.3999999999999999e+00 +8.5269458622533403e+00 +0.0000000000000000e+00 -1.3999999986043401e+00 -3.1495537043582780e-02 -5.7816642595551038e-01 +5.8222865085980086e-03
-1.4500000000000000e+00 +8.5269419262185693e+00 +0.0000000000000000e+00 -1.4499999984494001e+00 -3.1496069497587598e-02 -5.7817745848179680e-01 +5.8203018035656888e-03
-1.5000000000000000e+00 +8.5269378520752106e+00 +0.0000000000000000e+00 -1.4999999982833900e+00 -3.1496620677651313e-02 -5.7818886681981618e-01 +5.8183248414868140e-03
-1.5500000000000000e+00 +8.5269336398268898e+00 +0.0000000000000000e+00 -1.5499999981059500e+00 -3.1497190543574888e-02 -5.7820065009646726e-01 +5.8163557176835997e-03
-1.6000000000000001e+00 +8.5269292894736299e+00 +0.0000000000000000e+00 -1.5999999979166799e+00 -3.1497779055162378e-02 -5.7821280743869385e-01 +5.8143945274790679e-03
-1.6499999999999999e+00 +8.5269248010117700e+00 +0.0000000000000000e+00 -1.6499999977152000e+00 -3.1498386172221067e-02 -5.7822533797348308e-01 +5.8124413661970568e-03
-1.7000000000000000e+00 +8.5269201744449692e+00 +0.0000000000000000e+00 -1.6999999975011300e+00 -3.1499011854557439e-02 -5.7823824082778241e-01 +5.8104963291614204e-03
-1.7500000000000000e+00 +8.5269154097695701e+00 +0.0000000000000000e+00 -1.7499999972740901e+00 -3.1499656061982587e-02 -5.7825151512861228e-01 +5.8085595116971166e-03
-1.8000000000000000e+00 +8.5269105069892195e+00 +0.0000000000000000e+00 -1.7999999970336999e+00 -3.1500318754306901e-02 -5.7826516000295203e-01 +5.8066310091291424e-03
-1.8500000000000001e+00 +8.5269054661039299e+00 +0.0000000000000000e+00 -1.8499999967795799e+00 -3.1500999891344104e-02 -5.7827917457782674e-01 +5.8047109167833457e-03
-1.8999999999999999e+00 +8.5269002871100401e+00 +0.0000000000000000e+00 -1.8999999965113501e+00 -3.1501699432911305e-02 -5.7829355798030380e-01 +5.8027993299864583e-03
-1.9500000000000000e+00 +8.5268949700112007e+00 +0.0000000000000000e+00 -1.9499999962286201e+00 -3.1502417338825014e-02 -5.7830830933741240e-01 +5.8008963440652700e-03
-2.0000000000000000e+00 +8.5268895148037700e+00 +0.0000000000000000e+00 -1.9999999959310100e+00 -3.1503153568906532e-02 -5.7832342777625301e-01 +5.7990020543477287e-03
-2.0499999999999998e+00 +8.5268839213858900e+00 +0.0000000000000000e+00 -2.0499999956181298e+00 -3.1503908039593367e-02 -5.7833891220211453e-01 +5.7971165518078405e-03
-2.1000000000000001e+00 +8.5268781896593300e+00 +0.0000000000000000e+00 -2.0999999952895898e+00 -3.1504680493634564e-02 -5.7835476062998392e-01 +5.7952399099723004e-03
-2.1499999999999999e+00 +8.5268723196240899e+00 +0.0000000000000000e+00 -2.1499999949449999e+00 -3.1505470630321261e-02 -5.7837097085154221e-01 +5.7933721979990605e-03
-2.2000000000000002e+00 +8.5268663112729008e+00 +0.0000000000000000e+00 -2.1999999945839801e+00 -3.1506278148947651e-02 -5.7838754065853870e-01 +5.7915134850470822e-03
-2.2500000000000000e+00 +8.5268601646093902e+00 +0.0000000000000000e+00 -2.2499999942061502e+00 -3.1507102748804125e-02 -5.7840446784265342e-01 +5.7896638402750037e-03
-2.2999999999999998e+00 +8.5268538796335598e+00 +0.0000000000000000e+00 -2.2999999938111202e+00 -3.1507944129182591e-02 -5.7842175019560593e-01 +5.7878233328421957e-03
-2.3500000000000001e+00 +8.5268474563490599e+00 +0.0000000000000000e+00 -2.3499999933985198e+00 -3.1508801989373718e-02 -5.7843938550910035e-01 +5.7859920319082324e-03
-2.3999999999999999e+00 +8.5268408947522403e+00 +0.0000000000000000e+00 -2.3999999929679601e+00 -3.1509676028670941e-02 -5.7845737157490940e-01 +5.7841700066337109e-03
-2.4500000000000002e+00 +8.5268341948467405e+00 +0.0000000000000000e+00 -2.4499999925190501e+00 -3.1510565946364949e-02 -5.7847570618476152e-01 +5.7823573261791576e-03
-2.5000000000000000e+00 +8.5268273566252901e+00 +0.0000000000000000e+00 -2.4999999920514302e+00 -3.1511471441750351e-02 -5.7849438713048085e-01 +5.7805540597063816e-03
-2.5499999999999998e+00 +8.5268203800987994e+00 +0.0000000000000000e+00 -2.5499999915646900e+00 -3.1512392214114893e-02 -5.7851341220376440e-01 +5.7787602763763246e-03
-2.6000000000000001e+00 +8.5268132652563509e+00 +0.0000000000000000e+00 -2.5999999910584699e+00 -3.1513327962754134e-02 -5.7853277919648682e-01 +5.7769760453520169e-03
-2.6499999999999999e+00 +8.5268060121015896e+00 +0.0000000000000000e+00 -2.6499999905323701e+00 -3.1514278386957972e-02 -5.7855248590042418e-01 +5.7752014357958870e-03
-2.7000000000000002e+00 +8.5267986206345103e+00 +0.0000000000000000e+00 -2.6999999899860101e+00 -3.1515243186017165e-02 -5.7857253010738974e-01 +5.7734365168711039e-03
-2.7500000000000000e+00 +8.5267910908551094e+00 +0.0000000000000000e+00 -2.7499999894190199e+00 -3.1516222059222158e-02 -5.7859290960920950e-01 +5.7716813577413225e-03
-2.7999999999999998e+00 +8.5267834227670392e+00 +0.0000000000000000e+00 -2.7999999888310101e+00 -3.1517214705861427e-02 -5.7861362219769141e-01 +5.7699360275703937e-03
-2.8500000000000001e+00 +8.5267756163666508e+00 +0.0000000000000000e+00 -2.8499999882215898e+00 -3.1518220825225575e-02 -5.7863466566471000e-01 +5.7682005955231935e-03
-2.8999999999999999e+00 +8.5267676716539391e+00 +0.0000000000000000e+00 -2.8999999875903901e+00 -3.1519240116603224e-02 -5.7865603780212238e-01 +5.7664751307647940e-03
-2.9500000000000002e+00 +8.5267595886289200e+00 +0.0000000000000000e+00 -2.9499999869370299e+00 -3.1520272279282224e-02 -5.7867773640179598e-01 +5.7647597024607497e-03
-3.0000000000000000e+00 +8.5267513672915793e+00 +0.0000000000000000e+00 -2.9999999862611100e+00 -3.1521317012549621e-02 -5.7869975925560857e-01 +5.7630543797770892e-03
-3.0499999999999998e+00 +8.5267430076455604e+00 +0.0000000000000000e+00 -3.0499999855622502e+00 -3.1522374015690260e-02 -5.7872210415541914e-01 +5.7613592318800592e-03
-3.1000000000000001e+00 +8.5267345096872305e+00 +0.0000000000000000e+00 -3.0999999848400801e+00 -3.1523442987990716e-02 -5.7874476889315329e-01 +5.7596743279369027e-03
-3.1499999999999999e+00 +8.5267258734165807e+00 +0.0000000000000000e+00 -3.1499999840942201e+00 -3.1524523628735208e-02 -5.7876775126071700e-01 +5.7579997371150883e-03
-3.2000000000000002e+00 +8.5267170988336094e+00 +0.0000000000000000e+00 -3.1999999833242700e+00 -3.1525615637206884e-02 -5.7879104905002698e-01 +5.7563355285825506e-03
-3.2500000000000000e+00 +8.5267081859419704e+00 +0.0000000000000000e+00 -3.2499999825298600e+00 -3.1526718712686336e-02 -5.7881466005297977e-01 +5.7546817715074389e-03
-3.2999999999999998e+00 +8.5266991347380099e+00 +0.0000000000000000e+00 -3.2999999817106000e+00 -3.1527832554455695e-02 -5.7883858206153815e-01 +5.7530385350589176e-03
-3.3500000000000001e+00 +8.5266899452181004e+00 +0.0000000000000000e+00 -3.3499999808661101e+00 -3.1528956861795729e-02 -5.7886281286767216e-01 +5.7514058884066185e-03
-3.3999999999999999e+00 +8.5266806173895002e+00 +0.0000000000000000e+00 -3.3999999799960099e+00 -3.1530091333981852e-02 -5.7888735026327831e-01 +5.7497839007198681e-03
-3.4500000000000002e+00 +8.5266711512522306e+00 +0.0000000000000000e+00 -3.4499999790999101e+00 -3.1531235670290682e-02 -5.7891219204031652e-01 +5.7481726411689896e-03
-3.5000000000000000e+00 +8.5266615468026394e+00 +0.0000000000000000e+00 -3.4999999781774398e+00 -3.1532389569998695e-02 -5.7893733599078290e-01 +5.7465721789250572e-03
-3.5499999999999998e+00 +8.5266518040407409e+00 +0.0000000000000000e+00 -3.5499999772282100e+00 -3.1533552732379455e-02 -5.7896277990665368e-01 +5.7449825831593524e-03
-3.6000000000000001e+00 +8.5266419229665207e+00 +0.0000000000000000e+00 -3.5999999762518402e+00 -3.1534724856704881e-02 -5.7898852157991321e-01 +5.7434039230436426e-03
-3.6499999999999999e+00 +8.5266319035799807e+00 +0.0000000000000000e+00 -3.6499999752479400e+00 -3.1535905642245128e-02 -5.7901455880255348e-01 +5.7418362677501712e-03
-3.6999999999999900e+00 +8.5266217458847695e+00 +0.0000000000000000e+00 -3.6999999742161398e+00 -3.1537094788267245e-02 -5.7904088936654585e-01 +5.7402796864513914e-03
-3.7499999999999898e+00 +8.5266114498736005e+00 +0.0000000000000000e+00 -3.7499999731560498e+00 -3.1538291994040471e-02 -5.7906751106395382e-01 +5.7387342483210388e-03
-3.7999999999999901e+00 +8.5266010155537497e+00 +0.0000000000000000e+00 -3.7999999720672801e+00 -3.1539496958826699e-02 -5.7909442168673497e-01 +5.7372000225322647e-03
-3.8499999999999899e+00 +8.5265904429179500e+00 +0.0000000000000000e+00 -3.8499999709494599e+00 -3.1540709381891220e-02 -5.7912161902696613e-01 +5.7356770782597526e-03
-3.8999999999999901e+00 +8.5265797319771099e+00 +0.0000000000000000e+00 -3.8999999698022001e+00 -3.1541928962490508e-02 -5.7914910087659177e-01 +5.7341654846773610e-03
-3.9499999999999900e+00 +8.5265688827203103e+00 +0.0000000000000000e+00 -3.9499999686251202e+00 -3.1543155399887016e-02 -5.7917686502773036e-01 +5.7326653109609936e-03
-3.9999999999999898e+00 +8.5265578951548395e+00 +0.0000000000000000e+00 -3.9999999674178399e+00 -3.1544388393334184e-02 -5.7920490927236612e-01 +5.7311766262857266e-03
-4.0499999999999901e+00 +8.5265467692734092e+00 +0.0000000000000000e+00 -4.0499999661799704e+00 -3.1545627692626109e-02 -5.7923323130109472e-01 +5.7296994868396619e-03
-4.0999999999999899e+00 +8.5265355050833005e+00 +0.0000000000000000e+00 -4.0999999649111301e+00 -3.1546873249700534e-02 -5.7926182839837315e-01 +5.7282338968562404e-03
-4.1499999999999897e+00 +8.5265241025808791e+00 +0.0000000000000000e+00 -4.1499999636109504e+00 -3.1548125067037261e-02 -5.7929069774723529e-01 +5.7267798475816901e-03
-4.1999999999999904e+00 +8.5265125617697795e+00 +0.0000000000000000e+00 -4.1999999622790298e+00 -3.1549383147114043e-02 -5.7931983653066110e-01 +5.7253373302622841e-03
-4.2499999999999902e+00 +8.5265008826427202e+00 +0.0000000000000000e+00 -4.2499999609149901e+00 -3.1550647492413396e-02 -5.7934924193171511e-01 +5.7239063361456365e-03
-4.2999999999999901e+00 +8.5264890652069898e+00 +0.0000000000000000e+00 -4.2999999595184599e+00 -3.1551918105413003e-02 -5.7937891113335060e-01 +5.7224868564788971e-03
-4.3499999999999899e+00 +8.5264771094589396e+00 +0.0000000000000000e+00 -4.3499999580890396e+00 -3.1553194988595420e-02 -5.7940884131860493e-01 +5.7210788825105647e-03
-4.3999999999999897e+00 +8.5264650153985695e+00 +0.0000000000000000e+00 -4.3999999566263703e+00 -3.1554478144442455e-02 -5.7943902967048744e-01 +5.7196824054894513e-03
-4.4499999999999904e+00 +8.5264527830295300e+00 +0.0000000000000000e+00 -4.4499999551300400e+00 -3.1555767575435378e-02 -5.7946947337197996e-01 +5.7182974166646921e-03
-4.4999999999999902e+00 +8.5264404123481707e+00 +0.0000000000000000e+00 -4.4999999535996897e+00 -3.1557063284058905e-02 -5.7950016960611861e-01 +5.7169239072865172e-03
-4.5499999999999901e+00 +8.5264279033544899e+00 +0.0000000000000000e+00 -4.5499999520349199e+00 -3.1558365272797172e-02 -5.7953111555591175e-01 +5.7155618686054836e-03
-4.5999999999999899e+00 +8.5264152560448601e+00 +0.0000000000000000e+00 -4.5999999504353601e+00 -3.1559673544136482e-02 -5.7956230840439316e-01 +5.7142112918729939e-03
-4.6499999999999897e+00 +8.5264024704301793e+00 +0.0000000000000000e+00 -4.6499999488006196e+00 -3.1560988100558553e-02 -5.7959374533448416e-01 +5.7128721683399903e-03
-4.6999999999999904e+00 +8.5263895464995603e+00 +0.0000000000000000e+00 -4.6999999471303298e+00 -3.1562308944554085e-02 -5.7962542352927182e-01 +5.7115444892595780e-03
-4.7499999999999902e+00 +8.5263764842602505e+00 +0.0000000000000000e+00 -4.7499999454240900e+00 -3.1563636078607835e-02 -5.7965734017170079e-01 +5.7102282458841476e-03
-4.7999999999999901e+00 +8.5263632837050007e+00 +0.0000000000000000e+00 -4.7999999436815299e+00 -3.1564969505210927e-02 -5.7968949244482559e-01 +5.7089234294677308e-03
-4.8499999999999899e+00 +8.5263499448447000e+00 +0.0000000000000000e+00 -4.8499999419022597e+00 -3.1566309226848596e-02 -5.7972187753155835e-01 +5.7076300312636549e-03
-4.8999999999999897e+00 +8.5263364676684397e+00 +0.0000000000000000e+00 -4.8999999400859000e+00 -3.1567655246015097e-02 -5.7975449261497447e-01 +5.7063480425274095e-03
-4.9499999999999904e+00 +8.5263228521798702e+00 +0.0000000000000000e+00 -4.9499999382320699e+00 -3.1569007565200306e-02 -5.7978733487803547e-01 +5.7050774545140456e-03
-4.9999999999999902e+00 +8.5263090983826295e+00 +0.0000000000000000e+00 -4.9999999363403900e+00 -3.1570366186895016e-02 -5.7982040150369885e-01 +5.7038182584792270e-03
-5.0499999999999901e+00 +8.5262952059529198e+00 +0.0000000000000000e+00 -5.0499999344103799e+00 -3.1571731113713114e-02 -5.7985368967742923e-01 +5.7025704457025206e-03
-5.0999999999999899e+00 +8.5262811745706095e+00 +0.0000000000000000e+00 -5.0999999324415599e+00 -3.1573102348268239e-02 -5.7988719658465981e-01 +5.7013340074637941e-03
-5.1499999999999897e+00 +8.5262670042357094e+00 +0.0000000000000000e+00 -5.1499999304335597e+00 -3.1574479893055785e-02 -5.7992091940836699e-01 +5.7001089350207325e-03
-5.1999999999999904e+00 +8.5262526949518396e+00 +0.0000000000000000e+00 -5.1999999283859903e+00 -3.1575863750570816e-02 -5.7995485533149282e-01 +5.6988952196313884e-03
-5.2499999999999902e+00 +8.5262382467153692e+00 +0.0000000000000000e+00 -5.2499999262984600e+00 -3.1577253923312211e-02 -5.7998900153703103e-01 +5.6976928525549423e-03
-5.2999999999999901e+00 +8.5262236595299292e+00 +0.0000000000000000e+00 -5.2999999241705797e+00 -3.1578650413777248e-02 -5.8002335520791282e-01 +5.6965018250506932e-03
-5.3499999999999899e+00 +8.5262089333882596e+00 +0.0000000000000000e+00 -5.3499999220019703e+00 -3.1580053224468413e-02 -5.8005791352714775e-01 +5.6953221283793367e-03
-5.3999999999999897e+00 +8.5261940682976292e+00 +0.0000000000000000e+00 -5.3999999197922497e+00 -3.1581462357883887e-02 -5.8009267367762785e-01 +5.6941537538011729e-03
-5.4499999999999904e+00 +8.5261790642507496e+00 +0.0000000000000000e+00 -5.4499999175410201e+00 -3.1582877816528451e-02 -5.8012763284234947e-01 +5.6929966925781559e-03
-5.4999999999999902e+00 +8.5261639212585596e+00 +0.0000000000000000e+00 -5.4999999152479004e+00 -3.1584299602901350e-02 -5.8016278820416345e-01 +5.6918509359716032e-03
-5.5499999999999901e+00 +8.5261486393137602e+00 +0.0000000000000000e+00 -5.5499999129125097e+00 -3.1585727719509744e-02 -5.8019813694605249e-01 +5.6907164752447387e-03
-5.5999999999999899e+00 +8.5261332184127205e+00 +0.0000000000000000e+00 -5.5999999105344500e+00 -3.1587162168860754e-02 -5.8023367625096434e-01 +5.6895933016611888e-03
-5.6499999999999897e+00 +8.5261176585627307e+00 +0.0000000000000000e+00 -5.6499999081133403e+00 -3.1588602953458618e-02 -5.8026940330175414e-01 +5.6884814064844403e-03
-5.6999999999999904e+00 +8.5261019597637606e+00 +0.0000000000000000e+00 -5.6999999056488004e+00 -3.1590050075811629e-02 -5.8030531528132601e-01 +5.6873807809791482e-03
-5.7499999999999902e+00 +8.5260861220122006e+00 +0.0000000000000000e+00 -5.7499999031404396e+00 -3.1591503538430696e-02 -5.8034140937260237e-01 +5.6862914164108663e-03
-5.7999999999999901e+00 +8.5260701453080401e+00 +0.0000000000000000e+00 -5.7999999005878804e+00 -3.1592963343826719e-02 -5.8037768275847079e-01 +5.6852133040455532e-03
-5.8499999999999899e+00 +8.5260540296512808e+00 +0.0000000000000000e+00 -5.8499998979907204e+00 -3.1594429494511918e-02 -5.8041413262180774e-01 +5.6841464351498096e-03
