# trajectory
# s[mm] rx[mm] ry[mm] rz[mm] px[rad] py[rad] pz[rad]
0.0000000000000000e+00 +8.3650000000000002e+00 +0.0000000000000000e+00 +0.0000000000000000e+00 +0.0000000000000000e+00 +0.0000000000000000e+00 +1.0000000000000000e+00
-5.0000000000000003e-02 +8.3649999309724823e+00 +0.0000000000000000e+00 -4.9999999999936463e-02 +2.7611012694997604e-06 +0.0000000000000000e+00 +9.9999999999618816e-01
-1.0000000000000001e-01 +8.3649997238898024e+00 +0.0000000000000000e+00 -9.9999999999491745e-02 +5.5222067680761333e-06 +0.0000000000000000e+00 +9.9999999998475264e-01
-1.5000000000000002e-01 +8.3649993787517047e+00 +0.0000000000000000e+00 -1.4999999999828467e-01 +8.2833182727518207e-06 +0.0000000000000000e+00 +9.9999999996569333e-01
-2.0000000000000001e-01 +8.3649988955578447e+00 +0.0000000000000000e+00 -1.9999999999593404e-01 +1.1044437557500731e-05 +0.0000000000000000e+00 +9.9999999993901023e-01
-2.5000000000000000e-01 +8.3649982743077889e+00 +0.0000000000000000e+00 -2.4999999999205863e-01 +1.3805566393248060e-05 +0.0000000000000000e+00 +9.9999999990470323e-01
-2.9999999999999999e-01 +8.3649975150010167e+00 +0.0000000000000000e+00 -2.9999999998627730e-01 +1.6566706547870375e-05 +0.0000000000000000e+00 +9.9999999986277222e-01
-3.4999999999999998e-01 +8.3649966176369173e+00 +0.0000000000000000e+00 -3.4999999997820880e-01 +1.9327859786195703e-05 +0.0000000000000000e+00 +9.9999999981321697e-01
-3.9999999999999997e-01 +8.3649955822147906e+00 +0.0000000000000000e+00 -3.9999999996747193e-01 +2.2089027870003605e-05 +0.0000000000000000e+00 +9.9999999975603748e-01
-4.4999999999999996e-01 +8.3649944087338532e+00 +0.0000000000000000e+00 -4.4999999995368545e-01 +2.4850212558025259e-05 +0.0000000000000000e+00 +9.9999999969123354e-01
-4.9999999999999994e-01 +8.3649930971932296e+00 +0.0000000000000000e+00 -4.9999999993646815e-01 +2.7611415605943551e-05 +0.0000000000000000e+00 +9.9999999961880492e-01
-5.4999999999999993e-01 +8.3649916475919586e+00 +0.0000000000000000e+00 -5.4999999991543880e-01 +3.0372638766393149e-05 +0.0000000000000000e+00 +9.9999999953875152e-01
-5.9999999999999998e-01 +8.3649900599289886e+00 +0.0000000000000000e+00 -5.9999999989021613e-01 +3.3133883788960583e-05 +0.0000000000000000e+00 +9.9999999945107299e-01
-6.5000000000000002e-01 +8.3649883342031846e+00 +0.0000000000000000e+00 -6.4999999986041890e-01 +3.5895152420184324e-05 +0.0000000000000000e+00 +9.9999999935576911e-01
-7.0000000000000007e-01 +8.3649864704133226e+00 +0.0000000000000000e+00 -6.9999999982566585e-01 +3.8656446403554865e-05 +0.0000000000000000e+00 +9.9999999925283967e-01
-7.5000000000000011e-01 +8.3649844685580916e+00 +0.0000000000000000e+00 -7.4999999978557574e-01 +4.1417767479514809e-05 +0.0000000000000000e+00 +9.9999999914228432e-01
-8.0000000000000016e-01 +8.3649823286360938e+00 +0.0000000000000000e+00 -7.9999999973976721e-01 +4.4179117385458929e-05 +0.0000000000000000e+00 +9.9999999902410286e-01
-8.5000000000000020e-01 +8.3649800506458440e+00 +0.0000000000000000e+00 -8.4999999968785889e-01 +4.6940497855734267e-05 +0.0000000000000000e+00 +9.9999999889829494e-01
-9.0000000000000024e-01 +8.3649776345857703e+00 +0.0000000000000000e+00 -8.9999999962946953e-01 +4.9701910621640204e-05 +0.0000000000000000e+00 +9.9999999876486012e-01
-9.5000000000000029e-01 +8.3649750804542151e+00 +0.0000000000000000e+00 -9.4999999956421777e-01 +5.2463357411428526e-05 +0.0000000000000000e+00 +9.9999999862379818e-01
-1.0000000000000002e+00 +8.3649723882494342e+00 +0.0000000000000000e+00 -9.9999999949172225e-01 +5.5224839950303516e-05 +0.0000000000000000e+00 +9.9999999847510868e-01
-1.0500000000000003e+00 +8.3649695579695962e+00 +0.0000000000000000e+00 -1.0499999994116016e+00 +5.7986359960422028e-05 +0.0000000000000000e+00 +9.9999999831879116e-01
-1.1000000000000003e+00 +8.3649665896127843e+00 +0.0000000000000000e+00 -1.0999999993234744e+00 +6.0747919160893549e-05 +0.0000000000000000e+00 +9.9999999815484530e-01
-1.1500000000000004e+00 +8.3649634831769983e+00 +0.0000000000000000e+00 -1.1499999992269589e+00 +6.3509519267780296e-05 +0.0000000000000000e+00 +9.9999999798327066e-01
-1.2000000000000004e+00 +8.3649602386601476e+00 +0.0000000000000000e+00 -1.1999999991216741e+00 +6.6271161994097271e-05 +0.0000000000000000e+00 +9.9999999780406668e-01
-1.2500000000000004e+00 +8.3649568560600596e+00 +0.0000000000000000e+00 -1.2499999990072383e+00 +6.9032849049812363e-05 +0.0000000000000000e+00 +9.9999999761723302e-01
-1.3000000000000005e+00 +8.3649533353744747e+00 +0.0000000000000000e+00 -1.2999999988832702e+00 +7.1794582141846376e-05 +0.0000000000000000e+00 +9.9999999742276913e-01
-1.3500000000000005e+00 +8.3649496766010500e+00 +0.0000000000000000e+00 -1.3499999987493880e+00 +7.4556362974073157e-05 +0.0000000000000000e+00 +9.9999999722067456e-01
-1.4000000000000006e+00 +8.3649458797373537e+00 +0.0000000000000000e+00 -1.3999999986052103e+00 +7.7318193247319616e-05 +0.0000000000000000e+00 +9.9999999701094866e-01
-1.4500000000000006e+00 +8.3649419447808722e+00 +0.0000000000000000e+00 -1.4499999984503555e+00 +8.0080074659365854e-05 +0.0000000000000000e+00 +9.9999999679359097e-01
-1.5000000000000007e+00 +8.3649378717290066e+00 +0.0000000000000000e+00 -1.4999999982844421e+00 +8.2842008904945185e-05 +0.0000000000000000e+00 +9.9999999656860095e-01
-1.5500000000000007e+00 +8.3649336605790729e+00 +0.0000000000000000e+00 -1.5499999981070884e+00 +8.5603997675744238e-05 +0.0000000000000000e+00 +9.9999999633597791e-01
-1.6000000000000008e+00 +8.3649293113283019e+00 +0.0000000000000000e+00 -1.5999999979179127e+00 +8.8366042660403016e-05 +0.0000000000000000e+00 +9.9999999609572132e-01
-1.6500000000000008e+00 +8.3649248239738423e+00 +0.0000000000000000e+00 -1.6499999977165334e+00 +9.1128145544514970e-05 +0.0000000000000000e+00 +9.9999999584783061e-01
-1.7000000000000008e+00 +8.3649201985127544e+00 +0.0000000000000000e+00 -1.6999999975025686e+00 +9.3890308010627078e-05 +0.0000000000000000e+00 +9.9999999559230512e-01
-1.7500000000000009e+00 +8.3649154349420201e+00 +0.0000000000000000e+00 -1.7499999972756366e+00 +9.6652531738239888e-05 +0.0000000000000000e+00 +9.9999999532914419e-01
-1.8000000000000009e+00 +8.3649105332585325e+00 +0.0000000000000000e+00 -1.7999999970353557e+00 +9.9414818403807621e-05 +0.0000000000000000e+00 +9.9999999505834702e-01
-1.8500000000000010e+00 +8.3649054934591032e+00 +0.0000000000000000e+00 -1.8499999967813441e+00 +1.0217716968073822e-04 +0.0000000000000000e+00 +9.9999999477991308e-01
-1.9000000000000010e+00 +8.3649003155404600e+00 +0.0000000000000000e+00 -1.8999999965132197e+00 +1.0493958723939342e-04 +0.0000000000000000e+00 +9.9999999449384158e-01
-1.9500000000000011e+00 +8.3648949994992474e+00 +0.0000000000000000e+00 -1.9499999962306009e+00 +1.0770207274708882e-04 +0.0000000000000000e+00 +9.9999999420013186e-01
-2.0000000000000009e+00 +8.3648895453320264e+00 +0.0000000000000000e+00 -1.9999999959331056e+00 +1.1046462786809396e-04 +0.0000000000000000e+00 +9.9999999389878313e-01
-2.0500000000000007e+00 +8.3648839530352728e+00 +0.0000000000000000e+00 -2.0499999956203521e+00 +1.1322725426337013e-04 +0.0000000000000000e+00 +9.9999999358979463e-01
-2.1000000000000005e+00 +8.3648782226053839e+00 +0.0000000000000000e+00 -2.0999999952919577e+00 +1.1598995358768595e-04 +0.0000000000000000e+00 +9.9999999327316547e-01
-2.1500000000000004e+00 +8.3648723540386705e+00 +0.0000000000000000e+00 -2.1499999949475410e+00 +1.1875272748673293e-04 +0.0000000000000000e+00 +9.9999999294889497e-01
-2.2000000000000002e+00 +8.3648663473313647e+00 +0.0000000000000000e+00 -2.1999999945867197e+00 +1.2151557759686325e-04 +0.0000000000000000e+00 +9.9999999261698236e-01
-2.2500000000000000e+00 +8.3648602024796137e+00 +0.0000000000000000e+00 -2.2499999942091118e+00 +1.2427850554508986e-04 +0.0000000000000000e+00 +9.9999999227742664e-01
-2.2999999999999998e+00 +8.3648539194794864e+00 +0.0000000000000000e+00 -2.2999999938143350e+00 +1.2704151294908655e-04 +0.0000000000000000e+00 +9.9999999193022715e-01
-2.3499999999999996e+00 +8.3648474983269683e+00 +0.0000000000000000e+00 -2.3499999934020073e+00 +1.2980460141718796e-04 +0.0000000000000000e+00 +9.9999999157538288e-01
-2.3999999999999995e+00 +8.3648409390179665e+00 +0.0000000000000000e+00 -2.3999999929717459e+00 +1.3256777254838967e-04 +0.0000000000000000e+00 +9.9999999121289296e-01
-2.4499999999999993e+00 +8.3648342415483086e+00 +0.0000000000000000e+00 -2.4499999925231690e+00 +1.3533102793234823e-04 +0.0000000000000000e+00 +9.9999999084275659e-01
-2.4999999999999991e+00 +8.3648274059137417e+00 +0.0000000000000000e+00 -2.4999999920558942e+00 +1.3809436914938124e-04 +0.0000000000000000e+00 +9.9999999046497279e-01
-2.5499999999999989e+00 +8.3648204321099353e+00 +0.0000000000000000e+00 -2.5499999915695390e+00 +1.4085779777046740e-04 +0.0000000000000000e+00 +9.9999999007954055e-01
-2.5999999999999988e+00 +8.3648133201324804e+00 +0.0000000000000000e+00 -2.5999999910637208e+00 +1.4362131535724650e-04 +0.0000000000000000e+00 +9.9999998968645898e-01
-2.6499999999999986e+00 +8.3648060699768898e+00 +0.0000000000000000e+00 -2.6499999905380571e+00 +1.4638492346201961e-04 +0.0000000000000000e+00 +9.9999998928572720e-01
-2.6999999999999984e+00 +8.3647986816386002e+00 +0.0000000000000000e+00 -2.6999999899921656e+00 +1.4914862362774896e-04 +0.0000000000000000e+00 +9.9999998887734409e-01
-2.7499999999999982e+00 +8.3647911551129681e+00 +0.0000000000000000e+00 -2.7499999894256639e+00 +1.5191241738805809e-04 +0.0000000000000000e+00 +9.9999998846130878e-01
-2.7999999999999980e+00 +8.3647834903952756e+00 +0.0000000000000000e+00 -2.7999999888381693e+00 +1.5467630626723192e-04 +0.0000000000000000e+00 +9.9999998803762014e-01
-2.8499999999999979e+00 +8.3647756874807300e+00 +0.0000000000000000e+00 -2.8499999882292988e+00 +1.5744029178021672e-04 +0.0000000000000000e+00 +9.9999998760627729e-01
-2.8999999999999977e+00 +8.3647677463644623e+00 +0.0000000000000000e+00 -2.8999999875986697e+00 +1.6020437543262021e-04 +0.0000000000000000e+00 +9.9999998716727911e-01
-2.9499999999999975e+00 +8.3647596670415272e+00 +0.0000000000000000e+00 -2.9499999869458993e+00 +1.6296855872071159e-04 +0.0000000000000000e+00 +9.9999998672062451e-01
-2.9999999999999973e+00 +8.3647514495069046e+00 +0.0000000000000000e+00 -2.9999999862706046e+00 +1.6573284313142154e-04 +0.0000000000000000e+00 +9.9999998626631248e-01
-3.0499999999999972e+00 +8.3647430937555036e+00 +0.0000000000000000e+00 -3.0499999855724029e+00 +1.6849723014234239e-04 +0.0000000000000000e+00 +9.9999998580434180e-01
-3.0999999999999970e+00 +8.3647345997821567e+00 +0.0000000000000000e+00 -3.0999999848509110e+00 +1.7126172122172804e-04 +0.0000000000000000e+00 +9.9999998533471146e-01
-3.1499999999999968e+00 +8.3647259675816237e+00 +0.0000000000000000e+00 -3.1499999841057460e+00 +1.7402631782849402e-04 +0.0000000000000000e+00 +9.9999998485742037e-01
-3.1999999999999966e+00 +8.3647171971485914e+00 +0.0000000000000000e+00 -3.1999999833365251e+00 +1.7679102141221760e-04 +0.0000000000000000e+00 +9.9999998437246740e-01
-3.2499999999999964e+00 +8.3647082884776758e+00 +0.0000000000000000e+00 -3.2499999825428652e+00 +1.7955583341313776e-04 +0.0000000000000000e+00 +9.9999998387985134e-01
-3.2999999999999963e+00 +8.3646992415634198e+00 +0.0000000000000000e+00 -3.2999999817243828e+00 +1.8232075526215528e-04 +0.0000000000000000e+00 +9.9999998337957108e-01
-3.3499999999999961e+00 +8.3646900564002955e+00 +0.0000000000000000e+00 -3.3499999808806948e+00 +1.8508578838083271e-04 +0.0000000000000000e+00 +9.9999998287162539e-01
-3.3999999999999959e+00 +8.3646807329827038e+00 +0.0000000000000000e+00 -3.3999999800114176e+00 +1.8785093418139450e-04 +0.0000000000000000e+00 +9.9999998235601317e-01
-3.4499999999999957e+00 +8.3646712713049762e+00 +0.0000000000000000e+00 -3.4499999791161682e+00 +1.9061619406672697e-04 +0.0000000000000000e+00 +9.9999998183273320e-01
-3.4999999999999956e+00 +8.3646616713613735e+00 +0.0000000000000000e+00 -3.4999999781945630e+00 +1.9338156943037838e-04 +0.0000000000000000e+00 +9.9999998130178425e-01
-3.5499999999999954e+00 +8.3646519331460869e+00 +0.0000000000000000e+00 -3.5499999772462187e+00 +1.9614706165655890e-04 +0.0000000000000000e+00 +9.9999998076316499e-01
-3.5999999999999952e+00 +8.3646420566532385e+00 +0.0000000000000000e+00 -3.5999999762707517e+00 +1.9891267212014078e-04 +0.0000000000000000e+00 +9.9999998021687431e-01
-3.6499999999999950e+00 +8.3646320418768827e+00 +0.0000000000000000e+00 -3.6499999752677783e+00 +2.0167840218665819e-04 +0.0000000000000000e+00 +9.9999997966291088e-01
-3.6999999999999948e+00 +8.3646218888110049e+00 +0.0000000000000000e+00 -3.6999999742369147e+00 +2.0444425321230748e-04 +0.0000000000000000e+00 +9.9999997910127347e-01
-3.7499999999999947e+00 +8.3646115974495228e+00 +0.0000000000000000e+00 -3.7499999731777778e+00 +2.0721022654394703e-04 +0.0000000000000000e+00 +9.9999997853196076e-01
-3.7999999999999945e+00 +8.3646011677862884e+00 +0.0000000000000000e+00 -3.7999999720899833e+00 +2.0997632351909735e-04 +0.0000000000000000e+00 +9.9999997795497153e-01
-3.8499999999999943e+00 +8.3645905998150880e+00 +0.0000000000000000e+00 -3.8499999709731472e+00 +2.1274254546594111e-04 +0.0000000000000000e+00 +9.9999997737030444e-01
-3.8999999999999941e+00 +8.3645798935296369e+00 +0.0000000000000000e+00 -3.8999999698268857e+00 +2.1550889370332315e-04 +0.0000000000000000e+00 +9.9999997677795815e-01
-3.9499999999999940e+00 +8.3645690489235900e+00 +0.0000000000000000e+00 -3.9499999686508147e+00 +2.1827536954075055e-04 +0.0000000000000000e+00 +9.9999997617793135e-01
-3.9999999999999938e+00 +8.3645580659905345e+00 +0.0000000000000000e+00 -3.9999999674445506e+00 +2.2104197427839261e-04 +0.0000000000000000e+00 +9.9999997557022258e-01
-4.0499999999999936e+00 +8.3645469447239922e+00 +0.0000000000000000e+00 -4.0499999662077091e+00 +2.2380870920685791e-04 +0.0000000000000000e+00 +9.9999997495483062e-01
-4.0999999999999934e+00 +8.3645356851174224e+00 +0.0000000000000000e+00 -4.0999999649399061e+00 +2.2657557560474100e-04 +0.0000000000000000e+00 +9.9999997433175403e-01
-4.1499999999999932e+00 +8.3645242871642189e+00 +0.0000000000000000e+00 -4.1499999636407567e+00 +2.2934257473616930e-04 +0.0000000000000000e+00 +9.9999997370099147e-01
-4.1999999999999931e+00 +8.3645127508577151e+00 +0.0000000000000000e+00 -4.1999999623098772e+00 +2.3210970785058000e-04 +0.0000000000000000e+00 +9.9999997306254151e-01
-4.2499999999999929e+00 +8.3645010761911802e+00 +0.0000000000000000e+00 -4.2499999609468828e+00 +2.3487697618272007e-04 +0.0000000000000000e+00 +9.9999997241640282e-01
-4.2999999999999927e+00 +8.3644892631578234e+00 +0.0000000000000000e+00 -4.2999999595513891e+00 +2.3764438095264632e-04 +0.0000000000000000e+00 +9.9999997176257382e-01
-4.3499999999999925e+00 +8.3644773117507913e+00 +0.0000000000000000e+00 -4.3499999581230115e+00 +2.4041192336572532e-04 +0.0000000000000000e+00 +9.9999997110105321e-01
-4.3999999999999924e+00 +8.3644652219631723e+00 +0.0000000000000000e+00 -4.3999999566613663e+00 +2.4317960461263350e-04 +0.0000000000000000e+00 +9.9999997043183964e-01
-4.4499999999999922e+00 +8.3644529937879959e+00 +0.0000000000000000e+00 -4.4499999551660681e+00 +2.4594742586935703e-04 +0.0000000000000000e+00 +9.9999996975493155e-01
-4.4999999999999920e+00 +8.3644406272182330e+00 +0.0000000000000000e+00 -4.4999999536367312e+00 +2.4871538829719192e-04 +0.0000000000000000e+00 +9.9999996907032751e-01
-4.5499999999999918e+00 +8.3644281222467942e+00 +0.0000000000000000e+00 -4.5499999520729721e+00 +2.5148349304274399e-04 +0.0000000000000000e+00 +9.9999996837802607e-01
-4.5999999999999917e+00 +8.3644154788665368e+00 +0.0000000000000000e+00 -4.5999999504744054e+00 +2.5425174123792883e-04 +0.0000000000000000e+00 +9.9999996767802568e-01
-4.6499999999999915e+00 +8.3644026970702612e+00 +0.0000000000000000e+00 -4.6499999488406463e+00 +2.5702013399997182e-04 +0.0000000000000000e+00 +9.9999996697032500e-01
-4.6999999999999913e+00 +8.3643897768507092e+00 +0.0000000000000000e+00 -4.6999999471713094e+00 +2.5978867243140814e-04 +0.0000000000000000e+00 +9.9999996625492249e-01
-4.7499999999999911e+00 +8.3643767182005710e+00 +0.0000000000000000e+00 -4.7499999454660102e+00 +2.6255735762008270e-04 +0.0000000000000000e+00 +9.9999996553181658e-01
-4.7999999999999909e+00 +8.3643635211124820e+00 +0.0000000000000000e+00 -4.7999999437243632e+00 +2.6532619063915027e-04 +0.0000000000000000e+00 +9.9999996480100584e-01
-4.8499999999999908e+00 +8.3643501855790241e+00 +0.0000000000000000e+00 -4.8499999419459829e+00 +2.6809517254707525e-04 +0.0000000000000000e+00 +9.9999996406248881e-01
-4.8999999999999906e+00 +8.3643367115927276e+00 +0.0000000000000000e+00 -4.8999999401304839e+00 +2.7086430438763185e-04 +0.0000000000000000e+00 +9.9999996331626384e-01
-4.9499999999999904e+00 +8.3643230991460698e+00 +0.0000000000000000e+00 -4.9499999382774806e+00 +2.7363358718990397e-04 +0.0000000000000000e+00 +9.9999996256232948e-01
-4.9999999999999902e+00 +8.3643093482314761e+00 +0.0000000000000000e+00 -4.9999999363865877e+00 +2.7640302196828525e-04 +0.0000000000000000e+00 +9.9999996180068418e-01
-5.0499999999999901e+00 +8.3642954588413225e+00 +0.0000000000000000e+00 -5.0499999344574205e+00 +2.7917260972247900e-04 +0.0000000000000000e+00 +9.9999996103132638e-01
-5.0999999999999899e+00 +8.3642814309679370e+00 +0.0000000000000000e+00 -5.0999999324895917e+00 +2.8194235143749817e-04 +0.0000000000000000e+00 +9.9999996025425464e-01
-5.1499999999999897e+00 +8.3642672646035958e+00 +0.0000000000000000e+00 -5.1499999304827169e+00 +2.8471224808366543e-04 +0.0000000000000000e+00 +9.9999995946946729e-01
-5.1999999999999895e+00 +8.3642529597405293e+00 +0.0000000000000000e+00 -5.1999999284364096e+00 +2.8748230061661302e-04 +0.0000000000000000e+00 +9.9999995867696279e-01
-5.2499999999999893e+00 +8.3642385163709196e+00 +0.0000000000000000e+00 -5.2499999263502843e+00 +2.9025250997728280e-04 +0.0000000000000000e+00 +9.9999995787673956e-01
-5.2999999999999892e+00 +8.3642239344869029e+00 +0.0000000000000000e+00 -5.2999999242239548e+00 +2.9302287709192626e-04 +0.0000000000000000e+00 +9.9999995706879607e-01
-5.3499999999999890e+00 +8.3642092140805673e+00 +0.0000000000000000e+00 -5.3499999220570356e+00 +2.9579340287210442e-04 +0.0000000000000000e+00 +9.9999995625313065e-01
-5.3999999999999888e+00 +8.3641943551439564e+00 +0.0000000000000000e+00 -5.3999999198491393e+00 +2.9856408821468780e-04 +0.0000000000000000e+00 +9.9999995542974185e-01
-5.4499999999999886e+00 +8.3641793576690713e+00 +0.0000000000000000e+00 -5.4499999175998806e+00 +3.0133493400185643e-04 +0.0000000000000000e+00 +9.9999995459862800e-01
-5.4999999999999885e+00 +8.3641642216478669e+00 +0.0000000000000000e+00 -5.4999999153088730e+00 +3.0410594110109982e-04 +0.0000000000000000e+00 +9.9999995375978745e-01
-5.5499999999999883e+00 +8.3641489470722572e+00 +0.0000000000000000e+00 -5.5499999129757303e+00 +3.0687711036521691e-04 +0.0000000000000000e+00 +9.9999995291321864e-01
-5.5999999999999881e+00 +8.3641335339341136e+00 +0.0000000000000000e+00 -5.5999999106000660e+00 +3.0964844263231610e-04 +0.0000000000000000e+00 +9.9999995205892001e-01
-5.6499999999999879e+00 +8.3641179822252631e+00 +0.0000000000000000e+00 -5.6499999081814938e+00 +3.1241993872581510e-04 +0.0000000000000000e+00 +9.9999995119688989e-01
-5.6999999999999877e+00 +8.3641022919374954e+00 +0.0000000000000000e+00 -5.6999999057196264e+00 +3.1519159945444099e-04 +0.0000000000000000e+00 +9.9999995032712674e-01
-5.7499999999999876e+00 +8.3640864630625593e+00 +0.0000000000000000e+00 -5.7499999032140776e+00 +3.1796342561223013e-04 +0.0000000000000000e+00 +9.9999994944962889e-01
-5.7999999999999874e+00 +8.3640704955921645e+00 +0.0000000000000000e+00 -5.7999999006644600e+00 +3.2073541797852814e-04 +0.0000000000000000e+00 +9.9999994856439467e-01
-5.8499999999999872e+00 +8.3640543895179800e+00 +0.0000000000000000e+00 -5.8499998980703873e+00 +3.2350757731798991e-04 +0.0000000000000000e+00 +9.9999994767142253e-01
