# field on trajectory
# s[mm] rx[mm] ry[mm] rz[mm] bx[T] by[T] bz[T]
0.0000000000000000e+00 +8.2850000000000001e+00 +0.0000000000000000e+00 +0.0000000000000000e+00 -2.9887675174278976e-02 -5.8017142719933501e-01 +6.1015093166773941e-03
5.0000000000000003e-02 +8.2849999309295281e+00 +0.0000000000000000e+00 +4.9999999999936394e-02 -2.9887450083956244e-02 -5.8017355045535079e-01 +6.1015126417462810e-03
1.0000000000000001e-01 +8.2849997237177568e+00 +0.0000000000000000e+00 +9.9999999999491121e-02 -2.9887245691360087e-02 -5.8017606791220133e-01 +6.1015150567001724e-03
1.5000000000000002e-01 +8.2849993783640894e+00 +0.0000000000000000e+00 +1.4999999999828251e-01 -2.9887061977005105e-02 -5.8017897830076337e-01 +6.1015165378223418e-03
2.0000000000000001e-01 +8.2849988948678313e+00 +0.0000000000000000e+00 +1.9999999999592891e-01 -2.9886898921406765e-02 -5.8018228035193287e-01 +6.1015170613962343e-03
2.5000000000000000e-01 +8.2849982732281973e+00 +0.0000000000000000e+00 +2.4999999999204864e-01 -2.9886756505081335e-02 -5.8018597279662243e-01 +6.1015166037054393e-03
2.9999999999999999e-01 +8.2849975134443063e+00 +0.0000000000000000e+00 +2.9999999998626004e-01 -2.9886634708546033e-02 -5.8019005436576387e-01 +6.1015151410337013e-03
3.4999999999999998e-01 +8.2849966155151886e+00 +0.0000000000000000e+00 +3.4999999997818138e-01 -2.9886533512318979e-02 -5.8019452379030656e-01 +6.1015126496648808e-03
3.9999999999999997e-01 +8.2849955794397783e+00 +0.0000000000000000e+00 +3.9999999996743096e-01 -2.9886452896919304e-02 -5.8019937980121750e-01 +6.1015091058829619e-03
4.4999999999999996e-01 +8.2849944052169207e+00 +0.0000000000000000e+00 +4.4999999995362705e-01 -2.9886392842867135e-02 -5.8020462112948157e-01 +6.1015044859720220e-03
4.9999999999999994e-01 +8.2849930928453670e+00 +0.0000000000000000e+00 +4.9999999993638794e-01 -2.9886353330683655e-02 -5.8021024650610076e-01 +6.1014987662162340e-03
5.4999999999999993e-01 +8.2849916423237779e+00 +0.0000000000000000e+00 +5.4999999991533188e-01 -2.9886334340891125e-02 -5.8021625466209481e-01 +6.1014919228998378e-03
5.9999999999999998e-01 +8.2849900536507235e+00 +0.0000000000000000e+00 +5.9999999989007713e-01 -2.9886335854012964e-02 -5.8022264432850035e-01 +6.1014839323071330e-03
6.5000000000000002e-01 +8.2849883268246831e+00 +0.0000000000000000e+00 +6.4999999986024193e-01 -2.9886357850573760e-02 -5.8022941423637120e-01 +6.1014747707224684e-03
7.0000000000000007e-01 +8.2849864618440439e+00 +0.0000000000000000e+00 +6.9999999982544447e-01 -2.9886400311099286e-02 -5.8023656311677796e-01 +6.1014644144302237e-03
7.5000000000000011e-01 +8.2849844587071022e+00 +0.0000000000000000e+00 +7.4999999978530296e-01 -2.9886463216116568e-02 -5.8024408970080810e-01 +6.1014528397147971e-03
8.0000000000000016e-01 +8.2849823174120676e+00 +0.0000000000000000e+00 +7.9999999973943559e-01 -2.9886546546153914e-02 -5.8025199271956540e-01 +6.1014400228605872e-03
8.5000000000000020e-01 +8.2849800379570588e+00 +0.0000000000000000e+00 +8.4999999968746054e-01 -2.9886650281740985e-02 -5.8026027090417076e-01 +6.1014259401519950e-03
9.0000000000000024e-01 +8.2849776203401042e+00 +0.0000000000000000e+00 +8.9999999962899591e-01 -2.9886774403408770e-02 -5.8026892298576049e-01 +6.1014105678733896e-03
9.5000000000000029e-01 +8.2849750645591431e+00 +0.0000000000000000e+00 +9.4999999956365988e-01 -2.9886918891689668e-02 -5.8027794769548791e-01 +6.1013938823091043e-03
1.0000000000000002e+00 +8.2849723706120280e+00 +0.0000000000000000e+00 +9.9999999949107043e-01 -2.9887083727117535e-02 -5.8028734376452173e-01 +6.1013758597434293e-03
1.0500000000000003e+00 +8.2849695384965205e+00 +0.0000000000000000e+00 +1.0499999994108458e+00 -2.9887268890227654e-02 -5.8029710992404659e-01 +6.1013564764605833e-03
1.1000000000000003e+00 +8.2849665682102955e+00 +0.0000000000000000e+00 +1.0999999993226039e+00 -2.9887474361556882e-02 -5.8030724490526320e-01 +6.1013357087447168e-03
1.1500000000000004e+00 +8.2849634597509407e+00 +0.0000000000000000e+00 +1.1499999992259629e+00 -2.9887700121643612e-02 -5.8031774743938769e-01 +6.1013135328798779e-03
1.2000000000000004e+00 +8.2849602131159550e+00 +0.0000000000000000e+00 +1.1999999991205406e+00 -2.9887946151027807e-02 -5.8032861625765164e-01 +6.1012899251500262e-03
1.2500000000000004e+00 +8.2849568283027502e+00 +0.0000000000000000e+00 +1.2499999990059552e+00 -2.9888212430251096e-02 -5.8033985009130196e-01 +6.1012648618389833e-03
1.3000000000000005e+00 +8.2849533053086528e+00 +0.0000000000000000e+00 +1.2999999988818243e+00 -2.9888498939856737e-02 -5.8035144767160052e-01 +6.1012383192304556e-03
1.3500000000000005e+00 +8.2849496441308990e+00 +0.0000000000000000e+00 +1.3499999987477662e+00 -2.9888805660389751e-02 -5.8036340772982453e-01 +6.1012102736079975e-03
1.4000000000000006e+00 +8.2849458447666429e+00 +0.0000000000000000e+00 +1.3999999986033986e+00 -2.9889132572396861e-02 -5.8037572899726575e-01 +6.1011807012550058e-03
1.4500000000000006e+00 +8.2849419072129500e+00 +0.0000000000000000e+00 +1.4499999984483394e+00 -2.9889479656426573e-02 -5.8038841020523035e-01 +6.1011495784546992e-03
1.5000000000000007e+00 +8.2849378314668023e+00 +0.0000000000000000e+00 +1.4999999982822063e+00 -2.9889846893029259e-02 -5.8040145008503996e-01 +6.1011168814901172e-03
1.5500000000000007e+00 +8.2849336175250947e+00 +0.0000000000000000e+00 +1.5499999981046173e+00 -2.9890234262757120e-02 -5.8041484736802995e-01 +6.1010825866440934e-03
1.6000000000000008e+00 +8.2849292653846369e+00 +0.0000000000000000e+00 +1.5999999979151902e+00 -2.9890641746164272e-02 -5.8042860078555047e-01 +6.1010466701992543e-03
1.6500000000000008e+00 +8.2849247750421533e+00 +0.0000000000000000e+00 +1.6499999977135424e+00 -2.9891069323806752e-02 -5.8044270906896478e-01 +6.1010091084379896e-03
1.7000000000000008e+00 +8.2849201464942865e+00 +0.0000000000000000e+00 +1.6999999974992919e+00 -2.9891516976242604e-02 -5.8045717094965144e-01 +6.1009698776424539e-03
1.7500000000000009e+00 +8.2849153797375905e+00 +0.0000000000000000e+00 +1.7499999972720564e+00 -2.9891984684031855e-02 -5.8047198515900211e-01 +6.1009289540945475e-03
1.8000000000000009e+00 +8.2849104747685409e+00 +0.0000000000000000e+00 +1.7999999970314533e+00 -2.9892472427736645e-02 -5.8048715042842225e-01 +6.1008863140759005e-03
1.8500000000000010e+00 +8.2849054315835247e+00 +0.0000000000000000e+00 +1.8499999967771001e+00 -2.9892980187921123e-02 -5.8050266548933094e-01 +6.1008419338678573e-03
1.9000000000000010e+00 +8.2849002501788487e+00 +0.0000000000000000e+00 +1.8999999965086147e+00 -2.9893507945151648e-02 -5.8051852907316048e-01 +6.1007957897514717e-03
1.9500000000000011e+00 +8.2848949305507364e+00 +0.0000000000000000e+00 +1.9499999962256145e+00 -2.9894055679996697e-02 -5.8053473991135651e-01 +6.1007478580074829e-03
2.0000000000000009e+00 +8.2848894726953279e+00 +0.0000000000000000e+00 +1.9999999959277166e+00 -2.9894623373026983e-02 -5.8055129673537809e-01 +6.1006981149163099e-03
2.0500000000000007e+00 +8.2848838766086796e+00 +0.0000000000000000e+00 +2.0499999956145389e+00 -2.9895210984356064e-02 -5.8056819811739768e-01 +6.1006465421665195e-03
2.1000000000000005e+00 +8.2848781422867681e+00 +0.0000000000000000e+00 +2.0999999952856987e+00 -2.9895818392261422e-02 -5.8058544199240258e-01 +6.1005931430803345e-03
2.1500000000000004e+00 +8.2848722697254882e+00 +0.0000000000000000e+00 +2.1499999949408131e+00 -2.9896445454561577e-02 -5.8060302613609305e-01 +6.1005379263883259e-03
2.2000000000000002e+00 +8.2848662589206530e+00 +0.0000000000000000e+00 +2.1999999945794992e+00 -2.9897092029075152e-02 -5.8062094832417976e-01 +6.1004809008209362e-03
2.2500000000000000e+00 +8.2848601098679957e+00 +0.0000000000000000e+00 +2.2499999942013749e+00 -2.9897757973620886e-02 -5.8063920633238397e-01 +6.1004220751084874e-03
2.2999999999999998e+00 +8.2848538225631678e+00 +0.0000000000000000e+00 +2.2999999938060571e+00 -2.9898443146017500e-02 -5.8065779793643890e-01 +6.1003614579811811e-03
2.3499999999999996e+00 +8.2848473970017427e+00 +0.0000000000000000e+00 +2.3499999933931628e+00 -2.9899147404083594e-02 -5.8067672091208711e-01 +6.1002990581690911e-03
2.3999999999999995e+00 +8.2848408331792154e+00 +0.0000000000000000e+00 +2.3999999929623090e+00 -2.9899870605637650e-02 -5.8069597303508180e-01 +6.1002348844021812e-03
2.4499999999999993e+00 +8.2848341310910030e+00 +0.0000000000000000e+00 +2.4499999925131131e+00 -2.9900612608497825e-02 -5.8071555208118619e-01 +6.1001689454102800e-03
2.4999999999999991e+00 +8.2848272907324425e+00 +0.0000000000000000e+00 +2.4999999920451921e+00 -2.9901373270481976e-02 -5.8073545582617347e-01 +6.1001012499231058e-03
2.5499999999999989e+00 +8.2848203120987947e+00 +0.0000000000000000e+00 +2.5499999915581628e+00 -2.9902152449407506e-02 -5.8075568204582595e-01 +6.1000318066702511e-03
2.5999999999999988e+00 +8.2848131951852455e+00 +0.0000000000000000e+00 +2.5999999910516425e+00 -2.9902950003091334e-02 -5.8077622851593569e-01 +6.0999606243811941e-03
2.6499999999999986e+00 +8.2848059399869012e+00 +0.0000000000000000e+00 +2.6499999905252474e+00 -2.9903765789349741e-02 -5.8079709301230387e-01 +6.0998877117852878e-03
2.6999999999999984e+00 +8.2847985464987950e+00 +0.0000000000000000e+00 +2.6999999899785947e+00 -2.9904599665998361e-02 -5.8081827331074054e-01 +6.0998130776117685e-03
2.7499999999999982e+00 +8.2847910147158821e+00 +0.0000000000000000e+00 +2.7499999894113012e+00 -2.9905451490852050e-02 -5.8083976718706387e-01 +6.0997367305897568e-03
2.7999999999999980e+00 +8.2847833446330466e+00 +0.0000000000000000e+00 +2.7999999888229836e+00 -2.9906321121724810e-02 -5.8086157241710101e-01 +6.0996586794482555e-03
2.8499999999999979e+00 +8.2847755362450961e+00 +0.0000000000000000e+00 +2.8499999882132583e+00 -2.9907208416429732e-02 -5.8088368677668789e-01 +6.0995789329161458e-03
2.8999999999999977e+00 +8.2847675895467656e+00 +0.0000000000000000e+00 +2.8999999875817424e+00 -2.9908113232778855e-02 -5.8090610804166720e-01 +6.0994974997221930e-03
2.9499999999999975e+00 +8.2847595045327154e+00 +0.0000000000000000e+00 +2.9499999869280518e+00 -2.9909035428583159e-02 -5.8092883398789052e-01 +6.0994143885950503e-03
2.9999999999999973e+00 +8.2847512811975363e+00 +0.0000000000000000e+00 +2.9999999862518032e+00 -2.9909974861652391e-02 -5.8095186239121599e-01 +6.0993296082632494e-03
3.0499999999999972e+00 +8.2847429195357432e+00 +0.0000000000000000e+00 +3.0499999855526134e+00 -2.9910931389795073e-02 -5.8097519102750994e-01 +6.0992431674552119e-03
3.0999999999999970e+00 +8.2847344195417829e+00 +0.0000000000000000e+00 +3.0999999848300983e+00 -2.9911904870818337e-02 -5.8099881767264561e-01 +6.0991550748992381e-03
3.1499999999999968e+00 +8.2847257812100299e+00 +0.0000000000000000e+00 +3.1499999840838746e+00 -2.9912895162527924e-02 -5.8102274010250266e-01 +6.0990653393235197e-03
3.1999999999999966e+00 +8.2847170045347873e+00 +0.0000000000000000e+00 +3.1999999833135582e+00 -2.9913902122728001e-02 -5.8104695609296775e-01 +6.0989739694561297e-03
3.2499999999999964e+00 +8.2847080895102909e+00 +0.0000000000000000e+00 +3.2499999825187658e+00 -2.9914925609221179e-02 -5.8107146341993410e-01 +6.0988809740250283e-03
3.2999999999999963e+00 +8.2846990361307054e+00 +0.0000000000000000e+00 +3.2999999816991128e+00 -2.9915965479808314e-02 -5.8109625985930125e-01 +6.0987863617580637e-03
3.3499999999999961e+00 +8.2846898443901260e+00 +0.0000000000000000e+00 +3.3499999808542160e+00 -2.9917021592288564e-02 -5.8112134318697417e-01 +6.0986901413829734e-03
3.3999999999999959e+00 +8.2846805142825790e+00 +0.0000000000000000e+00 +3.3999999799836909e+00 -2.9918093804459183e-02 -5.8114671117886396e-01 +6.0985923216273757e-03
3.4499999999999957e+00 +8.2846710458020265e+00 +0.0000000000000000e+00 +3.4499999790871536e+00 -2.9919181974115503e-02 -5.8117236161088726e-01 +6.0984929112187815e-03
3.4999999999999956e+00 +8.2846614389423614e+00 +0.0000000000000000e+00 +3.4999999781642201e+00 -2.9920285959050809e-02 -5.8119829225896591e-01 +6.0983919188845916e-03
3.5499999999999954e+00 +8.2846516936974073e+00 +0.0000000000000000e+00 +3.5499999772145063e+00 -2.9921405617056290e-02 -5.8122450089902700e-01 +6.0982893533520930e-03
3.5999999999999952e+00 +8.2846418100609256e+00 +0.0000000000000000e+00 +3.5999999762376276e+00 -2.9922540805920952e-02 -5.8125098530700237e-01 +6.0981852233484637e-03
3.6499999999999950e+00 +8.2846317880266103e+00 +0.0000000000000000e+00 +3.6499999752331997e+00 -2.9923691383431518e-02 -5.8127774325882853e-01 +6.0980795376007696e-03
3.6999999999999948e+00 +8.2846216275880895e+00 +0.0000000000000000e+00 +3.6999999742008387e+00 -2.9924857207372316e-02 -5.8130477253044643e-01 +6.0979723048359630e-03
3.7499999999999947e+00 +8.2846113287389294e+00 +0.0000000000000000e+00 +3.7499999731401599e+00 -2.9926038135525287e-02 -5.8133207089780137e-01 +6.0978635337809043e-03
3.7999999999999945e+00 +8.2846008914726283e+00 +0.0000000000000000e+00 +3.7999999720507787e+00 -2.9927234025669765e-02 -5.8135963613684183e-01 +6.0977532331623211e-03
3.8499999999999943e+00 +8.2845903157826246e+00 +0.0000000000000000e+00 +3.8499999709323105e+00 -2.9928444735582579e-02 -5.8138746602352154e-01 +6.0976414117068492e-03
3.8999999999999941e+00 +8.2845796016622906e+00 +0.0000000000000000e+00 +3.8999999697843708e+00 -2.9929670123037745e-02 -5.8141555833379599e-01 +6.0975280781410089e-03
3.9499999999999940e+00 +8.2845687491049382e+00 +0.0000000000000000e+00 +3.9499999686065750e+00 -2.9930910045806555e-02 -5.8144391084362557e-01 +6.0974132411912218e-03
3.9999999999999938e+00 +8.2845577581038174e+00 +0.0000000000000000e+00 +3.9999999673985380e+00 -2.9932164361657441e-02 -5.8147252132897254e-01 +6.0972969095837897e-03
4.0499999999999936e+00 +8.2845466286521159e+00 +0.0000000000000000e+00 +4.0499999661598753e+00 -2.9933432934888066e-02 -5.8150138743004232e-01 +6.0971790949654880e-03
4.0999999999999934e+00 +8.2845353607429590e+00 +0.0000000000000000e+00 +4.0999999648902019e+00 -2.9934715655923292e-02 -5.8153050624400016e-01 +6.0970598206654290e-03
4.1499999999999932e+00 +8.2845239543694156e+00 +0.0000000000000000e+00 +4.1499999635891323e+00 -2.9936012421721007e-02 -5.8155987473225079e-01 +6.0969391129335479e-03
4.1999999999999931e+00 +8.2845124095244920e+00 +0.0000000000000000e+00 +4.1999999622562818e+00 -2.9937323129240287e-02 -5.8158948985619885e-01 +6.0968169980200769e-03
4.2499999999999929e+00 +8.2845007262011379e+00 +0.0000000000000000e+00 +4.2499999608912651e+00 -2.9938647675441403e-02 -5.8161934857724917e-01 +6.0966935021755436e-03
4.2999999999999927e+00 +8.2844889043922425e+00 +0.0000000000000000e+00 +4.2999999594936975e+00 -2.9939985957285909e-02 -5.8164944785680484e-01 +6.0965686516507881e-03
4.3499999999999925e+00 +8.2844769440906401e+00 +0.0000000000000000e+00 +4.3499999580631936e+00 -2.9941337871736660e-02 -5.8167978465626924e-01 +6.0964424726969784e-03
4.3999999999999924e+00 +8.2844648452891079e+00 +0.0000000000000000e+00 +4.3999999565993679e+00 -2.9942703315757876e-02 -5.8171035593704357e-01 +6.0963149915656241e-03
4.4499999999999922e+00 +8.2844526079803664e+00 +0.0000000000000000e+00 +4.4499999551018350e+00 -2.9944082186315155e-02 -5.8174115866052811e-01 +6.0961862345085705e-03
4.4999999999999920e+00 +8.2844402321570811e+00 +0.0000000000000000e+00 +4.4999999535702093e+00 -2.9945474380375574e-02 -5.8177218978812151e-01 +6.0960562277780394e-03
4.5499999999999918e+00 +8.2844277178118642e+00 +0.0000000000000000e+00 +4.5499999520041046e+00 -2.9946879794907687e-02 -5.8180344628121983e-01 +6.0959249976266167e-03
4.5999999999999917e+00 +8.2844150649372725e+00 +0.0000000000000000e+00 +4.5999999504031361e+00 -2.9948298326881555e-02 -5.8183492510121648e-01 +6.0957925703072754e-03
4.6499999999999915e+00 +8.2844022735258118e+00 +0.0000000000000000e+00 +4.6499999487669177e+00 -2.9949729873268841e-02 -5.8186662320950322e-01 +6.0956589720733857e-03
4.6999999999999913e+00 +8.2843893435699361e+00 +0.0000000000000000e+00 +4.6999999470950637e+00 -2.9951174331042833e-02 -5.8189853756746768e-01 +6.0955242291787287e-03
4.7499999999999911e+00 +8.2843762750620442e+00 +0.0000000000000000e+00 +4.7499999453871888e+00 -2.9952631597178484e-02 -5.8193066513649527e-01 +6.0953883678775090e-03
4.7999999999999909e+00 +8.2843630679944891e+00 +0.0000000000000000e+00 +4.7999999436429066e+00 -2.9954101568652448e-02 -5.8196300287796743e-01 +6.0952514144243615e-03
4.8499999999999908e+00 +8.2843497223595683e+00 +0.0000000000000000e+00 +4.8499999418618307e+00 -2.9955584142443162e-02 -5.8199554775326179e-01 +6.0951133950743657e-03
4.8999999999999906e+00 +8.2843362381495353e+00 +0.0000000000000000e+00 +4.8999999400435756e+00 -2.9957079215530844e-02 -5.8202829672375134e-01 +6.0949743360830602e-03
4.9499999999999904e+00 +8.2843226153565919e+00 +0.0000000000000000e+00 +4.9499999381877551e+00 -2.9958586684897558e-02 -5.8206124675080562e-01 +6.0948342637064615e-03
4.9999999999999902e+00 +8.2843088539728935e+00 +0.0000000000000000e+00 +4.9999999362939826e+00 -2.9960106447527276e-02 -5.8209439479578862e-01 +6.0946932042010536e-03
5.0499999999999901e+00 +8.2842949539905462e+00 +0.0000000000000000e+00 +5.0499999343618711e+00 -2.9961638400405874e-02 -5.8212773782005989e-01 +6.0945511838238218e-03
5.0999999999999899e+00 +8.2842809154016113e+00 +0.0000000000000000e+00 +5.0999999323910350e+00 -2.9963182440521239e-02 -5.8216127278497332e-01 +6.0944082288322595e-03
5.1499999999999897e+00 +8.2842667381981041e+00 +0.0000000000000000e+00 +5.1499999303810879e+00 -2.9964738464863288e-02 -5.8219499665187735e-01 +6.0942643654843757e-03
5.1999999999999895e+00 +8.2842524223719956e+00 +0.0000000000000000e+00 +5.1999999283316427e+00 -2.9966306370423985e-02 -5.8222890638211444e-01 +6.0941196200387108e-03
5.2499999999999893e+00 +8.2842379679152121e+00 +0.0000000000000000e+00 +5.2499999262423138e+00 -2.9967886054197427e-02 -5.8226299893702138e-01 +6.0939740187543438e-03
5.2999999999999892e+00 +8.2842233748196357e+00 +0.0000000000000000e+00 +5.2999999241127131e+00 -2.9969477413179853e-02 -5.8229727127792763e-01 +6.0938275878909152e-03
5.3499999999999890e+00 +8.2842086430771076e+00 +0.0000000000000000e+00 +5.3499999219424543e+00 -2.9971080344369714e-02 -5.8233172036615632e-01 +6.0936803537086246e-03
5.3999999999999888e+00 +8.2841937726794246e+00 +0.0000000000000000e+00 +5.3999999197311510e+00 -2.9972694744767714e-02 -5.8236634316302405e-01 +6.0935323424682547e-03
5.4499999999999886e+00 +8.2841787636183426e+00 +0.0000000000000000e+00 +5.4499999174784159e+00 -2.9974320511376870e-02 -5.8240113662983883e-01 +6.0933835804311753e-03
5.4999999999999885e+00 +8.2841636158855767e+00 +0.0000000000000000e+00 +5.4999999151838619e+00 -2.9975957541202487e-02 -5.8243609772790284e-01 +6.0932340938593633e-03
5.5499999999999883e+00 +8.2841483294728047e+00 +0.0000000000000000e+00 +5.5499999128471016e+00 -2.9977605731252296e-02 -5.8247122341850854e-01 +6.0930839090154072e-03
5.5999999999999881e+00 +8.2841329043716616e+00 +0.0000000000000000e+00 +5.5999999104677478e+00 -2.9979264978536445e-02 -5.8250651066294101e-01 +6.0929330521625261e-03
5.6499999999999879e+00 +8.2841173405737454e+00 +0.0000000000000000e+00 +5.6499999080454133e+00 -2.9980935180067544e-02 -5.8254195642247719e-01 +6.0927815495645729e-03
5.6999999999999877e+00 +8.2841016380706183e+00 +0.0000000000000000e+00 +5.6999999055797108e+00 -2.9982616232860745e-02 -5.8257755765838426e-01 +6.0926294274860539e-03
5.7499999999999876e+00 +8.2840857968538018e+00 +0.0000000000000000e+00 +5.7499999030702531e+00 -2.9984308033933732e-02 -5.8261331133192096e-01 +6.0924767121921406e-03
5.7999999999999874e+00 +8.2840698169147835e+00 +0.0000000000000000e+00 +5.7999999005166529e+00 -2.9986010480306816e-02 -5.8264921440433681e-01 +6.0923234299486793e-03
5.8499999999999872e+00 +8.2840536982450157e+00 +0.0000000000000000e+00 +5.8499998979185213e+00 -2.9987723469002945e-02 -5.8268526383687080e-01 +6.0921696070221970e-03
5.8999999999999870e+00 +8.2840374408359150e+00 +0.0000000000000000e+00 +5.8999998952754718e+00 -2.9989446897047769e-02 -5.8272145659075303e-01 +6.0920152696799330e-03
