# multipoles
# s[mm] polynom_b[n=0][T/m^n] polynom_b[n=1][T/m^n] polynom_b[n=2][T/m^n] polynom_b[n=3][T/m^n] polynom_b[n=4][T/m^n] polynom_b[n=5][T/m^n] polynom_b[n=6][T/m^n] 
+0.0000000000000000e+00 -5.5372088640439188e-01 +7.3180413727200211e+00 +4.8318034921648687e+00 -1.4584001666154563e+02 -1.6997895866631363e+04 +5.4626338091635704e+05 +1.0125552504043141e+08 
+5.0000000000000003e-02 -5.5372172789756047e-01 +7.3180209193510191e+00 +4.8346838263386012e+00 -1.4592593480211704e+02 -1.7019928531239835e+04 +5.4684477162279328e+05 +1.0134758249295940e+08 
+1.0000000000000001e-01 -5.5372287749856752e-01 +7.3180171559619849e+00 +4.8373580482652763e+00 -1.4601264561729340e+02 -1.7045655545225698e+04 +5.4749777818023437e+05 +1.0146156185079476e+08 
+1.5000000000000002e-01 -5.5372433446082292e-01 +7.3180300557837734e+00 +4.8398146270045093e+00 -1.4610051398799988e+02 -1.7074848977670274e+04 +5.4822362812798715e+05 +1.0159618052854805e+08 
+2.0000000000000001e-01 -5.5372609803776363e-01 +7.3180595920452491e+00 +4.8420420337095278e+00 -1.4618990467812887e+02 -1.7107280951201505e+04 +5.4902354798848345e+05 +1.0175015628943796e+08 
+2.5000000000000000e-01 -5.5372816748284359e-01 +7.3181057379747259e+00 +4.8440287401437709e+00 -1.4628118241510819e+02 -1.7142723610361416e+04 +5.4989876402794616e+05 +1.0192220706548660e+08 
+2.9999999999999999e-01 -5.5373054204951178e-01 +7.3181684668049485e+00 +4.8457632146053715e+00 -1.4637471207192303e+02 -1.7180949000470460e+04 +5.5085050366160681e+05 +1.0211105009063521e+08 
+3.4999999999999998e-01 -5.5373322099124900e-01 +7.3182477517670561e+00 +4.8472339289273503e+00 -1.4647085844067843e+02 -1.7221729271875167e+04 +5.5187999367233284e+05 +1.0231540334730691e+08 
+3.9999999999999997e-01 -5.5373620356155018e-01 +7.3183435660909062e+00 +4.8484293539660683e+00 -1.4656998623271258e+02 -1.7264836535797363e+04 +5.5298846016427979e+05 +1.0253398450174049e+08 
+4.4999999999999996e-01 -5.5373948901391212e-01 +7.3184558830094550e+00 +4.8493379595074737e+00 -1.4667246026338876e+02 -1.7310042886420702e+04 +5.5417713010010601e+05 +1.0276551114665538e+08 
+4.9999999999999994e-01 -5.5374307660185895e-01 +7.3185846757557025e+00 +4.8499482170398851e+00 -1.4677864532884882e+02 -1.7357120456825814e+04 +5.5544723029740353e+05 +1.0300870111058117e+08 
+5.4999999999999993e-01 -5.5374696557892011e-01 +7.3187299175622593e+00 +4.8502485967718130e+00 -1.4688890617083050e+02 -1.7405841351239123e+04 +5.5679998706859071e+05 +1.0326227204879577e+08 
+5.9999999999999998e-01 -5.5375115519865314e-01 +7.3188915816640332e+00 +4.8502275708633471e+00 -1.4700360761878278e+02 -1.7455977718281934e+04 +5.5823662751523824e+05 +1.0352494188083948e+08 
+6.5000000000000002e-01 -5.5375564471459826e-01 +7.3190696412953917e+00 +4.8498736070677531e+00 -1.4712311444067822e+02 -1.7507301600587161e+04 +5.5975837817628519e+05 +1.0379542785902423e+08 
+7.0000000000000007e-01 -5.5376043338035219e-01 +7.3192640696906581e+00 +4.8491751793834990e+00 -1.4724779138223565e+02 -1.7559585193987037e+04 +5.6136646542205731e+05 +1.0407244821007571e+08 
+7.5000000000000011e-01 -5.5376552044949867e-01 +7.3194748400867038e+00 +4.8481207581303636e+00 -1.4737800327098955e+02 -1.7612600608043573e+04 +5.6306211629371275e+05 +1.0435472062622027e+08 
+8.0000000000000016e-01 -5.5377090517562777e-01 +7.3197019257190599e+00 +4.8466988115345009e+00 -1.4751411484765907e+02 -1.7666119887614419e+04 +5.6484655709913292e+05 +1.0464096233044878e+08 
+8.5000000000000020e-01 -5.5377658681237629e-01 +7.3199452998265429e+00 +4.8448978140180561e+00 -1.4765649096708552e+02 -1.7719915247146211e+04 +5.6672101508902153e+05 +1.0492989169841036e+08 
+9.0000000000000024e-01 -5.5378256461336550e-01 +7.3202049356478209e+00 +4.8427062349587136e+00 -1.4780549644278625e+02 -1.7773758766922820e+04 +5.6868671713748097e+05 +1.0522022620596088e+08 
+9.5000000000000029e-01 -5.5378883783224386e-01 +7.3204808064184084e+00 +4.8401125458330769e+00 -1.4796149594679096e+02 -1.7827422581411414e+04 +5.7074488899109222e+05 +1.0551068368452889e+08 
+1.0000000000000002e+00 -5.5379540572266361e-01 +7.3207728853809835e+00 +4.8371052165175445e+00 -1.4812485440576393e+02 -1.7880678781926563e+04 +5.7289675844402541e+05 +1.0579998167275529e+08 
+1.0500000000000003e+00 -5.5380226753831074e-01 +7.3210811457772156e+00 +4.8336727204151808e+00 -1.4829593668673502e+02 -1.7933299552599052e+04 +5.7514355281887471e+05 +1.0608683832370947e+08 
+1.1000000000000003e+00 -5.5380942253286380e-01 +7.3214055608463227e+00 +4.8298035274689619e+00 -1.4847510752250642e+02 -1.7985056990156052e+04 +5.7748649828950223e+05 +1.0636997122577408e+08 
+1.1500000000000004e+00 -5.5381686996002844e-01 +7.3217461038319094e+00 +4.8254861095283008e+00 -1.4866273180540972e+02 -1.8035723235757701e+04 +5.7992682236488373e+05 +1.0664809823848000e+08 
+1.2000000000000004e+00 -5.5382460907351172e-01 +7.3221027479760838e+00 +4.8207089366184777e+00 -1.4885917433592081e+02 -1.8085070382264810e+04 +5.8246575177482422e+05 +1.0691993689436358e+08 
+1.2500000000000004e+00 -5.5383263912704994e-01 +7.3224754665249145e+00 +4.8154604815191941e+00 -1.4906480005191150e+02 -1.8132870598628044e+04 +5.8510451436511346e+05 +1.0718420524930100e+08 
+1.3000000000000005e+00 -5.5384095937437239e-01 +7.3228642327232558e+00 +4.8097292138206056e+00 -1.4927997380348896e+02 -1.8178895968927813e+04 +5.8784433721474535e+05 +1.0743962078761561e+08 
+1.3500000000000005e+00 -5.5384956906925309e-01 +7.3232690198156893e+00 +4.8035036078177384e+00 -1.4950506041442691e+02 -1.8222918697543551e+04 +5.9068644721675362e+05 +1.0768490178097308e+08 
+1.4000000000000006e+00 -5.5385846746544798e-01 +7.3236898010522946e+00 +4.7967721329315998e+00 -1.4974042490848714e+02 -1.8264710861718428e+04 +5.9363207290759718e+05 +1.0791876565761118e+08 
+1.4500000000000006e+00 -5.5386765381673775e-01 +7.3241265496798009e+00 +4.7895232604817295e+00 -1.4998643212481505e+02 -1.8304044587753808e+04 +5.9668244121366530e+05 +1.0813993016679285e+08 
+1.5000000000000007e+00 -5.5387712737692474e-01 +7.3245792389478943e+00 +4.7817454633088792e+00 -1.5024344701454382e+02 -1.8340692043701212e+04 +5.9983878003482474e+05 +1.0834711334388551e+08 
+1.5500000000000007e+00 -5.5388688739981906e-01 +7.3250478421071206e+00 +4.7734272129859869e+00 -1.5051183453289346e+02 -1.8374425359067242e+04 +6.0310231728497020e+05 +1.0853903294462335e+08 
+1.6000000000000008e+00 -5.5389693313923694e-01 +7.3255323324098338e+00 +4.7645569802048993e+00 -1.5079195966658179e+02 -1.8405016641619553e+04 +6.0647428105852241e+05 +1.0871440658560912e+08 
+1.6500000000000008e+00 -5.5390726384901678e-01 +7.3260326831077061e+00 +4.7551232371731595e+00 -1.5108418736480772e+02 -1.8432238040233759e+04 +6.0995589920321631e+05 +1.0887195216254851e+08 
+1.7000000000000008e+00 -5.5391787878301191e-01 +7.3265488674570047e+00 +4.7451144564138463e+00 -1.5138888271838272e+02 -1.8455861709046716e+04 +6.1354840064383170e+05 +1.0901038759187405e+08 
+1.7500000000000009e+00 -5.5392877719507738e-01 +7.3270808587102918e+00 +4.7345191087674889e+00 -1.5170641065039615e+02 -1.8475659760137492e+04 +6.1725301295026473e+05 +1.0912843051855853e+08 
+1.8000000000000009e+00 -5.5393995833909193e-01 +7.3276286301244040e+00 +4.7233256661666090e+00 -1.5203713623141994e+02 -1.8491404325307070e+04 +6.2107096489685425e+05 +1.0922479868323489e+08 
+1.8500000000000010e+00 -5.5395142146894694e-01 +7.3281921549599200e+00 +4.7115226015868226e+00 -1.5238142463628310e+02 -1.8502867575220800e+04 +6.2500348602125281e+05 +1.0929821012919022e+08 
+1.9000000000000010e+00 -5.5396316583853988e-01 +7.3287714064730585e+00 +4.6990983860743132e+00 -1.5273964085883534e+02 -1.8509821619305792e+04 +6.2905180445049878e+05 +1.0934738245097360e+08 
+1.9500000000000011e+00 -5.5397519070179191e-01 +7.3293663579259514e+00 +4.6860414927240157e+00 -1.5311215008305811e+02 -1.8512038623325981e+04 +6.3321714977139723e+05 +1.0937103362737381e+08 
+2.0000000000000009e+00 -5.5398749531261937e-01 +7.3299769825785699e+00 +4.6723403918790467e+00 -1.5349931738379939e+02 -1.8509290680106657e+04 +6.3750075069450738e+05 +1.0936788114893277e+08 
+2.0500000000000007e+00 -5.5400007879674751e-01 +7.3306032368183027e+00 +4.6579876621329603e+00 -1.5390136032065780e+02 -1.8501411660375317e+04 +6.4190292075804912e+05 +1.0933699643505204e+08 
+2.1000000000000005e+00 -5.5401293976708621e-01 +7.3312450052369114e+00 +4.6429927835912519e+00 -1.5431794120927941e+02 -1.8488486552702900e+04 +6.4642036729940365e+05 +1.0927889245834115e+08 
+2.1500000000000004e+00 -5.5402607670842419e-01 +7.3319021533973547e+00 +4.6273695993839867e+00 -1.5474859270908985e+02 -1.8470664427479656e+04 +6.5104890896375861e+05 +1.0919445137699609e+08 
+2.2000000000000002e+00 -5.5403948810558756e-01 +7.3325745468635573e+00 +4.6111319569963767e+00 -1.5519284749484802e+02 -1.8448094465939768e+04 +6.5578436444538436e+05 +1.0908455607350650e+08 
+2.2500000000000000e+00 -5.5405317244334418e-01 +7.3332620512019924e+00 +4.5942936923027560e+00 -1.5565023835326457e+02 -1.8420925541991033e+04 +6.6062255342692754e+05 +1.0895008737903395e+08 
+2.2999999999999998e+00 -5.5406712820654525e-01 +7.3339645319795004e+00 +4.5768686540769608e+00 -1.5612029805908927e+02 -1.8389306875177073e+04 +6.6555929542561271e+05 +1.0879192844896822e+08 
+2.3499999999999996e+00 -5.5408135387999824e-01 +7.3346818547582151e+00 +4.5588706812817206e+00 -1.5660255918808738e+02 -1.8353387417403035e+04 +6.7059040832640405e+05 +1.0861096062257712e+08 
+2.3999999999999995e+00 -5.5409584794855915e-01 +7.3354138851069148e+00 +4.5403136203679768e+00 -1.5709655457763677e+02 -1.8313316328907727e+04 +6.7571171215906378e+05 +1.0840806667128444e+08 
+2.4499999999999993e+00 -5.5411060889706609e-01 +7.3361604885925571e+00 +4.5212113125065372e+00 -1.5760181698731540e+02 -1.8269242620774519e+04 +6.8091902632467228e+05 +1.0818412833221248e+08 
+2.4999999999999991e+00 -5.5412563521037128e-01 +7.3369215307779552e+00 +4.5015775999026655e+00 -1.5811787898994845e+02 -1.8221315336271491e+04 +6.8620816864656471e+05 +1.0794002758003454e+08 
+2.5499999999999989e+00 -5.5414092537334658e-01 +7.3376968772333200e+00 +4.4814263267305803e+00 -1.5864427345630855e+02 -1.8169683570834648e+04 +6.9157495940205222e+05 +1.0767664673813798e+08 
+2.5999999999999988e+00 -5.5415647787086342e-01 +7.3384863935250113e+00 +4.4607713355677578e+00 -1.5918053310156913e+02 -1.8114496377179072e+04 +6.9701521761192963e+05 +1.0739486784369604e+08 
+2.6499999999999986e+00 -5.5417229118779709e-01 +7.3392899452175566e+00 +4.4396264678239836e+00 -1.5972619054010335e+02 -1.8055902773420781e+04 +7.0252476138341380e+05 +1.0709557268876502e+08 
+2.6999999999999984e+00 -5.5418836380905256e-01 +7.3401073978804217e+00 +4.4180055690615641e+00 -1.6028077860726265e+02 -1.7994051894335083e+04 +7.0809941073221632e+05 +1.0677964387529638e+08 
+2.7499999999999982e+00 -5.5420469421950536e-01 +7.3409386170803010e+00 +4.3959224782893669e+00 -1.6084383000526307e+02 -1.7929092697512337e+04 +7.1373498450006451e+05 +1.0644796280492993e+08 
+2.7999999999999980e+00 -5.5422128090408862e-01 +7.3417834683815775e+00 +4.3733910424794686e+00 -1.6141487734234650e+02 -1.7861174351367332e+04 +7.1942730077354587e+05 +1.0610141229423258e+08 
+2.8499999999999979e+00 -5.5423812234770498e-01 +7.3426418173546448e+00 +4.3504251026431620e+00 -1.6199345347218701e+02 -1.7790445866934129e+04 +7.2517217965922540e+05 +1.0574087410701190e+08 
+2.8999999999999977e+00 -5.5425521703527403e-01 +7.3435135295642207e+00 +4.3270385011281158e+00 -1.6257909101516225e+02 -1.7717056291027497e+04 +7.3096543933709746e+05 +1.0536723025076526e+08 
+2.9499999999999975e+00 -5.5427256345172093e-01 +7.3443984705793630e+00 +4.3032450799668869e+00 -1.6317132275740337e+02 -1.7641154662468562e+04 +7.3680289930398064e+05 +1.0498136268365495e+08 
+2.9999999999999973e+00 -5.5429016008198617e-01 +7.3452965059653916e+00 +4.2790586825593513e+00 -1.6376968134555526e+02 -1.7562890056883425e+04 +7.4268037795314856e+05 +1.0458415361463378e+08 
+3.0499999999999972e+00 -5.5430800541101422e-01 +7.3462075012880934e+00 +4.2544931516153914e+00 -1.6437369944245478e+02 -1.7482411529304027e+04 +7.4859369379772444e+05 +1.0417648510570952e+08 
+3.0999999999999970e+00 -5.5432609792376031e-01 +7.3471313221162751e+00 +4.2295623306386165e+00 -1.6498290982920605e+02 -1.7399868159738140e+04 +7.5453866628367675e+05 +1.0375923940695406e+08 
+3.1499999999999968e+00 -5.5434443610516848e-01 +7.3480678340132783e+00 +4.2042800601460888e+00 -1.6559684507771445e+02 -1.7315408945931216e+04 +7.6051111318840145e+05 +1.0333329820328850e+08 
+3.1999999999999966e+00 -5.5436301844020586e-01 +7.3490169025460350e+00 +4.1786601831971479e+00 -1.6621503789440629e+02 -1.7229182955160450e+04 +7.6650685331716773e+05 +1.0289954366005617e+08 
+3.2499999999999964e+00 -5.5438184341384467e-01 +7.3499783932825036e+00 +4.1527165427646953e+00 -1.6683702104814930e+02 -1.7141339252450616e+04 +7.7252170606392447e+05 +1.0245885792850509e+08 
+3.2999999999999963e+00 -5.5440090951105547e-01 +7.3509521717841295e+00 +4.1264629805787809e+00 -1.6746232702725584e+02 -1.7052026870165439e+04 +7.7855148841853696e+05 +1.0201212294346172e+08 
+3.3499999999999961e+00 -5.5442021521682550e-01 +7.3519381036192399e+00 +4.0999133400085892e+00 -1.6809048862887121e+02 -1.6961394885737496e+04 +7.8459202000890649e+05 +1.0156022095298381e+08 
+3.3999999999999959e+00 -5.5443975901613796e-01 +7.3529360543514111e+00 +4.0730814626708050e+00 -1.6872103844229574e+02 -1.6869592325956211e+04 +7.9063911866149900e+05 +1.0110403384868677e+08 
+3.4499999999999957e+00 -5.5445953939397929e-01 +7.3539458895439918e+00 +4.0459811897076259e+00 -1.6935350906782324e+02 -1.6776768209545138e+04 +7.9668860234213737e+05 +1.0064444349373746e+08 
+3.4999999999999956e+00 -5.5447955483535560e-01 +7.3549674747613345e+00 +4.0186263650816452e+00 -1.6998743314823460e+02 -1.6683071631044775e+04 +8.0273628933818045e+05 +1.0018233226102713e+08 
+3.5499999999999954e+00 -5.5449980382525876e-01 +7.3560006755682359e+00 +3.9910308288316281e+00 -1.7062234335258205e+02 -1.6588651576875582e+04 +8.0877799814861175e+05 +9.9718581789133117e+07 
+3.5999999999999952e+00 -5.5452028484870242e-01 +7.3570453575249957e+00 +3.9632084241608960e+00 -1.7125777218521571e+02 -1.6493657120857035e+04 +8.1480954594688909e+05 +9.9254074316905066e+07 
+3.6499999999999950e+00 -5.5454099639069887e-01 +7.3581013861945301e+00 +3.9351729932585591e+00 -1.7189325225564156e+02 -1.6398237312658570e+04 +8.2082675072315021e+05 +9.8789691936517715e+07 
+3.6999999999999948e+00 -5.5456193693625966e-01 +7.3591686271396224e+00 +3.9069383767904471e+00 -1.7252831617942505e+02 -1.6302541154345008e+04 +8.2682543051796663e+05 +9.8326316396178350e+07 
+3.7499999999999947e+00 -5.5458310497041718e-01 +7.3602469459199087e+00 +3.8785184189441848e+00 -1.7316249646600772e+02 -1.6206717751356753e+04 +8.3280140252915723e+05 +9.7864830178089246e+07 
+3.7999999999999945e+00 -5.5460449897817532e-01 +7.3613362080971125e+00 +3.8499269576319906e+00 -1.7379532572077892e+02 -1.6110916035386770e+04 +8.3875048474525090e+05 +9.7406114576339811e+07 
+3.8499999999999943e+00 -5.5462611744457646e-01 +7.3624362792301721e+00 +3.8211778370231402e+00 -1.7442633643415616e+02 -1.6015285109616165e+04 +8.4466849413788307e+05 +9.6951052057513878e+07 
+3.8999999999999941e+00 -5.5464795885465090e-01 +7.3635470248781818e+00 +3.7922848980914905e+00 -1.7505506113677350e+02 -1.5919973988831423e+04 +8.5055124808632908e+05 +9.6500524486659333e+07 
+3.9499999999999940e+00 -5.5467002169342960e-01 +7.3646683106018918e+00 +3.7632619817560080e+00 -1.7568103243107657e+02 -1.5825131692276791e+04 +8.5639456451914681e+05 +9.6055413785190836e+07 
+3.9999999999999938e+00 -5.5469230444595607e-01 +7.3658000019542476e+00 +3.7341229300310350e+00 -1.7630378261450184e+02 -1.5730907262091805e+04 +8.6219425884848414e+05 +9.5616602005429506e+07 
+4.0499999999999936e+00 -5.5471480547062713e-01 +7.3669419588669873e+00 +3.7048805183289915e+00 -1.7692281518902897e+02 -1.5637441567797814e+04 +8.6794599142616568e+05 +9.5184909912817076e+07 
+4.0999999999999934e+00 -5.5473752261901821e-01 +7.3680940122970906e+00 +3.6755435545545043e+00 -1.7753748804411231e+02 -1.5544843210351630e+04 +8.7364490745862038e+05 +9.4760911237668321e+07 
+4.1499999999999932e+00 -5.5476045361594117e-01 +7.3692559843511605e+00 +3.6461199492933529e+00 -1.7814711691188012e+02 -1.5453212885863986e+04 +8.7928605869564484e+05 +9.4345116895181656e+07 
+4.1999999999999931e+00 -5.5478359618621542e-01 +7.3704276971320342e+00 +3.6166176148040763e+00 -1.7875101737411794e+02 -1.5362651336921957e+04 +8.8486449558700330e+05 +9.3938038121487781e+07 
+4.2499999999999929e+00 -5.5480694805464781e-01 +7.3716089727412770e+00 +3.5870444606598473e+00 -1.7934850496506931e+02 -1.5273259235711801e+04 +8.9037526822166634e+05 +9.3540185691284344e+07 
+4.2999999999999927e+00 -5.5483050694605274e-01 +7.3727996332834778e+00 +3.5574083977174089e+00 -1.7993889534624040e+02 -1.5185137289355256e+04 +8.9581342773516744e+05 +9.3152070616560981e+07 
+4.3499999999999925e+00 -5.5485427058523484e-01 +7.3739995008583232e+00 +3.5277173351376323e+00 -1.8052150397716701e+02 -1.5098386161259332e+04 +9.0117402358735132e+05 +9.2774203623318076e+07 
+4.3999999999999924e+00 -5.5487823669701442e-01 +7.3752083975688185e+00 +3.4979791844004904e+00 -1.8109564646572574e+02 -1.5013106576492768e+04 +9.0645210651411198e+05 +9.2407095855224669e+07 
+4.4499999999999922e+00 -5.5490240300619631e-01 +7.3764261455169109e+00 +3.4682018545384850e+00 -1.8166063837039269e+02 -1.4929399196672430e+04 +9.1164272680695669e+05 +9.2051258037593082e+07 
+4.4999999999999920e+00 -5.5492676723759782e-01 +7.3776525667996369e+00 +3.4383932570924034e+00 -1.8221579506769743e+02 -1.4847364757145344e+04 +9.1674093332071148e+05 +9.1707201419987336e+07 
+4.5499999999999918e+00 -5.5495132711601414e-01 +7.3788874835192475e+00 +3.4085612989015890e+00 -1.8276043212526437e+02 -1.4767103856590056e+04 +9.2174177639769134e+05 +9.1375436293147564e+07 
+4.5999999999999917e+00 -5.5497608036625046e-01 +7.3801307177726700e+00 +3.3787138893972291e+00 -1.8329386493262118e+02 -1.4688717174921472e+04 +9.2664030505523866e+05 +9.1056473542944208e+07 
+4.6499999999999915e+00 -5.5500102471313206e-01 +7.3813820916602184e+00 +3.3488589413444254e+00 -1.8381540899567355e+02 -1.4612305477882994e+04 +9.3143156917320471e+05 +9.0750824619706944e+07 
+4.6999999999999913e+00 -5.5502615788143750e-01 +7.3826414272772167e+00 +3.3190043595919891e+00 -1.8432437963133722e+02 -1.4537969323383191e+04 +9.3611061712572165e+05 +9.0458999598495230e+07 
+4.7499999999999911e+00 -5.5505147759598239e-01 +7.3839085467210195e+00 +3.2891580559074725e+00 -1.8482009224740415e+02 -1.4465809455100249e+04 +9.4067249804499047e+05 +9.0181509804040998e+07 
+4.7999999999999909e+00 -5.5507698158154750e-01 +7.3851832720893595e+00 +3.2593279357270490e+00 -1.8530186227281825e+02 -1.4395926444468274e+04 +9.4511226126206573e+05 +8.9918865394573718e+07 
+4.8499999999999908e+00 -5.5510266756293980e-01 +7.3864654254759907e+00 +3.2295219099016572e+00 -1.8576900497397708e+02 -1.4328421017481440e+04 +9.4942495474271057e+05 +8.9671577610835701e+07 
+4.8999999999999906e+00 -5.5512853326494627e-01 +7.3877548289767114e+00 +3.1997478857479127e+00 -1.8622083571313470e+02 -1.4263393800792650e+04 +9.5360562728148734e+05 +8.9440157008441523e+07 
+4.9499999999999904e+00 -5.5515457641235899e-01 +7.3890513046823845e+00 +3.1700137718420223e+00 -1.8665666965857278e+02 -1.4200945455803054e+04 +9.5764932609733532e+05 +8.9225114380521953e+07 
+4.9999999999999902e+00 -5.5518079472994608e-01 +7.3903546746895303e+00 +3.1403274735037838e+00 -1.8707582222392588e+02 -1.4141176564806503e+04 +9.6155110046229174e+05 +8.9026960025301501e+07 
+5.0499999999999901e+00 -5.5520718594250640e-01 +7.3916647610878865e+00 +3.1106969011540930e+00 -1.8747760852911932e+02 -1.4084187840031538e+04 +9.6530599714552436e+05 +8.8846205090634748e+07 
