# trajectory
# s[mm] rx[mm] ry[mm] rz[mm] px[rad] py[rad] pz[rad]
0.0000000000000000e+00 +8.3650000000000002e+00 +0.0000000000000000e+00 +0.0000000000000000e+00 +0.0000000000000000e+00 +0.0000000000000000e+00 +1.0000000000000000e+00
5.0000000000000003e-02 +8.3649999308034673e+00 +0.0000000000000000e+00 +4.9999999999936151e-02 -2.7678614023585183e-06 +0.0000000000000000e+00 +9.9999999999616951e-01
1.0000000000000001e-01 +8.3649997232138382e+00 +0.0000000000000000e+00 +9.9999999999489247e-02 -5.5357241598864601e-06 +0.0000000000000000e+00 +9.9999999998467792e-01
1.5000000000000002e-01 +8.3649993772309994e+00 +0.0000000000000000e+00 +1.4999999999827623e-01 -8.3035900521251291e-06 +0.0000000000000000e+00 +9.9999999996552524e-01
2.0000000000000001e-01 +8.3649988928547501e+00 +0.0000000000000000e+00 +1.9999999999591406e-01 -1.1071460855353507e-05 +0.0000000000000000e+00 +9.9999999993871147e-01
2.5000000000000000e-01 +8.3649982700848025e+00 +0.0000000000000000e+00 +2.4999999999201966e-01 -1.3839338342588337e-05 +0.0000000000000000e+00 +9.9999999990423649e-01
2.9999999999999999e-01 +8.3649975089207764e+00 +0.0000000000000000e+00 +2.9999999998621002e-01 -1.6607224283584213e-05 +0.0000000000000000e+00 +9.9999999986210020e-01
3.4999999999999998e-01 +8.3649966093622048e+00 +0.0000000000000000e+00 +3.4999999997810199e-01 -1.9375120444833662e-05 +0.0000000000000000e+00 +9.9999999981230248e-01
3.9999999999999997e-01 +8.3649955714085333e+00 +0.0000000000000000e+00 +3.9999999996731256e-01 -2.2143028589567228e-05 +0.0000000000000000e+00 +9.9999999975484322e-01
4.4999999999999996e-01 +8.3649943950591172e+00 +0.0000000000000000e+00 +4.4999999995345863e-01 -2.4910950477753554e-05 +0.0000000000000000e+00 +9.9999999968972231e-01
4.9999999999999994e-01 +8.3649930803132264e+00 +0.0000000000000000e+00 +4.9999999993615707e-01 -2.7678887866099467e-05 +0.0000000000000000e+00 +9.9999999961693964e-01
5.4999999999999993e-01 +8.3649916271700420e+00 +0.0000000000000000e+00 +5.4999999991502491e-01 -3.0446842508050060e-05 +0.0000000000000000e+00 +9.9999999953649499e-01
5.9999999999999998e-01 +8.3649900356286579e+00 +0.0000000000000000e+00 +5.9999999988967889e-01 -3.3214816153788769e-05 +0.0000000000000000e+00 +9.9999999944838813e-01
6.5000000000000002e-01 +8.3649883056880796e+00 +0.0000000000000000e+00 +6.4999999985973600e-01 -3.5982810550237452e-05 +0.0000000000000000e+00 +9.9999999935261885e-01
7.0000000000000007e-01 +8.3649864373472269e+00 +0.0000000000000000e+00 +6.9999999982481309e-01 -3.8750827441056475e-05 +0.0000000000000000e+00 +9.9999999924918681e-01
7.5000000000000011e-01 +8.3649844306049310e+00 +0.0000000000000000e+00 +7.4999999978452703e-01 -4.1518868566644793e-05 +0.0000000000000000e+00 +9.9999999913809190e-01
8.0000000000000016e-01 +8.3649822854599378e+00 +0.0000000000000000e+00 +7.9999999973849456e-01 -4.4286935664140015e-05 +0.0000000000000000e+00 +9.9999999901933379e-01
8.5000000000000020e-01 +8.3649800019109044e+00 +0.0000000000000000e+00 +8.4999999968633266e-01 -4.7055030467418494e-05 +0.0000000000000000e+00 +9.9999999889291213e-01
9.0000000000000024e-01 +8.3649775799564008e+00 +0.0000000000000000e+00 +8.9999999962765809e-01 -4.9823154707095402e-05 +0.0000000000000000e+00 +9.9999999875882672e-01
9.5000000000000029e-01 +8.3649750195949135e+00 +0.0000000000000000e+00 +9.4999999956208758e-01 -5.2591310110524789e-05 +0.0000000000000000e+00 +9.9999999861707711e-01
1.0000000000000002e+00 +8.3649723208248421e+00 +0.0000000000000000e+00 +9.9999999948923801e-01 -5.5359498401799686e-05 +0.0000000000000000e+00 +9.9999999846766308e-01
1.0500000000000003e+00 +8.3649694836444972e+00 +0.0000000000000000e+00 +1.0499999994087261e+00 -5.8127721301752160e-05 +0.0000000000000000e+00 +9.9999999831058417e-01
1.1000000000000003e+00 +8.3649665080521061e+00 +0.0000000000000000e+00 +1.0999999993201686e+00 -6.0895980527953393e-05 +0.0000000000000000e+00 +9.9999999814583995e-01
1.1500000000000004e+00 +8.3649633940458106e+00 +0.0000000000000000e+00 +1.1499999992231822e+00 -6.3664277794713752e-05 +0.0000000000000000e+00 +9.9999999797343009e-01
1.2000000000000004e+00 +8.3649601416236639e+00 +0.0000000000000000e+00 +1.1999999991173838e+00 -6.6432614813082867e-05 +0.0000000000000000e+00 +9.9999999779335402e-01
1.2500000000000004e+00 +8.3649567507836373e+00 +0.0000000000000000e+00 +1.2499999990023898e+00 -6.9200993290849719e-05 +0.0000000000000000e+00 +9.9999999760561142e-01
1.3000000000000005e+00 +8.3649532215236153e+00 +0.0000000000000000e+00 +1.2999999988778170e+00 -7.1969414932542659e-05 +0.0000000000000000e+00 +9.9999999741020185e-01
1.3500000000000005e+00 +8.3649495538413969e+00 +0.0000000000000000e+00 +1.3499999987432822e+00 -7.4737881439429529e-05 +0.0000000000000000e+00 +9.9999999720712474e-01
1.4000000000000006e+00 +8.3649457477346960e+00 +0.0000000000000000e+00 +1.3999999985984017e+00 -7.7506394509517718e-05 +0.0000000000000000e+00 +9.9999999699637965e-01
1.4500000000000006e+00 +8.3649418032011411e+00 +0.0000000000000000e+00 +1.4499999984427923e+00 -8.0274955837554232e-05 +0.0000000000000000e+00 +9.9999999677796603e-01
1.5000000000000007e+00 +8.3649377202382791e+00 +0.0000000000000000e+00 +1.4999999982760706e+00 -8.3043567115025728e-05 +0.0000000000000000e+00 +9.9999999655188332e-01
1.5500000000000007e+00 +8.3649334988435697e+00 +0.0000000000000000e+00 +1.5499999980978529e+00 -8.5812230030158642e-05 +0.0000000000000000e+00 +9.9999999631813097e-01
1.6000000000000008e+00 +8.3649291390143876e+00 +0.0000000000000000e+00 +1.5999999979077559e+00 -8.8580946267919215e-05 +0.0000000000000000e+00 +9.9999999607670831e-01
1.6500000000000008e+00 +8.3649246407480256e+00 +0.0000000000000000e+00 +1.6499999977053961e+00 -9.1349717510013558e-05 +0.0000000000000000e+00 +9.9999999582761490e-01
1.7000000000000008e+00 +8.3649200040416911e+00 +0.0000000000000000e+00 +1.6999999974903897e+00 -9.4118545434887735e-05 +0.0000000000000000e+00 +9.9999999557085006e-01
1.7500000000000009e+00 +8.3649152288925084e+00 +0.0000000000000000e+00 +1.7499999972623532e+00 -9.6887431717727820e-05 +0.0000000000000000e+00 +9.9999999530641315e-01
1.8000000000000009e+00 +8.3649103152975179e+00 +0.0000000000000000e+00 +1.7999999970209031e+00 -9.9656378030459959e-05 +0.0000000000000000e+00 +9.9999999503430348e-01
1.8500000000000010e+00 +8.3649052632536769e+00 +0.0000000000000000e+00 +1.8499999967656557e+00 -1.0242538604175044e-04 +0.0000000000000000e+00 +9.9999999475452050e-01
1.9000000000000010e+00 +8.3649000727578571e+00 +0.0000000000000000e+00 +1.8999999964962273e+00 -1.0519445741700574e-04 +0.0000000000000000e+00 +9.9999999446706345e-01
1.9500000000000011e+00 +8.3648947438068504e+00 +0.0000000000000000e+00 +1.9499999962122341e+00 -1.0796359381837262e-04 +0.0000000000000000e+00 +9.9999999417193164e-01
2.0000000000000009e+00 +8.3648892763973635e+00 +0.0000000000000000e+00 +1.9999999959132924e+00 -1.1073279690473812e-04 +0.0000000000000000e+00 +9.9999999386912430e-01
2.0500000000000007e+00 +8.3648836705260212e+00 +0.0000000000000000e+00 +2.0499999955990185e+00 -1.1350206833149380e-04 +0.0000000000000000e+00 +9.9999999355864067e-01
2.1000000000000005e+00 +8.3648779261893651e+00 +0.0000000000000000e+00 +2.0999999952690285e+00 -1.1627140974794079e-04 +0.0000000000000000e+00 +9.9999999324048006e-01
2.1500000000000004e+00 +8.3648720433838530e+00 +0.0000000000000000e+00 +2.1499999949229385e+00 -1.1904082279469491e-04 +0.0000000000000000e+00 +9.9999999291464170e-01
2.2000000000000002e+00 +8.3648660221058648e+00 +0.0000000000000000e+00 +2.1999999945603648e+00 -1.2181030910345086e-04 +0.0000000000000000e+00 +9.9999999258112471e-01
2.2500000000000000e+00 +8.3648598623516950e+00 +0.0000000000000000e+00 +2.2499999941809232e+00 -1.2457987029698220e-04 +0.0000000000000000e+00 +9.9999999223992841e-01
2.2999999999999998e+00 +8.3648535641175599e+00 +0.0000000000000000e+00 +2.2999999937842297e+00 -1.2734950798914152e-04 +0.0000000000000000e+00 +9.9999999189105182e-01
2.3499999999999996e+00 +8.3648471273995941e+00 +0.0000000000000000e+00 +2.3499999933699005e+00 -1.3011922378486037e-04 +0.0000000000000000e+00 +9.9999999153449426e-01
2.3999999999999995e+00 +8.3648405521938525e+00 +0.0000000000000000e+00 +2.3999999929375511e+00 -1.3288901928014947e-04 +0.0000000000000000e+00 +9.9999999117025473e-01
2.4499999999999993e+00 +8.3648338384963115e+00 +0.0000000000000000e+00 +2.4499999924867977e+00 -1.3565889606209861e-04 +0.0000000000000000e+00 +9.9999999079833246e-01
2.4999999999999991e+00 +8.3648269863028659e+00 +0.0000000000000000e+00 +2.4999999920172562e+00 -1.3842885570887679e-04 +0.0000000000000000e+00 +9.9999999041872645e-01
2.5499999999999989e+00 +8.3648199956093343e+00 +0.0000000000000000e+00 +2.5499999915285421e+00 -1.4119889978973229e-04 +0.0000000000000000e+00 +9.9999999003143580e-01
2.5999999999999988e+00 +8.3648128664114552e+00 +0.0000000000000000e+00 +2.5999999910202716e+00 -1.4396902986499270e-04 +0.0000000000000000e+00 +9.9999998963645964e-01
2.6499999999999986e+00 +8.3648055987048888e+00 +0.0000000000000000e+00 +2.6499999904920601e+00 -1.4673924748606493e-04 +0.0000000000000000e+00 +9.9999998923379707e-01
2.6999999999999984e+00 +8.3647981924852211e+00 +0.0000000000000000e+00 +2.6999999899435232e+00 -1.4950955419543537e-04 +0.0000000000000000e+00 +9.9999998882344709e-01
2.7499999999999982e+00 +8.3647906477479594e+00 +0.0000000000000000e+00 +2.7499999893742766e+00 -1.5227995152666983e-04 +0.0000000000000000e+00 +9.9999998840540871e-01
2.7999999999999980e+00 +8.3647829644885334e+00 +0.0000000000000000e+00 +2.7999999887839357e+00 -1.5505044100441365e-04 +0.0000000000000000e+00 +9.9999998797968093e-01
2.8499999999999979e+00 +8.3647751427022978e+00 +0.0000000000000000e+00 +2.8499999881721165e+00 -1.5782102414439175e-04 +0.0000000000000000e+00 +9.9999998754626274e-01
2.8999999999999977e+00 +8.3647671823845329e+00 +0.0000000000000000e+00 +2.8999999875384339e+00 -1.6059170245340867e-04 +0.0000000000000000e+00 +9.9999998710515314e-01
2.9499999999999975e+00 +8.3647590835304424e+00 +0.0000000000000000e+00 +2.9499999868825038e+00 -1.6336247742934867e-04 +0.0000000000000000e+00 +9.9999998665635104e-01
2.9999999999999973e+00 +8.3647508461351539e+00 +0.0000000000000000e+00 +2.9999999862039410e+00 -1.6613335056117569e-04 +0.0000000000000000e+00 +9.9999998619985542e-01
3.0499999999999972e+00 +8.3647424701937254e+00 +0.0000000000000000e+00 +3.0499999855023612e+00 -1.6890432332893342e-04 +0.0000000000000000e+00 +9.9999998573566529e-01
3.0999999999999970e+00 +8.3647339557011371e+00 +0.0000000000000000e+00 +3.0999999847773791e+00 -1.7167539720374544e-04 +0.0000000000000000e+00 +9.9999998526377953e-01
3.1499999999999968e+00 +8.3647253026522961e+00 +0.0000000000000000e+00 +3.1499999840286108e+00 -1.7444657364781518e-04 +0.0000000000000000e+00 +9.9999998478419705e-01
3.1999999999999966e+00 +8.3647165110420385e+00 +0.0000000000000000e+00 +3.1999999832556707e+00 -1.7721785411442596e-04 +0.0000000000000000e+00 +9.9999998429691661e-01
3.2499999999999964e+00 +8.3647075808651277e+00 +0.0000000000000000e+00 +3.2499999824581742e+00 -1.7998924004794111e-04 +0.0000000000000000e+00 +9.9999998380193722e-01
3.2999999999999963e+00 +8.3646985121162523e+00 +0.0000000000000000e+00 +3.2999999816357364e+00 -1.8276073288380396e-04 +0.0000000000000000e+00 +9.9999998329925777e-01
3.3499999999999961e+00 +8.3646893047900335e+00 +0.0000000000000000e+00 +3.3499999807879717e+00 -1.8553233404853788e-04 +0.0000000000000000e+00 +9.9999998278887703e-01
3.3999999999999959e+00 +8.3646799588810179e+00 +0.0000000000000000e+00 +3.3999999799144955e+00 -1.8830404495974635e-04 +0.0000000000000000e+00 +9.9999998227079379e-01
3.4499999999999957e+00 +8.3646704743836846e+00 +0.0000000000000000e+00 +3.4499999790149225e+00 -1.9107586702611304e-04 +0.0000000000000000e+00 +9.9999998174500693e-01
3.4999999999999956e+00 +8.3646608512924399e+00 +0.0000000000000000e+00 +3.4999999780888675e+00 -1.9384780164740176e-04 +0.0000000000000000e+00 +9.9999998121151534e-01
3.5499999999999954e+00 +8.3646510896016206e+00 +0.0000000000000000e+00 +3.5499999771359456e+00 -1.9661985021445657e-04 +0.0000000000000000e+00 +9.9999998067031770e-01
3.5999999999999952e+00 +8.3646411893054964e+00 +0.0000000000000000e+00 +3.5999999761557708e+00 -1.9939201410920182e-04 +0.0000000000000000e+00 +9.9999998012141278e-01
3.6499999999999950e+00 +8.3646311503982655e+00 +0.0000000000000000e+00 +3.6499999751479582e+00 -2.0216429470464218e-04 +0.0000000000000000e+00 +9.9999997956479936e-01
3.6999999999999948e+00 +8.3646209728740590e+00 +0.0000000000000000e+00 +3.6999999741121221e+00 -2.0493669336486267e-04 +0.0000000000000000e+00 +9.9999997900047621e-01
3.7499999999999947e+00 +8.3646106567269385e+00 +0.0000000000000000e+00 +3.7499999730478772e+00 -2.0770921144502871e-04 +0.0000000000000000e+00 +9.9999997842844213e-01
3.7999999999999945e+00 +8.3646002019509016e+00 +0.0000000000000000e+00 +3.7999999719548376e+00 -2.1048185029138618e-04 +0.0000000000000000e+00 +9.9999997784869576e-01
3.8499999999999943e+00 +8.3645896085398750e+00 +0.0000000000000000e+00 +3.8499999708326182e+00 -2.1325461124126142e-04 +0.0000000000000000e+00 +9.9999997726123580e-01
3.8999999999999941e+00 +8.3645788764877196e+00 +0.0000000000000000e+00 +3.8999999696808327e+00 -2.1602749562306135e-04 +0.0000000000000000e+00 +9.9999997666606100e-01
3.9499999999999940e+00 +8.3645680057882323e+00 +0.0000000000000000e+00 +3.9499999684990956e+00 -2.1880050475627335e-04 +0.0000000000000000e+00 +9.9999997606316993e-01
3.9999999999999938e+00 +8.3645569964351427e+00 +0.0000000000000000e+00 +3.9999999672870210e+00 -2.2157363995146549e-04 +0.0000000000000000e+00 +9.9999997545256136e-01
4.0499999999999936e+00 +8.3645458484221145e+00 +0.0000000000000000e+00 +4.0499999660442230e+00 -2.2434690251005033e-04 +0.0000000000000000e+00 +9.9999997483423397e-01
4.0999999999999934e+00 +8.3645345617427473e+00 +0.0000000000000000e+00 +4.0999999647703156e+00 -2.2712029372168796e-04 +0.0000000000000000e+00 +9.9999997420818643e-01
4.1499999999999932e+00 +8.3645231363905772e+00 +0.0000000000000000e+00 +4.1499999634649125e+00 -2.2989381486168895e-04 +0.0000000000000000e+00 +9.9999997357441728e-01
4.1999999999999931e+00 +8.3645115723590759e+00 +0.0000000000000000e+00 +4.1999999621276283e+00 -2.3266746719077827e-04 +0.0000000000000000e+00 +9.9999997293292520e-01
4.2499999999999929e+00 +8.3644998696416515e+00 +0.0000000000000000e+00 +4.2499999607580765e+00 -2.3544125195509521e-04 +0.0000000000000000e+00 +9.9999997228370874e-01
4.2999999999999927e+00 +8.3644880282316532e+00 +0.0000000000000000e+00 +4.2999999593558709e+00 -2.3821517038619353e-04 +0.0000000000000000e+00 +9.9999997162676657e-01
4.3499999999999925e+00 +8.3644760481223663e+00 +0.0000000000000000e+00 +4.3499999579206250e+00 -2.4098922370104130e-04 +0.0000000000000000e+00 +9.9999997096209725e-01
4.3999999999999924e+00 +8.3644639293070160e+00 +0.0000000000000000e+00 +4.3999999564519525e+00 -2.4376341310202099e-04 +0.0000000000000000e+00 +9.9999997028969945e-01
4.4499999999999922e+00 +8.3644516717787685e+00 +0.0000000000000000e+00 +4.4499999549494662e+00 -2.4653773977692945e-04 +0.0000000000000000e+00 +9.9999996960957160e-01
4.4999999999999920e+00 +8.3644392755307315e+00 +0.0000000000000000e+00 +4.4999999534127806e+00 -2.4931220489897779e-04 +0.0000000000000000e+00 +9.9999996892171239e-01
4.5499999999999918e+00 +8.3644267405559525e+00 +0.0000000000000000e+00 +4.5499999518415084e+00 -2.5208680962679155e-04 +0.0000000000000000e+00 +9.9999996822612036e-01
4.5999999999999917e+00 +8.3644140668474236e+00 +0.0000000000000000e+00 +4.5999999502352633e+00 -2.5486155510441062e-04 +0.0000000000000000e+00 +9.9999996752279396e-01
4.6499999999999915e+00 +8.3644012543980786e+00 +0.0000000000000000e+00 +4.6499999485936589e+00 -2.5763644246128912e-04 +0.0000000000000000e+00 +9.9999996681173187e-01
4.6999999999999913e+00 +8.3643883032007942e+00 +0.0000000000000000e+00 +4.6999999469163081e+00 -2.6041147281229550e-04 +0.0000000000000000e+00 +9.9999996609293251e-01
4.7499999999999911e+00 +8.3643752132483957e+00 +0.0000000000000000e+00 +4.7499999452028234e+00 -2.6318664725771254e-04 +0.0000000000000000e+00 +9.9999996536639446e-01
4.7999999999999909e+00 +8.3643619845336499e+00 +0.0000000000000000e+00 +4.7999999434528187e+00 -2.6596196688323721e-04 +0.0000000000000000e+00 +9.9999996463211616e-01
4.8499999999999908e+00 +8.3643486170492700e+00 +0.0000000000000000e+00 +4.8499999416659065e+00 -2.6873743275998080e-04 +0.0000000000000000e+00 +9.9999996389009616e-01
4.8999999999999906e+00 +8.3643351107879180e+00 +0.0000000000000000e+00 +4.8999999398416998e+00 -2.7151304594446874e-04 +0.0000000000000000e+00 +9.9999996314033290e-01
4.9499999999999904e+00 +8.3643214657422025e+00 +0.0000000000000000e+00 +4.9499999379798112e+00 -2.7428880747864067e-04 +0.0000000000000000e+00 +9.9999996238282496e-01
4.9999999999999902e+00 +8.3643076819046804e+00 +0.0000000000000000e+00 +4.9999999360798535e+00 -2.7706471838985047e-04 +0.0000000000000000e+00 +9.9999996161757077e-01
5.0499999999999901e+00 +8.3642937592678575e+00 +0.0000000000000000e+00 +5.0499999341414394e+00 -2.7984077969086607e-04 +0.0000000000000000e+00 +9.9999996084456888e-01
5.0999999999999899e+00 +8.3642796978241893e+00 +0.0000000000000000e+00 +5.0999999321641818e+00 -2.8261699237986954e-04 +0.0000000000000000e+00 +9.9999996006381764e-01
5.1499999999999897e+00 +8.3642654975660804e+00 +0.0000000000000000e+00 +5.1499999301476924e+00 -2.8539335744045706e-04 +0.0000000000000000e+00 +9.9999995927531560e-01
5.1999999999999895e+00 +8.3642511584858887e+00 +0.0000000000000000e+00 +5.1999999280915841e+00 -2.8816987584163886e-04 +0.0000000000000000e+00 +9.9999995847906109e-01
5.2499999999999893e+00 +8.3642366805759245e+00 +0.0000000000000000e+00 +5.2499999259954695e+00 -2.9094654853783911e-04 +0.0000000000000000e+00 +9.9999995767505268e-01
5.2999999999999892e+00 +8.3642220638284481e+00 +0.0000000000000000e+00 +5.2999999238589606e+00 -2.9372337646889606e-04 +0.0000000000000000e+00 +9.9999995686328880e-01
5.3499999999999890e+00 +8.3642073082356756e+00 +0.0000000000000000e+00 +5.3499999216816692e+00 -2.9650036056006184e-04 +0.0000000000000000e+00 +9.9999995604376779e-01
5.3999999999999888e+00 +8.3641924137897750e+00 +0.0000000000000000e+00 +5.3999999194632080e+00 -2.9927750172200251e-04 +0.0000000000000000e+00 +9.9999995521648810e-01
5.4499999999999886e+00 +8.3641773804828699e+00 +0.0000000000000000e+00 +5.4499999172031890e+00 -3.0205480085079795e-04 +0.0000000000000000e+00 +9.9999995438144818e-01
5.4999999999999885e+00 +8.3641622083070413e+00 +0.0000000000000000e+00 +5.4999999149012240e+00 -3.0483225882794193e-04 +0.0000000000000000e+00 +9.9999995353864646e-01
5.5499999999999883e+00 +8.3641468972543240e+00 +0.0000000000000000e+00 +5.5499999125569248e+00 -3.0760987652034191e-04 +0.0000000000000000e+00 +9.9999995268808139e-01
5.5999999999999881e+00 +8.3641314473167121e+00 +0.0000000000000000e+00 +5.5999999101699034e+00 -3.1038765478031918e-04 +0.0000000000000000e+00 +9.9999995182975132e-01
5.6499999999999879e+00 +8.3641158584861550e+00 +0.0000000000000000e+00 +5.6499999077397707e+00 -3.1316559444560858e-04 +0.0000000000000000e+00 +9.9999995096365468e-01
5.6999999999999877e+00 +8.3641001307545633e+00 +0.0000000000000000e+00 +5.6999999052661394e+00 -3.1594369633935869e-04 +0.0000000000000000e+00 +9.9999995008978981e-01
5.7499999999999876e+00 +8.3640842641138047e+00 +0.0000000000000000e+00 +5.7499999027486206e+00 -3.1872196127013164e-04 +0.0000000000000000e+00 +9.9999994920815505e-01
5.7999999999999874e+00 +8.3640682585557062e+00 +0.0000000000000000e+00 +5.7999999001868252e+00 -3.2150039003190305e-04 +0.0000000000000000e+00 +9.9999994831874894e-01
5.8499999999999872e+00 +8.3640521140720576e+00 +0.0000000000000000e+00 +5.8499998975803660e+00 -3.2427898340406207e-04 +0.0000000000000000e+00 +9.9999994742156972e-01
5.8999999999999870e+00 +8.3640358306546094e+00 +0.0000000000000000e+00 +5.8999998949288530e+00 -3.2705774215141124e-04 +0.0000000000000000e+00 +9.9999994651661583e-01
