# field on trajectory
# s[mm] rx[mm] ry[mm] rz[mm] bx[T] by[T] bz[T]
-0.0000000000000000e+00 +8.5269999999999904e+00 +0.0000000000000000e+00 -0.0000000000000000e+00 -2.9326197404701004e-02 -5.4996429341946229e-01 +5.5671236632410803e-03
-5.0000000000000003e-02 +8.5269999309457507e+00 +0.0000000000000000e+00 -4.9999999999936401e-02 -2.9326473719213673e-02 -5.4996507249610238e-01 +5.5667237441429877e-03
-1.0000000000000001e-01 +8.5269997237883199e+00 +0.0000000000000000e+00 -9.9999999999491399e-02 -2.9326763784521905e-02 -5.4996624580790965e-01 +5.5663254236380470e-03
-1.4999999999999999e-01 +8.5269993785295792e+00 +0.0000000000000000e+00 -1.4999999999828301e-01 -2.9327067803211943e-02 -5.4996781272815265e-01 +5.5659286927293135e-03
-2.0000000000000001e-01 +8.5269988951622508e+00 +0.0000000000000000e+00 -1.9999999999593099e-01 -2.9327385977874203e-02 -5.4996977263018310e-01 +5.5655335424206354e-03
-2.5000000000000000e-01 +8.5269982736936107e+00 +0.0000000000000000e+00 -2.4999999999205300e-01 -2.9327718511094593e-02 -5.4997212488726521e-01 +5.5651399637148278e-03
-2.9999999999999999e-01 +8.5269975141200103e+00 +0.0000000000000000e+00 -2.9999999998626797e-01 -2.9328065605463929e-02 -5.4997486887276059e-01 +5.5647479476156241e-03
-3.4999999999999998e-01 +8.5269966164378292e+00 +0.0000000000000000e+00 -3.4999999997819298e-01 -2.9328427463573892e-02 -5.4997800396004670e-01 +5.5643574851268274e-03
-4.0000000000000002e-01 +8.5269955806543294e+00 +0.0000000000000000e+00 -3.9999999996744900e-01 -2.9328804288013127e-02 -5.4998152952244150e-01 +5.5639685672514557e-03
-4.5000000000000001e-01 +8.5269944067658798e+00 +0.0000000000000000e+00 -4.4999999995365297e-01 -2.9329196281375213e-02 -5.4998544493335777e-01 +5.5635811849934240e-03
-5.0000000000000000e-01 +8.5269930947724806e+00 +0.0000000000000000e+00 -4.9999999993642402e-01 -2.9329603646253383e-02 -5.4998974956619950e-01 +5.5631953293563997e-03
-5.5000000000000004e-01 +8.5269916446777607e+00 +0.0000000000000000e+00 -5.4999999991537996e-01 -2.9330026585240539e-02 -5.4999444279436127e-01 +5.5628109913438053e-03
-5.9999999999999998e-01 +8.5269900564744603e+00 +0.0000000000000000e+00 -5.9999999989013997e-01 -2.9330465300934614e-02 -5.4999952399133412e-01 +5.5624281619599336e-03
-6.5000000000000002e-01 +8.5269883301661995e+00 +0.0000000000000000e+00 -6.4999999986032297e-01 -2.9330919995930599e-02 -5.5000499253054680e-01 +5.5620468322082374e-03
-6.9999999999999996e-01 +8.5269864657566394e+00 +0.0000000000000000e+00 -6.9999999982554695e-01 -2.9331390872824586e-02 -5.5001084778544440e-01 +5.5616669930921778e-03
-7.5000000000000000e-01 +8.5269844632421208e+00 +0.0000000000000000e+00 -7.4999999978543097e-01 -2.9331878134216421e-02 -5.5001708912954184e-01 +5.5612886356157746e-03
-8.0000000000000004e-01 +8.5269823226226400e+00 +0.0000000000000000e+00 -7.9999999973959202e-01 -2.9332381982705782e-02 -5.5002371593634458e-01 +5.5609117507827511e-03
-8.4999999999999998e-01 +8.5269800438982202e+00 +0.0000000000000000e+00 -8.4999999968765005e-01 -2.9332902620893470e-02 -5.5003072757937332e-01 +5.5605363295968026e-03
-9.0000000000000002e-01 +8.5269776270688507e+00 +0.0000000000000000e+00 -8.9999999962922395e-01 -2.9333440251381491e-02 -5.5003812343216607e-01 +5.5601623630615916e-03
-9.4999999999999996e-01 +8.5269750721381605e+00 +0.0000000000000000e+00 -9.4999999956393100e-01 -2.9333995076771775e-02 -5.5004590286825117e-01 +5.5597898421804641e-03
-1.0000000000000000e+00 +8.5269723790988792e+00 +0.0000000000000000e+00 -9.9999999949139096e-01 -2.9334567299671422e-02 -5.5005406526125100e-01 +5.5594187579575526e-03
-1.0500000000000000e+00 +8.5269695479546499e+00 +0.0000000000000000e+00 -1.0499999994112199e+00 -2.9335157122684849e-02 -5.5006260998472600e-01 +5.5590491013960842e-03
-1.1000000000000001e+00 +8.5269665787091107e+00 +0.0000000000000000e+00 -1.0999999993230400e+00 -2.9335764748417776e-02 -5.5007153641225170e-01 +5.5586808634992147e-03
-1.1499999999999999e+00 +8.5269634713586093e+00 +0.0000000000000000e+00 -1.1499999992264700e+00 -2.9336390379479854e-02 -5.5008084391747292e-01 +5.5583140352705868e-03
-1.2000000000000000e+00 +8.5269602259031707e+00 +0.0000000000000000e+00 -1.1999999991211201e+00 -2.9337034218480790e-02 -5.5009053187402346e-01 +5.5579486077134751e-03
-1.2500000000000000e+00 +8.5269568423427700e+00 +0.0000000000000000e+00 -1.2499999990066200e+00 -2.9337696468031652e-02 -5.5010059965555280e-01 +5.5575845718310452e-03
-1.3000000000000000e+00 +8.5269533206774195e+00 +0.0000000000000000e+00 -1.2999999988825901e+00 -2.9338377330744913e-02 -5.5011104663572596e-01 +5.5572219186263705e-03
-1.3500000000000001e+00 +8.5269496609071194e+00 +0.0000000000000000e+00 -1.3499999987486300e+00 -2.9339077009234469e-02 -5.5012187218822395e-01 +5.5568606391023997e-03
-1.3999999999999999e+00 +8.5269458630355093e+00 +0.0000000000000000e+00 -1.3999999986043801e+00 -2.9339795706114315e-02 -5.5013307568671610e-01 +5.5565007242616669e-03
-1.4500000000000000e+00 +8.5269419270553009e+00 +0.0000000000000000e+00 -1.4499999984494401e+00 -2.9340533624003962e-02 -5.5014465650496613e-01 +5.5561421651074364e-03
-1.5000000000000000e+00 +8.5269378529737896e+00 +0.0000000000000000e+00 -1.4999999982834400e+00 -2.9341290965519028e-02 -5.5015661401664773e-01 +5.5557849526416785e-03
-1.5500000000000000e+00 +8.5269336407873197e+00 +0.0000000000000000e+00 -1.5499999981060000e+00 -2.9342067933280723e-02 -5.5016894759552826e-01 +5.5554290778670702e-03
-1.6000000000000001e+00 +8.5269292904959002e+00 +0.0000000000000000e+00 -1.5999999979167401e+00 -2.9342864729910444e-02 -5.5018165661536467e-01 +5.5550745317858412e-03
-1.6499999999999999e+00 +8.5269248020995292e+00 +0.0000000000000000e+00 -1.6499999977152600e+00 -2.9343681558031170e-02 -5.5019474044992756e-01 +5.5547213054000484e-03
-1.7000000000000000e+00 +8.5269201755982102e+00 +0.0000000000000000e+00 -1.6999999975011999e+00 -2.9344518620267511e-02 -5.5020819847300273e-01 +5.5543693897115642e-03
-1.7500000000000000e+00 +8.5269154109919292e+00 +0.0000000000000000e+00 -1.7499999972741700e+00 -2.9345376119245700e-02 -5.5022203005839099e-01 +5.5540187757220786e-03
-1.8000000000000000e+00 +8.5269105082843506e+00 +0.0000000000000000e+00 -1.7999999970337901e+00 -2.9346254257592241e-02 -5.5023623457988058e-01 +5.5536694544327846e-03
-1.8500000000000001e+00 +8.5269054674718099e+00 +0.0000000000000000e+00 -1.8499999967796801e+00 -2.9347153237938114e-02 -5.5025081141132770e-01 +5.5533214168452518e-03
-1.8999999999999999e+00 +8.5269002885506797e+00 +0.0000000000000000e+00 -1.8999999965114500e+00 -2.9348073262915875e-02 -5.5026575992660176e-01 +5.5529746539608122e-03
-1.9500000000000000e+00 +8.5268949715282396e+00 +0.0000000000000000e+00 -1.9499999962287300e+00 -2.9349014535155916e-02 -5.5028107949950900e-01 +5.5526291567797401e-03
-2.0000000000000000e+00 +8.5268895164008391e+00 +0.0000000000000000e+00 -1.9999999959311201e+00 -2.9349977257294328e-02 -5.5029676950394690e-01 +5.5522849163029027e-03
-2.0499999999999998e+00 +8.5268839230666291e+00 +0.0000000000000000e+00 -2.0499999956182600e+00 -2.9350961567716164e-02 -5.5031282904318746e-01 +5.5519419255726388e-03
-2.1000000000000001e+00 +8.5268781914164702e+00 +0.0000000000000000e+00 -2.0999999952897199e+00 -2.9351967347655196e-02 -5.5032925613516859e-01 +5.5516001857680167e-03
-2.1499999999999999e+00 +8.5268723214576294e+00 +0.0000000000000000e+00 -2.1499999949451398e+00 -2.9352994414014278e-02 -5.5034604852565228e-01 +5.5512597000931113e-03
-2.2000000000000002e+00 +8.5268663131864706e+00 +0.0000000000000000e+00 -2.1999999945841302e+00 -2.9354042583700585e-02 -5.5036320396048899e-01 +5.5509204717528026e-03
-2.2500000000000000e+00 +8.5268601666030008e+00 +0.0000000000000000e+00 -2.2499999942063100e+00 -2.9355111673620274e-02 -5.5038072018551709e-01 +5.5505825039516791e-03
-2.2999999999999998e+00 +8.5268538817035697e+00 +0.0000000000000000e+00 -2.2999999938113000e+00 -2.9356201500681040e-02 -5.5039859494661214e-01 +5.5502457998945843e-03
-2.3500000000000001e+00 +8.5268474584954692e+00 +0.0000000000000000e+00 -2.3499999933987001e+00 -2.9357311881786755e-02 -5.5041682598958308e-01 +5.5499103627854995e-03
-2.3999999999999999e+00 +8.5268408969750507e+00 +0.0000000000000000e+00 -2.3999999929681501e+00 -2.9358442633845388e-02 -5.5043541106032823e-01 +5.5495761958292431e-03
-2.4500000000000002e+00 +8.5268341971459396e+00 +0.0000000000000000e+00 -2.4499999925192602e+00 -2.9359593573762319e-02 -5.5045434790470560e-01 +5.5492433022300662e-03
-2.5000000000000000e+00 +8.5268273590008903e+00 +0.0000000000000000e+00 -2.4999999920516398e+00 -2.9360764518446898e-02 -5.5047363426866269e-01 +5.5489116851930587e-03
-2.5499999999999998e+00 +8.5268203825435194e+00 +0.0000000000000000e+00 -2.5499999915649201e+00 -2.9361955284804390e-02 -5.5049326789807951e-01 +5.5485813479224664e-03
-2.6000000000000001e+00 +8.5268132677774702e+00 +0.0000000000000000e+00 -2.5999999910586999e+00 -2.9363165689739981e-02 -5.5051324653884603e-01 +5.5482522936225465e-03
-2.6499999999999999e+00 +8.5268060146954703e+00 +0.0000000000000000e+00 -2.6499999905326099e+00 -2.9364395550162650e-02 -5.5053356793694197e-01 +5.5479245254984131e-03
-2.7000000000000002e+00 +8.5267986233047797e+00 +0.0000000000000000e+00 -2.6999999899862699e+00 -2.9365644682975769e-02 -5.5055422983825286e-01 +5.5475980467540598e-03
-2.7500000000000000e+00 +8.5267910936017905e+00 +0.0000000000000000e+00 -2.7499999894192899e+00 -2.9366912905086459e-02 -5.5057522998875230e-01 +5.5472728605943569e-03
-2.7999999999999998e+00 +8.5267834255828294e+00 +0.0000000000000000e+00 -2.7999999888312899e+00 -2.9368200033401459e-02 -5.5059656613442487e-01 +5.5469489702241912e-03
-2.8500000000000001e+00 +8.5267756192552007e+00 +0.0000000000000000e+00 -2.8499999882218900e+00 -2.9369505884823070e-02 -5.5061823602118498e-01 +5.5466263788476345e-03
-2.8999999999999999e+00 +8.5267676746152592e+00 +0.0000000000000000e+00 -2.8999999875907001e+00 -2.9370830276257125e-02 -5.5064023739503631e-01 +5.5463050896696342e-03
-2.9500000000000002e+00 +8.5267595916629908e+00 +0.0000000000000000e+00 -2.9499999869373399e+00 -2.9372173024607633e-02 -5.5066256800196600e-01 +5.5459851058949046e-03
-3.0000000000000000e+00 +8.5267513703984203e+00 +0.0000000000000000e+00 -2.9999999862614302e+00 -2.9373533946777920e-02 -5.5068522558796928e-01 +5.5456664307281852e-03
-3.0499999999999998e+00 +8.5267430108251592e+00 +0.0000000000000000e+00 -3.0499999855625899e+00 -2.9374912859669380e-02 -5.5070820789902497e-01 +5.5453490673739907e-03
-3.1000000000000001e+00 +8.5267345129359509e+00 +0.0000000000000000e+00 -3.0999999848404300e+00 -2.9376309580186694e-02 -5.5073151268119958e-01 +5.5450330190377319e-03
-3.1499999999999999e+00 +8.5267258767344192e+00 +0.0000000000000000e+00 -3.1499999840945798e+00 -2.9377723925229755e-02 -5.5075513768048923e-01 +5.5447182889240233e-03
-3.2000000000000002e+00 +8.5267171022205694e+00 +0.0000000000000000e+00 -3.1999999833246400e+00 -2.9379155711698975e-02 -5.5077908064292502e-01 +5.5444048802378246e-03
-3.2500000000000000e+00 +8.5267081893980503e+00 +0.0000000000000000e+00 -3.2499999825302401e+00 -2.9380604756492495e-02 -5.5080333931451997e-01 +5.5440927961838771e-03
-3.2999999999999998e+00 +8.5266991382632096e+00 +0.0000000000000000e+00 -3.2999999817109900e+00 -2.9382070876510250e-02 -5.5082791144134791e-01 +5.5437820399675524e-03
-3.3500000000000001e+00 +8.5266899488124199e+00 +0.0000000000000000e+00 -3.3499999808665200e+00 -2.9383553888651111e-02 -5.5085279476949023e-01 +5.5434726147942925e-03
-3.3999999999999999e+00 +8.5266806210529502e+00 +0.0000000000000000e+00 -3.3999999799964300e+00 -2.9385053609808909e-02 -5.5087798704495772e-01 +5.5431645238687771e-03
-3.4500000000000002e+00 +8.5266711549811607e+00 +0.0000000000000000e+00 -3.4499999791003502e+00 -2.9386569856880315e-02 -5.5090348601384731e-01 +5.5428577703966059e-03
-3.5000000000000000e+00 +8.5266615505970496e+00 +0.0000000000000000e+00 -3.4999999781778901e+00 -2.9388102446759549e-02 -5.5092928942223718e-01 +5.5425523575831854e-03
-3.5499999999999998e+00 +8.5266518079006293e+00 +0.0000000000000000e+00 -3.5499999772286701e+00 -2.9389651196339517e-02 -5.5095539501621249e-01 +5.5422482886340130e-03
-3.6000000000000001e+00 +8.5266419268882601e+00 +0.0000000000000000e+00 -3.5999999762523198e+00 -2.9391215922513217e-02 -5.5098180054189216e-01 +5.5419455667549602e-03
-3.6499999999999999e+00 +8.5266319075708505e+00 +0.0000000000000000e+00 -3.6499999752484298e+00 -2.9392796442166899e-02 -5.5100850374529575e-01 +5.5416441951508686e-03
-3.6999999999999900e+00 +8.5266217499374797e+00 +0.0000000000000000e+00 -3.6999999742166398e+00 -2.9394392572193433e-02 -5.5103550237260890e-01 +5.5413441770283817e-03
-3.7499999999999898e+00 +8.5266114539917908e+00 +0.0000000000000000e+00 -3.7499999731565601e+00 -2.9396004129478893e-02 -5.5106279416991688e-01 +5.5410455155931130e-03
-3.7999999999999901e+00 +8.5266010197374307e+00 +0.0000000000000000e+00 -3.7999999720678099e+00 -2.9397630930907755e-02 -5.5109037688331208e-01 +5.5407482140507943e-03
-3.8499999999999899e+00 +8.5265904471671092e+00 +0.0000000000000000e+00 -3.8499999709499999e+00 -2.9399272793366956e-02 -5.5111824825897171e-01 +5.5404522756081131e-03
-3.8999999999999901e+00 +8.5265797362881095e+00 +0.0000000000000000e+00 -3.8999999698027499e+00 -2.9400929533736443e-02 -5.5114640604297371e-01 +5.5401577034707586e-03
-3.9499999999999900e+00 +8.5265688870931609e+00 +0.0000000000000000e+00 -3.9499999686256899e+00 -2.9402600968899743e-02 -5.5117484798150662e-01 +5.5398645008456664e-03
-3.9999999999999898e+00 +8.5265578995895304e+00 +0.0000000000000000e+00 -3.9999999674184199e+00 -2.9404286915733321e-02 -5.5120357182065971e-01 +5.5395726709387746e-03
-4.0499999999999901e+00 +8.5265467737735907e+00 +0.0000000000000000e+00 -4.0499999661805601e+00 -2.9405987184252247e-02 -5.5123257518902258e-01 +5.5392822171529549e-03
-4.0999999999999899e+00 +8.5265355096416897e+00 +0.0000000000000000e+00 -4.0999999649117402e+00 -2.9407701557016497e-02 -5.5126185524485294e-01 +5.5389931436750127e-03
-4.1499999999999897e+00 +8.5265241072047502e+00 +0.0000000000000000e+00 -4.1499999636115703e+00 -2.9409429809718095e-02 -5.5129140902872009e-01 +5.5387054548867044e-03
-4.1999999999999904e+00 +8.5265125664518600e+00 +0.0000000000000000e+00 -4.1999999622796604e+00 -2.9411171718058349e-02 -5.5132123358135321e-01 +5.5384191551715867e-03
-4.2499999999999902e+00 +8.5265008873866499e+00 +0.0000000000000000e+00 -4.2499999609156403e+00 -2.9412927057734493e-02 -5.5135132594337566e-01 +5.5381342489122191e-03
-4.2999999999999901e+00 +8.5264890700091200e+00 +0.0000000000000000e+00 -4.2999999595191198e+00 -2.9414695604446445e-02 -5.5138168315543834e-01 +5.5378507404915591e-03
-4.3499999999999899e+00 +8.5264771143192792e+00 +0.0000000000000000e+00 -4.3499999580897200e+00 -2.9416477133895506e-02 -5.5141230225819204e-01 +5.5375686342926988e-03
-4.3999999999999897e+00 +8.5264650203207601e+00 +0.0000000000000000e+00 -4.3999999566270596e+00 -2.9418271421783024e-02 -5.5144318029226091e-01 +5.5372879346985860e-03
-4.4499999999999904e+00 +8.5264527880062797e+00 +0.0000000000000000e+00 -4.4499999551307496e+00 -2.9420078243815838e-02 -5.5147431429834759e-01 +5.5370086460931368e-03
-4.4999999999999902e+00 +8.5264404173794901e+00 +0.0000000000000000e+00 -4.4999999536004101e+00 -2.9421897375698218e-02 -5.5150570131707510e-01 +5.5367307728595725e-03
-4.5499999999999901e+00 +8.5264279084440204e+00 +0.0000000000000000e+00 -4.5499999520356598e+00 -2.9423728593135964e-02 -5.5153733838906494e-01 +5.5364543193812564e-03
-4.5999999999999899e+00 +8.5264152611962292e+00 +0.0000000000000000e+00 -4.5999999504361098e+00 -2.9425571671839137e-02 -5.5156922255499063e-01 +5.5361792900422589e-03
-4.6499999999999897e+00 +8.5264024756361305e+00 +0.0000000000000000e+00 -4.6499999488013897e+00 -2.9427426387518017e-02 -5.5160135085549655e-01 +5.5359056892265168e-03
-4.6999999999999904e+00 +8.5263895517600794e+00 +0.0000000000000000e+00 -4.6999999471311096e+00 -2.9429292515885896e-02 -5.5163372033125246e-01 +5.5356335213184059e-03
-4.7499999999999902e+00 +8.5263764895753393e+00 +0.0000000000000000e+00 -4.7499999454248902e+00 -2.9431169832653672e-02 -5.5166632802284610e-01 +5.5353627907016182e-03
-4.7999999999999901e+00 +8.5263632890782901e+00 +0.0000000000000000e+00 -4.7999999436823400e+00 -2.9433058113537993e-02 -5.5169917097094201e-01 +5.5350935017608452e-03
-4.8499999999999899e+00 +8.5263499502725608e+00 +0.0000000000000000e+00 -4.8499999419030901e+00 -2.9434957134254584e-02 -5.5173224621614902e-01 +5.5348256588803827e-03
-4.8999999999999897e+00 +8.5263364731472393e+00 +0.0000000000000000e+00 -4.8999999400867402e+00 -2.9436866670526293e-02 -5.5176555079917844e-01 +5.5345592664458191e-03
-4.9499999999999904e+00 +8.5263228577168793e+00 +0.0000000000000000e+00 -4.9499999382329296e+00 -2.9438786498068414e-02 -5.5179908176055281e-01 +5.5342943288409453e-03
-4.9999999999999902e+00 +8.5263091039705596e+00 +0.0000000000000000e+00 -4.9999999363412497e+00 -2.9440716392607445e-02 -5.5183283614097622e-01 +5.5340308504516957e-03
-5.0499999999999901e+00 +8.5262952115954196e+00 +0.0000000000000000e+00 -5.0499999344112600e+00 -2.9442656129983747e-02 -5.5186681098335244e-01 +5.5337688356874807e-03
-5.0999999999999899e+00 +8.5262811802713294e+00 +0.0000000000000000e+00 -5.0999999324424596e+00 -2.9444605486042389e-02 -5.5190100333063541e-01 +5.5335082889584495e-03
-5.1499999999999897e+00 +8.5262670100019005e+00 +0.0000000000000000e+00 -5.1499999304344799e+00 -2.9446564236510500e-02 -5.5193541022341364e-01 +5.5332492146499494e-03
-5.1999999999999904e+00 +8.5262527007798798e+00 +0.0000000000000000e+00 -5.1999999283869203e+00 -2.9448532157121236e-02 -5.5197002870234979e-01 +5.5329916171483482e-03
-5.2499999999999902e+00 +8.5262382526088896e+00 +0.0000000000000000e+00 -5.2499999262994104e+00 -2.9450509023605780e-02 -5.5200485580802194e-01 +5.5327355008393791e-03
-5.2999999999999901e+00 +8.5262236654925800e+00 +0.0000000000000000e+00 -5.2999999241715603e+00 -2.9452494611697390e-02 -5.5203988858100306e-01 +5.5324808701089669e-03
-5.3499999999999899e+00 +8.5262089394273097e+00 +0.0000000000000000e+00 -5.3499999220029704e+00 -2.9454488697134136e-02 -5.5207512406191195e-01 +5.5322277293437926e-03
-5.3999999999999897e+00 +8.5261940744130698e+00 +0.0000000000000000e+00 -5.3999999197932702e+00 -2.9456491055654902e-02 -5.5211055929133634e-01 +5.5319760829304725e-03
-5.4499999999999904e+00 +8.5261790704498708e+00 +0.0000000000000000e+00 -5.4499999175420601e+00 -2.9458501463000782e-02 -5.5214619130985698e-01 +5.5317259352558211e-03
-5.4999999999999902e+00 +8.5261639275377092e+00 +0.0000000000000000e+00 -5.4999999152489698e+00 -2.9460519694915092e-02 -5.5218201715804727e-01 +5.5314772907068622e-03
-5.5499999999999901e+00 +8.5261486456802196e+00 +0.0000000000000000e+00 -5.5499999129136004e+00 -2.9462545527142038e-02 -5.5221803387644752e-01 +5.5312301536705631e-03
-5.5999999999999899e+00 +8.5261332248737691e+00 +0.0000000000000000e+00 -5.5999999105355700e+00 -2.9464578735430878e-02 -5.5225423850564348e-01 +5.5309845285346614e-03
-5.6499999999999897e+00 +8.5261176651147306e+00 +0.0000000000000000e+00 -5.6499999081144896e+00 -2.9466619095533213e-02 -5.5229062808621388e-01 +5.5307404196871255e-03
-5.6999999999999904e+00 +8.5261019664103497e+00 +0.0000000000000000e+00 -5.6999999056499897e+00 -2.9468666383198942e-02 -5.5232719965864951e-01 +5.5304978315152973e-03
-5.7499999999999902e+00 +8.5260861287570204e+00 +0.0000000000000000e+00 -5.7499999031416600e+00 -2.9470720374184474e-02 -5.5236395026351248e-01 +5.5302567684076013e-03
-5.7999999999999901e+00 +8.5260701521547198e+00 +0.0000000000000000e+00 -5.7999999005891203e+00 -2.9472780844247298e-02 -5.5240087694132944e-01 +5.5300172347524023e-03
-5.8499999999999899e+00 +8.5260540366070892e+00 +0.0000000000000000e+00 -5.8499998979920003e+00 -2.9474847569146076e-02 -5.5243797673259243e-01 +5.5297792349380303e-03
