# field on trajectory
# s[mm] rx[mm] ry[mm] rz[mm] bx[T] by[T] bz[T]
0.0000000000000000e+00 +8.5270000000000206e+00 +0.0000000000000000e+00 +0.0000000000000000e+00 -2.8918593827685843e-02 -5.5200702500047771e-01 +5.3774519160756894e-03
5.0000000000000003e-02 +8.5269999309457507e+00 +0.0000000000000000e+00 +4.9999999999936401e-02 -2.8918401872487082e-02 -5.5200434036704116e-01 +5.3749357424038944e-03
1.0000000000000001e-01 +8.5269997237846802e+00 +0.0000000000000000e+00 +9.9999999999491399e-02 -2.8918233795561164e-02 -5.5200200839979696e-01 +5.3724272803036864e-03
1.4999999999999999e-01 +8.5269993785186706e+00 +0.0000000000000000e+00 +1.4999999999828301e-01 -2.8918089644781961e-02 -5.5200002856270913e-01 +5.3699266900704597e-03
2.0000000000000001e-01 +8.5269988951477007e+00 +0.0000000000000000e+00 +1.9999999999593099e-01 -2.8917969468025110e-02 -5.5199840031977232e-01 +5.3674341320000324e-03
2.5000000000000000e-01 +8.5269982736681396e+00 +0.0000000000000000e+00 +2.4999999999205300e-01 -2.8917873313168703e-02 -5.5199712313502192e-01 +5.3649497663887944e-03
2.9999999999999999e-01 +8.5269975140799907e+00 +0.0000000000000000e+00 +2.9999999998626697e-01 -2.8917801228090421e-02 -5.5199619647248355e-01 +5.3624737535332232e-03
3.4999999999999998e-01 +8.5269966163905302e+00 +0.0000000000000000e+00 +3.4999999997819298e-01 -2.8917753260666080e-02 -5.5199561979614620e-01 +5.3600062537296394e-03
4.0000000000000002e-01 +8.5269955805888493e+00 +0.0000000000000000e+00 +3.9999999996744801e-01 -2.8917729458779563e-02 -5.5199539257014529e-01 +5.3575474272760581e-03
4.5000000000000001e-01 +8.5269944066858407e+00 +0.0000000000000000e+00 +4.4999999995365197e-01 -2.8917729870307059e-02 -5.5199551425847482e-01 +5.3550974344693534e-03
5.0000000000000000e-01 +8.5269930946742498e+00 +0.0000000000000000e+00 +4.9999999993642202e-01 -2.8917754543132796e-02 -5.5199598432527497e-01 +5.3526564356081423e-03
5.5000000000000004e-01 +8.5269916445577092e+00 +0.0000000000000000e+00 +5.4999999991537796e-01 -2.8917803525137526e-02 -5.5199680223462289e-01 +5.3502245909907266e-03
5.9999999999999998e-01 +8.5269900563289394e+00 +0.0000000000000000e+00 +5.9999999989013697e-01 -2.8917876864207114e-02 -5.5199796745069041e-01 +5.3478020609166862e-03
6.5000000000000002e-01 +8.5269883299988596e+00 +0.0000000000000000e+00 +6.4999999986031898e-01 -2.8917974608221004e-02 -5.5199947943753225e-01 +5.3453890056848231e-03
6.9999999999999996e-01 +8.5269864655601904e+00 +0.0000000000000000e+00 +6.9999999982554195e-01 -2.8918096805066500e-02 -5.5200133765935022e-01 +5.3429855855957730e-03
7.5000000000000000e-01 +8.5269844630165608e+00 +0.0000000000000000e+00 +7.4999999978542398e-01 -2.8918243502627370e-02 -5.5200354158028242e-01 +5.3405919609499771e-03
8.0000000000000004e-01 +8.5269823223679904e+00 +0.0000000000000000e+00 +7.9999999973958402e-01 -2.8918414748789405e-02 -5.5200609066450790e-01 +5.3382082920487191e-03
8.4999999999999998e-01 +8.5269800436108198e+00 +0.0000000000000000e+00 +8.4999999968764095e-01 -2.8918610591440488e-02 -5.5200898437624768e-01 +5.3358347391941679e-03
9.0000000000000002e-01 +8.5269776267450705e+00 +0.0000000000000000e+00 +8.9999999962921295e-01 -2.8918831078467624e-02 -5.5201222217971058e-01 +5.3334714626888744e-03
9.4999999999999996e-01 +8.5269750717743609e+00 +0.0000000000000000e+00 +9.4999999956391801e-01 -2.8919076257756946e-02 -5.5201580353909430e-01 +5.3311186228358065e-03
1.0000000000000000e+00 +8.5269723786986997e+00 +0.0000000000000000e+00 +9.9999999949137597e-01 -2.8919346177196541e-02 -5.5201972791863718e-01 +5.3287763799388915e-03
1.0500000000000000e+00 +8.5269695475144491e+00 +0.0000000000000000e+00 +1.0499999994111999e+00 -2.8919640884676384e-02 -5.5202399478261888e-01 +5.3264448943030236e-03
1.1000000000000001e+00 +8.5269665782288904e+00 +0.0000000000000000e+00 +1.0999999993230201e+00 -2.8919960428082637e-02 -5.5202860359525485e-01 +5.3241243262330861e-03
1.1499999999999999e+00 +8.5269634708311095e+00 +0.0000000000000000e+00 +1.1499999992264500e+00 -2.8920304855308974e-02 -5.5203355382090591e-01 +5.3218148360360019e-03
1.2000000000000000e+00 +8.5269602253283701e+00 +0.0000000000000000e+00 +1.1999999991210999e+00 -2.8920674214242340e-02 -5.5203884492381616e-01 +5.3195165840182303e-03
1.2500000000000000e+00 +8.5269568417206791e+00 +0.0000000000000000e+00 +1.2499999990065900e+00 -2.8921068552772839e-02 -5.5204447636829646e-01 +5.3172297304875495e-03
1.3000000000000000e+00 +8.5269533200044005e+00 +0.0000000000000000e+00 +1.2999999988825499e+00 -2.8921487918792326e-02 -5.5205044761869859e-01 +5.3149544357528463e-03
1.3500000000000001e+00 +8.5269496601795307e+00 +0.0000000000000000e+00 +1.3499999987485900e+00 -2.8921932360191513e-02 -5.5205675813936173e-01 +5.3126908601236304e-03
1.3999999999999999e+00 +8.5269458622533403e+00 +0.0000000000000000e+00 +1.3999999986043401e+00 -2.8922401924858426e-02 -5.5206340739458681e-01 +5.3104391639097930e-03
1.4500000000000000e+00 +8.5269419262185693e+00 +0.0000000000000000e+00 +1.4499999984494001e+00 -2.8922896660687057e-02 -5.5207039484879350e-01 +5.3081995074231751e-03
1.5000000000000000e+00 +8.5269378520752106e+00 +0.0000000000000000e+00 +1.4999999982833900e+00 -2.8923416615568687e-02 -5.5207771996636312e-01 +5.3059720509760523e-03
1.5500000000000000e+00 +8.5269336398268898e+00 +0.0000000000000000e+00 +1.5499999981059500e+00 -2.8923961837393288e-02 -5.5208538221166481e-01 +5.3037569548814280e-03
1.6000000000000001e+00 +8.5269292894736299e+00 +0.0000000000000000e+00 +1.5999999979166799e+00 -2.8924532374052365e-02 -5.5209338104910710e-01 +5.3015543794535510e-03
1.6499999999999999e+00 +8.5269248010117700e+00 +0.0000000000000000e+00 +1.6499999977152000e+00 -2.8925128273438894e-02 -5.5210171594313950e-01 +5.2993644850079574e-03
1.7000000000000000e+00 +8.5269201744449692e+00 +0.0000000000000000e+00 +1.6999999975011300e+00 -2.8925749583443006e-02 -5.5211038635817111e-01 +5.2971874318607209e-03
1.7500000000000000e+00 +8.5269154097695701e+00 +0.0000000000000000e+00 +1.7499999972740901e+00 -2.8926396351957716e-02 -5.5211939175867841e-01 +5.2950233803295043e-03
1.8000000000000000e+00 +8.5269105069892195e+00 +0.0000000000000000e+00 +1.7999999970336999e+00 -2.8927068626873081e-02 -5.5212873160909826e-01 +5.2928724907325602e-03
1.8500000000000001e+00 +8.5269054661039299e+00 +0.0000000000000000e+00 +1.8499999967795799e+00 -2.8927766456080518e-02 -5.5213840537390657e-01 +5.2907349233895212e-03
1.8999999999999999e+00 +8.5269002871100401e+00 +0.0000000000000000e+00 +1.8999999965113501e+00 -2.8928489887472798e-02 -5.5214841251762026e-01 +5.2886108386214284e-03
1.9500000000000000e+00 +8.5268949700112007e+00 +0.0000000000000000e+00 +1.9499999962286201e+00 -2.8929238968939612e-02 -5.5215875250471536e-01 +5.2865003967499952e-03
2.0000000000000000e+00 +8.5268895148037700e+00 +0.0000000000000000e+00 +1.9999999959310100e+00 -2.8930013748373361e-02 -5.5216942479973474e-01 +5.2844037580986334e-03
2.0499999999999998e+00 +8.5268839213858900e+00 +0.0000000000000000e+00 +2.0499999956181298e+00 -2.8930814223496835e-02 -5.5218042862343408e-01 +5.2823210674909108e-03
2.1000000000000001e+00 +8.5268781896593300e+00 +0.0000000000000000e+00 +2.0999999952895898e+00 -2.8931640191198697e-02 -5.5219176221850530e-01 +5.2802524077199490e-03
2.1499999999999999e+00 +8.5268723196240899e+00 +0.0000000000000000e+00 +2.1499999949449999e+00 -2.8932491398120857e-02 -5.5220342358242436e-01 +5.2781978460650246e-03
2.2000000000000002e+00 +8.5268663112729008e+00 +0.0000000000000000e+00 +2.1999999945839801e+00 -2.8933367590908601e-02 -5.5221541071273172e-01 +5.2761574498065384e-03
2.2500000000000000e+00 +8.5268601646093902e+00 +0.0000000000000000e+00 +2.2499999942061502e+00 -2.8934268516203326e-02 -5.5222772160689904e-01 +5.2741312862247657e-03
2.2999999999999998e+00 +8.5268538796335598e+00 +0.0000000000000000e+00 +2.2999999938111202e+00 -2.8935193920648316e-02 -5.5224035426243501e-01 +5.2721194226008307e-03
2.3500000000000001e+00 +8.5268474563490599e+00 +0.0000000000000000e+00 +2.3499999933985198e+00 -2.8936143550885869e-02 -5.5225330667683270e-01 +5.2701219262162105e-03
2.3999999999999999e+00 +8.5268408947522403e+00 +0.0000000000000000e+00 +2.3999999929679601e+00 -2.8937117153561669e-02 -5.5226657684764868e-01 +5.2681388643534546e-03
2.4500000000000002e+00 +8.5268341948467405e+00 +0.0000000000000000e+00 +2.4499999925190501e+00 -2.8938114475318941e-02 -5.5228016277239622e-01 +5.2661703042951877e-03
2.5000000000000000e+00 +8.5268273566252901e+00 +0.0000000000000000e+00 +2.4999999920514302e+00 -2.8939135262805740e-02 -5.5229406244867796e-01 +5.2642163133253322e-03
2.5499999999999998e+00 +8.5268203800987994e+00 +0.0000000000000000e+00 +2.5499999915646900e+00 -2.8940179262663426e-02 -5.5230827387397441e-01 +5.2622769587271244e-03
2.6000000000000001e+00 +8.5268132652563509e+00 +0.0000000000000000e+00 +2.5999999910584699e+00 -2.8941246221542472e-02 -5.5232279504593429e-01 +5.2603523077858049e-03
2.6499999999999999e+00 +8.5268060121015896e+00 +0.0000000000000000e+00 +2.6499999905323701e+00 -2.8942335886088112e-02 -5.5233762396211006e-01 +5.2584424277861584e-03
2.7000000000000002e+00 +8.5267986206345103e+00 +0.0000000000000000e+00 +2.6999999899860101e+00 -2.8943448002947507e-02 -5.5235275862008915e-01 +5.2565473860137135e-03
2.7500000000000000e+00 +8.5267910908551094e+00 +0.0000000000000000e+00 +2.7499999894190199e+00 -2.8944582318768387e-02 -5.5236819701746964e-01 +5.2546672497545063e-03
2.7999999999999998e+00 +8.5267834227670392e+00 +0.0000000000000000e+00 +2.7999999888310101e+00 -2.8945738580197496e-02 -5.5238393715183010e-01 +5.2528020862947986e-03
2.8500000000000001e+00 +8.5267756163666508e+00 +0.0000000000000000e+00 +2.8499999882215898e+00 -2.8946916533885075e-02 -5.5239997702081245e-01 +5.2509519629218250e-03
2.8999999999999999e+00 +8.5267676716539391e+00 +0.0000000000000000e+00 +2.8999999875903901e+00 -2.8948115926480410e-02 -5.5241631462203955e-01 +5.2491169469230260e-03
2.9500000000000002e+00 +8.5267595886289200e+00 +0.0000000000000000e+00 +2.9499999869370299e+00 -2.8949336504633355e-02 -5.5243294795314335e-01 +5.2472971055862964e-03
3.0000000000000000e+00 +8.5267513672915793e+00 +0.0000000000000000e+00 +2.9999999862611100e+00 -2.8950578014994330e-02 -5.5244987501176390e-01 +5.2454925061999587e-03
3.0499999999999998e+00 +8.5267430076455604e+00 +0.0000000000000000e+00 +3.0499999855622502e+00 -2.8951840204212861e-02 -5.5246709379552228e-01 +5.2437032160525220e-03
3.1000000000000001e+00 +8.5267345096872305e+00 +0.0000000000000000e+00 +3.0999999848400801e+00 -2.8953122818941943e-02 -5.5248460230210072e-01 +5.2419293024333815e-03
3.1499999999999999e+00 +8.5267258734165807e+00 +0.0000000000000000e+00 +3.1499999840942201e+00 -2.8954425605833709e-02 -5.5250239852916272e-01 +5.2401708326321001e-03
3.2000000000000002e+00 +8.5267170988336094e+00 +0.0000000000000000e+00 +3.1999999833242700e+00 -2.8955748311540869e-02 -5.5252048047437896e-01 +5.2384278739386206e-03
3.2500000000000000e+00 +8.5267081859419704e+00 +0.0000000000000000e+00 +3.2499999825298600e+00 -2.8957090682715278e-02 -5.5253884613540127e-01 +5.2367004936430123e-03
3.2999999999999998e+00 +8.5266991347380099e+00 +0.0000000000000000e+00 +3.2999999817106000e+00 -2.8958452466012329e-02 -5.5255749350994166e-01 +5.2349887590362031e-03
3.3500000000000001e+00 +8.5266899452181004e+00 +0.0000000000000000e+00 +3.3499999808661101e+00 -2.8959833408087946e-02 -5.5257642059571854e-01 +5.2332927374094560e-03
3.3999999999999999e+00 +8.5266806173895002e+00 +0.0000000000000000e+00 +3.3999999799960099e+00 -2.8961233255594413e-02 -5.5259562539037788e-01 +5.2316124960536557e-03
3.4500000000000002e+00 +8.5266711512522306e+00 +0.0000000000000000e+00 +3.4499999790999101e+00 -2.8962651755187484e-02 -5.5261510589162555e-01 +5.2299481022604934e-03
3.5000000000000000e+00 +8.5266615468026394e+00 +0.0000000000000000e+00 +3.4999999781774398e+00 -2.8964088653525000e-02 -5.5263486009720020e-01 +5.2282996233222086e-03
3.5499999999999998e+00 +8.5266518040407409e+00 +0.0000000000000000e+00 +3.5499999772282100e+00 -2.8965543697263996e-02 -5.5265488600481960e-01 +5.2266671265311050e-03
3.6000000000000001e+00 +8.5266419229665207e+00 +0.0000000000000000e+00 +3.5999999762518402e+00 -2.8967016633062163e-02 -5.5267518161220830e-01 +5.2250506791797803e-03
3.6499999999999999e+00 +8.5266319035799807e+00 +0.0000000000000000e+00 +3.6499999752479400e+00 -2.8968507207577834e-02 -5.5269574491709617e-01 +5.2234503485610942e-03
3.6999999999999900e+00 +8.5266217458847695e+00 +0.0000000000000000e+00 +3.6999999742161398e+00 -2.8970015167468541e-02 -5.5271657391719320e-01 +5.2218662019679410e-03
3.7499999999999898e+00 +8.5266114498736005e+00 +0.0000000000000000e+00 +3.7499999731560498e+00 -2.8971540259396904e-02 -5.5273766661029344e-01 +5.2202983066941882e-03
3.7999999999999901e+00 +8.5266010155537497e+00 +0.0000000000000000e+00 +3.7999999720672801e+00 -2.8973082230020319e-02 -5.5275902099409058e-01 +5.2187467300329748e-03
3.8499999999999899e+00 +8.5265904429179500e+00 +0.0000000000000000e+00 +3.8499999709494599e+00 -2.8974640826002748e-02 -5.5278063506638964e-01 +5.2172115392786315e-03
3.8999999999999901e+00 +8.5265797319771099e+00 +0.0000000000000000e+00 +3.8999999698022001e+00 -2.8976215794001552e-02 -5.5280250682486765e-01 +5.2156928017245028e-03
3.9499999999999900e+00 +8.5265688827203103e+00 +0.0000000000000000e+00 +3.9499999686251202e+00 -2.8977806880683507e-02 -5.5282463426736650e-01 +5.2141905846655812e-03
3.9999999999999898e+00 +8.5265578951548395e+00 +0.0000000000000000e+00 +3.9999999674178399e+00 -2.8979413832708842e-02 -5.5284701539159886e-01 +5.2127049553958426e-03
4.0499999999999901e+00 +8.5265467692734092e+00 +0.0000000000000000e+00 +4.0499999661799704e+00 -2.8981036408392995e-02 -5.5286964807793471e-01 +5.2112359771309107e-03
4.0999999999999899e+00 +8.5265355050833005e+00 +0.0000000000000000e+00 +4.0999999649111301e+00 -2.8982674412641445e-02 -5.5289252973682446e-01 +5.2097836967677719e-03
4.1499999999999897e+00 +8.5265241025808791e+00 +0.0000000000000000e+00 +4.1499999636109504e+00 -2.8984327662014180e-02 -5.5291565766134387e-01 +5.2083481571252649e-03
4.1999999999999904e+00 +8.5265125617697795e+00 +0.0000000000000000e+00 +4.1999999622790298e+00 -2.8985995973069785e-02 -5.5293902914451809e-01 +5.2069294010224374e-03
4.2499999999999902e+00 +8.5265008826427202e+00 +0.0000000000000000e+00 +4.2499999609149901e+00 -2.8987679162372725e-02 -5.5296264147945107e-01 +5.2055274712797537e-03
4.2999999999999901e+00 +8.5264890652069898e+00 +0.0000000000000000e+00 +4.2999999595184599e+00 -2.8989377046483238e-02 -5.5298649195914196e-01 +5.2041424107174099e-03
4.3499999999999899e+00 +8.5264771094589396e+00 +0.0000000000000000e+00 +4.3499999580890396e+00 -2.8991089441967492e-02 -5.5301057787666918e-01 +5.2027742621570316e-03
4.3999999999999897e+00 +8.5264650153985695e+00 +0.0000000000000000e+00 +4.3999999566263703e+00 -2.8992816165391833e-02 -5.5303489652508409e-01 +5.2014230684207033e-03
4.4499999999999904e+00 +8.5264527830295300e+00 +0.0000000000000000e+00 +4.4499999551300400e+00 -2.8994557033322814e-02 -5.5305944519741179e-01 +5.2000888723309846e-03
4.4999999999999902e+00 +8.5264404123481707e+00 +0.0000000000000000e+00 +4.4999999535996897e+00 -2.8996311862331578e-02 -5.5308422118672873e-01 +5.1987717167116228e-03
4.5499999999999901e+00 +8.5264279033544899e+00 +0.0000000000000000e+00 +4.5499999520349199e+00 -2.8998080468989499e-02 -5.5310922178608524e-01 +5.1974716443868490e-03
4.5999999999999899e+00 +8.5264152560448601e+00 +0.0000000000000000e+00 +4.5999999504353601e+00 -2.8999862669871181e-02 -5.5313444428855552e-01 +5.1961886981818474e-03
4.6499999999999897e+00 +8.5264024704301793e+00 +0.0000000000000000e+00 +4.6499999488006196e+00 -2.9001658281547178e-02 -5.5315988598710686e-01 +5.1949229209215788e-03
4.6999999999999904e+00 +8.5263895464995603e+00 +0.0000000000000000e+00 +4.6999999471303298e+00 -2.9003467120598554e-02 -5.5318554417486321e-01 +5.1936743554331618e-03
4.7499999999999902e+00 +8.5263764842602505e+00 +0.0000000000000000e+00 +4.7499999454240900e+00 -2.9005289003600960e-02 -5.5321141614481451e-01 +5.1924430445432542e-03
4.7999999999999901e+00 +8.5263632837050007e+00 +0.0000000000000000e+00 +4.7999999436815299e+00 -2.9007123747137705e-02 -5.5323749919005527e-01 +5.1912290310802056e-03
4.8499999999999899e+00 +8.5263499448447000e+00 +0.0000000000000000e+00 +4.8499999419022597e+00 -2.9008971167786755e-02 -5.5326379060354247e-01 +5.1900323578719211e-03
4.8999999999999897e+00 +8.5263364676684397e+00 +0.0000000000000000e+00 +4.8999999400859000e+00 -2.9010831082136663e-02 -5.5329028767839139e-01 +5.1888530677484720e-03
4.9499999999999904e+00 +8.5263228521798702e+00 +0.0000000000000000e+00 +4.9499999382320699e+00 -2.9012703306772188e-02 -5.5331698770760696e-01 +5.1876912035397271e-03
4.9999999999999902e+00 +8.5263090983826295e+00 +0.0000000000000000e+00 +4.9999999363403900e+00 -2.9014587658280026e-02 -5.5334388798419121e-01 +5.1865468080763118e-03
5.0499999999999901e+00 +8.5262952059529198e+00 +0.0000000000000000e+00 +5.0499999344103799e+00 -2.9016483953379486e-02 -5.5337098580354349e-01 +5.1854199242109961e-03
5.0999999999999899e+00 +8.5262811745706095e+00 +0.0000000000000000e+00 +5.0999999324415599e+00 -2.9018392008790524e-02 -5.5339827846103362e-01 +5.1843105947970381e-03
5.1499999999999897e+00 +8.5262670042357094e+00 +0.0000000000000000e+00 +5.1499999304335597e+00 -2.9020311641107601e-02 -5.5342576324968151e-01 +5.1832188626675241e-03
5.1999999999999904e+00 +8.5262526949518396e+00 +0.0000000000000000e+00 +5.1999999283859903e+00 -2.9022242666925834e-02 -5.5345343746247544e-01 +5.1821447706560837e-03
5.2499999999999902e+00 +8.5262382467153692e+00 +0.0000000000000000e+00 +5.2499999262984600e+00 -2.9024184902845369e-02 -5.5348129839245264e-01 +5.1810883615975873e-03
5.2999999999999901e+00 +8.5262236595299292e+00 +0.0000000000000000e+00 +5.2999999241705797e+00 -2.9026138165465624e-02 -5.5350934333259172e-01 +5.1800496783272103e-03
5.3499999999999899e+00 +8.5262089333882596e+00 +0.0000000000000000e+00 +5.3499999220019703e+00 -2.9028102271392572e-02 -5.5353756957594591e-01 +5.1790287636816279e-03
5.3999999999999897e+00 +8.5261940682976292e+00 +0.0000000000000000e+00 +5.3999999197922497e+00 -2.9030077037228607e-02 -5.5356597441545630e-01 +5.1780256604973479e-03
5.4499999999999904e+00 +8.5261790642507496e+00 +0.0000000000000000e+00 +5.4499999175410201e+00 -2.9032062279584166e-02 -5.5359455514416522e-01 +5.1770404116126224e-03
5.4999999999999902e+00 +8.5261639212585596e+00 +0.0000000000000000e+00 +5.4999999152479004e+00 -2.9034057815064778e-02 -5.5362330905497525e-01 +5.1760730598653078e-03
5.5499999999999901e+00 +8.5261486393137602e+00 +0.0000000000000000e+00 +5.5499999129125097e+00 -2.9036063460285491e-02 -5.5365223344091596e-01 +5.1751236480952530e-03
5.5999999999999899e+00 +8.5261332184127205e+00 +0.0000000000000000e+00 +5.5999999105344500e+00 -2.9038079031862292e-02 -5.5368132559498395e-01 +5.1741922191428638e-03
5.6499999999999897e+00 +8.5261176585627307e+00 +0.0000000000000000e+00 +5.6499999081133403e+00 -2.9040104346409152e-02 -5.5371058281008867e-01 +5.1732788158486429e-03
5.6999999999999904e+00 +8.5261019597637606e+00 +0.0000000000000000e+00 +5.6999999056488004e+00 -2.9042139220545431e-02 -5.5374000237918575e-01 +5.1723834810543856e-03
5.7499999999999902e+00 +8.5260861220122006e+00 +0.0000000000000000e+00 +5.7499999031404396e+00 -2.9044183470894269e-02 -5.5376958159524980e-01 +5.1715062576029288e-03
5.7999999999999901e+00 +8.5260701453080401e+00 +0.0000000000000000e+00 +5.7999999005878804e+00 -2.9046236914079940e-02 -5.5379931775122215e-01 +5.1706471883376966e-03
5.8499999999999899e+00 +8.5260540296512808e+00 +0.0000000000000000e+00 +5.8499998979907204e+00 -2.9048299366729154e-02 -5.5382920814003489e-01 +5.1698063161029336e-03
5.8999999999999897e+00 +8.5260377750455500e+00 +0.0000000000000000e+00 +5.8999998953485804e+00 -2.9050370645469729e-02 -5.5385925005458614e-01 +5.1689836837434762e-03
