# multipoles
# s[mm] polynom_b[n=0][T/m^n] polynom_b[n=1][T/m^n] polynom_b[n=2][T/m^n] polynom_b[n=3][T/m^n] polynom_b[n=4][T/m^n] polynom_b[n=5][T/m^n] polynom_b[n=6][T/m^n] 
-0.0000000000000000e+00 -5.2342432509756309e-01 +6.8835238573770967e+00 +5.8767163945271026e+00 -1.2636098273065792e+02 -1.5680811401347306e+04 +5.3931216725964763e+05 +9.0174083997423887e+07 
-5.0000000000000003e-02 -5.2342506479918904e-01 +6.8835682778037111e+00 +5.8715351968246523e+00 -1.2683072337642611e+02 -1.5551064772080759e+04 +5.4242587801598094e+05 +8.9288148489671558e+07 
-1.0000000000000001e-01 -5.2342617909425293e-01 +6.8836330889079926e+00 +5.8652592393429837e+00 -1.2728788233691556e+02 -1.5406445020950472e+04 +5.4544801516346959e+05 +8.8313299653560907e+07 
-1.4999999999999999e-01 -5.2342766730221546e-01 +6.8837182173682780e+00 +5.8579188248901080e+00 -1.2773247620089906e+02 -1.5247668260743330e+04 +5.4837991592935997e+05 +8.7253966738687545e+07 
-2.0000000000000001e-01 -5.2342952874246740e-01 +6.8838235898727822e+00 +5.8495442561689188e+00 -1.2816452192584427e+02 -1.5075450602442876e+04 +5.5122292055782070e+05 +8.6114578987736434e+07 
-2.5000000000000000e-01 -5.2343176273452585e-01 +6.8839491331061078e+00 +5.8401658370335481e+00 -1.2858403629146986e+02 -1.4890508184064134e+04 +5.5397836782484048e+05 +8.4899565810090542e+07 
-2.9999999999999999e-01 -5.2343436859785486e-01 +6.8840947737545957e+00 +5.8298138724589492e+00 -1.2899103611186447e+02 -1.4693557176658122e+04 +5.5664759677671280e+05 +8.3613356846592441e+07 
-3.4999999999999998e-01 -5.2343734565193123e-01 +6.8842604385051649e+00 +5.8185186618583185e+00 -1.2938553819708059e+02 -1.4485313601045587e+04 +5.5923194642501115e+05 +8.2260380725327596e+07 
-4.0000000000000002e-01 -5.2344069321627584e-01 +6.8844460540503531e+00 +5.8063105097061518e+00 -1.2976755956012713e+02 -1.4266493615645310e+04 +5.6173275747477636e+05 +8.0845067003807858e+07 
-4.5000000000000001e-01 -5.2344441061044544e-01 +6.8846515470787137e+00 +5.7932197189630923e+00 -1.3013711700812541e+02 -1.4037813338000462e+04 +5.6415136887180374e+05 +7.9371844966662928e+07 
-5.0000000000000000e-01 -5.2344849715397535e-01 +6.8848768442828501e+00 +5.7792765947664702e+00 -1.3049422749351390e+02 -1.3799988942396805e+04 +5.6648912081023888e+05 +7.7845144269019634e+07 
-5.5000000000000004e-01 -5.2345295216638177e-01 +6.8851218723550272e+00 +5.7645114358284255e+00 -1.3083890790828170e+02 -1.3553736433263235e+04 +5.6874735292282456e+05 +7.6269393435381278e+07 
-5.9999999999999998e-01 -5.2345777496731083e-01 +6.8853865579900866e+00 +5.7489545476095483e+00 -1.3117117523222333e+02 -1.3299771995301917e+04 +5.7092740559254878e+05 +7.4649022197971046e+07 
-6.5000000000000002e-01 -5.2346296487632493e-01 +6.8856708278831054e+00 +5.7326362308482759e+00 -1.3149104641288625e+02 -1.3038811686543602e+04 +5.7303061890641251e+05 +7.2988459437398151e+07 
-6.9999999999999996e-01 -5.2346852121307896e-01 +6.8859746087291374e+00 +5.7155867913779179e+00 -1.3179853836553977e+02 -1.2771571706793997e+04 +5.7505833266784099e+05 +7.1292135005903915e+07 
-7.5000000000000000e-01 -5.2347444329713055e-01 +6.8862978272256496e+00 +5.6978365270996250e+00 -1.3209366807109436e+02 -1.2498768034803508e+04 +5.7701188722463325e+05 +6.9564477238905787e+07 
-8.0000000000000004e-01 -5.2348073044819843e-01 +6.8866404100690399e+00 +5.6794157448590603e+00 -1.3237645243979372e+02 -1.2221116897066311e+04 +5.7889262232853204e+05 +6.7809916163613737e+07 
-8.4999999999999998e-01 -5.2348738198590827e-01 +6.8870022839589273e+00 +5.6603547449679485e+00 -1.3264690847285559e+02 -1.1939334343863973e+04 +5.8070187844962708e+05 +6.6032880620064706e+07 
-9.0000000000000002e-01 -5.2349439722994384e-01 +6.8873833755928233e+00 +5.6406838308317777e+00 -1.3290505305235490e+02 -1.1654136509756379e+04 +5.8244099506101222e+05 +6.4237800020801283e+07 
-9.4999999999999996e-01 -5.2350177550002586e-01 +6.8877836116702085e+00 +5.6204333044245951e+00 -1.3315090311390045e+02 -1.1366239484564063e+04 +5.8411131207516021e+05 +6.2429103449654296e+07 
-1.0000000000000000e+00 -5.2350951611581986e-01 +6.8882029188916896e+00 +5.5996334692876664e+00 -1.3338447559621449e+02 -1.1076359409783159e+04 +5.8571416939498775e+05 +6.0611220376160681e+07 
-1.0500000000000000e+00 -5.2351761839706634e-01 +6.8886412239579684e+00 +5.5783146258635954e+00 -1.3360578741783360e+02 -1.0785212342006154e+04 +5.8725090675146249e+05 +5.8788579690465502e+07 
-1.1000000000000001e+00 -5.2352608166354175e-01 +6.8890984535694084e+00 +5.5565070777760743e+00 -1.3381485544484582e+02 -1.0493514420264844e+04 +5.8872286341339501e+05 +5.6965610826451100e+07 
-1.1499999999999999e+00 -5.2353490523497648e-01 +6.8895745344251402e+00 +5.5342411270224252e+00 -1.3401169645751699e+02 -1.0201981745678206e+04 +5.9013137793162256e+05 +5.5146742982391104e+07 
-1.2000000000000000e+00 -5.2354408843114875e-01 +6.8900693932290897e+00 +5.5115470765717642e+00 -1.3419632740082895e+02 -9.9113304424382259e+03 +5.9147779017671093e+05 +5.3336405502166793e+07 
-1.2500000000000000e+00 -5.2355363057183979e-01 +6.8905829566826480e+00 +5.4884552274192187e+00 -1.3436876508340097e+02 -9.6222765862096549e+03 +5.9276343890198972e+05 +5.1539027417103745e+07 
-1.3000000000000000e+00 -5.2356353097689168e-01 +6.8911151514860514e+00 +5.4649958838137929e+00 -1.3452902623015217e+02 -9.3355363370548148e+03 +5.9398966211712430e+05 +4.9759038316109531e+07 
-1.3500000000000001e+00 -5.2357378896607698e-01 +6.8916659043413029e+00 +5.4411993485967640e+00 -1.3467712759836158e+02 -9.0518258216340964e+03 +5.9515779808141373e+05 +4.8000867579732478e+07 
-1.3999999999999999e+00 -5.2358440385926330e-01 +6.8922351419510450e+00 +5.4170959211639227e+00 -1.3481308594636744e+02 -8.7718610740102158e+03 +5.9626918504214054e+05 +4.6268943961064860e+07 
-1.4500000000000000e+00 -5.2359537497629305e-01 +6.8928227910169850e+00 +5.3927159061622358e+00 -1.3493691795578357e+02 -8.4963582654553902e+03 +5.9732516060011403e+05 +4.4567697126018107e+07 
-1.5000000000000000e+00 -5.2360670163701795e-01 +6.8934287782403940e+00 +5.3680896041970110e+00 -1.3504864025179148e+02 -8.2260334698349252e+03 +5.9832706183774665e+05 +4.2901556122616060e+07 
-1.5500000000000000e+00 -5.2361838316133447e-01 +6.8940530303230965e+00 +5.3432473201721518e+00 -1.3514826945052729e+02 -7.9616028704462442e+03 +5.9927622574442893e+05 +4.1274950715937555e+07 
-1.6000000000000001e+00 -5.2363041886916251e-01 +6.8946954739672011e+00 +5.3182193562928957e+00 -1.3523582214595430e+02 -7.7037825786304829e+03 +6.0017398910698784e+05 +3.9692310183496289e+07 
-1.6499999999999999e+00 -5.2364280808035002e-01 +6.8953560358715942e+00 +5.2930360129068061e+00 -1.3531131476242439e+02 -7.4532886616932965e+03 +6.0102168728702876e+05 +3.8158063531371213e+07 
-1.7000000000000000e+00 -5.2365555011488318e-01 +6.8960346427374359e+00 +5.2677275941865167e+00 -1.3537476378698554e+02 -7.2108372856905926e+03 +6.0182065613055031e+05 +3.6676640414141223e+07 
-1.7500000000000000e+00 -5.2366864429269488e-01 +6.8967312212656902e+00 +5.2423244016526596e+00 -1.3542618565330679e+02 -6.9771445503946597e+03 +6.0257223098043224e+05 +3.5252470055463985e+07 
-1.8000000000000000e+00 -5.2368208993369225e-01 +6.8974456981549173e+00 +5.2168567386020799e+00 -1.3546559666377391e+02 -6.7529266064017038e+03 +6.0327774609164533e+05 +3.3889982035174467e+07 
-1.8500000000000001e+00 -5.2369588635787379e-01 +6.8981780001063973e+00 +5.1913549082666677e+00 -1.3549301320864890e+02 -6.5388995990942658e+03 +6.0393853644043650e+05 +3.2593605883714672e+07 
-1.8999999999999999e+00 -5.2371003288524909e-01 +6.8989280538174604e+00 +5.1658492133485927e+00 -1.3550845146431013e+02 -6.3357796603990209e+03 +6.0455593514206726e+05 +3.1367771041455340e+07 
-1.9500000000000000e+00 -5.2372452883575116e-01 +6.8996957859845800e+00 +5.1403699541728241e+00 -1.3551192754445029e+02 -6.1442828646412372e+03 +6.0513127482411615e+05 +3.0216906586768683e+07 
-2.0000000000000000e+00 -5.2373924601966593e-01 +6.9004743821411614e+00 +5.1151562102145851e+00 -1.3550359651433661e+02 -5.9664075228119727e+03 +6.0566136252771399e+05 +2.9153029054376785e+07 
-2.0499999999999998e+00 -5.2375430393044475e-01 +6.9012701465570023e+00 +5.0899894401799468e+00 -1.3548370261910304e+02 -5.8002618447475488e+03 +6.0615201545543433e+05 +2.8164612599745579e+07 
-2.1000000000000001e+00 -5.2376970043575888e-01 +6.9020829377132484e+00 +5.0648609020961475e+00 -1.3545246397574317e+02 -5.6454415955681134e+03 +6.0660397639802424e+05 +2.7249042586746488e+07 
-2.1499999999999999e+00 -5.2378543340325012e-01 +6.9029126140947961e+00 +5.0397618520088869e+00 -1.3541009883368710e+02 -5.5015424923855644e+03 +6.0701798918321577e+05 +2.6403704073606599e+07 
-2.2000000000000002e+00 -5.2380150070060827e-01 +6.9037590341827899e+00 +5.0146835473811597e+00 -1.3535682527770561e+02 -5.3681602868038190e+03 +6.0739479629583901e+05 +2.5625982340599149e+07 
-2.2500000000000000e+00 -5.2381790019554564e-01 +6.9046220564622542e+00 +4.9896172435910815e+00 -1.3529286154101922e+02 -5.2448906767025610e+03 +6.0773514145123039e+05 +2.4913262312789500e+07 
-2.2999999999999998e+00 -5.2383462975574868e-01 +6.9055015394184220e+00 +4.9645541982928503e+00 -1.3521842585677780e+02 -5.1313294204761196e+03 +6.0803976839369792e+05 +2.4262929320081677e+07 
-2.3500000000000001e+00 -5.2385168724898212e-01 +6.9063973415326840e+00 +4.9394856679156547e+00 -1.3513373627548407e+02 -5.0270722418324021e+03 +6.0830941929554509e+05 +2.3672368448400687e+07 
-2.3999999999999999e+00 -5.2386907054289544e-01 +6.9073093212924679e+00 +4.9144029087669452e+00 -1.3503901110493447e+02 -4.9317148648890179e+03 +6.0854483855503111e+05 +2.3138964804589398e+07 
-2.4500000000000002e+00 -5.2388677750528245e-01 +6.9082373371805303e+00 +4.8892971786427299e+00 -1.3493446844093722e+02 -4.8448530515172552e+03 +6.0874676877812785e+05 +2.2660103739615317e+07 
-2.5000000000000000e+00 -5.2390480600385170e-01 +6.9091812476852752e+00 +4.8641597320886154e+00 -1.3482032660250553e+02 -4.7660824782237150e+03 +6.0891595441056928e+05 +2.2233170033267941e+07 
-2.5499999999999998e+00 -5.2392315390636923e-01 +6.9101409112914167e+00 +4.8389818274164691e+00 -1.3469680375303429e+02 -4.6949989200086657e+03 +6.0905313864985888e+05 +2.1855549120469328e+07 
-2.6000000000000001e+00 -5.2394181908065096e-01 +6.9111161864862103e+00 +4.8137547212744733e+00 -1.3456411815991882e+02 -4.6311981093708446e+03 +6.0915906556193065e+05 +2.1524626157535095e+07 
-2.6499999999999999e+00 -5.2396079939440443e-01 +6.9121069317552601e+00 +4.7884696671946179e+00 -1.3442248801171755e+02 -4.5742756931684989e+03 +6.0923447858779109e+05 +2.1237785714490857e+07 
-2.7000000000000002e+00 -5.2398009271543655e-01 +6.9131130055855419e+00 +4.7631179259348153e+00 -1.3427213155153478e+02 -4.5238275153023460e+03 +6.0928012161484221e+05 +2.0992413701721814e+07 
-2.7500000000000000e+00 -5.2399969691155157e-01 +6.9141342664688894e+00 +4.7376907513774302e+00 -1.3411326721936933e+02 -4.4794492293595958e+03 +6.0929674017518654e+05 +2.0785894723735400e+07 
-2.7999999999999998e+00 -5.2401960985053353e-01 +6.9151705728884147e+00 +4.7121794018241561e+00 -1.3394611309459552e+02 -4.4407366147218163e+03 +6.0928507685427531e+05 +2.0615614259030301e+07 
-2.8500000000000001e+00 -5.2403982940020177e-01 +6.9162217833378614e+00 +4.6865751309612182e+00 -1.3377088769789910e+02 -4.4072853218301880e+03 +6.0924587789603963e+05 +2.0478956898670256e+07 
-2.8999999999999999e+00 -5.2406035342838797e-01 +6.9172877563035957e+00 +4.6608691976435512e+00 -1.3358780924287666e+02 -4.3786911393997534e+03 +6.0917988703630446e+05 +2.0373308162014615e+07 
-2.9500000000000002e+00 -5.2408117980285640e-01 +6.9183683502770492e+00 +4.6350528566276070e+00 -1.3339709615115757e+02 -4.3545497503051729e+03 +6.0908784973535442e+05 +2.0296052871482152e+07 
-3.0000000000000000e+00 -5.2410230639149880e-01 +6.9194634237458876e+00 +4.6091173654746544e+00 -1.3319896669582832e+02 -4.3344569056950113e+03 +6.0897051026103715e+05 +2.0244576280965772e+07 
-3.0499999999999998e+00 -5.2412373106215271e-01 +6.9205728352045073e+00 +4.5830539804029424e+00 -1.3299363943068187e+02 -4.3180083285222972e+03 +6.0882861522320379e+05 +2.0216263485340994e+07 
-3.1000000000000001e+00 -5.2414545168263504e-01 +6.9216964431429124e+00 +4.5568539563888191e+00 -1.3278133273368022e+02 -4.3047996993201878e+03 +6.0866290982227982e+05 +2.0208499256963614e+07 
-3.1499999999999999e+00 -5.2416746612086629e-01 +6.9228341060529175e+00 +4.5305085523610522e+00 -1.3256226505956221e+02 -4.2944268103175164e+03 +6.0847413988364360e+05 +2.0218669143628046e+07 
-3.2000000000000002e+00 -5.2418977224461427e-01 +6.9239856824280608e+00 +4.5040090217855600e+00 -1.3233665494270440e+02 -4.2864853072176084e+03 +6.0826305195237708e+05 +2.0244157702966478e+07 
-3.2500000000000000e+00 -5.2421236792177606e-01 +6.9251510307587516e+00 +4.4773466209346688e+00 -1.3210472079724209e+02 -4.2805709042226408e+03 +6.0803039160514460e+05 +2.0282349930254005e+07 
-3.2999999999999998e+00 -5.2423525102026669e-01 +6.9263300095437366e+00 +4.4505126089986371e+00 -1.3186668139374635e+02 -4.2762794005334717e+03 +6.0777690739261149e+05 +2.0330631416029174e+07 
-3.3500000000000001e+00 -5.2425841940795315e-01 +6.9275224772733930e+00 +4.4234982394443509e+00 -1.3162275515534850e+02 -4.2732064363919717e+03 +6.0750334500516462e+05 +2.0386386660728842e+07 
-3.3999999999999999e+00 -5.2428187095269607e-01 +6.9287282924428748e+00 +4.3962947683008844e+00 -1.3137316072617088e+02 -4.2709477240287515e+03 +6.0721045203587960e+05 +2.0447000661172144e+07 
-3.4500000000000002e+00 -5.2430560352242905e-01 +6.9299473135490484e+00 +4.3688934543822349e+00 -1.3111811682907893e+02 -4.2690990471076639e+03 +6.0689897674167086e+05 +2.0509858881293856e+07 
-3.5000000000000000e+00 -5.2432961498500308e-01 +6.9311793990873616e+00 +4.3412855495064946e+00 -1.3085784213236218e+02 -4.2672559995814636e+03 +6.0656966694547480e+05 +2.0572345500376154e+07 
-3.5499999999999998e+00 -5.2435390320833808e-01 +6.9324244075556445e+00 +4.3134623129159619e+00 -1.3059255543135683e+02 -4.2650143800758233e+03 +6.0622327160535718e+05 +2.0631846095035724e+07 
-3.6000000000000001e+00 -5.2437846606039740e-01 +6.9336821974498797e+00 +4.2854150008749743e+00 -1.3032247545370950e+02 -4.2619699003745263e+03 +6.0586053913090925e+05 +2.0685745632817093e+07 
-3.6499999999999999e+00 -5.2440330140900582e-01 +6.9349526272680562e+00 +4.2571348669440248e+00 -1.3004782101789382e+02 -4.2577181996718482e+03 +6.0548221870965080e+05 +2.0731428586758766e+07 
-3.6999999999999900e+00 -5.2442840712216421e-01 +6.9362355555112405e+00 +4.2286131683034531e+00 -1.2976881110176777e+02 -4.2518550186026769e+03 +6.0508906092381070e+05 +2.0766280134727221e+07 
-3.7499999999999898e+00 -5.2445378106772289e-01 +6.9375308406764384e+00 +4.1998411610946524e+00 -1.2948566451653403e+02 -4.2439760636316078e+03 +6.0468181498540507e+05 +2.0787685195889227e+07 
-3.7999999999999901e+00 -5.2447942111365720e-01 +6.9388383412646792e+00 +4.1708101004603622e+00 -1.2919860027319680e+02 -4.2336770148300448e+03 +6.0426123182686232e+05 +2.0793028514699813e+07 
-3.8499999999999899e+00 -5.2450532512789849e-01 +6.9401579157767870e+00 +4.1415112425652527e+00 -1.2890783738670575e+02 -4.2205535843188254e+03 +6.0382806245257892e+05 +2.0779695067349441e+07 
-3.8999999999999901e+00 -5.2453149097836160e-01 +6.9414894227130057e+00 +4.1119358432714463e+00 -1.2861359487489491e+02 -4.2042014651774671e+03 +6.0338305795176257e+05 +2.0745069660068002e+07 
-3.9499999999999900e+00 -5.2455791650007599e-01 +6.9428327199856881e+00 +4.0820760896833814e+00 -1.2831611756891095e+02 -4.1842450646463458e+03 +6.0292714557207504e+05 +2.0686724431435883e+07 
-3.9999999999999898e+00 -5.2458459914654476e-01 +6.9441876494422328e+00 +4.0519354003856325e+00 -1.2801584937337350e+02 -4.1606446154423411e+03 +6.0246277176116745e+05 +2.0604422178937044e+07 
-4.0499999999999901e+00 -5.2461153612553868e-01 +6.9455540381856489e+00 +4.0215246939308189e+00 -1.2771331661693266e+02 -4.1335789414695028e+03 +6.0199311419990310e+05 +2.0499351289319541e+07 
-4.0999999999999899e+00 -5.2463872464079742e-01 +6.9469317128825043e+00 +3.9908550304511339e+00 -1.2740904530376700e+02 -4.1032306862898859e+03 +6.0152135352193669e+05 +2.0372725023433238e+07 
-4.1499999999999897e+00 -5.2466616189614534e-01 +6.9483205001944324e+00 +3.9599374668724909e+00 -1.2710356126419647e+02 -4.0697824051629032e+03 +6.0105066898789979e+05 +2.0225756040962230e+07 
-4.1999999999999904e+00 -5.2469384509529804e-01 +6.9497202267838567e+00 +3.9287830629813492e+00 -1.2679739034587962e+02 -4.0334167312693289e+03 +6.0058423992982705e+05 +2.0059657532034468e+07 
-4.2499999999999902e+00 -5.2472177144203946e-01 +6.9511307193159331e+00 +3.8974028773547573e+00 -1.2649105852470221e+02 -3.9943162636330153e+03 +6.0012524675404967e+05 +1.9875642449290954e+07 
-4.2999999999999901e+00 -5.2474993814010573e-01 +6.9525518044493877e+00 +3.8658079688485834e+00 -1.2618509150500564e+02 -3.9526636090075617e+03 +5.9967686756990757e+05 +1.9674923800798282e+07 
-4.3499999999999899e+00 -5.2477834239326671e-01 +6.9539833088486152e+00 +3.8340093977934213e+00 -1.2588001524658917e+02 -3.9086414116009469e+03 +5.9924228262000182e+05 +1.9458714838462200e+07 
-4.3999999999999897e+00 -5.2480698140530668e-01 +6.9554250591746332e+00 +3.8020182226405863e+00 -1.2557635556194825e+02 -3.8624322647581926e+03 +5.9882467086881830e+05 +1.9228228471748099e+07 
-4.4499999999999904e+00 -5.2483585237999053e-01 +6.9568768820836429e+00 +3.7698455031599774e+00 -1.2527463808875622e+02 -3.8142187996048415e+03 +5.9842720988009463e+05 +1.8984677875551045e+07 
-4.4999999999999902e+00 -5.2486495252104592e-01 +6.9583386042392235e+00 +3.7375023011731865e+00 -1.2497538875877288e+02 -3.7641836956066195e+03 +5.9805307956480992e+05 +1.8729276523539379e+07 
-4.5499999999999901e+00 -5.2489427903230812e-01 +6.9598100523003392e+00 +3.7049996713853393e+00 -1.2467913333207778e+02 -3.7125094458593139e+03 +5.9770545841205353e+05 +1.8463236654608045e+07 
-4.5999999999999899e+00 -5.2492382911743951e-01 +6.9612910529248673e+00 +3.6723486782154202e+00 -1.2438639752032302e+02 -3.6593788005512315e+03 +5.9738752449010883e+05 +1.8187772223943971e+07 
-4.6499999999999897e+00 -5.2495359998027613e-01 +6.9627814327715276e+00 +3.6395603812163122e+00 -1.2409770709375428e+02 -3.6049743808807248e+03 +5.9710245634424814e+05 +1.7904096327950098e+07 
-4.6999999999999904e+00 -5.2498358882457241e-01 +6.9642810184973589e+00 +3.6066458389384559e+00 -1.2381358775503182e+02 -3.5494787741986306e+03 +5.9685343192737759e+05 +1.7613421809924342e+07 
-4.7499999999999902e+00 -5.2501379285407423e-01 +6.9657896367585668e+00 +3.5736161139440714e+00 -1.2353456517259897e+02 -3.4930746825673150e+03 +5.9664362885919132e+05 +1.7316962310762782e+07 
-4.7999999999999901e+00 -5.2504420927257023e-01 +6.9673071142121312e+00 +3.5404822672009888e+00 -1.2326116506940144e+02 -3.4359447600856465e+03 +5.9647622522399528e+05 +1.7015931134078685e+07 
-4.8499999999999899e+00 -5.2507483528383270e-01 +6.9688332775122870e+00 +3.5072553575542731e+00 -1.2299391306743919e+02 -3.3782716009705164e+03 +5.9635439825211104e+05 +1.6711541164955935e+07 
-4.8999999999999897e+00 -5.2510566809151960e-01 +6.9703679533147334e+00 +3.4739464468431973e+00 -1.2273333483839600e+02 -3.3202378868544179e+03 +5.9628132550153020e+05 +1.6405005909985824e+07 
-4.9499999999999904e+00 -5.2513649522365946e-01 +6.9719005421664058e+00 +3.4407919850452497e+00 -1.2248164479524287e+02 -3.2624184506118413e+03 +5.9626014649218414e+05 +1.6099609938690089e+07 
-4.9999999999999902e+00 -5.2516752088223184e-01 +6.9734411882659746e+00 +3.4075783800803263e+00 -1.2223757256468329e+02 -3.2046025255367217e+03 +5.9629331480407598e+05 +1.5794483654256899e+07 
-5.0499999999999901e+00 -5.2519874232708996e-01 +6.9749897217463550e+00 +3.3743164696333885e+00 -1.2200163316663104e+02 -3.1469690630904984e+03 +5.9638394333326397e+05 +1.5490815743536511e+07 
