# trajectory
# s[mm] rx[mm] ry[mm] rz[mm] px[rad] py[rad] pz[rad]
0.0000000000000000e+00 +8.2850000000000001e+00 +0.0000000000000000e+00 +0.0000000000000000e+00 +0.0000000000000000e+00 +0.0000000000000000e+00 +1.0000000000000000e+00
-5.0000000000000003e-02 +8.2849999311521199e+00 +0.0000000000000000e+00 -4.9999999999936789e-02 +2.7539158420446260e-06 +0.0000000000000000e+00 +9.9999999999620792e-01
-1.0000000000000001e-01 +8.2849997246083387e+00 +0.0000000000000000e+00 -9.9999999999494382e-02 +5.5078363128831272e-06 +0.0000000000000000e+00 +9.9999999998483180e-01
-1.5000000000000002e-01 +8.2849993803683777e+00 +0.0000000000000000e+00 -1.4999999999829358e-01 +8.2617634385318316e-06 +0.0000000000000000e+00 +9.9999999996587152e-01
-2.0000000000000001e-01 +8.2849988984318514e+00 +0.0000000000000000e+00 -1.9999999999595514e-01 +1.1015699241845221e-05 +0.0000000000000000e+00 +9.9999999993932709e-01
-2.5000000000000000e-01 +8.2849982787982750e+00 +0.0000000000000000e+00 -2.4999999999209988e-01 +1.3769645742516025e-05 +0.0000000000000000e+00 +9.9999999990519828e-01
-2.9999999999999999e-01 +8.2849975214670639e+00 +0.0000000000000000e+00 -2.9999999998634858e-01 +1.6523604957075314e-05 +0.0000000000000000e+00 +9.9999999986348509e-01
-3.4999999999999998e-01 +8.2849966264375325e+00 +0.0000000000000000e+00 -3.4999999997832199e-01 +1.9277578898892597e-05 +0.0000000000000000e+00 +9.9999999981418730e-01
-3.9999999999999997e-01 +8.2849955937088939e+00 +0.0000000000000000e+00 -3.9999999996764091e-01 +2.2031569578175911e-05 +0.0000000000000000e+00 +9.9999999975730480e-01
-4.4999999999999996e-01 +8.2849944232802617e+00 +0.0000000000000000e+00 -4.4999999995392609e-01 +2.4785579001971914e-05 +0.0000000000000000e+00 +9.9999999969283737e-01
-4.9999999999999994e-01 +8.2849931151506482e+00 +0.0000000000000000e+00 -4.9999999993679822e-01 +2.7539609174165974e-05 +0.0000000000000000e+00 +9.9999999962078479e-01
-5.4999999999999993e-01 +8.2849916693189662e+00 +0.0000000000000000e+00 -5.4999999991587811e-01 +3.0293662095482267e-05 +0.0000000000000000e+00 +9.9999999954114682e-01
-5.9999999999999998e-01 +8.2849900857840275e+00 +0.0000000000000000e+00 -5.9999999989078645e-01 +3.3047739763483859e-05 +0.0000000000000000e+00 +9.9999999945392326e-01
-6.5000000000000002e-01 +8.2849883645445441e+00 +0.0000000000000000e+00 -6.4999999986114398e-01 +3.5801844172572806e-05 +0.0000000000000000e+00 +9.9999999935911377e-01
-7.0000000000000007e-01 +8.2849865055991305e+00 +0.0000000000000000e+00 -6.9999999982657135e-01 +3.8555977313990226e-05 +0.0000000000000000e+00 +9.9999999925671812e-01
-7.5000000000000011e-01 +8.2849845089462999e+00 +0.0000000000000000e+00 -7.4999999978668930e-01 +4.1310141175816401e-05 +0.0000000000000000e+00 +9.9999999914673599e-01
-8.0000000000000016e-01 +8.2849823745844677e+00 +0.0000000000000000e+00 -7.9999999974111846e-01 +4.4064337742970869e-05 +0.0000000000000000e+00 +9.9999999902916692e-01
-8.5000000000000020e-01 +8.2849801025119483e+00 +0.0000000000000000e+00 -8.4999999968947948e-01 +4.6818568997212490e-05 +0.0000000000000000e+00 +9.9999999890401070e-01
-9.0000000000000024e-01 +8.2849776927269581e+00 +0.0000000000000000e+00 -8.9999999963139299e-01 +4.9572836917139560e-05 +0.0000000000000000e+00 +9.9999999877126677e-01
-9.5000000000000029e-01 +8.2849751452276141e+00 +0.0000000000000000e+00 -9.4999999956647962e-01 +5.2327143478189862e-05 +0.0000000000000000e+00 +9.9999999863093492e-01
-1.0000000000000002e+00 +8.2849724600119341e+00 +0.0000000000000000e+00 -9.9999999949436003e-01 +5.5081490652640780e-05 +0.0000000000000000e+00 +9.9999999848301457e-01
-1.0500000000000003e+00 +8.2849696370778396e+00 +0.0000000000000000e+00 -1.0499999994146547e+00 +5.7835880409609377e-05 +0.0000000000000000e+00 +9.9999999832750530e-01
-1.1000000000000003e+00 +8.2849666764231511e+00 +0.0000000000000000e+00 -1.0999999993269842e+00 +6.0590314715052461e-05 +0.0000000000000000e+00 +9.9999999816440677e-01
-1.1500000000000004e+00 +8.2849635780455930e+00 +0.0000000000000000e+00 -1.1499999992309691e+00 +6.3344795531766691e-05 +0.0000000000000000e+00 +9.9999999799371830e-01
-1.2000000000000004e+00 +8.2849603419427904e+00 +0.0000000000000000e+00 -1.1999999991262296e+00 +6.6099324819388650e-05 +0.0000000000000000e+00 +9.9999999781543947e-01
-1.2500000000000004e+00 +8.2849569681122706e+00 +0.0000000000000000e+00 -1.2499999990123865e+00 +6.8853904534394908e-05 +0.0000000000000000e+00 +9.9999999762956970e-01
-1.3000000000000005e+00 +8.2849534565514631e+00 +0.0000000000000000e+00 -1.2999999988890600e+00 +7.1608536630102127e-05 +0.0000000000000000e+00 +9.9999999743610857e-01
-1.3500000000000005e+00 +8.2849498072577017e+00 +0.0000000000000000e+00 -1.3499999987558708e+00 +7.4363223056667137e-05 +0.0000000000000000e+00 +9.9999999723505539e-01
-1.4000000000000006e+00 +8.2849460202282206e+00 +0.0000000000000000e+00 -1.3999999986124392e+00 +7.7117965761087015e-05 +0.0000000000000000e+00 +9.9999999702640952e-01
-1.4500000000000006e+00 +8.2849420954601563e+00 +0.0000000000000000e+00 -1.4499999984583853e+00 +7.9872766687199144e-05 +0.0000000000000000e+00 +9.9999999681017038e-01
-1.5000000000000007e+00 +8.2849380329505493e+00 +0.0000000000000000e+00 -1.4999999982933296e+00 +8.2627627775681313e-05 +0.0000000000000000e+00 +9.9999999658633743e-01
-1.5500000000000007e+00 +8.2849338326963444e+00 +0.0000000000000000e+00 -1.5499999981168924e+00 +8.5382550964051783e-05 +0.0000000000000000e+00 +9.9999999635490988e-01
-1.6000000000000008e+00 +8.2849294946943868e+00 +0.0000000000000000e+00 -1.5999999979286939e+00 +8.8137538186669370e-05 +0.0000000000000000e+00 +9.9999999611588708e-01
-1.6500000000000008e+00 +8.2849250189414274e+00 +0.0000000000000000e+00 -1.6499999977283544e+00 +9.0892591374733522e-05 +0.0000000000000000e+00 +9.9999999586926835e-01
-1.7000000000000008e+00 +8.2849204054341179e+00 +0.0000000000000000e+00 -1.6999999975154940e+00 +9.3647712456284378e-05 +0.0000000000000000e+00 +9.9999999561505293e-01
-1.7500000000000009e+00 +8.2849156541690174e+00 +0.0000000000000000e+00 -1.7499999972897331e+00 +9.6402903356202846e-05 +0.0000000000000000e+00 +9.9999999535324002e-01
-1.8000000000000009e+00 +8.2849107651425857e+00 +0.0000000000000000e+00 -1.7999999970506915e+00 +9.9158165996210716e-05 +0.0000000000000000e+00 +9.9999999508382897e-01
-1.8500000000000010e+00 +8.2849057383511902e+00 +0.0000000000000000e+00 -1.8499999967979894e+00 +1.0191350229487067e-04 +0.0000000000000000e+00 +9.9999999480681889e-01
-1.9000000000000010e+00 +8.2849005737910968e+00 +0.0000000000000000e+00 -1.8999999965312468e+00 +1.0466891416758639e-04 +0.0000000000000000e+00 +9.9999999452220911e-01
-1.9500000000000011e+00 +8.2848952714584811e+00 +0.0000000000000000e+00 -1.9499999962500838e+00 +1.0742440352660264e-04 +0.0000000000000000e+00 +9.9999999422999863e-01
-2.0000000000000009e+00 +8.2848898313494210e+00 +0.0000000000000000e+00 -1.9999999959541201e+00 +1.1017997228100530e-04 +0.0000000000000000e+00 +9.9999999393018668e-01
-2.0500000000000007e+00 +8.2848842534598983e+00 +0.0000000000000000e+00 -2.0499999956429757e+00 +1.1293562233632261e-04 +0.0000000000000000e+00 +9.9999999362277248e-01
-2.1000000000000005e+00 +8.2848785377858007e+00 +0.0000000000000000e+00 -2.0999999953162707e+00 +1.1569135559013769e-04 +0.0000000000000000e+00 +9.9999999330775502e-01
-2.1500000000000004e+00 +8.2848726843229219e+00 +0.0000000000000000e+00 -2.1499999949736246e+00 +1.1844717392770104e-04 +0.0000000000000000e+00 +9.9999999298513342e-01
-2.2000000000000002e+00 +8.2848666930669594e+00 +0.0000000000000000e+00 -2.1999999946146573e+00 +1.2120307922153187e-04 +0.0000000000000000e+00 +9.9999999265490669e-01
-2.2500000000000000e+00 +8.2848605640135187e+00 +0.0000000000000000e+00 -2.2499999942389883e+00 +1.2395907333141799e-04 +0.0000000000000000e+00 +9.9999999231707393e-01
-2.2999999999999998e+00 +8.2848542971581143e+00 +0.0000000000000000e+00 -2.2999999938462379e+00 +1.2671515810441599e-04 +0.0000000000000000e+00 +9.9999999197163425e-01
-2.3499999999999996e+00 +8.2848478924961668e+00 +0.0000000000000000e+00 -2.3499999934360249e+00 +1.2947133537485127e-04 +0.0000000000000000e+00 +9.9999999161858655e-01
-2.3999999999999995e+00 +8.2848413500230045e+00 +0.0000000000000000e+00 -2.3999999930079694e+00 +1.3222760696431811e-04 +0.0000000000000000e+00 +9.9999999125792982e-01
-2.4499999999999993e+00 +8.2848346697338684e+00 +0.0000000000000000e+00 -2.4499999925616911e+00 +1.3498397468167972e-04 +0.0000000000000000e+00 +9.9999999088966318e-01
-2.4999999999999991e+00 +8.2848278516239056e+00 +0.0000000000000000e+00 -2.4999999920968090e+00 +1.3774044032306828e-04 +0.0000000000000000e+00 +9.9999999051378541e-01
-2.5499999999999989e+00 +8.2848208956881741e+00 +0.0000000000000000e+00 -2.5499999916129426e+00 +1.4049700567188503e-04 +0.0000000000000000e+00 +9.9999999013029550e-01
-2.5999999999999988e+00 +8.2848138019216471e+00 +0.0000000000000000e+00 -2.5999999911097116e+00 +1.4325367249880033e-04 +0.0000000000000000e+00 +9.9999998973919246e-01
-2.6499999999999986e+00 +8.2848065703192049e+00 +0.0000000000000000e+00 -2.6499999905867351e+00 +1.4601044256175368e-04 +0.0000000000000000e+00 +9.9999998934047518e-01
-2.6999999999999984e+00 +8.2847992008756410e+00 +0.0000000000000000e+00 -2.6999999900436324e+00 +1.4876731760595378e-04 +0.0000000000000000e+00 +9.9999998893414244e-01
-2.7499999999999982e+00 +8.2847916935856656e+00 +0.0000000000000000e+00 -2.7499999894800227e+00 +1.5152429936387862e-04 +0.0000000000000000e+00 +9.9999998852019323e-01
-2.7999999999999980e+00 +8.2847840484438979e+00 +0.0000000000000000e+00 -2.7999999888955247e+00 +1.5428138955527552e-04 +0.0000000000000000e+00 +9.9999998809862634e-01
-2.8499999999999979e+00 +8.2847762654448740e+00 +0.0000000000000000e+00 -2.8499999882897580e+00 +1.5703858988716120e-04 +0.0000000000000000e+00 +9.9999998766944054e-01
-2.8999999999999977e+00 +8.2847683445830445e+00 +0.0000000000000000e+00 -2.8999999876623415e+00 +1.5979590205382176e-04 +0.0000000000000000e+00 +9.9999998723263472e-01
-2.9499999999999975e+00 +8.2847602858527765e+00 +0.0000000000000000e+00 -2.9499999870128941e+00 +1.6255332773681280e-04 +0.0000000000000000e+00 +9.9999998678820767e-01
-2.9999999999999973e+00 +8.2847520892483519e+00 +0.0000000000000000e+00 -2.9999999863410349e+00 +1.6531086860495947e-04 +0.0000000000000000e+00 +9.9999998633615816e-01
-3.0499999999999972e+00 +8.2847437547639693e+00 +0.0000000000000000e+00 -3.0499999856463829e+00 +1.6806852631435647e-04 +0.0000000000000000e+00 +9.9999998587648498e-01
-3.0999999999999970e+00 +8.2847352823937452e+00 +0.0000000000000000e+00 -3.0999999849285564e+00 +1.7082630250836813e-04 +0.0000000000000000e+00 +9.9999998540918689e-01
-3.1499999999999968e+00 +8.2847266721317165e+00 +0.0000000000000000e+00 -3.1499999841871746e+00 +1.7358419881762847e-04 +0.0000000000000000e+00 +9.9999998493426268e-01
-3.1999999999999966e+00 +8.2847179239718347e+00 +0.0000000000000000e+00 -3.1999999834218560e+00 +1.7634221686004122e-04 +0.0000000000000000e+00 +9.9999998445171101e-01
-3.2499999999999964e+00 +8.2847090379079749e+00 +0.0000000000000000e+00 -3.2499999826322190e+00 +1.7910035824077989e-04 +0.0000000000000000e+00 +9.9999998396153056e-01
-3.2999999999999963e+00 +8.2847000139339286e+00 +0.0000000000000000e+00 -3.2999999818178822e+00 +1.8185862455228775e-04 +0.0000000000000000e+00 +9.9999998346372010e-01
-3.3499999999999961e+00 +8.2846908520434113e+00 +0.0000000000000000e+00 -3.3499999809784642e+00 +1.8461701737427800e-04 +0.0000000000000000e+00 +9.9999998295827819e-01
-3.3999999999999959e+00 +8.2846815522300563e+00 +0.0000000000000000e+00 -3.3999999801135830e+00 +1.8737553827373371e-04 +0.0000000000000000e+00 +9.9999998244520361e-01
-3.4499999999999957e+00 +8.2846721144874227e+00 +0.0000000000000000e+00 -3.4499999792228571e+00 +1.9013418880490783e-04 +0.0000000000000000e+00 +9.9999998192449491e-01
-3.4999999999999956e+00 +8.2846625388089894e+00 +0.0000000000000000e+00 -3.4999999783059050e+00 +1.9289297050932339e-04 +0.0000000000000000e+00 +9.9999998139615076e-01
-3.5499999999999954e+00 +8.2846528251881590e+00 +0.0000000000000000e+00 -3.5499999773623450e+00 +1.9565188491577336e-04 +0.0000000000000000e+00 +9.9999998086016972e-01
-3.5999999999999952e+00 +8.2846429736182596e+00 +0.0000000000000000e+00 -3.5999999763917949e+00 +1.9841093354032080e-04 +0.0000000000000000e+00 +9.9999998031655046e-01
-3.6499999999999950e+00 +8.2846329840925428e+00 +0.0000000000000000e+00 -3.6499999753938730e+00 +2.0117011788629887e-04 +0.0000000000000000e+00 +9.9999997976529154e-01
-3.6999999999999948e+00 +8.2846228566041837e+00 +0.0000000000000000e+00 -3.6999999743681968e+00 +2.0392943944431085e-04 +0.0000000000000000e+00 +9.9999997920639150e-01
-3.7499999999999947e+00 +8.2846125911462867e+00 +0.0000000000000000e+00 -3.7499999733143845e+00 +2.0668889969223018e-04 +0.0000000000000000e+00 +9.9999997863984902e-01
-3.7999999999999945e+00 +8.2846021877118794e+00 +0.0000000000000000e+00 -3.7999999722320541e+00 +2.0944850009520054e-04 +0.0000000000000000e+00 +9.9999997806566254e-01
-3.8499999999999943e+00 +8.2845916462939169e+00 +0.0000000000000000e+00 -3.8499999711208233e+00 +2.1220824210563583e-04 +0.0000000000000000e+00 +9.9999997748383063e-01
-3.8999999999999941e+00 +8.2845809668852848e+00 +0.0000000000000000e+00 -3.8999999699803096e+00 +2.1496812716322023e-04 +0.0000000000000000e+00 +9.9999997689435183e-01
-3.9499999999999940e+00 +8.2845701494787924e+00 +0.0000000000000000e+00 -3.9499999688101308e+00 +2.1772815669490823e-04 +0.0000000000000000e+00 +9.9999997629722459e-01
-3.9999999999999938e+00 +8.2845591940671834e+00 +0.0000000000000000e+00 -3.9999999676099045e+00 +2.2048833211492464e-04 +0.0000000000000000e+00 +9.9999997569244736e-01
-4.0499999999999936e+00 +8.2845481006431267e+00 +0.0000000000000000e+00 -4.0499999663792483e+00 +2.2324865482473870e-04 +0.0000000000000000e+00 +9.9999997508001870e-01
-4.0999999999999934e+00 +8.2845368691992238e+00 +0.0000000000000000e+00 -4.0999999651177790e+00 +2.2600912621277837e-04 +0.0000000000000000e+00 +9.9999997445993705e-01
-4.1499999999999932e+00 +8.2845254997280051e+00 +0.0000000000000000e+00 -4.1499999638251142e+00 +2.2876974765414474e-04 +0.0000000000000000e+00 +9.9999997383220085e-01
-4.1999999999999931e+00 +8.2845139922219353e+00 +0.0000000000000000e+00 -4.1999999625008710e+00 +2.3153052051058600e-04 +0.0000000000000000e+00 +9.9999997319680856e-01
-4.2499999999999929e+00 +8.2845023466734080e+00 +0.0000000000000000e+00 -4.2499999611446668e+00 +2.3429144613049756e-04 +0.0000000000000000e+00 +9.9999997255375861e-01
-4.2999999999999927e+00 +8.2844905630747530e+00 +0.0000000000000000e+00 -4.2999999597561187e+00 +2.3705252584892196e-04 +0.0000000000000000e+00 +9.9999997190304946e-01
-4.3499999999999925e+00 +8.2844786414182323e+00 +0.0000000000000000e+00 -4.3499999583348439e+00 +2.3981376098754892e-04 +0.0000000000000000e+00 +9.9999997124467943e-01
-4.3999999999999924e+00 +8.2844665816960426e+00 +0.0000000000000000e+00 -4.3999999568804586e+00 +2.4257515285471538e-04 +0.0000000000000000e+00 +9.9999997057864698e-01
-4.4499999999999922e+00 +8.2844543839003144e+00 +0.0000000000000000e+00 -4.4499999553925802e+00 +2.4533670274540540e-04 +0.0000000000000000e+00 +9.9999996990495055e-01
-4.4999999999999920e+00 +8.2844420480231129e+00 +0.0000000000000000e+00 -4.4999999538708257e+00 +2.4809841194125035e-04 +0.0000000000000000e+00 +9.9999996922358836e-01
-4.5499999999999918e+00 +8.2844295740564426e+00 +0.0000000000000000e+00 -4.5499999523148116e+00 +2.5086028171052870e-04 +0.0000000000000000e+00 +9.9999996853455886e-01
-4.5999999999999917e+00 +8.2844169619922443e+00 +0.0000000000000000e+00 -4.5999999507241540e+00 +2.5362231330816620e-04 +0.0000000000000000e+00 +9.9999996783786038e-01
-4.6499999999999915e+00 +8.2844042118223946e+00 +0.0000000000000000e+00 -4.6499999490984694e+00 +2.5638450797573577e-04 +0.0000000000000000e+00 +9.9999996713349126e-01
-4.6999999999999913e+00 +8.2843913235387081e+00 +0.0000000000000000e+00 -4.6999999474373748e+00 +2.5914686694145751e-04 +0.0000000000000000e+00 +9.9999996642144984e-01
-4.7499999999999911e+00 +8.2843782971329407e+00 +0.0000000000000000e+00 -4.7499999457404867e+00 +2.6190939142019877e-04 +0.0000000000000000e+00 +9.9999996570173444e-01
-4.7999999999999909e+00 +8.2843651325967862e+00 +0.0000000000000000e+00 -4.7999999440074204e+00 +2.6467208261347414e-04 +0.0000000000000000e+00 +9.9999996497434340e-01
-4.8499999999999908e+00 +8.2843518299218797e+00 +0.0000000000000000e+00 -4.8499999422377931e+00 +2.6743494170944538e-04 +0.0000000000000000e+00 +9.9999996423927506e-01
-4.8999999999999906e+00 +8.2843383890997959e+00 +0.0000000000000000e+00 -4.8999999404312202e+00 +2.7019796988292144e-04 +0.0000000000000000e+00 +9.9999996349652764e-01
-4.9499999999999904e+00 +8.2843248101220528e+00 +0.0000000000000000e+00 -4.9499999385873181e+00 +2.7296116829535845e-04 +0.0000000000000000e+00 +9.9999996274609937e-01
-4.9999999999999902e+00 +8.2843110929801096e+00 +0.0000000000000000e+00 -4.9999999367057022e+00 +2.7572453809485972e-04 +0.0000000000000000e+00 +9.9999996198798857e-01
-5.0499999999999901e+00 +8.2842972376653687e+00 +0.0000000000000000e+00 -5.0499999347859887e+00 +2.7848808041617580e-04 +0.0000000000000000e+00 +9.9999996122219348e-01
-5.0999999999999899e+00 +8.2842832441691741e+00 +0.0000000000000000e+00 -5.0999999328277932e+00 +2.8125179638070432e-04 +0.0000000000000000e+00 +9.9999996044871242e-01
-5.1499999999999897e+00 +8.2842691124828178e+00 +0.0000000000000000e+00 -5.1499999308307318e+00 +2.8401568709649015e-04 +0.0000000000000000e+00 +9.9999995966754363e-01
-5.1999999999999895e+00 +8.2842548425975338e+00 +0.0000000000000000e+00 -5.1999999287944192e+00 +2.8677975365822521e-04 +0.0000000000000000e+00 +9.9999995887868531e-01
-5.2499999999999893e+00 +8.2842404345045022e+00 +0.0000000000000000e+00 -5.2499999267184716e+00 +2.8954399714724863e-04 +0.0000000000000000e+00 +9.9999995808213571e-01
-5.2999999999999892e+00 +8.2842258881948521e+00 +0.0000000000000000e+00 -5.2999999246025045e+00 +2.9230841863154660e-04 +0.0000000000000000e+00 +9.9999995727789304e-01
-5.3499999999999890e+00 +8.2842112036596554e+00 +0.0000000000000000e+00 -5.3499999224461323e+00 +2.9507301916575240e-04 +0.0000000000000000e+00 +9.9999995646595552e-01
-5.3999999999999888e+00 +8.2841963808899344e+00 +0.0000000000000000e+00 -5.3999999202489715e+00 +2.9783779979114641e-04 +0.0000000000000000e+00 +9.9999995564632127e-01
-5.4499999999999886e+00 +8.2841814198766581e+00 +0.0000000000000000e+00 -5.4499999180106364e+00 +3.0060276153565606e-04 +0.0000000000000000e+00 +9.9999995481898862e-01
-5.4999999999999885e+00 +8.2841663206107459e+00 +0.0000000000000000e+00 -5.4999999157307418e+00 +3.0336790541385578e-04 +0.0000000000000000e+00 +9.9999995398395569e-01
-5.5499999999999883e+00 +8.2841510830830654e+00 +0.0000000000000000e+00 -5.5499999134089029e+00 +3.0613323242696704e-04 +0.0000000000000000e+00 +9.9999995314122070e-01
-5.5999999999999881e+00 +8.2841357072844346e+00 +0.0000000000000000e+00 -5.5999999110447352e+00 +3.0889874356285831e-04 +0.0000000000000000e+00 +9.9999995229078176e-01
-5.6499999999999879e+00 +8.2841201932056237e+00 +0.0000000000000000e+00 -5.6499999086378532e+00 +3.1166443979604503e-04 +0.0000000000000000e+00 +9.9999995143263709e-01
-5.6999999999999877e+00 +8.2841045408373546e+00 +0.0000000000000000e+00 -5.6999999061878706e+00 +3.1443032208768956e-04 +0.0000000000000000e+00 +9.9999995056678481e-01
-5.7499999999999876e+00 +8.2840887501702998e+00 +0.0000000000000000e+00 -5.7499999036944027e+00 +3.1719639138560112e-04 +0.0000000000000000e+00 +9.9999994969322314e-01
-5.7999999999999874e+00 +8.2840728211950854e+00 +0.0000000000000000e+00 -5.7999999011570642e+00 +3.1996264862423594e-04 +0.0000000000000000e+00 +9.9999994881195020e-01
-5.8499999999999872e+00 +8.2840567539022913e+00 +0.0000000000000000e+00 -5.8499998985754695e+00 +3.2272909472469695e-04 +0.0000000000000000e+00 +9.9999994792296409e-01
