# field on trajectory
# s[mm] rx[mm] ry[mm] rz[mm] bx[T] by[T] bz[T]
0.0000000000000000e+00 +8.5269999999999992e+00 +0.0000000000000000e+00 +0.0000000000000000e+00 -2.8250383749625196e-02 -5.5343535703457558e-01 +5.5054891467427548e-03
-5.0000000000000003e-02 +8.5269999306514510e+00 +0.0000000000000000e+00 -4.9999999999935874e-02 -2.8250359182201010e-02 -5.5343584982042437e-01 +5.5056235209229951e-03
-1.0000000000000001e-01 +8.5269997226057104e+00 +0.0000000000000000e+00 -9.9999999999487013e-02 -2.8250352015016439e-02 -5.5343666957430093e-01 +5.5057620237811081e-03
-1.5000000000000002e-01 +8.5269993758625713e+00 +0.0000000000000000e+00 -1.4999999999826868e-01 -2.8250362248810178e-02 -5.5343781563055816e-01 +5.5059046482014281e-03
-2.0000000000000001e-01 +8.5269988904217460e+00 +0.0000000000000000e+00 -1.9999999999589613e-01 -2.8250389884320902e-02 -5.5343928732356484e-01 +5.5060513870683848e-03
-2.5000000000000000e-01 +8.5269982662828667e+00 +0.0000000000000000e+00 -2.4999999999198461e-01 -2.8250434922287227e-02 -5.5344108398770675e-01 +5.5062022332665042e-03
-2.9999999999999999e-01 +8.5269975034454824e+00 +0.0000000000000000e+00 -2.9999999998614935e-01 -2.8250497363447778e-02 -5.5344320495738519e-01 +5.5063571796804050e-03
-3.4999999999999998e-01 +8.5269966019090617e+00 +0.0000000000000000e+00 -3.4999999997800563e-01 -2.8250577208541197e-02 -5.5344564956701647e-01 +5.5065162191947886e-03
-3.9999999999999997e-01 +8.5269955616729920e+00 +0.0000000000000000e+00 -3.9999999996716867e-01 -2.8250674458306237e-02 -5.5344841715103310e-01 +5.5066793446944566e-03
-4.4999999999999996e-01 +8.5269943827365804e+00 +0.0000000000000000e+00 -4.4999999995325374e-01 -2.8250789113481795e-02 -5.5345150704388313e-01 +5.5068465490642864e-03
-4.9999999999999994e-01 +8.5269930650990524e+00 +0.0000000000000000e+00 -4.9999999993587602e-01 -2.8250921174806935e-02 -5.5345491858002971e-01 +5.5070178251892549e-03
-5.4999999999999993e-01 +8.5269916087595519e+00 +0.0000000000000000e+00 -5.4999999991465076e-01 -2.8251070643020949e-02 -5.5345865109395165e-01 +5.5071931659544130e-03
-5.9999999999999998e-01 +8.5269900137171444e+00 +0.0000000000000000e+00 -5.9999999988919317e-01 -2.8251237518863392e-02 -5.5346270392014218e-01 +5.5073725642448964e-03
-6.5000000000000002e-01 +8.5269882799708157e+00 +0.0000000000000000e+00 -6.4999999985911838e-01 -2.8251421803074144e-02 -5.5346707639311021e-01 +5.5075560129459302e-03
-7.0000000000000007e-01 +8.5269864075194679e+00 +0.0000000000000000e+00 -6.9999999982404160e-01 -2.8251623496393419e-02 -5.5347176784737984e-01 +5.5077435049428105e-03
-7.5000000000000011e-01 +8.5269843963619270e+00 +0.0000000000000000e+00 -7.4999999978357801e-01 -2.8251842599561865e-02 -5.5347677761748904e-01 +5.5079350331209125e-03
-8.0000000000000016e-01 +8.5269822464969351e+00 +0.0000000000000000e+00 -7.9999999973734282e-01 -2.8252079113320554e-02 -5.5348210503799067e-01 +5.5081305903656947e-03
-8.5000000000000020e-01 +8.5269799579231584e+00 +0.0000000000000000e+00 -8.4999999968495110e-01 -2.8252333038411064e-02 -5.5348774944345291e-01 +5.5083301695626847e-03
-9.0000000000000024e-01 +8.5269775306391828e+00 +0.0000000000000000e+00 -8.9999999962601795e-01 -2.8252604375575481e-02 -5.5349371016845750e-01 +5.5085337635974851e-03
-9.5000000000000029e-01 +8.5269749646435145e+00 +0.0000000000000000e+00 -9.4999999956015857e-01 -2.8252893125556490e-02 -5.5349998654760069e-01 +5.5087413653557744e-03
-1.0000000000000002e+00 +8.5269722599345812e+00 +0.0000000000000000e+00 -9.9999999948698803e-01 -2.8253199289097409e-02 -5.5350657791549351e-01 +5.5089529677233001e-03
-1.0500000000000003e+00 +8.5269694165107293e+00 +0.0000000000000000e+00 -1.0499999994061213e+00 -2.8253522866942212e-02 -5.5351348360676034e-01 +5.5091685635858785e-03
-1.1000000000000003e+00 +8.5269664343702285e+00 +0.0000000000000000e+00 -1.0999999993171736e+00 -2.8253863859835575e-02 -5.5352070295603972e-01 +5.5093881458293933e-03
-1.1500000000000004e+00 +8.5269633135112706e+00 +0.0000000000000000e+00 -1.1499999992197600e+00 -2.8254222268522953e-02 -5.5352823529798445e-01 +5.5096117073397928e-03
-1.2000000000000004e+00 +8.5269600539319672e+00 +0.0000000000000000e+00 -1.1999999991134955e+00 -2.8254598093750586e-02 -5.5353607996726051e-01 +5.5098392410030967e-03
-1.2500000000000004e+00 +8.5269566556303538e+00 +0.0000000000000000e+00 -1.2499999989979949e+00 -2.8254991336265571e-02 -5.5354423629854788e-01 +5.5100707397053791e-03
-1.3000000000000005e+00 +8.5269531186043857e+00 +0.0000000000000000e+00 -1.2999999988728732e+00 -2.8255401996815893e-02 -5.5355270362653941e-01 +5.5103061963327829e-03
-1.3500000000000005e+00 +8.5269494428519401e+00 +0.0000000000000000e+00 -1.3499999987377456e+00 -2.8255830076150464e-02 -5.5356148128594274e-01 +5.5105456037715063e-03
-1.4000000000000006e+00 +8.5269456283708180e+00 +0.0000000000000000e+00 -1.3999999985922269e+00 -2.8256275575019186e-02 -5.5357056861147735e-01 +5.5107889549078125e-03
-1.4500000000000006e+00 +8.5269416751587404e+00 +0.0000000000000000e+00 -1.4499999984359320e+00 -2.8256738494172973e-02 -5.5357996493787587e-01 +5.5110362426280118e-03
-1.5000000000000007e+00 +8.5269375832133552e+00 +0.0000000000000000e+00 -1.4999999982684757e+00 -2.8257218834363829e-02 -5.5358966959988520e-01 +5.5112874598184803e-03
-1.5500000000000007e+00 +8.5269333525322288e+00 +0.0000000000000000e+00 -1.5499999980894732e+00 -2.8257716596344837e-02 -5.5359968193226383e-01 +5.5115425993656434e-03
-1.6000000000000008e+00 +8.5269289831128514e+00 +0.0000000000000000e+00 -1.5999999978985389e+00 -2.8258231780870273e-02 -5.5361000126978399e-01 +5.5118016541559752e-03
-1.6500000000000008e+00 +8.5269244749526383e+00 +0.0000000000000000e+00 -1.6499999976952877e+00 -2.8258764388695581e-02 -5.5362062694723013e-01 +5.5120646170760141e-03
-1.7000000000000008e+00 +8.5269198280489249e+00 +0.0000000000000000e+00 -1.6999999974793345e+00 -2.8259314420577473e-02 -5.5363155829939881e-01 +5.5123314810123294e-03
-1.7500000000000009e+00 +8.5269150423989739e+00 +0.0000000000000000e+00 -1.7499999972502940e+00 -2.8259881877273973e-02 -5.5364279466110011e-01 +5.5126022388515550e-03
-1.8000000000000009e+00 +8.5269101179999680e+00 +0.0000000000000000e+00 -1.7999999970077809e+00 -2.8260466759544366e-02 -5.5365433536715603e-01 +5.5128768834803634e-03
-1.8500000000000010e+00 +8.5269050548490153e+00 +0.0000000000000000e+00 -1.8499999967514098e+00 -2.8261069068149392e-02 -5.5366617975239973e-01 +5.5131554077854665e-03
-1.9000000000000010e+00 +8.5268998529431475e+00 +0.0000000000000000e+00 -1.8999999964807954e+00 -2.8261688803851194e-02 -5.5367832715167808e-01 +5.5134378046536349e-03
-1.9500000000000011e+00 +8.5268945122793216e+00 +0.0000000000000000e+00 -1.9499999961955525e+00 -2.8262325967413331e-02 -5.5369077689984880e-01 +5.5137240669716663e-03
-2.0000000000000009e+00 +8.5268890328544167e+00 +0.0000000000000000e+00 -1.9999999958952954e+00 -2.8262980559600963e-02 -5.5370352833178205e-01 +5.5140141876264094e-03
-2.0500000000000007e+00 +8.5268834146652370e+00 +0.0000000000000000e+00 -2.0499999955796389e+00 -2.8263652552571680e-02 -5.5371658058245099e-01 +5.5143081613056970e-03
-2.1000000000000005e+00 +8.5268776577085106e+00 +0.0000000000000000e+00 -2.0999999952481971e+00 -2.8264341804048101e-02 -5.5372993198720433e-01 +5.5146059899012457e-03
-2.1500000000000004e+00 +8.5268717619808925e+00 +0.0000000000000000e+00 -2.1499999949005852e+00 -2.8265048143144667e-02 -5.5374358068149365e-01 +5.5149076771058864e-03
-2.2000000000000002e+00 +8.5268657274789632e+00 +0.0000000000000000e+00 -2.1999999945364173e+00 -2.8265771398976701e-02 -5.5375752480078111e-01 +5.5152132266126112e-03
-2.2500000000000000e+00 +8.5268595541992269e+00 +0.0000000000000000e+00 -2.2499999941553073e+00 -2.8266511400660325e-02 -5.5377176248053883e-01 +5.5155226421145943e-03
-2.2999999999999998e+00 +8.5268532421381167e+00 +0.0000000000000000e+00 -2.2999999937568703e+00 -2.8267267977312535e-02 -5.5378629185624983e-01 +5.5158359273051929e-03
-2.3499999999999996e+00 +8.5268467912919910e+00 +0.0000000000000000e+00 -2.3499999933407199e+00 -2.8268040958051133e-02 -5.5380111106340690e-01 +5.5161530858779517e-03
-2.3999999999999995e+00 +8.5268402016571354e+00 +0.0000000000000000e+00 -2.3999999929064710e+00 -2.8268830171994806e-02 -5.5381621823751348e-01 +5.5164741215266095e-03
-2.4499999999999993e+00 +8.5268334732297646e+00 +0.0000000000000000e+00 -2.4499999924537375e+00 -2.8269635448263025e-02 -5.5383161151408189e-01 +5.5167990379451090e-03
-2.4999999999999991e+00 +8.5268266060060203e+00 +0.0000000000000000e+00 -2.4999999919821336e+00 -2.8270456615976124e-02 -5.5384728902863500e-01 +5.5171278388275926e-03
-2.5499999999999989e+00 +8.5268195999819731e+00 +0.0000000000000000e+00 -2.5499999914912737e+00 -2.8271293504255258e-02 -5.5386324891670502e-01 +5.5174605278684244e-03
-2.5999999999999988e+00 +8.5268124551536246e+00 +0.0000000000000000e+00 -2.5999999909807721e+00 -2.8272145942222399e-02 -5.5387948931383324e-01 +5.5177971087621838e-03
-2.6499999999999986e+00 +8.5268051715169051e+00 +0.0000000000000000e+00 -2.6499999904502425e+00 -2.8273013759000362e-02 -5.5389600835557018e-01 +5.5181375852036705e-03
-2.6999999999999984e+00 +8.5267977490676738e+00 +0.0000000000000000e+00 -2.6999999898992990e+00 -2.8273896783712754e-02 -5.5391280417747590e-01 +5.5184819608879235e-03
-2.7499999999999982e+00 +8.5267901878017227e+00 +0.0000000000000000e+00 -2.7499999893275557e+00 -2.8274794845484046e-02 -5.5392987491511914e-01 +5.5188302395102126e-03
-2.7999999999999980e+00 +8.5267824877147742e+00 +0.0000000000000000e+00 -2.7999999887346263e+00 -2.8275707773439459e-02 -5.5394721870407715e-01 +5.5191824247660566e-03
-2.8499999999999979e+00 +8.5267746488024798e+00 +0.0000000000000000e+00 -2.8499999881201248e+00 -2.8276635396705090e-02 -5.5396483367993599e-01 +5.5195385203512153e-03
-2.8999999999999977e+00 +8.5267666710604271e+00 +0.0000000000000000e+00 -2.8999999874836653e+00 -2.8277577544407836e-02 -5.5398271797828957e-01 +5.5198985299617104e-03
-2.9499999999999975e+00 +8.5267585544841324e+00 +0.0000000000000000e+00 -2.9499999868248610e+00 -2.8278534045675360e-02 -5.5400086973474150e-01 +5.5202624572938223e-03
-2.9999999999999973e+00 +8.5267502990690485e+00 +0.0000000000000000e+00 -2.9999999861433260e+00 -2.8279504729636185e-02 -5.5401928708490222e-01 +5.5206303060440992e-03
-3.0499999999999972e+00 +8.5267419048105584e+00 +0.0000000000000000e+00 -3.0499999854386743e+00 -2.8280489425419608e-02 -5.5403796816438988e-01 +5.5210020799093627e-03
-3.0999999999999970e+00 +8.5267333717039815e+00 +0.0000000000000000e+00 -3.0999999847105193e+00 -2.8281487962155728e-02 -5.5405691110883171e-01 +5.5213777825867142e-03
-3.1499999999999968e+00 +8.5267246997445696e+00 +0.0000000000000000e+00 -3.1499999839584745e+00 -2.8282500168975468e-02 -5.5407611405386159e-01 +5.5217574177735384e-03
-3.1999999999999966e+00 +8.5267158889275105e+00 +0.0000000000000000e+00 -3.1999999831821535e+00 -2.8283525875010502e-02 -5.5409557513512120e-01 +5.5221409891675136e-03
-3.2499999999999964e+00 +8.5267069392479282e+00 +0.0000000000000000e+00 -3.2499999823811696e+00 -2.8284564909393333e-02 -5.5411529248825919e-01 +5.5225285004666122e-03
-3.2999999999999963e+00 +8.5266978507008808e+00 +0.0000000000000000e+00 -3.2999999815551369e+00 -2.8285617101257255e-02 -5.5413526424893211e-01 +5.5229199553691218e-03
-3.3499999999999961e+00 +8.5266886232813643e+00 +0.0000000000000000e+00 -3.3499999807036680e+00 -2.8286682279736328e-02 -5.5415548855280261e-01 +5.5233153575736183e-03
-3.3999999999999959e+00 +8.5266792569843091e+00 +0.0000000000000000e+00 -3.3999999798263767e+00 -2.8287760273965432e-02 -5.5417596353554055e-01 +5.5237147107790128e-03
-3.4499999999999957e+00 +8.5266697518045831e+00 +0.0000000000000000e+00 -3.4499999789228761e+00 -2.8288850913080203e-02 -5.5419668733282290e-01 +5.5241180186845320e-03
-3.4999999999999956e+00 +8.5266601077369941e+00 +0.0000000000000000e+00 -3.4999999779927795e+00 -2.8289954026217045e-02 -5.5421765808033241e-01 +5.5245252849897251e-03
-3.5499999999999954e+00 +8.5266503247762877e+00 +0.0000000000000000e+00 -3.5499999770357000e+00 -2.8291069442513188e-02 -5.5423887391375848e-01 +5.5249365133944782e-03
-3.5999999999999952e+00 +8.5266404029171454e+00 +0.0000000000000000e+00 -3.5999999760512509e+00 -2.8292196991106602e-02 -5.5426033296879684e-01 +5.5253517075990249e-03
-3.6499999999999950e+00 +8.5266303421541902e+00 +0.0000000000000000e+00 -3.6499999750390453e+00 -2.8293336501136045e-02 -5.5428203338114890e-01 +5.5257708713039345e-03
-3.6999999999999948e+00 +8.5266201424819847e+00 +0.0000000000000000e+00 -3.6999999739986960e+00 -2.8294487801741049e-02 -5.5430397328652237e-01 +5.5261940082101313e-03
-3.7499999999999947e+00 +8.5266098038950293e+00 +0.0000000000000000e+00 -3.7499999729298161e+00 -2.8295650722061895e-02 -5.5432615082063053e-01 +5.5266211220188982e-03
-3.7999999999999945e+00 +8.5265993263877657e+00 +0.0000000000000000e+00 -3.7999999718320185e+00 -2.8296825091239642e-02 -5.5434856411919176e-01 +5.5270522164318787e-03
-3.8499999999999943e+00 +8.5265887099545790e+00 +0.0000000000000000e+00 -3.8499999707049160e+00 -2.8298010738416139e-02 -5.5437121131793066e-01 +5.5274872951510973e-03
-3.8999999999999941e+00 +8.5265779545897917e+00 +0.0000000000000000e+00 -3.8999999695481211e+00 -2.8299207492733958e-02 -5.5439409055257660e-01 +5.5279263618789425e-03
-3.9499999999999940e+00 +8.5265670602876718e+00 +0.0000000000000000e+00 -3.9499999683612468e+00 -2.8300415183336456e-02 -5.5441719995886340e-01 +5.5283694203181908e-03
-3.9999999999999938e+00 +8.5265560270424263e+00 +0.0000000000000000e+00 -3.9999999671439057e+00 -2.8301633639367718e-02 -5.5444053767253121e-01 +5.5288164741720044e-03
-4.0499999999999936e+00 +8.5265448548482077e+00 +0.0000000000000000e+00 -4.0499999658957107e+00 -2.8302862695575175e-02 -5.5446410171168869e-01 +5.5292675245089467e-03
-4.0999999999999934e+00 +8.5265335436991094e+00 +0.0000000000000000e+00 -4.0999999646162735e+00 -2.8304102209117107e-02 -5.5448788962390783e-01 +5.5297225618578831e-03
-4.1499999999999932e+00 +8.5265220935891719e+00 +0.0000000000000000e+00 -4.1499999633052074e+00 -2.8305352042754514e-02 -5.5451189883912633e-01 +5.5301815741128054e-03
-4.1999999999999931e+00 +8.5265105045123768e+00 +0.0000000000000000e+00 -4.1999999619621242e+00 -2.8306612059248486e-02 -5.5453612678728392e-01 +5.5306445491678314e-03
-4.2499999999999929e+00 +8.5264987764626543e+00 +0.0000000000000000e+00 -4.2499999605866368e+00 -2.8307882121360178e-02 -5.5456057089832056e-01 +5.5311114749171829e-03
-4.2999999999999927e+00 +8.5264869094338778e+00 +0.0000000000000000e+00 -4.2999999591783569e+00 -2.8309162091850748e-02 -5.5458522860217707e-01 +5.5315823392551901e-03
-4.3499999999999925e+00 +8.5264749034198672e+00 +0.0000000000000000e+00 -4.3499999577368973e+00 -2.8310451833481420e-02 -5.5461009732879540e-01 +5.5320571300762891e-03
-4.3999999999999924e+00 +8.5264627584143913e+00 +0.0000000000000000e+00 -4.3999999562618699e+00 -2.8311751209013355e-02 -5.5463517450811672e-01 +5.5325358352750278e-03
-4.4499999999999922e+00 +8.5264504744111633e+00 +0.0000000000000000e+00 -4.4499999547528866e+00 -2.8313060081207698e-02 -5.5466045757008287e-01 +5.5330184427460436e-03
-4.4999999999999920e+00 +8.5264380514038489e+00 +0.0000000000000000e+00 -4.4999999532095591e+00 -2.8314378312825565e-02 -5.5468594394463544e-01 +5.5335049403840708e-03
-4.5499999999999918e+00 +8.5264254893860620e+00 +0.0000000000000000e+00 -4.5499999516315004e+00 -2.8315705766627952e-02 -5.5471163106171495e-01 +5.5339953160839506e-03
-4.5999999999999917e+00 +8.5264127883513634e+00 +0.0000000000000000e+00 -4.5999999500183213e+00 -2.8317042305375805e-02 -5.5473751635126245e-01 +5.5344895577406064e-03
-4.6499999999999915e+00 +8.5263999482932675e+00 +0.0000000000000000e+00 -4.6499999483696346e+00 -2.8318387791829901e-02 -5.5476359724321578e-01 +5.5349876532490528e-03
-4.6999999999999913e+00 +8.5263869692052374e+00 +0.0000000000000000e+00 -4.6999999466850513e+00 -2.8319742088750908e-02 -5.5478987116751366e-01 +5.5354895905043939e-03
-4.7499999999999911e+00 +8.5263738510806899e+00 +0.0000000000000000e+00 -4.7499999449641832e+00 -2.8321105058899305e-02 -5.5481633555409227e-01 +5.5359953574018140e-03
-4.7999999999999909e+00 +8.5263605939129921e+00 +0.0000000000000000e+00 -4.7999999432066423e+00 -2.8322476565035400e-02 -5.5484298783288588e-01 +5.5365049418365812e-03
-4.8499999999999908e+00 +8.5263471976954648e+00 +0.0000000000000000e+00 -4.8499999414120394e+00 -2.8323856469919285e-02 -5.5486982543382757e-01 +5.5370183317040404e-03
-4.8999999999999906e+00 +8.5263336624213828e+00 +0.0000000000000000e+00 -4.8999999395799865e+00 -2.8325244636310816e-02 -5.5489684578684706e-01 +5.5375355148996157e-03
-4.9499999999999904e+00 +8.5263199880839746e+00 +0.0000000000000000e+00 -4.9499999377100954e+00 -2.8326640926969592e-02 -5.5492404632187253e-01 +5.5380564793187977e-03
-4.9999999999999902e+00 +8.5263061746764226e+00 +0.0000000000000000e+00 -4.9999999358019771e+00 -2.8328045204654942e-02 -5.5495142446882872e-01 +5.5385812128571545e-03
-5.0499999999999901e+00 +8.5262922221918664e+00 +0.0000000000000000e+00 -5.0499999338552426e+00 -2.8329457332125899e-02 -5.5497897765763771e-01 +5.5391097034103148e-03
-5.0999999999999899e+00 +8.5262781306234015e+00 +0.0000000000000000e+00 -5.0999999318695037e+00 -2.8330877172141149e-02 -5.5500670331821800e-01 +5.5396419388739739e-03
-5.1499999999999897e+00 +8.5262638999640785e+00 +0.0000000000000000e+00 -5.1499999298443706e+00 -2.8332304587459077e-02 -5.5503459888048523e-01 +5.5401779071438942e-03
-5.1999999999999895e+00 +8.5262495302069077e+00 +0.0000000000000000e+00 -5.1999999277794551e+00 -2.8333739440837665e-02 -5.5506266177435026e-01 +5.5407175961158890e-03
-5.2499999999999893e+00 +8.5262350213448546e+00 +0.0000000000000000e+00 -5.2499999256743681e+00 -2.8335181595034536e-02 -5.5509088942972085e-01 +5.5412609936858368e-03
-5.2999999999999892e+00 +8.5262203733708475e+00 +0.0000000000000000e+00 -5.2999999235287207e+00 -2.8336630912806866e-02 -5.5511927927650018e-01 +5.5418080877496596e-03
-5.3499999999999890e+00 +8.5262055862777704e+00 +0.0000000000000000e+00 -5.3499999213421230e+00 -2.8338087256911414e-02 -5.5514782874458646e-01 +5.5423588662033355e-03
-5.3999999999999888e+00 +8.5261906600584698e+00 +0.0000000000000000e+00 -5.3999999191141868e+00 -2.8339550490104504e-02 -5.5517653526387367e-01 +5.5429133169428938e-03
-5.4499999999999886e+00 +8.5261755947057498e+00 +0.0000000000000000e+00 -5.4499999168445221e+00 -2.8341020475141965e-02 -5.5520539626425092e-01 +5.5434714278644066e-03
-5.4999999999999885e+00 +8.5261603902123788e+00 +0.0000000000000000e+00 -5.4999999145327401e+00 -2.8342497074779111e-02 -5.5523440917560096e-01 +5.5440331868639829e-03
-5.5499999999999883e+00 +8.5261450465710862e+00 +0.0000000000000000e+00 -5.5499999121784507e+00 -2.8343980151770760e-02 -5.5526357142780225e-01 +5.5445985818377815e-03
-5.5999999999999881e+00 +8.5261295637745640e+00 +0.0000000000000000e+00 -5.5999999097812649e+00 -2.8345469568871184e-02 -5.5529288045072722e-01 +5.5451676006819869e-03
-5.6499999999999879e+00 +8.5261139418154670e+00 +0.0000000000000000e+00 -5.6499999073407929e+00 -2.8346965188834054e-02 -5.5532233367424177e-01 +5.5457402312928273e-03
-5.6999999999999877e+00 +8.5260981806864145e+00 +0.0000000000000000e+00 -5.6999999048566448e+00 -2.8348466874412497e-02 -5.5535192852820559e-01 +5.5463164615665583e-03
-5.7499999999999876e+00 +8.5260822803799883e+00 +0.0000000000000000e+00 -5.7499999023284314e+00 -2.8349974488358996e-02 -5.5538166244247233e-01 +5.5468962793994653e-03
-5.7999999999999874e+00 +8.5260662408887384e+00 +0.0000000000000000e+00 -5.7999998997557620e+00 -2.8351487893425415e-02 -5.5541153284688860e-01 +5.5474796726878578e-03
-5.8499999999999872e+00 +8.5260500622051794e+00 +0.0000000000000000e+00 -5.8499998971382476e+00 -2.8353006952362956e-02 -5.5544153717129341e-01 +5.5480666293280696e-03
