# multipoles
# s[mm] polynom_b[n=0][T/m^n] polynom_b[n=1][T/m^n] polynom_b[n=2][T/m^n] polynom_b[n=3][T/m^n] polynom_b[n=4][T/m^n] polynom_b[n=5][T/m^n] polynom_b[n=6][T/m^n] 
-0.0000000000000000e+00 -5.7801324823621802e-01 +7.5759162109657199e+00 +6.1842333052747751e+00 -7.2107022919052568e+01 -3.3215596185703680e+03 +5.3838098699854876e+04 +2.1781255826141376e+07 
-5.0000000000000003e-02 -5.7801341400777129e-01 +7.5759098963895966e+00 +6.1815623437713114e+00 -7.1822411275369106e+01 -3.2300789361031916e+03 +5.1432625108117150e+04 +2.1200461991856832e+07 
-1.0000000000000001e-01 -5.7801397981217251e-01 +7.5759232134939145e+00 +6.1785935501527147e+00 -7.1478440387173208e+01 -3.1423152825144584e+03 +4.8729746472787971e+04 +2.0642007221889976e+07 
-1.4999999999999999e-01 -5.7801494477545368e-01 +7.5759561563263143e+00 +6.1753289396868682e+00 -7.1076635705611153e+01 -3.0582779368484757e+03 +4.5737839791899583e+04 +2.0105844915788483e+07 
-2.0000000000000001e-01 -5.7801630802373771e-01 +7.5760087189365688e+00 +6.1717705287425417e+00 -7.0618522730420651e+01 -2.9779762157161367e+03 +4.2465282416404887e+04 +1.9591928754541792e+07 
-2.5000000000000000e-01 -5.7801806868305594e-01 +7.5760808953734164e+00 +6.1679203335036821e+00 -7.0105626905551645e+01 -2.9014194269879204e+03 +3.8920451338207182e+04 +1.9100212342207406e+07 
-2.9999999999999999e-01 -5.7802022587953983e-01 +7.5761726796837658e+00 +6.1637803702766938e+00 -6.9539473547933980e+01 -2.8286168851855318e+03 +3.5111722402479158e+04 +1.8630649339650307e+07 
-3.4999999999999998e-01 -5.7802277873933450e-01 +7.5762840659195385e+00 +6.1593526550688473e+00 -6.8921588165233814e+01 -2.7595779016207325e+03 +3.1047473089220501e+04 +1.8183193402217016e+07 
-4.0000000000000002e-01 -5.7802572638851513e-01 +7.5764150481330255e+00 +6.1546392030117429e+00 -6.8253496235907306e+01 -2.6943117637351061e+03 +2.6736080604345199e+04 +1.7757798018591084e+07 
-4.5000000000000001e-01 -5.7802906795325837e-01 +7.5765656203737048e+00 +6.1496420295910568e+00 -6.7536723110999489e+01 -2.6328277717798155e+03 +2.2185921168461657e+04 +1.7354416775978513e+07 
-5.0000000000000000e-01 -5.7803280255973888e-01 +7.5767357766938463e+00 +6.1443631518164175e+00 -6.6772794205362217e+01 -2.5751352681410699e+03 +1.7405371453026270e+04 +1.6973003548301578e+07 
-5.5000000000000004e-01 -5.7803692933410800e-01 +7.5769255111455962e+00 +6.1388045842351850e+00 -6.5963234919478964e+01 -2.5212435298740215e+03 +1.2402808107304529e+04 +1.6613511770443076e+07 
-5.9999999999999998e-01 -5.7804144740261432e-01 +7.5771348177820528e+00 +6.1329683415026013e+00 -6.5109570644951560e+01 -2.4711618389672431e+03 +7.1866076196539079e+03 +1.6275894913506605e+07 
-6.5000000000000002e-01 -5.7804635589145570e-01 +7.5773636906560817e+00 +6.1268564405960211e+00 -6.4213326739925165e+01 -2.4248995422066723e+03 +1.7651462565481468e+03 +1.5960106895608079e+07 
-6.9999999999999996e-01 -5.7805165392682989e-01 +7.5776121238197813e+00 +6.1204708958407101e+00 -6.3276028508926316e+01 -2.3824659173485034e+03 -3.8532001201550493e+03 +1.5666101175240368e+07 
-7.5000000000000000e-01 -5.7805734063501146e-01 +7.5778801113321421e+00 +6.1138137221840525e+00 -6.2299201495995661e+01 -2.3438702571134404e+03 -9.6600537369937592e+03 +1.5393831301983528e+07 
-8.0000000000000004e-01 -5.7806341514225923e-01 +7.5781676472440305e+00 +6.1068869335115705e+00 -6.1284370898569811e+01 -2.3091218271155071e+03 -1.5647039600919368e+04 +1.5143250650594234e+07 
-8.4999999999999998e-01 -5.7806987657486097e-01 +7.5784747256088787e+00 +6.0996925465775433e+00 -6.0233061983790257e+01 -2.2782299746336848e+03 -2.1805782151384061e+04 +1.4914313156745495e+07 
-9.0000000000000002e-01 -5.7807672405910426e-01 +7.5788013404871126e+00 +6.0922325750585502e+00 -5.9146800268342780e+01 -2.2512039647367997e+03 -2.8127903804603073e+04 +1.4706972204567863e+07 
-9.4999999999999996e-01 -5.7808395672128787e-01 +7.5791474859316805e+00 +6.0845090359773160e+00 -5.8027110945532812e+01 -2.2280531497946981e+03 -3.4605029563346448e+04 +1.4521181756930888e+07 
-1.0000000000000000e+00 -5.7809157368777186e-01 +7.5795131560002860e+00 +6.0765239402089692e+00 -5.6875519365357981e+01 -2.2087867185915138e+03 -4.1228783199959187e+04 +1.4356894675289297e+07 
-1.0500000000000000e+00 -5.7809957408490487e-01 +7.5798983447488251e+00 +6.0682793081095978e+00 -5.5693550784719903e+01 -2.1934141176967842e+03 -4.7990789179443462e+04 +1.4214065572976742e+07 
-1.1000000000000001e+00 -5.7810795703899609e-01 +7.5803030462367671e+00 +6.0597771506296283e+00 -5.4482730568623722e+01 -2.1819445423469979e+03 -5.4882671090962715e+04 +1.4092647368888715e+07 
-1.1499999999999999e+00 -5.7811672167644601e-01 +7.5807272545199842e+00 +6.0510194815444187e+00 -5.3244583917396106e+01 -2.1743872585681947e+03 -6.1896053859142987e+04 +1.3992593441038830e+07 
-1.2000000000000000e+00 -5.7812586712366498e-01 +7.5811709636566755e+00 +6.0420083191045721e+00 -5.1980636091933512e+01 -2.1707516607926973e+03 -6.9022561896875646e+04 +1.3913858062851919e+07 
-1.2500000000000000e+00 -5.7813539250705215e-01 +7.5816341677085504e+00 +6.0327456757934117e+00 -5.0692412462264436e+01 -2.1710469790514112e+03 -7.6253818740816962e+04 +1.3856394361570973e+07 
-1.3000000000000000e+00 -5.7814529695303662e-01 +7.5821168607305216e+00 +6.0232335676922544e+00 -4.9381438113355379e+01 -2.1752825506384465e+03 -8.3581450172727025e+04 +1.3820156227402411e+07 
-1.3500000000000001e+00 -5.7815557958805031e-01 +7.5826190367841511e+00 +6.0134740077008670e+00 -4.8049238359546813e+01 -2.1834676204562838e+03 -9.0997080129707450e+04 +1.3805096900405340e+07 
-1.3999999999999999e+00 -5.7816623953853219e-01 +7.5831406899305476e+00 +6.0034690126573738e+00 -4.6697338459672466e+01 -2.1956115433990472e+03 -9.8492333023801853e+04 +1.3811170375582779e+07 
-1.4500000000000000e+00 -5.7817727593100665e-01 +7.5836818142265701e+00 +5.9932205961518230e+00 -4.5327263495596647e+01 -2.2117235822275165e+03 -1.0605883463218839e+05 +1.3838330011307115e+07 
-1.5000000000000000e+00 -5.7818868789191180e-01 +7.5842424037359928e+00 +5.9827307741554163e+00 -4.3940538787577914e+01 -2.2318130690331850e+03 -1.1368820878359543e+05 +1.3886529649451721e+07 
-1.5500000000000000e+00 -5.7820047454777723e-01 +7.5848224525195320e+00 +5.9720015608377075e+00 -4.2538689521411875e+01 -2.2558892819581297e+03 -1.2137208035778820e+05 +1.3955722746930953e+07 
-1.6000000000000001e+00 -5.7821263502512843e-01 +7.5854219546379724e+00 +5.9610349719436124e+00 -4.1123240831571380e+01 -2.2839615448290356e+03 -1.2910207473601791e+05 +1.4045863082186757e+07 
-1.6499999999999999e+00 -5.7822516845049698e-01 +7.5860409041525294e+00 +5.9498330214293560e+00 -3.9695717862403889e+01 -2.3160391319141331e+03 -1.3686981712332551e+05 +1.4156904091852615e+07 
-1.7000000000000000e+00 -5.7823807395044025e-01 +7.5866792951255926e+00 +5.9383977249991728e+00 -3.8257645783428067e+01 -2.3521313620226242e+03 -1.4466693248456306e+05 +1.4288799504817687e+07 
-1.7500000000000000e+00 -5.7825135065152911e-01 +7.5873371216211547e+00 +5.9267310979922243e+00 -3.6810549796490378e+01 -2.3922475453587258e+03 -1.5248504552170567e+05 +1.4441502994830351e+07 
-1.8000000000000000e+00 -5.7826499768032014e-01 +7.5880143776998876e+00 +5.9148351554842602e+00 -3.5355954936748802e+01 -2.4363969849200739e+03 -1.6031578229286138e+05 +1.4614968186657758e+07 
-1.8500000000000001e+00 -5.7827901416344973e-01 +7.5887110574258427e+00 +5.9027119140693358e+00 -3.3895386359498154e+01 -2.4845890222950679e+03 -1.6815076784467464e+05 +1.4809148956024358e+07 
-1.8999999999999999e+00 -5.7829339922755296e-01 +7.5894271548635572e+00 +5.8903633871440624e+00 -3.2430369209887509e+01 -2.5368329104405707e+03 -1.7598162728824848e+05 +1.5023998570868045e+07 
-1.9500000000000000e+00 -5.7830815199921948e-01 +7.5901626640754500e+00 +5.8777915923115698e+00 -3.0962428528856258e+01 -2.5931380172333966e+03 -1.8379998651702868e+05 +1.5259471081164403e+07 
-2.0000000000000000e+00 -5.7832327160512420e-01 +7.5909175791252892e+00 +5.8649985447405548e+00 -2.9493089375613888e+01 -2.6535136431060737e+03 -1.9159747131208767e+05 +1.5515520075597940e+07 
-2.0499999999999998e+00 -5.7833875695164705e-01 +7.5916918741508166e+00 +5.8519850556058959e+00 -2.8023795060434676e+01 -2.7179357482769251e+03 -1.9936617285312514e+05 +1.5791946607186159e+07 
-2.1000000000000001e+00 -5.7835460606099853e-01 +7.5924854458164868e+00 +5.8387472416821931e+00 -2.6555653740249191e+01 -2.7862497662316941e+03 -2.0710024052501982e+05 +1.6087957686804257e+07 
-2.1499999999999999e+00 -5.7837081673339052e-01 +7.5932981681695777e+00 +5.8252802636123695e+00 -2.5089692167828034e+01 -2.8582684902590258e+03 -2.1479439204884585e+05 +1.6402611839037020e+07 
-2.2000000000000002e+00 -5.7838738676916512e-01 +7.5941299152642738e+00 +5.8115792885926316e+00 -2.3626937344678705e+01 -2.9338048908283949e+03 -2.2244334321389225e+05 +1.6734968788753692e+07 
-2.2500000000000000e+00 -5.7840431396862357e-01 +7.5949805611511030e+00 +5.7976394794805879e+00 -2.2168416124629864e+01 -3.0126718240045057e+03 -2.3004181093360661e+05 +1.7084087500162426e+07 
-2.2999999999999998e+00 -5.7842159613213218e-01 +7.5958499798806249e+00 +5.7834560030897242e+00 -2.0715155328356555e+01 -3.0946822438968170e+03 -2.3758451246831901e+05 +1.7449027564300980e+07 
-2.3500000000000001e+00 -5.7843923105996475e-01 +7.5967380455066307e+00 +5.7690240231033094e+00 -1.9268181890662170e+01 -3.1796490270828581e+03 -2.4506616413801874e+05 +1.7828848077529818e+07 
-2.3999999999999999e+00 -5.7845721655249649e-01 +7.5976446320835089e+00 +5.7543387039174823e+00 -1.7828522766445545e+01 -3.2673850623237863e+03 -2.5248148205349300e+05 +1.8222608190746158e+07 
-2.4500000000000002e+00 -5.7847555041006649e-01 +7.5985696136629848e+00 +5.7393952113886648e+00 -1.6397204767380050e+01 -3.3577032782628662e+03 -2.5982518358630847e+05 +1.8629367326972492e+07 
-2.5000000000000000e+00 -5.7849423043310877e-01 +7.5995128643015031e+00 +5.7241887115143673e+00 -1.4975254892938555e+01 -3.4504166041019853e+03 -2.6709198453649582e+05 +1.9048184901425600e+07 
-2.5499999999999998e+00 -5.7851325442197943e-01 +7.6004742580541542e+00 +5.7087143692066391e+00 -1.3563700056861885e+01 -3.5453379417594010e+03 -2.7427660145931231e+05 +1.9478120154791370e+07 
-2.6000000000000001e+00 -5.7853262017705320e-01 +7.6014536689741679e+00 +5.6929673509339400e+00 -1.2163567097015861e+01 -3.6422802308669734e+03 -2.8137375148242153e+05 +1.9918232564488374e+07 
-2.6499999999999999e+00 -5.7855232549878188e-01 +7.6024509711213542e+00 +5.6769428197929601e+00 -1.0775883095861998e+01 -3.7410563177252911e+03 -2.8837814979338198e+05 +2.0367580971634310e+07 
-2.7000000000000002e+00 -5.7857236818753965e-01 +7.6034660385519226e+00 +5.6606359434311742e+00 -9.4016749722146695e+00 -3.8414791723697531e+03 -2.9528451291563833e+05 +2.0825225055446409e+07 
-2.7500000000000000e+00 -5.7859274604379385e-01 +7.6044987453230020e+00 +5.6440418889695732e+00 -8.0419696662100506e+00 -3.9433617447905649e+03 -3.0208755724415148e+05 +2.1290224339833826e+07 
-2.7999999999999998e+00 -5.7861345686801158e-01 +7.6055489654942150e+00 +5.6271558216932069e+00 -6.6977942038917675e+00 -4.0465169352443659e+03 -3.0878199849066819e+05 +2.1761638013334025e+07 
-2.8500000000000001e+00 -5.7863449846058124e-01 +7.6066165731261206e+00 +5.6099729068067887e+00 -5.3701756465521839e+00 -4.1507576452925477e+03 -3.1536255203414295e+05 +2.2238525286238957e+07 
-2.8999999999999999e+00 -5.7865586862200991e-01 +7.6077014422765696e+00 +5.5924883125483014e+00 -4.0601409213257549e+00 -4.2558968448897276e+03 -3.2182393443039351e+05 +2.2719945783915345e+07 
-2.9500000000000002e+00 -5.7867756515276114e-01 +7.6088034470084569e+00 +5.5746972040511835e+00 -2.7687171453233606e+00 -4.3617474268206406e+03 -3.2816086071173596e+05 +2.3204958631373383e+07 
-3.0000000000000000e+00 -5.7869958585333325e-01 +7.6099224613811129e+00 +5.5565947503074113e+00 -1.4969312891199034e+00 -4.4681223839224303e+03 -3.3436804708058870e+05 +2.3692623621399269e+07 
-3.0499999999999998e+00 -5.7872192852418047e-01 +7.6110583594592853e+00 +5.5381761157500398e+00 -2.4581051140701077e-01 -4.5748345815030871e+03 -3.4044020829862618e+05 +2.4181999666577857e+07 
-3.1000000000000001e+00 -5.7874459096587216e-01 +7.6122110153039531e+00 +5.5194364692890563e+00 +9.8361816263408341e-01 -4.6816970050910359e+03 -3.4637206014670385e+05 +2.4672146489155184e+07 
-3.1499999999999999e+00 -5.7876757097890086e-01 +7.6133803029816427e+00 +5.5003709791808770e+00 +2.1903275247181724e+00 -4.7885226213134229e+03 -3.5215831702157494e+05 +2.5162123684359103e+07 
-3.2000000000000002e+00 -5.7879086636378196e-01 +7.6145660965538378e+00 +5.4809748111358276e+00 +3.3732905756033462e+00 -4.8951243212088420e+03 -3.5779369505229924e+05 +2.5650990308760438e+07 
-3.2500000000000000e+00 -5.7881447492102389e-01 +7.6157682700887825e+00 +5.4612431334218590e+00 +4.5314800323499655e+00 -5.0013150672152860e+03 -3.6327290798499068e+05 +2.6137805914314613e+07 
-3.2999999999999998e+00 -5.7883839445121710e-01 +7.6169866976515497e+00 +5.4411711171030950e+00 +5.6638687783155133e+00 -5.1069078890066839e+03 -3.6859067108331830e+05 +2.6621630476762254e+07 
-3.3500000000000001e+00 -5.7886262275491307e-01 +7.6182212533104074e+00 +5.4207539257914537e+00 +6.7694295616097921e+00 -5.2117156207349835e+03 -3.7374169845851621e+05 +2.7101522674332857e+07 
-3.3999999999999999e+00 -5.7888715763263665e-01 +7.6194718111334199e+00 +5.3999867306431328e+00 +7.8471351484324012e+00 -5.3155512865860383e+03 -3.7872070440869726e+05 +2.7576542417781066e+07 
-3.4500000000000002e+00 -5.7891199688497796e-01 +7.6207382451867156e+00 +5.3788646992843772e+00 +8.8959583937745279e+00 -5.4182278231721857e+03 -3.8352240399999823e+05 +2.8045749060141727e+07 
-3.5000000000000000e+00 -5.7893713831252880e-01 +7.6220204295430047e+00 +5.3573830025988105e+00 +9.9148718899507315e+00 -5.5195582435224860e+03 -3.8814151016826776e+05 +2.8508202426674508e+07 
-3.5499999999999998e+00 -5.7896257971586218e-01 +7.6233182382715938e+00 +5.3355368070146394e+00 +1.0902848394669149e+01 -5.6193554402560603e+03 -3.9257273731434863e+05 +2.8962961532199934e+07 
-3.6000000000000001e+00 -5.7898831889562352e-01 +7.6246315454426288e+00 +5.3133212860338315e+00 +1.1858860608253833e+01 -5.7174324969195704e+03 -3.9681079928883706e+05 +2.9409086682612754e+07 
-3.6499999999999999e+00 -5.7901435365230358e-01 +7.6259602251315490e+00 +5.2907316038212286e+00 +1.2781881053928803e+01 -5.8136022373451397e+03 -4.0085040863100102e+05 +2.9845636401815280e+07 
-3.6999999999999900e+00 -5.7904068178662216e-01 +7.6273041514091613e+00 +5.2677629347787471e+00 +1.3670882427689861e+01 -5.9076777635025337e+03 -4.0468627927673992e+05 +3.0271671104774587e+07 
-3.7499999999999898e+00 -5.7906730109916282e-01 +7.6286631983505542e+00 +5.2444104473868984e+00 +1.4524837262803981e+01 -5.9994720080084735e+03 -4.0831312387199426e+05 +3.0686250024917524e+07 
-3.7999999999999901e+00 -5.7909420939052692e-01 +7.6300372400290284e+00 +5.2206693121772876e+00 +1.5342718181237744e+01 -6.0887979573184621e+03 -4.1172565586881083e+05 +3.1088432757536627e+07 
-3.8499999999999899e+00 -5.7912140446140337e-01 +7.6314261505226479e+00 +5.1965346998977013e+00 +1.6123497606916345e+01 -6.1754686049200927e+03 -4.1491858712297812e+05 +3.1477278953346029e+07 
-3.8999999999999901e+00 -5.7914888411238807e-01 +7.6328298039079554e+00 +5.1720017828145588e+00 +1.6866148031409221e+01 -6.2592969745139890e+03 -4.1788663005780464e+05 +3.1851848427966297e+07 
-3.9499999999999900e+00 -5.7917664614416653e-01 +7.6342480742622287e+00 +5.1470657293442761e+00 +1.7569641917846305e+01 -6.3400959908366922e+03 -4.2062449692970444e+05 +3.2211200348557882e+07 
-3.9999999999999898e+00 -5.7920468835735739e-01 +7.6356808356623667e+00 +5.1217217135468864e+00 +1.8232951770660467e+01 -6.4176787165154901e+03 -4.2312690037996316e+05 +3.2554394770425428e+07 
-4.0499999999999901e+00 -5.7923300844970249e-01 +7.6371279472670501e+00 +5.0959671264709838e+00 +1.8855398991626270e+01 -6.4918953700944858e+03 -4.2539067057481810e+05 +3.2880677637734540e+07 
-4.0999999999999899e+00 -5.7926160370688118e-01 +7.6385892020989736e+00 +5.0698090133794489e+00 +1.9437662854585678e+01 -6.5627615952608048e+03 -4.2742080609577813e+05 +3.3190138423218474e+07 
-4.1499999999999897e+00 -5.7929047131135558e-01 +7.6400643750097688e+00 +5.0432570462387645e+00 +1.9980752124827418e+01 -6.6303383548910551e+03 -4.2922426868814160e+05 +3.3483100745926317e+07 
-4.1999999999999904e+00 -5.7931960844579888e-01 +7.6415532408502429e+00 +5.0163209041531998e+00 +2.0485675582566103e+01 -6.6946867994628064e+03 -4.3080802031433390e+05 +3.3759889484864101e+07 
-4.2499999999999902e+00 -5.7934901229271607e-01 +7.6430555744725108e+00 +4.9890102562279388e+00 +2.0953441942443796e+01 -6.7558678138092218e+03 -4.3217902236426482e+05 +3.4020827740095422e+07 
-4.2999999999999901e+00 -5.7937868003468729e-01 +7.6445711507271126e+00 +4.9613347797151883e+00 +2.1385059981605799e+01 -6.8139425022735613e+03 -4.3334423679170350e+05 +3.4266240097526282e+07 
-4.3499999999999899e+00 -5.7940860885427403e-01 +7.6460997444636094e+00 +4.9333041479872302e+00 +2.1781538491473007e+01 -6.8689718580816470e+03 -4.3431062561068486e+05 +3.4496450367070660e+07 
-4.3999999999999897e+00 -5.7943879593401604e-01 +7.6476411305345477e+00 +4.9049280359978118e+00 +2.2143886143141390e+01 -6.9210169264722626e+03 -4.3508514990159892e+05 +3.4711782750536390e+07 
-4.4499999999999904e+00 -5.7946923845652754e-01 +7.6491950837871263e+00 +4.8762161169032066e+00 +2.2473111801695161e+01 -6.9701387020834263e+03 -4.3567477231298864e+05 +3.4912561100203402e+07 
-4.4999999999999902e+00 -5.7949993360434660e-01 +7.6507613790724687e+00 +4.8471780648419740e+00 +2.2770224164523601e+01 -7.0163982025242221e+03 -4.3608645412776113e+05 +3.5099109413520515e+07 
-4.5499999999999901e+00 -5.7953087856000252e-01 +7.6523397912391555e+00 +4.8178235529341285e+00 +2.3036232027910160e+01 -7.0598564235420945e+03 -4.3632715747868101e+05 +3.5271751563212499e+07 
-4.5999999999999899e+00 -5.7956207050608699e-01 +7.6539300951348501e+00 +4.7881622555040035e+00 +2.3272144184309624e+01 -7.1005743916670090e+03 -4.3640384437853599e+05 +3.5430811623882294e+07 
-4.6499999999999897e+00 -5.7959350662516096e-01 +7.6555320656086332e+00 +4.7582038462657863e+00 +2.3478969378454700e+01 -7.1386131170313174e+03 -4.3632347655298148e+05 +3.5576613564543195e+07 
-4.6999999999999904e+00 -5.7962518409980723e-01 +7.6571454775090961e+00 +4.7279579981600799e+00 +2.3657716344098258e+01 -7.1740335900793089e+03 -4.3609301558251848e+05 +3.5709481228312261e+07 
-4.7499999999999902e+00 -5.7965710011253380e-01 +7.6587701056806035e+00 +4.6974343862067203e+00 +2.3809393979555619e+01 -7.2068968586038300e+03 -4.3571942443112622e+05 +3.5829738849562287e+07 
-4.7999999999999901e+00 -5.7968925184590636e-01 +7.6604057249741162e+00 +4.6666426809199413e+00 +2.3935010878256612e+01 -7.2372638493966579e+03 -4.3520966349588777e+05 +3.5937709852200605e+07 
-4.8499999999999899e+00 -5.7972163648245167e-01 +7.6620521102308095e+00 +4.6355925564389606e+00 +2.4035576039421432e+01 -7.2651955885515690e+03 -4.3457069661131658e+05 +3.6033718337383233e+07 
-4.8999999999999897e+00 -5.7975425120479773e-01 +7.6637090363014027e+00 +4.6042936848723111e+00 +2.4112098027151674e+01 -7.2907530452318142e+03 -4.3380948394925194e+05 +3.6118088020505346e+07 
-4.9499999999999904e+00 -5.7978709319538502e-01 +7.6653762780267698e+00 +4.5727557410350155e+00 +2.4165585808420015e+01 -7.3139972671882042e+03 -4.3293298904821783e+05 +3.6191143163659595e+07 
-4.9999999999999902e+00 -5.7982015963681632e-01 +7.6670536102530997e+00 +4.5409883936903546e+00 +2.4197048093740015e+01 -7.3349891363344977e+03 -4.3194817330148321e+05 +3.6253206909496717e+07 
-5.0499999999999901e+00 -5.7985344771404890e-01 +7.6687407993191465e+00 +4.5090017507559468e+00 +2.4207485462238580e+01 -7.3537897515898430e+03 -4.3086200194222631e+05 +3.6304604171677768e+07 
