# trajectory
# s[mm] rx[mm] ry[mm] rz[mm] px[rad] py[rad] pz[rad]
0.0000000000000000e+00 +8.5389999999999997e+00 +0.0000000000000000e+00 +0.0000000000000000e+00 +0.0000000000000000e+00 +0.0000000000000000e+00 +1.0000000000000000e+00
5.0000000000000003e-02 +8.5389999308113147e+00 +0.0000000000000000e+00 +4.9999999999936172e-02 -2.7675452594558741e-06 +0.0000000000000000e+00 +9.9999999999617040e-01
1.0000000000000001e-01 +8.5389997232456700e+00 +0.0000000000000000e+00 +9.9999999999489386e-02 -5.5350787109396202e-06 +0.0000000000000000e+00 +9.9999999998468148e-01
1.5000000000000002e-01 +8.5389993773036110e+00 +0.0000000000000000e+00 +1.4999999999827668e-01 -8.3026021521062460e-06 +0.0000000000000000e+00 +9.9999999996553346e-01
2.0000000000000001e-01 +8.5389988929855924e+00 +0.0000000000000000e+00 +1.9999999999591508e-01 -1.1070117375478122e-05 +0.0000000000000000e+00 +9.9999999993872635e-01
2.5000000000000000e-01 +8.5389982702919802e+00 +0.0000000000000000e+00 +2.4999999999202166e-01 -1.3837626168445074e-05 +0.0000000000000000e+00 +9.9999999990426014e-01
2.9999999999999999e-01 +8.5389975092230532e+00 +0.0000000000000000e+00 +2.9999999998621346e-01 -1.6605130313264453e-05 +0.0000000000000000e+00 +9.9999999986213495e-01
3.4999999999999998e-01 +8.5389966097789980e+00 +0.0000000000000000e+00 +3.4999999997810749e-01 -1.9372631587061232e-05 +0.0000000000000000e+00 +9.9999999981235066e-01
3.9999999999999997e-01 +8.5389955719599140e+00 +0.0000000000000000e+00 +3.9999999996732083e-01 -2.2140131761828087e-05 +0.0000000000000000e+00 +9.9999999975490739e-01
4.4999999999999996e-01 +8.5389943957658119e+00 +0.0000000000000000e+00 +4.4999999995347056e-01 -2.4907632604425475e-05 +0.0000000000000000e+00 +9.9999999968980502e-01
4.9999999999999994e-01 +8.5389930811966135e+00 +0.0000000000000000e+00 +4.9999999993617367e-01 -2.7675135876581723e-05 +0.0000000000000000e+00 +9.9999999961704356e-01
5.4999999999999993e-01 +8.5389916282521536e+00 +0.0000000000000000e+00 +5.4999999991504722e-01 -3.0442643334893107e-05 +0.0000000000000000e+00 +9.9999999953662289e-01
5.9999999999999998e-01 +8.5389900369321801e+00 +0.0000000000000000e+00 +5.9999999988970831e-01 -3.3210156730823932e-05 +0.0000000000000000e+00 +9.9999999944854290e-01
6.5000000000000002e-01 +8.5389883072363517e+00 +0.0000000000000000e+00 +6.4999999985977386e-01 -3.5977677810706628e-05 +0.0000000000000000e+00 +9.9999999935280348e-01
7.0000000000000007e-01 +8.5389864391642423e+00 +0.0000000000000000e+00 +6.9999999982486094e-01 -3.8745208315741809e-05 +0.0000000000000000e+00 +9.9999999924940453e-01
7.5000000000000011e-01 +8.5389844327153348e+00 +0.0000000000000000e+00 +7.4999999978458665e-01 -4.1512749981998371e-05 +0.0000000000000000e+00 +9.9999999913834592e-01
8.0000000000000016e-01 +8.5389822878890289e+00 +0.0000000000000000e+00 +7.9999999973856784e-01 -4.4280304540413567e-05 +0.0000000000000000e+00 +9.9999999901962744e-01
8.5000000000000020e-01 +8.5389800046846371e+00 +0.0000000000000000e+00 +8.4999999968642170e-01 -4.7047873716793094e-05 +0.0000000000000000e+00 +9.9999999889324886e-01
9.0000000000000024e-01 +8.5389775831013850e+00 +0.0000000000000000e+00 +8.9999999962776511e-01 -4.9815459231811158e-05 +0.0000000000000000e+00 +9.9999999875921008e-01
9.5000000000000029e-01 +8.5389750231384127e+00 +0.0000000000000000e+00 +9.4999999956221504e-01 -5.2583062801010568e-05 +0.0000000000000000e+00 +9.9999999861751088e-01
1.0000000000000002e+00 +8.5389723247947753e+00 +0.0000000000000000e+00 +9.9999999948938845e-01 -5.5350686134802820e-05 +0.0000000000000000e+00 +9.9999999846815091e-01
1.0500000000000003e+00 +8.5389694880694407e+00 +0.0000000000000000e+00 +1.0499999994089024e+00 -5.8118330938468159e-05 +0.0000000000000000e+00 +9.9999999831112996e-01
1.1000000000000003e+00 +8.5389665129612951e+00 +0.0000000000000000e+00 +1.0999999993203737e+00 -6.0885998912155667e-05 +0.0000000000000000e+00 +9.9999999814644769e-01
1.1500000000000004e+00 +8.5389633994691359e+00 +0.0000000000000000e+00 +1.1499999992234196e+00 -6.3653691750883350e-05 +0.0000000000000000e+00 +9.9999999797410388e-01
1.2000000000000004e+00 +8.5389601475916770e+00 +0.0000000000000000e+00 +1.1999999991176564e+00 -6.6421411144538194e-05 +0.0000000000000000e+00 +9.9999999779409821e-01
1.2500000000000004e+00 +8.5389567573275507e+00 +0.0000000000000000e+00 +1.2499999990027015e+00 -6.9189158777876282e-05 +0.0000000000000000e+00 +9.9999999760643032e-01
1.3000000000000005e+00 +8.5389532286753003e+00 +0.0000000000000000e+00 +1.2999999988781716e+00 -7.1956936330522814e-05 +0.0000000000000000e+00 +9.9999999741109979e-01
1.3500000000000005e+00 +8.5389495616333910e+00 +0.0000000000000000e+00 +1.3499999987436837e+00 -7.4724745476972251e-05 +0.0000000000000000e+00 +9.9999999720810639e-01
1.4000000000000006e+00 +8.5389457562001994e+00 +0.0000000000000000e+00 +1.3999999985988545e+00 -7.7492587886588337e-05 +0.0000000000000000e+00 +9.9999999699744957e-01
1.4500000000000006e+00 +8.5389418123740199e+00 +0.0000000000000000e+00 +1.4499999984433010e+00 -8.0260465223604195e-05 +0.0000000000000000e+00 +9.9999999677912899e-01
1.5000000000000007e+00 +8.5389377301530658e+00 +0.0000000000000000e+00 +1.4999999982766397e+00 -8.3028379147122422e-05 +0.0000000000000000e+00 +9.9999999655314420e-01
1.5500000000000007e+00 +8.5389335095354664e+00 +0.0000000000000000e+00 +1.5499999980984875e+00 -8.5796331311115129e-05 +0.0000000000000000e+00 +9.9999999631949488e-01
1.6000000000000008e+00 +8.5389291505192695e+00 +0.0000000000000000e+00 +1.5999999979084614e+00 -8.8564323364424052e-05 +0.0000000000000000e+00 +9.9999999607818046e-01
1.6500000000000008e+00 +8.5389246531024376e+00 +0.0000000000000000e+00 +1.6499999977061779e+00 -9.1332356950760615e-05 +0.0000000000000000e+00 +9.9999999582920041e-01
1.7000000000000008e+00 +8.5389200172828552e+00 +0.0000000000000000e+00 +1.6999999974912536e+00 -9.4100433708705990e-05 +0.0000000000000000e+00 +9.9999999557255426e-01
1.7500000000000009e+00 +8.5389152430583213e+00 +0.0000000000000000e+00 +1.7499999972633056e+00 -9.6868555271711188e-05 +0.0000000000000000e+00 +9.9999999530824157e-01
1.8000000000000009e+00 +8.5389103304265550e+00 +0.0000000000000000e+00 +1.7999999970219500e+00 -9.9636723268097126e-05 +0.0000000000000000e+00 +9.9999999503626180e-01
1.8500000000000010e+00 +8.5389052793851938e+00 +0.0000000000000000e+00 +1.8499999967668039e+00 -1.0240493932105471e-04 +0.0000000000000000e+00 +9.9999999475661427e-01
1.9000000000000010e+00 +8.5389000899317953e+00 +0.0000000000000000e+00 +1.8999999964974836e+00 -1.0517320504864490e-04 +0.0000000000000000e+00 +9.9999999446929855e-01
1.9500000000000011e+00 +8.5388947620638351e+00 +0.0000000000000000e+00 +1.9499999962136059e+00 -1.0794152206379878e-04 +0.0000000000000000e+00 +9.9999999417431396e-01
2.0000000000000009e+00 +8.5388892957787075e+00 +0.0000000000000000e+00 +1.9999999959147872e+00 -1.1070989197431766e-04 +0.0000000000000000e+00 +9.9999999387165994e-01
2.0500000000000007e+00 +8.5388836910737282e+00 +0.0000000000000000e+00 +2.0499999956006438e+00 -1.1347831638273177e-04 +0.0000000000000000e+00 +9.9999999356133584e-01
2.1000000000000005e+00 +8.5388779479461334e+00 +0.0000000000000000e+00 +2.0999999952707928e+00 -1.1624679688474546e-04 +0.0000000000000000e+00 +9.9999999324334110e-01
2.1500000000000004e+00 +8.5388720663930791e+00 +0.0000000000000000e+00 +2.1499999949248503e+00 -1.1901533506768247e-04 +0.0000000000000000e+00 +9.9999999291767505e-01
2.2000000000000002e+00 +8.5388660464116395e+00 +0.0000000000000000e+00 +2.1999999945624324e+00 -1.2178393251034461e-04 +0.0000000000000000e+00 +9.9999999258433692e-01
2.2500000000000000e+00 +8.5388598879988145e+00 +0.0000000000000000e+00 +2.2499999941831561e+00 -1.2455259078301178e-04 +0.0000000000000000e+00 +9.9999999224332614e-01
2.2999999999999998e+00 +8.5388535911515220e+00 +0.0000000000000000e+00 +2.2999999937866371e+00 -1.2732131144744206e-04 +0.0000000000000000e+00 +9.9999999189464195e-01
2.3499999999999996e+00 +8.5388471558666037e+00 +0.0000000000000000e+00 +2.3499999933724922e+00 -1.3009009605687179e-04 +0.0000000000000000e+00 +9.9999999153828356e-01
2.3999999999999995e+00 +8.5388405821408249e+00 +0.0000000000000000e+00 +2.3999999929403377e+00 -1.3285894615601551e-04 +0.0000000000000000e+00 +9.9999999117425031e-01
2.4499999999999993e+00 +8.5388338699708708e+00 +0.0000000000000000e+00 +2.4499999924897895e+00 -1.3562786328106613e-04 +0.0000000000000000e+00 +9.9999999080254143e-01
2.4999999999999991e+00 +8.5388270193533540e+00 +0.0000000000000000e+00 +2.4999999920204639e+00 -1.3839684895969494e-04 +0.0000000000000000e+00 +9.9999999042315613e-01
2.5499999999999989e+00 +8.5388200302848070e+00 +0.0000000000000000e+00 +2.5499999915319771e+00 -1.4116590471105161e-04 +0.0000000000000000e+00 +9.9999999003609374e-01
2.5999999999999988e+00 +8.5388129027616895e+00 +0.0000000000000000e+00 +2.5999999910239451e+00 -1.4393503204576425e-04 +0.0000000000000000e+00 +9.9999998964135339e-01
2.6499999999999986e+00 +8.5388056367803848e+00 +0.0000000000000000e+00 +2.6499999904959841e+00 -1.4670423246593951e-04 +0.0000000000000000e+00 +9.9999998923893418e-01
2.6999999999999984e+00 +8.5387982323372000e+00 +0.0000000000000000e+00 +2.6999999899477105e+00 -1.4947350746516257e-04 +0.0000000000000000e+00 +9.9999998882883534e-01
2.7499999999999982e+00 +8.5387906894283709e+00 +0.0000000000000000e+00 +2.7499999893787397e+00 -1.5224285852849715e-04 +0.0000000000000000e+00 +9.9999998841105608e-01
2.7999999999999980e+00 +8.5387830080500553e+00 +0.0000000000000000e+00 +2.7999999887886879e+00 -1.5501228713248565e-04 +0.0000000000000000e+00 +9.9999998798559553e-01
2.8499999999999979e+00 +8.5387751881983398e+00 +0.0000000000000000e+00 +2.8499999881771712e+00 -1.5778179474514910e-04 +0.0000000000000000e+00 +9.9999998755245267e-01
2.8999999999999977e+00 +8.5387672298692383e+00 +0.0000000000000000e+00 +2.8999999875438052e+00 -1.6055138282598723e-04 +0.0000000000000000e+00 +9.9999998711162674e-01
2.9499999999999975e+00 +8.5387591330586918e+00 +0.0000000000000000e+00 +2.9499999868882059e+00 -1.6332105282597850e-04 +0.0000000000000000e+00 +9.9999998666311685e-01
2.9999999999999973e+00 +8.5387508977625668e+00 +0.0000000000000000e+00 +2.9999999862099886e+00 -1.6609080618758010e-04 +0.0000000000000000e+00 +9.9999998620692199e-01
3.0499999999999972e+00 +8.5387425239766603e+00 +0.0000000000000000e+00 +3.0499999855087698e+00 -1.6886064434472808e-04 +0.0000000000000000e+00 +9.9999998574304128e-01
3.0999999999999970e+00 +8.5387340116966950e+00 +0.0000000000000000e+00 +3.0999999847841648e+00 -1.7163056872283725e-04 +0.0000000000000000e+00 +9.9999998527147382e-01
3.1499999999999968e+00 +8.5387253609183258e+00 +0.0000000000000000e+00 +3.1499999840357891e+00 -1.7440058073880132e-04 +0.0000000000000000e+00 +9.9999998479221863e-01
3.1999999999999966e+00 +8.5387165716371367e+00 +0.0000000000000000e+00 +3.1999999832632584e+00 -1.7717068180099287e-04 +0.0000000000000000e+00 +9.9999998430527470e-01
3.2499999999999964e+00 +8.5387076438486389e+00 +0.0000000000000000e+00 +3.2499999824661883e+00 -1.7994087330926341e-04 +0.0000000000000000e+00 +9.9999998381064104e-01
3.2999999999999963e+00 +8.5386985775482760e+00 +0.0000000000000000e+00 +3.2999999816441941e+00 -1.8271115665494336e-04 +0.0000000000000000e+00 +9.9999998330831663e-01
3.3499999999999961e+00 +8.5386893727314206e+00 +0.0000000000000000e+00 +3.3499999807968917e+00 -1.8548153322084214e-04 +0.0000000000000000e+00 +9.9999998279830038e-01
3.3999999999999959e+00 +8.5386800293933778e+00 +0.0000000000000000e+00 +3.3999999799238960e+00 -1.8825200438124813e-04 +0.0000000000000000e+00 +9.9999998228059139e-01
3.4499999999999957e+00 +8.5386705475293834e+00 +0.0000000000000000e+00 +3.4499999790248226e+00 -1.9102257150192871e-04 +0.0000000000000000e+00 +9.9999998175518856e-01
3.4999999999999956e+00 +8.5386609271346057e+00 +0.0000000000000000e+00 +3.4999999780992868e+00 -1.9379323594013030e-04 +0.0000000000000000e+00 +9.9999998122209077e-01
3.5499999999999954e+00 +8.5386511682041455e+00 +0.0000000000000000e+00 +3.5499999771469035e+00 -1.9656399904457837e-04 +0.0000000000000000e+00 +9.9999998068129703e-01
3.5999999999999952e+00 +8.5386412707330344e+00 +0.0000000000000000e+00 +3.5999999761672883e+00 -1.9933486215547748e-04 +0.0000000000000000e+00 +9.9999998013280622e-01
3.6499999999999950e+00 +8.5386312347162399e+00 +0.0000000000000000e+00 +3.6499999751600560e+00 -2.0210582660451124e-04 +0.0000000000000000e+00 +9.9999997957661724e-01
3.6999999999999948e+00 +8.5386210601486621e+00 +0.0000000000000000e+00 +3.6999999741248217e+00 -2.0487689371484236e-04 +0.0000000000000000e+00 +9.9999997901272897e-01
3.7499999999999947e+00 +8.5386107470251353e+00 +0.0000000000000000e+00 +3.7499999730612004e+00 -2.0764806480111269e-04 +0.0000000000000000e+00 +9.9999997844114030e-01
3.7999999999999945e+00 +8.5386002953404283e+00 +0.0000000000000000e+00 +3.7999999719688073e+00 -2.1041934116944319e-04 +0.0000000000000000e+00 +9.9999997786185013e-01
3.8499999999999943e+00 +8.5385897050892421e+00 +0.0000000000000000e+00 +3.8499999708472572e+00 -2.1319072411743397e-04 +0.0000000000000000e+00 +9.9999997727485723e-01
3.8999999999999941e+00 +8.5385789762662174e+00 +0.0000000000000000e+00 +3.8999999696961649e+00 -2.1596221493416423e-04 +0.0000000000000000e+00 +9.9999997668016050e-01
3.9499999999999940e+00 +8.5385681088659293e+00 +0.0000000000000000e+00 +3.9499999685151450e+00 -2.1873381490019242e-04 +0.0000000000000000e+00 +9.9999997607775870e-01
3.9999999999999938e+00 +8.5385571028828871e+00 +0.0000000000000000e+00 +3.9999999673038125e+00 -2.2150552528755609e-04 +0.0000000000000000e+00 +9.9999997546765074e-01
4.0499999999999936e+00 +8.5385459583115395e+00 +0.0000000000000000e+00 +4.0499999660617814e+00 -2.2427734735961966e-04 +0.0000000000000000e+00 +9.9999997484983527e-01
4.0999999999999934e+00 +8.5385346751462698e+00 +0.0000000000000000e+00 +4.0999999647886671e+00 -2.2704928236939886e-04 +0.0000000000000000e+00 +9.9999997422431119e-01
4.1499999999999932e+00 +8.5385232533814008e+00 +0.0000000000000000e+00 +4.1499999634840838e+00 -2.2982133155788519e-04 +0.0000000000000000e+00 +9.9999997359107728e-01
4.1999999999999931e+00 +8.5385116930111913e+00 +0.0000000000000000e+00 +4.1999999621476460e+00 -2.3259349615389362e-04 +0.0000000000000000e+00 +9.9999997295013221e-01
4.2499999999999929e+00 +8.5384999940298414e+00 +0.0000000000000000e+00 +4.2499999607789682e+00 -2.3536577737406263e-04 +0.0000000000000000e+00 +9.9999997230147486e-01
4.2999999999999927e+00 +8.5384881564314892e+00 +0.0000000000000000e+00 +4.2999999593776650e+00 -2.3813817642285418e-04 +0.0000000000000000e+00 +9.9999997164510390e-01
4.3499999999999925e+00 +8.5384761802102140e+00 +0.0000000000000000e+00 +4.3499999579433499e+00 -2.4091069449255368e-04 +0.0000000000000000e+00 +9.9999997098101800e-01
4.3999999999999924e+00 +8.5384640653600368e+00 +0.0000000000000000e+00 +4.3999999564756376e+00 -2.4368333276327008e-04 +0.0000000000000000e+00 +9.9999997030921606e-01
4.4499999999999922e+00 +8.5384518118749160e+00 +0.0000000000000000e+00 +4.4499999549741425e+00 -2.4645609240293588e-04 +0.0000000000000000e+00 +9.9999996962969662e-01
4.4999999999999920e+00 +8.5384394197487552e+00 +0.0000000000000000e+00 +4.4999999534384783e+00 -2.4922897456730700e-04 +0.0000000000000000e+00 +9.9999996894245846e-01
4.5499999999999918e+00 +8.5384268889753994e+00 +0.0000000000000000e+00 +4.5499999518682595e+00 -2.5200198039996294e-04 +0.0000000000000000e+00 +9.9999996824750026e-01
4.5999999999999917e+00 +8.5384142195486366e+00 +0.0000000000000000e+00 +4.5999999502630997e+00 -2.5477511103230677e-04 +0.0000000000000000e+00 +9.9999996754482068e-01
4.6499999999999915e+00 +8.5384014114621980e+00 +0.0000000000000000e+00 +4.6499999486226127e+00 -2.5754836758356501e-04 +0.0000000000000000e+00 +9.9999996683441839e-01
4.6999999999999913e+00 +8.5383884647097616e+00 +0.0000000000000000e+00 +4.6999999469464129e+00 -2.6032175116078769e-04 +0.0000000000000000e+00 +9.9999996611629216e-01
4.7499999999999911e+00 +8.5383753792849468e+00 +0.0000000000000000e+00 +4.7499999452341131e+00 -2.6309526285884849e-04 +0.0000000000000000e+00 +9.9999996539044056e-01
4.7999999999999909e+00 +8.5383621551813214e+00 +0.0000000000000000e+00 +4.7999999434853278e+00 -2.6586890376044446e-04 +0.0000000000000000e+00 +9.9999996465686225e-01
4.8499999999999908e+00 +8.5383487923923997e+00 +0.0000000000000000e+00 +4.8499999416996706e+00 -2.6864267493609630e-04 +0.0000000000000000e+00 +9.9999996391555579e-01
4.8999999999999906e+00 +8.5383352909116397e+00 +0.0000000000000000e+00 +4.8999999398767544e+00 -2.7141657744414818e-04 +0.0000000000000000e+00 +9.9999996316651996e-01
4.9499999999999904e+00 +8.5383216507324491e+00 +0.0000000000000000e+00 +4.9499999380161936e+00 -2.7419061233076780e-04 +0.0000000000000000e+00 +9.9999996240975320e-01
4.9999999999999902e+00 +8.5383078718481826e+00 +0.0000000000000000e+00 +4.9999999361176011e+00 -2.7696478062994636e-04 +0.0000000000000000e+00 +9.9999996164525429e-01
5.0499999999999901e+00 +8.5382939542521452e+00 +0.0000000000000000e+00 +5.0499999341805903e+00 -2.7973908336349854e-04 +0.0000000000000000e+00 +9.9999996087302168e-01
5.0999999999999899e+00 +8.5382798979375885e+00 +0.0000000000000000e+00 +5.0999999322047742e+00 -2.8251352154106259e-04 +0.0000000000000000e+00 +9.9999996009305414e-01
5.1499999999999897e+00 +8.5382657028977160e+00 +0.0000000000000000e+00 +5.1499999301897663e+00 -2.8528809616010020e-04 +0.0000000000000000e+00 +9.9999995930535013e-01
5.1999999999999895e+00 +8.5382513691256818e+00 +0.0000000000000000e+00 +5.1999999281351803e+00 -2.8806280820589658e-04 +0.0000000000000000e+00 +9.9999995850990830e-01
5.2499999999999893e+00 +8.5382368966145883e+00 +0.0000000000000000e+00 +5.2499999260406280e+00 -2.9083765865156038e-04 +0.0000000000000000e+00 +9.9999995770672712e-01
5.2999999999999892e+00 +8.5382222853574934e+00 +0.0000000000000000e+00 +5.2999999239057232e+00 -2.9361264845802372e-04 +0.0000000000000000e+00 +9.9999995689580523e-01
5.3499999999999890e+00 +8.5382075353474036e+00 +0.0000000000000000e+00 +5.3499999217300793e+00 -2.9638777857404221e-04 +0.0000000000000000e+00 +9.9999995607714121e-01
5.3999999999999888e+00 +8.5381926465772811e+00 +0.0000000000000000e+00 +5.3999999195133084e+00 -2.9916304993619480e-04 +0.0000000000000000e+00 +9.9999995525073360e-01
5.4499999999999886e+00 +8.5381776190400398e+00 +0.0000000000000000e+00 +5.4499999172550231e+00 -3.0193846346888395e-04 +0.0000000000000000e+00 +9.9999995441658096e-01
5.4999999999999885e+00 +8.5381624527285496e+00 +0.0000000000000000e+00 +5.4999999149548371e+00 -3.0471402008433549e-04 +0.0000000000000000e+00 +9.9999995357468174e-01
5.5499999999999883e+00 +8.5381471476356321e+00 +0.0000000000000000e+00 +5.5499999126123623e+00 -3.0748972068259865e-04 +0.0000000000000000e+00 +9.9999995272503461e-01
5.5999999999999881e+00 +8.5381317037540665e+00 +0.0000000000000000e+00 +5.5999999102272113e+00 -3.1026556615154600e-04 +0.0000000000000000e+00 +9.9999995186763802e-01
5.6499999999999879e+00 +8.5381161210765875e+00 +0.0000000000000000e+00 +5.6499999077989971e+00 -3.1304155736687353e-04 +0.0000000000000000e+00 +9.9999995100249039e-01
5.6999999999999877e+00 +8.5381003995958853e+00 +0.0000000000000000e+00 +5.6999999053273314e+00 -3.1581769519210048e-04 +0.0000000000000000e+00 +9.9999995012959042e-01
5.7499999999999876e+00 +8.5380845393046094e+00 +0.0000000000000000e+00 +5.7499999028118269e+00 -3.1859398047856947e-04 +0.0000000000000000e+00 +9.9999994924893643e-01
5.7999999999999874e+00 +8.5380685401953649e+00 +0.0000000000000000e+00 +5.7999999002520957e+00 -3.2137041406544639e-04 +0.0000000000000000e+00 +9.9999994836052708e-01
5.8499999999999872e+00 +8.5380524022607176e+00 +0.0000000000000000e+00 +5.8499998976477503e+00 -3.2414699677972038e-04 +0.0000000000000000e+00 +9.9999994746436083e-01
5.8999999999999870e+00 +8.5380361254931891e+00 +0.0000000000000000e+00 +5.8999998949984027e+00 -3.2692372943620389e-04 +0.0000000000000000e+00 +9.9999994656043611e-01
