# field on trajectory
# s[mm] rx[mm] ry[mm] rz[mm] bx[T] by[T] bz[T]
0.0000000000000000e+00 +8.5269999999999992e+00 +0.0000000000000000e+00 +0.0000000000000000e+00 -2.8474290930837514e-02 -5.5369973333397438e-01 +5.8142417119880314e-03
-5.0000000000000003e-02 +8.5269999309232034e+00 +0.0000000000000000e+00 -4.9999999999936373e-02 -2.8474549342503500e-02 -5.5369819589354796e-01 +5.8142189574624699e-03
-1.0000000000000001e-01 +8.5269997236930575e+00 +0.0000000000000000e+00 -9.9999999999491024e-02 -2.8474829631485090e-02 -5.5369702824533340e-01 +5.8141946918587204e-03
-1.5000000000000002e-01 +8.5269993783098528e+00 +0.0000000000000000e+00 -1.4999999999828223e-01 -2.8475131751082100e-02 -5.5369622985146882e-01 +5.8141689223404338e-03
-2.0000000000000001e-01 +8.5269988947737883e+00 +0.0000000000000000e+00 -1.9999999999592824e-01 -2.8475455654595465e-02 -5.5369580017410835e-01 +5.8141416560711021e-03
-2.5000000000000000e-01 +8.5269982730849723e+00 +0.0000000000000000e+00 -2.4999999999204736e-01 -2.8475801295327216e-02 -5.5369573867542132e-01 +5.8141129002140489e-03
-2.9999999999999999e-01 +8.5269975132434190e+00 +0.0000000000000000e+00 -2.9999999998625787e-01 -2.8476168626580450e-02 -5.5369604481759227e-01 +5.8140826619324472e-03
-3.4999999999999998e-01 +8.5269966152490522e+00 +0.0000000000000000e+00 -3.4999999997817804e-01 -2.8476557601659333e-02 -5.5369671806282161e-01 +5.8140509483892910e-03
-3.9999999999999997e-01 +8.5269955791017047e+00 +0.0000000000000000e+00 -3.9999999996742613e-01 -2.8476968173869108e-02 -5.5369775787332443e-01 +5.8140177667474263e-03
-4.4999999999999996e-01 +8.5269944048011173e+00 +0.0000000000000000e+00 -4.4999999995362039e-01 -2.8477400296516086e-02 -5.5369916371133243e-01 +5.8139831241695314e-03
-4.9999999999999994e-01 +8.5269930923469381e+00 +0.0000000000000000e+00 -4.9999999993637911e-01 -2.8477853922907626e-02 -5.5370093503909223e-01 +5.8139470278181183e-03
-5.4999999999999993e-01 +8.5269916417387250e+00 +0.0000000000000000e+00 -5.4999999991532056e-01 -2.8478329006352138e-02 -5.5370307131886565e-01 +5.8139094848555419e-03
-5.9999999999999998e-01 +8.5269900529759450e+00 +0.0000000000000000e+00 -5.9999999989006303e-01 -2.8478825500159066e-02 -5.5370557201293069e-01 +5.8138705024439949e-03
-6.5000000000000002e-01 +8.5269883260579746e+00 +0.0000000000000000e+00 -6.4999999986022461e-01 -2.8479343357638898e-02 -5.5370843658358027e-01 +5.8138300877454982e-03
-7.0000000000000007e-01 +8.5269864609840997e+00 +0.0000000000000000e+00 -6.9999999982542371e-01 -2.8479882532103113e-02 -5.5371166449312303e-01 +5.8137882479219168e-03
-7.5000000000000011e-01 +8.5269844577535139e+00 +0.0000000000000000e+00 -7.4999999978527843e-01 -2.8480442976864279e-02 -5.5371525520388343e-01 +5.8137449901349532e-03
-8.0000000000000016e-01 +8.5269823163653218e+00 +0.0000000000000000e+00 -7.9999999973940705e-01 -2.8481024645235914e-02 -5.5371920817820086e-01 +5.8137003215461419e-03
-8.5000000000000020e-01 +8.5269800368185376e+00 +0.0000000000000000e+00 -8.4999999968742779e-01 -2.8481627490532541e-02 -5.5372352287842985e-01 +5.8136542493168498e-03
-9.0000000000000024e-01 +8.5269776191120847e+00 +0.0000000000000000e+00 -8.9999999962895882e-01 -2.8482251466069752e-02 -5.5372819876694224e-01 +5.8136067806082940e-03
-9.5000000000000029e-01 +8.5269750632447963e+00 +0.0000000000000000e+00 -9.4999999956361836e-01 -2.8482896525164062e-02 -5.5373323530612384e-01 +5.8135579225815125e-03
-1.0000000000000002e+00 +8.5269723692154145e+00 +0.0000000000000000e+00 -9.9999999949102447e-01 -2.8483562621132986e-02 -5.5373863195837558e-01 +5.8135076823973850e-03
-1.0500000000000003e+00 +8.5269695370225946e+00 +0.0000000000000000e+00 -1.0499999994107954e+00 -2.8484249707295038e-02 -5.5374438818611582e-01 +5.8134560672166288e-03
-1.1000000000000003e+00 +8.5269665666648997e+00 +0.0000000000000000e+00 -1.0999999993225491e+00 -2.8484957736969675e-02 -5.5375050345177601e-01 +5.8134030841997895e-03
-1.1500000000000004e+00 +8.5269634581408038e+00 +0.0000000000000000e+00 -1.1499999992259040e+00 -2.8485686663477332e-02 -5.5375697721780526e-01 +5.8133487405072582e-03
-1.2000000000000004e+00 +8.5269602114486904e+00 +0.0000000000000000e+00 -1.1999999991204779e+00 -2.8486436440139401e-02 -5.5376380894666699e-01 +5.8132930432992502e-03
-1.2500000000000004e+00 +8.5269568265868578e+00 +0.0000000000000000e+00 -1.2499999990058892e+00 -2.8487207020278245e-02 -5.5377099810084063e-01 +5.8132359997358218e-03
-1.3000000000000005e+00 +8.5269533035535101e+00 +0.0000000000000000e+00 -1.2999999988817557e+00 -2.8487998357217114e-02 -5.5377854414282057e-01 +5.8131776169768621e-03
-1.3500000000000005e+00 +8.5269496423467643e+00 +0.0000000000000000e+00 -1.3499999987476954e+00 -2.8488810404280258e-02 -5.5378644653511744e-01 +5.8131179021820960e-03
-1.4000000000000006e+00 +8.5269458429646505e+00 +0.0000000000000000e+00 -1.3999999986033265e+00 -2.8489643114792823e-02 -5.5379470474025705e-01 +5.8130568625110813e-03
-1.4500000000000006e+00 +8.5269419054051081e+00 +0.0000000000000000e+00 -1.4499999984482668e+00 -2.8490496442080876e-02 -5.5380331822078066e-01 +5.8129945051232125e-03
-1.5000000000000007e+00 +8.5269378296659859e+00 +0.0000000000000000e+00 -1.4999999982821344e+00 -2.8491370339471401e-02 -5.5381228643924518e-01 +5.8129308371777091e-03
-1.5500000000000007e+00 +8.5269336157450475e+00 +0.0000000000000000e+00 -1.5499999981045471e+00 -2.8492264760292305e-02 -5.5382160885822296e-01 +5.8128658658336361e-03
-1.6000000000000008e+00 +8.5269292636399676e+00 +0.0000000000000000e+00 -1.5999999979151232e+00 -2.8493179657872392e-02 -5.5383128494030187e-01 +5.8127995982498867e-03
-1.6500000000000008e+00 +8.5269247733483322e+00 +0.0000000000000000e+00 -1.6499999977134800e+00 -2.8494114985541358e-02 -5.5384131414808591e-01 +5.8127320415851868e-03
-1.7000000000000008e+00 +8.5269201448676366e+00 +0.0000000000000000e+00 -1.6999999974992359e+00 -2.8495070696629762e-02 -5.5385169594419337e-01 +5.8126632029980915e-03
-1.7500000000000009e+00 +8.5269153781952927e+00 +0.0000000000000000e+00 -1.7499999972720084e+00 -2.8496046744469091e-02 -5.5386242979125944e-01 +5.8125930896470029e-03
-1.8000000000000009e+00 +8.5269104733286216e+00 +0.0000000000000000e+00 -1.7999999970314153e+00 -2.8497043082391680e-02 -5.5387351515193395e-01 +5.8125217086901371e-03
-1.8500000000000010e+00 +8.5269054302648577e+00 +0.0000000000000000e+00 -1.8499999967770746e+00 -2.8498059663730736e-02 -5.5388495148888228e-01 +5.8124490672855616e-03
-1.9000000000000010e+00 +8.5269002490011481e+00 +0.0000000000000000e+00 -1.8999999965086039e+00 -2.8499096441820311e-02 -5.5389673826478603e-01 +5.8123751725911591e-03
-1.9500000000000011e+00 +8.5268949295345511e+00 +0.0000000000000000e+00 -1.9499999962256207e+00 -2.8500153369995330e-02 -5.5390887494234209e-01 +5.8123000317646606e-03
-2.0000000000000009e+00 +8.5268894718620381e+00 +0.0000000000000000e+00 -1.9999999959277428e+00 -2.8501230401591561e-02 -5.5392136098426248e-01 +5.8122236519636142e-03
-2.0500000000000007e+00 +8.5268838759804950e+00 +0.0000000000000000e+00 -2.0499999956145878e+00 -2.8502327464649022e-02 -5.5393419565516122e-01 +5.8121460443382204e-03
-2.1000000000000005e+00 +8.5268781418867174e+00 +0.0000000000000000e+00 -2.0999999952857737e+00 -2.8503444386022078e-02 -5.5394737742721134e-01 +5.8120672360097731e-03
-2.1500000000000004e+00 +8.5268722695774191e+00 +0.0000000000000000e+00 -2.1499999949409179e+00 -2.8504580967269200e-02 -5.5396090457448477e-01 +5.8119872580923706e-03
-2.2000000000000002e+00 +8.5268662590492230e+00 +0.0000000000000000e+00 -2.1999999945796374e+00 -2.8505737009949465e-02 -5.5397477537106765e-01 +5.8119061417000956e-03
-2.2500000000000000e+00 +8.5268601102986690e+00 +0.0000000000000000e+00 -2.2499999942015503e+00 -2.8506912315622593e-02 -5.5398898809105945e-01 +5.8118239179470524e-03
-2.2999999999999998e+00 +8.5268538233222113e+00 +0.0000000000000000e+00 -2.2999999938062738e+00 -2.8508106685848897e-02 -5.5400354100857263e-01 +5.8117406179473653e-03
-2.3499999999999996e+00 +8.5268473981162174e+00 +0.0000000000000000e+00 -2.3499999933934252e+00 -2.8509319922189257e-02 -5.5401843239773285e-01 +5.8116562728151820e-03
-2.3999999999999995e+00 +8.5268408346769728e+00 +0.0000000000000000e+00 -2.3999999929626221e+00 -2.8510551826205190e-02 -5.5403366053267833e-01 +5.8115709136647006e-03
-2.4499999999999993e+00 +8.5268341330006798e+00 +0.0000000000000000e+00 -2.4499999925134817e+00 -2.8511802199458681e-02 -5.5404922368756115e-01 +5.8114845716101503e-03
-2.4999999999999991e+00 +8.5268272930834534e+00 +0.0000000000000000e+00 -2.4999999920456211e+00 -2.8513070843512314e-02 -5.5406512013654530e-01 +5.8113972777658314e-03
-2.5499999999999989e+00 +8.5268203149213271e+00 +0.0000000000000000e+00 -2.5499999915586575e+00 -2.8514357559929166e-02 -5.5408134815380750e-01 +5.8113090632461077e-03
-2.5999999999999988e+00 +8.5268131985102524e+00 +0.0000000000000000e+00 -2.5999999910522087e+00 -2.8515662150272826e-02 -5.5409790601353748e-01 +5.8112199591654166e-03
-2.6499999999999986e+00 +8.5268059438460977e+00 +0.0000000000000000e+00 -2.6499999905258913e+00 -2.8516984416107356e-02 -5.5411479198993696e-01 +5.8111299966382814e-03
-2.6999999999999984e+00 +8.5267985509246511e+00 +0.0000000000000000e+00 -2.6999999899793226e+00 -2.8518324158997299e-02 -5.5413200435722010e-01 +5.8110392067793198e-03
-2.7499999999999982e+00 +8.5267910197416175e+00 +0.0000000000000000e+00 -2.7499999894121196e+00 -2.8519681180507642e-02 -5.5414954138961303e-01 +5.8109476207032522e-03
-2.7999999999999980e+00 +8.5267833502926198e+00 +0.0000000000000000e+00 -2.7999999888238993e+00 -2.8521055282203812e-02 -5.5416740136135445e-01 +5.8108552695249156e-03
-2.8499999999999979e+00 +8.5267755425732048e+00 +0.0000000000000000e+00 -2.8499999882142788e+00 -2.8522446265651653e-02 -5.5418558254669448e-01 +5.8107621843592654e-03
-2.8999999999999977e+00 +8.5267675965788339e+00 +0.0000000000000000e+00 -2.8999999875828748e+00 -2.8523853932417412e-02 -5.5420408321989567e-01 +5.8106683963213912e-03
-2.9499999999999975e+00 +8.5267595123048920e+00 +0.0000000000000000e+00 -2.9499999869293041e+00 -2.8525278084067695e-02 -5.5422290165523147e-01 +5.8105739365265233e-03
-2.9999999999999973e+00 +8.5267512897466826e+00 +0.0000000000000000e+00 -2.9999999862531834e+00 -2.8526718522169509e-02 -5.5424203612698764e-01 +5.8104788360900357e-03
-3.0499999999999972e+00 +8.5267429288994325e+00 +0.0000000000000000e+00 -3.0499999855541300e+00 -2.8528175048290198e-02 -5.5426148490946092e-01 +5.8103831261274693e-03
-3.0999999999999970e+00 +8.5267344297582888e+00 +0.0000000000000000e+00 -3.0999999848317601e+00 -2.8529647463997422e-02 -5.5428124627695985e-01 +5.8102868377545329e-03
-3.1499999999999968e+00 +8.5267257923183220e+00 +0.0000000000000000e+00 -3.1499999840856905e+00 -2.8531135570859172e-02 -5.5430131850380360e-01 +5.8101900020871089e-03
-3.1999999999999966e+00 +8.5267170165745227e+00 +0.0000000000000000e+00 -3.1999999833155379e+00 -2.8532639170443751e-02 -5.5432169986432400e-01 +5.8100926502412716e-03
-3.2499999999999964e+00 +8.5267081025218072e+00 +0.0000000000000000e+00 -3.2499999825209187e+00 -2.8534158064319710e-02 -5.5434238863286134e-01 +5.8099948133332850e-03
-3.2999999999999963e+00 +8.5266990501550115e+00 +0.0000000000000000e+00 -3.2999999817014491e+00 -2.8535692054055897e-02 -5.5436338308376942e-01 +5.8098965224796266e-03
-3.3499999999999961e+00 +8.5266898594688989e+00 +0.0000000000000000e+00 -3.3499999808567460e+00 -2.8537240941221377e-02 -5.5438468149141107e-01 +5.8097978087969827e-03
-3.3999999999999959e+00 +8.5266805304581545e+00 +0.0000000000000000e+00 -3.3999999799864256e+00 -2.8538804527385473e-02 -5.5440628213016074e-01 +5.8096987034022708e-03
-3.4499999999999957e+00 +8.5266710631173890e+00 +0.0000000000000000e+00 -3.4499999790901041e+00 -2.8540382614117701e-02 -5.5442818327440269e-01 +5.8095992374126316e-03
-3.4999999999999956e+00 +8.5266614574411381e+00 +0.0000000000000000e+00 -3.4999999781673981e+00 -2.8541975002987798e-02 -5.5445038319853235e-01 +5.8094994419454569e-03
-3.5499999999999954e+00 +8.5266517134238633e+00 +0.0000000000000000e+00 -3.5499999772179232e+00 -2.8543581495565636e-02 -5.5447288017695506e-01 +5.8093993481183864e-03
-3.5999999999999952e+00 +8.5266418310599512e+00 +0.0000000000000000e+00 -3.5999999762412962e+00 -2.8545201893421294e-02 -5.5449567248408660e-01 +5.8092989870493243e-03
-3.6499999999999950e+00 +8.5266318103437140e+00 +0.0000000000000000e+00 -3.6499999752371326e+00 -2.8546835998124999e-02 -5.5451875839435261e-01 +5.8091983898564447e-03
-3.6999999999999948e+00 +8.5266216512693926e+00 +0.0000000000000000e+00 -3.6999999742050487e+00 -2.8548483611247056e-02 -5.5454213618218851e-01 +5.8090975876581965e-03
-3.7499999999999947e+00 +8.5266113538311537e+00 +0.0000000000000000e+00 -3.7499999731446603e+00 -2.8550144534357936e-02 -5.5456580412204004e-01 +5.8089966115733227e-03
-3.7999999999999945e+00 +8.5266009180230924e+00 +0.0000000000000000e+00 -3.7999999720555833e+00 -2.8551818569028168e-02 -5.5458976048836284e-01 +5.8088954927208673e-03
-3.8499999999999943e+00 +8.5265903438392314e+00 +0.0000000000000000e+00 -3.8499999709374335e+00 -2.8553505516828379e-02 -5.5461400355562163e-01 +5.8087942622201743e-03
-3.8999999999999941e+00 +8.5265796312735223e+00 +0.0000000000000000e+00 -3.8999999697898269e+00 -2.8555205179329260e-02 -5.5463853159829068e-01 +5.8086929511909089e-03
-3.9499999999999940e+00 +8.5265687803198436e+00 +0.0000000000000000e+00 -3.9499999686123788e+00 -2.8556917358101515e-02 -5.5466334289085373e-01 +5.8085915907530620e-03
-3.9999999999999938e+00 +8.5265577909720065e+00 +0.0000000000000000e+00 -3.9999999674047051e+00 -2.8558641854715908e-02 -5.5468843570780435e-01 +5.8084902120269632e-03
-4.0499999999999936e+00 +8.5265466632237494e+00 +0.0000000000000000e+00 -4.0499999661664212e+00 -2.8560378487944574e-02 -5.5471380819216964e-01 +5.8083888449455860e-03
-4.0999999999999934e+00 +8.5265353970687414e+00 +0.0000000000000000e+00 -4.0999999648971430e+00 -2.8562127145365015e-02 -5.5473945796108481e-01 +5.8082875146914063e-03
-4.1499999999999932e+00 +8.5265239925005840e+00 +0.0000000000000000e+00 -4.1499999635964855e+00 -2.8563887731755323e-02 -5.5476538250021445e-01 +5.8081862452592607e-03
-4.1999999999999931e+00 +8.5265124495128077e+00 +0.0000000000000000e+00 -4.1999999622640640e+00 -2.8565660151892630e-02 -5.5479157929522571e-01 +5.8080850606440472e-03
-4.2499999999999929e+00 +8.5265007680988774e+00 +0.0000000000000000e+00 -4.2499999608994941e+00 -2.8567444310553077e-02 -5.5481804583178962e-01 +5.8079839848407012e-03
-4.2999999999999927e+00 +8.5264889482521884e+00 +0.0000000000000000e+00 -4.2999999595023901e+00 -2.8569240112511746e-02 -5.5484477959557976e-01 +5.8078830418442067e-03
-4.3499999999999925e+00 +8.5264769899660724e+00 +0.0000000000000000e+00 -4.3499999580723685e+00 -2.8571047462542618e-02 -5.5487177807227250e-01 +5.8077822556495979e-03
-4.3999999999999924e+00 +8.5264648932337916e+00 +0.0000000000000000e+00 -4.3999999566090429e+00 -2.8572866265418561e-02 -5.5489903874754709e-01 +5.8076816502519533e-03
-4.4499999999999922e+00 +8.5264526580485445e+00 +0.0000000000000000e+00 -4.4499999551120295e+00 -2.8574696425911268e-02 -5.5492655910708444e-01 +5.8075812496463973e-03
-4.4999999999999920e+00 +8.5264402844034635e+00 +0.0000000000000000e+00 -4.4999999535809430e+00 -2.8576537848791137e-02 -5.5495433663656712e-01 +5.8074810778280953e-03
-4.5499999999999918e+00 +8.5264277722916191e+00 +0.0000000000000000e+00 -4.5499999520153978e+00 -2.8578390438827407e-02 -5.5498236882167973e-01 +5.8073811587922627e-03
-4.5999999999999917e+00 +8.5264151217060178e+00 +0.0000000000000000e+00 -4.5999999504150084e+00 -2.8580254100787919e-02 -5.5501065314810782e-01 +5.8072815165341584e-03
-4.6499999999999915e+00 +8.5264023326396021e+00 +0.0000000000000000e+00 -4.6499999487793904e+00 -2.8582128739439185e-02 -5.5503918710153832e-01 +5.8071821750490847e-03
-4.6999999999999913e+00 +8.5263894050852524e+00 +0.0000000000000000e+00 -4.6999999471081582e+00 -2.8584014259546320e-02 -5.5506796816765869e-01 +5.8070831583323899e-03
-4.7499999999999911e+00 +8.5263763390357870e+00 +0.0000000000000000e+00 -4.7499999454009254e+00 -2.8585910565872980e-02 -5.5509699383215672e-01 +5.8069844903794604e-03
-4.7999999999999909e+00 +8.5263631344839652e+00 +0.0000000000000000e+00 -4.7999999436573075e+00 -2.8587817563181350e-02 -5.5512626158072098e-01 +5.8068861951857372e-03
-4.8499999999999908e+00 +8.5263497914224846e+00 +0.0000000000000000e+00 -4.8499999418769182e+00 -2.8589735156232070e-02 -5.5515576889903906e-01 +5.8067882967466926e-03
-4.8999999999999906e+00 +8.5263363098439822e+00 +0.0000000000000000e+00 -4.8999999400593728e+00 -2.8591663249784183e-02 -5.5518551327279897e-01 +5.8066908190578482e-03
-4.9499999999999904e+00 +8.5263226897410362e+00 +0.0000000000000000e+00 -4.9499999382042850e+00 -2.8593601748595147e-02 -5.5521549218768795e-01 +5.8065937861147649e-03
-4.9999999999999902e+00 +8.5263089311061666e+00 +0.0000000000000000e+00 -4.9999999363112684e+00 -2.8595550557420728e-02 -5.5524570312939225e-01 +5.8064972219130520e-03
-5.0499999999999901e+00 +8.5262950339318362e+00 +0.0000000000000000e+00 -5.0499999343799375e+00 -2.8597509581014976e-02 -5.5527614358359689e-01 +5.8064011504483492e-03
-5.0999999999999899e+00 +8.5262809982104510e+00 +0.0000000000000000e+00 -5.0999999324099070e+00 -2.8599478724130208e-02 -5.5530681103598534e-01 +5.8063055957163438e-03
-5.1499999999999897e+00 +8.5262668239343586e+00 +0.0000000000000000e+00 -5.1499999304007895e+00 -2.8601457891516916e-02 -5.5533770297223994e-01 +5.8062105817127735e-03
-5.1999999999999895e+00 +8.5262525110958514e+00 +0.0000000000000000e+00 -5.1999999283521996e+00 -2.8603446987923761e-02 -5.5536881687804018e-01 +5.8061161324333976e-03
-5.2499999999999893e+00 +8.5262380596871647e+00 +0.0000000000000000e+00 -5.2499999262637518e+00 -2.8605445918097508e-02 -5.5540015023906408e-01 +5.8060222718740303e-03
-5.2999999999999892e+00 +8.5262234697004828e+00 +0.0000000000000000e+00 -5.2999999241350588e+00 -2.8607454586783012e-02 -5.5543170054098667e-01 +5.8059290240305220e-03
-5.3499999999999890e+00 +8.5262087411279328e+00 +0.0000000000000000e+00 -5.3499999219657344e+00 -2.8609472898723114e-02 -5.5546346526948021e-01 +5.8058364128987620e-03
-5.3999999999999888e+00 +8.5261938739615886e+00 +0.0000000000000000e+00 -5.3999999197553921e+00 -2.8611500758658676e-02 -5.5549544191021394e-01 +5.8057444624746825e-03
-5.4499999999999886e+00 +8.5261788681934725e+00 +0.0000000000000000e+00 -5.4499999175036455e+00 -2.8613538071328427e-02 -5.5552762794885391e-01 +5.8056531967542475e-03
-5.4999999999999885e+00 +8.5261637238155537e+00 +0.0000000000000000e+00 -5.4999999152101076e+00 -2.8615584741469066e-02 -5.5556002087106193e-01 +5.8055626397334635e-03
-5.5499999999999883e+00 +8.5261484408197514e+00 +0.0000000000000000e+00 -5.5499999128743918e+00 -2.8617640673815108e-02 -5.5559261816249705e-01 +5.8054728154083805e-03
-5.5999999999999881e+00 +8.5261330191979319e+00 +0.0000000000000000e+00 -5.5999999104961118e+00 -2.8619705773098823e-02 -5.5562541730881265e-01 +5.8053837477750787e-03
-5.6499999999999879e+00 +8.5261174589419095e+00 +0.0000000000000000e+00 -5.6499999080748804e+00 -2.8621779944050296e-02 -5.5565841579565833e-01 +5.8052954608296785e-03
-5.6999999999999877e+00 +8.5261017600434528e+00 +0.0000000000000000e+00 -5.6999999056103103e+00 -2.8623863091397288e-02 -5.5569161110867993e-01 +5.8052079785683441e-03
-5.7499999999999876e+00 +8.5260859224942802e+00 +0.0000000000000000e+00 -5.7499999031020144e+00 -2.8625955119865258e-02 -5.5572500073351649e-01 +5.8051213249872662e-03
-5.7999999999999874e+00 +8.5260699462860590e+00 +0.0000000000000000e+00 -5.7999999005496061e+00 -2.8628055934177280e-02 -5.5575858215580320e-01 +5.8050355240826766e-03
-5.8499999999999872e+00 +8.5260538314104117e+00 +0.0000000000000000e+00 -5.8499998979526975e+00 -2.8630165439053955e-02 -5.5579235286116879e-01 +5.8049505998508510e-03
