# trajectory
# s[mm] rx[mm] ry[mm] rz[mm] px[rad] py[rad] pz[rad]
0.0000000000000000e+00 +8.5389999999999997e+00 +0.0000000000000000e+00 +0.0000000000000000e+00 +0.0000000000000000e+00 +0.0000000000000000e+00 +1.0000000000000000e+00
-5.0000000000000003e-02 +8.5389999311173526e+00 +0.0000000000000000e+00 -4.9999999999936734e-02 +2.7553069343206880e-06 +0.0000000000000000e+00 +9.9999999999620415e-01
-1.0000000000000001e-01 +8.5389997244691802e+00 +0.0000000000000000e+00 -9.9999999999493883e-02 +5.5106213765484232e-06 +0.0000000000000000e+00 +9.9999999998481648e-01
-1.5000000000000002e-01 +8.5389993800550563e+00 +0.0000000000000000e+00 -1.4999999999829186e-01 +8.2659453402724995e-06 +0.0000000000000000e+00 +9.9999999996583699e-01
-2.0000000000000001e-01 +8.5389988978744533e+00 +0.0000000000000000e+00 -1.9999999999595106e-01 +1.1021280835115835e-05 +0.0000000000000000e+00 +9.9999999993926558e-01
-2.5000000000000000e-01 +8.5389982779267459e+00 +0.0000000000000000e+00 -2.4999999999209188e-01 +1.3776629866735068e-05 +0.0000000000000000e+00 +9.9999999990510213e-01
-2.9999999999999999e-01 +8.5389975202112076e+00 +0.0000000000000000e+00 -2.9999999998633475e-01 +1.6531994436820641e-05 +0.0000000000000000e+00 +9.9999999986334642e-01
-3.4999999999999998e-01 +8.5389966247270106e+00 +0.0000000000000000e+00 -3.4999999997830000e-01 +1.9287376543096887e-05 +0.0000000000000000e+00 +9.9999999981399834e-01
-3.9999999999999997e-01 +8.5389955914732276e+00 +0.0000000000000000e+00 -3.9999999996760804e-01 +2.2042778179322128e-05 +0.0000000000000000e+00 +9.9999999975705778e-01
-4.4999999999999996e-01 +8.5389944204488337e+00 +0.0000000000000000e+00 -4.4999999995387924e-01 +2.4798201335288751e-05 +0.0000000000000000e+00 +9.9999999969252440e-01
-4.9999999999999994e-01 +8.5389931116527027e+00 +0.0000000000000000e+00 -4.9999999993673394e-01 +2.7553647996823306e-05 +0.0000000000000000e+00 +9.9999999962039798e-01
-5.4999999999999993e-01 +8.5389916650836089e+00 +0.0000000000000000e+00 -5.4999999991579251e-01 +3.0309120145786580e-05 +0.0000000000000000e+00 +9.9999999954067831e-01
-5.9999999999999998e-01 +8.5389900807402306e+00 +0.0000000000000000e+00 -5.9999999989067521e-01 +3.3064619760073699e-05 +0.0000000000000000e+00 +9.9999999945336515e-01
-6.5000000000000002e-01 +8.5389883586211432e+00 +0.0000000000000000e+00 -6.4999999986100243e-01 +3.5820148813614208e-05 +0.0000000000000000e+00 +9.9999999935845818e-01
-7.0000000000000007e-01 +8.5389864987248263e+00 +0.0000000000000000e+00 -6.9999999982639449e-01 +3.8575709276372155e-05 +0.0000000000000000e+00 +9.9999999925595706e-01
-7.5000000000000011e-01 +8.5389845010496597e+00 +0.0000000000000000e+00 -7.4999999978647158e-01 +4.1331303114346185e-05 +0.0000000000000000e+00 +9.9999999914586146e-01
-8.0000000000000016e-01 +8.5389823655939256e+00 +0.0000000000000000e+00 -7.9999999974085401e-01 +4.4086932289569618e-05 +0.0000000000000000e+00 +9.9999999902817094e-01
-8.5000000000000020e-01 +8.5389800923558088e+00 +0.0000000000000000e+00 -8.4999999968916207e-01 +4.6842598760110534e-05 +0.0000000000000000e+00 +9.9999999890288516e-01
-9.0000000000000024e-01 +8.5389776813333960e+00 +0.0000000000000000e+00 -8.9999999963101596e-01 +4.9598304480071867e-05 +0.0000000000000000e+00 +9.9999999877000378e-01
-9.5000000000000029e-01 +8.5389751325246745e+00 +0.0000000000000000e+00 -9.4999999956603587e-01 +5.2354051399591479e-05 +0.0000000000000000e+00 +9.9999999862952638e-01
-1.0000000000000002e+00 +8.5389724459275360e+00 +0.0000000000000000e+00 -9.9999999949384200e-01 +5.5109841464842260e-05 +0.0000000000000000e+00 +9.9999999848145238e-01
-1.0500000000000003e+00 +8.5389696215397759e+00 +0.0000000000000000e+00 -1.0499999994140545e+00 +5.7865676618032201e-05 +0.0000000000000000e+00 +9.9999999832578146e-01
-1.1000000000000003e+00 +8.5389666593590903e+00 +0.0000000000000000e+00 -1.0999999993262937e+00 +6.0621558797404475e-05 +0.0000000000000000e+00 +9.9999999816251306e-01
-1.1500000000000004e+00 +8.5389635593830793e+00 +0.0000000000000000e+00 -1.1499999992301793e+00 +6.3377489937237535e-05 +0.0000000000000000e+00 +9.9999999799164663e-01
-1.2000000000000004e+00 +8.5389603216092471e+00 +0.0000000000000000e+00 -1.1999999991253316e+00 +6.6133471967845176e-05 +0.0000000000000000e+00 +9.9999999781318172e-01
-1.2500000000000004e+00 +8.5389569460350021e+00 +0.0000000000000000e+00 -1.2499999990113708e+00 +6.8889506815576645e-05 +0.0000000000000000e+00 +9.9999999762711766e-01
-1.3000000000000005e+00 +8.5389534326576531e+00 +0.0000000000000000e+00 -1.2999999988879167e+00 +7.1645596402816709e-05 +0.0000000000000000e+00 +9.9999999743345402e-01
-1.3500000000000005e+00 +8.5389497814744164e+00 +0.0000000000000000e+00 -1.3499999987545894e+00 +7.4401742647985732e-05 +0.0000000000000000e+00 +9.9999999723219013e-01
-1.4000000000000006e+00 +8.5389459924824109e+00 +0.0000000000000000e+00 -1.3999999986110090e+00 +7.7157947465539774e-05 +0.0000000000000000e+00 +9.9999999702332532e-01
-1.4500000000000006e+00 +8.5389420656786612e+00 +0.0000000000000000e+00 -1.4499999984567953e+00 +7.9914212765970648e-05 +0.0000000000000000e+00 +9.9999999680685903e-01
-1.5000000000000007e+00 +8.5389380010600942e+00 +0.0000000000000000e+00 -1.4999999982915682e+00 +8.2670540455806037e-05 +0.0000000000000000e+00 +9.9999999658279060e-01
-1.5500000000000007e+00 +8.5389337986235443e+00 +0.0000000000000000e+00 -1.5499999981149475e+00 +8.5426932437609551e-05 +0.0000000000000000e+00 +9.9999999635111936e-01
-1.6000000000000008e+00 +8.5389294583657485e+00 +0.0000000000000000e+00 -1.5999999979265533e+00 +8.8183390609980808e-05 +0.0000000000000000e+00 +9.9999999611184454e-01
-1.6500000000000008e+00 +8.5389249802833493e+00 +0.0000000000000000e+00 -1.6499999977260054e+00 +9.0939916867555516e-05 +0.0000000000000000e+00 +9.9999999586496546e-01
-1.7000000000000008e+00 +8.5389203643728955e+00 +0.0000000000000000e+00 -1.6999999975129232e+00 +9.3696513101005578e-05 +0.0000000000000000e+00 +9.9999999561048147e-01
-1.7500000000000009e+00 +8.5389156106308413e+00 +0.0000000000000000e+00 -1.7499999972869267e+00 +9.6453181197039150e-05 +0.0000000000000000e+00 +9.9999999534839168e-01
-1.8000000000000009e+00 +8.5389107190535469e+00 +0.0000000000000000e+00 -1.7999999970476355e+00 +9.9209923038400709e-05 +0.0000000000000000e+00 +9.9999999507869530e-01
-1.8500000000000010e+00 +8.5389056896372768e+00 +0.0000000000000000e+00 -1.8499999967946694e+00 +1.0196674050387115e-04 +0.0000000000000000e+00 +9.9999999480139168e-01
-1.9000000000000010e+00 +8.5389005223782046e+00 +0.0000000000000000e+00 -1.8999999965276479e+00 +1.0472363546826787e-04 +0.0000000000000000e+00 +9.9999999451647981e-01
-1.9500000000000011e+00 +8.5388952172724082e+00 +0.0000000000000000e+00 -1.9499999962461907e+00 +1.0748060980244486e-04 +0.0000000000000000e+00 +9.9999999422395902e-01
-2.0000000000000009e+00 +8.5388897743158712e+00 +0.0000000000000000e+00 -1.9999999959499171e+00 +1.1023766537329274e-04 +0.0000000000000000e+00 +9.9999999392382832e-01
-2.0500000000000007e+00 +8.5388841935044866e+00 +0.0000000000000000e+00 -2.0499999956384465e+00 +1.1299480404344913e-04 +0.0000000000000000e+00 +9.9999999361608694e-01
-2.1000000000000005e+00 +8.5388784748340516e+00 +0.0000000000000000e+00 -2.0999999953113986e+00 +1.1575202766811172e-04 +0.0000000000000000e+00 +9.9999999330073386e-01
-2.1500000000000004e+00 +8.5388726183002728e+00 +0.0000000000000000e+00 -2.1499999949683928e+00 +1.1850933809185132e-04 +0.0000000000000000e+00 +9.9999999297776820e-01
-2.2000000000000002e+00 +8.5388666238987643e+00 +0.0000000000000000e+00 -2.1999999946090485e+00 +1.2126673714832215e-04 +0.0000000000000000e+00 +9.9999999264718908e-01
-2.2500000000000000e+00 +8.5388604916250497e+00 +0.0000000000000000e+00 -2.2499999942329847e+00 +1.2402422666026196e-04 +0.0000000000000000e+00 +9.9999999230899550e-01
-2.2999999999999998e+00 +8.5388542214745602e+00 +0.0000000000000000e+00 -2.2999999938398208e+00 +1.2678180843949207e-04 +0.0000000000000000e+00 +9.9999999196318645e-01
-2.3499999999999996e+00 +8.5388478134426382e+00 +0.0000000000000000e+00 -2.3499999934291762e+00 +1.2953948428691747e-04 +0.0000000000000000e+00 +9.9999999160976094e-01
-2.3999999999999995e+00 +8.5388412675245338e+00 +0.0000000000000000e+00 -2.3999999930006699e+00 +1.3229725599252687e-04 +0.0000000000000000e+00 +9.9999999124871797e-01
-2.4499999999999993e+00 +8.5388345837154116e+00 +0.0000000000000000e+00 -2.4499999925539209e+00 +1.3505512533539270e-04 +0.0000000000000000e+00 +9.9999999088005653e-01
-2.4999999999999991e+00 +8.5388277620103441e+00 +0.0000000000000000e+00 -2.4999999920885485e+00 +1.3781309408367130e-04 +0.0000000000000000e+00 +9.9999999050377553e-01
-2.5499999999999989e+00 +8.5388208024043166e+00 +0.0000000000000000e+00 -2.5499999916041713e+00 +1.4057116399460292e-04 +0.0000000000000000e+00 +9.9999999011987395e-01
-2.5999999999999988e+00 +8.5388137048922292e+00 +0.0000000000000000e+00 -2.5999999911004088e+00 +1.4332933681451176e-04 +0.0000000000000000e+00 +9.9999998972835058e-01
-2.6499999999999986e+00 +8.5388064694688914e+00 +0.0000000000000000e+00 -2.6499999905768794e+00 +1.4608761427880603e-04 +0.0000000000000000e+00 +9.9999998932920442e-01
-2.6999999999999984e+00 +8.5387990961290292e+00 +0.0000000000000000e+00 -2.6999999900332021e+00 +1.4884599811197807e-04 +0.0000000000000000e+00 +9.9999998892243436e-01
-2.7499999999999982e+00 +8.5387915848672797e+00 +0.0000000000000000e+00 -2.7499999894689959e+00 +1.5160449002760438e-04 +0.0000000000000000e+00 +9.9999998850803928e-01
-2.7999999999999980e+00 +8.5387839356781967e+00 +0.0000000000000000e+00 -2.7999999888838794e+00 +1.5436309172834573e-04 +0.0000000000000000e+00 +9.9999998808601798e-01
-2.8499999999999979e+00 +8.5387761485562486e+00 +0.0000000000000000e+00 -2.8499999882774709e+00 +1.5712180490594707e-04 +0.0000000000000000e+00 +9.9999998765636922e-01
-2.8999999999999977e+00 +8.5387682234958202e+00 +0.0000000000000000e+00 -2.8999999876493892e+00 +1.5988063124123774e-04 +0.0000000000000000e+00 +9.9999998721909189e-01
-2.9499999999999975e+00 +8.5387601604912113e+00 +0.0000000000000000e+00 -2.9499999869992530e+00 +1.6263957240413148e-04 +0.0000000000000000e+00 +9.9999998677418478e-01
-2.9999999999999973e+00 +8.5387519595366381e+00 +0.0000000000000000e+00 -2.9999999863266806e+00 +1.6539863005362649e-04 +0.0000000000000000e+00 +9.9999998632164666e-01
-3.0499999999999972e+00 +8.5387436206262368e+00 +0.0000000000000000e+00 -3.0499999856312905e+00 +1.6815780583780544e-04 +0.0000000000000000e+00 +9.9999998586147620e-01
-3.0999999999999970e+00 +8.5387351437540584e+00 +0.0000000000000000e+00 -3.0999999849127011e+00 +1.7091710139383563e-04 +0.0000000000000000e+00 +9.9999998539367230e-01
-3.1499999999999968e+00 +8.5387265289140739e+00 +0.0000000000000000e+00 -3.1499999841705306e+00 +1.7367651834796893e-04 +0.0000000000000000e+00 +9.9999998491823350e-01
-3.1999999999999966e+00 +8.5387177761001727e+00 +0.0000000000000000e+00 -3.1999999834043971e+00 +1.7643605831554191e-04 +0.0000000000000000e+00 +9.9999998443515870e-01
-3.2499999999999964e+00 +8.5387088853061641e+00 +0.0000000000000000e+00 -3.2499999826139190e+00 +1.7919572290097586e-04 +0.0000000000000000e+00 +9.9999998394444645e-01
-3.2999999999999963e+00 +8.5386998565257777e+00 +0.0000000000000000e+00 -3.2999999817987145e+00 +1.8195551369777689e-04 +0.0000000000000000e+00 +9.9999998344609553e-01
-3.3499999999999961e+00 +8.5386906897526647e+00 +0.0000000000000000e+00 -3.3499999809584011e+00 +1.8471543228853587e-04 +0.0000000000000000e+00 +9.9999998294010450e-01
-3.3999999999999959e+00 +8.5386813849803929e+00 +0.0000000000000000e+00 -3.3999999800925975e+00 +1.8747548024492861e-04 +0.0000000000000000e+00 +9.9999998242647214e-01
-3.4499999999999957e+00 +8.5386719422024573e+00 +0.0000000000000000e+00 -3.4499999792009213e+00 +1.9023565912771586e-04 +0.0000000000000000e+00 +9.9999998190519701e-01
-3.4999999999999956e+00 +8.5386623614122730e+00 +0.0000000000000000e+00 -3.4999999782829900e+00 +1.9299597048674333e-04 +0.0000000000000000e+00 +9.9999998137627766e-01
-3.5499999999999954e+00 +8.5386526426031750e+00 +0.0000000000000000e+00 -3.5499999773384214e+00 +1.9575641586094179e-04 +0.0000000000000000e+00 +9.9999998083971275e-01
-3.5999999999999952e+00 +8.5386427857684275e+00 +0.0000000000000000e+00 -3.5999999763668336e+00 +1.9851699677832707e-04 +0.0000000000000000e+00 +9.9999998029550097e-01
-3.6499999999999950e+00 +8.5386327909012127e+00 +0.0000000000000000e+00 -3.6499999753678440e+00 +2.0127771475600013e-04 +0.0000000000000000e+00 +9.9999997974364074e-01
-3.6999999999999948e+00 +8.5386226579946420e+00 +0.0000000000000000e+00 -3.6999999743410701e+00 +2.0403857130014714e-04 +0.0000000000000000e+00 +9.9999997918413064e-01
-3.7499999999999947e+00 +8.5386123870417485e+00 +0.0000000000000000e+00 -3.7499999732861293e+00 +2.0679956790603947e-04 +0.0000000000000000e+00 +9.9999997861696932e-01
-3.7999999999999945e+00 +8.5386019780354925e+00 +0.0000000000000000e+00 -3.7999999722026394e+00 +2.0956070605803373e-04 +0.0000000000000000e+00 +9.9999997804215524e-01
-3.8499999999999943e+00 +8.5385914309687596e+00 +0.0000000000000000e+00 -3.8499999710902175e+00 +2.1232198722957190e-04 +0.0000000000000000e+00 +9.9999997745968683e-01
-3.8999999999999941e+00 +8.5385807458343610e+00 +0.0000000000000000e+00 -3.8999999699484809e+00 +2.1508341288318129e-04 +0.0000000000000000e+00 +9.9999997686956266e-01
-3.9499999999999940e+00 +8.5385699226250384e+00 +0.0000000000000000e+00 -3.9499999687770462e+00 +2.1784498447047462e-04 +0.0000000000000000e+00 +9.9999997627178128e-01
-3.9999999999999938e+00 +8.5385589613334574e+00 +0.0000000000000000e+00 -3.9999999675755311e+00 +2.2060670343215002e-04 +0.0000000000000000e+00 +9.9999997566634113e-01
-4.0499999999999936e+00 +8.5385478619522139e+00 +0.0000000000000000e+00 -4.0499999663435524e+00 +2.2336857119779633e-04 +0.0000000000000000e+00 +9.9999997505324056e-01
-4.0999999999999934e+00 +8.5385366244738332e+00 +0.0000000000000000e+00 -4.0999999650807277e+00 +2.2613058918375013e-04 +0.0000000000000000e+00 +9.9999997443247812e-01
-4.1499999999999932e+00 +8.5385252488907692e+00 +0.0000000000000000e+00 -4.1499999637866729e+00 +2.2889275879095286e-04 +0.0000000000000000e+00 +9.9999997380405226e-01
-4.1999999999999931e+00 +8.5385137351954050e+00 +0.0000000000000000e+00 -4.1999999624610052e+00 +2.3165508140475600e-04 +0.0000000000000000e+00 +9.9999997316796141e-01
-4.2499999999999929e+00 +8.5385020833800560e+00 +0.0000000000000000e+00 -4.2499999611033417e+00 +2.3441755839492107e-04 +0.0000000000000000e+00 +9.9999997252420392e-01
-4.2999999999999927e+00 +8.5384902934369702e+00 +0.0000000000000000e+00 -4.2999999597132978e+00 +2.3718019111561959e-04 +0.0000000000000000e+00 +9.9999997187277823e-01
-4.3499999999999925e+00 +8.5384783653583263e+00 +0.0000000000000000e+00 -4.3499999582904909e+00 +2.3994298090543315e-04 +0.0000000000000000e+00 +9.9999997121368267e-01
-4.3999999999999924e+00 +8.5384662991362390e+00 +0.0000000000000000e+00 -4.3999999568345380e+00 +2.4270592908735329e-04 +0.0000000000000000e+00 +9.9999997054691570e-01
-4.4499999999999922e+00 +8.5384540947627556e+00 +0.0000000000000000e+00 -4.4499999553450547e+00 +2.4546903696878166e-04 +0.0000000000000000e+00 +9.9999996987247564e-01
-4.4999999999999920e+00 +8.5384417522298595e+00 +0.0000000000000000e+00 -4.4999999538216580e+00 +2.4823230584152981e-04 +0.0000000000000000e+00 +9.9999996919036083e-01
-4.5499999999999918e+00 +8.5384292715294681e+00 +0.0000000000000000e+00 -4.5499999522639634e+00 +2.5099573698181933e-04 +0.0000000000000000e+00 +9.9999996850056960e-01
-4.5999999999999917e+00 +8.5384166526534369e+00 +0.0000000000000000e+00 -4.5999999506715872e+00 +2.5375933165028178e-04 +0.0000000000000000e+00 +9.9999996780310041e-01
-4.6499999999999915e+00 +8.5384038955935573e+00 +0.0000000000000000e+00 -4.6499999490441457e+00 +2.5652309109195867e-04 +0.0000000000000000e+00 +9.9999996709795147e-01
-4.6999999999999913e+00 +8.5383910003415604e+00 +0.0000000000000000e+00 -4.6999999473812544e+00 +2.5928701653630138e-04 +0.0000000000000000e+00 +9.9999996638512112e-01
-4.7499999999999911e+00 +8.5383779668891169e+00 +0.0000000000000000e+00 -4.7499999456825295e+00 +2.6205110919717134e-04 +0.0000000000000000e+00 +9.9999996566460769e-01
-4.7999999999999909e+00 +8.5383647952278352e+00 +0.0000000000000000e+00 -4.7999999439475873e+00 +2.6481537027283974e-04 +0.0000000000000000e+00 +9.9999996493640941e-01
-4.8499999999999908e+00 +8.5383514853492635e+00 +0.0000000000000000e+00 -4.8499999421760425e+00 +2.6757980094598770e-04 +0.0000000000000000e+00 +9.9999996420052462e-01
-4.8999999999999906e+00 +8.5383380372448947e+00 +0.0000000000000000e+00 -4.8999999403675112e+00 +2.7034440238370616e-04 +0.0000000000000000e+00 +9.9999996345695152e-01
-4.9499999999999904e+00 +8.5383244509061598e+00 +0.0000000000000000e+00 -4.9499999385216089e+00 +2.7310917573749585e-04 +0.0000000000000000e+00 +9.9999996270568847e-01
-4.9999999999999902e+00 +8.5383107263244362e+00 +0.0000000000000000e+00 -4.9999999366379519e+00 +2.7587412214326735e-04 +0.0000000000000000e+00 +9.9999996194673380e-01
-5.0499999999999901e+00 +8.5382968634910430e+00 +0.0000000000000000e+00 -5.0499999347161548e+00 +2.7863924272134098e-04 +0.0000000000000000e+00 +9.9999996118008561e-01
-5.0999999999999899e+00 +8.5382828623972440e+00 +0.0000000000000000e+00 -5.0999999327558330e+00 +2.8140453857644670e-04 +0.0000000000000000e+00 +9.9999996040574224e-01
-5.1499999999999897e+00 +8.5382687230342462e+00 +0.0000000000000000e+00 -5.1499999307566009e+00 +2.8417001079772419e-04 +0.0000000000000000e+00 +9.9999995962370181e-01
-5.1999999999999895e+00 +8.5382544453932070e+00 +0.0000000000000000e+00 -5.1999999287180749e+00 +2.8693566045872286e-04 +0.0000000000000000e+00 +9.9999995883396264e-01
-5.2499999999999893e+00 +8.5382400294652268e+00 +0.0000000000000000e+00 -5.2499999266398696e+00 +2.8970148861740154e-04 +0.0000000000000000e+00 +9.9999995803652297e-01
-5.2999999999999892e+00 +8.5382254752413544e+00 +0.0000000000000000e+00 -5.2999999245215994e+00 +2.9246749631612880e-04 +0.0000000000000000e+00 +9.9999995723138102e-01
-5.3499999999999890e+00 +8.5382107827125857e+00 +0.0000000000000000e+00 -5.3499999223628798e+00 +2.9523368458168257e-04 +0.0000000000000000e+00 +9.9999995641853490e-01
-5.3999999999999888e+00 +8.5381959518698700e+00 +0.0000000000000000e+00 -5.3999999201633244e+00 +2.9800005442525036e-04 +0.0000000000000000e+00 +9.9999995559798294e-01
-5.4499999999999886e+00 +8.5381809827041018e+00 +0.0000000000000000e+00 -5.4499999179225496e+00 +3.0076660684242912e-04 +0.0000000000000000e+00 +9.9999995476972325e-01
-5.4999999999999885e+00 +8.5381658752061274e+00 +0.0000000000000000e+00 -5.4999999156401689e+00 +3.0353334281322505e-04 +0.0000000000000000e+00 +9.9999995393375396e-01
-5.5499999999999883e+00 +8.5381506293667453e+00 +0.0000000000000000e+00 -5.5499999133157969e+00 +3.0630026330205379e-04 +0.0000000000000000e+00 +9.9999995309007339e-01
-5.5999999999999881e+00 +8.5381352451767061e+00 +0.0000000000000000e+00 -5.5999999109490481e+00 +3.0906736925774016e-04 +0.0000000000000000e+00 +9.9999995223867966e-01
-5.6499999999999879e+00 +8.5381197226267123e+00 +0.0000000000000000e+00 -5.6499999085395363e+00 +3.1183466161351824e-04 +0.0000000000000000e+00 +9.9999995137957087e-01
-5.6999999999999877e+00 +8.5381040617074220e+00 +0.0000000000000000e+00 -5.6999999060868767e+00 +3.1460214128703126e-04 +0.0000000000000000e+00 +9.9999995051274526e-01
-5.7499999999999876e+00 +8.5380882624094472e+00 +0.0000000000000000e+00 -5.7499999035906821e+00 +3.1736980918033154e-04 +0.0000000000000000e+00 +9.9999994963820094e-01
-5.7999999999999874e+00 +8.5380723247233536e+00 +0.0000000000000000e+00 -5.7999999010505681e+00 +3.2013766617988043e-04 +0.0000000000000000e+00 +9.9999994875593612e-01
-5.8499999999999872e+00 +8.5380562486396627e+00 +0.0000000000000000e+00 -5.8499998984661472e+00 +3.2290571315654831e-04 +0.0000000000000000e+00 +9.9999994786594892e-01
