# multipoles
# s[mm] polynom_b[n=0][T/m^n] polynom_b[n=1][T/m^n] polynom_b[n=2][T/m^n] polynom_b[n=3][T/m^n] polynom_b[n=4][T/m^n] polynom_b[n=5][T/m^n] polynom_b[n=6][T/m^n] 
+0.0000000000000000e+00 -5.5192387533280052e-01 +7.2578842208272842e+00 +6.7124454382598362e+00 -8.6787891808188391e+00 -3.2636598677175265e+04 -2.5443492141992933e+05 +2.0210983669788992e+08 
+5.0000000000000003e-02 -5.5192563625904623e-01 +7.2580219522396279e+00 +6.7127847140087056e+00 -8.6617707869956480e+00 -3.2712715381855662e+04 -2.5399818110578856e+05 +2.0253786638577127e+08 
+1.0000000000000001e-01 -5.5192775430945484e-01 +7.2581796436765167e+00 +6.7127721719159750e+00 -8.6669008360289190e+00 -3.2790215580982185e+04 -2.5336740424088025e+05 +2.0297241698717579e+08 
+1.4999999999999999e-01 -5.5193022844742123e-01 +7.2583571976426500e+00 +6.7123995467004622e+00 -8.6932928621672101e+00 -3.2868884998504385e+04 -2.5254912409708378e+05 +2.0341230228298435e+08 
+2.0000000000000001e-01 -5.5193305763638068e-01 +7.2585545166392373e+00 +6.7116585753872409e+00 -8.7400602379176160e+00 -3.2948509421234921e+04 -2.5154987521844814e+05 +2.0385633647439307e+08 
+2.5000000000000000e-01 -5.5193624083978854e-01 +7.2587715031725120e+00 +6.7105409907118387e+00 -8.8063164975572708e+00 -3.3028874519243029e+04 -2.5037619088843779e+05 +2.0430333297301495e+08 
+2.9999999999999999e-01 -5.5193977702109931e-01 +7.2590080597455895e+00 +6.7090385273648607e+00 -8.8911750278051738e+00 -3.3109766015811569e+04 -2.4903460556434179e+05 +2.0475210554741260e+08 
+3.4999999999999998e-01 -5.5194366514373172e-01 +7.2592640888647413e+00 +6.7071429198750732e+00 -8.9937493213454758e+00 -3.3190969625488695e+04 -2.4753165279530099e+05 +2.0520146788876405e+08 
+4.0000000000000002e-01 -5.5194790417125417e-01 +7.2595394930363151e+00 +6.7048459034607655e+00 -9.1131528426712691e+00 -3.3272271086147462e+04 -2.4587386640000256e+05 +2.0565023386378917e+08 
+4.5000000000000001e-01 -5.5195249306708738e-01 +7.2598341747667989e+00 +6.7021392127687962e+00 -9.2484990359813022e+00 -3.3353456121275201e+04 -2.4406778032438437e+05 +2.0609721724242190e+08 
+5.0000000000000000e-01 -5.5195743079480764e-01 +7.2601480365625672e+00 +6.6990145833537005e+00 -9.3989013072137695e+00 -3.3434310473767982e+04 -2.4211992887984565e+05 +2.0654123190535644e+08 
+5.5000000000000004e-01 -5.5196271631791638e-01 +7.2604809809331865e+00 +6.6954637490599502e+00 -9.5634731802973132e+00 -3.3514619841099295e+04 -2.4003684533070121e+05 +2.0698109142677537e+08 
+5.9999999999999998e-01 -5.5196834860002886e-01 +7.2608329103867764e+00 +6.6914784471372890e+00 -9.7413280853368462e+00 -3.3594170015349817e+04 -2.3782506375849264e+05 +2.0741561003061509e+08 
+6.5000000000000002e-01 -5.5197432660461621e-01 +7.2612037274356469e+00 +6.6870504103084158e+00 -9.9315795908086066e+00 -3.3672746665020008e+04 -2.3549111710601975e+05 +2.0784360109662616e+08 
+6.9999999999999996e-01 -5.5198064929530677e-01 +7.2615933345879640e+00 +6.6821713727270797e+00 -1.0133341081316853e+01 -3.3750135497669464e+04 -2.3304153980819942e+05 +2.0826387826994774e+08 
+7.5000000000000000e-01 -5.5198731563568659e-01 +7.2620016343558014e+00 +6.6768330723877183e+00 -1.0345726070751377e+01 -3.3826122321509996e+04 -2.3048286523767401e+05 +2.0867525586505839e+08 
+8.0000000000000004e-01 -5.5199432458934883e-01 +7.2624285292510562e+00 +6.6710272418768710e+00 -1.0567848036667513e+01 -3.3900492805082729e+04 -2.2782162707710522e+05 +2.0907654727058041e+08 
+8.4999999999999998e-01 -5.5200167511995391e-01 +7.2628739217884934e+00 +6.6647456177369033e+00 -1.0798820546578451e+01 -3.3973032717742783e+04 -2.2506435829701376e+05 +2.0946656653646716e+08 
+9.0000000000000002e-01 -5.5200936619113905e-01 +7.2633377144812394e+00 +6.6579799350899913e+00 -1.1037757087047540e+01 -3.4043527793937908e+04 -2.2221759247130540e+05 +2.0984412748416665e+08 
+9.4999999999999996e-01 -5.5201739676652417e-01 +7.2638198098430227e+00 +6.6507219275930209e+00 -1.1283771127623366e+01 -3.4111763727631835e+04 -2.1928786337940439e+05 +2.1020804366191512e+08 
+1.0000000000000000e+00 -5.5202576580977936e-01 +7.2643201103915880e+00 +6.6429633308580520e+00 -1.1535976291266406e+01 -3.4177526266004097e+04 -2.1628170349204863e+05 +2.1055712897491241e+08 
+1.0500000000000000e+00 -5.5203447228461355e-01 +7.2648385186432094e+00 +6.6346958803170324e+00 -1.1793486105111450e+01 -3.4240601150858471e+04 -2.1320564612118457e+05 +2.1089019728696987e+08 
+1.1000000000000001e+00 -5.5204351515466799e-01 +7.2653749371130623e+00 +6.6259113106385730e+00 -1.2055414024553277e+01 -3.4300774105573641e+04 -2.1006622515700356e+05 +2.1120606234986109e+08 
+1.1499999999999999e+00 -5.5205289338372643e-01 +7.2659292683253209e+00 +6.6166013561815991e+00 -1.2320873865508219e+01 -3.4357830843377211e+04 -2.0686997150083093e+05 +2.1150353783267322e+08 
+1.2000000000000000e+00 -5.5206260593546863e-01 +7.2665014147916906e+00 +6.6067577535732900e+00 -1.2588978889494856e+01 -3.4411557141293313e+04 -2.0362342065737085e+05 +2.1178143785070154e+08 
+1.2500000000000000e+00 -5.5207265177362042e-01 +7.2670912790404305e+00 +6.5963722360076114e+00 -1.2858843011577825e+01 -3.4461738681079085e+04 -2.0033310278238382e+05 +2.1203857585721415e+08 
+1.3000000000000000e+00 -5.5208302986195823e-01 +7.2676987635877301e+00 +6.5854365381706828e+00 -1.3129579645703894e+01 -3.4508161185450997e+04 -1.9700555209133582e+05 +2.1227376559071171e+08 
+1.3500000000000001e+00 -5.5209373916425131e-01 +7.2683237709599746e+00 +6.5739423965981922e+00 -1.3400302583735803e+01 -3.4550610434166600e+04 -1.9364729976176034e+05 +2.1248582119707233e+08 
+1.3999999999999999e+00 -5.5210477864420993e-01 +7.2689662036771985e+00 +6.5618815433890472e+00 -1.3670125329690668e+01 -3.4588872077710555e+04 -1.9026487934333872e+05 +2.1267355591261384e+08 
+1.4500000000000000e+00 -5.5211614726568048e-01 +7.2696259642661492e+00 +6.5492457143285092e+00 -1.3938161654165116e+01 -3.4622731873391975e+04 -1.8686482216527127e+05 +2.1283578372238398e+08 
+1.5000000000000000e+00 -5.5212784399247716e-01 +7.2703029552518048e+00 +6.5360266459987466e+00 -1.4203525213808074e+01 -3.4651975595479475e+04 -1.8345366057160136e+05 +2.1297131870825350e+08 
+1.5500000000000000e+00 -5.5213986778836877e-01 +7.2709970791620018e+00 +6.5222160697650535e+00 -1.4465329775197779e+01 -3.4676388882484629e+04 -1.8003792593370177e+05 +2.1307897405292436e+08 
+1.6000000000000001e+00 -5.5215221761718780e-01 +7.2717082385230869e+00 +6.5078057213720193e+00 -1.4722689006115329e+01 -3.4695757492341792e+04 -1.7662415051337634e+05 +2.1315756374931556e+08 
+1.6499999999999999e+00 -5.5216489244280020e-01 +7.2724363358660744e+00 +6.4927873351652687e+00 -1.4974716752064939e+01 -3.4709867142237905e+04 -1.7321886509348717e+05 +2.1320590150358456e+08 
+1.7000000000000000e+00 -5.5217789122903249e-01 +7.2731812737180306e+00 +6.4771526455162975e+00 -1.5220526660703944e+01 -3.4718503549754307e+04 -1.6982860213345295e+05 +2.1322280102207351e+08 
+1.7500000000000000e+00 -5.5219121293975726e-01 +7.2739429546136707e+00 +6.4608933837669591e+00 -1.5459232682637191e+01 -3.4721452356128415e+04 -1.6645989157626961e+05 +2.1320707551654032e+08 
+1.8000000000000000e+00 -5.5220485653884532e-01 +7.2747212810816704e+00 +6.4440012878979944e+00 -1.5689948491796974e+01 -3.4718499379082430e+04 -1.6311926567139095e+05 +2.1315753937840381e+08 
+1.8500000000000001e+00 -5.5221882099016339e-01 +7.2755161556586545e+00 +6.4264680883425269e+00 -1.5911788063181836e+01 -3.4709430234746695e+04 -1.5981325422549588e+05 +2.1307300564521608e+08 
+1.8999999999999999e+00 -5.5223310525765046e-01 +7.2763274808785994e+00 +6.4082855213676035e+00 -1.6123865244522875e+01 -3.4694030697755421e+04 -1.5654838809017776e+05 +2.1295228842979389e+08 
+1.9500000000000000e+00 -5.5224770830518133e-01 +7.2771551592770836e+00 +6.3894453190761977e+00 -1.6325293922004445e+01 -3.4672086430299372e+04 -1.5333119783103812e+05 +2.1279420108415714e+08 
+2.0000000000000000e+00 -5.5226262909669688e-01 +7.2779990933904068e+00 +6.3699392139779700e+00 -1.6515187992943055e+01 -3.4643383105447305e+04 -1.5016821393143907e+05 +2.1259755703068781e+08 
+2.0499999999999998e+00 -5.5227786642630339e-01 +7.2788591771541151e+00 +6.3497630260445925e+00 -1.6692790427241370e+01 -3.4607782706856553e+04 -1.4706533756079638e+05 +2.1236159880010900e+08 
+2.1000000000000001e+00 -5.5229341840607060e-01 +7.2797352720577466e+00 +6.3289287627981370e+00 -1.6857867791366782e+01 -3.4565450369531391e+04 -1.4402584916184700e+05 +2.1208727687965915e+08 
+2.1499999999999999e+00 -5.5230928297695392e-01 +7.2806272282653826e+00 +6.3074526634958570e+00 -1.7010324842820683e+01 -3.4516626686061958e+04 -1.4105234691751399e+05 +2.1177596844854453e+08 
+2.2000000000000002e+00 -5.5232545807995592e-01 +7.2815348959384059e+00 +6.2853509643349321e+00 -1.7150066205983400e+01 -3.4461552163297667e+04 -1.3814743019049577e+05 +2.1142905009827098e+08 
+2.2500000000000000e+00 -5.5234194165602646e-01 +7.2824581252375946e+00 +6.2626399046785250e+00 -1.7276996477814709e+01 -3.4400467395680702e+04 -1.3531369850584527e+05 +2.1104789902093008e+08 
+2.2999999999999998e+00 -5.5235873164614713e-01 +7.2833967663253656e+00 +6.2393357232323883e+00 -1.7391020299823918e+01 -3.4333612961054270e+04 -1.3255375106792894e+05 +2.1063389230364281e+08 
+2.3500000000000001e+00 -5.5237582599126589e-01 +7.2843506693640787e+00 +6.2154546554667380e+00 -1.7492042304392406e+01 -3.4261229346763481e+04 -1.2987018714019645e+05 +2.1018840641128004e+08 
+2.3999999999999999e+00 -5.5239322263242085e-01 +7.2853196845178072e+00 +6.1910129422296389e+00 -1.7579967179478690e+01 -3.4183557190108906e+04 -1.2726560554012703e+05 +2.0971281884247598e+08 
+2.4500000000000002e+00 -5.5241091951058097e-01 +7.2863036619447081e+00 +6.1660268196368309e+00 -1.7654699366552624e+01 -3.4100836996342245e+04 -1.2474260709398345e+05 +2.0920850618737042e+08 
+2.5000000000000000e+00 -5.5242891456680765e-01 +7.2873024518119536e+00 +6.1405125246846204e+00 -1.7716143663652577e+01 -3.4013309297954540e+04 -1.2230378970865962e+05 +2.0867684523833758e+08 
+2.5499999999999998e+00 -5.5244720574205342e-01 +7.2883159042799504e+00 +6.1144862969326859e+00 -1.7764204575921212e+01 -3.3921214693969974e+04 -1.1995175370410357e+05 +2.0811921322697940e+08 
+2.6000000000000001e+00 -5.5246579097741966e-01 +7.2893438695128534e+00 +6.0879643727615367e+00 -1.7798786765015766e+01 -3.3824793699836082e+04 -1.1768909809699998e+05 +2.0753698683305368e+08 
+2.6499999999999999e+00 -5.5248466821391651e-01 +7.2903861976711681e+00 +6.0609629895885142e+00 -1.7819794728962862e+01 -3.3724286857916530e+04 -1.1551842324653838e+05 +2.0693154291698217e+08 
+2.7000000000000002e+00 -5.5250383539259029e-01 +7.2914427389196748e+00 +6.0334983852604633e+00 -1.7827133126474781e+01 -3.3619934721454156e+04 -1.1344232822938418e+05 +2.0630425840906462e+08 
+2.7500000000000000e+00 -5.5252329045449211e-01 +7.2925133434193175e+00 +6.0055867971257646e+00 -1.7820706464619612e+01 -3.3511977832694545e+04 -1.1146341331004941e+05 +2.0565651018268606e+08 
+2.7999999999999998e+00 -5.5254303134064653e-01 +7.2935978613316976e+00 +5.9772444612124271e+00 -1.7800419262667479e+01 -3.3400656697271232e+04 -1.0958427868695557e+05 +2.0498967485976589e+08 
+2.8500000000000001e+00 -5.5256305599215261e-01 +7.2946961428214303e+00 +5.9484876158160258e+00 -1.7766176158055000e+01 -3.3286211878925409e+04 -1.0780752358429173e+05 +2.0430512944504747e+08 
+2.8999999999999999e+00 -5.5258336235008032e-01 +7.2958080380479187e+00 +5.9193324978404736e+00 -1.7717881582052289e+01 -3.3168883909937671e+04 -1.0613574887042638e+05 +2.0360425076166603e+08 
+2.9500000000000002e+00 -5.5260394835551363e-01 +7.2969333971738166e+00 +5.8897953450783556e+00 -1.7655440071188931e+01 -3.3048913339693027e+04 -1.0457155463925625e+05 +2.0288841572194692e+08 
+3.0000000000000000e+00 -5.5262481194952051e-01 +7.2980720703613207e+00 +5.8598923917810346e+00 -1.7578756163750800e+01 -3.2926540628557472e+04 -1.0311754085971089e+05 +2.0215900066640189e+08 
+3.0499999999999998e+00 -5.5264595107317072e-01 +7.2992239077681882e+00 +5.8296398756771115e+00 -1.7487734192175424e+01 -3.2802006326425515e+04 -1.0177630927568383e+05 +2.0141738252722231e+08 
+3.1000000000000001e+00 -5.5266736366760805e-01 +7.3003887595589330e+00 +5.7990540372173722e+00 -1.7382278782646338e+01 -3.2675551058066914e+04 -1.0055045914393949e+05 +2.0066493875254667e+08 
+3.1499999999999999e+00 -5.5268904767390048e-01 +7.3015664758906640e+00 +5.7681511069875713e+00 -1.7262294237271320e+01 -3.2547415179583037e+04 -9.9442592445610411e+04 +1.9990304496774372e+08 
+3.2000000000000002e+00 -5.5271100103318305e-01 +7.3027569069238982e+00 +5.7369473266948559e+00 -1.7127685016526058e+01 -3.2417839352864317e+04 -9.8455309773327332e+04 +1.9913307889227667e+08 
+3.2500000000000000e+00 -5.5273322168652150e-01 +7.3039599028189999e+00 +5.7054589288897306e+00 -1.6978355549807464e+01 -3.2287063985627865e+04 -9.7591212072417577e+04 +1.9835641650512788e+08 
+3.2999999999999998e+00 -5.5275570757506953e-01 +7.3051753137305306e+00 +5.6737021518782091e+00 -1.6814210051128221e+01 -3.2155329645633203e+04 -9.6852901955060268e+04 +1.9757443488852596e+08 
+3.3500000000000001e+00 -5.5277845663997716e-01 +7.3064029898219154e+00 +5.6416932322944264e+00 -1.6635153083128213e+01 -3.2022876854369446e+04 -9.6242979237307925e+04 +1.9678851080980828e+08 
+3.3999999999999999e+00 -5.5280146682230979e-01 +7.3076427812464129e+00 +5.6094484045984876e+00 -1.6441088804236813e+01 -3.1889946072721195e+04 -9.5764046974828030e+04 +1.9600002062915030e+08 
+3.4500000000000002e+00 -5.5282473606320792e-01 +7.3088945381620247e+00 +5.5769839067042728e+00 -1.6231921560882196e+01 -3.1756777856570840e+04 -9.5418706733699582e+04 +1.9521034135614750e+08 
+3.5000000000000000e+00 -5.5284826230381579e-01 +7.3101581107245392e+00 +5.5443159716456627e+00 -1.6007555609562676e+01 -3.1623612631137879e+04 -9.5209560803732631e+04 +1.9442084912697163e+08 
+3.5499999999999998e+00 -5.5287204348529684e-01 +7.3114333490894845e+00 +5.5114608392642577e+00 -1.5767895204693996e+01 -3.1490690999338811e+04 -9.5139211465609536e+04 +1.9363292126187816e+08 
+3.6000000000000001e+00 -5.5289607754877279e-01 +7.3127201034115279e+00 +5.4784347421854802e+00 -1.5512844570366372e+01 -3.1358253378082514e+04 -9.5210261238905674e+04 +1.9284793386080924e+08 
+3.6499999999999999e+00 -5.5292036243539988e-01 +7.3140182238435303e+00 +5.4452539173098300e+00 -1.5242307859927436e+01 -3.1226540290817720e+04 -9.5425313207791085e+04 +1.9206726371820408e+08 
+3.6999999999999900e+00 -5.5294489608629327e-01 +7.3153275605385746e+00 +5.4119345994299914e+00 -1.4956189228859751e+01 -3.1095792211407592e+04 -9.5786970487084880e+04 +1.9129228732261655e+08 
+3.7499999999999898e+00 -5.5296967644267225e-01 +7.3166479636477577e+00 +5.3784930259318529e+00 -1.4654392775886061e+01 -3.0966249675472052e+04 -9.6297836575073845e+04 +1.9052438155707783e+08 
+3.7999999999999901e+00 -5.5299470144561635e-01 +7.3179792833248074e+00 +5.3449454285495603e+00 -1.4336822699792213e+01 -3.0838153074127800e+04 -9.6960514176892757e+04 +1.8976492236311409e+08 
+3.8499999999999899e+00 -5.5301996903635964e-01 +7.3193213697166870e+00 +5.3113080465944362e+00 -1.4003382932700962e+01 -3.0711742998198115e+04 -9.7777608183383243e+04 +1.8901528702005276e+08 
+3.8999999999999901e+00 -5.5304547715596686e-01 +7.3206740729734809e+00 +5.2775971120663527e+00 -1.3653977544000382e+01 -3.0587259837891033e+04 -9.8751722315595951e+04 +1.8827685144441670e+08 
+3.9499999999999900e+00 -5.5307122374569317e-01 +7.3220372432431811e+00 +5.2438288626359864e+00 -1.3288510520335514e+01 -3.0464944144332938e+04 -9.9885461008039798e+04 +1.8755099267682108e+08 
+3.9999999999999898e+00 -5.5309720674663398e-01 +7.3234107306725011e+00 +5.2100195303173198e+00 -1.2906885808798677e+01 -3.0345036309490726e+04 -1.0118142895264510e+05 +1.8683908666594180e+08 
+4.0499999999999901e+00 -5.5312342399693237e-01 +7.3247943852552613e+00 +5.1761832064963142e+00 -1.2509190713113746e+01 -3.0227739025720351e+04 -1.0264044093577783e+05 +1.8614231784343591e+08 
+4.0999999999999899e+00 -5.5314987292278639e-01 +7.3261880519035536e+00 +5.1423255422033067e+00 -1.2096218655145854e+01 -3.0113097089475992e+04 -1.0425639986139811e+05 +1.8546102861147815e+08 
+4.1499999999999897e+00 -5.5317655084763928e-01 +7.3275915731532075e+00 +5.1084501277419632e+00 -1.1668934746532065e+01 -3.0001114238737438e+04 -1.0602152778629394e+05 +1.8479533332760659e+08 
+4.1999999999999904e+00 -5.5320345509489099e-01 +7.3290047915428413e+00 +5.0745605550050419e+00 -1.1228304210253205e+01 -2.9891794253222175e+04 -1.0792804595311941e+05 +1.8414534663390306e+08 
+4.2499999999999902e+00 -5.5323058298801586e-01 +7.3304275496127502e+00 +5.0406604148150347e+00 -1.0775292353081054e+01 -2.9785140878814243e+04 -1.0996817489811248e+05 +1.8351118292091638e+08 
+4.2999999999999901e+00 -5.5325793185036742e-01 +7.3318596898997388e+00 +5.0067532955765373e+00 -1.0310864334428583e+01 -2.9681157798778415e+04 -1.1213413641328283e+05 +1.8289295616764176e+08 
+4.3499999999999899e+00 -5.5328549900541868e-01 +7.3333010549439148e+00 +4.9728427928185797e+00 -9.8359854651679814e+00 -2.9579848887911281e+04 -1.1441815102663824e+05 +1.8229078164426333e+08 
+4.3999999999999897e+00 -5.5331328177657246e-01 +7.3347514872830324e+00 +4.9389324945358748e+00 -9.3516209443070633e+00 -2.9481217815404820e+04 -1.1681244029015092e+05 +1.8170477321837988e+08 
+4.4499999999999904e+00 -5.5334127748722739e-01 +7.3362108294535640e+00 +4.9050259924305406e+00 -8.8587359574412794e+00 -2.9385268348687128e+04 -1.1930922574778795e+05 +1.8113504541934979e+08 
+4.4999999999999902e+00 -5.5336948346084380e-01 +7.3376789239927493e+00 +4.8711268805330006e+00 -8.3582956976140537e+00 -2.9292004320773012e+04 -1.2190072904085631e+05 +1.8058171322490200e+08 
+4.5499999999999901e+00 -5.5339789702083220e-01 +7.3391556134401661e+00 +4.8372387486005541e+00 -7.8512654899058933e+00 -2.9201429444343550e+04 -1.2457917060894458e+05 +1.8004489078097543e+08 
+4.5999999999999899e+00 -5.5342651549064947e-01 +7.3406407403301754e+00 +4.8033651901885506e+00 -7.3386104284588987e+00 -2.9113547535891557e+04 -1.2733677294074347e+05 +1.7952469293898010e+08 
+4.6499999999999897e+00 -5.5345533619364362e-01 +7.3421341472017216e+00 +4.7695097985625701e+00 -6.8212958113164959e+00 -2.9028362398627163e+04 -1.3016575679630593e+05 +1.7902123443783221e+08 
+4.6999999999999904e+00 -5.5348435645330396e-01 +7.3436356765897237e+00 +4.7356761646924674e+00 -6.3002867870949784e+00 -2.8945877779784114e+04 -1.3305834418812185e+05 +1.7853462966164276e+08 
+4.7499999999999902e+00 -5.5351357359300457e-01 +7.3451451710315130e+00 +4.7018678828814666e+00 -5.7765486125023875e+00 -2.8866097512382905e+04 -1.3600675624787374e+05 +1.7806499355305395e+08 
+4.7999999999999901e+00 -5.5354298493621434e-01 +7.3466624730630592e+00 +4.6680885453765848e+00 -5.2510464808513886e+00 -2.8789025369358544e+04 -1.3900321472779190e+05 +1.7761244063432163e+08 
+4.8499999999999899e+00 -5.5357258780627039e-01 +7.3481874252200994e+00 +4.6343417459632814e+00 -4.7247456114806496e+00 -2.8714665170368553e+04 -1.4203994106749463e+05 +1.7717708575790146e+08 
+4.8999999999999897e+00 -5.5360237952667268e-01 +7.3497198700361732e+00 +4.6006310788923459e+00 -4.1986111220514992e+00 -2.8643020741956560e+04 -1.4510915768349761e+05 +1.7675904380269235e+08 
+4.9499999999999904e+00 -5.5363235742081229e-01 +7.3512596500486076e+00 +4.5669601384013010e+00 -3.6736083108707507e+00 -2.8574095906239989e+04 -1.4820308544429232e+05 +1.7635842959856012e+08 
+4.9999999999999902e+00 -5.5366251881206840e-01 +7.3528066077919352e+00 +4.5333325184501909e+00 -3.1507023623060468e+00 -2.8507894487582893e+04 -1.5131394623652028e+05 +1.7597535802651921e+08 
+5.0499999999999901e+00 -5.5369286102623805e-01 +7.3543605779969718e+00 +4.4997522135444061e+00 -2.6308662768740616e+00 -2.8444420205421622e+04 -1.5443396197028496e+05 +1.7560994332655033e+08 
