# field on trajectory
# s[mm] rx[mm] ry[mm] rz[mm] bx[T] by[T] bz[T]
0.0000000000000000e+00 +8.2850000000000001e+00 +0.0000000000000000e+00 +0.0000000000000000e+00 -2.9780971953376929e-02 -5.8246570755858529e-01 +5.8154110940239773e-03
5.0000000000000003e-02 +8.2849999304264053e+00 +0.0000000000000000e+00 +4.9999999999935457e-02 -2.9780954707397802e-02 -5.8246545868280852e-01 +5.8152944318851669e-03
1.0000000000000001e-01 +8.2849997217056437e+00 +0.0000000000000000e+00 +9.9999999999483669e-02 -2.9780954454191641e-02 -5.8246555848724513e-01 +5.8151821235713939e-03
1.5000000000000002e-01 +8.2849993738376924e+00 +0.0000000000000000e+00 +1.4999999999825742e-01 -2.9780971283530550e-02 -5.8246600625366440e-01 +5.8150741605002814e-03
2.0000000000000001e-01 +8.2849988868224447e+00 +0.0000000000000000e+00 +1.9999999999586945e-01 -2.9781005285187189e-02 -5.8246680126385153e-01 +5.8149705340895001e-03
2.5000000000000000e-01 +8.2849982606597106e+00 +0.0000000000000000e+00 +2.4999999999193251e-01 -2.9781056548934804e-02 -5.8246794279960890e-01 +5.8148712357567718e-03
2.9999999999999999e-01 +8.2849974953492165e+00 +0.0000000000000000e+00 +2.9999999998605936e-01 -2.9781125164547204e-02 -5.8246943014275476e-01 +5.8147762569198506e-03
3.4999999999999998e-01 +8.2849965908906089e+00 +0.0000000000000000e+00 +3.4999999997786280e-01 -2.9781211221798880e-02 -5.8247126257512494e-01 +5.8146855889965607e-03
3.9999999999999997e-01 +8.2849955472834491e+00 +0.0000000000000000e+00 +3.9999999996695551e-01 -2.9781314810464959e-02 -5.8247343937857021e-01 +5.8145992234047575e-03
4.4999999999999996e-01 +8.2849943645272166e+00 +0.0000000000000000e+00 +4.4999999995295026e-01 -2.9781436020321204e-02 -5.8247595983495792e-01 +5.8145171515623659e-03
4.9999999999999994e-01 +8.2849930426213110e+00 +0.0000000000000000e+00 +4.9999999993545979e-01 -2.9781574941144140e-02 -5.8247882322617228e-01 +5.8144393648873558e-03
5.4999999999999993e-01 +8.2849915815650466e+00 +0.0000000000000000e+00 +5.4999999991409676e-01 -2.9781731662710989e-02 -5.8248202883411249e-01 +5.8143658547977674e-03
5.9999999999999998e-01 +8.2849899813576577e+00 +0.0000000000000000e+00 +5.9999999988847397e-01 -2.9781906274799687e-02 -5.8248557594069361e-01 +5.8142966127116818e-03
6.5000000000000002e-01 +8.2849882419982972e+00 +0.0000000000000000e+00 +6.4999999985820411e-01 -2.9782098867189022e-02 -5.8248946382784705e-01 +5.8142316300472579e-03
7.0000000000000007e-01 +8.2849863634860377e+00 +0.0000000000000000e+00 +6.9999999982289984e-01 -2.9782309529658536e-02 -5.8249369177751953e-01 +5.8141708982227119e-03
7.5000000000000011e-01 +8.2849843458198666e+00 +0.0000000000000000e+00 +7.4999999978217391e-01 -2.9782538351988574e-02 -5.8249825907167263e-01 +5.8141144086563219e-03
8.0000000000000016e-01 +8.2849821889986952e+00 +0.0000000000000000e+00 +7.9999999973563896e-01 -2.9782785423960359e-02 -5.8250316499228405e-01 +5.8140621527664384e-03
8.5000000000000020e-01 +8.2849798930213510e+00 +0.0000000000000000e+00 +8.4999999968290774e-01 -2.9783050835355981e-02 -5.8250840882134625e-01 +5.8140141219714765e-03
9.0000000000000024e-01 +8.2849774578865798e+00 +0.0000000000000000e+00 +8.9999999962359278e-01 -2.9783334675958430e-02 -5.8251398984086700e-01 +5.8139703076899264e-03
9.5000000000000029e-01 +8.2849748835930495e+00 +0.0000000000000000e+00 +9.4999999955730674e-01 -2.9783637035551608e-02 -5.8251990733286929e-01 +5.8139307013403540e-03
1.0000000000000002e+00 +8.2849721701393459e+00 +0.0000000000000000e+00 +9.9999999948366225e-01 -2.9783958003920381e-02 -5.8252616057939088e-01 +5.8138952943413902e-03
1.0500000000000003e+00 +8.2849693175239771e+00 +0.0000000000000000e+00 +1.0499999994022720e+00 -2.9784297670850567e-02 -5.8253274886248385e-01 +5.8138640781117534e-03
1.1000000000000003e+00 +8.2849663257453674e+00 +0.0000000000000000e+00 +1.0999999993127485e+00 -2.9784656126128975e-02 -5.8253967146421537e-01 +5.8138370440702306e-03
1.1500000000000004e+00 +8.2849631948018629e+00 +0.0000000000000000e+00 +1.1499999992147043e+00 -2.9785033459543458e-02 -5.8254692766666683e-01 +5.8138141836356974e-03
1.2000000000000004e+00 +8.2849599246917318e+00 +0.0000000000000000e+00 +1.1999999991077519e+00 -2.9785429760882901e-02 -5.8255451675193481e-01 +5.8137954882271151e-03
1.2500000000000004e+00 +8.2849565154131604e+00 +0.0000000000000000e+00 +1.2499999989915040e+00 -2.9785845119937249e-02 -5.8256243800212903e-01 +5.8137809492635178e-03
1.3000000000000005e+00 +8.2849529669642550e+00 +0.0000000000000000e+00 +1.2999999988655730e+00 -2.9786279626497547e-02 -5.8257069069937406e-01 +5.8137705581640334e-03
1.3500000000000005e+00 +8.2849492793430457e+00 +0.0000000000000000e+00 +1.3499999987295714e+00 -2.9786733370355964e-02 -5.8257927412580868e-01 +5.8137643063478819e-03
1.4000000000000006e+00 +8.2849454525474826e+00 +0.0000000000000000e+00 +1.3999999985831117e+00 -2.9787206441305811e-02 -5.8258818756358566e-01 +5.8137621852343687e-03
1.4500000000000006e+00 +8.2849414865754341e+00 +0.0000000000000000e+00 +1.4499999984258063e+00 -2.9787698929141539e-02 -5.8259743029487066e-01 +5.8137641862428891e-03
1.5000000000000007e+00 +8.2849373814246938e+00 +0.0000000000000000e+00 +1.4999999982572676e+00 -2.9788210923658836e-02 -5.8260700160184420e-01 +5.8137703007929411e-03
1.5500000000000007e+00 +8.2849331370929757e+00 +0.0000000000000000e+00 +1.5499999980771080e+00 -2.9788742514654572e-02 -5.8261690076669959e-01 +5.8137805203041107e-03
1.6000000000000008e+00 +8.2849287535779137e+00 +0.0000000000000000e+00 +1.5999999978849397e+00 -2.9789293791926852e-02 -5.8262712707164455e-01 +5.8137948361960861e-03
1.6500000000000008e+00 +8.2849242308770652e+00 +0.0000000000000000e+00 +1.6499999976803754e+00 -2.9789864845275103e-02 -5.8263767979889902e-01 +5.8138132398886594e-03
1.7000000000000008e+00 +8.2849195689879096e+00 +0.0000000000000000e+00 +1.6999999974630271e+00 -2.9790455764499960e-02 -5.8264855823069706e-01 +5.8138357228017159e-03
1.7500000000000009e+00 +8.2849147679078481e+00 +0.0000000000000000e+00 +1.7499999972325073e+00 -2.9791066639403431e-02 -5.8265976164928568e-01 +5.8138622763552559e-03
1.8000000000000009e+00 +8.2849098276342037e+00 +0.0000000000000000e+00 +1.7999999969884282e+00 -2.9791697559788825e-02 -5.8267128933692425e-01 +5.8138928919693727e-03
1.8500000000000010e+00 +8.2849047481642231e+00 +0.0000000000000000e+00 +1.8499999967304019e+00 -2.9792348615460873e-02 -5.8268314057588644e-01 +5.8139275610642810e-03
1.9000000000000010e+00 +8.2848995294950765e+00 +0.0000000000000000e+00 +1.8999999964580407e+00 -2.9793019896225605e-02 -5.8269531464845725e-01 +5.8139662750602951e-03
1.9500000000000011e+00 +8.2848941716238542e+00 +0.0000000000000000e+00 +1.9499999961709567e+00 -2.9793711491890546e-02 -5.8270781083693513e-01 +5.8140090253778485e-03
2.0000000000000009e+00 +8.2848886745475703e+00 +0.0000000000000000e+00 +1.9999999958687620e+00 -2.9794423492264601e-02 -5.8272062842363082e-01 +5.8140558034374835e-03
2.0500000000000007e+00 +8.2848830382631640e+00 +0.0000000000000000e+00 +2.0499999955510688e+00 -2.9795155918124198e-02 -5.8273376649857689e-01 +5.8141065993253952e-03
2.1000000000000005e+00 +8.2848772627674965e+00 +0.0000000000000000e+00 +2.0999999952174893e+00 -2.9795908514110878e-02 -5.8274722338265317e-01 +5.8141613977899971e-03
2.1500000000000004e+00 +8.2848713480573526e+00 +0.0000000000000000e+00 +2.1499999948676352e+00 -2.9796680955832426e-02 -5.8276099720446073e-01 +5.8142201822453032e-03
2.2000000000000002e+00 +8.2848652941294425e+00 +0.0000000000000000e+00 +2.1999999945011184e+00 -2.9797472918896766e-02 -5.8277508609261197e-01 +5.8142829361053968e-03
2.2500000000000000e+00 +8.2848591009804018e+00 +0.0000000000000000e+00 +2.2499999941175512e+00 -2.9798284078911906e-02 -5.8278948817573140e-01 +5.8143496427844133e-03
2.2999999999999998e+00 +8.2848527686067879e+00 +0.0000000000000000e+00 +2.2999999937165456e+00 -2.9799114111485801e-02 -5.8280420158245361e-01 +5.8144202856965409e-03
2.3499999999999996e+00 +8.2848462970050871e+00 +0.0000000000000000e+00 +2.3499999932977134e+00 -2.9799962692226435e-02 -5.8281922444142609e-01 +5.8144948482560304e-03
2.3999999999999995e+00 +8.2848396861717095e+00 +0.0000000000000000e+00 +2.3999999928606659e+00 -2.9800829496741673e-02 -5.8283455488130631e-01 +5.8145733138771864e-03
2.4499999999999993e+00 +8.2848329361029940e+00 +0.0000000000000000e+00 +2.4499999924050155e+00 -2.9801714200639179e-02 -5.8285019103076285e-01 +5.8146556659743670e-03
2.4999999999999991e+00 +8.2848260467952048e+00 +0.0000000000000000e+00 +2.4999999919303737e+00 -2.9802616479526461e-02 -5.8286613101847584e-01 +5.8147418879619757e-03
2.5499999999999989e+00 +8.2848190182445336e+00 +0.0000000000000000e+00 +2.5499999914363523e+00 -2.9803536009010756e-02 -5.8288237297313561e-01 +5.8148319632544774e-03
2.5999999999999988e+00 +8.2848118504471007e+00 +0.0000000000000000e+00 +2.5999999909225631e+00 -2.9804472464698958e-02 -5.8289891502344204e-01 +5.8149258752663727e-03
2.6499999999999986e+00 +8.2848045433989554e+00 +0.0000000000000000e+00 +2.6499999903886176e+00 -2.9805425522197650e-02 -5.8291575529810702e-01 +5.8150236074122185e-03
2.6999999999999984e+00 +8.2847970970960745e+00 +0.0000000000000000e+00 +2.6999999898341271e+00 -2.9806394857112929e-02 -5.8293289192585207e-01 +5.8151251431066186e-03
2.7499999999999982e+00 +8.2847895115343633e+00 +0.0000000000000000e+00 +2.7499999892587037e+00 -2.9807380145050445e-02 -5.8295032303540861e-01 +5.8152304657642139e-03
2.7999999999999980e+00 +8.2847817867096580e+00 +0.0000000000000000e+00 +2.7999999886619582e+00 -2.9808381061615302e-02 -5.8296804675551817e-01 +5.8153395587996915e-03
2.8499999999999979e+00 +8.2847739226177257e+00 +0.0000000000000000e+00 +2.8499999880435025e+00 -2.9809397282412029e-02 -5.8298606121493213e-01 +5.8154524056277801e-03
2.8999999999999977e+00 +8.2847659192542604e+00 +0.0000000000000000e+00 +2.8999999874029481e+00 -2.9810428483044500e-02 -5.8300436454241167e-01 +5.8155689896632490e-03
2.9499999999999975e+00 +8.2847577766148923e+00 +0.0000000000000000e+00 +2.9499999867399063e+00 -2.9811474339115906e-02 -5.8302295486672706e-01 +5.8156892943209042e-03
2.9999999999999973e+00 +8.2847494946951787e+00 +0.0000000000000000e+00 +2.9999999860539881e+00 -2.9812534526228684e-02 -5.8304183031665868e-01 +5.8158133030155922e-03
3.0499999999999972e+00 +8.2847410734906113e+00 +0.0000000000000000e+00 +3.0499999853448050e+00 -2.9813608719984470e-02 -5.8306098902099557e-01 +5.8159409991621891e-03
3.0999999999999970e+00 +8.2847325129966141e+00 +0.0000000000000000e+00 +3.0999999846119684e+00 -2.9814696595984035e-02 -5.8308042910853641e-01 +5.8160723661756092e-03
3.1499999999999968e+00 +8.2847238132085419e+00 +0.0000000000000000e+00 +3.1499999838550892e+00 -2.9815797829827236e-02 -5.8310014870808879e-01 +5.8162073874707962e-03
3.1999999999999966e+00 +8.2847149741216839e+00 +0.0000000000000000e+00 +3.1999999830737784e+00 -2.9816912097112975e-02 -5.8312014594846817e-01 +5.8163460464627312e-03
3.2499999999999964e+00 +8.2847059957312634e+00 +0.0000000000000000e+00 +3.2499999822676475e+00 -2.9818039073439131e-02 -5.8314041895850022e-01 +5.8164883265664196e-03
3.2999999999999963e+00 +8.2846968780324381e+00 +0.0000000000000000e+00 +3.2999999814363070e+00 -2.9819178434402488e-02 -5.8316096586701782e-01 +5.8166342111968944e-03
3.3499999999999961e+00 +8.2846876210202982e+00 +0.0000000000000000e+00 +3.3499999805793683e+00 -2.9820329855598734e-02 -5.8318178480286353e-01 +5.8167836837692199e-03
3.3999999999999959e+00 +8.2846782246898716e+00 +0.0000000000000000e+00 +3.3999999796964420e+00 -2.9821493012622342e-02 -5.8320287389488712e-01 +5.8169367276984787e-03
3.4499999999999957e+00 +8.2846686890361187e+00 +0.0000000000000000e+00 +3.4499999787871389e+00 -2.9822667581066564e-02 -5.8322423127194734e-01 +5.8170933263997854e-03
3.4999999999999956e+00 +8.2846590140539380e+00 +0.0000000000000000e+00 +3.4999999778510698e+00 -2.9823853236523343e-02 -5.8324585506290982e-01 +5.8172534632882703e-03
3.5499999999999954e+00 +8.2846491997381655e+00 +0.0000000000000000e+00 +3.5499999768878454e+00 -2.9825049654583321e-02 -5.8326774339664911e-01 +5.8174171217790869e-03
3.5999999999999952e+00 +8.2846392460835698e+00 +0.0000000000000000e+00 +3.5999999758970769e+00 -2.9826256510835675e-02 -5.8328989440204715e-01 +5.8175842852874107e-03
3.6499999999999950e+00 +8.2846291530848610e+00 +0.0000000000000000e+00 +3.6499999748783742e+00 -2.9827473480868179e-02 -5.8331230620799324e-01 +5.8177549372284299e-03
3.6999999999999948e+00 +8.2846189207366852e+00 +0.0000000000000000e+00 +3.6999999738313485e+00 -2.9828700240267077e-02 -5.8333497694338454e-01 +5.8179290610173573e-03
3.7499999999999947e+00 +8.2846085490336261e+00 +0.0000000000000000e+00 +3.7499999727556101e+00 -2.9829936464617034e-02 -5.8335790473712468e-01 +5.8181066400694098e-03
3.7999999999999945e+00 +8.2845980379702073e+00 +0.0000000000000000e+00 +3.7999999716507693e+00 -2.9831181829501136e-02 -5.8338108771812547e-01 +5.8182876577998251e-03
3.8499999999999943e+00 +8.2845873875408902e+00 +0.0000000000000000e+00 +3.8499999705164365e+00 -2.9832436010500764e-02 -5.8340452401530507e-01 +5.8184720976238516e-03
3.8999999999999941e+00 +8.2845765977400756e+00 +0.0000000000000000e+00 +3.8999999693522223e+00 -2.9833698683195586e-02 -5.8342821175758830e-01 +5.8186599429567495e-03
3.9499999999999940e+00 +8.2845656685621041e+00 +0.0000000000000000e+00 +3.9499999681577367e+00 -2.9834969523163515e-02 -5.8345214907390763e-01 +5.8188511772137861e-03
3.9999999999999938e+00 +8.2845546000012593e+00 +0.0000000000000000e+00 +3.9999999669325903e+00 -2.9836248205980565e-02 -5.8347633409320088e-01 +5.8190457838102399e-03
4.0499999999999936e+00 +8.2845433920517628e+00 +0.0000000000000000e+00 +4.0499999656763928e+00 -2.9837534485904257e-02 -5.8350076483226210e-01 +5.8192437496918312e-03
4.0999999999999934e+00 +8.2845320447077775e+00 +0.0000000000000000e+00 +4.0999999643887541e+00 -2.9838828431925278e-02 -5.8352543885928376e-01 +5.8194450759260913e-03
4.1499999999999932e+00 +8.2845205579634111e+00 +0.0000000000000000e+00 +4.1499999630692850e+00 -2.9840130191719196e-02 -5.8355035363030772e-01 +5.8196497671110011e-03
4.1999999999999931e+00 +8.2845089318127094e+00 +0.0000000000000000e+00 +4.1999999617175954e+00 -2.9841439912963185e-02 -5.8357550660137691e-01 +5.8198578278445146e-03
4.2499999999999929e+00 +8.2844971662496647e+00 +0.0000000000000000e+00 +4.2499999603332945e+00 -2.9842757743336092e-02 -5.8360089522853453e-01 +5.8200692627245875e-03
4.2999999999999927e+00 +8.2844852612682125e+00 +0.0000000000000000e+00 +4.2999999589159925e+00 -2.9844083830518415e-02 -5.8362651696782375e-01 +5.8202840763491529e-03
4.3499999999999925e+00 +8.2844732168622315e+00 +0.0000000000000000e+00 +4.3499999574652994e+00 -2.9845418322192452e-02 -5.8365236927528752e-01 +5.8205022733161240e-03
4.3999999999999924e+00 +8.2844610330255470e+00 +0.0000000000000000e+00 +4.3999999559808245e+00 -2.9846761366042262e-02 -5.8367844960696835e-01 +5.8207238582233915e-03
4.4499999999999922e+00 +8.2844487097519277e+00 +0.0000000000000000e+00 +4.4499999544621778e+00 -2.9848113109753795e-02 -5.8370475541890798e-01 +5.8209488356688347e-03
4.4999999999999920e+00 +8.2844362470350887e+00 +0.0000000000000000e+00 +4.4999999529089685e+00 -2.9849473701014904e-02 -5.8373128416714692e-01 +5.8211772102502966e-03
4.5499999999999918e+00 +8.2844236448686939e+00 +0.0000000000000000e+00 +4.5499999513208067e+00 -2.9850843287515413e-02 -5.8375803330772413e-01 +5.8214089865656063e-03
4.5999999999999917e+00 +8.2844109032463535e+00 +0.0000000000000000e+00 +4.5999999496973007e+00 -2.9852222016947146e-02 -5.8378500029667701e-01 +5.8216441692125476e-03
4.6499999999999915e+00 +8.2843980221616249e+00 +0.0000000000000000e+00 +4.6499999480380607e+00 -2.9853610037004010e-02 -5.8381218259004131e-01 +5.8218827627888967e-03
4.6999999999999913e+00 +8.2843850016080136e+00 +0.0000000000000000e+00 +4.6999999463426967e+00 -2.9855007495382030e-02 -5.8383957764384953e-01 +5.8221247718923744e-03
4.7499999999999911e+00 +8.2843718415789773e+00 +0.0000000000000000e+00 +4.7499999446108170e+00 -2.9856414539779427e-02 -5.8386718291413264e-01 +5.8223702011206916e-03
4.7999999999999909e+00 +8.2843585420679187e+00 +0.0000000000000000e+00 +4.7999999428420308e+00 -2.9857831317896599e-02 -5.8389499585691773e-01 +5.8226190550715057e-03
4.8499999999999908e+00 +8.2843451030681958e+00 +0.0000000000000000e+00 +4.8499999410359473e+00 -2.9859257977436295e-02 -5.8392301392822910e-01 +5.8228713383424455e-03
4.8999999999999906e+00 +8.2843315245731155e+00 +0.0000000000000000e+00 +4.8999999391921758e+00 -2.9860694666103558e-02 -5.8395123458408771e-01 +5.8231270555310945e-03
4.9499999999999904e+00 +8.2843178065759346e+00 +0.0000000000000000e+00 +4.9499999373103254e+00 -2.9862141531605820e-02 -5.8397965528051021e-01 +5.8233862112350016e-03
4.9999999999999902e+00 +8.2843039490698658e+00 +0.0000000000000000e+00 +4.9999999353900044e+00 -2.9863598721652947e-02 -5.8400827347350970e-01 +5.8236488100516653e-03
5.0499999999999901e+00 +8.2842899520480699e+00 +0.0000000000000000e+00 +5.0499999334308221e+00 -2.9865066383957327e-02 -5.8403708661909426e-01 +5.8239148565785437e-03
5.0999999999999899e+00 +8.2842758155036655e+00 +0.0000000000000000e+00 +5.0999999314323867e+00 -2.9866544666233886e-02 -5.8406609217326799e-01 +5.8241843554130467e-03
5.1499999999999897e+00 +8.2842615394297230e+00 +0.0000000000000000e+00 +5.1499999293943075e+00 -2.9868033716200129e-02 -5.8409528759202889e-01 +5.8244573111525290e-03
5.1999999999999895e+00 +8.2842471238192683e+00 +0.0000000000000000e+00 +5.1999999273161928e+00 -2.9869533681576233e-02 -5.8412467033137083e-01 +5.8247337283943122e-03
5.2499999999999893e+00 +8.2842325686652831e+00 +0.0000000000000000e+00 +5.2499999251976517e+00 -2.9871044710085067e-02 -5.8415423784728104e-01 +5.8250136117356374e-03
5.2999999999999892e+00 +8.2842178739607029e+00 +0.0000000000000000e+00 +5.2999999230382917e+00 -2.9872566949452284e-02 -5.8418398759574164e-01 +5.8252969657737160e-03
5.3499999999999890e+00 +8.2842030396984221e+00 +0.0000000000000000e+00 +5.3499999208377220e+00 -2.9874100547406301e-02 -5.8421391703272763e-01 +5.8255837951056849e-03
5.3999999999999888e+00 +8.2841880658712892e+00 +0.0000000000000000e+00 +5.3999999185955510e+00 -2.9875645651678457e-02 -5.8424402361420880e-01 +5.8258741043286334e-03
5.4499999999999886e+00 +8.2841729524721135e+00 +0.0000000000000000e+00 +5.4499999163113859e+00 -2.9877202410002968e-02 -5.8427430479614684e-01 +5.8261678980395830e-03
5.4999999999999885e+00 +8.2841576994936599e+00 +0.0000000000000000e+00 +5.4999999139848361e+00 -2.9878770970117020e-02 -5.8430475803449655e-01 +5.8264651808354944e-03
5.5499999999999883e+00 +8.2841423069286542e+00 +0.0000000000000000e+00 +5.5499999116155090e+00 -2.9880351479760835e-02 -5.8433538078520619e-01 +5.8267659573132680e-03
5.5999999999999881e+00 +8.2841267747697813e+00 +0.0000000000000000e+00 +5.5999999092030128e+00 -2.9881944086677735e-02 -5.8436617050421513e-01 +5.8270702320697273e-03
5.6499999999999879e+00 +8.2841111030096855e+00 +0.0000000000000000e+00 +5.6499999067469560e+00 -2.9883548938614113e-02 -5.8439712464745519e-01 +5.8273780097016338e-03
5.6999999999999877e+00 +8.2840952916409716e+00 +0.0000000000000000e+00 +5.6999999042469458e+00 -2.9885166183319573e-02 -5.8442824067085020e-01 +5.8276892948056821e-03
5.7499999999999876e+00 +8.2840793406562074e+00 +0.0000000000000000e+00 +5.7499999017025907e+00 -2.9886795968546983e-02 -5.8445951603031499e-01 +5.8280040919784833e-03
5.7999999999999874e+00 +8.2840632500479217e+00 +0.0000000000000000e+00 +5.7999998991134980e+00 -2.9888438442052436e-02 -5.8449094818175551e-01 +5.8283224058165821e-03
5.8499999999999872e+00 +8.2840470198086056e+00 +0.0000000000000000e+00 +5.8499998964792752e+00 -2.9890093751595417e-02 -5.8452253458106851e-01 +5.8286442409164431e-03
5.8999999999999870e+00 +8.2840306499307133e+00 +0.0000000000000000e+00 +5.8999998937995297e+00 -2.9891762044938795e-02 -5.8455427268414106e-01 +5.8289696018744537e-03
