# field on trajectory
# s[mm] rx[mm] ry[mm] rz[mm] bx[T] by[T] bz[T]
0.0000000000000000e+00 +8.5980000000000008e+00 +0.0000000000000000e+00 +0.0000000000000000e+00 -2.8871431736357978e-02 -5.5258107472442308e-01 +5.7015558249822454e-03
-5.0000000000000003e-02 +8.5979999309952664e+00 +0.0000000000000000e+00 -4.9999999999936512e-02 -2.8871790168546786e-02 -5.5258121333176280e-01 +5.7019990713343960e-03
-1.0000000000000001e-01 +8.5979997239810242e+00 +0.0000000000000000e+00 -9.9999999999492092e-02 -2.8872170185284714e-02 -5.5258174128420023e-01 +5.7024427573403582e-03
-1.5000000000000002e-01 +8.5979993789571427e+00 +0.0000000000000000e+00 -1.4999999999828581e-01 -2.8872571720147421e-02 -5.5258265795878403e-01 +5.7028868463753898e-03
-2.0000000000000001e-01 +8.5979988959233946e+00 +0.0000000000000000e+00 -1.9999999999593673e-01 -2.8872994706712264e-02 -5.5258396273257937e-01 +5.7033313018148126e-03
-2.5000000000000000e-01 +8.5979982748794512e+00 +0.0000000000000000e+00 -2.4999999999206390e-01 -2.8873439078558168e-02 -5.5258565498266676e-01 +5.7037760870340126e-03
-2.9999999999999999e-01 +8.5979975158248916e+00 +0.0000000000000000e+00 -2.9999999998628640e-01 -2.8873904769265601e-02 -5.5258773408614326e-01 +5.7042211654084359e-03
-3.4999999999999998e-01 +8.5979966187591952e+00 +0.0000000000000000e+00 -3.4999999997822329e-01 -2.8874391712416451e-02 -5.5259019942012244e-01 +5.7046665003135785e-03
-3.9999999999999997e-01 +8.5979955836817474e+00 +0.0000000000000000e+00 -3.9999999996749358e-01 -2.8874899841593998e-02 -5.5259305036173356e-01 +5.7051120551249801e-03
-4.4999999999999996e-01 +8.5979944105918360e+00 +0.0000000000000000e+00 -4.4999999995371631e-01 -2.8875429090382747e-02 -5.5259628628812163e-01 +5.7055577932182220e-03
-4.9999999999999994e-01 +8.5979930994886526e+00 +0.0000000000000000e+00 -4.9999999993651051e-01 -2.8875979392368495e-02 -5.5259990657644875e-01 +5.7060036779689243e-03
-5.4999999999999993e-01 +8.5979916503712932e+00 +0.0000000000000000e+00 -5.4999999991549520e-01 -2.8876550681138098e-02 -5.5260391060389247e-01 +5.7064496727527282e-03
-5.9999999999999998e-01 +8.5979900632387594e+00 +0.0000000000000000e+00 -5.9999999989028940e-01 -2.8877142890279515e-02 -5.5260829774764686e-01 +5.7068957409452991e-03
-6.5000000000000002e-01 +8.5979883380899533e+00 +0.0000000000000000e+00 -6.4999999986051216e-01 -2.8877755953381646e-02 -5.5261306738492189e-01 +5.7073418459223256e-03
-7.0000000000000007e-01 +8.5979864749236850e+00 +0.0000000000000000e+00 -6.9999999982578243e-01 -2.8878389804034319e-02 -5.5261821889294449e-01 +5.7077879510595052e-03
-7.5000000000000011e-01 +8.5979844737386664e+00 +0.0000000000000000e+00 -7.4999999978571907e-01 -2.8879044375828181e-02 -5.5262375164895694e-01 +5.7082340197325372e-03
-8.0000000000000016e-01 +8.5979823345335173e+00 +0.0000000000000000e+00 -7.9999999973994118e-01 -2.8879719602354588e-02 -5.5262966503021782e-01 +5.7086800153171207e-03
-8.5000000000000020e-01 +8.5979800573067600e+00 +0.0000000000000000e+00 -8.4999999968806772e-01 -2.8880415417205613e-02 -5.5263595841400270e-01 +5.7091259011889566e-03
-9.0000000000000024e-01 +8.5979776420568221e+00 +0.0000000000000000e+00 -8.9999999962971755e-01 -2.8881131753973902e-02 -5.5264263117760271e-01 +5.7095716407237311e-03
-9.5000000000000029e-01 +8.5979750887820376e+00 +0.0000000000000000e+00 -9.4999999956450953e-01 -2.8881868546252597e-02 -5.5264968269832548e-01 +5.7100171972971079e-03
-1.0000000000000002e+00 +8.5979723974806461e+00 +0.0000000000000000e+00 -9.9999999949206264e-01 -2.8882625727635291e-02 -5.5265711235349435e-01 +5.7104625342847314e-03
-1.0500000000000003e+00 +8.5979695681507913e+00 +0.0000000000000000e+00 -1.0499999994119957e+00 -2.8883403231715937e-02 -5.5266491952045060e-01 +5.7109076150622219e-03
-1.1000000000000003e+00 +8.5979666007905244e+00 +0.0000000000000000e+00 -1.0999999993239276e+00 -2.8884200992088768e-02 -5.5267310357654964e-01 +5.7113524030051582e-03
-1.1500000000000004e+00 +8.5979634953977992e+00 +0.0000000000000000e+00 -1.1499999992274770e+00 -2.8885018942348212e-02 -5.5268166389916473e-01 +5.7117968614890857e-03
-1.2000000000000004e+00 +8.5979602519704805e+00 +0.0000000000000000e+00 -1.1999999991222630e+00 -2.8885857016088853e-02 -5.5269059986568514e-01 +5.7122409538894999e-03
-1.2500000000000004e+00 +8.5979568705063354e+00 +0.0000000000000000e+00 -1.2499999990079040e+00 -2.8886715146905276e-02 -5.5269991085351566e-01 +5.7126846435818441e-03
-1.3000000000000005e+00 +8.5979533510030368e+00 +0.0000000000000000e+00 -1.2999999988840192e+00 -2.8887593268392086e-02 -5.5270959624007865e-01 +5.7131278939415069e-03
-1.3500000000000005e+00 +8.5979496934581690e+00 +0.0000000000000000e+00 -1.3499999987502269e+00 -2.8888491314143748e-02 -5.5271965540281198e-01 +5.7135706683438111e-03
-1.4000000000000006e+00 +8.5979458978692165e+00 +0.0000000000000000e+00 -1.3999999986061460e+00 -2.8889409217754559e-02 -5.5273008771916998e-01 +5.7140129301640162e-03
-1.4500000000000006e+00 +8.5979419642335753e+00 +0.0000000000000000e+00 -1.4499999984513952e+00 -2.8890346912818572e-02 -5.5274089256662373e-01 +5.7144546427773026e-03
-1.5000000000000007e+00 +8.5979378925485470e+00 +0.0000000000000000e+00 -1.4999999982855932e+00 -2.8891304332929486e-02 -5.5275206932266063e-01 +5.7148957695587728e-03
-1.5500000000000007e+00 +8.5979336828113411e+00 +0.0000000000000000e+00 -1.5499999981083583e+00 -2.8892281411680567e-02 -5.5276361736478397e-01 +5.7153362738834416e-03
-1.6000000000000008e+00 +8.5979293350190726e+00 +0.0000000000000000e+00 -1.5999999979193094e+00 -2.8893278082664640e-02 -5.5277553607051411e-01 +5.7157761191262346e-03
-1.6500000000000008e+00 +8.5979248491687645e+00 +0.0000000000000000e+00 -1.6499999977180648e+00 -2.8894294279473896e-02 -5.5278782481738697e-01 +5.7162152686619765e-03
-1.7000000000000008e+00 +8.5979202252573472e+00 +0.0000000000000000e+00 -1.6999999975042435e+00 -2.8895329935699949e-02 -5.5280048298295625e-01 +5.7166536858653944e-03
-1.7500000000000009e+00 +8.5979154632816606e+00 +0.0000000000000000e+00 -1.7499999972774634e+00 -2.8896384984933653e-02 -5.5281350994479084e-01 +5.7170913341111030e-03
-1.8000000000000009e+00 +8.5979105632384503e+00 +0.0000000000000000e+00 -1.7999999970373433e+00 -2.8897459360765047e-02 -5.5282690508047672e-01 +5.7175281767736039e-03
-1.8500000000000010e+00 +8.5979055251243715e+00 +0.0000000000000000e+00 -1.8499999967835015e+00 -2.8898552996783330e-02 -5.5284066776761609e-01 +5.7179641772272787e-03
-1.9000000000000010e+00 +8.5979003489359869e+00 +0.0000000000000000e+00 -1.8999999965155563e+00 -2.8899665826576711e-02 -5.5285479738382770e-01 +5.7183992988463807e-03
-1.9500000000000011e+00 +8.5978950346697669e+00 +0.0000000000000000e+00 -1.9499999962331260e+00 -2.8900797783732408e-02 -5.5286929330674739e-01 +5.7188335050050330e-03
-2.0000000000000009e+00 +8.5978895823220913e+00 +0.0000000000000000e+00 -1.9999999959358292e+00 -2.8901948801836476e-02 -5.5288415491402632e-01 +5.7192667590772288e-03
-2.0500000000000007e+00 +8.5978839918892493e+00 +0.0000000000000000e+00 -2.0499999956232839e+00 -2.8903118805384695e-02 -5.5289938130824756e-01 +5.7196990258958453e-03
-2.1000000000000005e+00 +8.5978782633674378e+00 +0.0000000000000000e+00 -2.0999999952951085e+00 -2.8904307682515614e-02 -5.5291497049166949e-01 +5.7201302761298025e-03
-2.1500000000000004e+00 +8.5978723967527628e+00 +0.0000000000000000e+00 -2.1499999949509210e+00 -2.8905515312279095e-02 -5.5293092019147738e-01 +5.7205604819069002e-03
-2.2000000000000002e+00 +8.5978663920412401e+00 +0.0000000000000000e+00 -2.1999999945903395e+00 -2.8906741573725601e-02 -5.5294722813486874e-01 +5.7209896153547742e-03
-2.2500000000000000e+00 +8.5978602492287983e+00 +0.0000000000000000e+00 -2.2499999942129820e+00 -2.8907986345906241e-02 -5.5296389204905272e-01 +5.7214176486008895e-03
-2.2999999999999998e+00 +8.5978539683112754e+00 +0.0000000000000000e+00 -2.2999999938184668e+00 -2.8909249507872801e-02 -5.5298090966125057e-01 +5.7218445537725367e-03
-2.3499999999999996e+00 +8.5978475492844222e+00 +0.0000000000000000e+00 -2.3499999934064117e+00 -2.8910530938677789e-02 -5.5299827869869489e-01 +5.7222703029968193e-03
-2.3999999999999995e+00 +8.5978409921438992e+00 +0.0000000000000000e+00 -2.3999999929764351e+00 -2.8911830517374493e-02 -5.5301599688862890e-01 +5.7226948684006582e-03
-2.4499999999999993e+00 +8.5978342968852814e+00 +0.0000000000000000e+00 -2.4499999925281544e+00 -2.8913148123016964e-02 -5.5303406195830807e-01 +5.7231182221107787e-03
-2.4999999999999991e+00 +8.5978274635040570e+00 +0.0000000000000000e+00 -2.4999999920611873e+00 -2.8914483634660079e-02 -5.5305247163499716e-01 +5.7235403362536977e-03
-2.5499999999999989e+00 +8.5978204919956305e+00 +0.0000000000000000e+00 -2.5499999915751519e+00 -2.8915836931359597e-02 -5.5307122364597205e-01 +5.7239611829557327e-03
-2.5999999999999988e+00 +8.5978133823553158e+00 +0.0000000000000000e+00 -2.5999999910696663e+00 -2.8917207892172132e-02 -5.5309031571851941e-01 +5.7243807343429929e-03
-2.6499999999999986e+00 +8.5978061345783452e+00 +0.0000000000000000e+00 -2.6499999905443477e+00 -2.8918596396155280e-02 -5.5310974557993464e-01 +5.7247989625413571e-03
-2.6999999999999984e+00 +8.5977987486598675e+00 +0.0000000000000000e+00 -2.6999999899988136e+00 -2.8920002322367577e-02 -5.5312951095752450e-01 +5.7252158396764868e-03
-2.7499999999999982e+00 +8.5977912245949444e+00 +0.0000000000000000e+00 -2.7499999894326823e+00 -2.8921425549868558e-02 -5.5314960957860349e-01 +5.7256313378738167e-03
-2.7999999999999980e+00 +8.5977835623785577e+00 +0.0000000000000000e+00 -2.7999999888455709e+00 -2.8922865957718806e-02 -5.5317003917049690e-01 +5.7260454292585349e-03
-2.8499999999999979e+00 +8.5977757620056057e+00 +0.0000000000000000e+00 -2.8499999882370970e+00 -2.8924323424979977e-02 -5.5319079746053856e-01 +5.7264580859555936e-03
-2.8999999999999977e+00 +8.5977678234709032e+00 +0.0000000000000000e+00 -2.8999999876068778e+00 -2.8925797830714840e-02 -5.5321188217607109e-01 +5.7268692800896978e-03
-2.9499999999999975e+00 +8.5977597467691833e+00 +0.0000000000000000e+00 -2.9499999869545306e+00 -2.8927289053987285e-02 -5.5323329104444541e-01 +5.7272789837852908e-03
-2.9999999999999973e+00 +8.5977515318951010e+00 +0.0000000000000000e+00 -2.9999999862796729e+00 -2.8928796973862424e-02 -5.5325502179302177e-01 +5.7276871691665657e-03
-3.0499999999999972e+00 +8.5977431788432277e+00 +0.0000000000000000e+00 -3.0499999855819224e+00 -2.8930321469406547e-02 -5.5327707214916744e-01 +5.7280938083574375e-03
-3.0999999999999970e+00 +8.5977346876080567e+00 +0.0000000000000000e+00 -3.0999999848608959e+00 -2.8931862419687208e-02 -5.5329943984025820e-01 +5.7284988734815547e-03
-3.1499999999999968e+00 +8.5977260581840014e+00 +0.0000000000000000e+00 -3.1499999841162105e+00 -2.8933419703773253e-02 -5.5332212259367752e-01 +5.7289023366622911e-03
-3.1999999999999966e+00 +8.5977172905653969e+00 +0.0000000000000000e+00 -3.1999999833474830e+00 -2.8934993200734827e-02 -5.5334511813681575e-01 +5.7293041700227270e-03
-3.2499999999999964e+00 +8.5977083847465003e+00 +0.0000000000000000e+00 -3.2499999825543311e+00 -2.8936582789643488e-02 -5.5336842419707077e-01 +5.7297043456856602e-03
-3.2999999999999963e+00 +8.5976993407214906e+00 +0.0000000000000000e+00 -3.2999999817363714e+00 -2.8938188349572111e-02 -5.5339203850184815e-01 +5.7301028357735848e-03
-3.3499999999999961e+00 +8.5976901584844718e+00 +0.0000000000000000e+00 -3.3499999808932208e+00 -2.8939809759595057e-02 -5.5341595877855831e-01 +5.7304996124086949e-03
-3.3999999999999959e+00 +8.5976808380294685e+00 +0.0000000000000000e+00 -3.3999999800244960e+00 -2.8941446898788130e-02 -5.5344018275462037e-01 +5.7308946477128793e-03
-3.4499999999999957e+00 +8.5976713793504302e+00 +0.0000000000000000e+00 -3.4499999791298142e+00 -2.8943099646228630e-02 -5.5346470815745763e-01 +5.7312879138077116e-03
-3.4999999999999956e+00 +8.5976617824412322e+00 +0.0000000000000000e+00 -3.4999999782087916e+00 -2.8944767880995394e-02 -5.5348953271450119e-01 +5.7316793828144389e-03
-3.5499999999999954e+00 +8.5976520472956750e+00 +0.0000000000000000e+00 -3.5499999772610451e+00 -2.8946451482168845e-02 -5.5351465415318635e-01 +5.7320690268539863e-03
-3.5999999999999952e+00 +8.5976421739074844e+00 +0.0000000000000000e+00 -3.5999999762861914e+00 -2.8948150328830975e-02 -5.5354007020095497e-01 +5.7324568180469465e-03
-3.6499999999999950e+00 +8.5976321622703118e+00 +0.0000000000000000e+00 -3.6499999752838468e+00 -2.8949864300065471e-02 -5.5356577858525424e-01 +5.7328427285135699e-03
-3.6999999999999948e+00 +8.5976220123777374e+00 +0.0000000000000000e+00 -3.6999999742536276e+00 -2.8951593274957641e-02 -5.5359177703353546e-01 +5.7332267303737651e-03
-3.7499999999999947e+00 +8.5976117242232686e+00 +0.0000000000000000e+00 -3.7499999731951505e+00 -2.8953337132594528e-02 -5.5361806327325591e-01 +5.7336087957470909e-03
-3.7999999999999945e+00 +8.5976012978003400e+00 +0.0000000000000000e+00 -3.7999999721080315e+00 -2.8955095752064952e-02 -5.5364463503187633e-01 +5.7339888967527482e-03
-3.8499999999999943e+00 +8.5975907331023151e+00 +0.0000000000000000e+00 -3.8499999709918873e+00 -2.8956869012459474e-02 -5.5367149003686267e-01 +5.7343670055095735e-03
-3.8999999999999941e+00 +8.5975800301224865e+00 +0.0000000000000000e+00 -3.8999999698463337e+00 -2.8958656792870477e-02 -5.5369862601568465e-01 +5.7347430941360336e-03
-3.9499999999999940e+00 +8.5975691888540773e+00 +0.0000000000000000e+00 -3.9499999686709866e+00 -2.8960458972392217e-02 -5.5372604069581621e-01 +5.7351171347502245e-03
-3.9999999999999938e+00 +8.5975582092902414e+00 +0.0000000000000000e+00 -3.9999999674654623e+00 -2.8962275430120848e-02 -5.5375373180473419e-01 +5.7354890994698628e-03
-4.0499999999999936e+00 +8.5975470914240617e+00 +0.0000000000000000e+00 -4.0499999662293771e+00 -2.8964106038393476e-02 -5.5378169698315427e-01 +5.7358589650487873e-03
-4.0999999999999934e+00 +8.5975358352485554e+00 +0.0000000000000000e+00 -4.0999999649623460e+00 -2.8965950642505130e-02 -5.5380993352473240e-01 +5.7362267267867398e-03
-4.1499999999999932e+00 +8.5975244407566684e+00 +0.0000000000000000e+00 -4.1499999636639853e+00 -2.8967809080991273e-02 -5.5383843863636506e-01 +5.7365923846201148e-03
-4.1999999999999931e+00 +8.5975129079412831e+00 +0.0000000000000000e+00 -4.1999999623339113e+00 -2.8969681192388668e-02 -5.5386720952495228e-01 +5.7369559384854944e-03
-4.2499999999999929e+00 +8.5975012367952139e+00 +0.0000000000000000e+00 -4.2499999609717385e+00 -2.8971566815235449e-02 -5.5389624339739929e-01 +5.7373173883196486e-03
-4.2999999999999927e+00 +8.5974894273112099e+00 +0.0000000000000000e+00 -4.2999999595770833e+00 -2.8973465788071112e-02 -5.5392553746061646e-01 +5.7376767340595490e-03
-4.3499999999999925e+00 +8.5974774794819542e+00 +0.0000000000000000e+00 -4.3499999581495610e+00 -2.8975377949436543e-02 -5.5395508892151768e-01 +5.7380339756423863e-03
-4.3999999999999924e+00 +8.5974653933000678e+00 +0.0000000000000000e+00 -4.3999999566887871e+00 -2.8977303137874017e-02 -5.5398489498702175e-01 +5.7383891130055719e-03
-4.4499999999999922e+00 +8.5974531687581042e+00 +0.0000000000000000e+00 -4.4499999551943770e+00 -2.8979241191927237e-02 -5.5401495286405111e-01 +5.7387421460867579e-03
-4.4999999999999920e+00 +8.5974408058485583e+00 +0.0000000000000000e+00 -4.4999999536659461e+00 -2.8981191950141309e-02 -5.5404525975953245e-01 +5.7390930748238422e-03
-4.5499999999999918e+00 +8.5974283045638611e+00 +0.0000000000000000e+00 -4.5499999521031089e+00 -2.8983155251062789e-02 -5.5407581288039542e-01 +5.7394418991549810e-03
-4.5999999999999917e+00 +8.5974156648963813e+00 +0.0000000000000000e+00 -4.5999999505054809e+00 -2.8985130933239716e-02 -5.5410660943357426e-01 +5.7397886190186081e-03
-4.6499999999999915e+00 +8.5974028868384273e+00 +0.0000000000000000e+00 -4.6499999488726775e+00 -2.8987118835221575e-02 -5.5413764662600606e-01 +5.7401332343534296e-03
-4.6999999999999913e+00 +8.5973899703822472e+00 +0.0000000000000000e+00 -4.6999999472043132e+00 -2.8989118795559321e-02 -5.5416892166463061e-01 +5.7404757450984431e-03
-4.7499999999999911e+00 +8.5973769155200301e+00 +0.0000000000000000e+00 -4.7499999455000026e+00 -2.8991130652805459e-02 -5.5420043175639155e-01 +5.7408161511929663e-03
-4.7999999999999909e+00 +8.5973637222439070e+00 +0.0000000000000000e+00 -4.7999999437593610e+00 -2.8993154245513981e-02 -5.5423217410823489e-01 +5.7411544525766134e-03
-4.8499999999999908e+00 +8.5973503905459516e+00 +0.0000000000000000e+00 -4.8499999419820030e+00 -2.8995189412240427e-02 -5.5426414592710949e-01 +5.7414906491893361e-03
-4.8999999999999906e+00 +8.5973369204181775e+00 +0.0000000000000000e+00 -4.8999999401675431e+00 -2.8997235991541855e-02 -5.5429634441996678e-01 +5.7418247409714209e-03
-4.9499999999999904e+00 +8.5973233118525432e+00 +0.0000000000000000e+00 -4.9499999383155968e+00 -2.8999293821976944e-02 -5.5432876679376020e-01 +5.7421567278635038e-03
-4.9999999999999902e+00 +8.5973095648409501e+00 +0.0000000000000000e+00 -4.9999999364257777e+00 -2.9001362742105862e-02 -5.5436141025544561e-01 +5.7424866098065783e-03
-5.0499999999999901e+00 +8.5972956793752466e+00 +0.0000000000000000e+00 -5.0499999344977002e+00 -2.9003442590490459e-02 -5.5439427201198077e-01 +5.7428143867420131e-03
-5.0999999999999899e+00 +8.5972816554472260e+00 +0.0000000000000000e+00 -5.0999999325309791e+00 -2.9005533205694142e-02 -5.5442734927032566e-01 +5.7431400586115617e-03
-5.1499999999999897e+00 +8.5972674930486281e+00 +0.0000000000000000e+00 -5.1499999305252278e+00 -2.9007634426281962e-02 -5.5446063923744071e-01 +5.7434636253573612e-03
-5.1999999999999895e+00 +8.5972531921711361e+00 +0.0000000000000000e+00 -5.1999999284800609e+00 -2.9009746090820597e-02 -5.5449413912028966e-01 +5.7437850869219665e-03
-5.2499999999999893e+00 +8.5972387528063852e+00 +0.0000000000000000e+00 -5.2499999263950921e+00 -2.9011868037878370e-02 -5.5452784612583583e-01 +5.7441044432483363e-03
-5.2999999999999892e+00 +8.5972241749459570e+00 +0.0000000000000000e+00 -5.2999999242699358e+00 -2.9014000106025287e-02 -5.5456175746104441e-01 +5.7444216942798684e-03
-5.3499999999999890e+00 +8.5972094585813821e+00 +0.0000000000000000e+00 -5.3499999221042058e+00 -2.9016142133833051e-02 -5.5459587033288227e-01 +5.7447368399603958e-03
-5.3999999999999888e+00 +8.5971946037041409e+00 +0.0000000000000000e+00 -5.3999999198975157e+00 -2.9018293959875017e-02 -5.5463018194831526e-01 +5.7450498802341923e-03
-5.4499999999999886e+00 +8.5971796103056644e+00 +0.0000000000000000e+00 -5.4499999176494800e+00 -2.9020455422726295e-02 -5.5466468951431147e-01 +5.7453608150460078e-03
-5.4999999999999885e+00 +8.5971644783773336e+00 +0.0000000000000000e+00 -5.4999999153597114e+00 -2.9022626360963699e-02 -5.5469939023783865e-01 +5.7456696443410572e-03
-5.5499999999999883e+00 +8.5971492079104816e+00 +0.0000000000000000e+00 -5.5499999130278237e+00 -2.9024806613165803e-02 -5.5473428132586533e-01 +5.7459763680650366e-03
-5.5999999999999881e+00 +8.5971337988963956e+00 +0.0000000000000000e+00 -5.5999999106534304e+00 -2.9026996017912941e-02 -5.5476935998535937e-01 +5.7462809861641368e-03
-5.6499999999999879e+00 +8.5971182513263145e+00 +0.0000000000000000e+00 -5.6499999082361452e+00 -2.9029194413787186e-02 -5.5480462342328918e-01 +5.7465834985850643e-03
-5.6999999999999877e+00 +8.5971025651914310e+00 +0.0000000000000000e+00 -5.6999999057755808e+00 -2.9031401639372442e-02 -5.5484006884662262e-01 +5.7468839052750333e-03
-5.7499999999999876e+00 +8.5970867404828919e+00 +0.0000000000000000e+00 -5.7499999032713509e+00 -2.9033617533254379e-02 -5.5487569346232746e-01 +5.7471822061817878e-03
-5.7999999999999874e+00 +8.5970707771918011e+00 +0.0000000000000000e+00 -5.7999999007230683e+00 -2.9035841934020538e-02 -5.5491149447737032e-01 +5.7474784012536200e-03
-5.8499999999999872e+00 +8.5970546753092165e+00 +0.0000000000000000e+00 -5.8499998981303456e+00 -2.9038074680260234e-02 -5.5494746909871773e-01 +5.7477724904393609e-03
