# field on trajectory
# s[mm] rx[mm] ry[mm] rz[mm] bx[T] by[T] bz[T]
0.0000000000000000e+00 +8.5389999999999997e+00 +0.0000000000000000e+00 +0.0000000000000000e+00 -2.8317136105005213e-02 -5.2327568424996707e-01 +5.3910666760329630e-03
5.0000000000000003e-02 +8.5389999310175480e+00 +0.0000000000000000e+00 +4.9999999999936554e-02 -2.8316303275316212e-02 -5.2326821616525010e-01 +5.3887515179956175e-03
1.0000000000000001e-01 +8.5389997240714894e+00 +0.0000000000000000e+00 +9.9999999999492425e-02 -2.8315497087818095e-02 -5.2326110910778911e-01 +5.3864317149129592e-03
1.5000000000000002e-01 +8.5389993791636964e+00 +0.0000000000000000e+00 +1.4999999999828695e-01 -2.8314717507968913e-02 -5.2325436342228449e-01 +5.3841075211582502e-03
2.0000000000000001e-01 +8.5389988962959489e+00 +0.0000000000000000e+00 +1.9999999999593948e-01 -2.8313964501227851e-02 -5.2324797945345458e-01 +5.3817791911045122e-03
2.5000000000000000e-01 +8.5389982754699307e+00 +0.0000000000000000e+00 +2.4999999999206937e-01 -2.8313238033055209e-02 -5.2324195754603342e-01 +5.3794469791245605e-03
2.9999999999999999e-01 +8.5389975166872283e+00 +0.0000000000000000e+00 +2.9999999998629601e-01 -2.8312538068912440e-02 -5.2323629804477223e-01 +5.3771111395910318e-03
3.4999999999999998e-01 +8.5389966199493337e+00 +0.0000000000000000e+00 +3.4999999997823877e-01 -2.8311864574262179e-02 -5.2323100129443934e-01 +5.3747719268764076e-03
3.9999999999999997e-01 +8.5389955852576449e+00 +0.0000000000000000e+00 +3.9999999996751706e-01 -2.8311217514568190e-02 -5.2322606763981938e-01 +5.3724295953530557e-03
4.4999999999999996e-01 +8.5389944126134623e+00 +0.0000000000000000e+00 +4.4999999995375028e-01 -2.8310596855295422e-02 -5.2322149742571555e-01 +5.3700843993932379e-03
4.9999999999999994e-01 +8.5389931020179901e+00 +0.0000000000000000e+00 +4.9999999993655780e-01 -2.8310002561909988e-02 -5.2321729099694625e-01 +5.3677365933691547e-03
5.4999999999999993e-01 +8.5389916534723369e+00 +0.0000000000000000e+00 +5.4999999991555915e-01 -2.8309434599879189e-02 -5.2321344869834807e-01 +5.3653864316529692e-03
5.9999999999999998e-01 +8.5389900669775169e+00 +0.0000000000000000e+00 +5.9999999989037367e-01 -2.8308892934671519e-02 -5.2320997087477450e-01 +5.3630341686168384e-03
6.5000000000000002e-01 +8.5389883425344468e+00 +0.0000000000000000e+00 +6.4999999986062074e-01 -2.8308377531756655e-02 -5.2320685787109644e-01 +5.3606800586329341e-03
7.0000000000000007e-01 +8.5389864801439472e+00 +0.0000000000000000e+00 +6.9999999982591987e-01 -2.8307888356605509e-02 -5.2320411003220180e-01 +5.3583243560734765e-03
7.5000000000000011e-01 +8.5389844798067429e+00 +0.0000000000000000e+00 +7.4999999978589049e-01 -2.8307425374690175e-02 -5.2320172770299611e-01 +5.3559673153107650e-03
8.0000000000000016e-01 +8.5389823415234609e+00 +0.0000000000000000e+00 +7.9999999974015212e-01 -2.8306988551483954e-02 -5.2319971122840181e-01 +5.3536091907171995e-03
8.5000000000000020e-01 +8.5389800652946342e+00 +0.0000000000000000e+00 +8.4999999968832407e-01 -2.8306577852461403e-02 -5.2319806095335930e-01 +5.3512502366653168e-03
9.0000000000000024e-01 +8.5389776511206961e+00 +0.0000000000000000e+00 +8.9999999963002586e-01 -2.8306193243098299e-02 -5.2319677722282654e-01 +5.3488907075278170e-03
9.5000000000000029e-01 +8.5389750990019877e+00 +0.0000000000000000e+00 +9.4999999956487691e-01 -2.8305834688871663e-02 -5.2319586038177868e-01 +5.3465308576775812e-03
1.0000000000000002e+00 +8.5389724089387489e+00 +0.0000000000000000e+00 +9.9999999949249663e-01 -2.8305502155259749e-02 -5.2319531077520820e-01 +5.3441709414877190e-03
1.0500000000000003e+00 +8.5389695809311252e+00 +0.0000000000000000e+00 +1.0499999994125044e+00 -2.8305195607742084e-02 -5.2319512874812635e-01 +5.3418112133315817e-03
1.1000000000000003e+00 +8.5389666149791648e+00 +0.0000000000000000e+00 +1.0999999993245200e+00 -2.8304915011799433e-02 -5.2319531464556068e-01 +5.3394519275827999e-03
1.1500000000000004e+00 +8.5389635110828177e+00 +0.0000000000000000e+00 +1.1499999992281624e+00 -2.8304660332913838e-02 -5.2319586881255731e-01 +5.3370933386152983e-03
1.2000000000000004e+00 +8.5389602692419384e+00 +0.0000000000000000e+00 +1.1999999991230512e+00 -2.8304431536568656e-02 -5.2319679159418109e-01 +5.3347357008033478e-03
1.2500000000000004e+00 +8.5389568894562853e+00 +0.0000000000000000e+00 +1.2499999990088058e+00 -2.8304228588248437e-02 -5.2319808333551254e-01 +5.3323792685215686e-03
1.3000000000000005e+00 +8.5389533717255155e+00 +0.0000000000000000e+00 +1.2999999988850457e+00 -2.8304051453439109e-02 -5.2319974438165184e-01 +5.3300242961449784e-03
1.3500000000000005e+00 +8.5389497160491921e+00 +0.0000000000000000e+00 +1.3499999987513902e+00 -2.8303900097627840e-02 -5.2320177507771648e-01 +5.3276710380490066e-03
1.4000000000000006e+00 +8.5389459224267785e+00 +0.0000000000000000e+00 +1.3999999986074587e+00 -2.8303774486303144e-02 -5.2320417576884226e-01 +5.3253197486095305e-03
1.4500000000000006e+00 +8.5389419908576443e+00 +0.0000000000000000e+00 +1.4499999984528704e+00 -2.8303674584954808e-02 -5.2320694680018287e-01 +5.3229706822029042e-03
1.5000000000000007e+00 +8.5389379213410557e+00 +0.0000000000000000e+00 +1.4999999982872450e+00 -2.8303600359073967e-02 -5.2321008851691075e-01 +5.3206240932059832e-03
1.5500000000000007e+00 +8.5389337138761867e+00 +0.0000000000000000e+00 +1.5499999981102015e+00 -2.8303551774153061e-02 -5.2321360126421523e-01 +5.3182802359961505e-03
1.6000000000000008e+00 +8.5389293684621101e+00 +0.0000000000000000e+00 +1.5999999979213595e+00 -2.8303528795685859e-02 -5.2321748538730528e-01 +5.3159393649513552e-03
1.6500000000000008e+00 +8.5389248850978028e+00 +0.0000000000000000e+00 +1.6499999977203381e+00 -2.8303531389167490e-02 -5.2322174123140719e-01 +5.3136017344501303e-03
1.7000000000000008e+00 +8.5389202637821420e+00 +0.0000000000000000e+00 +1.6999999975067568e+00 -2.8303559520094425e-02 -5.2322636914176635e-01 +5.3112675988716291e-03
1.7500000000000009e+00 +8.5389155045139074e+00 +0.0000000000000000e+00 +1.7499999972802347e+00 -2.8303613153964475e-02 -5.2323136946364623e-01 +5.3089372125956465e-03
1.8000000000000009e+00 +8.5389106072917809e+00 +0.0000000000000000e+00 +1.7999999970403910e+00 -2.8303692256276838e-02 -5.2323674254232855e-01 +5.3066108300026541e-03
1.8500000000000010e+00 +8.5389055721143468e+00 +0.0000000000000000e+00 +1.8499999967868450e+00 -2.8303796792532039e-02 -5.2324248872311407e-01 +5.3042887054738251e-03
1.9000000000000010e+00 +8.5389003989800898e+00 +0.0000000000000000e+00 +1.8999999965192160e+00 -2.8303926728232023e-02 -5.2324860835132203e-01 +5.3019710933910622e-03
1.9500000000000011e+00 +8.5388950878873953e+00 +0.0000000000000000e+00 +1.9499999962371231e+00 -2.8304082028880087e-02 -5.2325510177228962e-01 +5.2996582481370270e-03
2.0000000000000009e+00 +8.5388896388345525e+00 +0.0000000000000000e+00 +1.9999999959401855e+00 -2.8304262659980942e-02 -5.2326196933137381e-01 +5.2973504240951689e-03
2.0500000000000007e+00 +8.5388840518197497e+00 +0.0000000000000000e+00 +2.0499999956280224e+00 -2.8304468584248951e-02 -5.2326921105201740e-01 +5.2950478634764793e-03
2.1000000000000005e+00 +8.5388783268410791e+00 +0.0000000000000000e+00 +2.0999999953002528e+00 -2.8304699753232840e-02 -5.2327682566995537e-01 +5.2927507597996101e-03
2.1500000000000004e+00 +8.5388724638965314e+00 +0.0000000000000000e+00 +2.1499999949564956e+00 -2.8304956115690592e-02 -5.2328481159900397e-01 +5.2904592944105610e-03
2.2000000000000002e+00 +8.5388664629840019e+00 +0.0000000000000000e+00 +2.1999999945963702e+00 -2.8305237620381157e-02 -5.2329316725299402e-01 +5.2881736486559694e-03
2.2500000000000000e+00 +8.5388603241012877e+00 +0.0000000000000000e+00 +2.2499999942194955e+00 -2.8305544216064411e-02 -5.2330189104577129e-01 +5.2858940038831145e-03
2.2999999999999998e+00 +8.5388540472460885e+00 +0.0000000000000000e+00 +2.2999999938254905e+00 -2.8305875851501142e-02 -5.2331098139119436e-01 +5.2836205414399278e-03
2.3499999999999996e+00 +8.5388476324160081e+00 +0.0000000000000000e+00 +2.3499999934139741e+00 -2.8306232475453025e-02 -5.2332043670313566e-01 +5.2813534426750181e-03
2.3999999999999995e+00 +8.5388410796085523e+00 +0.0000000000000000e+00 +2.3999999929845655e+00 -2.8306614036682606e-02 -5.2333025539548117e-01 +5.2790928889376691e-03
2.4499999999999993e+00 +8.5388343888211349e+00 +0.0000000000000000e+00 +2.4499999925368834e+00 -2.8307020483953279e-02 -5.2334043588212942e-01 +5.2768390615778706e-03
2.4999999999999991e+00 +8.5388275600510699e+00 +0.0000000000000000e+00 +2.4999999920705465e+00 -2.8307451766029296e-02 -5.2335097657699292e-01 +5.2745921419463148e-03
2.5499999999999989e+00 +8.5388205932955792e+00 +0.0000000000000000e+00 +2.5499999915851737e+00 -2.8307907831675690e-02 -5.2336187589399563e-01 +5.2723523113944190e-03
2.5999999999999988e+00 +8.5388134885517886e+00 +0.0000000000000000e+00 +2.5999999910803839e+00 -2.8308388629658333e-02 -5.2337313224707560e-01 +5.2701197512743450e-03
2.6499999999999986e+00 +8.5388062458167298e+00 +0.0000000000000000e+00 +2.6499999905557958e+00 -2.8308894108743821e-02 -5.2338474405018165e-01 +5.2678946429389915e-03
2.6999999999999984e+00 +8.5387988650873421e+00 +0.0000000000000000e+00 +2.6999999900110283e+00 -2.8309424217699542e-02 -5.2339670971727525e-01 +5.2656771677420293e-03
2.7499999999999982e+00 +8.5387913463604708e+00 +0.0000000000000000e+00 +2.7499999894456999e+00 -2.8309978905293628e-02 -5.2340902766233033e-01 +5.2634675070379073e-03
2.7999999999999980e+00 +8.5387836896328686e+00 +0.0000000000000000e+00 +2.7999999888594291e+00 -2.8310558120294919e-02 -5.2342169629933200e-01 +5.2612658421818601e-03
2.8499999999999979e+00 +8.5387758949011960e+00 +0.0000000000000000e+00 +2.8499999882518350e+00 -2.8311161811472949e-02 -5.2343471404227648e-01 +5.2590723545299272e-03
2.8999999999999977e+00 +8.5387679621620194e+00 +0.0000000000000000e+00 +2.8999999876225355e+00 -2.8311789927597947e-02 -5.2344807930517223e-01 +5.2568872254389670e-03
2.9499999999999975e+00 +8.5387598914118161e+00 +0.0000000000000000e+00 +2.9499999869711497e+00 -2.8312442417440787e-02 -5.2346179050203767e-01 +5.2547106362666636e-03
2.9999999999999973e+00 +8.5387516826469696e+00 +0.0000000000000000e+00 +2.9999999862972957e+00 -2.8313119229773014e-02 -5.2347584604690278e-01 +5.2525427683715519e-03
3.0499999999999972e+00 +8.5387433358637761e+00 +0.0000000000000000e+00 +3.0499999856005919e+00 -2.8313820313366773e-02 -5.2349024435380831e-01 +5.2503838031130214e-03
3.0999999999999970e+00 +8.5387348510584378e+00 +0.0000000000000000e+00 +3.0999999848806570e+00 -2.8314545616994820e-02 -5.2350498383680444e-01 +5.2482339218513268e-03
3.1499999999999968e+00 +8.5387262282270697e+00 +0.0000000000000000e+00 +3.1499999841371089e+00 -2.8315295089430519e-02 -5.2352006290995279e-01 +5.2460933059476156e-03
3.1999999999999966e+00 +8.5387174673656947e+00 +0.0000000000000000e+00 +3.1999999833695663e+00 -2.8316068679447744e-02 -5.2353547998732408e-01 +5.2439621367639253e-03
3.2499999999999964e+00 +8.5387085684702502e+00 +0.0000000000000000e+00 +3.2499999825776471e+00 -2.8316866335821009e-02 -5.2355123348299970e-01 +5.2418405956632099e-03
3.2999999999999963e+00 +8.5386995315365812e+00 +0.0000000000000000e+00 +3.2999999817609695e+00 -2.8317688007325256e-02 -5.2356732181106924e-01 +5.2397288640093406e-03
3.3499999999999961e+00 +8.5386903565604477e+00 +0.0000000000000000e+00 +3.3499999809191516e+00 -2.8318533642736021e-02 -5.2358374338563318e-01 +5.2376271231671327e-03
3.3999999999999959e+00 +8.5386810435375189e+00 +0.0000000000000000e+00 +3.3999999800518119e+00 -2.8319403190829279e-02 -5.2360049662080033e-01 +5.2355355545023506e-03
3.4499999999999957e+00 +8.5386715924633769e+00 +0.0000000000000000e+00 +3.4499999791585680e+00 -2.8320296600381489e-02 -5.2361757993068869e-01 +5.2334543393817200e-03
3.4999999999999956e+00 +8.5386620033335188e+00 +0.0000000000000000e+00 +3.4999999782390381e+00 -2.8321213820169593e-02 -5.2363499172942474e-01 +5.2313836591729480e-03
3.5499999999999954e+00 +8.5386522761433543e+00 +0.0000000000000000e+00 +3.5499999772928401e+00 -2.8322154798970909e-02 -5.2365273043114391e-01 +5.2293236952447317e-03
3.5999999999999952e+00 +8.5386424108882064e+00 +0.0000000000000000e+00 +3.5999999763195918e+00 -2.8323119485563226e-02 -5.2367079444998976e-01 +5.2272746289667715e-03
3.6499999999999950e+00 +8.5386324075633109e+00 +0.0000000000000000e+00 +3.6499999753189107e+00 -2.8324107828724698e-02 -5.2368918220011362e-01 +5.2252366417097863e-03
3.6999999999999948e+00 +8.5386222661638218e+00 +0.0000000000000000e+00 +3.6999999742904151e+00 -2.8325119777233863e-02 -5.2370789209567570e-01 +5.2232099148455304e-03
3.7499999999999947e+00 +8.5386119866848063e+00 +0.0000000000000000e+00 +3.7499999732337224e+00 -2.8326155279869616e-02 -5.2372692255084241e-01 +5.2211946297467966e-03
3.7999999999999945e+00 +8.5386015691212460e+00 +0.0000000000000000e+00 +3.7999999721484503e+00 -2.8327214285411191e-02 -5.2374627197978918e-01 +5.2191909677874364e-03
3.8499999999999943e+00 +8.5385910134680394e+00 +0.0000000000000000e+00 +3.8499999710342161e+00 -2.8328296742638155e-02 -5.2376593879669797e-01 +5.2171991103423790e-03
3.8999999999999941e+00 +8.5385803197200012e+00 +0.0000000000000000e+00 +3.8999999698906378e+00 -2.8329402600330338e-02 -5.2378592141575742e-01 +5.2152192387876278e-03
3.9499999999999940e+00 +8.5385694878718628e+00 +0.0000000000000000e+00 +3.9499999687173326e+00 -2.8330531807267904e-02 -5.2380621825116414e-01 +5.2132515345003020e-03
3.9999999999999938e+00 +8.5385585179182737e+00 +0.0000000000000000e+00 +3.9999999675139177e+00 -2.8331684312231233e-02 -5.2382682771712019e-01 +5.2112961788586118e-03
4.0499999999999936e+00 +8.5385474098538001e+00 +0.0000000000000000e+00 +4.0499999662800112e+00 -2.8332860042986647e-02 -5.2384774808682832e-01 +5.2093533445109032e-03
4.0999999999999934e+00 +8.5385361636729264e+00 +0.0000000000000000e+00 +4.0999999650152299e+00 -2.8334058843243626e-02 -5.2386897706946978e-01 +5.2074231691825569e-03
4.1499999999999932e+00 +8.5385247793700554e+00 +0.0000000000000000e+00 +4.1499999637191909e+00 -2.8335280535698594e-02 -5.2389051223322447e-01 +5.2055057818690235e-03
4.1999999999999931e+00 +8.5385132569395079e+00 +0.0000000000000000e+00 +4.1999999623915105e+00 -2.8336524943049508e-02 -5.2391235114627999e-01 +5.2036013115668647e-03
4.2499999999999929e+00 +8.5385015963755286e+00 +0.0000000000000000e+00 +4.2499999610318069e+00 -2.8337791887995744e-02 -5.2393449137682857e-01 +5.2017098872737758e-03
4.2999999999999927e+00 +8.5384897976722787e+00 +0.0000000000000000e+00 +4.2999999596396972e+00 -2.8339081193238268e-02 -5.2395693049306868e-01 +5.1998316379885910e-03
4.3499999999999925e+00 +8.5384778608238410e+00 +0.0000000000000000e+00 +4.3499999582147977e+00 -2.8340392681479556e-02 -5.2397966606320534e-01 +5.1979666927112920e-03
4.3999999999999924e+00 +8.5384657858242239e+00 +0.0000000000000000e+00 +4.3999999567567256e+00 -2.8341726175423632e-02 -5.2400269565544755e-01 +5.1961151804430332e-03
4.4499999999999922e+00 +8.5384535726673541e+00 +0.0000000000000000e+00 +4.4499999552650973e+00 -2.8343081497776149e-02 -5.2402601683801109e-01 +5.1942772301861364e-03
4.4999999999999920e+00 +8.5384412213470835e+00 +0.0000000000000000e+00 +4.4999999537395299e+00 -2.8344458471244303e-02 -5.2404962717911585e-01 +5.1924529709441170e-03
4.5499999999999918e+00 +8.5384287318571861e+00 +0.0000000000000000e+00 +4.5499999521796406e+00 -2.8345856918536919e-02 -5.2407352424698661e-01 +5.1906425317216837e-03
4.5999999999999917e+00 +8.5384161041913629e+00 +0.0000000000000000e+00 +4.5999999505850449e+00 -2.8347276662364480e-02 -5.2409770560985358e-01 +5.1888460415247624e-03
4.6499999999999915e+00 +8.5384033383432367e+00 +0.0000000000000000e+00 +4.6499999489553598e+00 -2.8348717525439104e-02 -5.2412216883595053e-01 +5.1870636293605043e-03
4.6999999999999913e+00 +8.5383904343063595e+00 +0.0000000000000000e+00 +4.6999999472902019e+00 -2.8350179330474581e-02 -5.2414691149351622e-01 +5.1852954242372889e-03
4.7499999999999911e+00 +8.5383773920742065e+00 +0.0000000000000000e+00 +4.7499999455891881e+00 -2.8351661900186398e-02 -5.2417193115079330e-01 +5.1835415551647465e-03
4.7999999999999909e+00 +8.5383642116401823e+00 +0.0000000000000000e+00 +4.7999999438519341e+00 -2.8353165057291754e-02 -5.2419722537602809e-01 +5.1818021511537702e-03
4.8499999999999908e+00 +8.5383508929976166e+00 +0.0000000000000000e+00 +4.8499999420780560e+00 -2.8354688624509596e-02 -5.2422279173747077e-01 +5.1800773412165237e-03
4.8999999999999906e+00 +8.5383374361397699e+00 +0.0000000000000000e+00 +4.8999999402671701e+00 -2.8356232424560587e-02 -5.2424862780337511e-01 +5.1783672543664477e-03
4.9499999999999904e+00 +8.5383238410598299e+00 +0.0000000000000000e+00 +4.9499999384188920e+00 -2.8357796280167168e-02 -5.2427473114199841e-01 +5.1766720196182916e-03
4.9999999999999902e+00 +8.5383101077509149e+00 +0.0000000000000000e+00 +4.9999999365328387e+00 -2.8359380014053581e-02 -5.2430109932160007e-01 +5.1749917659880962e-03
5.0499999999999901e+00 +8.5382962362060741e+00 +0.0000000000000000e+00 +5.0499999346086248e+00 -2.8360983448945876e-02 -5.2432772991044341e-01 +5.1733266224932356e-03
5.0999999999999899e+00 +8.5382822264182838e+00 +0.0000000000000000e+00 +5.0999999326458676e+00 -2.8362606407571919e-02 -5.2435462047679415e-01 +5.1716767181524083e-03
5.1499999999999897e+00 +8.5382680783804563e+00 +0.0000000000000000e+00 +5.1499999306441815e+00 -2.8364248712661404e-02 -5.2438176858892060e-01 +5.1700421819856571e-03
5.1999999999999895e+00 +8.5382537920854329e+00 +0.0000000000000000e+00 +5.1999999286031837e+00 -2.8365910186945922e-02 -5.2440917181509294e-01 +5.1684231430143791e-03
5.2499999999999893e+00 +8.5382393675259891e+00 +0.0000000000000000e+00 +5.2499999265224888e+00 -2.8367590653158924e-02 -5.2443682772358413e-01 +5.1668197302613458e-03
5.2999999999999892e+00 +8.5382248046948330e+00 +0.0000000000000000e+00 +5.2999999244017122e+00 -2.8369289934035775e-02 -5.2446473388266834e-01 +5.1652320727506992e-03
5.3499999999999890e+00 +8.5382101035846070e+00 +0.0000000000000000e+00 +5.3499999222404702e+00 -2.8371007852313751e-02 -5.2449288786062243e-01 +5.1636602995079771e-03
5.3999999999999888e+00 +8.5381952641878893e+00 +0.0000000000000000e+00 +5.3999999200383773e+00 -2.8372744230732078e-02 -5.2452128722572355e-01 +5.1621045395601212e-03
5.4499999999999886e+00 +8.5381802864971910e+00 +0.0000000000000000e+00 +5.4499999177950489e+00 -2.8374498892031932e-02 -5.2454992954625124e-01 +5.1605649219354883e-03
5.4999999999999885e+00 +8.5381651705049624e+00 +0.0000000000000000e+00 +5.4999999155101005e+00 -2.8376271658956478e-02 -5.2457881239048509e-01 +5.1590415756638617e-03
5.5499999999999883e+00 +8.5381499162035865e+00 +0.0000000000000000e+00 +5.5499999131831474e+00 -2.8378062354250846e-02 -5.2460793332670685e-01 +5.1575346297764654e-03
5.5999999999999881e+00 +8.5381345235853860e+00 +0.0000000000000000e+00 +5.5999999108138043e+00 -2.8379870800662246e-02 -5.2463728992319836e-01 +5.1560442133059747e-03
5.6499999999999879e+00 +8.5381189926426213e+00 +0.0000000000000000e+00 +5.6499999084016865e+00 -2.8381696820939845e-02 -5.2466687974824167e-01 +5.1545704552865262e-03
5.6999999999999877e+00 +8.5381033233674906e+00 +0.0000000000000000e+00 +5.6999999059464086e+00 -2.8383540237834931e-02 -5.2469670037011973e-01 +5.1531134847537345e-03
5.7499999999999876e+00 +8.5380875157521334e+00 +0.0000000000000000e+00 +5.7499999034475859e+00 -2.8385400874100814e-02 -5.2472674935711550e-01 +5.1516734307447010e-03
5.7999999999999874e+00 +8.5380715697886256e+00 +0.0000000000000000e+00 +5.7999999009048322e+00 -2.8387278552492935e-02 -5.2475702427751159e-01 +5.1502504222980285e-03
5.8499999999999872e+00 +8.5380554854689841e+00 +0.0000000000000000e+00 +5.8499998983177628e+00 -2.8389173095768817e-02 -5.2478752269959061e-01 +5.1488445884538296e-03
5.8999999999999870e+00 +8.5380392627851709e+00 +0.0000000000000000e+00 +5.8999998956859923e+00 -2.8391084326688139e-02 -5.2481824219163475e-01 +5.1474560582537377e-03
