# field on trajectory
# s[mm] rx[mm] ry[mm] rz[mm] bx[T] by[T] bz[T]
0.0000000000000000e+00 +8.5980000000000008e+00 +0.0000000000000000e+00 +0.0000000000000000e+00 -2.9576550690271583e-02 -5.7824941489333370e-01 +5.9991650962931842e-03
-5.0000000000000003e-02 +8.5979999308691060e+00 +0.0000000000000000e+00 -4.9999999999936283e-02 -2.9576759333742066e-02 -5.7824807450060667e-01 +5.9984742247440551e-03
-1.0000000000000001e-01 +8.5979997234766170e+00 +0.0000000000000000e+00 -9.9999999999490247e-02 -2.9576985471600117e-02 -5.7824711664373085e-01 +5.9977816756524634e-03
-1.5000000000000002e-01 +8.5979993778227648e+00 +0.0000000000000000e+00 -1.4999999999827957e-01 -2.9577229092186571e-02 -5.7824654075163506e-01 +5.9970875387291246e-03
-2.0000000000000001e-01 +8.5979988939076879e+00 +0.0000000000000000e+00 -1.9999999999592188e-01 -2.9577490183842724e-02 -5.7824634625326610e-01 +5.9963919036846551e-03
-2.5000000000000000e-01 +8.5979982717314307e+00 +0.0000000000000000e+00 -2.4999999999203493e-01 -2.9577768734910397e-02 -5.7824653257758762e-01 +5.9956948602295527e-03
-2.9999999999999999e-01 +8.5979975112939488e+00 +0.0000000000000000e+00 -2.9999999998623633e-01 -2.9578064733731969e-02 -5.7824709915358163e-01 +5.9949964980742423e-03
-3.4999999999999998e-01 +8.5979966125951091e+00 +0.0000000000000000e+00 -3.4999999997814379e-01 -2.9578378168650516e-02 -5.7824804541024655e-01 +5.9942969069290619e-03
-3.9999999999999997e-01 +8.5979955756346822e+00 +0.0000000000000000e+00 -3.9999999996737501e-01 -2.9578709028009749e-02 -5.7824937077659899e-01 +5.9935961765042785e-03
-4.4999999999999996e-01 +8.5979944004123539e+00 +0.0000000000000000e+00 -4.4999999995354761e-01 -2.9579057300154185e-02 -5.7825107468167236e-01 +5.9928943965101063e-03
-4.9999999999999994e-01 +8.5979930869277155e+00 +0.0000000000000000e+00 -4.9999999993627925e-01 -2.9579422973429154e-02 -5.7825315655451848e-01 +5.9921916566567108e-03
-5.4999999999999993e-01 +8.5979916351802697e+00 +0.0000000000000000e+00 -5.4999999991518767e-01 -2.9579806036180885e-02 -5.7825561582420559e-01 +5.9914880466542140e-03
-5.9999999999999998e-01 +8.5979900451694284e+00 +0.0000000000000000e+00 -5.9999999988989039e-01 -2.9580206476756524e-02 -5.7825845191981995e-01 +5.9907836562127217e-03
-6.5000000000000002e-01 +8.5979883168945133e+00 +0.0000000000000000e+00 -6.4999999986000512e-01 -2.9580624283504216e-02 -5.7826166427046544e-01 +5.9900785750423152e-03
-7.0000000000000007e-01 +8.5979864503547567e+00 +0.0000000000000000e+00 -6.9999999982514949e-01 -2.9581059444773211e-02 -5.7826525230526260e-01 +5.9893728928530777e-03
-7.5000000000000011e-01 +8.5979844455492991e+00 +0.0000000000000000e+00 -7.4999999978494114e-01 -2.9581511948913824e-02 -5.7826921545335019e-01 +5.9886666993550853e-03
-8.0000000000000016e-01 +8.5979823024771953e+00 +0.0000000000000000e+00 -7.9999999973899760e-01 -2.9581981784277570e-02 -5.7827355314388373e-01 +5.9879600842584393e-03
-8.5000000000000020e-01 +8.5979800211374062e+00 +0.0000000000000000e+00 -8.4999999968693651e-01 -2.9582468939217250e-02 -5.7827826480603695e-01 +5.9872531372732662e-03
-9.0000000000000024e-01 +8.5979776015288074e+00 +0.0000000000000000e+00 -8.9999999962837551e-01 -2.9582973402086894e-02 -5.7828334986900065e-01 +5.9865459481097255e-03
-9.5000000000000029e-01 +8.5979750436501803e+00 +0.0000000000000000e+00 -9.4999999956293213e-01 -2.9583495161241952e-02 -5.7828880776198244e-01 +5.9858386064780261e-03
-1.0000000000000002e+00 +8.5979723475002228e+00 +0.0000000000000000e+00 -9.9999999949022400e-01 -2.9584034205039262e-02 -5.7829463791420843e-01 +5.9851312020884314e-03
-1.0500000000000003e+00 +8.5979695130775387e+00 +0.0000000000000000e+00 -1.0499999994098685e+00 -2.9584590521837161e-02 -5.7830083975492153e-01 +5.9844238246512752e-03
-1.1000000000000003e+00 +8.5979665403806464e+00 +0.0000000000000000e+00 -1.0999999993214833e+00 -2.9585164099995523e-02 -5.7830741271338226e-01 +5.9837165638769669e-03
-1.1500000000000004e+00 +8.5979634294079741e+00 +0.0000000000000000e+00 -1.1499999992246859e+00 -2.9585754927875785e-02 -5.7831435621886851e-01 +5.9830095094760092e-03
-1.2000000000000004e+00 +8.5979601801578607e+00 +0.0000000000000000e+00 -1.1999999991190937e+00 -2.9586362993841112e-02 -5.7832166970067556e-01 +5.9823027511589980e-03
-1.2500000000000004e+00 +8.5979567926285583e+00 +0.0000000000000000e+00 -1.2499999990043242e+00 -2.9586988286256343e-02 -5.7832935258811624e-01 +5.9815963786366486e-03
-1.3000000000000005e+00 +8.5979532668182301e+00 +0.0000000000000000e+00 -1.2999999988799948e+00 -2.9587630793488098e-02 -5.7833740431052039e-01 +5.9808904816197831e-03
-1.3500000000000005e+00 +8.5979496027249507e+00 +0.0000000000000000e+00 -1.3499999987457232e+00 -2.9588290503904859e-02 -5.7834582429723602e-01 +5.9801851498193694e-03
-1.4000000000000006e+00 +8.5979458003467073e+00 +0.0000000000000000e+00 -1.3999999986011264e+00 -2.9588967405876986e-02 -5.7835461197762772e-01 +5.9794804729465028e-03
-1.4500000000000006e+00 +8.5979418596813986e+00 +0.0000000000000000e+00 -1.4499999984458221e+00 -2.9589661487776819e-02 -5.7836376678107781e-01 +5.9787765407124400e-03
-1.5000000000000007e+00 +8.5979377807268360e+00 +0.0000000000000000e+00 -1.4999999982794274e+00 -2.9590372737978696e-02 -5.7837328813698685e-01 +5.9780734428285971e-03
-1.5500000000000007e+00 +8.5979335634807423e+00 +0.0000000000000000e+00 -1.5499999981015598e+00 -2.9591101144859046e-02 -5.7838317547477180e-01 +5.9773712690065640e-03
-1.6000000000000008e+00 +8.5979292079407532e+00 +0.0000000000000000e+00 -1.5999999979118364e+00 -2.9591846696796452e-02 -5.7839342822386663e-01 +5.9766701089581124e-03
-1.6500000000000008e+00 +8.5979247141044173e+00 +0.0000000000000000e+00 -1.6499999977098749e+00 -2.9592609382171644e-02 -5.7840404581372407e-01 +5.9759700523952077e-03
-1.7000000000000008e+00 +8.5979200819691961e+00 +0.0000000000000000e+00 -1.6999999974952922e+00 -2.9593389189367672e-02 -5.7841502767381348e-01 +5.9752711890300207e-03
-1.7500000000000009e+00 +8.5979153115324642e+00 +0.0000000000000000e+00 -1.7499999972677056e+00 -2.9594186106769869e-02 -5.7842637323362178e-01 +5.9745736085749374e-03
-1.8000000000000009e+00 +8.5979104027915092e+00 +0.0000000000000000e+00 -1.7999999970267322e+00 -2.9595000122765974e-02 -5.7843808192265334e-01 +5.9738774007425709e-03
-1.8500000000000010e+00 +8.5979053557435297e+00 +0.0000000000000000e+00 -1.8499999967719893e+00 -2.9595831225746126e-02 -5.7845015317042936e-01 +5.9731826552457653e-03
-1.9000000000000010e+00 +8.5979001703856408e+00 +0.0000000000000000e+00 -1.8999999965030940e+00 -2.9596679404102991e-02 -5.7846258640648940e-01 +5.9724894617976185e-03
-1.9500000000000011e+00 +8.5978948467148708e+00 +0.0000000000000000e+00 -1.9499999962196635e+00 -2.9597544646231783e-02 -5.7847538106039020e-01 +5.9717979101114732e-03
-2.0000000000000009e+00 +8.5978893847281590e+00 +0.0000000000000000e+00 -1.9999999959213146e+00 -2.9598426940530321e-02 -5.7848853656170474e-01 +5.9711080899009549e-03
-2.0500000000000007e+00 +8.5978837844223612e+00 +0.0000000000000000e+00 -2.0499999956076644e+00 -2.9599326254578995e-02 -5.7850205213293038e-01 +5.9704200871710800e-03
-2.1000000000000005e+00 +8.5978780457942445e+00 +0.0000000000000000e+00 -2.0999999952783299e+00 -2.9600242472679547e-02 -5.7851592616819958e-01 +5.9697339730916182e-03
-2.1500000000000004e+00 +8.5978721688404924e+00 +0.0000000000000000e+00 -2.1499999949329283e+00 -2.9601175458314179e-02 -5.7853015685456488e-01 +5.9690498151236480e-03
-2.2000000000000002e+00 +8.5978661535577015e+00 +0.0000000000000000e+00 -2.1999999945710762e+00 -2.9602125074965447e-02 -5.7854474237909204e-01 +5.9683676807284567e-03
-2.2500000000000000e+00 +8.5978599999423846e+00 +0.0000000000000000e+00 -2.2499999941923905e+00 -2.9603091186116214e-02 -5.7855968092886034e-01 +5.9676876373675287e-03
-2.2999999999999998e+00 +8.5978537079909714e+00 +0.0000000000000000e+00 -2.2999999937964879e+00 -2.9604073655249485e-02 -5.7857497069096198e-01 +5.9670097525025383e-03
-2.3499999999999996e+00 +8.5978472776998043e+00 +0.0000000000000000e+00 -2.3499999933829856e+00 -2.9605072345848422e-02 -5.7859060985250299e-01 +5.9663340935953851e-03
-2.3999999999999995e+00 +8.5978407090651441e+00 +0.0000000000000000e+00 -2.3999999929514999e+00 -2.9606087121396219e-02 -5.7860659660060154e-01 +5.9656607281081677e-03
-2.4499999999999993e+00 +8.5978340020831698e+00 +0.0000000000000000e+00 -2.4499999925016480e+00 -2.9607117845376011e-02 -5.7862292912238888e-01 +5.9649897235032039e-03
-2.4999999999999991e+00 +8.5978271567499753e+00 +0.0000000000000000e+00 -2.4999999920330462e+00 -2.9608164381270830e-02 -5.7863960560500793e-01 +5.9643211472430267e-03
-2.5499999999999989e+00 +8.5978201730615744e+00 +0.0000000000000000e+00 -2.5499999915453113e+00 -2.9609226592563476e-02 -5.7865662423561492e-01 +5.9636550667904039e-03
-2.5999999999999988e+00 +8.5978130510138957e+00 +0.0000000000000000e+00 -2.5999999910380596e+00 -2.9610304342736506e-02 -5.7867398320137697e-01 +5.9629915496083206e-03
-2.6499999999999986e+00 +8.5978057906027914e+00 +0.0000000000000000e+00 -2.6499999905109077e+00 -2.9611397495272099e-02 -5.7869168068947374e-01 +5.9623306631599983e-03
-2.6999999999999984e+00 +8.5977983918240284e+00 +0.0000000000000000e+00 -2.6999999899634726e+00 -2.9612505913651985e-02 -5.7870971488709588e-01 +5.9616724749088886e-03
-2.7499999999999982e+00 +8.5977908546732955e+00 +0.0000000000000000e+00 -2.7499999893953704e+00 -2.9613629461357392e-02 -5.7872808398144593e-01 +5.9610170523186927e-03
-2.7999999999999980e+00 +8.5977831791461998e+00 +0.0000000000000000e+00 -2.7999999888062175e+00 -2.9614768001868956e-02 -5.7874678615973740e-01 +5.9603644628533530e-03
-2.8499999999999979e+00 +8.5977753652382702e+00 +0.0000000000000000e+00 -2.8499999881956302e+00 -2.9615921398666603e-02 -5.7876581960919438e-01 +5.9597147739770531e-03
-2.8999999999999977e+00 +8.5977674129449557e+00 +0.0000000000000000e+00 -2.8999999875632243e+00 -2.9617089515229535e-02 -5.7878518251705191e-01 +5.9590680531542376e-03
-2.9499999999999975e+00 +8.5977593222616253e+00 +0.0000000000000000e+00 -2.9499999869086166e+00 -2.9618272215036108e-02 -5.7880487307055595e-01 +5.9584243678496018e-03
-2.9999999999999973e+00 +8.5977510931835734e+00 +0.0000000000000000e+00 -2.9999999862314235e+00 -2.9619469361563743e-02 -5.7882488945696176e-01 +5.9577837855281099e-03
-3.0499999999999972e+00 +8.5977427257060128e+00 +0.0000000000000000e+00 -3.0499999855312607e+00 -2.9620680818288902e-02 -5.7884522986353593e-01 +5.9571463736549793e-03
-3.0999999999999970e+00 +8.5977342198240798e+00 +0.0000000000000000e+00 -3.0999999848077446e+00 -2.9621906448686942e-02 -5.7886589247755393e-01 +5.9565121996957094e-03
-3.1499999999999968e+00 +8.5977255755328343e+00 +0.0000000000000000e+00 -3.1499999840604911e+00 -2.9623146116232079e-02 -5.7888687548630147e-01 +5.9558813311160587e-03
-3.1999999999999966e+00 +8.5977167928272600e+00 +0.0000000000000000e+00 -3.1999999832891159e+00 -2.9624399684397309e-02 -5.7890817707707354e-01 +5.9552538353820766e-03
-3.2499999999999964e+00 +8.5977078717022639e+00 +0.0000000000000000e+00 -3.2499999824932351e+00 -2.9625667016654287e-02 -5.7892979543717427e-01 +5.9546297799600838e-03
-3.2999999999999963e+00 +8.5976988121526752e+00 +0.0000000000000000e+00 -3.2999999816724648e+00 -2.9626947976473295e-02 -5.7895172875391721e-01 +5.9540092323166916e-03
-3.3499999999999961e+00 +8.5976896141732517e+00 +0.0000000000000000e+00 -3.3499999808264205e+00 -2.9628242427323145e-02 -5.7897397521462413e-01 +5.9533922599187966e-03
-3.3999999999999959e+00 +8.5976802777586734e+00 +0.0000000000000000e+00 -3.3999999799547180e+00 -2.9629550232671078e-02 -5.7899653300662568e-01 +5.9527789302335939e-03
-3.4499999999999957e+00 +8.5976708029035454e+00 +0.0000000000000000e+00 -3.4499999790569733e+00 -2.9630871255982735e-02 -5.7901940031726140e-01 +5.9521693107285776e-03
-3.4999999999999956e+00 +8.5976611896024018e+00 +0.0000000000000000e+00 -3.4999999781328017e+00 -2.9632205360722027e-02 -5.7904257533387826e-01 +5.9515634688715362e-03
-3.5499999999999954e+00 +8.5976514378497022e+00 +0.0000000000000000e+00 -3.5499999771818191e+00 -2.9633552410351087e-02 -5.7906605624383178e-01 +5.9509614721305676e-03
-3.5999999999999952e+00 +8.5976415476398298e+00 +0.0000000000000000e+00 -3.5999999762036405e+00 -2.9634912268330149e-02 -5.7908984123448504e-01 +5.9503633879740888e-03
-3.6499999999999950e+00 +8.5976315189671002e+00 +0.0000000000000000e+00 -3.6499999751978818e+00 -2.9636284798117564e-02 -5.7911392849320853e-01 +5.9497692838708172e-03
-3.6999999999999948e+00 +8.5976213518257527e+00 +0.0000000000000000e+00 -3.6999999741641583e+00 -2.9637669863169586e-02 -5.7913831620738010e-01 +5.9491792272897952e-03
-3.7499999999999947e+00 +8.5976110462099573e+00 +0.0000000000000000e+00 -3.7499999731020850e+00 -2.9639067326940403e-02 -5.7916300256438524e-01 +5.9485932857003881e-03
-3.7999999999999945e+00 +8.5976006021138094e+00 +0.0000000000000000e+00 -3.7999999720112774e+00 -2.9640477052882020e-02 -5.7918798575161634e-01 +5.9480115265722932e-03
-3.8499999999999943e+00 +8.5975900195313368e+00 +0.0000000000000000e+00 -3.8499999708913508e+00 -2.9641898904444127e-02 -5.7921326395647155e-01 +5.9474340173755269e-03
-3.8999999999999941e+00 +8.5975792984564965e+00 +0.0000000000000000e+00 -3.8999999697419203e+00 -2.9643332745074139e-02 -5.7923883536635645e-01 +5.9468608255804477e-03
-3.9499999999999940e+00 +8.5975684388831723e+00 +0.0000000000000000e+00 -3.9499999685626008e+00 -2.9644778438216987e-02 -5.7926469816868276e-01 +5.9462920186577530e-03
-3.9999999999999938e+00 +8.5975574408051827e+00 +0.0000000000000000e+00 -3.9999999673530078e+00 -2.9646235847315145e-02 -5.7929085055086826e-01 +5.9457276640784854e-03
-4.0499999999999936e+00 +8.5975463042162730e+00 +0.0000000000000000e+00 -4.0499999661127557e+00 -2.9647704841746867e-02 -5.7931729052705028e-01 +5.9451678202564456e-03
-4.0999999999999934e+00 +8.5975350291101211e+00 +0.0000000000000000e+00 -4.0999999648414596e+00 -2.9649185314642449e-02 -5.7934401541822511e-01 +5.9446125093754699e-03
-4.1499999999999932e+00 +8.5975236154803394e+00 +0.0000000000000000e+00 -4.1499999635387343e+00 -2.9650677165070589e-02 -5.7937102237210536e-01 +5.9440617445623532e-03
-4.1999999999999931e+00 +8.5975120633204689e+00 +0.0000000000000000e+00 -4.1999999622041946e+00 -2.9652180292100250e-02 -5.7939830853640784e-01 +5.9435155389444948e-03
-4.2499999999999929e+00 +8.5975003726239851e+00 +0.0000000000000000e+00 -4.2499999608374548e+00 -2.9653694594800606e-02 -5.7942587105885057e-01 +5.9429739056499099e-03
-4.2999999999999927e+00 +8.5974885433842996e+00 +0.0000000000000000e+00 -4.2999999594381295e+00 -2.9655219972241121e-02 -5.7945370708715438e-01 +5.9424368578072451e-03
-4.3499999999999925e+00 +8.5974765755947544e+00 +0.0000000000000000e+00 -4.3499999580058333e+00 -2.9656756323491542e-02 -5.7948181376904273e-01 +5.9419044085457853e-03
-4.3999999999999924e+00 +8.5974644692486315e+00 +0.0000000000000000e+00 -4.3999999565401815e+00 -2.9658303547621886e-02 -5.7951018825224010e-01 +5.9413765709954687e-03
-4.4499999999999922e+00 +8.5974522243391451e+00 +0.0000000000000000e+00 -4.4499999550407878e+00 -2.9659861543702475e-02 -5.7953882768447385e-01 +5.9408533582868987e-03
-4.4999999999999920e+00 +8.5974398408594475e+00 +0.0000000000000000e+00 -4.4999999535072659e+00 -2.9661430210803922e-02 -5.7956772921347111e-01 +5.9403347835513525e-03
-4.5499999999999918e+00 +8.5974273188026302e+00 +0.0000000000000000e+00 -4.5499999519392311e+00 -2.9663009447997178e-02 -5.7959688998696135e-01 +5.9398208599207893e-03
-4.5999999999999917e+00 +8.5974146581617195e+00 +0.0000000000000000e+00 -4.5999999503362972e+00 -2.9664599154353492e-02 -5.7962630715267349e-01 +5.9393116005278662e-03
-4.6499999999999915e+00 +8.5974018589296808e+00 +0.0000000000000000e+00 -4.6499999486980776e+00 -2.9666199228944482e-02 -5.7965597785833811e-01 +5.9388070185059563e-03
-4.6999999999999913e+00 +8.5973889210994212e+00 +0.0000000000000000e+00 -4.6999999470241871e+00 -2.9667809570842113e-02 -5.7968589925168545e-01 +5.9383071269891452e-03
-4.7499999999999911e+00 +8.5973758446637856e+00 +0.0000000000000000e+00 -4.7499999453142392e+00 -2.9669430079118680e-02 -5.7971606848044521e-01 +5.9378119391122553e-03
-4.7999999999999909e+00 +8.5973626296155619e+00 +0.0000000000000000e+00 -4.7999999435678484e+00 -2.9671060652846880e-02 -5.7974648269234808e-01 +5.9373214680108477e-03
-4.8499999999999908e+00 +8.5973492759474777e+00 +0.0000000000000000e+00 -4.8499999417846276e+00 -2.9672701191099757e-02 -5.7977713903512196e-01 +5.9368357268212383e-03
-4.8999999999999906e+00 +8.5973357836522020e+00 +0.0000000000000000e+00 -4.8999999399641911e+00 -2.9674351592950787e-02 -5.7980803465649544e-01 +5.9363547286805114e-03
-4.9499999999999904e+00 +8.5973221527223487e+00 +0.0000000000000000e+00 -4.9499999381061528e+00 -2.9676011757473846e-02 -5.7983916670419600e-01 +5.9358784867265309e-03
-4.9999999999999902e+00 +8.5973083831504749e+00 +0.0000000000000000e+00 -4.9999999362101253e+00 -2.9677681583743162e-02 -5.7987053232594798e-01 +5.9354070140979383e-03
-5.0499999999999901e+00 +8.5972944749290789e+00 +0.0000000000000000e+00 -5.0499999342757231e+00 -2.9679360970833464e-02 -5.7990212866947644e-01 +5.9349403239341856e-03
-5.0999999999999899e+00 +8.5972804280506079e+00 +0.0000000000000000e+00 -5.0999999323025591e+00 -2.9681049817819882e-02 -5.7993395288250149e-01 +5.9344784293755342e-03
-5.1499999999999897e+00 +8.5972662425074518e+00 +0.0000000000000000e+00 -5.1499999302902468e+00 -2.9682748023777981e-02 -5.7996600211274363e-01 +5.9340213435630654e-03
-5.1999999999999895e+00 +8.5972519182919491e+00 +0.0000000000000000e+00 -5.1999999282383991e+00 -2.9684455487783794e-02 -5.7999827350791844e-01 +5.9335690796386955e-03
-5.2499999999999893e+00 +8.5972374553963817e+00 +0.0000000000000000e+00 -5.2499999261466295e+00 -2.9686172108913830e-02 -5.8003076421574062e-01 +5.9331216507451916e-03
-5.2999999999999892e+00 +8.5972228538129833e+00 +0.0000000000000000e+00 -5.2999999240145508e+00 -2.9687897786245056e-02 -5.8006347138392000e-01 +5.9326790700261686e-03
-5.3499999999999890e+00 +8.5972081135339327e+00 +0.0000000000000000e+00 -5.3499999218417766e+00 -2.9689632418854937e-02 -5.8009639216016351e-01 +5.9322413506261145e-03
-5.3999999999999888e+00 +8.5971932345513569e+00 +0.0000000000000000e+00 -5.3999999196279198e+00 -2.9691375905821459e-02 -5.8012952369217552e-01 +5.9318085056903995e-03
-5.4499999999999886e+00 +8.5971782168573352e+00 +0.0000000000000000e+00 -5.4499999173725922e+00 -2.9693128146223057e-02 -5.8016286312765408e-01 +5.9313805483652829e-03
-5.4999999999999885e+00 +8.5971630604438971e+00 +0.0000000000000000e+00 -5.4999999150754073e+00 -2.9694889039138764e-02 -5.8019640761429525e-01 +5.9309574917979250e-03
-5.5499999999999883e+00 +8.5971477653030224e+00 +0.0000000000000000e+00 -5.5499999127359780e+00 -2.9696658483648081e-02 -5.8023015429978864e-01 +5.9305393491364015e-03
-5.5999999999999881e+00 +8.5971323314266410e+00 +0.0000000000000000e+00 -5.5999999103539162e+00 -2.9698436378831086e-02 -5.8026410033182074e-01 +5.9301261335297159e-03
-5.6499999999999879e+00 +8.5971167588066368e+00 +0.0000000000000000e+00 -5.6499999079288354e+00 -2.9700222623768396e-02 -5.8029824285807130e-01 +5.9297178581278042e-03
-5.6999999999999877e+00 +8.5971010474348475e+00 +0.0000000000000000e+00 -5.6999999054603476e+00 -2.9702017117541200e-02 -5.8033257902621571e-01 +5.9293145360815556e-03
-5.7499999999999876e+00 +8.5970851973030609e+00 +0.0000000000000000e+00 -5.7499999029480646e+00 -2.9703819759231243e-02 -5.8036710598392294e-01 +5.9289161805428127e-03
-5.7999999999999874e+00 +8.5970692084030240e+00 +0.0000000000000000e+00 -5.7999999003915992e+00 -2.9705630447920899e-02 -5.8040182087885639e-01 +5.9285228046643997e-03
-5.8499999999999872e+00 +8.5970530807264360e+00 +0.0000000000000000e+00 -5.8499998977905632e+00 -2.9707449082693068e-02 -5.8043672085867348e-01 +5.9281344216001106e-03
