# field on trajectory
# s[mm] rx[mm] ry[mm] rz[mm] bx[T] by[T] bz[T]
-0.0000000000000000e+00 +8.5270000000000206e+00 +0.0000000000000000e+00 -0.0000000000000000e+00 -2.9326197404700993e-02 -5.4996429341946196e-01 +5.5671236632410803e-03
-5.0000000000000003e-02 +8.5269999309457507e+00 +0.0000000000000000e+00 -4.9999999999936401e-02 -2.9326473719213673e-02 -5.4996507249610238e-01 +5.5667237441429877e-03
-1.0000000000000001e-01 +8.5269997237846802e+00 +0.0000000000000000e+00 -9.9999999999491399e-02 -2.9326763784523230e-02 -5.4996624580793596e-01 +5.5663254236383297e-03
-1.4999999999999999e-01 +8.5269993785186706e+00 +0.0000000000000000e+00 -1.4999999999828301e-01 -2.9327067803215930e-02 -5.4996781272823114e-01 +5.5659286927301592e-03
-2.0000000000000001e-01 +8.5269988951477007e+00 +0.0000000000000000e+00 -1.9999999999593099e-01 -2.9327385977879514e-02 -5.4996977263028790e-01 +5.5655335424217673e-03
-2.5000000000000000e-01 +8.5269982736681396e+00 +0.0000000000000000e+00 -2.4999999999205300e-01 -2.9327718511103898e-02 -5.4997212488744873e-01 +5.5651399637168088e-03
-2.9999999999999999e-01 +8.5269975140799907e+00 +0.0000000000000000e+00 -2.9999999998626697e-01 -2.9328065605478536e-02 -5.4997486887304858e-01 +5.5647479476187318e-03
-3.4999999999999998e-01 +8.5269966163905302e+00 +0.0000000000000000e+00 -3.4999999997819298e-01 -2.9328427463591159e-02 -5.4997800396038721e-01 +5.5643574851305033e-03
-4.0000000000000002e-01 +8.5269955805888493e+00 +0.0000000000000000e+00 -3.9999999996744801e-01 -2.9328804288037028e-02 -5.4998152952291302e-01 +5.5639685672565463e-03
-4.5000000000000001e-01 +8.5269944066858407e+00 +0.0000000000000000e+00 -4.4999999995365197e-01 -2.9329196281404443e-02 -5.4998544493393409e-01 +5.5635811849996429e-03
-5.0000000000000000e-01 +8.5269930946742498e+00 +0.0000000000000000e+00 -4.9999999993642202e-01 -2.9329603646289244e-02 -5.4998974956690672e-01 +5.5631953293640317e-03
-5.5000000000000004e-01 +8.5269916445577092e+00 +0.0000000000000000e+00 -5.4999999991537796e-01 -2.9330026585284379e-02 -5.4999444279522591e-01 +5.5628109913531329e-03
-5.9999999999999998e-01 +8.5269900563289394e+00 +0.0000000000000000e+00 -5.9999999989013697e-01 -2.9330465300987749e-02 -5.4999952399238217e-01 +5.5624281619712406e-03
-6.5000000000000002e-01 +8.5269883299988596e+00 +0.0000000000000000e+00 -6.4999999986031898e-01 -2.9330919995991713e-02 -5.5000499253175228e-01 +5.5620468322212409e-03
-6.9999999999999996e-01 +8.5269864655601904e+00 +0.0000000000000000e+00 -6.9999999982554195e-01 -2.9331390872896317e-02 -5.5001084778685916e-01 +5.5616669931074407e-03
-7.5000000000000000e-01 +8.5269844630165608e+00 +0.0000000000000000e+00 -7.4999999978542398e-01 -2.9331878134298797e-02 -5.5001708913116676e-01 +5.5612886356332979e-03
-8.0000000000000004e-01 +8.5269823223679904e+00 +0.0000000000000000e+00 -7.9999999973958402e-01 -2.9332381982798774e-02 -5.5002371593817867e-01 +5.5609117508025321e-03
-8.4999999999999998e-01 +8.5269800436108198e+00 +0.0000000000000000e+00 -8.4999999968764095e-01 -2.9332902620998413e-02 -5.5003072758144345e-01 +5.5605363296191241e-03
-9.0000000000000002e-01 +8.5269776267450705e+00 +0.0000000000000000e+00 -8.9999999962921295e-01 -2.9333440251499740e-02 -5.5003812343449865e-01 +5.5601623630867425e-03
-9.4999999999999996e-01 +8.5269750717743609e+00 +0.0000000000000000e+00 -9.4999999956391801e-01 -2.9333995076904644e-02 -5.5004590287087218e-01 +5.5597898422087219e-03
-1.0000000000000000e+00 +8.5269723786986997e+00 +0.0000000000000000e+00 -9.9999999949137597e-01 -2.9334567299817590e-02 -5.5005406526413458e-01 +5.5594187579886328e-03
-1.0500000000000000e+00 +8.5269695475144491e+00 +0.0000000000000000e+00 -1.0499999994111999e+00 -2.9335157122845641e-02 -5.5006260998789769e-01 +5.5590491014302695e-03
-1.1000000000000001e+00 +8.5269665782288904e+00 +0.0000000000000000e+00 -1.0999999993230201e+00 -2.9335764748593184e-02 -5.5007153641571205e-01 +5.5586808635365069e-03
-1.1499999999999999e+00 +8.5269634708311095e+00 +0.0000000000000000e+00 -1.1499999992264500e+00 -2.9336390379672551e-02 -5.5008084392127432e-01 +5.5583140353115523e-03
-1.2000000000000000e+00 +8.5269602253283701e+00 +0.0000000000000000e+00 -1.1999999991210999e+00 -2.9337034218690779e-02 -5.5009053187816581e-01 +5.5579486077581052e-03
-1.2500000000000000e+00 +8.5269568417206791e+00 +0.0000000000000000e+00 -1.2499999990065900e+00 -2.9337696468258938e-02 -5.5010059966003644e-01 +5.5575845718793503e-03
-1.3000000000000000e+00 +8.5269533200044005e+00 +0.0000000000000000e+00 -1.2999999988825499e+00 -2.9338377330990824e-02 -5.5011104664057708e-01 +5.5572219186786247e-03
-1.3500000000000001e+00 +8.5269496601795307e+00 +0.0000000000000000e+00 -1.3499999987485900e+00 -2.9339077009500333e-02 -5.5012187219346886e-01 +5.5568606391588875e-03
-1.3999999999999999e+00 +8.5269458622533403e+00 +0.0000000000000000e+00 -1.3999999986043401e+00 -2.9339795706400159e-02 -5.5013307569235481e-01 +5.5565007243223935e-03
-1.4500000000000000e+00 +8.5269419262185693e+00 +0.0000000000000000e+00 -1.4499999984494001e+00 -2.9340533624309759e-02 -5.5014465651099864e-01 +5.5561421651723923e-03
-1.5000000000000000e+00 +8.5269378520752106e+00 +0.0000000000000000e+00 -1.4999999982833900e+00 -2.9341290965847464e-02 -5.5015661402312654e-01 +5.5557849527114334e-03
-1.5500000000000000e+00 +8.5269336398268898e+00 +0.0000000000000000e+00 -1.5499999981059500e+00 -2.9342067933631796e-02 -5.5016894760245383e-01 +5.5554290779416243e-03
-1.6000000000000001e+00 +8.5269292894736299e+00 +0.0000000000000000e+00 -1.5999999979166799e+00 -2.9342864730284163e-02 -5.5018165662273655e-01 +5.5550745318651900e-03
-1.6499999999999999e+00 +8.5269248010117700e+00 +0.0000000000000000e+00 -1.6499999977152000e+00 -2.9343681558428876e-02 -5.5019474045777261e-01 +5.5547213054844783e-03
-1.7000000000000000e+00 +8.5269201744449692e+00 +0.0000000000000000e+00 -1.6999999975011300e+00 -2.9344518620689201e-02 -5.5020819848132085e-01 +5.5543693898010725e-03
-1.7500000000000000e+00 +8.5269154097695701e+00 +0.0000000000000000e+00 -1.7499999972740901e+00 -2.9345376119692703e-02 -5.5022203006720860e-01 +5.5540187758169436e-03
-1.8000000000000000e+00 +8.5269105069892195e+00 +0.0000000000000000e+00 -1.7999999970336999e+00 -2.9346254258065928e-02 -5.5023623458922399e-01 +5.5536694545332945e-03
-1.8500000000000001e+00 +8.5269054661039299e+00 +0.0000000000000000e+00 -1.8499999967795799e+00 -2.9347153238438447e-02 -5.5025081142119681e-01 +5.5533214169513987e-03
-1.8999999999999999e+00 +8.5269002871100401e+00 +0.0000000000000000e+00 -1.8999999965113501e+00 -2.9348073263442891e-02 -5.5026575993699700e-01 +5.5529746540725995e-03
-1.9500000000000000e+00 +8.5268949700112007e+00 +0.0000000000000000e+00 -1.9499999962286201e+00 -2.9349014535710947e-02 -5.5028107951045668e-01 +5.5526291568974455e-03
-2.0000000000000000e+00 +8.5268895148037700e+00 +0.0000000000000000e+00 -1.9999999959310100e+00 -2.9349977257878728e-02 -5.5029676951547357e-01 +5.5522849164268105e-03
-2.0499999999999998e+00 +8.5268839213858900e+00 +0.0000000000000000e+00 -2.0499999956181298e+00 -2.9350961568331255e-02 -5.5031282905531920e-01 +5.5519419257030293e-03
-2.1000000000000001e+00 +8.5268781896593300e+00 +0.0000000000000000e+00 -2.0999999952895898e+00 -2.9351967348298345e-02 -5.5032925614785355e-01 +5.5516001859043295e-03
-2.1499999999999999e+00 +8.5268723196240899e+00 +0.0000000000000000e+00 -2.1499999949449999e+00 -2.9352994414685474e-02 -5.5034604853888969e-01 +5.5512597002353361e-03
-2.2000000000000002e+00 +8.5268663112729008e+00 +0.0000000000000000e+00 -2.1999999945839801e+00 -2.9354042584401191e-02 -5.5036320397430627e-01 +5.5509204719012264e-03
-2.2500000000000000e+00 +8.5268601646093902e+00 +0.0000000000000000e+00 -2.2499999942061502e+00 -2.9355111674350308e-02 -5.5038072019991413e-01 +5.5505825041063011e-03
-2.2999999999999998e+00 +8.5268538796335598e+00 +0.0000000000000000e+00 -2.2999999938111202e+00 -2.9356201501439156e-02 -5.5039859496156296e-01 +5.5502458000551182e-03
-2.3500000000000001e+00 +8.5268474563490599e+00 +0.0000000000000000e+00 -2.3499999933985198e+00 -2.9357311882572977e-02 -5.5041682600508723e-01 +5.5499103629519462e-03
-2.3999999999999999e+00 +8.5268408947522403e+00 +0.0000000000000000e+00 -2.3999999929679601e+00 -2.9358442634659736e-02 -5.5043541107638683e-01 +5.5495761960016026e-03
-2.4500000000000002e+00 +8.5268341948467405e+00 +0.0000000000000000e+00 -2.4499999925190501e+00 -2.9359593574604801e-02 -5.5045434792131842e-01 +5.5492433024083359e-03
-2.5000000000000000e+00 +8.5268273566252901e+00 +0.0000000000000000e+00 -2.4999999920514302e+00 -2.9360764519317510e-02 -5.5047363428582985e-01 +5.5489116853772360e-03
-2.5499999999999998e+00 +8.5268203800987994e+00 +0.0000000000000000e+00 -2.5499999915646900e+00 -2.9361955285700493e-02 -5.5049326791574815e-01 +5.5485813481119884e-03
-2.6000000000000001e+00 +8.5268132652563509e+00 +0.0000000000000000e+00 -2.5999999910584699e+00 -2.9363165690664252e-02 -5.5051324655706924e-01 +5.5482522938179761e-03
-2.6499999999999999e+00 +8.5268060121015896e+00 +0.0000000000000000e+00 -2.6499999905323701e+00 -2.9364395551113771e-02 -5.5053356795569430e-01 +5.5479245256994658e-03
-2.7000000000000002e+00 +8.5267986206345103e+00 +0.0000000000000000e+00 -2.6999999899860101e+00 -2.9365644683955083e-02 -5.5055422985755997e-01 +5.5475980469610183e-03
-2.7500000000000000e+00 +8.5267910908551094e+00 +0.0000000000000000e+00 -2.7499999894190199e+00 -2.9366912906094000e-02 -5.5057523000861508e-01 +5.5472728608072213e-03
-2.7999999999999998e+00 +8.5267834227670392e+00 +0.0000000000000000e+00 -2.7999999888310101e+00 -2.9368200034434532e-02 -5.5059656615479025e-01 +5.5469489704423917e-03
-2.8500000000000001e+00 +8.5267756163666508e+00 +0.0000000000000000e+00 -2.8499999882215898e+00 -2.9369505885883045e-02 -5.5061823604207993e-01 +5.5466263790714520e-03
-2.8999999999999999e+00 +8.5267676716539391e+00 +0.0000000000000000e+00 -2.8999999875903901e+00 -2.9370830277344030e-02 -5.5064023741646106e-01 +5.5463050898990705e-03
-2.9500000000000002e+00 +8.5267595886289200e+00 +0.0000000000000000e+00 -2.9499999869370299e+00 -2.9372173025721444e-02 -5.5066256802392022e-01 +5.5459851061299562e-03
-3.0000000000000000e+00 +8.5267513672915793e+00 +0.0000000000000000e+00 -2.9999999862611100e+00 -2.9373533947918671e-02 -5.5068522561045374e-01 +5.5456664309688529e-03
-3.0499999999999998e+00 +8.5267430076455604e+00 +0.0000000000000000e+00 -3.0499999855622502e+00 -2.9374912860837092e-02 -5.5070820792203978e-01 +5.5453490676202746e-03
-3.1000000000000001e+00 +8.5267345096872305e+00 +0.0000000000000000e+00 -3.0999999848400801e+00 -2.9376309581380031e-02 -5.5073151270471865e-01 +5.5450330192893457e-03
-3.1499999999999999e+00 +8.5267258734165807e+00 +0.0000000000000000e+00 -3.1499999840942201e+00 -2.9377723926448742e-02 -5.5075513770451290e-01 +5.5447182891809671e-03
-3.2000000000000002e+00 +8.5267170988336094e+00 +0.0000000000000000e+00 -3.1999999833242700e+00 -2.9379155712943611e-02 -5.5077908066745307e-01 +5.5444048805000992e-03
-3.2500000000000000e+00 +8.5267081859419704e+00 +0.0000000000000000e+00 -3.2499999825298600e+00 -2.9380604757762815e-02 -5.5080333933955272e-01 +5.5440927964514773e-03
-3.2999999999999998e+00 +8.5266991347380099e+00 +0.0000000000000000e+00 -3.2999999817106000e+00 -2.9382070877806244e-02 -5.5082791146688570e-01 +5.5437820402404799e-03
-3.3500000000000001e+00 +8.5266899452181004e+00 +0.0000000000000000e+00 -3.3499999808661101e+00 -2.9383553889972797e-02 -5.5085279479553328e-01 +5.5434726150725448e-03
-3.3999999999999999e+00 +8.5266806173895002e+00 +0.0000000000000000e+00 -3.3999999799960099e+00 -2.9385053611156287e-02 -5.5087798707150626e-01 +5.5431645241523523e-03
-3.4500000000000002e+00 +8.5266711512522306e+00 +0.0000000000000000e+00 -3.4499999790999101e+00 -2.9386569858252089e-02 -5.5090348604087525e-01 +5.5428577706852214e-03
-3.5000000000000000e+00 +8.5266615468026394e+00 +0.0000000000000000e+00 -3.4999999781774398e+00 -2.9388102448155717e-02 -5.5092928944974473e-01 +5.5425523578768445e-03
-3.5499999999999998e+00 +8.5266518040407409e+00 +0.0000000000000000e+00 -3.5499999772282100e+00 -2.9389651197760089e-02 -5.5095539504419966e-01 +5.5422482889327107e-03
-3.6000000000000001e+00 +8.5266419229665207e+00 +0.0000000000000000e+00 -3.5999999762518402e+00 -2.9391215923956875e-02 -5.5098180057033319e-01 +5.5419455670584145e-03
-3.6499999999999999e+00 +8.5266319035799807e+00 +0.0000000000000000e+00 -3.6499999752479400e+00 -2.9392796443636314e-02 -5.5100850377424371e-01 +5.5416441954596442e-03
-3.6999999999999900e+00 +8.5266217458847695e+00 +0.0000000000000000e+00 -3.6999999742161398e+00 -2.9394392573685958e-02 -5.5103550240201071e-01 +5.5413441773419095e-03
-3.7499999999999898e+00 +8.5266114498736005e+00 +0.0000000000000000e+00 -3.7499999731560498e+00 -2.9396004130995863e-02 -5.5106279419979942e-01 +5.5410455159116750e-03
-3.7999999999999901e+00 +8.5266010155537497e+00 +0.0000000000000000e+00 -3.7999999720672801e+00 -2.9397630932449192e-02 -5.5109037691367546e-01 +5.5407482143743888e-03
-3.8499999999999899e+00 +8.5265904429179500e+00 +0.0000000000000000e+00 -3.8499999709494599e+00 -2.9399272794932877e-02 -5.5111824828981648e-01 +5.5404522759367426e-03
-3.8999999999999901e+00 +8.5265797319771099e+00 +0.0000000000000000e+00 -3.8999999698022001e+00 -2.9400929535325495e-02 -5.5114640607427323e-01 +5.5401577038041378e-03
-3.9499999999999900e+00 +8.5265688827203103e+00 +0.0000000000000000e+00 -3.9499999686251202e+00 -2.9402600970511970e-02 -5.5117484801326178e-01 +5.5398645011837970e-03
-3.9999999999999898e+00 +8.5265578951548395e+00 +0.0000000000000000e+00 -3.9999999674178399e+00 -2.9404286917368710e-02 -5.5120357185287039e-01 +5.5395726712816539e-03
-4.0499999999999901e+00 +8.5265467692734092e+00 +0.0000000000000000e+00 -4.0499999661799704e+00 -2.9405987185912148e-02 -5.5123257522171532e-01 +5.5392822175008623e-03
-4.0999999999999899e+00 +8.5265355050833005e+00 +0.0000000000000000e+00 -4.0999999649111301e+00 -2.9407701558698259e-02 -5.5126185527797567e-01 +5.5389931440273862e-03
-4.1499999999999897e+00 +8.5265241025808791e+00 +0.0000000000000000e+00 -4.1499999636109504e+00 -2.9409429811424387e-02 -5.5129140906232532e-01 +5.5387054552441051e-03
-4.1999999999999904e+00 +8.5265125617697795e+00 +0.0000000000000000e+00 -4.1999999622790298e+00 -2.9411171719786511e-02 -5.5132123361538832e-01 +5.5384191555334509e-03
-4.2499999999999902e+00 +8.5265008826427202e+00 +0.0000000000000000e+00 -4.2499999609149901e+00 -2.9412927059485873e-02 -5.5135132597786773e-01 +5.5381342492788260e-03
-4.2999999999999901e+00 +8.5264890652069898e+00 +0.0000000000000000e+00 -4.2999999595184599e+00 -2.9414695606219718e-02 -5.5138168319036085e-01 +5.5378507408626260e-03
-4.3499999999999899e+00 +8.5264771094589396e+00 +0.0000000000000000e+00 -4.3499999580890396e+00 -2.9416477135690670e-02 -5.5141230229354532e-01 +5.5375686346682282e-03
-4.3999999999999897e+00 +8.5264650153985695e+00 +0.0000000000000000e+00 -4.3999999566263703e+00 -2.9418271423601452e-02 -5.5144318032807160e-01 +5.5372879350788565e-03
-4.4499999999999904e+00 +8.5264527830295300e+00 +0.0000000000000000e+00 -4.4499999551300400e+00 -2.9420078245654832e-02 -5.5147431433456318e-01 +5.5370086464775845e-03
-4.4999999999999902e+00 +8.5264404123481707e+00 +0.0000000000000000e+00 -4.4999999535996897e+00 -2.9421897377557790e-02 -5.5150570135369570e-01 +5.5367307732482000e-03
-4.5499999999999901e+00 +8.5264279033544899e+00 +0.0000000000000000e+00 -4.5499999520349199e+00 -2.9423728595017483e-02 -5.5153733842611719e-01 +5.5364543197743438e-03
-4.5999999999999899e+00 +8.5264152560448601e+00 +0.0000000000000000e+00 -4.5999999504353601e+00 -2.9425571673743954e-02 -5.5156922259250107e-01 +5.5361792904400822e-03
-4.6499999999999897e+00 +8.5264024704301793e+00 +0.0000000000000000e+00 -4.6499999488006196e+00 -2.9427426389443460e-02 -5.5160135089341289e-01 +5.5359056896285182e-03
-4.6999999999999904e+00 +8.5263895464995603e+00 +0.0000000000000000e+00 -4.6999999471303298e+00 -2.9429292517831957e-02 -5.5163372036957481e-01 +5.5356335217245835e-03
-4.7499999999999902e+00 +8.5263764842602505e+00 +0.0000000000000000e+00 -4.7499999454240900e+00 -2.9431169834620366e-02 -5.5166632806157434e-01 +5.5353627911119696e-03
-4.7999999999999901e+00 +8.5263632837050007e+00 +0.0000000000000000e+00 -4.7999999436815299e+00 -2.9433058115526697e-02 -5.5169917101010324e-01 +5.5350935021756496e-03
-4.8499999999999899e+00 +8.5263499448447000e+00 +0.0000000000000000e+00 -4.8499999419022597e+00 -2.9434957136263953e-02 -5.5173224625571693e-01 +5.5348256592993609e-03
-4.8999999999999897e+00 +8.5263364676684397e+00 +0.0000000000000000e+00 -4.8999999400859000e+00 -2.9436866672554993e-02 -5.5176555083912671e-01 +5.5345592668686883e-03
-4.9499999999999904e+00 +8.5263228521798702e+00 +0.0000000000000000e+00 -4.9499999382320699e+00 -2.9438786500119132e-02 -5.5179908180093484e-01 +5.5342943292682658e-03
-4.9999999999999902e+00 +8.5263090983826295e+00 +0.0000000000000000e+00 -4.9999999363403900e+00 -2.9440716394677522e-02 -5.5183283618173917e-01 +5.5340308508829072e-03
-5.0499999999999901e+00 +8.5262952059529198e+00 +0.0000000000000000e+00 -5.0499999344103799e+00 -2.9442656132074543e-02 -5.5186681102452295e-01 +5.5337688361228651e-03
-5.0999999999999899e+00 +8.5262811745706095e+00 +0.0000000000000000e+00 -5.0999999324415599e+00 -2.9444605488155258e-02 -5.5190100337224024e-01 +5.5335082893982861e-03
-5.1499999999999897e+00 +8.5262670042357094e+00 +0.0000000000000000e+00 -5.1499999304335597e+00 -2.9446564238648141e-02 -5.5193541026550608e-01 +5.5332492150947923e-03
-5.1999999999999904e+00 +8.5262526949518396e+00 +0.0000000000000000e+00 -5.1999999283859903e+00 -2.9448532159282333e-02 -5.5197002874490353e-01 +5.5329916175979243e-03
-5.2499999999999902e+00 +8.5262382467153692e+00 +0.0000000000000000e+00 -5.2499999262984600e+00 -2.9450509025791688e-02 -5.5200485585106407e-01 +5.5327355012939660e-03
-5.2999999999999901e+00 +8.5262236595299292e+00 +0.0000000000000000e+00 -5.2999999241705797e+00 -2.9452494613909471e-02 -5.5203988862455999e-01 +5.5324808705688447e-03
-5.3499999999999899e+00 +8.5262089333882596e+00 +0.0000000000000000e+00 -5.3499999220019703e+00 -2.9454488699375118e-02 -5.5207512410603754e-01 +5.5322277298095234e-03
-5.3999999999999897e+00 +8.5261940682976292e+00 +0.0000000000000000e+00 -5.3999999197922497e+00 -2.9456491057924812e-02 -5.5211055933603104e-01 +5.5319760834020544e-03
-5.4499999999999904e+00 +8.5261790642507496e+00 +0.0000000000000000e+00 -5.4499999175410201e+00 -2.9458501465302316e-02 -5.5214619135517373e-01 +5.5317259357338120e-03
-5.4999999999999902e+00 +8.5261639212585596e+00 +0.0000000000000000e+00 -5.4999999152479004e+00 -2.9460519697246921e-02 -5.5218201720396010e-01 +5.5314772911909844e-03
-5.5499999999999901e+00 +8.5261486393137602e+00 +0.0000000000000000e+00 -5.5499999129125097e+00 -2.9462545529506896e-02 -5.5221803392300983e-01 +5.5312301541613745e-03
-5.5999999999999899e+00 +8.5261332184127205e+00 +0.0000000000000000e+00 -5.5999999105344500e+00 -2.9464578737831506e-02 -5.5225423855290967e-01 +5.5309845290327266e-03
-5.6499999999999897e+00 +8.5261176585627307e+00 +0.0000000000000000e+00 -5.6499999081133403e+00 -2.9466619097968248e-02 -5.5229062813415686e-01 +5.5307404201921581e-03
-5.6999999999999904e+00 +8.5261019597637606e+00 +0.0000000000000000e+00 -5.6999999056488004e+00 -2.9468666385669796e-02 -5.5232719970729638e-01 +5.5304978320275811e-03
-5.7499999999999902e+00 +8.5260861220122006e+00 +0.0000000000000000e+00 -5.7499999031404396e+00 -2.9470720376692485e-02 -5.5236395031289010e-01 +5.5302567689274121e-03
-5.7999999999999901e+00 +8.5260701453080401e+00 +0.0000000000000000e+00 -5.7999999005878804e+00 -2.9472780846793879e-02 -5.5240087699146512e-01 +5.5300172352800228e-03
-5.8499999999999899e+00 +8.5260540296512808e+00 +0.0000000000000000e+00 -5.8499998979907204e+00 -2.9474847571733936e-02 -5.5243797678353979e-01 +5.5297792354740208e-03
