# trajectory
# s[mm] rx[mm] ry[mm] rz[mm] px[rad] py[rad] pz[rad]
0.0000000000000000e+00 +8.3650000000000002e+00 +0.0000000000000000e+00 +0.0000000000000000e+00 +0.0000000000000000e+00 +0.0000000000000000e+00 +1.0000000000000000e+00
-5.0000000000000003e-02 +8.3649999310012237e+00 +0.0000000000000000e+00 -4.9999999999936526e-02 +2.7599499443245563e-06 +0.0000000000000000e+00 +9.9999999999619138e-01
-1.0000000000000001e-01 +8.3649997240051057e+00 +0.0000000000000000e+00 -9.9999999999492190e-02 +5.5198939830901050e-06 +0.0000000000000000e+00 +9.9999999998476541e-01
-1.5000000000000002e-01 +8.3649993790118931e+00 +0.0000000000000000e+00 -1.4999999999828612e-01 +8.2798340435486129e-06 +0.0000000000000000e+00 +9.9999999996572220e-01
-2.0000000000000001e-01 +8.3649988960217367e+00 +0.0000000000000000e+00 -1.9999999999593746e-01 +1.1039772048761263e-05 +0.0000000000000000e+00 +9.9999999993906175e-01
-2.5000000000000000e-01 +8.3649982750346918e+00 +0.0000000000000000e+00 -2.4999999999206535e-01 +1.3799709917598544e-05 +0.0000000000000000e+00 +9.9999999990478405e-01
-2.9999999999999999e-01 +8.3649975160507157e+00 +0.0000000000000000e+00 -2.9999999998628890e-01 +1.6559649564740346e-05 +0.0000000000000000e+00 +9.9999999986288901e-01
-3.4999999999999998e-01 +8.3649966190696734e+00 +0.0000000000000000e+00 -3.4999999997822728e-01 +1.9319592900676040e-05 +0.0000000000000000e+00 +9.9999999981337673e-01
-3.9999999999999997e-01 +8.3649955840913321e+00 +0.0000000000000000e+00 -3.9999999996749963e-01 +2.2079541831704575e-05 +0.0000000000000000e+00 +9.9999999975624698e-01
-4.4999999999999996e-01 +8.3649944111153651e+00 +0.0000000000000000e+00 -4.4999999995372503e-01 +2.4839498259934557e-05 +0.0000000000000000e+00 +9.9999999969149977e-01
-4.9999999999999994e-01 +8.3649931001413496e+00 +0.0000000000000000e+00 -4.9999999993652261e-01 +2.7599464083284346e-05 +0.0000000000000000e+00 +9.9999999961913488e-01
-5.4999999999999993e-01 +8.3649916511687685e+00 +0.0000000000000000e+00 -5.4999999991551152e-01 +3.0359441195482131e-05 +0.0000000000000000e+00 +9.9999999953915231e-01
-5.9999999999999998e-01 +8.3649900641970110e+00 +0.0000000000000000e+00 -5.9999999989031083e-01 +3.3119431486066033e-05 +0.0000000000000000e+00 +9.9999999945155182e-01
-6.5000000000000002e-01 +8.3649883392253699e+00 +0.0000000000000000e+00 -6.4999999986053969e-01 +3.5879436840384171e-05 +0.0000000000000000e+00 +9.9999999935633321e-01
-7.0000000000000007e-01 +8.3649864762530441e+00 +0.0000000000000000e+00 -6.9999999982581718e-01 +3.8639459139594759e-05 +0.0000000000000000e+00 +9.9999999925349625e-01
-7.5000000000000011e-01 +8.3649844752791420e+00 +0.0000000000000000e+00 -7.4999999978576237e-01 +4.1399500260666193e-05 +0.0000000000000000e+00 +9.9999999914304083e-01
-8.0000000000000016e-01 +8.3649823363026741e+00 +0.0000000000000000e+00 -7.9999999973999425e-01 +4.4159562076377129e-05 +0.0000000000000000e+00 +9.9999999902496672e-01
-8.5000000000000020e-01 +8.3649800593225585e+00 +0.0000000000000000e+00 -8.4999999968813200e-01 +4.6919646455316574e-05 +0.0000000000000000e+00 +9.9999999889927360e-01
-9.0000000000000024e-01 +8.3649776443376211e+00 +0.0000000000000000e+00 -8.9999999962979460e-01 +4.9679755261883968e-05 +0.0000000000000000e+00 +9.9999999876596113e-01
-9.5000000000000029e-01 +8.3649750913465937e+00 +0.0000000000000000e+00 -9.4999999956460113e-01 +5.2439890356289256e-05 +0.0000000000000000e+00 +9.9999999862502909e-01
-1.0000000000000002e+00 +8.3649724003481154e+00 +0.0000000000000000e+00 -9.9999999949217055e-01 +5.5200053594552983e-05 +0.0000000000000000e+00 +9.9999999847647714e-01
-1.0500000000000003e+00 +8.3649695713407333e+00 +0.0000000000000000e+00 -1.0499999994121219e+00 +5.7960246828506372e-05 +0.0000000000000000e+00 +9.9999999832030495e-01
-1.1000000000000003e+00 +8.3649666043229018e+00 +0.0000000000000000e+00 -1.0999999993240741e+00 +6.0720471905791416e-05 +0.0000000000000000e+00 +9.9999999815651219e-01
-1.1500000000000004e+00 +8.3649634992929816e+00 +0.0000000000000000e+00 -1.1499999992276462e+00 +6.3480730669860942e-05 +0.0000000000000000e+00 +9.9999999798509842e-01
-1.2000000000000004e+00 +8.3649602562492422e+00 +0.0000000000000000e+00 -1.1999999991224570e+00 +6.6241024959978696e-05 +0.0000000000000000e+00 +9.9999999780606330e-01
-1.2500000000000004e+00 +8.3649568751898631e+00 +0.0000000000000000e+00 -1.2499999990081254e+00 +6.9001356611219435e-05 +0.0000000000000000e+00 +9.9999999761940639e-01
-1.3000000000000005e+00 +8.3649533561129292e+00 +0.0000000000000000e+00 -1.2999999988842705e+00 +7.1761727454468997e-05 +0.0000000000000000e+00 +9.9999999742512724e-01
-1.3500000000000005e+00 +8.3649496990164351e+00 +0.0000000000000000e+00 -1.3499999987505111e+00 +7.4522139316424380e-05 +0.0000000000000000e+00 +9.9999999722322541e-01
-1.4000000000000006e+00 +8.3649459038982847e+00 +0.0000000000000000e+00 -1.3999999986064660e+00 +7.7282594019593832e-05 +0.0000000000000000e+00 +9.9999999701370035e-01
-1.4500000000000006e+00 +8.3649419707562895e+00 +0.0000000000000000e+00 -1.4499999984517540e+00 +8.0043093382296910e-05 +0.0000000000000000e+00 +9.9999999679655160e-01
-1.5000000000000007e+00 +8.3649378995881722e+00 +0.0000000000000000e+00 -1.4999999982859940e+00 +8.2803639218664586e-05 +0.0000000000000000e+00 +9.9999999657177863e-01
-1.5500000000000007e+00 +8.3649336903915632e+00 +0.0000000000000000e+00 -1.5499999981088046e+00 +8.5564233338639286e-05 +0.0000000000000000e+00 +9.9999999633938097e-01
-1.6000000000000008e+00 +8.3649293431640039e+00 +0.0000000000000000e+00 -1.5999999979198050e+00 +8.8324877547975005e-05 +0.0000000000000000e+00 +9.9999999609935797e-01
-1.6500000000000008e+00 +8.3649248579029436e+00 +0.0000000000000000e+00 -1.6499999977186135e+00 +9.1085573648237378e-05 +0.0000000000000000e+00 +9.9999999585170907e-01
-1.7000000000000008e+00 +8.3649202346057443e+00 +0.0000000000000000e+00 -1.6999999975048488e+00 +9.3846323436803716e-05 +0.0000000000000000e+00 +9.9999999559643371e-01
-1.7500000000000009e+00 +8.3649154732696758e+00 +0.0000000000000000e+00 -1.7499999972781297e+00 +9.6607128706863139e-05 +0.0000000000000000e+00 +9.9999999533353123e-01
-1.8000000000000009e+00 +8.3649105738919189e+00 +0.0000000000000000e+00 -1.7999999970380749e+00 +9.9367991247416613e-05 +0.0000000000000000e+00 +9.9999999506300108e-01
-1.8500000000000010e+00 +8.3649055364695659e+00 +0.0000000000000000e+00 -1.8499999967843028e+00 +1.0212891284327705e-04 +0.0000000000000000e+00 +9.9999999478484247e-01
-1.9000000000000010e+00 +8.3649003609996200e+00 +0.0000000000000000e+00 -1.8999999965164320e+00 +1.0488989527506936e-04 +0.0000000000000000e+00 +9.9999999449905486e-01
-1.9500000000000011e+00 +8.3648950474789938e+00 +0.0000000000000000e+00 -1.9499999962340810e+00 +1.0765094031923052e-04 +0.0000000000000000e+00 +9.9999999420563745e-01
-2.0000000000000009e+00 +8.3648895959045149e+00 +0.0000000000000000e+00 -1.9999999959368686e+00 +1.1041204974800969e-04 +0.0000000000000000e+00 +9.9999999390458960e-01
-2.0500000000000007e+00 +8.3648840062729164e+00 +0.0000000000000000e+00 -2.0499999956244128e+00 +1.1317322532920211e-04 +0.0000000000000000e+00 +9.9999999359591052e-01
-2.1000000000000005e+00 +8.3648782785808500e+00 +0.0000000000000000e+00 -2.0999999952963324e+00 +1.1593446882322161e-04 +0.0000000000000000e+00 +9.9999999327959943e-01
-2.1500000000000004e+00 +8.3648724128248730e+00 +0.0000000000000000e+00 -2.1499999949522457e+00 +1.1869578198017320e-04 +0.0000000000000000e+00 +9.9999999295565567e-01
-2.2000000000000002e+00 +8.3648664090014613e+00 +0.0000000000000000e+00 -2.1999999945917708e+00 +1.2145716653958694e-04 +0.0000000000000000e+00 +9.9999999262407835e-01
-2.2500000000000000e+00 +8.3648602671069998e+00 +0.0000000000000000e+00 -2.2499999942145261e+00 +1.2421862423041800e-04 +0.0000000000000000e+00 +9.9999999228486669e-01
-2.2999999999999998e+00 +8.3648539871377903e+00 +0.0000000000000000e+00 -2.2999999938201303e+00 +1.2698015677104673e-04 +0.0000000000000000e+00 +9.9999999193801992e-01
-2.3499999999999996e+00 +8.3648475690900472e+00 +0.0000000000000000e+00 -2.3499999934082010e+00 +1.2974176586927870e-04 +0.0000000000000000e+00 +9.9999999158353714e-01
-2.3999999999999995e+00 +8.3648410129599000e+00 +0.0000000000000000e+00 -2.3999999929783566e+00 +1.3250345322234479e-04 +0.0000000000000000e+00 +9.9999999122141747e-01
-2.4499999999999993e+00 +8.3648343187433927e+00 +0.0000000000000000e+00 -2.4499999925302154e+00 +1.3526522051690121e-04 +0.0000000000000000e+00 +9.9999999085166014e-01
-2.4999999999999991e+00 +8.3648274864364875e+00 +0.0000000000000000e+00 -2.4999999920633953e+00 +1.3802706942902957e-04 +0.0000000000000000e+00 +9.9999999047426413e-01
-2.5499999999999989e+00 +8.3648205160350617e+00 +0.0000000000000000e+00 -2.5499999915775144e+00 +1.4078900162423690e-04 +0.0000000000000000e+00 +9.9999999008922857e-01
-2.5999999999999988e+00 +8.3648134075349088e+00 +0.0000000000000000e+00 -2.5999999910721909e+00 +1.4355101875745578e-04 +0.0000000000000000e+00 +9.9999998969655257e-01
-2.6499999999999986e+00 +8.3648061609317423e+00 +0.0000000000000000e+00 -2.6499999905470424e+00 +1.4631312247304423e-04 +0.0000000000000000e+00 +9.9999998929623513e-01
-2.6999999999999984e+00 +8.3647987762211908e+00 +0.0000000000000000e+00 -2.6999999900016869e+00 +1.4907531440478596e-04 +0.0000000000000000e+00 +9.9999998888827535e-01
-2.7499999999999982e+00 +8.3647912533988045e+00 +0.0000000000000000e+00 -2.7499999894357425e+00 +1.5183759617589027e-04 +0.0000000000000000e+00 +9.9999998847267224e-01
-2.7999999999999980e+00 +8.3647835924600500e+00 +0.0000000000000000e+00 -2.7999999888488269e+00 +1.5459996939899215e-04 +0.0000000000000000e+00 +9.9999998804942480e-01
-2.8499999999999979e+00 +8.3647757934003142e+00 +0.0000000000000000e+00 -2.8499999882405578e+00 +1.5736243567615233e-04 +0.0000000000000000e+00 +9.9999998761853204e-01
-2.8999999999999977e+00 +8.3647678562149057e+00 +0.0000000000000000e+00 -2.8999999876105527e+00 +1.6012499659885727e-04 +0.0000000000000000e+00 +9.9999998717999283e-01
-2.9499999999999975e+00 +8.3647597808990515e+00 +0.0000000000000000e+00 -2.9499999869584297e+00 +1.6288765374801928e-04 +0.0000000000000000e+00 +9.9999998673380619e-01
-2.9999999999999973e+00 +8.3647515674479020e+00 +0.0000000000000000e+00 -2.9999999862838060e+00 +1.6565040869397649e-04 +0.0000000000000000e+00 +9.9999998627997111e-01
-3.0499999999999972e+00 +8.3647432158565262e+00 +0.0000000000000000e+00 -3.0499999855862994e+00 +1.6841326299649295e-04 +0.0000000000000000e+00 +9.9999998581848648e-01
-3.0999999999999970e+00 +8.3647347261199201e+00 +0.0000000000000000e+00 -3.0999999848655273e+00 +1.7117621820475861e-04 +0.0000000000000000e+00 +9.9999998534935119e-01
-3.1499999999999968e+00 +8.3647260982329978e+00 +0.0000000000000000e+00 -3.1499999841211070e+00 +1.7393927585738944e-04 +0.0000000000000000e+00 +9.9999998487256414e-01
-3.1999999999999966e+00 +8.3647173321906010e+00 +0.0000000000000000e+00 -3.1999999833526562e+00 +1.7670243748242734e-04 +0.0000000000000000e+00 +9.9999998438812432e-01
-3.2499999999999964e+00 +8.3647084279874910e+00 +0.0000000000000000e+00 -3.2499999825597921e+00 +1.7946570459734029e-04 +0.0000000000000000e+00 +9.9999998389603051e-01
-3.2999999999999963e+00 +8.3646993856183567e+00 +0.0000000000000000e+00 -3.2999999817421317e+00 +1.8222907870902232e-04 +0.0000000000000000e+00 +9.9999998339628149e-01
-3.3499999999999961e+00 +8.3646902050778120e+00 +0.0000000000000000e+00 -3.3499999808992924e+00 +1.8499256131379358e-04 +0.0000000000000000e+00 +9.9999998288887615e-01
-3.3999999999999959e+00 +8.3646808863603930e+00 +0.0000000000000000e+00 -3.3999999800308918e+00 +1.8775615389740035e-04 +0.0000000000000000e+00 +9.9999998237381338e-01
-3.4499999999999957e+00 +8.3646714294605644e+00 +0.0000000000000000e+00 -3.4499999791365461e+00 +1.9051985793501507e-04 +0.0000000000000000e+00 +9.9999998185109185e-01
-3.4999999999999956e+00 +8.3646618343727166e+00 +0.0000000000000000e+00 -3.4999999782158731e+00 +1.9328367489123636e-04 +0.0000000000000000e+00 +9.9999998132071044e-01
-3.5499999999999954e+00 +8.3646521010911687e+00 +0.0000000000000000e+00 -3.5499999772684894e+00 +1.9604760622008908e-04 +0.0000000000000000e+00 +9.9999998078266794e-01
-3.5999999999999952e+00 +8.3646422296101655e+00 +0.0000000000000000e+00 -3.5999999762940122e+00 +1.9881165336502432e-04 +0.0000000000000000e+00 +9.9999998023696313e-01
-3.6499999999999950e+00 +8.3646322199238785e+00 +0.0000000000000000e+00 -3.6499999752920580e+00 +2.0157581775891948e-04 +0.0000000000000000e+00 +9.9999997968359466e-01
-3.6999999999999948e+00 +8.3646220720264122e+00 +0.0000000000000000e+00 -3.6999999742622438e+00 +2.0434010082407818e-04 +0.0000000000000000e+00 +9.9999997912256144e-01
-3.7499999999999947e+00 +8.3646117859117961e+00 +0.0000000000000000e+00 -3.7499999732041864e+00 +2.0710450397223046e-04 +0.0000000000000000e+00 +9.9999997855386202e-01
-3.7999999999999945e+00 +8.3646013615739907e+00 +0.0000000000000000e+00 -3.7999999721175022e+00 +2.0986902860453259e-04 +0.0000000000000000e+00 +9.9999997797749518e-01
-3.8499999999999943e+00 +8.3645907990068871e+00 +0.0000000000000000e+00 -3.8499999710018078e+00 +2.1263367611156731e-04 +0.0000000000000000e+00 +9.9999997739345969e-01
-3.8999999999999941e+00 +8.3645800982043088e+00 +0.0000000000000000e+00 -3.8999999698567200e+00 +2.1539844787334366e-04 +0.0000000000000000e+00 +9.9999997680175412e-01
-3.9499999999999940e+00 +8.3645692591600067e+00 +0.0000000000000000e+00 -3.9499999686818552e+00 +2.1816334525929712e-04 +0.0000000000000000e+00 +9.9999997620237713e-01
-3.9999999999999938e+00 +8.3645582818676658e+00 +0.0000000000000000e+00 -3.9999999674768296e+00 +2.2092836962828957e-04 +0.0000000000000000e+00 +9.9999997559532749e-01
-4.0499999999999936e+00 +8.3645471663209037e+00 +0.0000000000000000e+00 -4.0499999662412600e+00 +2.2369352232849346e-04 +0.0000000000000000e+00 +9.9999997498060378e-01
-4.0999999999999934e+00 +8.3645359125132703e+00 +0.0000000000000000e+00 -4.0999999649747618e+00 +2.2645880469611711e-04 +0.0000000000000000e+00 +9.9999997435820465e-01
-4.1499999999999932e+00 +8.3645245204382501e+00 +0.0000000000000000e+00 -4.1499999636769518e+00 +2.2922421805413008e-04 +0.0000000000000000e+00 +9.9999997372812865e-01
-4.1999999999999931e+00 +8.3645129900892599e+00 +0.0000000000000000e+00 -4.1999999623474462e+00 +2.3198976371214731e-04 +0.0000000000000000e+00 +9.9999997309037447e-01
-4.2499999999999929e+00 +8.3645013214596524e+00 +0.0000000000000000e+00 -4.2499999609858614e+00 +2.3475544296642907e-04 +0.0000000000000000e+00 +9.9999997244494065e-01
-4.2999999999999927e+00 +8.3644895145427149e+00 +0.0000000000000000e+00 -4.2999999595918128e+00 +2.3752125709988105e-04 +0.0000000000000000e+00 +9.9999997179182587e-01
-4.3499999999999925e+00 +8.3644775693316724e+00 +0.0000000000000000e+00 -4.3499999581649158e+00 +2.4028720738205429e-04 +0.0000000000000000e+00 +9.9999997113102868e-01
-4.3999999999999924e+00 +8.3644654858196859e+00 +0.0000000000000000e+00 -4.3999999567047876e+00 +2.4305329506914527e-04 +0.0000000000000000e+00 +9.9999997046254752e-01
-4.4499999999999922e+00 +8.3644532639998541e+00 +0.0000000000000000e+00 -4.4499999552110427e+00 +2.4581952140399581e-04 +0.0000000000000000e+00 +9.9999996978638106e-01
-4.4999999999999920e+00 +8.3644409038652139e+00 +0.0000000000000000e+00 -4.4999999536832975e+00 +2.4858588761609321e-04 +0.0000000000000000e+00 +9.9999996910252786e-01
-4.5499999999999918e+00 +8.3644284054087414e+00 +0.0000000000000000e+00 -4.5499999521211674e+00 +2.5135239492157015e-04 +0.0000000000000000e+00 +9.9999996841098637e-01
-4.5999999999999917e+00 +8.3644157686233509e+00 +0.0000000000000000e+00 -4.5999999505242677e+00 +2.5411904452320465e-04 +0.0000000000000000e+00 +9.9999996771175514e-01
-4.6499999999999915e+00 +8.3644029935018978e+00 +0.0000000000000000e+00 -4.6499999488922148e+00 +2.5688583761042025e-04 +0.0000000000000000e+00 +9.9999996700483273e-01
-4.6999999999999913e+00 +8.3643900800371789e+00 +0.0000000000000000e+00 -4.6999999472246232e+00 +2.5965277535928581e-04 +0.0000000000000000e+00 +9.9999996629021759e-01
-4.7499999999999911e+00 +8.3643770282219307e+00 +0.0000000000000000e+00 -4.7499999455211084e+00 +2.6241985893251567e-04 +0.0000000000000000e+00 +9.9999996556790827e-01
-4.7999999999999909e+00 +8.3643638380488348e+00 +0.0000000000000000e+00 -4.7999999437812857e+00 +2.6518708947946952e-04 +0.0000000000000000e+00 +9.9999996483790321e-01
-4.8499999999999908e+00 +8.3643505095105137e+00 +0.0000000000000000e+00 -4.8499999420047706e+00 +2.6795446813615250e-04 +0.0000000000000000e+00 +9.9999996410020087e-01
-4.8999999999999906e+00 +8.3643370425995336e+00 +0.0000000000000000e+00 -4.8999999401911776e+00 +2.7072199602521508e-04 +0.0000000000000000e+00 +9.9999996335479979e-01
-4.9499999999999904e+00 +8.3643234373084052e+00 +0.0000000000000000e+00 -4.9499999383401221e+00 +2.7348967425595318e-04 +0.0000000000000000e+00 +9.9999996260169832e-01
-4.9999999999999902e+00 +8.3643096936295844e+00 +0.0000000000000000e+00 -4.9999999364512187e+00 +2.7625750392430812e-04 +0.0000000000000000e+00 +9.9999996184089501e-01
-5.0499999999999901e+00 +8.3642958115554720e+00 +0.0000000000000000e+00 -5.0499999345240827e+00 +2.7902548611286651e-04 +0.0000000000000000e+00 +9.9999996107238831e-01
-5.0999999999999899e+00 +8.3642817910784135e+00 +0.0000000000000000e+00 -5.0999999325583287e+00 +2.8179362189086039e-04 +0.0000000000000000e+00 +9.9999996029617655e-01
-5.1499999999999897e+00 +8.3642676321907050e+00 +0.0000000000000000e+00 -5.1499999305535713e+00 +2.8456191231416710e-04 +0.0000000000000000e+00 +9.9999995951225817e-01
-5.1999999999999895e+00 +8.3642533348845873e+00 +0.0000000000000000e+00 -5.1999999285094258e+00 +2.8733035842530937e-04 +0.0000000000000000e+00 +9.9999995872063163e-01
-5.2499999999999893e+00 +8.3642388991522498e+00 +0.0000000000000000e+00 -5.2499999264255059e+00 +2.9009896125345522e-04 +0.0000000000000000e+00 +9.9999995792129537e-01
-5.2999999999999892e+00 +8.3642243249858321e+00 +0.0000000000000000e+00 -5.2999999243014271e+00 +2.9286772181441801e-04 +0.0000000000000000e+00 +9.9999995711424772e-01
-5.3499999999999890e+00 +8.3642096123774223e+00 +0.0000000000000000e+00 -5.3499999221368029e+00 +2.9563664111065632e-04 +0.0000000000000000e+00 +9.9999995629948712e-01
-5.3999999999999888e+00 +8.3641947613190588e+00 +0.0000000000000000e+00 -5.3999999199312478e+00 +2.9840572013127412e-04 +0.0000000000000000e+00 +9.9999995547701193e-01
-5.4499999999999886e+00 +8.3641797718027302e+00 +0.0000000000000000e+00 -5.4499999176843756e+00 +3.0117495985202054e-04 +0.0000000000000000e+00 +9.9999995464682057e-01
-5.4999999999999885e+00 +8.3641646438203789e+00 +0.0000000000000000e+00 -5.4999999153958008e+00 +3.0394436123529000e-04 +0.0000000000000000e+00 +9.9999995380891138e-01
-5.5499999999999883e+00 +8.3641493773638960e+00 +0.0000000000000000e+00 -5.5499999130651378e+00 +3.0671392523012213e-04 +0.0000000000000000e+00 +9.9999995296328270e-01
-5.5999999999999881e+00 +8.3641339724251296e+00 +0.0000000000000000e+00 -5.5999999106920004e+00 +3.0948365277220173e-04 +0.0000000000000000e+00 +9.9999995210993298e-01
-5.6499999999999879e+00 +8.3641184289958783e+00 +0.0000000000000000e+00 -5.6499999082760022e+00 +3.1225354478385883e-04 +0.0000000000000000e+00 +9.9999995124886054e-01
-5.6999999999999877e+00 +8.3641027470678946e+00 +0.0000000000000000e+00 -5.6999999058167576e+00 +3.1502360217406853e-04 +0.0000000000000000e+00 +9.9999995038006362e-01
-5.7499999999999876e+00 +8.3640869266328881e+00 +0.0000000000000000e+00 -5.7499999033138796e+00 +3.1779382583845109e-04 +0.0000000000000000e+00 +9.9999994950354065e-01
-5.7999999999999874e+00 +8.3640709676825242e+00 +0.0000000000000000e+00 -5.7999999007669825e+00 +3.2056421665927187e-04 +0.0000000000000000e+00 +9.9999994861928998e-01
-5.8499999999999872e+00 +8.3640548702084221e+00 +0.0000000000000000e+00 -5.8499998981756800e+00 +3.2333477550544127e-04 +0.0000000000000000e+00 +9.9999994772730993e-01
