# trajectory
# s[mm] rx[mm] ry[mm] rz[mm] px[rad] py[rad] pz[rad]
0.0000000000000000e+00 +8.5980000000000008e+00 +0.0000000000000000e+00 +0.0000000000000000e+00 +0.0000000000000000e+00 +0.0000000000000000e+00 +1.0000000000000000e+00
5.0000000000000003e-02 +8.5979999309438053e+00 +0.0000000000000000e+00 +4.9999999999936422e-02 -2.7622476537475336e-06 +0.0000000000000000e+00 +9.9999999999618494e-01
1.0000000000000001e-01 +8.5979997237752368e+00 +0.0000000000000000e+00 +9.9999999999491329e-02 -5.5244952105030313e-06 +0.0000000000000000e+00 +9.9999999998473987e-01
1.5000000000000002e-01 +8.5979993784942561e+00 +0.0000000000000000e+00 +1.4999999999828323e-01 -8.2867444463941764e-06 +0.0000000000000000e+00 +9.9999999996566480e-01
2.0000000000000001e-01 +8.5979988951007353e+00 +0.0000000000000000e+00 +1.9999999999593063e-01 -1.1048997134178834e-05 +0.0000000000000000e+00 +9.9999999993895972e-01
2.5000000000000000e-01 +8.5979982735944560e+00 +0.0000000000000000e+00 +2.4999999999205202e-01 -1.3811255043245130e-05 +0.0000000000000000e+00 +9.9999999990462451e-01
2.9999999999999999e-01 +8.5979975139751144e+00 +0.0000000000000000e+00 +2.9999999998626592e-01 -1.6573519939611536e-05 +0.0000000000000000e+00 +9.9999999986265908e-01
3.4999999999999998e-01 +8.5979966162423160e+00 +0.0000000000000000e+00 +3.4999999997819076e-01 -1.9335793585926957e-05 +0.0000000000000000e+00 +9.9999999981306342e-01
3.9999999999999997e-01 +8.5979955803955797e+00 +0.0000000000000000e+00 +3.9999999996744506e-01 -2.2098077741470804e-05 +0.0000000000000000e+00 +9.9999999975583731e-01
4.4999999999999996e-01 +8.5979944064343368e+00 +0.0000000000000000e+00 +4.4999999995364731e-01 -2.4860374162153086e-05 +0.0000000000000000e+00 +9.9999999969098075e-01
4.9999999999999994e-01 +8.5979930943579301e+00 +0.0000000000000000e+00 +4.9999999993641597e-01 -2.7622684600514483e-05 +0.0000000000000000e+00 +9.9999999961849351e-01
5.4999999999999993e-01 +8.5979916441656137e+00 +0.0000000000000000e+00 +5.4999999991536952e-01 -3.0385010805726429e-05 +0.0000000000000000e+00 +9.9999999953837537e-01
5.9999999999999998e-01 +8.5979900558565578e+00 +0.0000000000000000e+00 +5.9999999989012631e-01 -3.3147354523591195e-05 +0.0000000000000000e+00 +9.9999999945062623e-01
6.5000000000000002e-01 +8.5979883294298407e+00 +0.0000000000000000e+00 +6.4999999986030488e-01 -3.5909717496541968e-05 +0.0000000000000000e+00 +9.9999999935524586e-01
7.0000000000000007e-01 +8.5979864648844586e+00 +0.0000000000000000e+00 +6.9999999982552363e-01 -3.8672101463642933e-05 +0.0000000000000000e+00 +9.9999999925223404e-01
7.5000000000000011e-01 +8.5979844622193156e+00 +0.0000000000000000e+00 +7.4999999978540099e-01 -4.1434508160589335e-05 +0.0000000000000000e+00 +9.9999999914159055e-01
8.0000000000000016e-01 +8.5979823214332338e+00 +0.0000000000000000e+00 +7.9999999973955538e-01 -4.4196939319707575e-05 +0.0000000000000000e+00 +9.9999999902331504e-01
8.5000000000000020e-01 +8.5979800425249469e+00 +0.0000000000000000e+00 +8.4999999968760520e-01 -4.6959396669955281e-05 +0.0000000000000000e+00 +9.9999999889740732e-01
9.0000000000000024e-01 +8.5979776254931011e+00 +0.0000000000000000e+00 +8.9999999962916888e-01 -4.9721881936921389e-05 +0.0000000000000000e+00 +9.9999999876386703e-01
9.5000000000000029e-01 +8.5979750703362594e+00 +0.0000000000000000e+00 +9.4999999956386472e-01 -5.2484396842826206e-05 +0.0000000000000000e+00 +9.9999999862269384e-01
1.0000000000000002e+00 +8.5979723770528942e+00 +0.0000000000000000e+00 +9.9999999949131102e-01 -5.5246943106521507e-05 +0.0000000000000000e+00 +9.9999999847388743e-01
1.0500000000000003e+00 +8.5979695456413960e+00 +0.0000000000000000e+00 +1.0499999994111262e+00 -5.8009522443490589e-05 +0.0000000000000000e+00 +9.9999999831744746e-01
1.1000000000000003e+00 +8.5979665761000685e+00 +0.0000000000000000e+00 +1.0999999993229286e+00 -6.0772136565848359e-05 +0.0000000000000000e+00 +9.9999999815337348e-01
1.1500000000000004e+00 +8.5979634684271300e+00 +0.0000000000000000e+00 +1.1499999992263363e+00 -6.3534787182341397e-05 +0.0000000000000000e+00 +9.9999999798166517e-01
1.2000000000000004e+00 +8.5979602226207135e+00 +0.0000000000000000e+00 +1.1999999991209678e+00 -6.6297475998348043e-05 +0.0000000000000000e+00 +9.9999999780232207e-01
1.2500000000000004e+00 +8.5979568386788650e+00 +0.0000000000000000e+00 +1.2499999990064412e+00 -6.9060204715878465e-05 +0.0000000000000000e+00 +9.9999999761534375e-01
1.3000000000000005e+00 +8.5979533165995488e+00 +0.0000000000000000e+00 +1.2999999988823749e+00 -7.1822975033574717e-05 +0.0000000000000000e+00 +9.9999999742072987e-01
1.3500000000000005e+00 +8.5979496563806403e+00 +0.0000000000000000e+00 +1.3499999987483871e+00 -7.4585788646710835e-05 +0.0000000000000000e+00 +9.9999999721847976e-01
1.4000000000000006e+00 +8.5979458580199335e+00 +0.0000000000000000e+00 +1.3999999986040956e+00 -7.7348647247192900e-05 +0.0000000000000000e+00 +9.9999999700859310e-01
1.4500000000000006e+00 +8.5979419215151367e+00 +0.0000000000000000e+00 +1.4499999984491190e+00 -8.0111552523559097e-05 +0.0000000000000000e+00 +9.9999999679106932e-01
1.5000000000000007e+00 +8.5979378468638750e+00 +0.0000000000000000e+00 +1.4999999982830752e+00 -8.2874506160979795e-05 +0.0000000000000000e+00 +9.9999999656590788e-01
1.5500000000000007e+00 +8.5979336340636863e+00 +0.0000000000000000e+00 +1.5499999981055823e+00 -8.5637509841257612e-05 +0.0000000000000000e+00 +9.9999999633310821e-01
1.6000000000000008e+00 +8.5979292831120286e+00 +0.0000000000000000e+00 +1.5999999979162587e+00 -8.8400565242827486e-05 +0.0000000000000000e+00 +9.9999999609266976e-01
1.6500000000000008e+00 +8.5979247940062731e+00 +0.0000000000000000e+00 +1.6499999977147222e+00 -9.1163674040756771e-05 +0.0000000000000000e+00 +9.9999999584459198e-01
1.7000000000000008e+00 +8.5979201667437071e+00 +0.0000000000000000e+00 +1.6999999975005906e+00 -9.3926837906745244e-05 +0.0000000000000000e+00 +9.9999999558887431e-01
1.7500000000000009e+00 +8.5979154013215364e+00 +0.0000000000000000e+00 +1.7499999972734821e+00 -9.6690058509125222e-05 +0.0000000000000000e+00 +9.9999999532551609e-01
1.8000000000000009e+00 +8.5979104977368834e+00 +0.0000000000000000e+00 +1.7999999970330147e+00 -9.9453337512861624e-05 +0.0000000000000000e+00 +9.9999999505451664e-01
1.8500000000000010e+00 +8.5979054559867851e+00 +0.0000000000000000e+00 +1.8499999967788063e+00 -1.0221667657955201e-04 +0.0000000000000000e+00 +9.9999999477587531e-01
1.9000000000000010e+00 +8.5979002760681968e+00 +0.0000000000000000e+00 +1.8999999965104748e+00 -1.0498007736742668e-04 +0.0000000000000000e+00 +9.9999999448959143e-01
1.9500000000000011e+00 +8.5978949579779922e+00 +0.0000000000000000e+00 +1.9499999962276380e+00 -1.0774354153134871e-04 +0.0000000000000000e+00 +9.9999999419566432e-01
2.0000000000000009e+00 +8.5978895017129595e+00 +0.0000000000000000e+00 +1.9999999959299137e+00 -1.1050707072281404e-04 +0.0000000000000000e+00 +9.9999999389409333e-01
2.0500000000000007e+00 +8.5978839072698072e+00 +0.0000000000000000e+00 +2.0499999956169197e+00 -1.1327066658971080e-04 +0.0000000000000000e+00 +9.9999999358487768e-01
2.1000000000000005e+00 +8.5978781746451620e+00 +0.0000000000000000e+00 +2.0999999952882740e+00 -1.1603433077367143e-04 +0.0000000000000000e+00 +9.9999999326801670e-01
2.1500000000000004e+00 +8.5978723038355653e+00 +0.0000000000000000e+00 +2.1499999949435940e+00 -1.1879806490742474e-04 +0.0000000000000000e+00 +9.9999999294350950e-01
2.2000000000000002e+00 +8.5978662948374787e+00 +0.0000000000000000e+00 +2.1999999945824973e+00 -1.2156187061455530e-04 +0.0000000000000000e+00 +9.9999999261135541e-01
2.2500000000000000e+00 +8.5978601476472836e+00 +0.0000000000000000e+00 +2.2499999942046021e+00 -1.2432574950950343e-04 +0.0000000000000000e+00 +9.9999999227155356e-01
2.2999999999999998e+00 +8.5978538622612817e+00 +0.0000000000000000e+00 +2.2999999938095255e+00 -1.2708970319756530e-04 +0.0000000000000000e+00 +9.9999999192410327e-01
2.3499999999999996e+00 +8.5978474386756911e+00 +0.0000000000000000e+00 +2.3499999933968851e+00 -1.2985373327489296e-04 +0.0000000000000000e+00 +9.9999999156900354e-01
2.3999999999999995e+00 +8.5978408768866537e+00 +0.0000000000000000e+00 +2.3999999929662983e+00 -1.3261784132849439e-04 +0.0000000000000000e+00 +9.9999999120625360e-01
2.4499999999999993e+00 +8.5978341768902311e+00 +0.0000000000000000e+00 +2.4499999925173830e+00 -1.3538202893623359e-04 +0.0000000000000000e+00 +9.9999999083585267e-01
2.4999999999999991e+00 +8.5978273386824071e+00 +0.0000000000000000e+00 +2.4999999920497560e+00 -1.3814629766683060e-04 +0.0000000000000000e+00 +9.9999999045779975e-01
2.5499999999999989e+00 +8.5978203622590854e+00 +0.0000000000000000e+00 +2.5499999915630354e+00 -1.4091064907986153e-04 +0.0000000000000000e+00 +9.9999999007209406e-01
2.5999999999999988e+00 +8.5978132476160951e+00 +0.0000000000000000e+00 +2.5999999910568379e+00 -1.4367508472575867e-04 +0.0000000000000000e+00 +9.9999998967873460e-01
2.6499999999999986e+00 +8.5978059947491836e+00 +0.0000000000000000e+00 +2.6499999905307812e+00 -1.4643960614581044e-04 +0.0000000000000000e+00 +9.9999998927772049e-01
2.6999999999999984e+00 +8.5977986036540255e+00 +0.0000000000000000e+00 +2.6999999899844824e+00 -1.4920421487216154e-04 +0.0000000000000000e+00 +9.9999998886905073e-01
2.7499999999999982e+00 +8.5977910743262171e+00 +0.0000000000000000e+00 +2.7499999894175589e+00 -1.5196891242781296e-04 +0.0000000000000000e+00 +9.9999998845272442e-01
2.7999999999999980e+00 +8.5977834067612786e+00 +0.0000000000000000e+00 +2.7999999888296272e+00 -1.5473370032662197e-04 +0.0000000000000000e+00 +9.9999998802874057e-01
2.8499999999999979e+00 +8.5977756009546553e+00 +0.0000000000000000e+00 +2.8499999882203051e+00 -1.5749858007330222e-04 +0.0000000000000000e+00 +9.9999998759709818e-01
2.8999999999999977e+00 +8.5977676569017163e+00 +0.0000000000000000e+00 +2.8999999875892093e+00 -1.6026355316342382e-04 +0.0000000000000000e+00 +9.9999998715779626e-01
2.9499999999999975e+00 +8.5977595745977577e+00 +0.0000000000000000e+00 +2.9499999869359570e+00 -1.6302862108341331e-04 +0.0000000000000000e+00 +9.9999998671083379e-01
2.9999999999999973e+00 +8.5977513540380031e+00 +0.0000000000000000e+00 +2.9999999862601650e+00 -1.6579378531055372e-04 +0.0000000000000000e+00 +9.9999998625620978e-01
3.0499999999999972e+00 +8.5977429952175974e+00 +0.0000000000000000e+00 +3.0499999855614504e+00 -1.6855904731298462e-04 +0.0000000000000000e+00 +9.9999998579392313e-01
3.0999999999999970e+00 +8.5977344981316168e+00 +0.0000000000000000e+00 +3.0999999848394295e+00 -1.7132440854970214e-04 +0.0000000000000000e+00 +9.9999998532397283e-01
3.1499999999999968e+00 +8.5977258627750643e+00 +0.0000000000000000e+00 +3.1499999840937196e+00 -1.7408987047055907e-04 +0.0000000000000000e+00 +9.9999998484635777e-01
3.1999999999999966e+00 +8.5977170891428685e+00 +0.0000000000000000e+00 +3.1999999833239374e+00 -1.7685543451626483e-04 +0.0000000000000000e+00 +9.9999998436107695e-01
3.2499999999999964e+00 +8.5977081772298867e+00 +0.0000000000000000e+00 +3.2499999825296997e+00 -1.7962110211838550e-04 +0.0000000000000000e+00 +9.9999998386812916e-01
3.2999999999999963e+00 +8.5976991270309071e+00 +0.0000000000000000e+00 +3.2999999817106227e+00 -1.8238687469934395e-04 +0.0000000000000000e+00 +9.9999998336751328e-01
3.3499999999999961e+00 +8.5976899385406433e+00 +0.0000000000000000e+00 +3.3499999808663232e+00 -1.8515275367241973e-04 +0.0000000000000000e+00 +9.9999998285922820e-01
3.3999999999999959e+00 +8.5976806117537432e+00 +0.0000000000000000e+00 +3.3999999799964176e+00 -1.8791874044174925e-04 +0.0000000000000000e+00 +9.9999998234327281e-01
3.4499999999999957e+00 +8.5976711466647799e+00 +0.0000000000000000e+00 +3.4499999791005225e+00 -1.9068483640232573e-04 +0.0000000000000000e+00 +9.9999998181964589e-01
3.4999999999999956e+00 +8.5976615432682593e+00 +0.0000000000000000e+00 +3.4999999781782543e+00 -1.9345104293999921e-04 +0.0000000000000000e+00 +9.9999998128834633e-01
3.5499999999999954e+00 +8.5976518015586194e+00 +0.0000000000000000e+00 +3.5499999772292292e+00 -1.9621736143147668e-04 +0.0000000000000000e+00 +9.9999998074937291e-01
3.5999999999999952e+00 +8.5976419215302275e+00 +0.0000000000000000e+00 +3.5999999762530637e+00 -1.9898379324432200e-04 +0.0000000000000000e+00 +9.9999998020272440e-01
3.6499999999999950e+00 +8.5976319031773834e+00 +0.0000000000000000e+00 +3.6499999752493739e+00 -2.0175033973695601e-04 +0.0000000000000000e+00 +9.9999997964839960e-01
3.6999999999999948e+00 +8.5976217464943190e+00 +0.0000000000000000e+00 +3.6999999742177758e+00 -2.0451700225865654e-04 +0.0000000000000000e+00 +9.9999997908639726e-01
3.7499999999999947e+00 +8.5976114514752009e+00 +0.0000000000000000e+00 +3.7499999731578857e+00 -2.0728378214955839e-04 +0.0000000000000000e+00 +9.9999997851671618e-01
3.7999999999999945e+00 +8.5976010181141262e+00 +0.0000000000000000e+00 +3.7999999720693194e+00 -2.1005068074065339e-04 +0.0000000000000000e+00 +9.9999997793935513e-01
3.8499999999999943e+00 +8.5975904464051265e+00 +0.0000000000000000e+00 +3.8499999709516932e+00 -2.1281769935379045e-04 +0.0000000000000000e+00 +9.9999997735431279e-01
3.8999999999999941e+00 +8.5975797363421691e+00 +0.0000000000000000e+00 +3.8999999698046226e+00 -2.1558483930167555e-04 +0.0000000000000000e+00 +9.9999997676158792e-01
3.9499999999999940e+00 +8.5975688879191523e+00 +0.0000000000000000e+00 +3.9499999686277238e+00 -2.1835210188787181e-04 +0.0000000000000000e+00 +9.9999997616117919e-01
3.9999999999999938e+00 +8.5975579011299139e+00 +0.0000000000000000e+00 +3.9999999674206124e+00 -2.2111948840679941e-04 +0.0000000000000000e+00 +9.9999997555308529e-01
4.0499999999999936e+00 +8.5975467759682243e+00 +0.0000000000000000e+00 +4.0499999661829040e+00 -2.2388700014352742e-04 +0.0000000000000000e+00 +9.9999997493730497e-01
4.0999999999999934e+00 +8.5975355124277915e+00 +0.0000000000000000e+00 +4.0999999649142147e+00 -2.2665463837148229e-04 +0.0000000000000000e+00 +9.9999997431383680e-01
4.1499999999999932e+00 +8.5975241105022580e+00 +0.0000000000000000e+00 +4.1499999636141593e+00 -2.2942240435015645e-04 +0.0000000000000000e+00 +9.9999997368267957e-01
4.1999999999999931e+00 +8.5975125701852058e+00 +0.0000000000000000e+00 +4.1999999622823543e+00 -2.3219029932490003e-04 +0.0000000000000000e+00 +9.9999997304383181e-01
4.2499999999999929e+00 +8.5975008914701547e+00 +0.0000000000000000e+00 +4.2499999609184140e+00 -2.3495832452692075e-04 +0.0000000000000000e+00 +9.9999997239729221e-01
4.2999999999999927e+00 +8.5974890743505625e+00 +0.0000000000000000e+00 +4.2999999595219549e+00 -2.3772648117328411e-04 +0.0000000000000000e+00 +9.9999997174305943e-01
4.3499999999999925e+00 +8.5974771188198265e+00 +0.0000000000000000e+00 +4.3499999580925914e+00 -2.4049477046691328e-04 +0.0000000000000000e+00 +9.9999997108113203e-01
4.3999999999999924e+00 +8.5974650248712852e+00 +0.0000000000000000e+00 +4.3999999566299399e+00 -2.4326319359658914e-04 +0.0000000000000000e+00 +9.9999997041150868e-01
4.4499999999999922e+00 +8.5974527924982169e+00 +0.0000000000000000e+00 +4.4499999551336140e+00 -2.4603175173695027e-04 +0.0000000000000000e+00 +9.9999996973418792e-01
4.4999999999999920e+00 +8.5974404216938414e+00 +0.0000000000000000e+00 +4.4999999536032300e+00 -2.4880044604849293e-04 +0.0000000000000000e+00 +9.9999996904916832e-01
4.5499999999999918e+00 +8.5974279124513231e+00 +0.0000000000000000e+00 +4.5499999520384025e+00 -2.5156927767757119e-04 +0.0000000000000000e+00 +9.9999996835644855e-01
4.5999999999999917e+00 +8.5974152647637663e+00 +0.0000000000000000e+00 +4.5999999504387468e+00 -2.5433824775639684e-04 +0.0000000000000000e+00 +9.9999996765602717e-01
4.6499999999999915e+00 +8.5974024786242218e+00 +0.0000000000000000e+00 +4.6499999488038775e+00 -2.5710735740303936e-04 +0.0000000000000000e+00 +9.9999996694790272e-01
4.6999999999999913e+00 +8.5973895540256819e+00 +0.0000000000000000e+00 +4.6999999471334091e+00 -2.5987660772142600e-04 +0.0000000000000000e+00 +9.9999996623207366e-01
4.7499999999999911e+00 +8.5973764909610875e+00 +0.0000000000000000e+00 +4.7499999454269561e+00 -2.6264599980134170e-04 +0.0000000000000000e+00 +9.9999996550853865e-01
4.7999999999999909e+00 +8.5973632894233223e+00 +0.0000000000000000e+00 +4.7999999436841341e+00 -2.6541553471842917e-04 +0.0000000000000000e+00 +9.9999996477729625e-01
4.8499999999999908e+00 +8.5973499494052170e+00 +0.0000000000000000e+00 +4.8499999419045574e+00 -2.6818521353418886e-04 +0.0000000000000000e+00 +9.9999996403834490e-01
4.8999999999999906e+00 +8.5973364708995526e+00 +0.0000000000000000e+00 +4.8999999400878407e+00 -2.7095503729597894e-04 +0.0000000000000000e+00 +9.9999996329168317e-01
4.9499999999999904e+00 +8.5973228538990547e+00 +0.0000000000000000e+00 +4.9499999382335975e+00 -2.7372500703701528e-04 +0.0000000000000000e+00 +9.9999996253730949e-01
4.9999999999999902e+00 +8.5973090983963996e+00 +0.0000000000000000e+00 +4.9999999363414434e+00 -2.7649512377637151e-04 +0.0000000000000000e+00 +9.9999996177522243e-01
5.0499999999999901e+00 +8.5972952043842117e+00 +0.0000000000000000e+00 +5.0499999344109918e+00 -2.7926538851897893e-04 +0.0000000000000000e+00 +9.9999996100542055e-01
5.0999999999999899e+00 +8.5972811718550659e+00 +0.0000000000000000e+00 +5.0999999324418575e+00 -2.8203580225562660e-04 +0.0000000000000000e+00 +9.9999996022790227e-01
5.1499999999999897e+00 +8.5972670008014873e+00 +0.0000000000000000e+00 +5.1499999304336539e+00 -2.8480636596296129e-04 +0.0000000000000000e+00 +9.9999995944266606e-01
5.1999999999999895e+00 +8.5972526912159548e+00 +0.0000000000000000e+00 +5.1999999283859957e+00 -2.8757708060348739e-04 +0.0000000000000000e+00 +9.9999995864971047e-01
5.2499999999999893e+00 +8.5972382430908958e+00 +0.0000000000000000e+00 +5.2499999262984964e+00 -2.9034794712556698e-04 +0.0000000000000000e+00 +9.9999995784903384e-01
5.2999999999999892e+00 +8.5972236564186950e+00 +0.0000000000000000e+00 +5.2999999241707707e+00 -2.9311896646341985e-04 +0.0000000000000000e+00 +9.9999995704063471e-01
5.3499999999999890e+00 +8.5972089311916875e+00 +0.0000000000000000e+00 +5.3499999220024312e+00 -2.9589013953712343e-04 +0.0000000000000000e+00 +9.9999995622451154e-01
5.3999999999999888e+00 +8.5971940674021639e+00 +0.0000000000000000e+00 +5.3999999197930926e+00 -2.9866146725261277e-04 +0.0000000000000000e+00 +9.9999995540066289e-01
5.4499999999999886e+00 +8.5971790650423703e+00 +0.0000000000000000e+00 +5.4499999175423683e+00 -3.0143295050168059e-04 +0.0000000000000000e+00 +9.9999995456908708e-01
5.4999999999999885e+00 +8.5971639241045068e+00 +0.0000000000000000e+00 +5.4999999152498722e+00 -3.0420459016197715e-04 +0.0000000000000000e+00 +9.9999995372978256e-01
5.5499999999999883e+00 +8.5971486445807326e+00 +0.0000000000000000e+00 +5.5499999129152178e+00 -3.0697638709701035e-04 +0.0000000000000000e+00 +9.9999995288274779e-01
5.5999999999999881e+00 +8.5971332264631624e+00 +0.0000000000000000e+00 +5.5999999105380178e+00 -3.0974834215614569e-04 +0.0000000000000000e+00 +9.9999995202798109e-01
5.6499999999999879e+00 +8.5971176697438683e+00 +0.0000000000000000e+00 +5.6499999081178869e+00 -3.1252045617460617e-04 +0.0000000000000000e+00 +9.9999995116548102e-01
5.6999999999999877e+00 +8.5971019744148816e+00 +0.0000000000000000e+00 +5.6999999056544377e+00 -3.1529272997347230e-04 +0.0000000000000000e+00 +9.9999995029524591e-01
5.7499999999999876e+00 +8.5970861404681944e+00 +0.0000000000000000e+00 +5.7499999031472830e+00 -3.1806516435968214e-04 +0.0000000000000000e+00 +9.9999994941727421e-01
5.7999999999999874e+00 +8.5970701678957564e+00 +0.0000000000000000e+00 +5.7999999005960365e+00 -3.2083776012603127e-04 +0.0000000000000000e+00 +9.9999994853156438e-01
5.8499999999999872e+00 +8.5970540566894798e+00 +0.0000000000000000e+00 +5.8499998980003109e+00 -3.2361051805117265e-04 +0.0000000000000000e+00 +9.9999994763811484e-01
5.8999999999999870e+00 +8.5970378068412359e+00 +0.0000000000000000e+00 +5.8999998953597190e+00 -3.2638343889961681e-04 +0.0000000000000000e+00 +9.9999994673692394e-01
