# field on trajectory
# s[mm] rx[mm] ry[mm] rz[mm] bx[T] by[T] bz[T]
0.0000000000000000e+00 +8.5270000000000206e+00 +0.0000000000000000e+00 +0.0000000000000000e+00 -2.6993495155431278e-02 -5.2273520739911239e-01 +5.3531812724429018e-03
5.0000000000000003e-02 +8.5269999309457507e+00 +0.0000000000000000e+00 +4.9999999999936401e-02 -2.6993127833837841e-02 -5.2273568258657688e-01 +5.3526701232717083e-03
1.0000000000000001e-01 +8.5269997237846802e+00 +0.0000000000000000e+00 +9.9999999999491399e-02 -2.6992782207118267e-02 -5.2273652958657491e-01 +5.3521601362761092e-03
1.4999999999999999e-01 +8.5269993785186706e+00 +0.0000000000000000e+00 +1.4999999999828301e-01 -2.6992458214421516e-02 -5.2273774775971260e-01 +5.3516513561310229e-03
2.0000000000000001e-01 +8.5269988951477007e+00 +0.0000000000000000e+00 +1.9999999999593099e-01 -2.6992155794898002e-02 -5.2273933646662607e-01 +5.3511438275116079e-03
2.5000000000000000e-01 +8.5269982736681396e+00 +0.0000000000000000e+00 +2.4999999999205300e-01 -2.6991874887700260e-02 -5.2274129506799227e-01 +5.3506375950933818e-03
2.9999999999999999e-01 +8.5269975140799907e+00 +0.0000000000000000e+00 +2.9999999998626697e-01 -2.6991615431980275e-02 -5.2274362292448018e-01 +5.3501327035516653e-03
3.4999999999999998e-01 +8.5269966163905302e+00 +0.0000000000000000e+00 +3.4999999997819298e-01 -2.6991377366888170e-02 -5.2274631939672556e-01 +5.3496291975613144e-03
4.0000000000000002e-01 +8.5269955805888493e+00 +0.0000000000000000e+00 +3.9999999996744801e-01 -2.6991160631581888e-02 -5.2274938384550473e-01 +5.3491271217986280e-03
4.5000000000000001e-01 +8.5269944066858407e+00 +0.0000000000000000e+00 +4.4999999995365197e-01 -2.6990965165212048e-02 -5.2275281563146103e-01 +5.3486265209383181e-03
5.0000000000000000e-01 +8.5269930946742498e+00 +0.0000000000000000e+00 +4.9999999993642202e-01 -2.6990790906937179e-02 -5.2275661411537810e-01 +5.3481274396565380e-03
5.5000000000000004e-01 +8.5269916445577092e+00 +0.0000000000000000e+00 +5.4999999991537796e-01 -2.6990637795912809e-02 -5.2276077865798087e-01 +5.3476299226286692e-03
5.9999999999999998e-01 +8.5269900563289394e+00 +0.0000000000000000e+00 +5.9999999989013697e-01 -2.6990505771299675e-02 -5.2276530862008552e-01 +5.3471340145309718e-03
6.5000000000000002e-01 +8.5269883299988596e+00 +0.0000000000000000e+00 +6.4999999986031898e-01 -2.6990394772252811e-02 -5.2277020336239954e-01 +5.3466397600383702e-03
6.9999999999999996e-01 +8.5269864655601904e+00 +0.0000000000000000e+00 +6.9999999982554195e-01 -2.6990304737935362e-02 -5.2277546224576932e-01 +5.3461472038272050e-03
7.5000000000000000e-01 +8.5269844630165608e+00 +0.0000000000000000e+00 +7.4999999978542398e-01 -2.6990235607507664e-02 -5.2278108463098405e-01 +5.3456563905730312e-03
8.0000000000000004e-01 +8.5269823223679904e+00 +0.0000000000000000e+00 +7.9999999973958402e-01 -2.6990187320132666e-02 -5.2278706987887202e-01 +5.3451673649516909e-03
8.4999999999999998e-01 +8.5269800436108198e+00 +0.0000000000000000e+00 +8.4999999968764095e-01 -2.6990159814976187e-02 -5.2279341735030205e-01 +5.3446801716393495e-03
9.0000000000000002e-01 +8.5269776267450705e+00 +0.0000000000000000e+00 +8.9999999962921295e-01 -2.6990153031204011e-02 -5.2280012640613394e-01 +5.3441948553118969e-03
9.4999999999999996e-01 +8.5269750717743609e+00 +0.0000000000000000e+00 +9.4999999956391801e-01 -2.6990166907982040e-02 -5.2280719640721729e-01 +5.3437114606449589e-03
1.0000000000000000e+00 +8.5269723786986997e+00 +0.0000000000000000e+00 +9.9999999949137597e-01 -2.6990201384479110e-02 -5.2281462671444190e-01 +5.3432300323144541e-03
1.0500000000000000e+00 +8.5269695475144491e+00 +0.0000000000000000e+00 +1.0499999994111999e+00 -2.6990256399866984e-02 -5.2282241668873697e-01 +5.3427506149965661e-03
1.1000000000000001e+00 +8.5269665782288904e+00 +0.0000000000000000e+00 +1.0999999993230201e+00 -2.6990331893314963e-02 -5.2283056569097341e-01 +5.3422732533666608e-03
1.1499999999999999e+00 +8.5269634708311095e+00 +0.0000000000000000e+00 +1.1499999992264500e+00 -2.6990427804000867e-02 -5.2283907308215938e-01 +5.3417979921014606e-03
1.2000000000000000e+00 +8.5269602253283701e+00 +0.0000000000000000e+00 +1.1999999991210999e+00 -2.6990544071097394e-02 -5.2284793822319475e-01 +5.3413248758763018e-03
1.2500000000000000e+00 +8.5269568417206791e+00 +0.0000000000000000e+00 +1.2499999990065900e+00 -2.6990680633781763e-02 -5.2285716047504338e-01 +5.3408539493670524e-03
1.3000000000000000e+00 +8.5269533200044005e+00 +0.0000000000000000e+00 +1.2999999988825499e+00 -2.6990837431234413e-02 -5.2286673919870841e-01 +5.3403852572498208e-03
1.3500000000000001e+00 +8.5269496601795307e+00 +0.0000000000000000e+00 +1.3499999987485900e+00 -2.6991014402636279e-02 -5.2287667375518287e-01 +5.3399188442004196e-03
1.3999999999999999e+00 +8.5269458622533403e+00 +0.0000000000000000e+00 +1.3999999986043401e+00 -2.6991211487167474e-02 -5.2288696350542374e-01 +5.3394547548940696e-03
1.4500000000000000e+00 +8.5269419262185693e+00 +0.0000000000000000e+00 +1.4499999984494001e+00 -2.6991428624015604e-02 -5.2289760781050176e-01 +5.3389930340070465e-03
1.5000000000000000e+00 +8.5269378520752106e+00 +0.0000000000000000e+00 +1.4999999982833900e+00 -2.6991665752367566e-02 -5.2290860603145273e-01 +5.3385337262150329e-03
1.5500000000000000e+00 +8.5269336398268898e+00 +0.0000000000000000e+00 +1.5499999981059500e+00 -2.6991922811410961e-02 -5.2291995752930120e-01 +5.3380768761933832e-03
1.6000000000000001e+00 +8.5269292894736299e+00 +0.0000000000000000e+00 +1.5999999979166799e+00 -2.6992199740336870e-02 -5.2293166166510996e-01 +5.3376225286176663e-03
1.6499999999999999e+00 +8.5269248010117700e+00 +0.0000000000000000e+00 +1.6499999977152000e+00 -2.6992496478339980e-02 -5.2294371779998139e-01 +5.3371707281636661e-03
1.7000000000000000e+00 +8.5269201744449692e+00 +0.0000000000000000e+00 +1.6999999975011300e+00 -2.6992812964614418e-02 -5.2295612529498081e-01 +5.3367215195065393e-03
1.7500000000000000e+00 +8.5269154097695701e+00 +0.0000000000000000e+00 +1.7499999972740901e+00 -2.6993149138359405e-02 -5.2296888351123783e-01 +5.3362749473219243e-03
1.8000000000000000e+00 +8.5269105069892195e+00 +0.0000000000000000e+00 +1.7999999970336999e+00 -2.6993504938773685e-02 -5.2298199180984573e-01 +5.3358310562848302e-03
1.8500000000000001e+00 +8.5269054661039299e+00 +0.0000000000000000e+00 +1.8499999967795799e+00 -2.6993880305059795e-02 -5.2299544955193489e-01 +5.3353898910704486e-03
1.8999999999999999e+00 +8.5269002871100401e+00 +0.0000000000000000e+00 +1.8999999965113501e+00 -2.6994275176424092e-02 -5.2300925609867566e-01 +5.3349514963541645e-03
1.9500000000000000e+00 +8.5268949700112007e+00 +0.0000000000000000e+00 +1.9499999962286201e+00 -2.6994689492072642e-02 -5.2302341081120041e-01 +5.3345159168107078e-03
2.0000000000000000e+00 +8.5268895148037700e+00 +0.0000000000000000e+00 +1.9999999959310100e+00 -2.6995123191216844e-02 -5.2303791305070491e-01 +5.3340831971152632e-03
2.0499999999999998e+00 +8.5268839213858900e+00 +0.0000000000000000e+00 +2.0499999956181298e+00 -2.6995576217100865e-02 -5.2305276194421446e-01 +5.3336533756810330e-03
2.1000000000000001e+00 +8.5268781896593300e+00 +0.0000000000000000e+00 +2.0999999952895898e+00 -2.6996048528941517e-02 -5.2306795567930897e-01 +5.3332264658438400e-03
2.1499999999999999e+00 +8.5268723196240899e+00 +0.0000000000000000e+00 +2.1499999949449999e+00 -2.6996540089912282e-02 -5.2308349220804640e-01 +5.3328024746629810e-03
2.2000000000000002e+00 +8.5268663112729008e+00 +0.0000000000000000e+00 +2.1999999945839801e+00 -2.6997050863190222e-02 -5.2309936948254676e-01 +5.3323814091985411e-03
2.2500000000000000e+00 +8.5268601646093902e+00 +0.0000000000000000e+00 +2.2499999942061502e+00 -2.6997580811949005e-02 -5.2311558545486614e-01 +5.3319632765100209e-03
2.2999999999999998e+00 +8.5268538796335598e+00 +0.0000000000000000e+00 +2.2999999938111202e+00 -2.6998129899364377e-02 -5.2313213807709558e-01 +5.3315480836574449e-03
2.3500000000000001e+00 +8.5268474563490599e+00 +0.0000000000000000e+00 +2.3499999933985198e+00 -2.6998698088611349e-02 -5.2314902530131291e-01 +5.3311358377008409e-03
2.3999999999999999e+00 +8.5268408947522403e+00 +0.0000000000000000e+00 +2.3999999929679601e+00 -2.6999285342868291e-02 -5.2316624507965681e-01 +5.3307265457010703e-03
2.4500000000000002e+00 +8.5268341948467405e+00 +0.0000000000000000e+00 +2.4499999925190501e+00 -2.6999891625311287e-02 -5.2318379536422543e-01 +5.3303202147187406e-03
2.5000000000000000e+00 +8.5268273566252901e+00 +0.0000000000000000e+00 +2.4999999920514302e+00 -2.7000516899121061e-02 -5.2320167410720342e-01 +5.3299168518155925e-03
2.5499999999999998e+00 +8.5268203800987994e+00 +0.0000000000000000e+00 +2.5499999915646900e+00 -2.7001161127471859e-02 -5.2321987926065905e-01 +5.3295164640523281e-03
2.6000000000000001e+00 +8.5268132652563509e+00 +0.0000000000000000e+00 +2.5999999910584699e+00 -2.7001824273546551e-02 -5.2323840877682182e-01 +5.3291190584916310e-03
2.6499999999999999e+00 +8.5268060121015896e+00 +0.0000000000000000e+00 +2.6499999905323701e+00 -2.7002506300522800e-02 -5.2325726060783084e-01 +5.3287246421954487e-03
2.7000000000000002e+00 +8.5267986206345103e+00 +0.0000000000000000e+00 +2.6999999899860101e+00 -2.7003207171579825e-02 -5.2327643270585888e-01 +5.3283332222263625e-03
2.7500000000000000e+00 +8.5267910908551094e+00 +0.0000000000000000e+00 +2.7499999894190199e+00 -2.7003926849897129e-02 -5.2329592302308925e-01 +5.3279448056473477e-03
2.7999999999999998e+00 +8.5267834227670392e+00 +0.0000000000000000e+00 +2.7999999888310101e+00 -2.7004665298652843e-02 -5.2331572951168837e-01 +5.3275593995214931e-03
2.8500000000000001e+00 +8.5267756163666508e+00 +0.0000000000000000e+00 +2.8499999882215898e+00 -2.7005422481028045e-02 -5.2333585012388262e-01 +5.3271770109128537e-03
2.8999999999999999e+00 +8.5267676716539391e+00 +0.0000000000000000e+00 +2.8999999875903901e+00 -2.7006198360202363e-02 -5.2335628281188185e-01 +5.3267976468856322e-03
2.9500000000000002e+00 +8.5267595886289200e+00 +0.0000000000000000e+00 +2.9499999869370299e+00 -2.7006992899355420e-02 -5.2337702552790477e-01 +5.3264213145044681e-03
3.0000000000000000e+00 +8.5267513672915793e+00 +0.0000000000000000e+00 +2.9999999862611100e+00 -2.7007806061666723e-02 -5.2339807622417822e-01 +5.3260480208344677e-03
3.0499999999999998e+00 +8.5267430076455604e+00 +0.0000000000000000e+00 +3.0499999855622502e+00 -2.7008637810314217e-02 -5.2341943285291281e-01 +5.3256777729409135e-03
3.1000000000000001e+00 +8.5267345096872305e+00 +0.0000000000000000e+00 +3.0999999848400801e+00 -2.7009488108478447e-02 -5.2344109336637723e-01 +5.3253105778901322e-03
3.1499999999999999e+00 +8.5267258734165807e+00 +0.0000000000000000e+00 +3.1499999840942201e+00 -2.7010356919338244e-02 -5.2346305571682283e-01 +5.3249464427486647e-03
3.2000000000000002e+00 +8.5267170988336094e+00 +0.0000000000000000e+00 +3.1999999833242700e+00 -2.7011244206072170e-02 -5.2348531785650942e-01 +5.3245853745835627e-03
3.2500000000000000e+00 +8.5267081859419704e+00 +0.0000000000000000e+00 +3.2499999825298600e+00 -2.7012149931856959e-02 -5.2350787773767815e-01 +5.3242273804621314e-03
3.2999999999999998e+00 +8.5266991347380099e+00 +0.0000000000000000e+00 +3.2999999817106000e+00 -2.7013074059871703e-02 -5.2353073331262956e-01 +5.3238724674527626e-03
3.3500000000000001e+00 +8.5266899452181004e+00 +0.0000000000000000e+00 +3.3499999808661101e+00 -2.7014016553294988e-02 -5.2355388253366997e-01 +5.3235206426243938e-03
3.3999999999999999e+00 +8.5266806173895002e+00 +0.0000000000000000e+00 +3.3999999799960099e+00 -2.7014977375300682e-02 -5.2357732335303797e-01 +5.3231719130457161e-03
3.4500000000000002e+00 +8.5266711512522306e+00 +0.0000000000000000e+00 +3.4499999790999101e+00 -2.7015956489064817e-02 -5.2360105372302967e-01 +5.3228262857865482e-03
3.5000000000000000e+00 +8.5266615468026394e+00 +0.0000000000000000e+00 +3.4999999781774398e+00 -2.7016953857764113e-02 -5.2362507159597260e-01 +5.3224837679175709e-03
3.5499999999999998e+00 +8.5266518040407409e+00 +0.0000000000000000e+00 +3.5499999772282100e+00 -2.7017969444573214e-02 -5.2364937492417540e-01 +5.3221443665098052e-03
3.6000000000000001e+00 +8.5266419229665207e+00 +0.0000000000000000e+00 +3.5999999762518402e+00 -2.7019003212665951e-02 -5.2367396165995406e-01 +5.3218080886348945e-03
3.6499999999999999e+00 +8.5266319035799807e+00 +0.0000000000000000e+00 +3.6499999752479400e+00 -2.7020055125215315e-02 -5.2369882975563020e-01 +5.3214749413651175e-03
3.6999999999999900e+00 +8.5266217458847695e+00 +0.0000000000000000e+00 +3.6999999742161398e+00 -2.7021125145392014e-02 -5.2372397716350594e-01 +5.3211449317731351e-03
3.7499999999999898e+00 +8.5266114498736005e+00 +0.0000000000000000e+00 +3.7499999731560498e+00 -2.7022213236369962e-02 -5.2374940183596597e-01 +5.3208180669330899e-03
3.7999999999999901e+00 +8.5266010155537497e+00 +0.0000000000000000e+00 +3.7999999720672801e+00 -2.7023319361316512e-02 -5.2377510172529829e-01 +5.3204943539187140e-03
3.8499999999999899e+00 +8.5265904429179500e+00 +0.0000000000000000e+00 +3.8499999709494599e+00 -2.7024443483403500e-02 -5.2380107478389859e-01 +5.3201737998055222e-03
3.8999999999999901e+00 +8.5265797319771099e+00 +0.0000000000000000e+00 +3.8999999698022001e+00 -2.7025585565794673e-02 -5.2382731896404111e-01 +5.3198564116683777e-03
3.9499999999999900e+00 +8.5265688827203103e+00 +0.0000000000000000e+00 +3.9499999686251202e+00 -2.7026745571660956e-02 -5.2385383221815718e-01 +5.3195421965844987e-03
3.9999999999999898e+00 +8.5265578951548395e+00 +0.0000000000000000e+00 +3.9999999674178399e+00 -2.7027923464165042e-02 -5.2388061249855589e-01 +5.3192311616304753e-03
4.0499999999999901e+00 +8.5265467692734092e+00 +0.0000000000000000e+00 +4.0499999661799704e+00 -2.7029119174574599e-02 -5.2390765764268477e-01 +5.3189233148953517e-03
4.0999999999999899e+00 +8.5265355050833005e+00 +0.0000000000000000e+00 +4.0999999649111301e+00 -2.7030332506553061e-02 -5.2393496502801828e-01 +5.3186186685100171e-03
4.1499999999999897e+00 +8.5265241025808791e+00 +0.0000000000000000e+00 +4.1499999636109504e+00 -2.7031563231867898e-02 -5.2396253191714071e-01 +5.3183172356167565e-03
4.1999999999999904e+00 +8.5265125617697795e+00 +0.0000000000000000e+00 +4.1999999622790298e+00 -2.7032811122283184e-02 -5.2399035557258966e-01 +5.3180190293572295e-03
4.2499999999999902e+00 +8.5265008826427202e+00 +0.0000000000000000e+00 +4.2499999609149901e+00 -2.7034075949566496e-02 -5.2401843325697972e-01 +5.3177240628737707e-03
4.2999999999999901e+00 +8.5264890652069898e+00 +0.0000000000000000e+00 +4.2999999595184599e+00 -2.7035357485479142e-02 -5.2404676223282631e-01 +5.3174323493075139e-03
4.3499999999999899e+00 +8.5264771094589396e+00 +0.0000000000000000e+00 +4.3499999580890396e+00 -2.7036655501785894e-02 -5.2407533976272391e-01 +5.3171439018002593e-03
4.3999999999999897e+00 +8.5264650153985695e+00 +0.0000000000000000e+00 +4.3999999566263703e+00 -2.7037969770249345e-02 -5.2410416310924268e-01 +5.3168587334933770e-03
4.4499999999999904e+00 +8.5264527830295300e+00 +0.0000000000000000e+00 +4.4499999551300400e+00 -2.7039300062629910e-02 -5.2413322953492936e-01 +5.3165768575278143e-03
4.4999999999999902e+00 +8.5264404123481707e+00 +0.0000000000000000e+00 +4.4999999535996897e+00 -2.7040646150689976e-02 -5.2416253630238197e-01 +5.3162982870448693e-03
4.5499999999999901e+00 +8.5264279033544899e+00 +0.0000000000000000e+00 +4.5499999520349199e+00 -2.7042007806189670e-02 -5.2419208067417511e-01 +5.3160230351853820e-03
4.5999999999999899e+00 +8.5264152560448601e+00 +0.0000000000000000e+00 +4.5999999504353601e+00 -2.7043384800889608e-02 -5.2422185991290871e-01 +5.3157511150902607e-03
4.6499999999999897e+00 +8.5264024704301793e+00 +0.0000000000000000e+00 +4.6499999488006196e+00 -2.7044776906543916e-02 -5.2425187128108308e-01 +5.3154825398991140e-03
4.6999999999999904e+00 +8.5263895464995603e+00 +0.0000000000000000e+00 +4.6999999471303298e+00 -2.7046183894914141e-02 -5.2428211204134978e-01 +5.3152173227529482e-03
4.7499999999999902e+00 +8.5263764842602505e+00 +0.0000000000000000e+00 +4.7499999454240900e+00 -2.7047605537753847e-02 -5.2431257945623444e-01 +5.3149554767911722e-03
4.7999999999999901e+00 +8.5263632837050007e+00 +0.0000000000000000e+00 +4.7999999436815299e+00 -2.7049041606821176e-02 -5.2434327078836440e-01 +5.3146970151540353e-03
4.8499999999999899e+00 +8.5263499448447000e+00 +0.0000000000000000e+00 +4.8499999419022597e+00 -2.7050491873866253e-02 -5.2437418330023933e-01 +5.3144419509801545e-03
4.8999999999999897e+00 +8.5263364676684397e+00 +0.0000000000000000e+00 +4.8999999400859000e+00 -2.7051956110646435e-02 -5.2440531425451054e-01 +5.3141902974095092e-03
4.9499999999999904e+00 +8.5263228521798702e+00 +0.0000000000000000e+00 +4.9499999382320699e+00 -2.7053434088912427e-02 -5.2443666091372731e-01 +5.3139420675806940e-03
4.9999999999999902e+00 +8.5263090983826295e+00 +0.0000000000000000e+00 +4.9999999363403900e+00 -2.7054925580413784e-02 -5.2446822054043829e-01 +5.3136972746320073e-03
5.0499999999999901e+00 +8.5262952059529198e+00 +0.0000000000000000e+00 +5.0499999344103799e+00 -2.7056430357024576e-02 -5.2449999039946449e-01 +5.3134559317258093e-03
5.0999999999999899e+00 +8.5262811745706095e+00 +0.0000000000000000e+00 +5.0999999324415599e+00 -2.7057948190616417e-02 -5.2453196775560107e-01 +5.3132180520238407e-03
5.1499999999999897e+00 +8.5262670042357094e+00 +0.0000000000000000e+00 +5.1499999304335597e+00 -2.7059478852936757e-02 -5.2456414987142108e-01 +5.3129836486636786e-03
5.1999999999999904e+00 +8.5262526949518396e+00 +0.0000000000000000e+00 +5.1999999283859903e+00 -2.7061022115730436e-02 -5.2459653400946971e-01 +5.3127527347822693e-03
5.2499999999999902e+00 +8.5262382467153692e+00 +0.0000000000000000e+00 +5.2499999262984600e+00 -2.7062577750743711e-02 -5.2462911743234142e-01 +5.3125253235167553e-03
5.2999999999999901e+00 +8.5262236595299292e+00 +0.0000000000000000e+00 +5.2999999241705797e+00 -2.7064145529718718e-02 -5.2466189740257718e-01 +5.3123014280033473e-03
5.3499999999999899e+00 +8.5262089333882596e+00 +0.0000000000000000e+00 +5.3499999220019703e+00 -2.7065725224400428e-02 -5.2469487118279179e-01 +5.3120810613786831e-03
5.3999999999999897e+00 +8.5261940682976292e+00 +0.0000000000000000e+00 +5.3999999197922497e+00 -2.7067316606526795e-02 -5.2472803603549589e-01 +5.3118642367779266e-03
5.4499999999999904e+00 +8.5261790642507496e+00 +0.0000000000000000e+00 +5.4499999175410201e+00 -2.7068919447839915e-02 -5.2476138922329807e-01 +5.3116509673369026e-03
5.4999999999999902e+00 +8.5261639212585596e+00 +0.0000000000000000e+00 +5.4999999152479004e+00 -2.7070533520073447e-02 -5.2479492800867800e-01 +5.3114412661896693e-03
5.5499999999999901e+00 +8.5261486393137602e+00 +0.0000000000000000e+00 +5.5499999129125097e+00 -2.7072158594966513e-02 -5.2482864965423770e-01 +5.3112351464711903e-03
5.5999999999999899e+00 +8.5261332184127205e+00 +0.0000000000000000e+00 +5.5999999105344500e+00 -2.7073794444255315e-02 -5.2486255142255145e-01 +5.3110326213157187e-03
5.6499999999999897e+00 +8.5261176585627307e+00 +0.0000000000000000e+00 +5.6499999081133403e+00 -2.7075440839670239e-02 -5.2489663057611224e-01 +5.3108337038562286e-03
5.6999999999999904e+00 +8.5261019597637606e+00 +0.0000000000000000e+00 +5.6999999056488004e+00 -2.7077097552942946e-02 -5.2493088437746049e-01 +5.3106384072257708e-03
5.7499999999999902e+00 +8.5260861220122006e+00 +0.0000000000000000e+00 +5.7499999031404396e+00 -2.7078764355804783e-02 -5.2496531008915737e-01 +5.3104467445571658e-03
5.7999999999999901e+00 +8.5260701453080401e+00 +0.0000000000000000e+00 +5.7999999005878804e+00 -2.7080441019984084e-02 -5.2499990497373472e-01 +5.3102587289824837e-03
5.8499999999999899e+00 +8.5260540296512808e+00 +0.0000000000000000e+00 +5.8499998979907204e+00 -2.7082127317207442e-02 -5.2503466629371898e-01 +5.3100743736332690e-03
5.8999999999999897e+00 +8.5260377750455500e+00 +0.0000000000000000e+00 +5.8999998953485804e+00 -2.7083823019198327e-02 -5.2506959131160624e-01 +5.3098936916402828e-03
