# multipoles
# s[mm] polynom_b[n=0][T/m^n] polynom_b[n=1][T/m^n] polynom_b[n=2][T/m^n] polynom_b[n=3][T/m^n] polynom_b[n=4][T/m^n] polynom_b[n=5][T/m^n] polynom_b[n=6][T/m^n] 
+0.0000000000000000e+00 -5.2273512347206175e-01 +6.8545626489934159e+00 +5.5561190116511776e+00 +2.3123760526436481e+01 -6.9037758764651508e+03 -5.8726020190739143e+05 +3.3715661762340844e+07 
+5.0000000000000003e-02 -5.2273558986419910e-01 +6.8545552493978477e+00 +5.5587710661773055e+00 +2.2925268784504066e+01 -6.9738210065882176e+03 -5.8581175054904527e+05 +3.4204251966835506e+07 
+1.0000000000000001e-01 -5.2273642822305710e-01 +6.8545682462152220e+00 +5.5608866631708649e+00 +2.2713777801231085e+01 -7.0414269617947321e+03 -5.8420691381943377e+05 +3.4675440307539485e+07 
+1.4999999999999999e-01 -5.2273763791002303e-01 +6.8546015688322832e+00 +5.5624697190297123e+00 +2.2490183655141930e+01 -7.1066389779711972e+03 -5.8245367103471048e+05 +3.5129556399310894e+07 
+2.0000000000000001e-01 -5.2273921828653924e-01 +6.8546551466400816e+00 +5.5635241542262230e+00 +2.2255382286295131e+01 -7.1695023980294764e+03 -5.8056000041119230e+05 +3.5566930568516754e+07 
+2.5000000000000000e-01 -5.2274116871405896e-01 +6.8547289090237351e+00 +5.5640538844365777e+00 +2.2010269887473935e+01 -7.2300624389342893e+03 -5.7853388215156645e+05 +3.5987892298690267e+07 
+2.9999999999999999e-01 -5.2274348855406017e-01 +6.8548227853747621e+00 +5.5640628306967441e+00 +2.1755742435175712e+01 -7.2883644584410304e+03 -5.7638329473912355e+05 +3.6392772008193500e+07 
+3.4999999999999998e-01 -5.2274617716795069e-01 +6.8549367050848256e+00 +5.5635549077744066e+00 +2.1492695925179309e+01 -7.3444536484137570e+03 -5.7411621677738230e+05 +3.6781899006398074e+07 
+4.0000000000000002e-01 -5.2274923391730765e-01 +6.8550705975435804e+00 +5.5625340356624529e+00 +2.1222026450305588e+01 -7.3983753431446785e+03 -5.7174062763449061e+05 +3.7155603566889010e+07 
+4.5000000000000001e-01 -5.2275265816356209e-01 +6.8552243921428477e+00 +5.5610041316866177e+00 +2.0944630059884837e+01 -7.4501748003672974e+03 -5.6926450634589244e+05 +3.7514215425473668e+07 
+5.0000000000000000e-01 -5.2275644926829112e-01 +6.8553980182772891e+00 +5.5589691142001190e+00 +2.0661402709313457e+01 -7.4998973063917874e+03 -5.6669583117533627e+05 +3.7858064513671756e+07 
+5.5000000000000004e-01 -5.2276060659301260e-01 +6.8555914053400162e+00 +5.5564329018800231e+00 +2.0373240435951093e+01 -7.5475881622311890e+03 -5.6404258099698310e+05 +3.8187480883285597e+07 
+5.9999999999999998e-01 -5.2276512949933107e-01 +6.8558044827233378e+00 +5.5533994120500632e+00 +2.0081039346736127e+01 -7.5932926253826436e+03 -5.6131273530464713e+05 +3.8502794263875164e+07 
+6.5000000000000002e-01 -5.2277001734874862e-01 +6.8560371798257105e+00 +5.5498725636177486e+00 +1.9785695321449609e+01 -7.6370560014318307e+03 -5.5851427168288978e+05 +3.8804334728519604e+07 
+6.9999999999999996e-01 -5.2277526950289954e-01 +6.8562894260397194e+00 +5.5458562737431709e+00 +1.9488104508502108e+01 -7.6789235459515367e+03 -5.5565516994086723e+05 +3.9092432000775926e+07 
+7.5000000000000000e-01 -5.2278088532336542e-01 +6.8565611507640636e+00 +5.5413544606353433e+00 +1.9189162830111854e+01 -7.7189405428727414e+03 -5.5274340800537483e+05 +3.9367415993294567e+07 
+8.0000000000000004e-01 -5.2278686417176645e-01 +6.8568522833960195e+00 +5.5363710427820747e+00 +1.8889766296342106e+01 -7.7571522894983627e+03 -5.4978696453689260e+05 +3.9629616731572561e+07 
+8.4999999999999998e-01 -5.2279320540976593e-01 +6.8571627533333821e+00 +5.5309099381848004e+00 +1.8590810911304114e+01 -7.7936040624186289e+03 -5.4679381810160191e+05 +3.9879364071997501e+07 
+9.0000000000000002e-01 -5.2279990839901103e-01 +6.8574924899723939e+00 +5.5249750642901505e+00 +1.8293192782034708e+01 -7.8283411286656974e+03 -5.4377194815275539e+05 +4.0116987823927559e+07 
+9.4999999999999996e-01 -5.2280697250115105e-01 +6.8578414227152447e+00 +5.5185703403027739e+00 +1.7997807797423246e+01 -7.8614088024418534e+03 -5.4072933234227984e+05 +4.0342818117140576e+07 
+1.0000000000000000e+00 -5.2281439707785915e-01 +6.8582094809607996e+00 +5.5116996825776647e+00 +1.7705552000966602e+01 -7.8928523185379217e+03 -5.3767394956248149e+05 +4.0557184530434690e+07 
+1.0500000000000000e+00 -5.2282218149085691e-01 +6.8585965941096276e+00 +5.5043670090489796e+00 +1.7417321388690823e+01 -7.9227169592424852e+03 -5.3461377831506182e+05 +4.0760416985119469e+07 
+1.1000000000000001e+00 -5.2283032510181071e-01 +6.8590026915636528e+00 +5.4965762383067158e+00 +1.7134011939395169e+01 -7.9510480232456257e+03 -5.3155679698395764e+05 +4.0952845507136703e+07 
+1.1499999999999999e+00 -5.2283882727252695e-01 +6.8594277027249735e+00 +5.4883312886785331e+00 +1.6856519633979069e+01 -7.9778907993166131e+03 -5.2851098393652355e+05 +4.1134800044963598e+07 
+1.2000000000000000e+00 -5.2284768736468512e-01 +6.8598715569943760e+00 +5.4796360759419525e+00 +1.6585740547199595e+01 -8.0032905127182657e+03 -5.2548431834326684e+05 +4.1306610136710644e+07 
+1.2500000000000000e+00 -5.2285690474005164e-01 +6.8603341837770264e+00 +5.4704945192719450e+00 +1.6322570592239401e+01 -8.0272924781894717e+03 -5.2248477803382091e+05 +4.1468605919677526e+07 
+1.3000000000000000e+00 -5.2286647876040659e-01 +6.8608155124764165e+00 +5.4609105335171826e+00 +1.6067905763201015e+01 -8.0499418947685544e+03 -5.1952034145362268e+05 +4.1621116750289179e+07 
+1.3500000000000001e+00 -5.2287640878755015e-01 +6.8613154724954288e+00 +5.4508880386534848e+00 +1.5822642125693315e+01 -8.0712841002404175e+03 -5.1659898772237229e+05 +4.1764472926746368e+07 
+1.3999999999999999e+00 -5.2288669418323053e-01 +6.8618339932414250e+00 +5.4404309521189589e+00 +1.5587675570742393e+01 -8.0913643676176107e+03 -5.1372869446051773e+05 +4.1899004322513632e+07 
+1.4500000000000000e+00 -5.2289733430930263e-01 +6.8623710041177244e+00 +5.4295431891780899e+00 +1.5363902179216391e+01 -8.1102279065485845e+03 -5.1091744086747244e+05 +4.2025040369456530e+07 
+1.5000000000000000e+00 -5.2290832852759273e-01 +6.8629264345317038e+00 +5.4182286666344330e+00 +1.5152217898597716e+01 -8.1279199693062146e+03 -5.0817320507214702e+05 +4.2142910786732890e+07 
+1.5500000000000000e+00 -5.2291967619992485e-01 +6.8635002138897505e+00 +5.4064913032028290e+00 +1.4953518726975028e+01 -8.1444858685197441e+03 -5.0550396557539440e+05 +4.2252945740999803e+07 
+1.6000000000000001e+00 -5.2293137668814893e-01 +6.8640922715977446e+00 +5.3943350142651418e+00 +1.4768700717899970e+01 -8.1599708157428986e+03 -5.0291770137122477e+05 +4.2355474670981310e+07 
+1.6499999999999999e+00 -5.2294342935416982e-01 +6.8647025370657975e+00 +5.3817637185280445e+00 +1.4598659766352952e+01 -8.1744201212082107e+03 -5.0042239014874958e+05 +4.2450827721393600e+07 
+1.7000000000000000e+00 -5.2295583355982123e-01 +6.8653309397006126e+00 +5.3687813285683648e+00 +1.4444291936999841e+01 -8.1878789295615406e+03 -4.9802601099166984e+05 +4.2539333913789764e+07 
+1.7500000000000000e+00 -5.2296858866704699e-01 +6.8659774089131247e+00 +5.3553917642033140e+00 +1.4306493132926150e+01 -8.2003925758195692e+03 -4.9573654164529714e+05 +4.2621323544539936e+07 
+1.8000000000000000e+00 -5.2298169403772088e-01 +6.8666418741099475e+00 +5.3415989402620800e+00 +1.4186159466238115e+01 -8.2120062692591164e+03 -4.9356196159635141e+05 +4.2697126089202143e+07 
+1.8500000000000001e+00 -5.2299514903376509e-01 +6.8673242647024075e+00 +5.3274067722525045e+00 +1.4084186873305875e+01 -8.2227652313151139e+03 -4.9151024888322403e+05 +4.2767071090222478e+07 
+1.8999999999999999e+00 -5.2300895301714634e-01 +6.8680245101004695e+00 +5.3128191772179516e+00 +1.4001471370239431e+01 -8.2327147297560532e+03 -4.8958938222179044e+05 +4.2831488419609904e+07 
+1.9500000000000000e+00 -5.2302310534978913e-01 +6.8687425397151678e+00 +5.2978400708711568e+00 +1.3938908950954330e+01 -8.2418999958729437e+03 -4.8780734013447037e+05 +4.2890707704208255e+07 
+2.0000000000000000e+00 -5.2303760539367417e-01 +6.8694782829572727e+00 +5.2824733678082438e+00 +1.3897395635639118e+01 -8.2503662340155170e+03 -4.8617210135447705e+05 +4.2945058403538182e+07 
+2.0499999999999998e+00 -5.2305245227485309e-01 +6.8702316589235366e+00 +5.2667237044777790e+00 +1.3877618971605125e+01 -8.2581682987472450e+03 -4.8468990819093439e+05 +4.2994914836244859e+07 
+2.1000000000000001e+00 -5.2306764417323814e-01 +6.8710025464166682e+00 +5.2505985664076116e+00 +1.3879430667761627e+01 -8.2653962003887536e+03 -4.8335999525224254e+05 +4.3040798498188548e+07 
+2.1499999999999999e+00 -5.2308317903159429e-01 +6.8717908107984762e+00 +5.2341063277348878e+00 +1.3902468218143913e+01 -8.2721476377684667e+03 -4.8217982793144532e+05 +4.3083258307716131e+07 
+2.2000000000000002e+00 -5.2309905479276830e-01 +6.8725963174356437e+00 +5.2172553660850411e+00 +1.3946368917855679e+01 -8.2785204005021387e+03 -4.8114686996781128e+05 +4.3122843783041850e+07 
+2.2500000000000000e+00 -5.2311526939953201e-01 +6.8734189316931094e+00 +5.2000540572374199e+00 +1.4010770166955991e+01 -8.2846122328807705e+03 -4.8025858600007108e+05 +4.3160104156415567e+07 
+2.2999999999999998e+00 -5.2313182079469933e-01 +6.8742585189354015e+00 +5.1825107780722988e+00 +1.4095309389803683e+01 -8.2905209083763257e+03 -4.7951244084218238e+05 +4.3195588855423473e+07 
+2.3500000000000001e+00 -5.2314870692106319e-01 +6.8751149445288018e+00 +5.1646339039616374e+00 +1.4199623956216454e+01 -8.2963441574573699e+03 -4.7890589885921392e+05 +4.3229847007263504e+07 
+2.3999999999999999e+00 -5.2316592572148835e-01 +6.8759880738393635e+00 +5.1464318125725130e+00 +1.4323351250252932e+01 -8.3021797763369505e+03 -4.7843642449141282e+05 +4.3263428200099394e+07 
+2.4500000000000002e+00 -5.2318347513878338e-01 +6.8768777722312313e+00 +5.1279128786414647e+00 +1.4466128763908081e+01 -8.3081254802080039e+03 -4.7810148312356719e+05 +4.3296881464034304e+07 
+2.5000000000000000e+00 -5.2320135311585680e-01 +6.8777839050731888e+00 +5.1090854792111609e+00 +1.4627593794416308e+01 -8.3142790471763838e+03 -4.7789853846595075e+05 +4.3330756261110179e+07 
+2.5499999999999998e+00 -5.2321955759549643e-01 +6.8787063377273086e+00 +5.0899579903732128e+00 +1.4807383943944998e+01 -8.3207382291392441e+03 -4.7782505677586002e+05 +4.3365601872283511e+07 
+2.6000000000000001e+00 -5.2323808652064363e-01 +6.8796449355635616e+00 +5.0705387873477497e+00 +1.5005136492521121e+01 -8.3276007575002259e+03 -4.7787850163751945e+05 +4.3401967453116320e+07 
+2.6499999999999999e+00 -5.2325693783416771e-01 +6.8805995639449735e+00 +5.0508362483664309e+00 +1.5220489016170070e+01 -8.3349644419979704e+03 -4.7805633904363011e+05 +4.3440402675435431e+07 
+2.7000000000000002e+00 -5.2327610947894809e-01 +6.8815700882413848e+00 +5.0308587469792991e+00 +1.5453078834288341e+01 -8.3429269650708429e+03 -4.7835603291116352e+05 +4.3481456351557970e+07 
+2.7500000000000000e+00 -5.2329559939789383e-01 +6.8825563738153779e+00 +5.0106146613489004e+00 +1.5702543558334272e+01 -8.3515861405786709e+03 -4.7877504948945116e+05 +4.3525678203496054e+07 
+2.7999999999999998e+00 -5.2331540553388556e-01 +6.8835582860361457e+00 +4.9901123665065130e+00 +1.5968520558236831e+01 -8.3610396906102869e+03 -4.7931085309803981e+05 +4.3573617308984652e+07 
+2.8500000000000001e+00 -5.2333552582987242e-01 +6.8845756902675994e+00 +4.9693602393527225e+00 +1.6250647410157612e+01 -8.3713853911591377e+03 -4.7996090967333724e+05 +4.3625823123294927e+07 
+2.8999999999999999e+00 -5.2335595822877801e-01 +6.8856084518781007e+00 +4.9483666552658541e+00 +1.6548561535578468e+01 -8.3827209762848688e+03 -4.8072268394117308e+05 +4.3682844815347530e+07 
+2.9500000000000002e+00 -5.2337670067354058e-01 +6.8866564362321263e+00 +4.9271399909022131e+00 +1.6861900514691495e+01 -8.3951442170822538e+03 -4.8159364187516109e+05 +4.3745231813026875e+07 
+3.0000000000000000e+00 -5.2339775110709974e-01 +6.8877195086958221e+00 +4.9056886215169424e+00 +1.7190301869106250e+01 -8.4087528450557056e+03 -4.8257124896779639e+05 +4.3813533271341465e+07 
+3.0499999999999998e+00 -5.2341910747239317e-01 +6.8887975346362085e+00 +4.8840209246658999e+00 +1.7533403096193215e+01 -8.4236446510575151e+03 -4.8365297051151667e+05 +4.3888298735693291e+07 
+3.1000000000000001e+00 -5.2344076771239578e-01 +6.8898903794189543e+00 +4.8621452748796212e+00 +1.7890841750972683e+01 -8.4399173515776984e+03 -4.8483627223974245e+05 +4.3970077278024219e+07 
+3.1499999999999999e+00 -5.2346272977008446e-01 +6.8909979084094193e+00 +4.8400700495256022e+00 +1.8262255414678407e+01 -8.4576687310659181e+03 -4.8611862012152682e+05 +4.4059418394737549e+07 
+3.2000000000000002e+00 -5.2348499158843154e-01 +6.8921199869727134e+00 +4.8178036241852658e+00 +1.8647281680759495e+01 -8.4769965332337433e+03 -4.8749748018621292e+05 +4.4156871338765517e+07 
+3.2500000000000000e+00 -5.2350755111039493e-01 +6.8932564804754417e+00 +4.7953543749446368e+00 +1.9045558095150525e+01 -8.4979985121046775e+03 -4.8897031809075468e+05 +4.4262985418560587e+07 
+3.2999999999999998e+00 -5.2353040627899139e-01 +6.8944072542812185e+00 +4.7727306779522625e+00 +1.9456722321070753e+01 -8.5207724210245397e+03 -4.9053460040551319e+05 +4.4378309928211637e+07 
+3.3500000000000001e+00 -5.2355355503724899e-01 +6.8955721737573841e+00 +4.7499409104336952e+00 +1.9880411881305150e+01 -8.5454160480035334e+03 -4.9218779256295401e+05 +4.4503394420623161e+07 
+3.3999999999999999e+00 -5.2357699532811453e-01 +6.8967511042665102e+00 +4.7269934472325934e+00 +2.0316264503694217e+01 -8.5720271130453621e+03 -4.9392736167326383e+05 +4.4638787973572291e+07 
+3.4500000000000002e+00 -5.2360072509460887e-01 +6.8979439111732450e+00 +4.7038966662620183e+00 +2.0763917823295998e+01 -8.6007034202336690e+03 -4.9575077402483852e+05 +4.4785040237486944e+07 
+3.5000000000000000e+00 -5.2362474227976996e-01 +6.8991504598426046e+00 +4.6806589427740333e+00 +2.1223009480063752e+01 -8.6315427006789541e+03 -4.9765549601156398e+05 +4.4942700366702870e+07 
+3.5499999999999998e+00 -5.2364904482661023e-01 +6.9003706156385780e+00 +4.6572886511773861e+00 +2.1693177143461732e+01 -8.6646426642384267e+03 -4.9963899417724035e+05 +4.5112317376480654e+07 
+3.6000000000000001e+00 -5.2367363067818151e-01 +6.9016042439242096e+00 +4.6337941714619921e+00 +2.2174058534391545e+01 -8.7001011705977708e+03 -5.0169873551997024e+05 +4.5294441293619916e+07 
+3.6499999999999999e+00 -5.2369849777750743e-01 +6.9028512100629964e+00 +4.6101838775890407e+00 +2.2665291357654560e+01 -8.7380159150852960e+03 -5.0383218687992351e+05 +4.5489621027772702e+07 
+3.6999999999999900e+00 -5.2372364406761496e-01 +6.9041113794162765e+00 +4.5864661478680375e+00 +2.3166513408965354e+01 -8.7784847127983376e+03 -5.0603681584044569e+05 +4.5698406306039661e+07 
+3.7499999999999898e+00 -5.2374906749159345e-01 +6.9053846173496041e+00 +4.5626493571891702e+00 +2.3677362306369705e+01 -8.8216052852940629e+03 -5.0831008848359057e+05 +4.5921346219789013e+07 
+3.7999999999999901e+00 -5.2377476599245099e-01 +6.9066707892233730e+00 +4.5387418829344988e+00 +2.4197475890091603e+01 -8.8674754230371564e+03 -5.1064947272994666e+05 +4.6158990334914677e+07 
+3.8499999999999899e+00 -5.2380073751329381e-01 +6.9079697603984487e+00 +4.5147521012077281e+00 +2.4726491978172525e+01 -8.9161928780481085e+03 -5.1305243630167935e+05 +4.6411887938107178e+07 
+3.8999999999999901e+00 -5.2382697999711170e-01 +6.9092813962367181e+00 +4.4906883888838314e+00 +2.5264048346341571e+01 -8.9678554273316968e+03 -5.1551644652739918e+05 +4.6680588504669644e+07 
+3.9499999999999900e+00 -5.2385349138705284e-01 +6.9106055621005096e+00 +4.4665591235178601e+00 +2.5809782752095352e+01 -9.0225608644889489e+03 -5.1803897060761024e+05 +4.6965641614367574e+07 
+3.9999999999999898e+00 -5.2388026962612932e-01 +6.9119421233477700e+00 +4.4423726797031708e+00 +2.6363333134870743e+01 -9.0804069010967614e+03 -5.2061747718197911e+05 +4.7267596287582807e+07 
+4.0499999999999901e+00 -5.2390731254467959e-01 +6.9132909422110451e+00 +4.4181353546775792e+00 +2.6924222359923832e+01 -9.1414496308753405e+03 -5.2324858580192400e+05 +4.7586790934660874e+07 
+4.0999999999999899e+00 -5.2393461752170578e-01 +6.9146518634819190e+00 +4.3938453135065334e+00 +2.7491531067758093e+01 -9.2055721125789842e+03 -5.2592584235635202e+05 +4.7922674785915375e+07 
+4.1499999999999897e+00 -5.2396218182350873e-01 +6.9160247263690886e+00 +4.3694987592837577e+00 +2.8064232018712559e+01 -9.2726128309992764e+03 -5.2864210137697274e+05 +4.8274465934228361e+07 
+4.1999999999999904e+00 -5.2399000271633345e-01 +6.9174093700867472e+00 +4.3450918942804728e+00 +2.8641297759589900e+01 -9.3424102550074786e+03 -5.3139021581637021e+05 +4.8641382401525393e+07 
+4.2499999999999902e+00 -5.2401807746649609e-01 +6.9188056338470734e+00 +4.3206209190002136e+00 +2.9221700900883402e+01 -9.4148027911565368e+03 -5.3416303912599070e+05 +4.9022641726254620e+07 
+4.2999999999999901e+00 -5.2404640334022268e-01 +6.9202133568600290e+00 +4.2960820362100760e+00 +2.9804414147933535e+01 -9.4896289161904951e+03 -5.3695342557739536e+05 +4.9417461957987882e+07 
+4.3499999999999899e+00 -5.2407497760382371e-01 +6.9216323783410267e+00 +4.2714714495471950e+00 +3.0388409984730355e+01 -9.5667271230365004e+03 -5.3975422768678854e+05 +4.9825061228339955e+07 
+4.3999999999999897e+00 -5.2410379752356884e-01 +6.9230625375025809e+00 +4.2467853604210593e+00 +3.0972661007344371e+01 -9.6459358472127878e+03 -5.4255829890577472e+05 +5.0244657286602795e+07 
+4.4499999999999904e+00 -5.2413286036571560e-01 +6.9245036735586512e+00 +4.2220199718616378e+00 +3.1556139750127208e+01 -9.7270935628694751e+03 -5.4535849222349434e+05 +5.0675468124943599e+07 
+4.4999999999999902e+00 -5.2416216339657207e-01 +6.9259556257237289e+00 +4.1971714870603023e+00 +3.2137818719084962e+01 -9.8100387472100883e+03 -5.4814766042328312e+05 +5.1116711749584623e+07 
+4.5499999999999901e+00 -5.2419170388241720e-01 +6.9274182332135581e+00 +4.1722361084523847e+00 +3.2716670371590723e+01 -9.8946098557163805e+03 -5.5091865595210053e+05 +5.1567606013237409e+07 
+4.5999999999999899e+00 -5.2422147908956418e-01 +6.9288913352400909e+00 +4.1472100402832925e+00 +3.3291667298398430e+01 -9.9806453918375173e+03 -5.5366433232990163e+05 +5.2027369089458793e+07 
+4.6499999999999897e+00 -5.2425148628422358e-01 +6.9303747710244306e+00 +4.1220894866739295e+00 +3.3861781736434132e+01 -1.0067983854877679e+04 -5.5637754030084831e+05 +5.2495219117428616e+07 
+4.6999999999999904e+00 -5.2428172273275198e-01 +6.9318683797774474e+00 +4.0968706503039716e+00 +3.4425986314584591e+01 -1.0156463696805848e+04 -5.5905113380249753e+05 +5.2970373885322519e+07 
+4.7499999999999902e+00 -5.2431218570139260e-01 +6.9333720007204445e+00 +4.0715497370557845e+00 +3.4983253236356731e+01 -1.0245923464499991e+04 -5.6167796334139397e+05 +5.3452051853478022e+07 
+4.7999999999999901e+00 -5.2434287245647448e-01 +6.9348854730681140e+00 +4.0461229498844196e+00 +3.5532554974765183e+01 -1.0336201614457568e+04 -5.6425088171116041e+05 +5.3939470824419260e+07 
+4.8499999999999899e+00 -5.2437378026421699e-01 +6.9364086360375987e+00 +4.0205864950149852e+00 +3.6072863880682135e+01 -1.0427136693761195e+04 -5.6676274067163339e+05 +5.4431849222271457e+07 
+4.8999999999999897e+00 -5.2440490639098236e-01 +6.9379413288503420e+00 +3.9949365774254333e+00 +3.6603152138985998e+01 -1.0518567213479344e+04 -5.6920639076432341e+05 +5.4928405219274208e+07 
+4.9499999999999904e+00 -5.2443624810302347e-01 +6.9394833907232458e+00 +3.9691694012771417e+00 +3.7122392098272741e+01 -1.0610331659702935e+04 -5.7157468383765593e+05 +5.5428356800084099e+07 
+4.9999999999999902e+00 -5.2446780266660786e-01 +6.9410346608762863e+00 +3.9432811733504645e+00 +3.7629555982674113e+01 -1.0702268587686118e+04 -5.7386047081390314e+05 +5.5930922415769629e+07 
+5.0499999999999901e+00 -5.2449956735026682e-01 +6.9425949703801182e+00 +3.9172685002643584e+00 +3.8123608281473757e+01 -1.0794216391431257e+04 -5.7605660436999297e+05 +5.6435319712853149e+07 
