# field on trajectory
# s[mm] rx[mm] ry[mm] rz[mm] bx[T] by[T] bz[T]
0.0000000000000000e+00 +8.2850000000000001e+00 +0.0000000000000000e+00 +0.0000000000000000e+00 -2.9007906396598077e-02 -5.5720792939191566e-01 +5.0682183729394998e-03
5.0000000000000003e-02 +8.2849999307013089e+00 +0.0000000000000000e+00 +4.9999999999935964e-02 -2.9008597627887607e-02 -5.5720461768127316e-01 +5.0673743280276523e-03
1.0000000000000001e-01 +8.2849997228057699e+00 +0.0000000000000000e+00 +9.9999999999487749e-02 -2.9009306805161249e-02 -5.5720164204283518e-01 +5.0665386305758699e-03
1.5000000000000002e-01 +8.2849993763141239e+00 +0.0000000000000000e+00 +1.4999999999827118e-01 -2.9010034018244320e-02 -5.5719900209502571e-01 +5.0657113438122552e-03
2.0000000000000001e-01 +8.2849988912270263e+00 +0.0000000000000000e+00 +1.9999999999590209e-01 -2.9010779356963085e-02 -5.5719669745628331e-01 +5.0648925309652367e-03
2.5000000000000000e-01 +8.2849982675450509e+00 +0.0000000000000000e+00 +2.4999999999199629e-01 -2.9011542911144744e-02 -5.5719472774506151e-01 +5.0640822552635717e-03
2.9999999999999999e-01 +8.2849975052686879e+00 +0.0000000000000000e+00 +2.9999999998616966e-01 -2.9012324770617545e-02 -5.5719309257982930e-01 +5.0632805799363748e-03
3.4999999999999998e-01 +8.2849966043983443e+00 +0.0000000000000000e+00 +3.4999999997803799e-01 -2.9013125025210734e-02 -5.5719179157907062e-01 +5.0624875682131077e-03
3.9999999999999997e-01 +8.2849955649343432e+00 +0.0000000000000000e+00 +3.9999999996721713e-01 -2.9013943764754704e-02 -5.5719082436128486e-01 +5.0617032833236049e-03
4.4999999999999996e-01 +8.2849943868769262e+00 +0.0000000000000000e+00 +4.4999999995332296e-01 -2.9014781079080926e-02 -5.5719019054498620e-01 +5.0609277884980774e-03
4.9999999999999994e-01 +8.2849930702262498e+00 +0.0000000000000000e+00 +4.9999999993597127e-01 -2.9015637058022042e-02 -5.5718988974870287e-01 +5.0601611469671195e-03
5.4999999999999993e-01 +8.2849916149823883e+00 +0.0000000000000000e+00 +5.4999999991477788e-01 -2.9016511791411934e-02 -5.5718992159097969e-01 +5.0594034219617360e-03
5.9999999999999998e-01 +8.2849900211453349e+00 +0.0000000000000000e+00 +5.9999999988935870e-01 -2.9017405369085692e-02 -5.5719028569037488e-01 +5.0586546767133382e-03
6.5000000000000002e-01 +8.2849882887149988e+00 +0.0000000000000000e+00 +6.4999999985932955e-01 -2.9018317880879749e-02 -5.5719098166546321e-01 +5.0579149744537557e-03
7.0000000000000007e-01 +8.2849864176912078e+00 +0.0000000000000000e+00 +6.9999999982430627e-01 -2.9019249416631785e-02 -5.5719200913483236e-01 +5.0571843784152481e-03
7.5000000000000011e-01 +8.2849844080737043e+00 +0.0000000000000000e+00 +7.4999999978390464e-01 -2.9020200066180914e-02 -5.5719336771708639e-01 +5.0564629518305218e-03
8.0000000000000016e-01 +8.2849822598621525e+00 +0.0000000000000000e+00 +7.9999999973774050e-01 -2.9021169919367620e-02 -5.5719505703084338e-01 +5.0557507579327395e-03
8.5000000000000020e-01 +8.2849799730561315e+00 +0.0000000000000000e+00 +8.4999999968542972e-01 -2.9022159066033858e-02 -5.5719707669473661e-01 +5.0550478599555165e-03
9.0000000000000024e-01 +8.2849775476551386e+00 +0.0000000000000000e+00 +8.9999999962658805e-01 -2.9023167596023022e-02 -5.5719942632741393e-01 +5.0543543211329549e-03
9.5000000000000029e-01 +8.2849749836585893e+00 +0.0000000000000000e+00 +9.4999999956083125e-01 -2.9024195599180090e-02 -5.5720210554753746e-01 +5.0536702046996337e-03
1.0000000000000002e+00 +8.2849722810658175e+00 +0.0000000000000000e+00 +9.9999999948777518e-01 -2.9025243165351575e-02 -5.5720511397378492e-01 +5.0529955738906314e-03
1.0500000000000003e+00 +8.2849694398760754e+00 +0.0000000000000000e+00 +1.0499999994070355e+00 -2.9026310384385599e-02 -5.5720845122484786e-01 +5.0523304919415342e-03
1.1000000000000003e+00 +8.2849664600885315e+00 +0.0000000000000000e+00 +1.0999999993182281e+00 -2.9027397346131929e-02 -5.5721211691943318e-01 +5.0516750220884424e-03
1.1500000000000004e+00 +8.2849633417022748e+00 +0.0000000000000000e+00 +1.1499999992209688e+00 -2.9028504140442009e-02 -5.5721611067626131e-01 +5.0510292275679847e-03
1.2000000000000004e+00 +8.2849600847163121e+00 +0.0000000000000000e+00 +1.1999999991148733e+00 -2.9029630857169031e-02 -5.5722043211406802e-01 +5.0503931716173360e-03
1.2500000000000004e+00 +8.2849566891295687e+00 +0.0000000000000000e+00 +1.2499999989995572e+00 -2.9030777586167907e-02 -5.5722508085160372e-01 +5.0497669174742067e-03
1.3000000000000005e+00 +8.2849531549408884e+00 +0.0000000000000000e+00 +1.2999999988746362e+00 -2.9031944417295404e-02 -5.5723005650763280e-01 +5.0491505283768818e-03
1.3500000000000005e+00 +8.2849494821490346e+00 +0.0000000000000000e+00 +1.3499999987397262e+00 -2.9033131440410097e-02 -5.5723535870093444e-01 +5.0485440675642097e-03
1.4000000000000006e+00 +8.2849456707526858e+00 +0.0000000000000000e+00 +1.3999999985944427e+00 -2.9034338745372472e-02 -5.5724098705030178e-01 +5.0479475982756188e-03
1.4500000000000006e+00 +8.2849417207504441e+00 +0.0000000000000000e+00 +1.4499999984384015e+00 -2.9035566422044919e-02 -5.5724694117454310e-01 +5.0473611837511378e-03
1.5000000000000007e+00 +8.2849376321408279e+00 +0.0000000000000000e+00 +1.4999999982712182e+00 -2.9036814560291793e-02 -5.5725322069248096e-01 +5.0467848872313920e-03
1.5500000000000007e+00 +8.2849334049222758e+00 +0.0000000000000000e+00 +1.5499999980925085e+00 -2.9038083249979457e-02 -5.5725982522295103e-01 +5.0462187719576158e-03
1.6000000000000008e+00 +8.2849290390931447e+00 +0.0000000000000000e+00 +1.5999999979018880e+00 -2.9039372580976320e-02 -5.5726675438480522e-01 +5.0456629011716844e-03
1.6500000000000008e+00 +8.2849245346517115e+00 +0.0000000000000000e+00 +1.6499999976989721e+00 -2.9040682643152856e-02 -5.5727400779690806e-01 +5.0451173381160916e-03
1.7000000000000008e+00 +8.2849198915961715e+00 +0.0000000000000000e+00 +1.6999999974833764e+00 -2.9042013526381708e-02 -5.5728158507813919e-01 +5.0445821460339867e-03
1.7500000000000009e+00 +8.2849151099246399e+00 +0.0000000000000000e+00 +1.7499999972547164e+00 -2.9043365320537615e-02 -5.5728948584739213e-01 +5.0440573881691724e-03
1.8000000000000009e+00 +8.2849101896351520e+00 +0.0000000000000000e+00 +1.7999999970126079e+00 -2.9044738115497570e-02 -5.5729770972357529e-01 +5.0435431277661164e-03
1.8500000000000010e+00 +8.2849051307256616e+00 +0.0000000000000000e+00 +1.8499999967566663e+00 -2.9046132001140788e-02 -5.5730625632560993e-01 +5.0430394280699762e-03
1.9000000000000010e+00 +8.2848999331940441e+00 +0.0000000000000000e+00 +1.8999999964865069e+00 -2.9047547067348779e-02 -5.5731512527243243e-01 +5.0425463523265787e-03
1.9500000000000011e+00 +8.2848945970380914e+00 +0.0000000000000000e+00 +1.9499999962017451e+00 -2.9048983404005354e-02 -5.5732431618299305e-01 +5.0420639637824690e-03
2.0000000000000009e+00 +8.2848891222555192e+00 +0.0000000000000000e+00 +1.9999999959019967e+00 -2.9050441100996697e-02 -5.5733382867625603e-01 +5.0415923256848924e-03
2.0500000000000007e+00 +8.2848835088439614e+00 +0.0000000000000000e+00 +2.0499999955868766e+00 -2.9051920193634239e-02 -5.5734366212267450e-01 +5.0411314970339452e-03
2.1000000000000005e+00 +8.2848777568009719e+00 +0.0000000000000000e+00 +2.0999999952560007e+00 -2.9053420498922473e-02 -5.5735381489861480e-01 +5.0406815198389531e-03
2.1500000000000004e+00 +8.2848718661240248e+00 +0.0000000000000000e+00 +2.1499999949089839e+00 -2.9054941779289287e-02 -5.5736428513193037e-01 +5.0402424318620334e-03
2.2000000000000002e+00 +8.2848658368105159e+00 +0.0000000000000000e+00 +2.1999999945454416e+00 -2.9056483797162875e-02 -5.5737507095048622e-01 +5.0398142708659773e-03
2.2500000000000000e+00 +8.2848596688577629e+00 +0.0000000000000000e+00 +2.2499999941649893e+00 -2.9058046314971664e-02 -5.5738617048215966e-01 +5.0393970746142594e-03
2.2999999999999998e+00 +8.2848533622630054e+00 +0.0000000000000000e+00 +2.2999999937672420e+00 -2.9059629095144240e-02 -5.5739758185483979e-01 +5.0389908808710230e-03
2.3499999999999996e+00 +8.2848469170234047e+00 +0.0000000000000000e+00 +2.3499999933518150e+00 -2.9061231900109268e-02 -5.5740930319642690e-01 +5.0385957274011132e-03
2.3999999999999995e+00 +8.2848403331360458e+00 +0.0000000000000000e+00 +2.3999999929183233e+00 -2.9062854492295391e-02 -5.5742133263483307e-01 +5.0382116519700707e-03
2.4499999999999993e+00 +8.2848336105979357e+00 +0.0000000000000000e+00 +2.4499999924663820e+00 -2.9064496634131166e-02 -5.5743366829798136e-01 +5.0378386923441319e-03
2.4999999999999991e+00 +8.2848267494060064e+00 +0.0000000000000000e+00 +2.4999999919956064e+00 -2.9066158088044969e-02 -5.5744630831380682e-01 +5.0374768862902460e-03
2.5499999999999989e+00 +8.2848197495571156e+00 +0.0000000000000000e+00 +2.5499999915056115e+00 -2.9067838616464909e-02 -5.5745925081025405e-01 +5.0371262715760727e-03
2.5999999999999988e+00 +8.2848126110480429e+00 +0.0000000000000000e+00 +2.5999999909960123e+00 -2.9069537981818772e-02 -5.5747249391528009e-01 +5.0367868859699950e-03
2.6499999999999986e+00 +8.2848053338754930e+00 +0.0000000000000000e+00 +2.6499999904664238e+00 -2.9071255946533911e-02 -5.5748603575685152e-01 +5.0364587672411228e-03
2.6999999999999984e+00 +8.2847979180360998e+00 +0.0000000000000000e+00 +2.6999999899164608e+00 -2.9072992273037161e-02 -5.5749987446294658e-01 +5.0361419531592937e-03
2.7499999999999982e+00 +8.2847903635264206e+00 +0.0000000000000000e+00 +2.7499999893457385e+00 -2.9074746723754798e-02 -5.5751400816155317e-01 +5.0358364814950922e-03
2.7999999999999980e+00 +8.2847826703429384e+00 +0.0000000000000000e+00 +2.7999999887538718e+00 -2.9076519061112371e-02 -5.5752843498066973e-01 +5.0355423900198459e-03
2.8499999999999979e+00 +8.2847748384820665e+00 +0.0000000000000000e+00 +2.8499999881404752e+00 -2.9078309047534733e-02 -5.5754315304830482e-01 +5.0352597165056225e-03
2.8999999999999977e+00 +8.2847668679401441e+00 +0.0000000000000000e+00 +2.8999999875051636e+00 -2.9080116445445867e-02 -5.5755816049247775e-01 +5.0349884987252623e-03
2.9499999999999975e+00 +8.2847587587134370e+00 +0.0000000000000000e+00 +2.9499999868475522e+00 -2.9081941017268839e-02 -5.5757345544121661e-01 +5.0347287744523603e-03
2.9999999999999973e+00 +8.2847505107981423e+00 +0.0000000000000000e+00 +2.9999999861672553e+00 -2.9083782525425709e-02 -5.5758903602255960e-01 +5.0344805814612854e-03
3.0499999999999972e+00 +8.2847421241903856e+00 +0.0000000000000000e+00 +3.0499999854638875e+00 -2.9085640732337461e-02 -5.5760490036455546e-01 +5.0342439575271798e-03
3.0999999999999970e+00 +8.2847335988862181e+00 +0.0000000000000000e+00 +3.0999999847370634e+00 -2.9087515400423928e-02 -5.5762104659526124e-01 +5.0340189404259666e-03
3.1499999999999968e+00 +8.2847249348816252e+00 +0.0000000000000000e+00 +3.1499999839863975e+00 -2.9089406292103655e-02 -5.5763747284274401e-01 +5.0338055679343616e-03
3.1999999999999966e+00 +8.2847161321725213e+00 +0.0000000000000000e+00 +3.1999999832115047e+00 -2.9091313169793860e-02 -5.5765417723507960e-01 +5.0336038778298689e-03
3.2499999999999964e+00 +8.2847071907547516e+00 +0.0000000000000000e+00 +3.2499999824119992e+00 -2.9093235795910374e-02 -5.5767115790035349e-01 +5.0334139078907986e-03
3.2999999999999963e+00 +8.2846981106240936e+00 +0.0000000000000000e+00 +3.2999999815874954e+00 -2.9095173932867490e-02 -5.5768841296665927e-01 +5.0332356958962673e-03
3.3499999999999961e+00 +8.2846888917762538e+00 +0.0000000000000000e+00 +3.3499999807376080e+00 -2.9097127343077948e-02 -5.5770594056210010e-01 +5.0330692796262018e-03
3.3999999999999959e+00 +8.2846795342068731e+00 +0.0000000000000000e+00 +3.3999999798619509e+00 -2.9099095788952825e-02 -5.5772373881478754e-01 +5.0329146968613467e-03
3.4499999999999957e+00 +8.2846700379115248e+00 +0.0000000000000000e+00 +3.4499999789601388e+00 -2.9101079032901433e-02 -5.5774180585284150e-01 +5.0327719853832768e-03
3.4999999999999956e+00 +8.2846604028857147e+00 +0.0000000000000000e+00 +3.4999999780317856e+00 -2.9103076837331248e-02 -5.5776013980439010e-01 +5.0326411829743900e-03
3.5499999999999954e+00 +8.2846506291248829e+00 +0.0000000000000000e+00 +3.5499999770765056e+00 -2.9105088964647887e-02 -5.5777873879757045e-01 +5.0325223274179341e-03
3.5999999999999952e+00 +8.2846407166244020e+00 +0.0000000000000000e+00 +3.5999999760939128e+00 -2.9107115177254894e-02 -5.5779760096052677e-01 +5.0324154564979923e-03
3.6499999999999950e+00 +8.2846306653795825e+00 +0.0000000000000000e+00 +3.6499999750836216e+00 -2.9109155237553773e-02 -5.5781672442141184e-01 +5.0323206079994970e-03
3.6999999999999948e+00 +8.2846204753856654e+00 +0.0000000000000000e+00 +3.6999999740452458e+00 -2.9111208907943890e-02 -5.5783610730838618e-01 +5.0322378197082433e-03
3.7499999999999947e+00 +8.2846101466378315e+00 +0.0000000000000000e+00 +3.7499999729783995e+00 -2.9113275950822345e-02 -5.5785574774961777e-01 +5.0321671294108793e-03
3.7999999999999945e+00 +8.2845996791311958e+00 +0.0000000000000000e+00 +3.7999999718826967e+00 -2.9115356128583899e-02 -5.5787564387328237e-01 +5.0321085748949342e-03
3.8499999999999943e+00 +8.2845890728608076e+00 +0.0000000000000000e+00 +3.8499999707577510e+00 -2.9117449203620933e-02 -5.5789579380756271e-01 +5.0320621939487957e-03
3.8999999999999941e+00 +8.2845783278216558e+00 +0.0000000000000000e+00 +3.8999999696031762e+00 -2.9119554938323303e-02 -5.5791619568064921e-01 +5.0320280243617461e-03
3.9499999999999940e+00 +8.2845674440086672e+00 +0.0000000000000000e+00 +3.9499999684185862e+00 -2.9121673095078331e-02 -5.5793684762073936e-01 +5.0320061039239514e-03
3.9999999999999938e+00 +8.2845564214167045e+00 +0.0000000000000000e+00 +3.9999999672035949e+00 -2.9123803436270655e-02 -5.5795774775603735e-01 +5.0319964704264681e-03
4.0499999999999936e+00 +8.2845452600405682e+00 +0.0000000000000000e+00 +4.0499999659578156e+00 -2.9125945746995154e-02 -5.5797889416235402e-01 +5.0319991550438108e-03
4.0999999999999934e+00 +8.2845339598749987e+00 +0.0000000000000000e+00 +4.0999999646808618e+00 -2.9128099903197015e-02 -5.5800028470590246e-01 +5.0320141624813778e-03
4.1499999999999932e+00 +8.2845225209146776e+00 +0.0000000000000000e+00 +4.1499999633723474e+00 -2.9130265803534495e-02 -5.5802191720049699e-01 +5.0320414908274352e-03
4.1999999999999931e+00 +8.2845109431542223e+00 +0.0000000000000000e+00 +4.1999999620318862e+00 -2.9132443346666086e-02 -5.5804378945995203e-01 +5.0320811381705339e-03
4.2499999999999929e+00 +8.2844992265881920e+00 +0.0000000000000000e+00 +4.2499999606590908e+00 -2.9134632431250529e-02 -5.5806589929808248e-01 +5.0321331025994986e-03
4.2999999999999927e+00 +8.2844873712110889e+00 +0.0000000000000000e+00 +4.2999999592535749e+00 -2.9136832955946865e-02 -5.5808824452870409e-01 +5.0321973822033969e-03
4.3499999999999925e+00 +8.2844753770173547e+00 +0.0000000000000000e+00 +4.3499999578149522e+00 -2.9139044819414404e-02 -5.5811082296563108e-01 +5.0322739750715524e-03
4.3999999999999924e+00 +8.2844632440013726e+00 +0.0000000000000000e+00 +4.3999999563428354e+00 -2.9141267920312769e-02 -5.5813363242267799e-01 +5.0323628792935081e-03
4.4499999999999922e+00 +8.2844509721574688e+00 +0.0000000000000000e+00 +4.4499999548368381e+00 -2.9143502157301885e-02 -5.5815667071365804e-01 +5.0324640929590315e-03
4.4999999999999920e+00 +8.2844385614799148e+00 +0.0000000000000000e+00 +4.4999999532965731e+00 -2.9145747429042006e-02 -5.5817993565238333e-01 +5.0325776141580949e-03
4.5499999999999918e+00 +8.2844260119629229e+00 +0.0000000000000000e+00 +4.5499999517216532e+00 -2.9148003634193717e-02 -5.5820342505266440e-01 +5.0327034409808589e-03
4.5999999999999917e+00 +8.2844133236006510e+00 +0.0000000000000000e+00 +4.5999999501116919e+00 -2.9150270671417969e-02 -5.5822713672831037e-01 +5.0328415715176714e-03
4.6499999999999915e+00 +8.2844004963872013e+00 +0.0000000000000000e+00 +4.6499999484663022e+00 -2.9152548439376050e-02 -5.5825106849312778e-01 +5.0329920038590372e-03
4.6999999999999913e+00 +8.2843875303166215e+00 +0.0000000000000000e+00 +4.6999999467850966e+00 -2.9154836836729654e-02 -5.5827521816092041e-01 +5.0331547360956286e-03
4.7499999999999911e+00 +8.2843744253829037e+00 +0.0000000000000000e+00 +4.7499999450676880e+00 -2.9157135762140834e-02 -5.5829958354549036e-01 +5.0333297663182498e-03
4.7999999999999909e+00 +8.2843611815799889e+00 +0.0000000000000000e+00 +4.7999999433136891e+00 -2.9159445114272067e-02 -5.5832416246063554e-01 +5.0335170926178374e-03
4.8499999999999908e+00 +8.2843477989017611e+00 +0.0000000000000000e+00 +4.8499999415227126e+00 -2.9161764791786220e-02 -5.5834895272015139e-01 +5.0337167130854489e-03
4.8999999999999906e+00 +8.2843342773420563e+00 +0.0000000000000000e+00 +4.8999999396943705e+00 -2.9164094693346604e-02 -5.5837395213782892e-01 +5.0339286258122449e-03
4.9499999999999904e+00 +8.2843206168946573e+00 +0.0000000000000000e+00 +4.9499999378282764e+00 -2.9166434717616940e-02 -5.5839915852745570e-01 +5.0341528288894754e-03
4.9999999999999902e+00 +8.2843068175532917e+00 +0.0000000000000000e+00 +4.9999999359240421e+00 -2.9168784763261454e-02 -5.5842456970281451e-01 +5.0343893204084734e-03
5.0499999999999901e+00 +8.2842928793116410e+00 +0.0000000000000000e+00 +5.0499999339812804e+00 -2.9171144728944765e-02 -5.5845018347768416e-01 +5.0346380984606313e-03
5.0999999999999899e+00 +8.2842788021633336e+00 +0.0000000000000000e+00 +5.0999999319996032e+00 -2.9173514513332000e-02 -5.5847599766583766e-01 +5.0348991611374062e-03
5.1499999999999897e+00 +8.2842645861019495e+00 +0.0000000000000000e+00 +5.1499999299786232e+00 -2.9175894015088813e-02 -5.5850201008104372e-01 +5.0351725065302900e-03
5.1999999999999895e+00 +8.2842502311210175e+00 +0.0000000000000000e+00 +5.1999999279179523e+00 -2.9178283132881278e-02 -5.5852821853706480e-01 +5.0354581327308042e-03
5.2499999999999893e+00 +8.2842357372140203e+00 +0.0000000000000000e+00 +5.2499999258172032e+00 -2.9180681765376044e-02 -5.5855462084765795e-01 +5.0357560378304893e-03
5.2999999999999892e+00 +8.2842211043743905e+00 +0.0000000000000000e+00 +5.2999999236759869e+00 -2.9183089811240251e-02 -5.5858121482657375e-01 +5.0360662199208858e-03
5.3499999999999890e+00 +8.2842063325955113e+00 +0.0000000000000000e+00 +5.3499999214939162e+00 -2.9185507169141603e-02 -5.5860799828755647e-01 +5.0363886770935298e-03
5.3999999999999888e+00 +8.2841914218707231e+00 +0.0000000000000000e+00 +5.3999999192706030e+00 -2.9187933737748327e-02 -5.5863496904434329e-01 +5.0367234074399350e-03
5.4499999999999886e+00 +8.2841763721933166e+00 +0.0000000000000000e+00 +5.4499999170056590e+00 -2.9190369415729254e-02 -5.5866212491066503e-01 +5.0370704090515785e-03
5.4999999999999885e+00 +8.2841611835565381e+00 +0.0000000000000000e+00 +5.4999999146986962e+00 -2.9192814101753742e-02 -5.5868946370024397e-01 +5.0374296800198915e-03
5.5499999999999883e+00 +8.2841458559535859e+00 +0.0000000000000000e+00 +5.5499999123493255e+00 -2.9195267694491767e-02 -5.5871698322679597e-01 +5.0378012184362489e-03
5.5999999999999881e+00 +8.2841303893776157e+00 +0.0000000000000000e+00 +5.5999999099571598e+00 -2.9197730092613873e-02 -5.5874468130402766e-01 +5.0381850223919517e-03
5.6499999999999879e+00 +8.2841147838217388e+00 +0.0000000000000000e+00 +5.6499999075218099e+00 -2.9200201194791289e-02 -5.5877255574563833e-01 +5.0385810899782170e-03
5.6999999999999877e+00 +8.2840990392790221e+00 +0.0000000000000000e+00 +5.6999999050428878e+00 -2.9202680899695778e-02 -5.5880060436531787e-01 +5.0389894192861629e-03
5.7499999999999876e+00 +8.2840831557424899e+00 +0.0000000000000000e+00 +5.7499999025200044e+00 -2.9205169105999806e-02 -5.5882882497674768e-01 +5.0394100084068033e-03
5.7999999999999874e+00 +8.2840671332051201e+00 +0.0000000000000000e+00 +5.7999998999527715e+00 -2.9207665712376457e-02 -5.5885721539359923e-01 +5.0398428554310256e-03
5.8499999999999872e+00 +8.2840509716598536e+00 +0.0000000000000000e+00 +5.8499998973408003e+00 -2.9210170617499497e-02 -5.5888577342953560e-01 +5.0402879584495828e-03
5.8999999999999870e+00 +8.2840346710995867e+00 +0.0000000000000000e+00 +5.8999998946837016e+00 -2.9212683720043372e-02 -5.5891449689820882e-01 +5.0407453155530803e-03
