# trajectory
# s[mm] rx[mm] ry[mm] rz[mm] px[rad] py[rad] pz[rad]
0.0000000000000000e+00 +8.2850000000000001e+00 +0.0000000000000000e+00 +0.0000000000000000e+00 +0.0000000000000000e+00 +0.0000000000000000e+00 +1.0000000000000000e+00
5.0000000000000003e-02 +8.2849999307982785e+00 +0.0000000000000000e+00 +4.9999999999936144e-02 -2.7680686703685858e-06 +0.0000000000000000e+00 +9.9999999999616895e-01
1.0000000000000001e-01 +8.2849997231931365e+00 +0.0000000000000000e+00 +9.9999999999489192e-02 -5.5361371025870391e-06 +0.0000000000000000e+00 +9.9999999998467570e-01
1.5000000000000002e-01 +8.2849993771845387e+00 +0.0000000000000000e+00 +1.4999999999827601e-01 -8.3042072696221949e-06 +0.0000000000000000e+00 +9.9999999996552014e-01
2.0000000000000001e-01 +8.2849988927723484e+00 +0.0000000000000000e+00 +1.9999999999591350e-01 -1.1072281140448471e-05 +0.0000000000000000e+00 +9.9999999993870237e-01
2.5000000000000000e-01 +8.2849982699563309e+00 +0.0000000000000000e+00 +2.4999999999201855e-01 -1.3840360680047968e-05 +0.0000000000000000e+00 +9.9999999990422228e-01
2.9999999999999999e-01 +8.2849975087361543e+00 +0.0000000000000000e+00 +2.9999999998620802e-01 -1.6608447849410556e-05 +0.0000000000000000e+00 +9.9999999986207977e-01
3.4999999999999998e-01 +8.2849966091113867e+00 +0.0000000000000000e+00 +3.4999999997809883e-01 -1.9376544605533964e-05 +0.0000000000000000e+00 +9.9999999981227483e-01
3.9999999999999997e-01 +8.2849955710815006e+00 +0.0000000000000000e+00 +3.9999999996730784e-01 -2.2144652901423874e-05 +0.0000000000000000e+00 +9.9999999975480725e-01
4.4999999999999996e-01 +8.2849943946458708e+00 +0.0000000000000000e+00 +4.4999999995345186e-01 -2.4912774686094013e-05 +0.0000000000000000e+00 +9.9999999968967690e-01
4.9999999999999994e-01 +8.2849930798037743e+00 +0.0000000000000000e+00 +4.9999999993614780e-01 -2.7680911904566228e-05 +0.0000000000000000e+00 +9.9999999961688368e-01
5.4999999999999993e-01 +8.2849916265543904e+00 +0.0000000000000000e+00 +5.4999999991501247e-01 -3.0449066497870598e-05 +0.0000000000000000e+00 +9.9999999953642726e-01
5.9999999999999998e-01 +8.2849900348968024e+00 +0.0000000000000000e+00 +5.9999999988966279e-01 -3.3217240403045504e-05 +0.0000000000000000e+00 +9.9999999944830753e-01
6.5000000000000002e-01 +8.2849883048299962e+00 +0.0000000000000000e+00 +6.4999999985971546e-01 -3.5985435553137714e-05 +0.0000000000000000e+00 +9.9999999935252426e-01
7.0000000000000007e-01 +8.2849864363528614e+00 +0.0000000000000000e+00 +6.9999999982478744e-01 -3.8753653877202492e-05 +0.0000000000000000e+00 +9.9999999924907723e-01
7.5000000000000011e-01 +8.2849844294641901e+00 +0.0000000000000000e+00 +7.4999999978449550e-01 -4.1521897300303671e-05 +0.0000000000000000e+00 +9.9999999913796611e-01
8.0000000000000016e-01 +8.2849822841626803e+00 +0.0000000000000000e+00 +7.9999999973845637e-01 -4.4290167743513725e-05 +0.0000000000000000e+00 +9.9999999901919057e-01
8.5000000000000020e-01 +8.2849800004469341e+00 +0.0000000000000000e+00 +8.4999999968628681e-01 -4.7058467123913886e-05 +0.0000000000000000e+00 +9.9999999889275037e-01
9.0000000000000024e-01 +8.2849775783154538e+00 +0.0000000000000000e+00 +8.9999999962760369e-01 -4.9826797354594210e-05 +0.0000000000000000e+00 +9.9999999875864520e-01
9.5000000000000029e-01 +8.2849750177666515e+00 +0.0000000000000000e+00 +9.4999999956202363e-01 -5.2595160344653659e-05 +0.0000000000000000e+00 +9.9999999861687461e-01
1.0000000000000002e+00 +8.2849723187988413e+00 +0.0000000000000000e+00 +9.9999999948916340e-01 -5.5363557999200196e-05 +0.0000000000000000e+00 +9.9999999846743826e-01
1.0500000000000003e+00 +8.2849694814102417e+00 +0.0000000000000000e+00 +1.0499999994086398e+00 -5.8131992219350860e-05 +0.0000000000000000e+00 +9.9999999831033581e-01
1.1000000000000003e+00 +8.2849665055989785e+00 +0.0000000000000000e+00 +1.0999999993200693e+00 -6.0900464902231854e-05 +0.0000000000000000e+00 +9.9999999814556673e-01
1.1500000000000004e+00 +8.2849633913630800e+00 +0.0000000000000000e+00 +1.1499999992230687e+00 -6.3668977940978632e-05 +0.0000000000000000e+00 +9.9999999797313066e-01
1.2000000000000004e+00 +8.2849601387004803e+00 +0.0000000000000000e+00 +1.1999999991172545e+00 -6.6437533224735987e-05 +0.0000000000000000e+00 +9.9999999779302717e-01
1.2500000000000004e+00 +8.2849567476090211e+00 +0.0000000000000000e+00 +1.2499999990022435e+00 -6.9206132638658101e-05 +0.0000000000000000e+00 +9.9999999760525571e-01
1.3000000000000005e+00 +8.2849532180864500e+00 +0.0000000000000000e+00 +1.2999999988776523e+00 -7.1974778063908657e-05 +0.0000000000000000e+00 +9.9999999740981582e-01
1.3500000000000005e+00 +8.2849495501304169e+00 +0.0000000000000000e+00 +1.3499999987430973e+00 -7.4743471377660916e-05 +0.0000000000000000e+00 +9.9999999720670685e-01
1.4000000000000006e+00 +8.2849457437384828e+00 +0.0000000000000000e+00 +1.3999999985981950e+00 -7.7512214453097803e-05 +0.0000000000000000e+00 +9.9999999699592845e-01
1.4500000000000006e+00 +8.2849417989081111e+00 +0.0000000000000000e+00 +1.4499999984425622e+00 -8.0281009159411957e-05 +0.0000000000000000e+00 +9.9999999677747997e-01
1.5000000000000007e+00 +8.2849377156366746e+00 +0.0000000000000000e+00 +1.4999999982758152e+00 -8.3049857361805829e-05 +0.0000000000000000e+00 +9.9999999655136074e-01
1.5500000000000007e+00 +8.2849334939214518e+00 +0.0000000000000000e+00 +1.5499999980975705e+00 -8.5818760921491788e-05 +0.0000000000000000e+00 +9.9999999631757031e-01
1.6000000000000008e+00 +8.2849291337596291e+00 +0.0000000000000000e+00 +1.5999999979074444e+00 -8.8587721695692137e-05 +0.0000000000000000e+00 +9.9999999607610790e-01
1.6500000000000008e+00 +8.2849246351482986e+00 +0.0000000000000000e+00 +1.6499999977050535e+00 -9.1356741537639260e-05 +0.0000000000000000e+00 +9.9999999582697296e-01
1.7000000000000008e+00 +8.2849199980844599e+00 +0.0000000000000000e+00 +1.6999999974900140e+00 -9.4125822296575664e-05 +0.0000000000000000e+00 +9.9999999557016483e-01
1.7500000000000009e+00 +8.2849152225650222e+00 +0.0000000000000000e+00 +1.7499999972619422e+00 -9.6894965817754045e-05 +0.0000000000000000e+00 +9.9999999530568284e-01
1.8000000000000009e+00 +8.2849103085868006e+00 +0.0000000000000000e+00 +1.7999999970204543e+00 -9.9664173942437385e-05 +0.0000000000000000e+00 +9.9999999503352621e-01
1.8500000000000010e+00 +8.2849052561465193e+00 +0.0000000000000000e+00 +1.8499999967651668e+00 -1.0243344850789902e-04 +0.0000000000000000e+00 +9.9999999475369428e-01
1.9000000000000010e+00 +8.2849000652408105e+00 +0.0000000000000000e+00 +1.8999999964956957e+00 -1.0520279134742273e-04 +0.0000000000000000e+00 +9.9999999446618626e-01
1.9500000000000011e+00 +8.2848947358662155e+00 +0.0000000000000000e+00 +1.9499999962116574e+00 -1.0797220429030279e-04 +0.0000000000000000e+00 +9.9999999417100149e-01
2.0000000000000009e+00 +8.2848892680191835e+00 +0.0000000000000000e+00 +1.9999999959126680e+00 -1.1074168916184405e-04 +0.0000000000000000e+00 +9.9999999386813909e-01
2.0500000000000007e+00 +8.2848836616960710e+00 +0.0000000000000000e+00 +2.0499999955983434e+00 -1.1351124778309761e-04 +0.0000000000000000e+00 +9.9999999355759828e-01
2.1000000000000005e+00 +8.2848779168931461e+00 +0.0000000000000000e+00 +2.0999999952682997e+00 -1.1628088196795218e-04 +0.0000000000000000e+00 +9.9999999323937816e-01
2.1500000000000004e+00 +8.2848720336065842e+00 +0.0000000000000000e+00 +2.1499999949221533e+00 -1.1905059352022553e-04 +0.0000000000000000e+00 +9.9999999291347796e-01
2.2000000000000002e+00 +8.2848660118324737e+00 +0.0000000000000000e+00 +2.1999999945595197e+00 -1.2182038423340006e-04 +0.0000000000000000e+00 +9.9999999257989691e-01
2.2500000000000000e+00 +8.2848598515668108e+00 +0.0000000000000000e+00 +2.2499999941800151e+00 -1.2459025589062290e-04 +0.0000000000000000e+00 +9.9999999223863401e-01
2.2999999999999998e+00 +8.2848535528055045e+00 +0.0000000000000000e+00 +2.2999999937832549e+00 -1.2736021026470598e-04 +0.0000000000000000e+00 +9.9999999188968836e-01
2.3499999999999996e+00 +8.2848471155443750e+00 +0.0000000000000000e+00 +2.3499999933688556e+00 -1.3013024911812609e-04 +0.0000000000000000e+00 +9.9999999153305907e-01
2.3999999999999995e+00 +8.2848405397791556e+00 +0.0000000000000000e+00 +2.3999999929364328e+00 -1.3290037420302488e-04 +0.0000000000000000e+00 +9.9999999116874516e-01
2.4499999999999993e+00 +8.2848338255054887e+00 +0.0000000000000000e+00 +2.4499999924856022e+00 -1.3567058726120899e-04 +0.0000000000000000e+00 +9.9999999079674573e-01
2.4999999999999991e+00 +8.2848269727189336e+00 +0.0000000000000000e+00 +2.4999999920159794e+00 -1.3844089002415004e-04 +0.0000000000000000e+00 +9.9999999041705978e-01
2.5499999999999989e+00 +8.2848199814149623e+00 +0.0000000000000000e+00 +2.5499999915271800e+00 -1.4121128421298477e-04 +0.0000000000000000e+00 +9.9999999002968643e-01
2.5999999999999988e+00 +8.2848128515889599e+00 +0.0000000000000000e+00 +2.5999999910188198e+00 -1.4398177153851505e-04 +0.0000000000000000e+00 +9.9999998963462455e-01
2.6499999999999986e+00 +8.2848055832362277e+00 +0.0000000000000000e+00 +2.6499999904905143e+00 -1.4675235370120786e-04 +0.0000000000000000e+00 +9.9999998923187317e-01
2.6999999999999984e+00 +8.2847981763519805e+00 +0.0000000000000000e+00 +2.6999999899418787e+00 -1.4952303239119548e-04 +0.0000000000000000e+00 +9.9999998882143126e-01
2.7499999999999982e+00 +8.2847906309313508e+00 +0.0000000000000000e+00 +2.7499999893725291e+00 -1.5229380928827541e-04 +0.0000000000000000e+00 +9.9999998840329773e-01
2.7999999999999980e+00 +8.2847829469693863e+00 +0.0000000000000000e+00 +2.7999999887820803e+00 -1.5506468606191052e-04 +0.0000000000000000e+00 +9.9999998797747147e-01
2.8499999999999979e+00 +8.2847751244610528e+00 +0.0000000000000000e+00 +2.8499999881701479e+00 -1.5783566437122906e-04 +0.0000000000000000e+00 +9.9999998754395147e-01
2.8999999999999977e+00 +8.2847671634012308e+00 +0.0000000000000000e+00 +2.8999999875363471e+00 -1.6060674586502468e-04 +0.0000000000000000e+00 +9.9999998710273652e-01
2.9499999999999975e+00 +8.2847590637847190e+00 +0.0000000000000000e+00 +2.9499999868802931e+00 -1.6337793218175651e-04 +0.0000000000000000e+00 +9.9999998665382561e-01
2.9999999999999973e+00 +8.2847508256062383e+00 +0.0000000000000000e+00 +2.9999999862016011e+00 -1.6614922494954921e-04 +0.0000000000000000e+00 +9.9999998619721753e-01
3.0499999999999972e+00 +8.2847424488604240e+00 +0.0000000000000000e+00 +3.0499999854998863e+00 -1.6892062578619297e-04 +0.0000000000000000e+00 +9.9999998573291105e-01
3.0999999999999970e+00 +8.2847339335418315e+00 +0.0000000000000000e+00 +3.0999999847747639e+00 -1.7169213629914361e-04 +0.0000000000000000e+00 +9.9999998526090517e-01
3.1499999999999968e+00 +8.2847252796449382e+00 +0.0000000000000000e+00 +3.1499999840258486e+00 -1.7446375808552258e-04 +0.0000000000000000e+00 +9.9999998478119856e-01
3.1999999999999966e+00 +8.2847164871641414e+00 +0.0000000000000000e+00 +3.1999999832527553e+00 -1.7723549273211702e-04 +0.0000000000000000e+00 +9.9999998429379000e-01
3.2499999999999964e+00 +8.2847075560937586e+00 +0.0000000000000000e+00 +3.2499999824550989e+00 -1.8000734181537981e-04 +0.0000000000000000e+00 +9.9999998379867838e-01
3.2999999999999963e+00 +8.2846984864280273e+00 +0.0000000000000000e+00 +3.2999999816324945e+00 -1.8277930690142956e-04 +0.0000000000000000e+00 +9.9999998329586237e-01
3.3499999999999961e+00 +8.2846892781611086e+00 +0.0000000000000000e+00 +3.3499999807845566e+00 -1.8555138954605072e-04 +0.0000000000000000e+00 +9.9999998278534075e-01
3.3999999999999959e+00 +8.2846799312870871e+00 +0.0000000000000000e+00 +3.3999999799109002e+00 -1.8832359129469355e-04 +0.0000000000000000e+00 +9.9999998226711229e-01
3.4499999999999957e+00 +8.2846704457999678e+00 +0.0000000000000000e+00 +3.4499999790111393e+00 -1.9109591368247420e-04 +0.0000000000000000e+00 +9.9999998174117566e-01
3.4999999999999956e+00 +8.2846608216936826e+00 +0.0000000000000000e+00 +3.4999999780848889e+00 -1.9386835823417473e-04 +0.0000000000000000e+00 +9.9999998120752964e-01
3.5499999999999954e+00 +8.2846510589620834e+00 +0.0000000000000000e+00 +3.5499999771317636e+00 -1.9664092646424312e-04 +0.0000000000000000e+00 +9.9999998066617279e-01
3.5999999999999952e+00 +8.2846411575989496e+00 +0.0000000000000000e+00 +3.5999999761513779e+00 -1.9941361987679332e-04 +0.0000000000000000e+00 +9.9999998011710389e-01
3.6499999999999950e+00 +8.2846311175979839e+00 +0.0000000000000000e+00 +3.6499999751433458e+00 -2.0218643996560532e-04 +0.0000000000000000e+00 +9.9999997956032149e-01
3.6999999999999948e+00 +8.2846209389528163e+00 +0.0000000000000000e+00 +3.6999999741072815e+00 -2.0495938821412513e-04 +0.0000000000000000e+00 +9.9999997899582438e-01
3.7499999999999947e+00 +8.2846106216570021e+00 +0.0000000000000000e+00 +3.7499999730427995e+00 -2.0773246609546482e-04 +0.0000000000000000e+00 +9.9999997842361099e-01
3.7999999999999945e+00 +8.2846001657040222e+00 +0.0000000000000000e+00 +3.7999999719495139e+00 -2.1050567507240254e-04 +0.0000000000000000e+00 +9.9999997784368011e-01
3.8499999999999943e+00 +8.2845895710872863e+00 +0.0000000000000000e+00 +3.8499999708270387e+00 -2.1327901659738254e-04 +0.0000000000000000e+00 +9.9999997725603029e-01
3.8999999999999941e+00 +8.2845788378001295e+00 +0.0000000000000000e+00 +3.8999999696749881e+00 -2.1605249211251529e-04 +0.0000000000000000e+00 +9.9999997666066009e-01
3.9499999999999940e+00 +8.2845679658358176e+00 +0.0000000000000000e+00 +3.9499999684929761e+00 -2.1882610304957734e-04 +0.0000000000000000e+00 +9.9999997605756807e-01
3.9999999999999938e+00 +8.2845569551875435e+00 +0.0000000000000000e+00 +3.9999999672806164e+00 -2.2159985083001148e-04 +0.0000000000000000e+00 +9.9999997544675279e-01
4.0499999999999936e+00 +8.2845458058484294e+00 +0.0000000000000000e+00 +4.0499999660375225e+00 -2.2437373686475301e-04 +0.0000000000000000e+00 +9.9999997482821279e-01
4.0999999999999934e+00 +8.2845345178115295e+00 +0.0000000000000000e+00 +4.0999999647633087e+00 -2.2714776255231922e-04 +0.0000000000000000e+00 +9.9999997420194664e-01
4.1499999999999932e+00 +8.2845230910698238e+00 +0.0000000000000000e+00 +4.1499999634575886e+00 -2.2992192927689877e-04 +0.0000000000000000e+00 +9.9999997356795289e-01
4.1999999999999931e+00 +8.2845115256162281e+00 +0.0000000000000000e+00 +4.1999999621199757e+00 -2.3269623840817806e-04 +0.0000000000000000e+00 +9.9999997292623000e-01
4.2499999999999929e+00 +8.2844998214435872e+00 +0.0000000000000000e+00 +4.2499999607500829e+00 -2.3547069130134128e-04 +0.0000000000000000e+00 +9.9999997227677639e-01
4.2999999999999927e+00 +8.2844879785446803e+00 +0.0000000000000000e+00 +4.2999999593475247e+00 -2.3824528929707034e-04 +0.0000000000000000e+00 +9.9999997161959064e-01
4.3499999999999925e+00 +8.2844759969122173e+00 +0.0000000000000000e+00 +4.3499999579119137e+00 -2.4102003372154497e-04 +0.0000000000000000e+00 +9.9999997095467119e-01
4.3999999999999924e+00 +8.2844638765388456e+00 +0.0000000000000000e+00 +4.3999999564428629e+00 -2.4379492588644266e-04 +0.0000000000000000e+00 +9.9999997028201659e-01
4.4499999999999922e+00 +8.2844516174171456e+00 +0.0000000000000000e+00 +4.4499999549399858e+00 -2.4656996708893875e-04 +0.0000000000000000e+00 +9.9999996960162518e-01
4.4999999999999920e+00 +8.2844392195396317e+00 +0.0000000000000000e+00 +4.4999999534028960e+00 -2.4934515861170633e-04 +0.0000000000000000e+00 +9.9999996891349541e-01
4.5499999999999918e+00 +8.2844266828987578e+00 +0.0000000000000000e+00 +4.5499999518312064e+00 -2.5212050172291635e-04 +0.0000000000000000e+00 +9.9999996821762571e-01
4.5999999999999917e+00 +8.2844140074869124e+00 +0.0000000000000000e+00 +4.5999999502245297e+00 -2.5489599767623757e-04 +0.0000000000000000e+00 +9.9999996751401454e-01
4.6499999999999915e+00 +8.2844011932964214e+00 +0.0000000000000000e+00 +4.6499999485824786e+00 -2.5767164771083663e-04 +0.0000000000000000e+00 +9.9999996680266034e-01
4.6999999999999913e+00 +8.2843882403195526e+00 +0.0000000000000000e+00 +4.6999999469046667e+00 -2.6044745305137796e-04 +0.0000000000000000e+00 +9.9999996608356145e-01
4.7499999999999911e+00 +8.2843751485485075e+00 +0.0000000000000000e+00 +4.7499999451907060e+00 -2.6322341490802388e-04 +0.0000000000000000e+00 +9.9999996535671620e-01
4.7999999999999909e+00 +8.2843619179754331e+00 +0.0000000000000000e+00 +4.7999999434402092e+00 -2.6599953447643457e-04 +0.0000000000000000e+00 +9.9999996462212304e-01
4.8499999999999908e+00 +8.2843485485924120e+00 +0.0000000000000000e+00 +4.8499999416527890e+00 -2.6877581293776806e-04 +0.0000000000000000e+00 +9.9999996387978041e-01
4.8999999999999906e+00 +8.2843350403914719e+00 +0.0000000000000000e+00 +4.8999999398280583e+00 -2.7155225145868020e-04 +0.0000000000000000e+00 +9.9999996312968653e-01
4.9499999999999904e+00 +8.2843213933645803e+00 +0.0000000000000000e+00 +4.9499999379656288e+00 -2.7432885119132473e-04 +0.0000000000000000e+00 +9.9999996237183986e-01
4.9999999999999902e+00 +8.2843076075036475e+00 +0.0000000000000000e+00 +4.9999999360651133e+00 -2.7710561327335325e-04 +0.0000000000000000e+00 +9.9999996160623872e-01
5.0499999999999901e+00 +8.2842936828005289e+00 +0.0000000000000000e+00 +5.0499999341261237e+00 -2.7988253882791519e-04 +0.0000000000000000e+00 +9.9999996083288134e-01
5.0999999999999899e+00 +8.2842796192470214e+00 +0.0000000000000000e+00 +5.0999999321482719e+00 -2.8265962896365789e-04 +0.0000000000000000e+00 +9.9999996005176617e-01
5.1499999999999897e+00 +8.2842654168348702e+00 +0.0000000000000000e+00 +5.1499999301311705e+00 -2.8543688477472643e-04 +0.0000000000000000e+00 +9.9999995926289142e-01
5.1999999999999895e+00 +8.2842510755557637e+00 +0.0000000000000000e+00 +5.1999999280744316e+00 -2.8821430734076380e-04 +0.0000000000000000e+00 +9.9999995846625556e-01
5.2499999999999893e+00 +8.2842365954013388e+00 +0.0000000000000000e+00 +5.2499999259776668e+00 -2.9099189772691087e-04 +0.0000000000000000e+00 +9.9999995766185668e-01
5.2999999999999892e+00 +8.2842219763631775e+00 +0.0000000000000000e+00 +5.2999999238404882e+00 -2.9376965698380621e-04 +0.0000000000000000e+00 +9.9999995684969323e-01
5.3499999999999890e+00 +8.2842072184328099e+00 +0.0000000000000000e+00 +5.3499999216625067e+00 -2.9654758614758634e-04 +0.0000000000000000e+00 +9.9999995602976344e-01
5.3999999999999888e+00 +8.2841923216017150e+00 +0.0000000000000000e+00 +5.3999999194433350e+00 -2.9932568623988547e-04 +0.0000000000000000e+00 +9.9999995520206564e-01
5.4499999999999886e+00 +8.2841772858613201e+00 +0.0000000000000000e+00 +5.4499999171825841e+00 -3.0210395826783571e-04 +0.0000000000000000e+00 +9.9999995436659805e-01
5.4999999999999885e+00 +8.2841621112030062e+00 +0.0000000000000000e+00 +5.4999999148798651e+00 -3.0488240322406685e-04 +0.0000000000000000e+00 +9.9999995352335891e-01
5.5499999999999883e+00 +8.2841467976180994e+00 +0.0000000000000000e+00 +5.5499999125347905e+00 -3.0766102208670652e-04 +0.0000000000000000e+00 +9.9999995267234654e-01
5.5999999999999881e+00 +8.2841313450978831e+00 +0.0000000000000000e+00 +5.5999999101469706e+00 -3.1043981581938012e-04 +0.0000000000000000e+00 +9.9999995181355916e-01
5.6499999999999879e+00 +8.2841157536335874e+00 +0.0000000000000000e+00 +5.6499999077160172e+00 -3.1321878537121070e-04 +0.0000000000000000e+00 +9.9999995094699501e-01
5.6999999999999877e+00 +8.2841000232163999e+00 +0.0000000000000000e+00 +5.6999999052415404e+00 -3.1599793167681913e-04 +0.0000000000000000e+00 +9.9999995007265230e-01
5.7499999999999876e+00 +8.2840841538374583e+00 +0.0000000000000000e+00 +5.7499999027231521e+00 -3.1877725565632392e-04 +0.0000000000000000e+00 +9.9999994919052926e-01
5.7999999999999874e+00 +8.2840681454878577e+00 +0.0000000000000000e+00 +5.7999999001604632e+00 -3.2155675821534134e-04 +0.0000000000000000e+00 +9.9999994830062422e-01
5.8499999999999872e+00 +8.2840519981586453e+00 +0.0000000000000000e+00 +5.8499998975530847e+00 -3.2433644024498521e-04 +0.0000000000000000e+00 +9.9999994740293530e-01
5.8999999999999870e+00 +8.2840357118408274e+00 +0.0000000000000000e+00 +5.8999998949006267e+00 -3.2711630262186709e-04 +0.0000000000000000e+00 +9.9999994649746071e-01
