# multipoles
# s[mm] polynom_b[n=0][T/m^n] polynom_b[n=1][T/m^n] polynom_b[n=2][T/m^n] polynom_b[n=3][T/m^n] polynom_b[n=4][T/m^n] polynom_b[n=5][T/m^n] polynom_b[n=6][T/m^n] 
+0.0000000000000000e+00 -5.2586552338663728e-01 +6.9312132834401519e+00 +3.5926618492359887e+00 -9.3151732170020779e+01 +1.4484582712033140e+04 +2.8669893389717711e+05 -9.6366813004063591e+07 
+5.0000000000000003e-02 -5.2586238339744806e-01 +6.9311089778945201e+00 +3.5953698394572879e+00 -9.3454403394074603e+01 +1.4454780463717294e+04 +2.8839381437280774e+05 -9.6150994588189825e+07 
+1.0000000000000001e-01 -5.2585956585345905e-01 +6.9310204220043659e+00 +3.5981822954016645e+00 -9.3714229950421583e+01 +1.4417245400223648e+04 +2.8981652143800975e+05 -9.5899322815549240e+07 
+1.5000000000000002e-01 -5.2585707004610083e-01 +6.9309476182928869e+00 +3.6010777586135645e+00 -9.3932314752221103e+01 +1.4372374120167877e+04 +2.9097474840632494e+05 -9.5613750570475951e+07 
+2.0000000000000001e-01 -5.2585489526681239e-01 +6.9308905692796845e+00 +3.6040347691154735e+00 -9.4109760553904437e+01 +1.4320563266835054e+04 +2.9187618735096231e+05 -9.5296231052284867e+07 
+2.5000000000000000e-01 -5.2585304080703898e-01 +6.9308492774896786e+00 +3.6070318658710643e+00 -9.4247670302831963e+01 +1.4262209507479551e+04 +2.9252853192529979e+05 -9.4948717605756760e+07 
+2.9999999999999999e-01 -5.2585150595825103e-01 +6.9308237454435035e+00 +3.6100475895181212e+00 -9.4347146764408450e+01 +1.4197709464213867e+04 +2.9293947435018147e+05 -9.4573163268826663e+07 
+3.4999999999999998e-01 -5.2585029001192651e-01 +6.9308139756627316e+00 +3.6130604796763333e+00 -9.4409292710125371e+01 +1.4127459786514335e+04 +2.9311670688528923e+05 -9.4171521267268553e+07 
+3.9999999999999997e-01 -5.2584939225957106e-01 +6.9308199706704388e+00 +3.6160490782787900e+00 -9.4435210969902329e+01 +1.4051857058726964e+04 +2.9306792233516596e+05 -9.3745744373192385e+07 
+4.4999999999999996e-01 -5.2584881199266964e-01 +6.9308417329878012e+00 +3.6189919210908021e+00 -9.4426004271627761e+01 +1.3971298031275028e+04 +2.9280081267314579e+05 -9.3297786481963456e+07 
+4.9999999999999994e-01 -5.2584854850275342e-01 +6.9308792651390050e+00 +3.6218675491857484e+00 -9.4382775445191086e+01 +1.3886179314579289e+04 +2.9232307071618852e+05 -9.2829600554482222e+07 
+5.4999999999999993e-01 -5.2584860108135678e-01 +6.9309325696469539e+00 +3.6246545026263468e+00 -9.4306627256742885e+01 +1.3796897535789085e+04 +2.9164238880225783e+05 -9.2343139625795901e+07 
+5.9999999999999998e-01 -5.2584896902002254e-01 +6.9310016490350979e+00 +3.6273313195865615e+00 -9.4198662465415794e+01 +1.3703849381018525e+04 +2.9076645918951166e+05 -9.1840357158824876e+07 
+6.5000000000000002e-01 -5.2584965161031549e-01 +6.9310865058250126e+00 +3.6298765399048984e+00 -9.4059983747370083e+01 +1.3607431488214052e+04 +2.8970297351701540e+05 -9.1323206280298725e+07 
+7.0000000000000007e-01 -5.2585064814380755e-01 +6.9311871425442426e+00 +3.6322687020907525e+00 -9.3891693984967233e+01 +1.3508040530230608e+04 +2.8845962505394575e+05 -9.0793640347429693e+07 
+7.5000000000000011e-01 -5.2585195791209538e-01 +6.9313035617141150e+00 +3.6344863467173596e+00 -9.3694895806840904e+01 +1.3406073124469925e+04 +2.8704410507194529e+05 -9.0253612346966654e+07 
+8.0000000000000016e-01 -5.2585358020676709e-01 +6.9314357658618073e+00 +3.6365080107958168e+00 -9.3470692045766782e+01 +1.3301925977147090e+04 +2.8546410647195636e+05 -8.9705075836584806e+07 
+8.5000000000000020e-01 -5.2585551431944533e-01 +6.9315837575113957e+00 +3.6383122338380041e+00 -9.3220185392079131e+01 +1.3195995739797492e+04 +2.8372732099553436e+05 -8.9149984055349633e+07 
+9.0000000000000024e-01 -5.2585775954176028e-01 +6.9317475391918535e+00 +3.6398775551529634e+00 -9.2944478711869010e+01 +1.3088679056775080e+04 +2.8184144182428980e+05 -8.8590290142421708e+07 
+9.5000000000000029e-01 -5.2586031516535725e-01 +6.9319271134271405e+00 +3.6411825142402576e+00 -9.2644674651004863e+01 +1.2980372569959662e+04 +2.7981416034431872e+05 -8.8027947236364678e+07 
+1.0000000000000002e+00 -5.2586318048188641e-01 +6.9321224827494614e+00 +3.6422056481524567e+00 -9.2321876162498540e+01 +1.2871472994427875e+04 +2.7765317042747280e+05 -8.7464908994459599e+07 
+1.0500000000000003e+00 -5.2586635478302302e-01 +6.9323336496822776e+00 +3.6429254971561251e+00 -9.1977185827602966e+01 +1.2762376944784573e+04 +2.7536616291753645e+05 -8.6903128344689772e+07 
+1.1000000000000003e+00 -5.2586983736044812e-01 +6.9325606167597682e+00 +3.6433205989487090e+00 -9.1611706635750366e+01 +1.2653481118244283e+04 +2.7296083196078183e+05 -8.6344558825013921e+07 
+1.1500000000000004e+00 -5.2587362750585731e-01 +6.9328033865100185e+00 +3.6433694919897617e+00 -9.1226541306683799e+01 +1.2545182182627865e+04 +2.7044486949089787e+05 -8.5791153741008684e+07 
+1.2000000000000004e+00 -5.2587772451097070e-01 +6.9330619614649889e+00 +3.6430507166970347e+00 -9.0822792697538773e+01 +1.2437876753493121e+04 +2.6782596855921909e+05 -8.5244866049144566e+07 
+1.2500000000000004e+00 -5.2588212766750175e-01 +6.9333363441583664e+00 +3.6423428095573613e+00 -9.0401563713976799e+01 +1.2331961555384887e+04 +2.6511182259732444e+05 -8.4707649453375697e+07 
+1.3000000000000005e+00 -5.2588683626720367e-01 +6.9336265371223238e+00 +3.6412243115122824e+00 -8.9963957168838576e+01 +1.2227833193984232e+04 +2.6231012423072901e+05 -8.4181456861742496e+07 
+1.3500000000000005e+00 -5.2589184960181834e-01 +6.9339325428910774e+00 +3.6396737599952336e+00 -8.9511075940634001e+01 +1.2125888359853818e+04 +2.5942856661773147e+05 -8.3668241717805833e+07 
+1.4000000000000006e+00 -5.2589716696311228e-01 +6.9342543640025225e+00 +3.6376696930703076e+00 -8.9044023029185709e+01 +1.2026523740059716e+04 +2.5647484386806778e+05 -8.3169957495518625e+07 
+1.4500000000000006e+00 -5.2590278764287868e-01 +6.9345920029927122e+00 +3.6351906520170445e+00 -8.8563901336376034e+01 +1.1930135926643941e+04 +2.5345664927263945e+05 -8.2688556996635720e+07 
+1.5000000000000007e+00 -5.2590871093289293e-01 +6.9349454624002647e+00 +3.6322151722989742e+00 -8.8071813841981637e+01 +1.1837121669404936e+04 +2.5038167671127946e+05 -8.2225994091206491e+07 
+1.5500000000000007e+00 -5.2591493612497797e-01 +6.9353147447655203e+00 +3.6287217952722792e+00 -8.7568863572289303e+01 +1.1747877562127043e+04 +2.4725762042587961e+05 -8.1784221609353155e+07 
+1.6000000000000008e+00 -5.2592146251094862e-01 +6.9356998526291775e+00 +3.6246890587156844e+00 -8.7056153542580489e+01 +1.1662800292045225e+04 +2.4409217452394436e+05 -8.1365193001590386e+07 
+1.6500000000000008e+00 -5.2592828938264524e-01 +6.9361007885350663e+00 +3.6200955021961638e+00 -8.6534786863231034e+01 +1.1582286502516872e+04 +2.4089303383043071e+05 -8.0970861439949423e+07 
+1.7000000000000008e+00 -5.2593541603190952e-01 +6.9365175550253451e+00 +3.6149196635149696e+00 -8.6005866558779303e+01 +1.1506732880810629e+04 +2.3766789245895090e+05 -8.0603180381309301e+07 
+1.7500000000000009e+00 -5.2594284175061479e-01 +6.9369501546475751e+00 +3.6091400831491374e+00 -8.5470495840808823e+01 +1.1436536044985520e+04 +2.3442444598084057e+05 -8.0264102823198006e+07 
+1.8000000000000009e+00 -5.2595056583062849e-01 +6.9373985899492165e+00 +3.6027352986856069e+00 -8.4929777892704436e+01 +1.1372092690508227e+04 +2.3117038970120379e+05 -7.9955582291862130e+07 
+1.8500000000000010e+00 -5.2595858756384561e-01 +6.9378628634779567e+00 +3.5956838500940953e+00 -8.4384815875779168e+01 +1.1313799448930797e+04 +2.2791341868119501e+05 -7.9679571881288856e+07 
+1.9000000000000010e+00 -5.2596690624217690e-01 +6.9383429777861449e+00 +3.5879642774051979e+00 -8.3836713120107120e+01 +1.1262052951310558e+04 +2.2466122933311379e+05 -7.9438024685838565e+07 
+1.9500000000000011e+00 -5.2597552115753266e-01 +6.9388389354262667e+00 +3.5795551183812666e+00 -8.3286572924668647e+01 +1.1217249892500782e+04 +2.2142151772234950e+05 -7.9232894246074200e+07 
+2.0000000000000009e+00 -5.2598443160185093e-01 +6.9393507389512736e+00 +3.5704349138221345e+00 -8.2735498583449470e+01 +1.1179786880210282e+04 +2.1820197985020047e+05 -7.9066133494163901e+07 
+2.0500000000000007e+00 -5.2599363673112998e-01 +6.9398783718962624e+00 +3.5605882713964059e+00 -8.2184432921321516e+01 +1.1149958077519952e+04 +2.1500912896073822e+05 -7.8939193531806409e+07 
+2.1000000000000005e+00 -5.2600313515755881e-01 +6.9404217368382213e+00 +3.5500245901180794e+00 -8.1633731847904258e+01 +1.1127643736720569e+04 +2.1184521418465115e+05 -7.8851487859883159e+07 
+2.1500000000000004e+00 -5.2601292535738398e-01 +6.9409807149045548e+00 +3.5387596063052484e+00 -8.1083619418613779e+01 +1.1112619681218373e+04 +2.0871153893277404e+05 -7.8801913709585190e+07 
+2.2000000000000002e+00 -5.2602300580686190e-01 +6.9415551872196914e+00 +3.5268090560759529e+00 -8.0534319555547910e+01 +1.1104661742280201e+04 +2.0560940551728688e+05 -7.8789368375284612e+07 
+2.2500000000000000e+00 -5.2603337498227276e-01 +6.9421450349080764e+00 +3.5141886773449049e+00 -7.9986056165673901e+01 +1.1103545706236840e+04 +2.0254011611767870e+05 -7.8812748859399959e+07 
+2.2999999999999998e+00 -5.2604403135989264e-01 +6.9427501390951507e+00 +3.5009142062968137e+00 -7.9439053186218388e+01 +1.1109047398939903e+04 +1.9950497317965006e+05 -7.8870952406542882e+07 
+2.3499999999999996e+00 -5.2605497341601437e-01 +6.9433703809068232e+00 +3.4870013796003576e+00 -7.8893534559451794e+01 +1.1120942639804831e+04 +1.9650527919313390e+05 -7.8962876242071226e+07 
+2.3999999999999995e+00 -5.2606619962694245e-01 +6.9440056414683209e+00 +3.4724659346193665e+00 -7.8349724195233790e+01 +1.1139007227047210e+04 +1.9354233641912026e+05 -7.9087417443287820e+07 
+2.4499999999999993e+00 -5.2607770846898361e-01 +6.9446558019056281e+00 +3.4573236072365394e+00 -7.7807846013584111e+01 +1.1163016999902307e+04 +1.9061744717726472e+05 -7.9243473367238358e+07 
+2.4999999999999991e+00 -5.2608949841846031e-01 +6.9453207433469695e+00 +3.4415901344762734e+00 -7.7268124021315614e+01 +1.1192747764776479e+04 +1.8773191452960580e+05 -7.9429941140406415e+07 
+2.5499999999999989e+00 -5.2610156795170815e-01 +6.9460003469162350e+00 +3.4252812539553608e+00 -7.6730782037319756e+01 +1.1227975315319934e+04 +1.8488704001714606e+05 -7.9645717819359720e+07 
+2.5999999999999988e+00 -5.2611391554506026e-01 +6.9466944937420845e+00 +3.4084127013710437e+00 -7.6196044067318127e+01 +1.1268475495409724e+04 +1.8208412672718463e+05 -7.9889700795161650e+07 
+2.6499999999999986e+00 -5.2612653967487633e-01 +6.9474030649483032e+00 +3.3910002151827587e+00 -7.5664133907896584e+01 +1.1314024076089656e+04 +1.7932447605279143e+05 -8.0160786971090809e+07 
+2.6999999999999984e+00 -5.2613943881749758e-01 +6.9481259416632080e+00 +3.3730595293021199e+00 -7.5135275529377481e+01 +1.1364396949003309e+04 +1.7660939081055895e+05 -8.0457874059183076e+07 
+2.7499999999999982e+00 -5.2615261144931635e-01 +6.9488630050125524e+00 +3.3546063852698245e+00 -7.4609692802906892e+01 +1.1419369801050940e+04 +1.7394017308310431e+05 -8.0779858396024227e+07 
+2.7999999999999980e+00 -5.2616605604669120e-01 +6.9496141361243939e+00 +3.3356565164793137e+00 -7.4087609669447787e+01 +1.1478718542892999e+04 +1.7131812547418449e+05 -8.1125637841337800e+07 
+2.8499999999999979e+00 -5.2617977108601743e-01 +6.9503792161220650e+00 +3.3162256620917927e+00 -7.3569249877892560e+01 +1.1542218923546021e+04 +1.6874454907815251e+05 -8.1494109143088654e+07 
+2.8999999999999977e+00 -5.2619375504368526e-01 +6.9511581261326034e+00 +3.2963295583797065e+00 -7.3054837328567189e+01 +1.1609646776230626e+04 +1.6622074626412892e+05 -8.1884169643603891e+07 
+2.9499999999999975e+00 -5.2620800639609355e-01 +6.9519507472824458e+00 +3.2759839418071972e+00 -7.2544595886393637e+01 +1.1680777925964994e+04 +1.6374801913217659e+05 -8.2294716615321442e+07 
+2.9999999999999973e+00 -5.2622252361966348e-01 +6.9527569606961945e+00 +3.2552045519510151e+00 -7.2038749332451360e+01 +1.1755388112587836e+04 +1.6132766909747041e+05 -8.2724646756803721e+07 
+3.0499999999999972e+00 -5.2623730519080203e-01 +6.9535766475011211e+00 +3.2340071236647550e+00 -7.1537521563799089e+01 +1.1833253208279806e+04 +1.5896099860158912e+05 -8.3172857675842464e+07 
+3.0999999999999970e+00 -5.2625234958594047e-01 +6.9544096888189824e+00 +3.2124073952488912e+00 -7.1041136238117204e+01 +1.1914148991085416e+04 +1.5664930811905509e+05 -8.3638246343942612e+07 
+3.1499999999999968e+00 -5.2626765528151276e-01 +6.9552559657781936e+00 +3.1904211042899595e+00 -7.0549817291703263e+01 +1.1997851254160780e+04 +1.5439390047799938e+05 -8.4119709816081613e+07 
+3.1999999999999966e+00 -5.2628322075395828e-01 +6.9561153594996847e+00 +3.1680639875680163e+00 -7.0063788344691261e+01 +1.2084135820022944e+04 +1.5219607591785226e+05 -8.4616145378410354e+07 
+3.2499999999999964e+00 -5.2629904447972498e-01 +6.9569877511083327e+00 +3.1453517824972979e+00 -6.9583273180725342e+01 +1.2172778490459525e+04 +1.5005713607021651e+05 -8.5126450162842929e+07 
+3.2999999999999963e+00 -5.2631512493527366e-01 +6.9578730217286413e+00 +3.1223002277824383e+00 -6.9108495562182000e+01 +1.2263555030117521e+04 +1.4797838241586066e+05 -8.5649521042359650e+07 
+3.3499999999999961e+00 -5.2633146059706826e-01 +6.9587710524820325e+00 +3.0989250608162173e+00 -6.8639679138097591e+01 +1.2356241246236072e+04 +1.4596111559494969e+05 -8.6184255205508977e+07 
+3.3999999999999959e+00 -5.2634804994156748e-01 +6.9596817244905695e+00 +3.0752420174018948e+00 -6.8177047564654202e+01 +1.2450612985033207e+04 +1.4400663627447013e+05 -8.6729550090952635e+07 
+3.4499999999999957e+00 -5.2636489144525567e-01 +6.9606049188764301e+00 +3.0512668367914459e+00 -6.7720824519987531e+01 +1.2546445999731270e+04 +1.4211624541419986e+05 -8.7284302509196252e+07 
+3.4999999999999956e+00 -5.2638198358462540e-01 +6.9615405167600821e+00 +3.0270152582585736e+00 -6.7271233604448895e+01 +1.2643516046506664e+04 +1.4029124333945184e+05 -8.7847409305992603e+07 
+3.5499999999999954e+00 -5.2639932483614360e-01 +6.9624883992634583e+00 +3.0025030160174979e+00 -6.6828498482888904e+01 +1.2741599013286932e+04 +1.3853293096586483e+05 -8.8417768198712617e+07 
+3.5999999999999952e+00 -5.2641691367632426e-01 +6.9634484475046579e+00 +2.9777458509565933e+00 -6.6392842665505853e+01 +1.2840470614151445e+04 +1.3684260798690398e+05 -8.8994275754263878e+07 
+3.6499999999999950e+00 -5.2643474858165096e-01 +6.9644205426010988e+00 +2.9527594980176874e+00 -6.5964489634122700e+01 +1.2939906721621479e+04 +1.3522157390264957e+05 -8.9575829606291458e+07 
+3.6999999999999948e+00 -5.2645282802865490e-01 +6.9654045656740191e+00 +2.9275596994400650e+00 -6.5543663035037468e+01 +1.3039683010778885e+04 +1.3367112963224674e+05 -9.0161326048864976e+07 
+3.7499999999999947e+00 -5.2647115049383386e-01 +6.9664003978383251e+00 +2.9021621904896810e+00 -6.5130586262897197e+01 +1.3139575347820726e+04 +1.3219257409066439e+05 -9.0749662681402981e+07 
+3.7999999999999945e+00 -5.2648971445370341e-01 +6.9674079202124863e+00 +2.8765827091728413e+00 -6.4725482846703727e+01 +1.3239359521814471e+04 +1.3078720728861132e+05 -9.1339736571792498e+07 
+3.8499999999999943e+00 -5.2650851838479740e-01 +6.9684270139094009e+00 +2.8508369950442116e+00 -6.4328576115101427e+01 +1.3338811286507722e+04 +1.2945632774568573e+05 -9.1930444573109835e+07 
+3.8999999999999941e+00 -5.2652756076363083e-01 +6.9694575600454955e+00 +2.8249407843000318e+00 -6.3940089529115809e+01 +1.3437706480306992e+04 +1.2820123504165690e+05 -9.2520684088428155e+07 
+3.9499999999999940e+00 -5.2654684006675545e-01 +6.9704994397330529e+00 +2.7989098184963948e+00 -6.3560246397984855e+01 +1.3535820799454174e+04 +1.2702322762721477e+05 -9.3109351571633846e+07 
+3.9999999999999938e+00 -5.2656635477069735e-01 +6.9715525340856326e+00 +2.7727598334506851e+00 -6.3189270073321637e+01 +1.3632930101017284e+04 +1.2592360432094587e+05 -9.3695344581672519e+07 
+4.0499999999999936e+00 -5.2658610325167199e-01 +6.9726167218933783e+00 +2.7465056719890448e+00 -6.2827355602564786e+01 +1.3728823447825635e+04 +1.2490332568157287e+05 -9.4277589836533651e+07 
+4.0999999999999934e+00 -5.2660608348462901e-01 +6.9736918674573722e+00 +2.7201587598495283e+00 -6.2474550081336048e+01 +1.3823341112007565e+04 +1.2396154960009214e+05 -9.4855110537650436e+07 
+4.1499999999999932e+00 -5.2662629334419819e-01 +6.9747778301435392e+00 +2.6937297245466283e+00 -6.2130854696297760e+01 +1.3916335634360477e+04 +1.2309686231285322e+05 -9.5426947322313100e+07 
+4.1999999999999931e+00 -5.2664673070503532e-01 +6.9758744693162278e+00 +2.6672291981204501e+00 -6.1796270577710466e+01 +1.4007659435039268e+04 +1.2230784952539532e+05 -9.5992140012627169e+07 
+4.2499999999999929e+00 -5.2666739344175950e-01 +6.9769816443443382e+00 +2.6406678052936075e+00 -6.1470799051734971e+01 +1.4097165132727167e+04 +1.2159309857264662e+05 -9.6549729771918863e+07 
+4.2999999999999927e+00 -5.2668827942903551e-01 +6.9780992145886325e+00 +2.6140561785947898e+00 -6.1154441114283564e+01 +1.4184705135010698e+04 +1.2095119406192690e+05 -9.7098756333006442e+07 
+4.3499999999999925e+00 -5.2670938654150301e-01 +6.9792270394149885e+00 +2.5874049458336943e+00 -6.0847197971422233e+01 +1.4270131975725157e+04 +1.2038072229931614e+05 -9.7638260273811698e+07 
+4.3999999999999924e+00 -5.2673071265381044e-01 +6.9803649781853290e+00 +2.5607247354497731e+00 -6.0549070686677688e+01 +1.4353298178347230e+04 +1.1988026847207350e+05 -9.8167282125271648e+07 
+4.4499999999999922e+00 -5.2675225564060513e-01 +6.9815128902640087e+00 +2.5340261761075848e+00 -6.0260060417648731e+01 +1.4434056252606797e+04 +1.1944841848203271e+05 -9.8684862291915327e+07 
+4.4999999999999920e+00 -5.2677401337654794e-01 +6.9826706350108942e+00 +2.5073198978717044e+00 -5.9980168154194374e+01 +1.4512258677215626e+04 +1.1908375688359742e+05 -9.9190040991764337e+07 
+4.5499999999999918e+00 -5.2679598373630376e-01 +6.9838380717864732e+00 +2.4806165318427125e+00 -5.9709394910498979e+01 +1.4587757899876045e+04 +1.1878486839563325e+05 -9.9681858219300002e+07 
+4.5999999999999917e+00 -5.2681816459451780e-01 +6.9850150599522793e+00 +2.4539267049876572e+00 -5.9447741768293227e+01 +1.4660406481220345e+04 +1.1855033834509128e+05 -1.0015935473133986e+08 
+4.6499999999999915e+00 -5.2684055382585215e-01 +6.9862014588663763e+00 +2.4272610472501670e+00 -5.9195209659990667e+01 +1.4730056902246040e+04 +1.1837875076095304e+05 -1.0062157074770178e+08 
+4.6999999999999913e+00 -5.2686314930495959e-01 +6.9873971278885936e+00 +2.4006301866002642e+00 -5.8951799604819342e+01 +1.4796561699454760e+04 +1.1826869040631555e+05 -1.0106754686662501e+08 
+4.7499999999999911e+00 -5.2688594890651430e-01 +6.9886019263738355e+00 +2.3740447551446411e+00 -5.8717512439132321e+01 +1.4859773293225388e+04 +1.1821874056580564e+05 -1.0149632288299350e+08 
+4.7999999999999909e+00 -5.2690895050516728e-01 +6.9898157136818702e+00 +2.3475153801100994e+00 -5.8492349190371229e+01 +1.4919544241610913e+04 +1.1822748601401952e+05 -1.0190693953685802e+08 
+4.8499999999999908e+00 -5.2693215197559162e-01 +6.9910383491652262e+00 +2.3210526930525015e+00 -5.8276310616149907e+01 +1.4975726983834573e+04 +1.1829350937008852e+05 -1.0229843675809334e+08 
+4.8999999999999906e+00 -5.2695555119243642e-01 +6.9922696921804990e+00 +2.2946673211777160e+00 -5.8069397645879356e+01 +1.5028174076318573e+04 +1.1841539462702484e+05 -1.0266985525987133e+08 
+4.9499999999999904e+00 -5.2697914603037144e-01 +6.9935096020813958e+00 +2.2683698952795335e+00 -5.7871611103927627e+01 +1.5076737980765380e+04 +1.1859172491396418e+05 -1.0302023512107241e+08 
+4.9999999999999902e+00 -5.2700293436406087e-01 +6.9947579382188643e+00 +2.2421710450586456e+00 -5.7682951713675671e+01 +1.5121271189914645e+04 +1.1882108252344823e+05 -1.0334861663128696e+08 
+5.0499999999999901e+00 -5.2702691406816038e-01 +6.9960145599473744e+00 +2.2160813993653190e+00 -5.7503420353085446e+01 +1.5161626214457661e+04 +1.1910205099915646e+05 -1.0365404017767647e+08 
