# multipoles
# s[mm] polynom_b[n=0][T/m^n] polynom_b[n=1][T/m^n] polynom_b[n=2][T/m^n] polynom_b[n=3][T/m^n] polynom_b[n=4][T/m^n] polynom_b[n=5][T/m^n] polynom_b[n=6][T/m^n] 
+0.0000000000000000e+00 -5.5213654229481302e-01 +7.2198346232373840e+00 +5.8987025017064454e+00 +4.4063789782047692e+01 -1.2262897675093656e+04 -5.4402875638403173e+05 +6.9878606655906826e+07 
-5.0000000000000003e-02 -5.5214052177527451e-01 +7.2199950042161154e+00 +5.8947602224742086e+00 +4.3419780267553833e+01 -1.2251804994719250e+04 -5.3877518053907168e+05 +6.9838677142387033e+07 
-1.0000000000000001e-01 -5.5214488671448148e-01 +7.2201756155934911e+00 +5.8903434461636284e+00 +4.2792727307509452e+01 -1.2240098787022765e+04 -5.3359508793602535e+05 +6.9791721206797525e+07 
-1.5000000000000002e-01 -5.5214963603145528e-01 +7.2203763557959348e+00 +5.8854524379442594e+00 +4.2184023488574404e+01 -1.2227725888382778e+04 -5.2849988137302618e+05 +6.9737501908249840e+07 
-2.0000000000000001e-01 -5.5215476864523361e-01 +7.2205971232486217e+00 +5.8800874628900024e+00 +4.1595061494189011e+01 -1.2214633134589350e+04 -5.2350096452044620e+05 +6.9675782306831524e+07 
-2.5000000000000000e-01 -5.5216028347487489e-01 +7.2208378163762612e+00 +5.8742487865839266e+00 +4.1027234045313463e+01 -1.2200767373732095e+04 -5.1860974129450746e+05 +6.9606325539312616e+07 
-2.9999999999999999e-01 -5.5216617943945845e-01 +7.2210983336047638e+00 +5.8679366751688340e+00 +4.0481933847695231e+01 -1.2186075472471719e+04 -5.1383761551268294e+05 +6.9528894882498056e+07 
-3.4999999999999998e-01 -5.5217245545805416e-01 +7.2213785733597868e+00 +5.8611513905285024e+00 +3.9960553633491337e+01 -1.2170504184455682e+04 -5.0919599114694813e+05 +6.9443252853497818e+07 
-3.9999999999999997e-01 -5.5217911044978485e-01 +7.2216784340710101e+00 +5.8538932004268363e+00 +3.9464486013510026e+01 -1.2154000422007897e+04 -5.0469627123274200e+05 +6.9349163043872759e+07 
-4.4999999999999996e-01 -5.5218614333377170e-01 +7.2219978141638101e+00 +5.8461623691520019e+00 +3.8995123780587925e+01 -1.2136510999733200e+04 -5.0034986020824069e+05 +6.9246388367723107e+07 
-4.9999999999999994e-01 -5.5219355302915274e-01 +7.2223366120680916e+00 +5.8379591613801196e+00 +3.8553859594000699e+01 -1.2117982749231083e+04 -4.9616816151313152e+05 +6.9134691879931420e+07 
-5.4999999999999993e-01 -5.5220133845508423e-01 +7.2226947262155630e+00 +5.8292838416543686e+00 +3.8142086045584591e+01 -1.2098362496923924e+04 -4.9216257793514611e+05 +6.9013836593355328e+07 
-5.9999999999999998e-01 -5.5220949853072987e-01 +7.2230720550318797e+00 +5.8201366731763606e+00 +3.7761196006876908e+01 -1.2077597035590856e+04 -4.8834451459368132e+05 +6.8883585304735497e+07 
-6.5000000000000002e-01 -5.5221803217528931e-01 +7.2234684969521314e+00 +5.8105179223266541e+00 +3.7412581989869160e+01 -1.2055633244352690e+04 -4.8472537364202691e+05 +6.8743701397130683e+07 
-7.0000000000000007e-01 -5.5222693830794978e-01 +7.2238839504043870e+00 +5.8004278506138114e+00 +3.7097636817683373e+01 -1.2032417872660517e+04 -4.8131655977380823e+05 +6.8593947381914407e+07 
-7.5000000000000011e-01 -5.5223621584794447e-01 +7.2243183138229838e+00 +5.7898667244545026e+00 +3.6817753086123723e+01 -1.2007897801292329e+04 -4.7812947583962244e+05 +6.8434086656185269e+07 
-8.0000000000000016e-01 -5.5224586371449580e-01 +7.2247714856391774e+00 +5.7788348054921785e+00 +3.6574323536519934e+01 -1.1982019785111232e+04 -4.7517552585232188e+05 +6.8263881779578879e+07 
-8.5000000000000020e-01 -5.5225588082685351e-01 +7.2252433642877305e+00 +5.7673323576349542e+00 +3.6368740797030043e+01 -1.1954730642315260e+04 -4.7246611291461944e+05 +6.8083095745518848e+07 
-9.0000000000000024e-01 -5.5226626610429541e-01 +7.2257338482021360e+00 +5.7553596466374568e+00 +3.6202397560550175e+01 -1.1925977242134388e+04 -4.7001264062104427e+05 +6.7891491902539954e+07 
-9.5000000000000029e-01 -5.5227701846608668e-01 +7.2262428358173212e+00 +5.7429169330491829e+00 +3.6076686503674040e+01 -1.1895706311088088e+04 -4.6782651249180501e+05 +6.7688832622268140e+07 
-1.0000000000000002e+00 -5.5228813683152711e-01 +7.2267702255679103e+00 +5.7300044809365618e+00 +3.5993000315341618e+01 -1.1863864678473135e+04 -4.6591913205359690e+05 +6.7474881009262353e+07 
-1.0500000000000003e+00 -5.5229962011992151e-01 +7.2273159158910332e+00 +5.7166225525719980e+00 +3.5952731631689545e+01 -1.1830399120619579e+04 -4.6430190251748392e+05 +6.7249399784789816e+07 
-1.1000000000000003e+00 -5.5231146725058977e-01 +7.2278798052234947e+00 +5.7027714096843036e+00 +3.5957273101249228e+01 -1.1795256402898482e+04 -4.6298622708115209e+05 +6.7012151620089911e+07 
-1.1500000000000004e+00 -5.5232367714287722e-01 +7.2284617920006342e+00 +5.6884513160194592e+00 +3.6008017475360965e+01 -1.1758383348719681e+04 -4.6198350987736916e+05 +6.6762899592106283e+07 
-1.2000000000000004e+00 -5.5233624871612907e-01 +7.2290617746651851e+00 +5.6736625326391419e+00 +3.6106357211560244e+01 -1.1719726708505181e+04 -4.6130515257577488e+05 +6.6501406282082036e+07 
-1.2500000000000004e+00 -5.5234918088970597e-01 +7.2296796516507298e+00 +5.6584053203059250e+00 +3.6253685166358409e+01 -1.1679233226595610e+04 -4.6096256012003118e+05 +6.6227434242833026e+07 
-1.3000000000000005e+00 -5.5236247258299331e-01 +7.2303153214002656e+00 +5.6426799416090665e+00 +3.6451393839625361e+01 -1.1636849698754237e+04 -4.6096713456422684e+05 +6.5940746383429706e+07 
-1.3500000000000005e+00 -5.5237612271538494e-01 +7.2309686823520192e+00 +5.6264866578071722e+00 +3.6700875938393125e+01 -1.1592522885638991e+04 -4.6133027962110960e+05 +6.5641105382125020e+07 
-1.4000000000000006e+00 -5.5239013020628092e-01 +7.2316396329485144e+00 +5.6098257290489828e+00 +3.7003524028152164e+01 -1.1546199523168774e+04 -4.6206339789741510e+05 +6.5328273771468304e+07 
-1.4500000000000006e+00 -5.5240449397511404e-01 +7.2323280716282765e+00 +5.5926974176745734e+00 +3.7360730846217763e+01 -1.1497826401636443e+04 -4.6317789336216706e+05 +6.5002014437908255e+07 
-1.5000000000000007e+00 -5.5241921294129193e-01 +7.2330338968365178e+00 +5.5751019798571262e+00 +3.7773888887376103e+01 -1.1447350153695108e+04 -4.6468516804177954e+05 +6.4662089236738332e+07 
-1.5500000000000007e+00 -5.5243428602428024e-01 +7.2337570070137671e+00 +5.5570396790413250e+00 +3.8244390846521497e+01 -1.1394717607669067e+04 -4.6659662555642106e+05 +6.4308261348289296e+07 
-1.6000000000000008e+00 -5.5244971214353134e-01 +7.2344973006040876e+00 +5.5385107735013044e+00 +3.8773629310301786e+01 -1.1339875453402939e+04 -4.6892366870919219e+05 +6.3940293024196945e+07 
-1.6500000000000008e+00 -5.5246549021851377e-01 +7.2352546760513832e+00 +5.5195155222425960e+00 +3.9362996873592493e+01 -1.1282770403629131e+04 -4.7167770030889887e+05 +6.3557946684045002e+07 
-1.7000000000000008e+00 -5.5248161916871574e-01 +7.2360290317995899e+00 +5.5000541845684889e+00 +4.0013886168471458e+01 -1.1223349179766939e+04 -4.7487012354098685e+05 +6.3160984815879650e+07 
-1.7500000000000009e+00 -5.5249809791362758e-01 +7.2368202662958723e+00 +5.4801270183724480e+00 +4.0727689697850217e+01 -1.1161558472365155e+04 -4.7851234047979373e+05 +6.2749169727631718e+07 
-1.8000000000000009e+00 -5.5251492537276492e-01 +7.2376282779858627e+00 +5.4597342827278359e+00 +4.1505800062449786e+01 -1.1097344996912874e+04 -4.8261575407229637e+05 +6.2322263871825323e+07 
-1.8500000000000010e+00 -5.5253210046564383e-01 +7.2384529653133169e+00 +5.4388762346348321e+00 +4.2349609944920516e+01 -1.1030655423546163e+04 -4.8719176788995892e+05 +6.1880029443326630e+07 
-1.9000000000000010e+00 -5.5254962211179726e-01 +7.2392942267288189e+00 +5.4175531317910846e+00 +4.3260511769310106e+01 -1.0961436441102067e+04 -4.9225178339294565e+05 +6.1422228762676209e+07 
-1.9500000000000011e+00 -5.5256748923076471e-01 +7.2401519606780669e+00 +5.3957652301673180e+00 +4.4239898184783158e+01 -1.0889634693701841e+04 -4.9780720394241752e+05 +6.0948623863123044e+07 
-2.0000000000000009e+00 -5.5258570074211366e-01 +7.2410260656107299e+00 +5.3735127882744136e+00 +4.5289161694078231e+01 -1.0815196894758874e+04 -5.0386943168390013e+05 +6.0458977252068616e+07 
-2.0500000000000007e+00 -5.5260425536705182e-01 +7.2419164439463328e+00 +5.3507975490994708e+00 +4.6408885024714927e+01 -1.0738096997426315e+04 -5.1044370465849916e+05 +5.9953202830620140e+07 
-2.1000000000000005e+00 -5.5262315103435811e-01 +7.2428230083764484e+00 +5.3276273148525739e+00 +4.7596400931820583e+01 -1.0658402272886873e+04 -5.1751054292671056e+05 +5.9431697362263404e+07 
-2.1500000000000004e+00 -5.5264238547494593e-01 +7.2437456727875693e+00 +5.3040114375705354e+00 +4.8848224756860212e+01 -1.0576199274979952e+04 -5.2504426026264008e+05 +5.8894946785687849e+07 
-2.2000000000000002e+00 -5.5266195641972082e-01 +7.2446843510649765e+00 +5.2799592650814882e+00 +5.0160871906868991e+01 -1.0491574433997264e+04 -5.3301917101373372e+05 +5.8343436165151887e+07 
-2.2500000000000000e+00 -5.5268186159962318e-01 +7.2456389570925532e+00 +5.2554801501012989e+00 +5.1530857860541204e+01 -1.0404614320191373e+04 -5.4140959013878927e+05 +5.7777651543564327e+07 
-2.2999999999999998e+00 -5.5270209874557585e-01 +7.2466094047570273e+00 +5.2305834398503093e+00 +5.2954697989568977e+01 -1.0315405347803724e+04 -5.5018983169136744e+05 +5.7198077874306239e+07 
-2.3499999999999996e+00 -5.5272266558853422e-01 +7.2475956079414736e+00 +5.2052784855947687e+00 +5.4428907823228919e+01 -1.0224034042964697e+04 -5.5933421101214353e+05 +5.6605200878897652e+07 
-2.3999999999999995e+00 -5.5274355985946977e-01 +7.2485974805342872e+00 +5.1795746396945397e+00 +5.5950002680753329e+01 -1.0130586960112563e+04 -5.6881704169749503e+05 +5.5999506460983001e+07 
-2.4499999999999993e+00 -5.5276477928936119e-01 +7.2496149364200182e+00 +5.1534812536812815e+00 +5.7514498052043344e+01 -1.0035150627278734e+04 -5.7861263875783433e+05 +5.5381480328280456e+07 
-2.4999999999999991e+00 -5.5278632160917918e-01 +7.2506478894859452e+00 +5.1270076761288292e+00 +5.9118909318972555e+01 -9.9378114937853079e+03 -5.8869531629627640e+05 +5.4751607658686966e+07 
-2.5499999999999989e+00 -5.5280818454993719e-01 +7.2516962536168013e+00 +5.1001632610941687e+00 +6.0759751978566257e+01 -9.8386561523050768e+03 -5.9903938935916428e+05 +5.4110374578871690e+07 
-2.5999999999999988e+00 -5.5283036584264678e-01 +7.2527599426985638e+00 +5.0729573606890703e+00 +6.2433541482423486e+01 -9.7377711407529332e+03 -6.0961917260883830e+05 +5.3458266832010657e+07 
-2.6499999999999986e+00 -5.5285286321831650e-01 +7.2538388706201662e+00 +5.0453993253204068e+00 +6.4136793162048690e+01 -9.6352429549976769e+03 -6.2040897967879241e+05 +5.2795769890390985e+07 
-2.6999999999999984e+00 -5.5287567440798624e-01 +7.2549329512663867e+00 +5.0174985086598012e+00 +6.5866022536677562e+01 -9.5311581710714599e+03 -6.3138312580220157e+05 +5.2123369734659396e+07 
-2.7499999999999982e+00 -5.5289879714270651e-01 +7.2560420985239773e+00 +4.9892642647895329e+00 +6.7617745032858338e+01 -9.4256033735589335e+03 -6.4251592535154917e+05 +5.1441552387976840e+07 
-2.7999999999999980e+00 -5.5292222915352740e-01 +7.2571662262792325e+00 +4.9607059462150254e+00 +6.9388476119377074e+01 -9.3186651040624183e+03 -6.5378169312349951e+05 +5.0750803580378495e+07 
-2.8499999999999979e+00 -5.5294596817150432e-01 +7.2583052484205357e+00 +4.9318329052098262e+00 +7.1174731164239176e+01 -9.2104298979921532e+03 -6.6515474299285735e+05 +5.0051608994312592e+07 
-2.8999999999999977e+00 -5.5297001192773343e-01 +7.2594590788333999e+00 +4.9026544989970962e+00 +7.2973025677676844e+01 -9.1009844131979680e+03 -6.7660939008239063e+05 +4.9344455092529908e+07 
-2.9499999999999975e+00 -5.5299435815328801e-01 +7.2606276314042555e+00 +4.8731800799994920e+00 +7.4779875115613038e+01 -8.9904151838987345e+03 -6.8811994897078944e+05 +4.8629827522730470e+07 
-2.9999999999999973e+00 -5.5301900457927655e-01 +7.2618108200200702e+00 +4.8434190054498716e+00 +7.6591794921811086e+01 -8.8788088691386965e+03 -6.9966073415327177e+05 +4.7908212749769218e+07 
-3.0499999999999972e+00 -5.5304394893680697e-01 +7.2630085585665505e+00 +4.8133806304161180e+00 +7.8405300591565435e+01 -8.7662520601217966e+03 -7.1120606054044690e+05 +4.7180096741394415e+07 
-3.0999999999999970e+00 -5.5306918895698864e-01 +7.2642207609324716e+00 +4.7830743094753139e+00 +8.0216907499999635e+01 -8.6528313380120526e+03 -7.2273024204553373e+05 +4.6445965404292151e+07 
-3.1499999999999968e+00 -5.5309472237096557e-01 +7.2654473410027025e+00 +4.7525094020386671e+00 +8.2023131175833598e+01 -8.5386334089849079e+03 -7.3420759381427791e+05 +4.5706305462072402e+07 
-3.1999999999999966e+00 -5.5312054690987567e-01 +7.2666882126631949e+00 +4.7216952652177877e+00 +8.3820487107402428e+01 -8.4237449143842114e+03 -7.4561243065347977e+05 +4.4961603184963487e+07 
-3.2499999999999964e+00 -5.5314666030486470e-01 +7.2679432898002778e+00 +4.6906412558971500e+00 +8.5605490766909696e+01 -8.3082524843402116e+03 -7.5691906722525787e+05 +4.4212344745041728e+07 
-3.2999999999999963e+00 -5.5317306028709901e-01 +7.2692124862998311e+00 +4.6593567337661250e+00 +8.7374657638738498e+01 -8.1922428201311377e+03 -7.6810181826692401e+05 +4.3459016768783309e+07 
-3.3499999999999961e+00 -5.5319974458774734e-01 +7.2704957160497399e+00 +4.6278510576513385e+00 +8.9124503122514682e+01 -8.0758025979129279e+03 -7.7913499778331420e+05 +4.2702105701727979e+07 
-3.3999999999999959e+00 -5.5322671093800080e-01 +7.2717928929327842e+00 +4.5961335893685877e+00 +9.0851542837920945e+01 -7.9590185680453023e+03 -7.8999292164265015e+05 +4.1942098457393251e+07 
-3.4499999999999957e+00 -5.5325395706903568e-01 +7.2731039308358003e+00 +4.5642136869576442e+00 +9.2552292218020469e+01 -7.8419773770283646e+03 -8.0064990407993621e+05 +4.1179481237363137e+07 
-3.4999999999999956e+00 -5.5328148071205863e-01 +7.2744287436424830e+00 +4.5321007129003226e+00 +9.4223266821135184e+01 -7.7247657844176829e+03 -8.1108026035358768e+05 +4.0414740970047303e+07 
-3.5499999999999954e+00 -5.5330927959829113e-01 +7.2757672452398099e+00 +4.4998040311251479e+00 +9.5860982079270826e+01 -7.6074705852163615e+03 -8.2125830470979423e+05 +3.9648364806890368e+07 
-3.5999999999999952e+00 -5.5333735145893670e-01 +7.2771193495104365e+00 +4.4673330017020110e+00 +9.7461953591168182e+01 -7.4901784659595160e+03 -8.3115835273184301e+05 +3.8880839139610909e+07 
-3.6499999999999950e+00 -5.5336569402523939e-01 +7.2784849703387966e+00 +4.4346969908898357e+00 +9.9022696869839493e+01 -7.3729762762653409e+03 -8.4075471924613486e+05 +3.8112651442017682e+07 
-3.6999999999999948e+00 -5.5339430502844000e-01 +7.2798640216092290e+00 +4.4019053632838672e+00 +1.0053972743531666e+02 -7.2559508120669625e+03 -8.5002171915804583e+05 +3.7344288782868765e+07 
-3.7499999999999947e+00 -5.5342318219977349e-01 +7.2812564172059266e+00 +4.3689674817893085e+00 +1.0200956079567096e+02 -7.1391888206918902e+03 -8.5893366720752977e+05 +3.6576237882964097e+07 
-3.7999999999999945e+00 -5.5345232327051341e-01 +7.2826620710114263e+00 +4.3358927156238671e+00 +1.0342871253461897e+02 -7.0227772166409923e+03 -8.6746487880130950e+05 +3.5808986573556378e+07 
-3.8499999999999943e+00 -5.5348172597191714e-01 +7.2840808969074864e+00 +4.3026904299989708e+00 +1.0479369824315623e+02 -6.9068027989200937e+03 -8.7558966931829962e+05 +3.5043021869306907e+07 
-3.8999999999999941e+00 -5.5351138803526645e-01 +7.2855128087782752e+00 +4.2693699935141627e+00 +1.0610103341628174e+02 -6.7913524478600402e+03 -8.8328235336656787e+05 +3.4278831287014812e+07 
-3.9499999999999940e+00 -5.5354130719184991e-01 +7.2869577205039500e+00 +4.2359407758842504e+00 +1.0734723369755130e+02 -6.6765130747853427e+03 -8.9051724674082245e+05 +3.3516902547758132e+07 
-3.9999999999999938e+00 -5.5357148117296129e-01 +7.2884155459683324e+00 +4.2024121473010032e+00 +1.0852881457710346e+02 -6.5623715993358192e+03 -8.9726866392957373e+05 +3.2757723407400757e+07 
-4.0499999999999936e+00 -5.5360190759790673e-01 +7.2898861796478114e+00 +4.1687924686416800e+00 +1.0964303026700723e+02 -6.4490072240176205e+03 -9.0351663163579057e+05 +3.2001768265694343e+07 
-4.0999999999999934e+00 -5.5363258363640755e-01 +7.2913694323573841e+00 +4.1350868129626486e+00 +1.1069014513730077e+02 -6.3364986735806569e+03 -9.0926437950776925e+05 +3.1249699358227547e+07 
-4.1499999999999932e+00 -5.5366350634533801e-01 +7.2928650924020797e+00 +4.1012996294715860e+00 +1.1167119395113400e+02 -6.2249320839990933e+03 -9.1452106197360507e+05 +3.0502285648442179e+07 
-4.1999999999999931e+00 -5.5369467278159046e-01 +7.2943729480924846e+00 +4.0674353706335191e+00 +1.1258721128628532e+02 -6.1143936760760989e+03 -9.1929583216257498e+05 +2.9760296663932238e+07 
-4.2499999999999929e+00 -5.5372608000206325e-01 +7.2958927877305380e+00 +4.0334984896784940e+00 +1.1343923205292350e+02 -6.0049696920382248e+03 -9.2359784589843871e+05 +2.9024502085031386e+07 
-4.2999999999999927e+00 -5.5375772506364107e-01 +7.2974243996261272e+00 +3.9994934374346505e+00 +1.1422829085096313e+02 -5.8967463106604264e+03 -9.2743625652793399e+05 +2.8295671172734585e+07 
-4.3499999999999925e+00 -5.5378960502322572e-01 +7.2989675720840488e+00 +3.9654246676966012e+00 +1.1495542250030567e+02 -5.7898097877208893e+03 -9.3082021929015848e+05 +2.7574573696856968e+07 
-4.3999999999999924e+00 -5.5382171693769899e-01 +7.3005220934113293e+00 +3.9312966303766346e+00 +1.1562166172685201e+02 -5.6842462731745409e+03 -9.3375888867982861e+05 +2.6861978713926435e+07 
-4.4499999999999922e+00 -5.5385405786395181e-01 +7.3020877519139535e+00 +3.8971137776792397e+00 +1.1622804330984950e+02 -5.5801419809322206e+03 -9.3626141970801947e+05 +2.6158655720621847e+07 
-4.4999999999999920e+00 -5.5388662485888651e-01 +7.3036643358991000e+00 +3.8628805633087677e+00 +1.1677560197397496e+02 -5.4775831612335396e+03 -9.3833696694933996e+05 +2.5465374448941644e+07 
-4.5499999999999918e+00 -5.5391941497938357e-01 +7.3052516336713014e+00 +3.8286014377344801e+00 +1.1726537258288734e+02 -5.3766559822455201e+03 -9.3999468628971931e+05 +2.4782904100654468e+07 
-4.5999999999999917e+00 -5.5395242528233712e-01 +7.3068494335373231e+00 +3.7942808537005113e+00 +1.1769838988723303e+02 -5.2774466683455830e+03 -9.4124373263955489e+05 +2.4112014239056859e+07 
-4.6499999999999915e+00 -5.5398565282462442e-01 +7.3084575238055924e+00 +3.7599232613400364e+00 +1.1807568858989232e+02 -5.1800413742956798e+03 -9.4209326064032468e+05 +2.3453473965863761e+07 
-4.6999999999999913e+00 -5.5401909466315036e-01 +7.3100756927791615e+00 +3.7255331159186920e+00 +1.1839830361680978e+02 -5.0845263942415913e+03 -9.4255242683121306e+05 +2.2808053331535537e+07 
-4.7499999999999911e+00 -5.5405274785477920e-01 +7.3117037287628763e+00 +3.6911148657464286e+00 +1.1866726982908952e+02 -4.9909878319804102e+03 -9.4263038730180508e+05 +2.2176521093924854e+07 
-4.7999999999999909e+00 -5.5408660945640387e-01 +7.3133414200649920e+00 +3.6566729648745180e+00 +1.1888362194733753e+02 -4.8995119496713151e+03 -9.4233629703028419e+05 +2.1559647099442963e+07 
-4.8499999999999908e+00 -5.5412067652489361e-01 +7.3149885549902685e+00 +3.6222118632609712e+00 +1.1904839483745617e+02 -4.8101848945085294e+03 -9.4167931225145387e+05 +2.0958200404050134e+07 
-4.8999999999999906e+00 -5.5415494611712235e-01 +7.3166449218460929e+00 +3.5877360123861406e+00 +1.1916262327414155e+02 -4.7230928583931836e+03 -9.4066858857780288e+05 +2.0372950384586703e+07 
-4.9499999999999904e+00 -5.5418941528997356e-01 +7.3183103089341985e+00 +3.5532498658597400e+00 +1.1922734226327731e+02 -4.6383220882927544e+03 -9.3931328356827563e+05 +1.9804666786255285e+07 
-4.9999999999999902e+00 -5.5422408110030319e-01 +7.3199845045614085e+00 +3.5187578731106548e+00 +1.1924358660551501e+02 -4.5559587194141723e+03 -9.3762255317694263e+05 +1.9254118606875289e+07 
-5.0499999999999901e+00 -5.5425894060497616e-01 +7.3216672970339829e+00 +3.4842644855115443e+00 +1.1921239112961473e+02 -4.4760889387842881e+03 -9.3560555366135854e+05 +1.8722075198756889e+07 
