# field on trajectory
# s[mm] rx[mm] ry[mm] rz[mm] bx[T] by[T] bz[T]
0.0000000000000000e+00 +8.5269999999999904e+00 +0.0000000000000000e+00 +0.0000000000000000e+00 -2.7113355022417754e-02 -5.2396300722504063e-01 +4.9136345959949158e-03
5.0000000000000003e-02 +8.5269999309457507e+00 +0.0000000000000000e+00 +4.9999999999936401e-02 -2.7113758043943389e-02 -5.2396282146624884e-01 +4.9118583444046722e-03
1.0000000000000001e-01 +8.5269997237883199e+00 +0.0000000000000000e+00 +9.9999999999491399e-02 -2.7114182202788641e-02 -5.2396297395595670e-01 +4.9100877549267518e-03
1.4999999999999999e-01 +8.5269993785295792e+00 +0.0000000000000000e+00 +1.4999999999828301e-01 -2.7114627418876203e-02 -5.2396346405025374e-01 +4.9083229265185777e-03
2.0000000000000001e-01 +8.5269988951622508e+00 +0.0000000000000000e+00 +1.9999999999593099e-01 -2.7115093612133066e-02 -5.2396429110530862e-01 +4.9065639581384922e-03
2.5000000000000000e-01 +8.5269982736936107e+00 +0.0000000000000000e+00 +2.4999999999205300e-01 -2.7115580702481729e-02 -5.2396545447720377e-01 +4.9048109487443052e-03
2.9999999999999999e-01 +8.5269975141200103e+00 +0.0000000000000000e+00 +2.9999999998626797e-01 -2.7116088609849657e-02 -5.2396695352211320e-01 +4.9030639972948561e-03
3.4999999999999998e-01 +8.5269966164378292e+00 +0.0000000000000000e+00 +3.4999999997819298e-01 -2.7116617254165136e-02 -5.2396878759622512e-01 +4.9013232027493251e-03
4.0000000000000002e-01 +8.5269955806543294e+00 +0.0000000000000000e+00 +3.9999999996744900e-01 -2.7117166555353352e-02 -5.2397095605566857e-01 +4.8995886640665707e-03
4.5000000000000001e-01 +8.5269944067658798e+00 +0.0000000000000000e+00 +4.4999999995365297e-01 -2.7117736433344350e-02 -5.2397345825666131e-01 +4.8978604802064540e-03
5.0000000000000000e-01 +8.5269930947724806e+00 +0.0000000000000000e+00 +4.9999999993642402e-01 -2.7118326808067701e-02 -5.2397629355541209e-01 +4.8961387501289472e-03
5.5000000000000004e-01 +8.5269916446777607e+00 +0.0000000000000000e+00 +5.4999999991537996e-01 -2.7118937599452480e-02 -5.2397946130811868e-01 +4.8944235727941257e-03
5.9999999999999998e-01 +8.5269900564744603e+00 +0.0000000000000000e+00 +5.9999999989013997e-01 -2.7119568727432614e-02 -5.2398296087106888e-01 +4.8927150471630475e-03
6.5000000000000002e-01 +8.5269883301661995e+00 +0.0000000000000000e+00 +6.4999999986032297e-01 -2.7120220111938834e-02 -5.2398679160048955e-01 +4.8910132721964213e-03
6.9999999999999996e-01 +8.5269864657566394e+00 +0.0000000000000000e+00 +6.9999999982554695e-01 -2.7120891672902662e-02 -5.2399095285262209e-01 +4.8893183468552582e-03
7.5000000000000000e-01 +8.5269844632421208e+00 +0.0000000000000000e+00 +7.4999999978543097e-01 -2.7121583330259134e-02 -5.2399544398377240e-01 +4.8876303701013242e-03
8.0000000000000004e-01 +8.5269823226226400e+00 +0.0000000000000000e+00 +7.9999999973959202e-01 -2.7122295003942764e-02 -5.2400026435023606e-01 +4.8859494408964579e-03
8.4999999999999998e-01 +8.5269800438982202e+00 +0.0000000000000000e+00 +8.4999999968765005e-01 -2.7123026613888768e-02 -5.2400541330832118e-01 +4.8842756582027766e-03
9.0000000000000002e-01 +8.5269776270688507e+00 +0.0000000000000000e+00 +8.9999999962922395e-01 -2.7123778080033197e-02 -5.2401089021435099e-01 +4.8826091209826956e-03
9.4999999999999996e-01 +8.5269750721381605e+00 +0.0000000000000000e+00 +9.4999999956393100e-01 -2.7124549322311529e-02 -5.2401669442463794e-01 +4.8809499281986862e-03
1.0000000000000000e+00 +8.5269723790988792e+00 +0.0000000000000000e+00 +9.9999999949139096e-01 -2.7125340260663995e-02 -5.2402282529558231e-01 +4.8792981788141534e-03
1.0500000000000000e+00 +8.5269695479546499e+00 +0.0000000000000000e+00 +1.0499999994112199e+00 -2.7126150815027554e-02 -5.2402928218352374e-01 +4.8776539717921043e-03
1.1000000000000001e+00 +8.5269665787091107e+00 +0.0000000000000000e+00 +1.0999999993230400e+00 -2.7126980905339888e-02 -5.2403606444481499e-01 +4.8760174060958113e-03
1.1499999999999999e+00 +8.5269634713586093e+00 +0.0000000000000000e+00 +1.1499999992264700e+00 -2.7127830451542087e-02 -5.2404317143587253e-01 +4.8743885806892444e-03
1.2000000000000000e+00 +8.5269602259031707e+00 +0.0000000000000000e+00 +1.1999999991211201e+00 -2.7128699373574653e-02 -5.2405060251310132e-01 +4.8727675945363993e-03
1.2500000000000000e+00 +8.5269568423427700e+00 +0.0000000000000000e+00 +1.2499999990066200e+00 -2.7129587591378731e-02 -5.2405835703291948e-01 +4.8711545466015218e-03
1.3000000000000000e+00 +8.5269533206774195e+00 +0.0000000000000000e+00 +1.2999999988825901e+00 -2.7130495024896204e-02 -5.2406643435175815e-01 +4.8695495358490925e-03
1.3500000000000001e+00 +8.5269496609071194e+00 +0.0000000000000000e+00 +1.3499999987486300e+00 -2.7131421594069637e-02 -5.2407483382606168e-01 +4.8679526612438262e-03
1.3999999999999999e+00 +8.5269458630355093e+00 +0.0000000000000000e+00 +1.3999999986043801e+00 -2.7132367218840887e-02 -5.2408355481226243e-01 +4.8663640217504415e-03
1.4500000000000000e+00 +8.5269419270553009e+00 +0.0000000000000000e+00 +1.4499999984494401e+00 -2.7133331819156559e-02 -5.2409259666688113e-01 +4.8647837163345439e-03
1.5000000000000000e+00 +8.5269378529737896e+00 +0.0000000000000000e+00 +1.4999999982834400e+00 -2.7134315314958479e-02 -5.2410195874634957e-01 +4.8632118439610669e-03
1.5500000000000000e+00 +8.5269336407873197e+00 +0.0000000000000000e+00 +1.5499999981060000e+00 -2.7135317626193197e-02 -5.2411164040718927e-01 +4.8616485035958201e-03
1.6000000000000001e+00 +8.5269292904959002e+00 +0.0000000000000000e+00 +1.5999999979167401e+00 -2.7136338672806549e-02 -5.2412164100590819e-01 +4.8600937942045955e-03
1.6499999999999999e+00 +8.5269248020995292e+00 +0.0000000000000000e+00 +1.6499999977152600e+00 -2.7137378374744964e-02 -5.2413195989902683e-01 +4.8585478147533823e-03
1.7000000000000000e+00 +8.5269201755982102e+00 +0.0000000000000000e+00 +1.6999999975011999e+00 -2.7138436651955512e-02 -5.2414259644307848e-01 +4.8570106642083577e-03
1.7500000000000000e+00 +8.5269154109919292e+00 +0.0000000000000000e+00 +1.7499999972741700e+00 -2.7139513424385857e-02 -5.2415354999460817e-01 +4.8554824415358976e-03
1.8000000000000000e+00 +8.5269105082843506e+00 +0.0000000000000000e+00 +1.7999999970337901e+00 -2.7140608611982881e-02 -5.2416481991014774e-01 +4.8539632457023233e-03
1.8500000000000001e+00 +8.5269054674718099e+00 +0.0000000000000000e+00 +1.8499999967796801e+00 -2.7141722134696841e-02 -5.2417640554629263e-01 +4.8524531756745882e-03
1.8999999999999999e+00 +8.5269002885506797e+00 +0.0000000000000000e+00 +1.8999999965114500e+00 -2.7142853912478442e-02 -5.2418830625964874e-01 +4.8509523304197926e-03
1.9500000000000000e+00 +8.5268949715282396e+00 +0.0000000000000000e+00 +1.9499999962287300e+00 -2.7144003865275008e-02 -5.2420052140675955e-01 +4.8494608089045665e-03
2.0000000000000000e+00 +8.5268895164008391e+00 +0.0000000000000000e+00 +1.9999999959311201e+00 -2.7145171913038394e-02 -5.2421305034425469e-01 +4.8479787100963361e-03
2.0499999999999998e+00 +8.5268839230666291e+00 +0.0000000000000000e+00 +2.0499999956182600e+00 -2.7146357982158024e-02 -5.2422589224634419e-01 +4.8465061313096676e-03
2.1000000000000001e+00 +8.5268781914164702e+00 +0.0000000000000000e+00 +2.0999999952897199e+00 -2.7147562024628015e-02 -5.2423904555485346e-01 +4.8450431632244412e-03
2.1499999999999999e+00 +8.5268723214576294e+00 +0.0000000000000000e+00 +2.1499999949451398e+00 -2.7148783998800205e-02 -5.2425250852770033e-01 +4.8435898948553302e-03
2.2000000000000002e+00 +8.5268663131864706e+00 +0.0000000000000000e+00 +2.1999999945841302e+00 -2.7150023863031222e-02 -5.2426627942288817e-01 +4.8421464152182880e-03
2.2500000000000000e+00 +8.5268601666030008e+00 +0.0000000000000000e+00 +2.2499999942063100e+00 -2.7151281575677137e-02 -5.2428035649840488e-01 +4.8407128133296975e-03
2.2999999999999998e+00 +8.5268538817035697e+00 +0.0000000000000000e+00 +2.2999999938113000e+00 -2.7152557095096116e-02 -5.2429473801227322e-01 +4.8392891782068374e-03
2.3500000000000001e+00 +8.5268474584954692e+00 +0.0000000000000000e+00 +2.3499999933987001e+00 -2.7153850379643043e-02 -5.2430942222245047e-01 +4.8378755988670290e-03
2.3999999999999999e+00 +8.5268408969750507e+00 +0.0000000000000000e+00 +2.3999999929681501e+00 -2.7155161387677630e-02 -5.2432440738697728e-01 +4.8364721643289546e-03
2.4500000000000002e+00 +8.5268341971459396e+00 +0.0000000000000000e+00 +2.4499999925192602e+00 -2.7156490077557670e-02 -5.2433969176385431e-01 +4.8350789636116163e-03
2.5000000000000000e+00 +8.5268273590008903e+00 +0.0000000000000000e+00 +2.4999999920516398e+00 -2.7157836407645800e-02 -5.2435527361116596e-01 +4.8336960857354085e-03
2.5499999999999998e+00 +8.5268203825435194e+00 +0.0000000000000000e+00 +2.5499999915649201e+00 -2.7159200336301353e-02 -5.2437115118692967e-01 +4.8323236197208618e-03
2.6000000000000001e+00 +8.5268132677774702e+00 +0.0000000000000000e+00 +2.5999999910586999e+00 -2.7160581821884470e-02 -5.2438732274917244e-01 +4.8309616545893193e-03
2.6499999999999999e+00 +8.5268060146954703e+00 +0.0000000000000000e+00 +2.6499999905326099e+00 -2.7161980822760171e-02 -5.2440378655600384e-01 +4.8296102793635885e-03
2.7000000000000002e+00 +8.5267986233047797e+00 +0.0000000000000000e+00 +2.6999999899862699e+00 -2.7163397297288783e-02 -5.2442054086544132e-01 +4.8282695830664619e-03
2.7500000000000000e+00 +8.5267910936017905e+00 +0.0000000000000000e+00 +2.7499999894192899e+00 -2.7164831203835567e-02 -5.2443758393558615e-01 +4.8269396547222501e-03
2.7999999999999998e+00 +8.5267834255828294e+00 +0.0000000000000000e+00 +2.7999999888312899e+00 -2.7166282500766560e-02 -5.2445491402454791e-01 +4.8256205833561499e-03
2.8500000000000001e+00 +8.5267756192552007e+00 +0.0000000000000000e+00 +2.8499999882218900e+00 -2.7167751146444520e-02 -5.2447252939036659e-01 +4.8243124579936273e-03
2.8999999999999999e+00 +8.5267676746152592e+00 +0.0000000000000000e+00 +2.8999999875907001e+00 -2.7169237099237093e-02 -5.2449042829116654e-01 +4.8230153676617239e-03
2.9500000000000002e+00 +8.5267595916629908e+00 +0.0000000000000000e+00 +2.9499999869373399e+00 -2.7170740317511408e-02 -5.2450860898505391e-01 +4.8217294013882285e-03
3.0000000000000000e+00 +8.5267513703984203e+00 +0.0000000000000000e+00 +2.9999999862614302e+00 -2.7172260759635369e-02 -5.2452706973014152e-01 +4.8204546482018993e-03
3.0499999999999998e+00 +8.5267430108251592e+00 +0.0000000000000000e+00 +3.0499999855625899e+00 -2.7173798383976364e-02 -5.2454580878452439e-01 +4.8191911971322823e-03
3.1000000000000001e+00 +8.5267345129359509e+00 +0.0000000000000000e+00 +3.0999999848404300e+00 -2.7175353148906681e-02 -5.2456482440637953e-01 +4.8179391372105826e-03
3.1499999999999999e+00 +8.5267258767344192e+00 +0.0000000000000000e+00 +3.1499999840945798e+00 -2.7176925012795346e-02 -5.2458411485381540e-01 +4.8166985574684112e-03
3.2000000000000002e+00 +8.5267171022205694e+00 +0.0000000000000000e+00 +3.1999999833246400e+00 -2.7178513934013594e-02 -5.2460367838497124e-01 +4.8154695469386560e-03
3.2500000000000000e+00 +8.5267081893980503e+00 +0.0000000000000000e+00 +3.2499999825302401e+00 -2.7180119870932114e-02 -5.2462351325796774e-01 +4.8142521946550757e-03
3.2999999999999998e+00 +8.5266991382632096e+00 +0.0000000000000000e+00 +3.2999999817109900e+00 -2.7181742781925162e-02 -5.2464361773098223e-01 +4.8130465896529607e-03
3.3500000000000001e+00 +8.5266899488124199e+00 +0.0000000000000000e+00 +3.3499999808665200e+00 -2.7183382625367826e-02 -5.2466399006219699e-01 +4.8118528209687341e-03
3.3999999999999999e+00 +8.5266806210529502e+00 +0.0000000000000000e+00 +3.3999999799964300e+00 -2.7185039359631985e-02 -5.2468462850972541e-01 +4.8106709776393301e-03
3.4500000000000002e+00 +8.5266711549811607e+00 +0.0000000000000000e+00 +3.4499999791003502e+00 -2.7186712943094417e-02 -5.2470553133176123e-01 +4.8095011487034921e-03
3.5000000000000000e+00 +8.5266615505970496e+00 +0.0000000000000000e+00 +3.4999999781778901e+00 -2.7188403334131406e-02 -5.2472669678647865e-01 +4.8083434232009444e-03
3.5499999999999998e+00 +8.5266518079006293e+00 +0.0000000000000000e+00 +3.5499999772286701e+00 -2.7190110491120089e-02 -5.2474812313205654e-01 +4.8071978901726327e-03
3.6000000000000001e+00 +8.5266419268882601e+00 +0.0000000000000000e+00 +3.5999999762523198e+00 -2.7191834372439834e-02 -5.2476980862670441e-01 +4.8060646386609458e-03
3.6499999999999999e+00 +8.5266319075708505e+00 +0.0000000000000000e+00 +3.6499999752484298e+00 -2.7193574936465386e-02 -5.2479175152853508e-01 +4.8049437577086891e-03
3.6999999999999900e+00 +8.5266217499374797e+00 +0.0000000000000000e+00 +3.6999999742166398e+00 -2.7195332141580576e-02 -5.2481395009581799e-01 +4.8038353363612160e-03
3.7499999999999898e+00 +8.5266114539917908e+00 +0.0000000000000000e+00 +3.7499999731565601e+00 -2.7197105946164646e-02 -5.2483640258672559e-01 +4.8027394636643433e-03
3.7999999999999901e+00 +8.5266010197374307e+00 +0.0000000000000000e+00 +3.7999999720678099e+00 -2.7198896308597689e-02 -5.2485910725943430e-01 +4.8016562286652027e-03
3.8499999999999899e+00 +8.5265904471671092e+00 +0.0000000000000000e+00 +3.8499999709499999e+00 -2.7200703187264769e-02 -5.2488206237220070e-01 +4.8005857204129112e-03
3.8999999999999901e+00 +8.5265797362881095e+00 +0.0000000000000000e+00 +3.8999999698027499e+00 -2.7202526540546404e-02 -5.2490526618318423e-01 +4.7995280279571123e-03
3.9499999999999900e+00 +8.5265688870931609e+00 +0.0000000000000000e+00 +3.9499999686256899e+00 -2.7204366326829422e-02 -5.2492871695064858e-01 +4.7984832403496725e-03
3.9999999999999898e+00 +8.5265578995895304e+00 +0.0000000000000000e+00 +3.9999999674184199e+00 -2.7206222504496089e-02 -5.2495241293276040e-01 +4.7974514466430380e-03
4.0499999999999901e+00 +8.5265467737735907e+00 +0.0000000000000000e+00 +4.0499999661805601e+00 -2.7208095011159762e-02 -5.2497635222960515e-01 +4.7964327264403573e-03
4.0999999999999899e+00 +8.5265355096416897e+00 +0.0000000000000000e+00 +4.0999999649117402e+00 -2.7209983701338612e-02 -5.2500053230862997e-01 +4.7954271215403807e-03
4.1499999999999897e+00 +8.5265241072047502e+00 +0.0000000000000000e+00 +4.1499999636115703e+00 -2.7211888408771402e-02 -5.2502495047902198e-01 +4.7944346642902272e-03
4.1999999999999904e+00 +8.5265125664518600e+00 +0.0000000000000000e+00 +4.1999999622796604e+00 -2.7213808967204926e-02 -5.2504960405012324e-01 +4.7934553870387720e-03
4.2499999999999902e+00 +8.5265008873866499e+00 +0.0000000000000000e+00 +4.2499999609156403e+00 -2.7215745210380438e-02 -5.2507449033117493e-01 +4.7924893221345582e-03
4.2999999999999901e+00 +8.5264890700091200e+00 +0.0000000000000000e+00 +4.2999999595191198e+00 -2.7217696972040389e-02 -5.2509960663144584e-01 +4.7915365019268307e-03
4.3499999999999899e+00 +8.5264771143192792e+00 +0.0000000000000000e+00 +4.3499999580897200e+00 -2.7219664085927034e-02 -5.2512495026020611e-01 +4.7905969587653139e-03
4.3999999999999897e+00 +8.5264650203207601e+00 +0.0000000000000000e+00 +4.3999999566270596e+00 -2.7221646385781079e-02 -5.2515051852670180e-01 +4.7896707250000142e-03
4.4499999999999904e+00 +8.5264527880062797e+00 +0.0000000000000000e+00 +4.4499999551307496e+00 -2.7223643705347089e-02 -5.2517630874025556e-01 +4.7887578329820204e-03
4.4999999999999902e+00 +8.5264404173794901e+00 +0.0000000000000000e+00 +4.4999999536004101e+00 -2.7225655878365264e-02 -5.2520231821011487e-01 +4.7878583150622704e-03
4.5499999999999901e+00 +8.5264279084440204e+00 +0.0000000000000000e+00 +4.5499999520356598e+00 -2.7227682738575523e-02 -5.2522854424552790e-01 +4.7869722035921514e-03
4.5999999999999899e+00 +8.5264152611962292e+00 +0.0000000000000000e+00 +4.5999999504361098e+00 -2.7229724119720234e-02 -5.2525498415579397e-01 +4.7860995309239223e-03
4.6499999999999897e+00 +8.5264024756361305e+00 +0.0000000000000000e+00 +4.6499999488013897e+00 -2.7231779855540005e-02 -5.2528163525018678e-01 +4.7852403294100648e-03
4.6999999999999904e+00 +8.5263895517600794e+00 +0.0000000000000000e+00 +4.6999999471311096e+00 -2.7233849779776508e-02 -5.2530849483800590e-01 +4.7843946314037114e-03
4.7499999999999902e+00 +8.5263764895753393e+00 +0.0000000000000000e+00 +4.7499999454248902e+00 -2.7235933726166894e-02 -5.2533556022847383e-01 +4.7835624692577948e-03
4.7999999999999901e+00 +8.5263632890782901e+00 +0.0000000000000000e+00 +4.7999999436823400e+00 -2.7238031528451993e-02 -5.2536282873088935e-01 +4.7827438753262853e-03
4.8499999999999899e+00 +8.5263499502725608e+00 +0.0000000000000000e+00 +4.8499999419030901e+00 -2.7240143020369499e-02 -5.2539029765449941e-01 +4.7819388819631548e-03
4.8999999999999897e+00 +8.5263364731472393e+00 +0.0000000000000000e+00 +4.8999999400867402e+00 -2.7242268035662071e-02 -5.2541796430865162e-01 +4.7811475215236085e-03
4.9499999999999904e+00 +8.5263228577168793e+00 +0.0000000000000000e+00 +4.9499999382329296e+00 -2.7244406408062326e-02 -5.2544582600251499e-01 +4.7803698263617920e-03
4.9999999999999902e+00 +8.5263091039705596e+00 +0.0000000000000000e+00 +4.9999999363412497e+00 -2.7246557971311904e-02 -5.2547388004543516e-01 +4.7796058288336971e-03
5.0499999999999901e+00 +8.5262952115954196e+00 +0.0000000000000000e+00 +5.0499999344112600e+00 -2.7248722559265984e-02 -5.2550212374886618e-01 +4.7788555613129174e-03
5.0999999999999899e+00 +8.5262811802713294e+00 +0.0000000000000000e+00 +5.0999999324424596e+00 -2.7250900005782005e-02 -5.2553055442431329e-01 +4.7781190561738225e-03
5.1499999999999897e+00 +8.5262670100019005e+00 +0.0000000000000000e+00 +5.1499999304344799e+00 -2.7253090144594636e-02 -5.2555916938101777e-01 +4.7773963457726689e-03
5.1999999999999904e+00 +8.5262527007798798e+00 +0.0000000000000000e+00 +5.1999999283869203e+00 -2.7255292809442059e-02 -5.2558796592829560e-01 +4.7766874624666925e-03
5.2499999999999902e+00 +8.5262382526088896e+00 +0.0000000000000000e+00 +5.2499999262994104e+00 -2.7257507834057663e-02 -5.2561694137538362e-01 +4.7759924386128697e-03
5.2999999999999901e+00 +8.5262236654925800e+00 +0.0000000000000000e+00 +5.2999999241715603e+00 -2.7259735052174217e-02 -5.2564609303151688e-01 +4.7753113065685214e-03
5.3499999999999899e+00 +8.5262089394273097e+00 +0.0000000000000000e+00 +5.3499999220029704e+00 -2.7261974297526463e-02 -5.2567541820597774e-01 +4.7746440986917178e-03
5.3999999999999897e+00 +8.5261940744130698e+00 +0.0000000000000000e+00 +5.3999999197932702e+00 -2.7264225403847084e-02 -5.2570491420802079e-01 +4.7739908473406634e-03
5.4499999999999904e+00 +8.5261790704498708e+00 +0.0000000000000000e+00 +5.4499999175420601e+00 -2.7266488204868041e-02 -5.2573457834689785e-01 +4.7733515848738806e-03
5.4999999999999902e+00 +8.5261639275377092e+00 +0.0000000000000000e+00 +5.4999999152489698e+00 -2.7268762534320465e-02 -5.2576440793185675e-01 +4.7727263436502113e-03
5.5499999999999901e+00 +8.5261486456802196e+00 +0.0000000000000000e+00 +5.5499999129136004e+00 -2.7271048225933327e-02 -5.2579440027211688e-01 +4.7721151560285984e-03
5.5999999999999899e+00 +8.5261332248737691e+00 +0.0000000000000000e+00 +5.5999999105355700e+00 -2.7273345113437517e-02 -5.2582455267694417e-01 +4.7715180543687055e-03
5.6499999999999897e+00 +8.5261176651147306e+00 +0.0000000000000000e+00 +5.6499999081144896e+00 -2.7275653030563091e-02 -5.2585486245560142e-01 +4.7709350710304866e-03
5.6999999999999904e+00 +8.5261019664103497e+00 +0.0000000000000000e+00 +5.6999999056499897e+00 -2.7277971811035064e-02 -5.2588532691727075e-01 +4.7703662383735647e-03
5.7499999999999902e+00 +8.5260861287570204e+00 +0.0000000000000000e+00 +5.7499999031416600e+00 -2.7280301288581672e-02 -5.2591594337120595e-01 +4.7698115887584635e-03
5.7999999999999901e+00 +8.5260701521547198e+00 +0.0000000000000000e+00 +5.7999999005891203e+00 -2.7282641296928877e-02 -5.2594670912663122e-01 +4.7692711545457706e-03
5.8499999999999899e+00 +8.5260540366070892e+00 +0.0000000000000000e+00 +5.8499998979920003e+00 -2.7284991669800245e-02 -5.2597762149274052e-01 +4.7687449680961346e-03
5.8999999999999897e+00 +8.5260377821068705e+00 +0.0000000000000000e+00 +5.8999998953498896e+00 -2.7287352240922536e-02 -5.2600867777879912e-01 +4.7682330617710772e-03
