# multipoles
# s[mm] polynom_b[n=0][T/m^n] polynom_b[n=1][T/m^n] polynom_b[n=2][T/m^n] polynom_b[n=3][T/m^n] polynom_b[n=4][T/m^n] polynom_b[n=5][T/m^n] polynom_b[n=6][T/m^n] 
+0.0000000000000000e+00 -5.4996346184296407e-01 +7.2001131234372791e+00 +5.5642142152302316e+00 -5.8147898627322689e+01 -2.6797746340973144e+03 +2.4591897143651812e+02 +3.5680345413564302e+07 
+5.0000000000000003e-02 -5.4996308000524352e-01 +7.2001253123487432e+00 +5.5665407552920803e+00 -5.7592094452878726e+01 -2.7156043446826047e+03 -4.1832919647900417e+03 +3.5797587561682172e+07 
+1.0000000000000001e-01 -5.4996309218761819e-01 +7.2001590777196638e+00 +5.5684031324945682e+00 -5.7041516061638411e+01 -2.7515813439121625e+03 -8.5371625176039488e+03 +3.5915805333240949e+07 
+1.4999999999999999e-01 -5.4996349762606167e-01 +7.2002143578935298e+00 +5.5698059277279004e+00 -5.6496475126934293e+01 -2.7877985501556454e+03 -1.2812519802717248e+04 +3.6035605207125992e+07 
+2.0000000000000001e-01 -5.4996429555657445e-01 +7.2002910912112545e+00 +5.5707537215054499e+00 -5.5957283191719313e+01 -2.8243488773871327e+03 -1.7006191971189983e+04 +3.6157593656133987e+07 
+2.5000000000000000e-01 -5.4996548521521083e-01 +7.2003892160203335e+00 +5.5712510955088996e+00 -5.5424252039339990e+01 -2.8613252630393058e+03 -2.1115005200828298e+04 +3.6282377277669132e+07 
+2.9999999999999999e-01 -5.4996706583799437e-01 +7.2005086706661698e+00 +5.5713026278849940e+00 -5.4897693322955227e+01 -2.8988205535732368e+03 -2.5135786784261240e+04 +3.6410562070004046e+07 
+3.4999999999999998e-01 -5.4996903666094055e-01 +7.2006493934965565e+00 +5.5709129014731804e+00 -5.4377918767353087e+01 -2.9369277226644290e+03 -2.9065363390347695e+04 +3.6542754890591465e+07 
+4.0000000000000002e-01 -5.4997139692019403e-01 +7.2008113228567021e+00 +5.5700864955610569e+00 -5.3865239970048442e+01 -2.9757396452824578e+03 -3.2900562730375030e+04 +3.6679561919204921e+07 
+4.5000000000000001e-01 -5.4997414585176307e-01 +7.2009943970956209e+00 +5.5688279905699591e+00 -5.3359968636680335e+01 -3.0153492324508193e+03 -3.6638211648065560e+04 +3.6821589595877416e+07 
+5.0000000000000000e-01 -5.4997728269181401e-01 +7.2011985545618522e+00 +5.5671419680389373e+00 -5.2862416442487650e+01 -3.0558494180490916e+03 -4.0275137195408999e+04 +3.6969444485144801e+07 
+5.5000000000000004e-01 -5.4998080667645022e-01 +7.2014237336045710e+00 +5.5650330097131260e+00 -5.2372895029595306e+01 -3.0973331473725311e+03 -4.3808166787837828e+04 +3.7123733250558011e+07 
+5.9999999999999998e-01 -5.4998471704185958e-01 +7.2016698725753736e+00 +5.5625056954203762e+00 -5.1891716134862179e+01 -3.1398933143346953e+03 -4.7234126974319370e+04 +3.7285062207303062e+07 
+6.5000000000000002e-01 -5.4998901302411918e-01 +7.2019369098234733e+00 +5.5595646051035192e+00 -5.1419191353797395e+01 -3.1836228102360706e+03 -5.0549845488465449e+04 +3.7454037628018320e+07 
+6.9999999999999996e-01 -5.4999369385946184e-01 +7.2022247837027953e+00 +5.5562143206875323e+00 -5.0955632449603691e+01 -3.2286145856870226e+03 -5.3752148697418124e+04 +3.7631266205943927e+07 
+7.5000000000000000e-01 -5.4999875878405191e-01 +7.2025334325619426e+00 +5.5524594228753719e+00 -5.0501350924967291e+01 -3.2749615584019107e+03 -5.6837865140026457e+04 +3.7817354411168389e+07 
+8.0000000000000004e-01 -5.5000420703410668e-01 +7.2028627947575252e+00 +5.5483044935354400e+00 -5.0056658593542302e+01 -3.3227566720640289e+03 -5.9803820747752165e+04 +3.8012908866488367e+07 
+8.4999999999999998e-01 -5.5001003784586955e-01 +7.2032128086399210e+00 +5.5437541124308316e+00 -4.9621866972187249e+01 -3.3720928182241591e+03 -6.2646843956123346e+04 +3.8218535854822338e+07 
+9.0000000000000002e-01 -5.5001625045559110e-01 +7.2035834125651403e+00 +5.5388128619221186e+00 -4.9197287790705367e+01 -3.4230629591577244e+03 -6.5363761378181436e+04 +3.8434842140621051e+07 
+9.4999999999999996e-01 -5.5002284409950053e-01 +7.2039745448873340e+00 +5.5334853226251681e+00 -4.8783232656855631e+01 -3.4757600102552560e+03 -6.7951400701317922e+04 +3.8662434168105602e+07 
+1.0000000000000000e+00 -5.5002981801388284e-01 +7.2043861439627728e+00 +5.5277760771068776e+00 -4.8380013241977032e+01 -3.5302769340304690e+03 -7.0406589068534769e+04 +3.8901918674338333e+07 
+1.0500000000000000e+00 -5.5003717143504949e-01 +7.2048181481456508e+00 +5.5216897053443956e+00 -4.7987941107284833e+01 -3.5867066287996440e+03 -7.2726154515205068e+04 +3.9153901985563762e+07 
+1.1000000000000001e+00 -5.5004490359926494e-01 +7.2052704957949985e+00 +5.5152307904809046e+00 -4.7607327964619131e+01 -3.6451420804465379e+03 -7.4906923893398969e+04 +3.9418991022798084e+07 
+1.1499999999999999e+00 -5.5005301374292859e-01 +7.2057431252668112e+00 +5.5084039129993014e+00 -4.7238485401393866e+01 -3.7056761963863046e+03 -7.6945724997068217e+04 +3.9697792147894569e+07 
+1.2000000000000000e+00 -5.5006150110233798e-01 +7.2062359749196592e+00 +5.5012136558456906e+00 -4.6881725040675384e+01 -3.7684019550333519e+03 -7.8839385453759198e+04 +3.9990912219344012e+07 
+1.2500000000000000e+00 -5.5007036491384553e-01 +7.2067489831102156e+00 +5.4936645996303204e+00 -4.6537358433513418e+01 -3.8334122683086953e+03 -8.0584733355022792e+04 +4.0298957628181614e+07 
+1.3000000000000000e+00 -5.5007960441384818e-01 +7.2072820881997748e+00 +5.4857613261317724e+00 -4.6205697268574696e+01 -3.9008000883924533e+03 -8.2178595767481194e+04 +4.0622535068101540e+07 
+1.3500000000000001e+00 -5.5008921883875117e-01 +7.2078352285460214e+00 +5.4775084193711452e+00 -4.5887053059750663e+01 -3.9706584169423413e+03 -8.3617801177537767e+04 +4.0962251523707971e+07 
+1.3999999999999999e+00 -5.5009920742489582e-01 +7.2084083425119134e+00 +5.4689104593120739e+00 -4.5581737512764434e+01 -4.0430801534040115e+03 -8.4899176463684722e+04 +4.1318713312114269e+07 
+1.4500000000000000e+00 -5.5010956940876399e-01 +7.2090013684553966e+00 +5.4599720296282426e+00 -4.5290062092085194e+01 -4.1181582958140070e+03 -8.6019550547604114e+04 +4.1692527406955853e+07 
+1.5000000000000000e+00 -5.5012030402678413e-01 +7.2096142447374625e+00 +5.4506977103858034e+00 -4.5012338367098771e+01 -4.1959857422701507e+03 -8.6975751435792918e+04 +4.2084300097164042e+07 
+1.5500000000000000e+00 -5.5013141051540537e-01 +7.2102469097214179e+00 +5.4410920885118657e+00 -4.4748877960858131e+01 -4.2766555835538502e+03 -8.7764606749997081e+04 +4.2494638994155928e+07 
+1.6000000000000001e+00 -5.5014288811108003e-01 +7.2108993017692411e+00 +5.4311597428219445e+00 -4.4499992411585495e+01 -4.3602606812901804e+03 -8.8382944814646980e+04 +4.2924150122578353e+07 
+1.6499999999999999e+00 -5.5015473605032761e-01 +7.2115713592454123e+00 +5.4209052578201824e+00 -4.4265993344299531e+01 -4.4468940602403000e+03 -8.8827593212607346e+04 +4.3373440640860774e+07 
+1.7000000000000000e+00 -5.5016695356961576e-01 +7.2122630205099938e+00 +5.4103332148856422e+00 -4.4047192150872910e+01 -4.5366486541832337e+03 -8.9095381515398520e+04 +4.3843117064509101e+07 
+1.7500000000000000e+00 -5.5017953990550006e-01 +7.2129742239277990e+00 +5.3994481993739782e+00 -4.3843900413905288e+01 -4.6296175087599713e+03 -8.9183137655568615e+04 +4.4333786678459913e+07 
+1.8000000000000000e+00 -5.5019249429447792e-01 +7.2137049078640949e+00 +5.3882547926756663e+00 -4.3656429684848220e+01 -4.7258935591726395e+03 -8.9087689890226102e+04 +4.4846056006519198e+07 
+1.8500000000000001e+00 -5.5020581597310325e-01 +7.2144550106833343e+00 +5.3767575797579825e+00 -4.3485091467586109e+01 -4.8255698424157026e+03 -8.8805866827349688e+04 +4.5380532273047507e+07 
+1.8999999999999999e+00 -5.5021950417795074e-01 +7.2152244707507194e+00 +5.3649611411372184e+00 -4.3330197250056855e+01 -4.9287392700170140e+03 -8.8334497295753812e+04 +4.5937821835519247e+07 
+1.9500000000000000e+00 -5.5023355814558306e-01 +7.2160132264303707e+00 +5.3528700626025687e+00 -4.3192058463448625e+01 -5.0354948990181565e+03 -8.7670410511859722e+04 +4.6518532038000189e+07 
+2.0000000000000000e+00 -5.5024797711261653e-01 +7.2168212160907830e+00 +5.3404889273237028e+00 -4.3070986678474505e+01 -5.1459297157826395e+03 -8.6810434604268405e+04 +4.7123269749475069e+07 
+2.0499999999999998e+00 -5.5026276006624064e-01 +7.2176483633582222e+00 +5.3278208012627699e+00 -4.2967160589997995e+01 -5.2600866806856438e+03 -8.5753036245257899e+04 +4.7752339340036824e+07 
+2.1000000000000001e+00 -5.5027790499246676e-01 +7.2184945342823896e+00 +5.3148625373255980e+00 -4.2880241420865374e+01 -5.3778089374628926e+03 -8.4503213849927444e+04 +4.8404855285412624e+07 
+2.1499999999999999e+00 -5.5029340962618301e-01 +7.2193595772813204e+00 +5.3016096110449462e+00 -4.2809768903627955e+01 -5.4988897016213259e+03 -8.3067601764118721e+04 +4.9079639950856306e+07 
+2.2000000000000002e+00 -5.5030927170234567e-01 +7.2202433407712450e+00 +5.2880574988069569e+00 -4.2755282683038118e+01 -5.6231222125515451e+03 -8.1452835086398249e+04 +4.9775515868867770e+07 
+2.2500000000000000e+00 -5.5032548895584632e-01 +7.2211456731719723e+00 +5.2742016770679552e+00 -4.2716322528093777e+01 -5.7502997070787624e+03 -7.9665547898947785e+04 +5.0491305536351457e+07 
+2.2999999999999998e+00 -5.5034205912159950e-01 +7.2220664229027278e+00 +5.2600376201221124e+00 -4.2692428159414149e+01 -5.8802153685024323e+03 -7.7712374724617155e+04 +5.1225831108863026e+07 
+2.3500000000000001e+00 -5.5035897993452720e-01 +7.2230054383828843e+00 +5.2455608056749323e+00 -4.2683139285524611e+01 -6.0126624671548334e+03 -7.5599950197049722e+04 +5.1977915312755413e+07 
+2.3999999999999999e+00 -5.5037624912958827e-01 +7.2239625680327224e+00 +5.2307667069365245e+00 -4.2687995636156138e+01 -6.1474341536025959e+03 -7.3334908773390416e+04 +5.2746380071943402e+07 
+2.4500000000000002e+00 -5.5039386444173044e-01 +7.2249376602725608e+00 +5.2156508020423669e+00 -4.2706536923969395e+01 -6.2843237090967559e+03 -7.0923885093119054e+04 +5.3530048188570857e+07 
+2.5000000000000000e+00 -5.5041182360596597e-01 +7.2259305635261653e+00 +5.2002085653543544e+00 -4.2738302981878334e+01 -6.4231243169198287e+03 -6.8373512832263848e+04 +5.4327741816601358e+07 
+2.5499999999999998e+00 -5.5043012435719618e-01 +7.2269411262157259e+00 +5.1844354724369319e+00 -4.2782833561979110e+01 -6.5636291880349163e+03 -6.5690426324876971e+04 +5.5138283282761753e+07 
+2.6000000000000001e+00 -5.5044876443049573e-01 +7.2279691967642714e+00 +5.1683270000446146e+00 -4.2839668444683845e+01 -6.7056315679928257e+03 -6.2881259686784768e+04 +5.5960495158324935e+07 
+2.6499999999999999e+00 -5.5046774156082912e-01 +7.2290146235980961e+00 +5.1518786219076773e+00 -4.2908347504543372e+01 -6.8489246182532934e+03 -5.9952646346553083e+04 +5.6793199440852575e+07 
+2.7000000000000002e+00 -5.5048705348321614e-01 +7.2300772551376600e+00 +5.1350858154974377e+00 -4.2988410381668686e+01 -6.9933016026641944e+03 -5.6911221612533242e+04 +5.7635218826059788e+07 
+2.7500000000000000e+00 -5.5050669793267115e-01 +7.2311569398112585e+00 +5.1179440546825106e+00 -4.3079397012239056e+01 -7.1385556801149887e+03 -5.3763618413576936e+04 +5.8485375274402939e+07 
+2.7999999999999998e+00 -5.5052667264419841e-01 +7.2322535260455920e+00 +5.1004488158293473e+00 -4.3180847253702623e+01 -7.2844800903693958e+03 -5.0516470347341601e+04 +5.9342491348623924e+07 
+2.8500000000000001e+00 -5.5054697535286667e-01 +7.2333668622658314e+00 +5.0825955742872733e+00 -4.3292300886807048e+01 -7.4308680290814855e+03 -4.7176411667893793e+04 +6.0205389251592547e+07 
+2.8999999999999999e+00 -5.5056760379371306e-01 +7.2344967969015554e+00 +5.0643798041134032e+00 -4.3413297863010953e+01 -7.5775126699872462e+03 -4.3750075232649753e+04 +6.1072891090551130e+07 
+2.9500000000000002e+00 -5.5058855570180054e-01 +7.2356431783810606e+00 +5.0457969809896186e+00 -4.3543378065165555e+01 -7.7242072188941793e+03 -4.0244094494267287e+04 +6.1943819150578097e+07 
+3.0000000000000000e+00 -5.5060982881219389e-01 +7.2368058551333299e+00 +5.0268425806263863e+00 -4.3682081383352184e+01 -7.8707448935718721e+03 -3.6665102913350376e+04 +6.2816995843986638e+07 
+3.0499999999999998e+00 -5.5063142085993577e-01 +7.2379846755875228e+00 +5.0075120767318584e+00 -4.3828947715651459e+01 -8.0169188443201801e+03 -3.3019733850424571e+04 +6.3691243077409752e+07 
+3.1000000000000001e+00 -5.5065332958014246e-01 +7.2391794881758722e+00 +4.9878009458836248e+00 -4.3983517067348558e+01 -8.1625223061008164e+03 -2.9314619844388755e+04 +6.4565383364727676e+07 
+3.1499999999999999e+00 -5.5067555270789548e-01 +7.2403901413295744e+00 +4.9677046616023581e+00 -4.4145329395261470e+01 -8.3073484285310878e+03 -2.5556393838388067e+04 +6.5438238632810473e+07 
+3.2000000000000002e+00 -5.5069808797828501e-01 +7.2416164834801693e+00 +4.9472186972828700e+00 -4.4313924647308880e+01 -8.4511903569447841e+03 -2.1751688929022112e+04 +6.6308630785498358e+07 
+3.2500000000000000e+00 -5.5072093312640980e-01 +7.2428583630622745e+00 +4.9263385313694625e+00 -4.4488842903617559e+01 -8.5938413742116518e+03 -1.7907137081532004e+04 +6.7175382662026659e+07 
+3.2999999999999998e+00 -5.5074408588738577e-01 +7.2441156285088377e+00 +4.9050596341905148e+00 -4.4669624151616752e+01 -8.7350945391313871e+03 -1.4029371117712168e+04 +6.8037315577152044e+07 
+3.3500000000000001e+00 -5.5076754399636707e-01 +7.2453881282552901e+00 +4.8833774819240983e+00 -4.4855808484744088e+01 -8.8747430710680674e+03 -1.0125022969428313e+04 +6.8893251941807777e+07 
+3.3999999999999999e+00 -5.5079130518842490e-01 +7.2466757107373443e+00 +4.8612875483256266e+00 -4.5046935983476530e+01 -9.0125801205286716e+03 -6.2007247459516475e+03 +6.9742013696909457e+07 
+3.4500000000000002e+00 -5.5081536719869140e-01 +7.2479782243908950e+00 +4.8387853075658223e+00 -4.5242546744420324e+01 -9.1483988499889474e+03 -2.2631084110461320e+03 +7.0582422873068541e+07 
+3.5000000000000000e+00 -5.5083972776232060e-01 +7.2492955176530467e+00 +4.8158662318046712e+00 -4.5442180891652733e+01 -9.2819923674790243e+03 +1.6811942131860746e+03 +7.1413301136928737e+07 
+3.5499999999999998e+00 -5.5086438461448195e-01 +7.2506274389621446e+00 +4.7925257990977483e+00 -4.5645378606754932e+01 -9.4131539359600156e+03 +5.6255518060609229e+03 +7.2233471192965582e+07 
+3.6000000000000001e+00 -5.5088933549029528e-01 +7.2519738367560036e+00 +4.7687594780462979e+00 -4.5851680033119870e+01 -9.5416765667185045e+03 +9.5633326516328107e+03 +7.3041754063169867e+07 
+3.6499999999999999e+00 -5.5091457812493339e-01 +7.2533345594771559e+00 +4.7445627446670251e+00 -4.6060625498053305e+01 -9.6673534647869492e+03 +1.3487906509522902e+04 +7.3836972064483821e+07 
+3.6999999999999900e+00 -5.5094011025352374e-01 +7.2547094555637530e+00 +4.7199310712967337e+00 -4.6271755153101822e+01 -9.7899777403529934e+03 +1.7392641700121607e+04 +7.4617946892964527e+07 
+3.7499999999999898e+00 -5.5096592961128865e-01 +7.2560983734567319e+00 +4.6948599314578949e+00 -4.6484609260028542e+01 -9.9093425292208540e+03 +2.1270907398115633e+04 +7.5383500402139872e+07 
+3.7999999999999901e+00 -5.5099203393334795e-01 +7.2575011616006755e+00 +4.6693447986871544e+00 -4.6698728218053546e+01 -1.0025240974570856e+04 +2.5116073869349704e+04 +7.6132454529297456e+07 
+3.8499999999999899e+00 -5.5101842095492137e-01 +7.2589176684375154e+00 +4.6433811435829249e+00 -4.6913652315411760e+01 -1.0137466126448218e+04 +2.8921510417351798e+04 +7.6863630537186772e+07 
+3.8999999999999901e+00 -5.5104508841111766e-01 +7.2603477424091860e+00 +4.6169644403117402e+00 -4.7128921830324103e+01 -1.0245811141193024e+04 +3.2680586227395452e+04 +7.7575850450443372e+07 
+3.9499999999999900e+00 -5.5107203403719573e-01 +7.2617912319637723e+00 +4.5900901605650830e+00 -4.7344077307660498e+01 -1.0350069105481944e+04 +3.6386672676255177e+04 +7.8267935823198497e+07 
+3.9999999999999898e+00 -5.5109925556829398e-01 +7.2632479855448882e+00 +4.5627537766576829e+00 -4.7558659086367228e+01 -1.0450033115552418e+04 +4.0033139396361788e+04 +7.8938708255153894e+07 
+4.0499999999999901e+00 -5.5112675064513261e-01 +7.2647178385268401e+00 +4.5349517144950324e+00 -4.7772152726402773e+01 -1.0545506542417048e+04 +4.3613845275406878e+04 +7.9587025111164615e+07 
+4.0999999999999899e+00 -5.5115451653067860e-01 +7.2662005688145399e+00 +4.5066850358711799e+00 -4.7983865596422554e+01 -1.0636339149884781e+04 +4.7124873827745330e+04 +8.0211877702304989e+07 
+4.1499999999999897e+00 -5.5118255039369013e-01 +7.2676959386508173e+00 +4.4779561851951533e+00 -4.8193073841323773e+01 -1.0722393511357057e+04 +5.0562954425244963e+04 +8.0812287813113615e+07 
+4.1999999999999904e+00 -5.5121084940285225e-01 +7.2692037102805926e+00 +4.4487676030288377e+00 -4.8399053712190408e+01 -1.0803532093145084e+04 +5.3924817256870287e+04 +8.1387276499971583e+07 
+4.2499999999999902e+00 -5.5123941072694749e-01 +7.2707236459471387e+00 +4.4191217331522070e+00 -4.8601081414568966e+01 -1.0879617449951429e+04 +5.7207192173104886e+04 +8.1935865420280844e+07 
+4.2999999999999901e+00 -5.5126823153462934e-01 +7.2722555078995414e+00 +4.3890210153665441e+00 -4.8798433397431658e+01 -1.0950512030020129e+04 +6.0406811022079091e+04 +8.2457075513168603e+07 
+4.3499999999999899e+00 -5.5129730899466101e-01 +7.2737990583797654e+00 +4.3584678949009570e+00 -4.8990385833016362e+01 -1.1016078432135833e+04 +6.3520403371130902e+04 +8.2949928751509681e+07 
+4.3999999999999897e+00 -5.5132664027574507e-01 +7.2753540596344140e+00 +4.3274648112578253e+00 -4.9176215112563071e+01 -1.1076179101338794e+04 +6.6544700661347000e+04 +8.3413446068953708e+07 
+4.4499999999999904e+00 -5.5135622254656647e-01 +7.2769202739112906e+00 +4.2960142053174577e+00 -4.9355197692919745e+01 -1.1130676517976433e+04 +6.9476434891422585e+04 +8.3846648629353315e+07 
+4.4999999999999902e+00 -5.5138605297587584e-01 +7.2784974634532427e+00 +4.2641185210093235e+00 -4.9526609836069071e+01 -1.1179433252370167e+04 +7.2312336428581722e+04 +8.4248558233478710e+07 
+4.5499999999999901e+00 -5.5141612873236701e-01 +7.2800853905096083e+00 +4.2317801966552651e+00 -4.9689728105797172e+01 -1.1222311718933248e+04 +7.5049138203248905e+04 +8.4618195607020497e+07 
+4.5999999999999899e+00 -5.5144644698478495e-01 +7.2816838173244420e+00 +4.1990016757721031e+00 -4.9843828858893190e+01 -1.1259174479171545e+04 +7.7683571419314205e+04 +8.4954582496161252e+07 
+4.6499999999999897e+00 -5.5147700490174401e-01 +7.2832925061471538e+00 +4.1657853975028649e+00 -4.9988188707433842e+01 -1.1289883973039685e+04 +8.0212369484295239e+04 +8.5256739809356734e+07 
+4.6999999999999904e+00 -5.5150779965202790e-01 +7.2849112192210779e+00 +4.1321338037367026e+00 -5.0122084021258459e+01 -1.1314302721169939e+04 +8.2632263743074203e+04 +8.5523689022380501e+07 
+4.7499999999999902e+00 -5.5153882840426482e-01 +7.2865397187959378e+00 +4.0980493324749840e+00 -5.0244791472940086e+01 -1.1332293137703520e+04 +8.4939988144694071e+04 +8.5754450884899333e+07 
+4.7999999999999901e+00 -5.5157008832721643e-01 +7.2881777671185546e+00 +4.0635344272657239e+00 -5.0355587633089563e+01 -1.1343717790793409e+04 +8.7132275778850133e+04 +8.5948047201843038e+07 
+4.8499999999999899e+00 -5.5160157658946674e-01 +7.2898251264353391e+00 +4.0285915246963580e+00 -5.0453749079262792e+01 -1.1348439063234649e+04 +8.9205859844839229e+04 +8.6103498530247644e+07 
+4.8999999999999897e+00 -5.5163329035979503e-01 +7.2914815589937607e+00 +3.9932230675795273e+00 -5.0538552462734849e+01 -1.1346319502591283e+04 +9.1157474153284929e+04 +8.6219826529118955e+07 
+4.9499999999999904e+00 -5.5166522680683217e-01 +7.2931468270392408e+00 +3.9574314930928129e+00 -5.0609274385099425e+01 -1.1337221513956189e+04 +9.2983852186317017e+04 +8.6296051925390422e+07 
+4.9999999999999902e+00 -5.5169738309922500e-01 +7.2948206928258452e+00 +3.9212192410383686e+00 -5.0665191820672909e+01 -1.1321007568087000e+04 +9.4681730481014645e+04 +8.6331195870565861e+07 
+5.0499999999999901e+00 -5.5172975640799105e-01 +7.2965029102745858e+00 +3.8845891815584661e+00 -5.0705590581089353e+01 -1.1297540098631976e+04 +9.6247846722847025e+04 +8.6324279615062132e+07 
