# trajectory
# s[mm] rx[mm] ry[mm] rz[mm] px[rad] py[rad] pz[rad]
0.0000000000000000e+00 +8.2850000000000001e+00 +0.0000000000000000e+00 +0.0000000000000000e+00 +0.0000000000000000e+00 +0.0000000000000000e+00 +1.0000000000000000e+00
-5.0000000000000003e-02 +8.2849999310656077e+00 +0.0000000000000000e+00 -4.9999999999936644e-02 +2.7573771978521162e-06 +0.0000000000000000e+00 +9.9999999999619849e-01
-1.0000000000000001e-01 +8.2849997242621143e+00 +0.0000000000000000e+00 -9.9999999999493133e-02 +5.5147643623622373e-06 +0.0000000000000000e+00 +9.9999999998479372e-01
-1.5000000000000002e-01 +8.2849993795889727e+00 +0.0000000000000000e+00 -1.4999999999828928e-01 +8.2721634597819646e-06 +0.0000000000000000e+00 +9.9999999996578570e-01
-2.0000000000000001e-01 +8.2849988970455364e+00 +0.0000000000000000e+00 -1.9999999999594498e-01 +1.1029576452303476e-05 +0.0000000000000000e+00 +9.9999999993917432e-01
-2.5000000000000000e-01 +8.2849982766310628e+00 +0.0000000000000000e+00 -2.4999999999208000e-01 +1.3787005298059619e-05 +0.0000000000000000e+00 +9.9999999990495936e-01
-2.9999999999999999e-01 +8.2849975183447100e+00 +0.0000000000000000e+00 -2.9999999998631421e-01 +1.6544451951123999e-05 +0.0000000000000000e+00 +9.9999999986314070e-01
-3.4999999999999998e-01 +8.2849966221855382e+00 +0.0000000000000000e+00 -3.4999999997826736e-01 +1.9301918361511068e-05 +0.0000000000000000e+00 +9.9999999981371812e-01
-3.9999999999999997e-01 +8.2849955881525119e+00 +0.0000000000000000e+00 -3.9999999996755931e-01 +2.2059406475176214e-05 +0.0000000000000000e+00 +9.9999999975669140e-01
-4.4999999999999996e-01 +8.2849944162444960e+00 +0.0000000000000000e+00 -4.4999999995380979e-01 +2.4816918234015849e-05 +0.0000000000000000e+00 +9.9999999969206044e-01
-4.9999999999999994e-01 +8.2849931064602611e+00 +0.0000000000000000e+00 -4.9999999993663863e-01 +2.7574455575867494e-05 +0.0000000000000000e+00 +9.9999999961982489e-01
-5.4999999999999993e-01 +8.2849916587984787e+00 +0.0000000000000000e+00 -5.4999999991566551e-01 +3.0332020434509875e-05 +0.0000000000000000e+00 +9.9999999953998442e-01
-5.9999999999999998e-01 +8.2849900732577257e+00 +0.0000000000000000e+00 -5.9999999989051023e-01 +3.3089614739663004e-05 +0.0000000000000000e+00 +9.9999999945253881e-01
-6.5000000000000002e-01 +8.2849883498364818e+00 +0.0000000000000000e+00 -6.4999999986079260e-01 +3.5847240416988263e-05 +0.0000000000000000e+00 +9.9999999935748785e-01
-7.0000000000000007e-01 +8.2849864885331286e+00 +0.0000000000000000e+00 -6.9999999982613226e-01 +3.8604899388088505e-05 +0.0000000000000000e+00 +9.9999999925483107e-01
-7.5000000000000011e-01 +8.2849844893459554e+00 +0.0000000000000000e+00 -7.4999999978614895e-01 +4.1362593570508115e-05 +0.0000000000000000e+00 +9.9999999914456816e-01
-8.0000000000000016e-01 +8.2849823522731523e+00 +0.0000000000000000e+00 -7.9999999974046232e-01 +4.4120324877733125e-05 +0.0000000000000000e+00 +9.9999999902669867e-01
-8.5000000000000020e-01 +8.2849800773128166e+00 +0.0000000000000000e+00 -8.4999999968869200e-01 +4.6878095219191270e-05 +0.0000000000000000e+00 +9.9999999890122226e-01
-9.0000000000000024e-01 +8.2849776644629483e+00 +0.0000000000000000e+00 -8.9999999963045774e-01 +4.9635906500252102e-05 +0.0000000000000000e+00 +9.9999999876813861e-01
-9.5000000000000029e-01 +8.2849751137214529e+00 +0.0000000000000000e+00 -9.4999999956537906e-01 +5.2393760622227059e-05 +0.0000000000000000e+00 +9.9999999862744715e-01
-1.0000000000000002e+00 +8.2849724250861403e+00 +0.0000000000000000e+00 -9.9999999949307561e-01 +5.5151659482369546e-05 +0.0000000000000000e+00 +9.9999999847914744e-01
-1.0500000000000003e+00 +8.2849695985547278e+00 +0.0000000000000000e+00 -1.0499999994131670e+00 +5.7909604973875023e-05 +0.0000000000000000e+00 +9.9999999832323905e-01
-1.1000000000000003e+00 +8.2849666341248351e+00 +0.0000000000000000e+00 -1.0999999993252727e+00 +6.0667598985881098e-05 +0.0000000000000000e+00 +9.9999999815972140e-01
-1.1500000000000004e+00 +8.2849635317939896e+00 +0.0000000000000000e+00 -1.1499999992290122e+00 +6.3425643403467599e-05 +0.0000000000000000e+00 +9.9999999798859407e-01
-1.2000000000000004e+00 +8.2849602915596243e+00 +0.0000000000000000e+00 -1.1999999991240051e+00 +6.6183740107656652e-05 +0.0000000000000000e+00 +9.9999999780985649e-01
-1.2500000000000004e+00 +8.2849569134190766e+00 +0.0000000000000000e+00 -1.2499999990098709e+00 +6.8941890975412795e-05 +0.0000000000000000e+00 +9.9999999762350800e-01
-1.3000000000000005e+00 +8.2849533973695930e+00 +0.0000000000000000e+00 -1.2999999988862290e+00 +7.1700097879643011e-05 +0.0000000000000000e+00 +9.9999999742954815e-01
-1.3500000000000005e+00 +8.2849497434083244e+00 +0.0000000000000000e+00 -1.3499999987526987e+00 +7.4458362689196843e-05 +0.0000000000000000e+00 +9.9999999722797628e-01
-1.4000000000000006e+00 +8.2849459515323289e+00 +0.0000000000000000e+00 -1.3999999986088996e+00 +7.7216687268866479e-05 +0.0000000000000000e+00 +9.9999999701879172e-01
-1.4500000000000006e+00 +8.2849420217385710e+00 +0.0000000000000000e+00 -1.4499999984544509e+00 +7.9975073479386806e-05 +0.0000000000000000e+00 +9.9999999680199392e-01
-1.5000000000000007e+00 +8.2849379540239223e+00 +0.0000000000000000e+00 -1.4999999982889720e+00 +8.2733523177435519e-05 +0.0000000000000000e+00 +9.9999999657758221e-01
-1.5500000000000007e+00 +8.2849337483851642e+00 +0.0000000000000000e+00 -1.5499999981120822e+00 +8.5492038215633187e-05 +0.0000000000000000e+00 +9.9999999634555581e-01
-1.6000000000000008e+00 +8.2849294048189819e+00 +0.0000000000000000e+00 -1.5999999979234008e+00 +8.8250620442543334e-05 +0.0000000000000000e+00 +9.9999999610591406e-01
-1.6500000000000008e+00 +8.2849249233219702e+00 +0.0000000000000000e+00 -1.6499999977225468e+00 +9.1009271702672509e-05 +0.0000000000000000e+00 +9.9999999585865629e-01
-1.7000000000000008e+00 +8.2849203038906314e+00 +0.0000000000000000e+00 -1.6999999975091395e+00 +9.3767993836470394e-05 +0.0000000000000000e+00 +9.9999999560378172e-01
-1.7500000000000009e+00 +8.2849155465213755e+00 +0.0000000000000000e+00 -1.7499999972827980e+00 +9.6526788680329869e-05 +0.0000000000000000e+00 +9.9999999534128958e-01
-1.8000000000000009e+00 +8.2849106512105219e+00 +0.0000000000000000e+00 -1.7999999970431415e+00 +9.9285658066587058e-05 +0.0000000000000000e+00 +9.9999999507117909e-01
-1.8500000000000010e+00 +8.2849056179542959e+00 +0.0000000000000000e+00 -1.8499999967897889e+00 +1.0204460382352147e-04 +0.0000000000000000e+00 +9.9999999479344948e-01
-1.9000000000000010e+00 +8.2849004467488356e+00 +0.0000000000000000e+00 -1.8999999965223593e+00 +1.0480362777535601e-04 +0.0000000000000000e+00 +9.9999999450809984e-01
-1.9500000000000011e+00 +8.2848951375901851e+00 +0.0000000000000000e+00 -1.9499999962404717e+00 +1.0756273174225712e-04 +0.0000000000000000e+00 +9.9999999421512942e-01
-2.0000000000000009e+00 +8.2848896904742979e+00 +0.0000000000000000e+00 -1.9999999959437451e+00 +1.1032191754033478e-04 +0.0000000000000000e+00 +9.9999999391453731e-01
-2.0500000000000007e+00 +8.2848841053970368e+00 +0.0000000000000000e+00 -2.0499999956317985e+00 +1.1308118698132925e-04 +0.0000000000000000e+00 +9.9999999360632263e-01
-2.1000000000000005e+00 +8.2848783823541758e+00 +0.0000000000000000e+00 -2.0999999953042505e+00 +1.1584054186916309e-04 +0.0000000000000000e+00 +9.9999999329048450e-01
-2.1500000000000004e+00 +8.2848725213413967e+00 +0.0000000000000000e+00 -2.1499999949607198e+00 +1.1859998399649347e-04 +0.0000000000000000e+00 +9.9999999296702202e-01
-2.2000000000000002e+00 +8.2848665223542923e+00 +0.0000000000000000e+00 -2.1999999946008253e+00 +1.2135951514439866e-04 +0.0000000000000000e+00 +9.9999999263593420e-01
-2.2500000000000000e+00 +8.2848603853883684e+00 +0.0000000000000000e+00 -2.2499999942241860e+00 +1.2411913708237817e-04 +0.0000000000000000e+00 +9.9999999229722003e-01
-2.2999999999999998e+00 +8.2848541104390421e+00 +0.0000000000000000e+00 -2.2999999938304203e+00 +1.2687885156835278e-04 +0.0000000000000000e+00 +9.9999999195087863e-01
-2.3499999999999996e+00 +8.2848476975016414e+00 +0.0000000000000000e+00 -2.3499999934191469e+00 +1.2963866034866459e-04 +0.0000000000000000e+00 +9.9999999159690900e-01
-2.3999999999999995e+00 +8.2848411465714076e+00 +0.0000000000000000e+00 -2.3999999929899842e+00 +1.3239856515807715e-04 +0.0000000000000000e+00 +9.9999999123531014e-01
-2.4499999999999993e+00 +8.2848344576434965e+00 +0.0000000000000000e+00 -2.4499999925425509e+00 +1.3515856771977540e-04 +0.0000000000000000e+00 +9.9999999086608093e-01
-2.4999999999999991e+00 +8.2848276307129787e+00 +0.0000000000000000e+00 -2.4999999920764653e+00 +1.3791866974536583e-04 +0.0000000000000000e+00 +9.9999999048922039e-01
-2.5499999999999989e+00 +8.2848206657748360e+00 +0.0000000000000000e+00 -2.5499999915913456e+00 +1.4067887293487652e-04 +0.0000000000000000e+00 +9.9999999010472751e-01
-2.5999999999999988e+00 +8.2848135628239703e+00 +0.0000000000000000e+00 -2.5999999910868108e+00 +1.4343917897675714e-04 +0.0000000000000000e+00 +9.9999998971260107e-01
-2.6499999999999986e+00 +8.2848063218551964e+00 +0.0000000000000000e+00 -2.6499999905624785e+00 +1.4619958954787906e-04 +0.0000000000000000e+00 +9.9999998931284007e-01
-2.6999999999999984e+00 +8.2847989428632456e+00 +0.0000000000000000e+00 -2.6999999900179672e+00 +1.4896010631353538e-04 +0.0000000000000000e+00 +9.9999998890544339e-01
-2.7499999999999982e+00 +8.2847914258427675e+00 +0.0000000000000000e+00 -2.7499999894528955e+00 +1.5172073092744099e-04 +0.0000000000000000e+00 +9.9999998849040994e-01
-2.7999999999999980e+00 +8.2847837707883283e+00 +0.0000000000000000e+00 -2.7999999888668810e+00 +1.5448146503173259e-04 +0.0000000000000000e+00 +9.9999998806773849e-01
-2.8499999999999979e+00 +8.2847759776944123e+00 +0.0000000000000000e+00 -2.8499999882595421e+00 +1.5724231025696884e-04 +0.0000000000000000e+00 +9.9999998763742792e-01
-2.8999999999999977e+00 +8.2847680465554241e+00 +0.0000000000000000e+00 -2.8999999876304967e+00 +1.6000326822213025e-04 +0.0000000000000000e+00 +9.9999998719947703e-01
-2.9499999999999975e+00 +8.2847599773656846e+00 +0.0000000000000000e+00 -2.9499999869793627e+00 +1.6276434053461936e-04 +0.0000000000000000e+00 +9.9999998675388468e-01
-2.9999999999999973e+00 +8.2847517701194384e+00 +0.0000000000000000e+00 -2.9999999863057578e+00 +1.6552552879026076e-04 +0.0000000000000000e+00 +9.9999998630064957e-01
-3.0499999999999972e+00 +8.2847434248108467e+00 +0.0000000000000000e+00 -3.0499999856093001e+00 +1.6828683457330109e-04 +0.0000000000000000e+00 +9.9999998583977057e-01
-3.0999999999999970e+00 +8.2847349414339959e+00 +0.0000000000000000e+00 -3.0999999848896072e+00 +1.7104825945640911e-04 +0.0000000000000000e+00 +9.9999998537124635e-01
-3.1499999999999968e+00 +8.2847263199828909e+00 +0.0000000000000000e+00 -3.1499999841462971e+00 +1.7380980500067579e-04 +0.0000000000000000e+00 +9.9999998489507569e-01
-3.1999999999999966e+00 +8.2847175604514600e+00 +0.0000000000000000e+00 -3.1999999833789872e+00 +1.7657147275561427e-04 +0.0000000000000000e+00 +9.9999998441125737e-01
-3.2499999999999964e+00 +8.2847086628335536e+00 +0.0000000000000000e+00 -3.2499999825872954e+00 +1.7933326425915996e-04 +0.0000000000000000e+00 +9.9999998391979006e-01
-3.2999999999999963e+00 +8.2846996271229472e+00 +0.0000000000000000e+00 -3.2999999817708390e+00 +1.8209518103767057e-04 +0.0000000000000000e+00 +9.9999998342067242e-01
-3.3499999999999961e+00 +8.2846904533133383e+00 +0.0000000000000000e+00 -3.3499999809292351e+00 +1.8485722460592611e-04 +0.0000000000000000e+00 +9.9999998291390313e-01
-3.3999999999999959e+00 +8.2846811413983499e+00 +0.0000000000000000e+00 -3.3999999800621015e+00 +1.8761939646712902e-04 +0.0000000000000000e+00 +9.9999998239948085e-01
-3.4499999999999957e+00 +8.2846716913715284e+00 +0.0000000000000000e+00 -3.4499999791690557e+00 +1.9038169811290412e-04 +0.0000000000000000e+00 +9.9999998187740435e-01
-3.4999999999999956e+00 +8.2846621032263492e+00 +0.0000000000000000e+00 -3.4999999782497144e+00 +1.9314413102329868e-04 +0.0000000000000000e+00 +9.9999998134767221e-01
-3.5499999999999954e+00 +8.2846523769562133e+00 +0.0000000000000000e+00 -3.5499999773036954e+00 +1.9590669666678245e-04 +0.0000000000000000e+00 +9.9999998081028296e-01
-3.5999999999999952e+00 +8.2846425125544467e+00 +0.0000000000000000e+00 -3.5999999763306154e+00 +1.9866939650024771e-04 +0.0000000000000000e+00 +9.9999998026523529e-01
-3.6499999999999950e+00 +8.2846325100143030e+00 +0.0000000000000000e+00 -3.6499999753300916e+00 +2.0143223196900927e-04 +0.0000000000000000e+00 +9.9999997971252774e-01
-3.6999999999999948e+00 +8.2846223693289645e+00 +0.0000000000000000e+00 -3.6999999743017407e+00 +2.0419520450680454e-04 +0.0000000000000000e+00 +9.9999997915215899e-01
-3.7499999999999947e+00 +8.2846120904915441e+00 +0.0000000000000000e+00 -3.7499999732451799e+00 +2.0695831553579354e-04 +0.0000000000000000e+00 +9.9999997858412759e-01
-3.7999999999999945e+00 +8.2846016734950805e+00 +0.0000000000000000e+00 -3.7999999721600259e+00 +2.0972156646655897e-04 +0.0000000000000000e+00 +9.9999997800843199e-01
-3.8499999999999943e+00 +8.2845911183325427e+00 +0.0000000000000000e+00 -3.8499999710458956e+00 +2.1248495869810618e-04 +0.0000000000000000e+00 +9.9999997742507085e-01
-3.8999999999999941e+00 +8.2845804249968324e+00 +0.0000000000000000e+00 -3.8999999699024053e+00 +2.1524849361786319e-04 +0.0000000000000000e+00 +9.9999997683404263e-01
-3.9499999999999940e+00 +8.2845695934807804e+00 +0.0000000000000000e+00 -3.9499999687291720e+00 +2.1801217260168082e-04 +0.0000000000000000e+00 +9.9999997623534587e-01
-3.9999999999999938e+00 +8.2845586237771496e+00 +0.0000000000000000e+00 -3.9999999675258122e+00 +2.2077599701383259e-04 +0.0000000000000000e+00 +9.9999997562897913e-01
-4.0499999999999936e+00 +8.2845475158786339e+00 +0.0000000000000000e+00 -4.0499999662919421e+00 +2.2353996820692528e-04 +0.0000000000000000e+00 +9.9999997501494087e-01
-4.0999999999999934e+00 +8.2845362697778615e+00 +0.0000000000000000e+00 -4.0999999650271786e+00 +2.2630408752091367e-04 +0.0000000000000000e+00 +9.9999997439322952e-01
-4.1499999999999932e+00 +8.2845248854673912e+00 +0.0000000000000000e+00 -4.1499999637311378e+00 +2.2906835628211541e-04 +0.0000000000000000e+00 +9.9999997376384364e-01
-4.1999999999999931e+00 +8.2845133629397196e+00 +0.0000000000000000e+00 -4.1999999624034352e+00 +2.3183277580312144e-04 +0.0000000000000000e+00 +9.9999997312678157e-01
-4.2499999999999929e+00 +8.2845017021872760e+00 +0.0000000000000000e+00 -4.2499999610436880e+00 +2.3459734738279594e-04 +0.0000000000000000e+00 +9.9999997248204187e-01
-4.2999999999999927e+00 +8.2844899032024255e+00 +0.0000000000000000e+00 -4.2999999596515117e+00 +2.3736207230627641e-04 +0.0000000000000000e+00 +9.9999997182962286e-01
-4.3499999999999925e+00 +8.2844779659774694e+00 +0.0000000000000000e+00 -4.3499999582265225e+00 +2.4012695184497367e-04 +0.0000000000000000e+00 +9.9999997116952299e-01
-4.3999999999999924e+00 +8.2844658905046433e+00 +0.0000000000000000e+00 -4.3999999567683359e+00 +2.4289198725657178e-04 +0.0000000000000000e+00 +9.9999997050174072e-01
-4.4499999999999922e+00 +8.2844536767761241e+00 +0.0000000000000000e+00 -4.4499999552765681e+00 +2.4565717978502810e-04 +0.0000000000000000e+00 +9.9999996982627448e-01
-4.4999999999999920e+00 +8.2844413247840247e+00 +0.0000000000000000e+00 -4.4999999537508355e+00 +2.4842253066057331e-04 +0.0000000000000000e+00 +9.9999996914312261e-01
-4.5499999999999918e+00 +8.2844288345203978e+00 +0.0000000000000000e+00 -4.5499999521907526e+00 +2.5118804109971132e-04 +0.0000000000000000e+00 +9.9999996845228345e-01
-4.5999999999999917e+00 +8.2844162059772355e+00 +0.0000000000000000e+00 -4.5999999505959357e+00 +2.5395371230521932e-04 +0.0000000000000000e+00 +9.9999996775375544e-01
-4.6499999999999915e+00 +8.2844034391464678e+00 +0.0000000000000000e+00 -4.6499999489660002e+00 +2.5671954546614782e-04 +0.0000000000000000e+00 +9.9999996704753691e-01
-4.6999999999999913e+00 +8.2843905340199697e+00 +0.0000000000000000e+00 -4.6999999473005616e+00 +2.5948554175782057e-04 +0.0000000000000000e+00 +9.9999996633362620e-01
-4.7499999999999911e+00 +8.2843774905895540e+00 +0.0000000000000000e+00 -4.7499999455992352e+00 +2.6225170234183451e-04 +0.0000000000000000e+00 +9.9999996561202165e-01
-4.7999999999999909e+00 +8.2843643088469783e+00 +0.0000000000000000e+00 -4.7999999438616356e+00 +2.6501802836605988e-04 +0.0000000000000000e+00 +9.9999996488272158e-01
-4.8499999999999908e+00 +8.2843509887839417e+00 +0.0000000000000000e+00 -4.8499999420873792e+00 +2.6778452096464010e-04 +0.0000000000000000e+00 +9.9999996414572445e-01
-4.8999999999999906e+00 +8.2843375303920865e+00 +0.0000000000000000e+00 -4.8999999402760803e+00 +2.7055118125799186e-04 +0.0000000000000000e+00 +9.9999996340102837e-01
-4.9499999999999904e+00 +8.2843239336630017e+00 +0.0000000000000000e+00 -4.9499999384273536e+00 +2.7331801035280492e-04 +0.0000000000000000e+00 +9.9999996264863178e-01
-4.9999999999999902e+00 +8.2843101985882193e+00 +0.0000000000000000e+00 -4.9999999365408145e+00 +2.7608500934204230e-04 +0.0000000000000000e+00 +9.9999996188853291e-01
-5.0499999999999901e+00 +8.2842963251592181e+00 +0.0000000000000000e+00 -5.0499999346160784e+00 +2.7885217930494015e-04 +0.0000000000000000e+00 +9.9999996112073009e-01
-5.0999999999999899e+00 +8.2842823133674219e+00 +0.0000000000000000e+00 -5.0999999326527590e+00 +2.8161952130700775e-04 +0.0000000000000000e+00 +9.9999996034522165e-01
-5.1499999999999897e+00 +8.2842681632042030e+00 +0.0000000000000000e+00 -5.1499999306504716e+00 +2.8438703640002751e-04 +0.0000000000000000e+00 +9.9999995956200582e-01
-5.1999999999999895e+00 +8.2842538746608803e+00 +0.0000000000000000e+00 -5.1999999286088308e+00 +2.8715472562205487e-04 +0.0000000000000000e+00 +9.9999995877108083e-01
-5.2499999999999893e+00 +8.2842394477287211e+00 +0.0000000000000000e+00 -5.2499999265274511e+00 +2.8992258999741829e-04 +0.0000000000000000e+00 +9.9999995797244490e-01
-5.2999999999999892e+00 +8.2842248823989433e+00 +0.0000000000000000e+00 -5.2999999244059470e+00 +2.9269063053671937e-04 +0.0000000000000000e+00 +9.9999995716609635e-01
-5.3499999999999890e+00 +8.2842101786627147e+00 +0.0000000000000000e+00 -5.3499999222439323e+00 +2.9545884823683262e-04 +0.0000000000000000e+00 +9.9999995635203343e-01
-5.3999999999999888e+00 +8.2841953365111518e+00 +0.0000000000000000e+00 -5.3999999200410214e+00 +2.9822724408090553e-04 +0.0000000000000000e+00 +9.9999995553025434e-01
-5.4499999999999886e+00 +8.2841803559353213e+00 +0.0000000000000000e+00 -5.4499999177968288e+00 +3.0099581903835854e-04 +0.0000000000000000e+00 +9.9999995470075731e-01
-5.4999999999999885e+00 +8.2841652369262455e+00 +0.0000000000000000e+00 -5.4999999155109682e+00 +3.0376457406488497e-04 +0.0000000000000000e+00 +9.9999995386354057e-01
-5.5499999999999883e+00 +8.2841499794748970e+00 +0.0000000000000000e+00 -5.5499999131830542e+00 +3.0653351010245106e-04 +0.0000000000000000e+00 +9.9999995301860234e-01
-5.5999999999999881e+00 +8.2841345835722020e+00 +0.0000000000000000e+00 -5.5999999108127003e+00 +3.0930262807929578e-04 +0.0000000000000000e+00 +9.9999995216594084e-01
-5.6499999999999879e+00 +8.2841190492090409e+00 +0.0000000000000000e+00 -5.6499999083995203e+00 +3.1207192890993099e-04 +0.0000000000000000e+00 +9.9999995130555430e-01
-5.6999999999999877e+00 +8.2841033763762475e+00 +0.0000000000000000e+00 -5.6999999059431277e+00 +3.1484141349514118e-04 +0.0000000000000000e+00 +9.9999995043744083e-01
-5.7499999999999876e+00 +8.2840875650646133e+00 +0.0000000000000000e+00 -5.7499999034431362e+00 +3.1761108272198365e-04 +0.0000000000000000e+00 +9.9999994956159866e-01
-5.7999999999999874e+00 +8.2840716152648834e+00 +0.0000000000000000e+00 -5.7999999008991594e+00 +3.2038093746378834e-04 +0.0000000000000000e+00 +9.9999994867802600e-01
-5.8499999999999872e+00 +8.2840555269677605e+00 +0.0000000000000000e+00 -5.8499998983108101e+00 +3.2315097858015779e-04 +0.0000000000000000e+00 +9.9999994778672097e-01
