# multipoles
# s[mm] polynom_b[n=0][T/m^n] polynom_b[n=1][T/m^n] polynom_b[n=2][T/m^n] polynom_b[n=3][T/m^n] polynom_b[n=4][T/m^n] polynom_b[n=5][T/m^n] polynom_b[n=6][T/m^n] 
+0.0000000000000000e+00 -5.2320708773488223e-01 +6.8610081919197992e+00 +4.3789738947290990e+00 -1.3926068397874511e+02 +6.7056389229696179e+03 +4.6368289961937681e+05 -3.2716801844370387e+07 
+5.0000000000000003e-02 -5.2320555408804970e-01 +6.8609495268451779e+00 +4.3819210862105686e+00 -1.3947958358358193e+02 +6.6912131045326951e+03 +4.6524904492301267e+05 -3.2664046169796363e+07 
+1.0000000000000001e-01 -5.2320439148339037e-01 +6.8609109967599231e+00 +4.3844301500811120e+00 -1.3970344051886434e+02 +6.6768977195737825e+03 +4.6690649797724409e+05 -3.2612777491274938e+07 
+1.5000000000000002e-01 -5.2320359916632275e-01 +6.8608925575408382e+00 +4.3864938672041012e+00 -1.3993179515372455e+02 +6.6628147958864174e+03 +4.6864991272397916e+05 -3.2563503691944417e+07 
+2.0000000000000001e-01 -5.2320317638225167e-01 +6.8608941650673634e+00 +4.3881050123614278e+00 -1.4016418795909311e+02 +6.6490865321071878e+03 +4.7047394403235911e+05 -3.2516733835893668e+07 
+2.5000000000000000e-01 -5.2320312237663269e-01 +6.8609157752172285e+00 +4.3892563672274143e+00 -1.4040015929594912e+02 +6.6358349317508573e+03 +4.7237324580796121e+05 -3.2472975637349833e+07 
+2.9999999999999999e-01 -5.2320343639491018e-01 +6.8609573438711164e+00 +4.3899407074299770e+00 -1.4063924962418457e+02 +6.6231821704452059e+03 +4.7434247279877431e+05 -3.2432738006381802e+07 
+3.4999999999999998e-01 -5.2320411768256347e-01 +6.8610188269092864e+00 +4.3901508126346913e+00 -1.4088099936226217e+02 +6.6112503073400667e+03 +4.7637627942006948e+05 -3.2396529040932525e+07 
+3.9999999999999997e-01 -5.2320516548507612e-01 +6.8611001802142333e+00 +4.3898794597248374e+00 -1.4112494897828586e+02 +6.6001614810233887e+03 +4.7846932043216540e+05 -3.2364857391581744e+07 
+4.4999999999999996e-01 -5.2320657904795742e-01 +6.8612013596652623e+00 +4.3891194274266034e+00 -1.4137063879479797e+02 +6.5900377781409361e+03 +4.8061624944802921e+05 -3.2338231351873942e+07 
+4.9999999999999994e-01 -5.2320835761673223e-01 +6.8613223211477798e+00 +4.3878634940956918e+00 -1.4161760935456098e+02 +6.5810012973270786e+03 +4.8281172187696467e+05 -3.2317159306167144e+07 
+5.4999999999999993e-01 -5.2321050043693940e-01 +6.8614630205430895e+00 +4.3861044377483864e+00 -1.4186540100141065e+02 +6.5731741426626540e+03 +4.8505039147200820e+05 -3.2302149659310646e+07 
+5.9999999999999998e-01 -5.2321300675414317e-01 +6.8616234137369245e+00 +4.3838350375402708e+00 -1.4211355422772255e+02 +6.5666783912892697e+03 +4.8732691318029648e+05 -3.2293710649334937e+07 
+6.5000000000000002e-01 -5.2321587581389573e-01 +6.8618034566146990e+00 +4.3810480680796990e+00 -1.4236160949349318e+02 +6.5616362394055996e+03 +4.8963594170677382e+05 -3.2292351308527909e+07 
+7.0000000000000007e-01 -5.2321910686182183e-01 +6.8620031050623327e+00 +4.3777363132381986e+00 -1.4260910724265611e+02 +6.5581696382978407e+03 +4.9197213158356183e+05 -3.2298579030486129e+07 
+7.5000000000000011e-01 -5.2322269914349961e-01 +6.8622223149679371e+00 +4.3738925463502696e+00 -1.4285558797979232e+02 +6.5564008164799534e+03 +4.9433013782222534e+05 -3.2312903056690045e+07 
+8.0000000000000016e-01 -5.2322665190456774e-01 +6.8624610422173635e+00 +4.3695095478954702e+00 -1.4310059209532412e+02 +6.5564518168167870e+03 +4.9670461450640525e+05 -3.2335831401617900e+07 
+8.5000000000000020e-01 -5.2323096439065719e-01 +6.8627192427019539e+00 +4.3645800947659934e+00 -1.4334366016263891e+02 +6.5584447712087940e+03 +4.9909021716095891e+05 -3.2367872650691971e+07 
+9.0000000000000024e-01 -5.2323563584743027e-01 +6.8629968723092150e+00 +4.3590969655212017e+00 -1.4358433258331968e+02 +6.5625017756639681e+03 +5.0148159994017950e+05 -3.2409535181741849e+07 
+9.5000000000000029e-01 -5.2324066552056081e-01 +6.8632938869330422e+00 +4.3530529388752122e+00 -1.4382214997531165e+02 +6.5687449126535048e+03 +5.0387341868630267e+05 -3.2461327245138045e+07 
+1.0000000000000002e+00 -5.2324605265573465e-01 +6.8636102424624177e+00 +4.3464407920644508e+00 -1.4405665273831821e+02 +6.5772963109068805e+03 +5.0626032747914386e+05 -3.2523757427675441e+07 
+1.0500000000000003e+00 -5.2325179649865783e-01 +6.8639458947922174e+00 +4.3392533034303682e+00 -1.4428738147618563e+02 +6.5882780652533547e+03 +5.0863698202782503e+05 -3.2597334071044650e+07 
+1.1000000000000003e+00 -5.2325789629505159e-01 +6.8643007998145533e+00 +4.3314832508182519e+00 -1.4451387664840559e+02 +6.6018122868162900e+03 +5.1099803682083607e+05 -3.2682565636572991e+07 
+1.1500000000000004e+00 -5.2326435129065096e-01 +6.8646749134258140e+00 +4.3231234114798740e+00 -1.4473567886398058e+02 +6.6180211038029493e+03 +5.1333814756517543e+05 -3.2779960704614449e+07 
+1.2000000000000004e+00 -5.2327116073120938e-01 +6.8650681915209635e+00 +4.3141665636180448e+00 -1.4495232863707815e+02 +6.6370266127243840e+03 +5.1565196914276131e+05 -3.2890027617064819e+07 
+1.2500000000000004e+00 -5.2327832386250361e-01 +6.8654805899979818e+00 +4.3046054863344603e+00 -1.4516336657485675e+02 +6.6589508903526075e+03 +5.1793415717120765e+05 -3.3013274598428957e+07 
+1.3000000000000005e+00 -5.2328583993030697e-01 +6.8659120647551504e+00 +4.2944329553113070e+00 -1.4536833327239376e+02 +6.6839161056331359e+03 +5.2017936715237552e+05 -3.3150210494637381e+07 
+1.3500000000000005e+00 -5.2329370818042775e-01 +6.8663625716903978e+00 +4.2836417494928538e+00 -1.4556676926835294e+02 +6.7120443379459211e+03 +5.2238225406228320e+05 -3.3301343537582569e+07 
+1.4000000000000006e+00 -5.2330192785867768e-01 +6.8668320667062970e+00 +4.2722246458918409e+00 -1.4575821527009458e+02 +6.7434577183630827e+03 +5.2453747425458103e+05 -3.3467182307882696e+07 
+1.4500000000000006e+00 -5.2331049821089037e-01 +6.8673205057014766e+00 +4.2601744220496380e+00 -1.4594221178412187e+02 +6.7782783674291995e+03 +5.2663968237370788e+05 -3.3648235325022422e+07 
+1.5000000000000007e+00 -5.2331941848291619e-01 +6.8678278445820116e+00 +4.2474838562148820e+00 -1.4611829959276062e+02 +6.8166283816213408e+03 +5.2868353529564315e+05 -3.3845010926007777e+07 
+1.5500000000000007e+00 -5.2332868792060638e-01 +6.8683540392484508e+00 +4.2341457236305935e+00 -1.4628601921884055e+02 +6.8586299405858917e+03 +5.3066368772921339e+05 -3.4058018014404409e+07 
+1.6000000000000008e+00 -5.2333830576985707e-01 +6.8688990456088259e+00 +4.2201528049023214e+00 -1.4644491146603789e+02 +6.9044050786511161e+03 +5.3257479666729702e+05 -3.4287764509481430e+07 
+1.6500000000000008e+00 -5.2334827127654537e-01 +6.8694628195679401e+00 +4.2054978742476790e+00 -1.4659451696248803e+02 +6.9540760038014487e+03 +5.3441151757415291e+05 -3.4534759504252791e+07 
+1.7000000000000008e+00 -5.2335858368658850e-01 +6.8700453170347018e+00 +4.1901737101876240e+00 -1.4673437647477351e+02 +7.0077648083251825e+03 +5.3616850702132029e+05 -3.4799511310393989e+07 
+1.7500000000000009e+00 -5.2336924224590387e-01 +6.8706464939162437e+00 +4.1741730887923962e+00 -1.4686403067554073e+02 +7.0655936469889502e+03 +5.3784042080946942e+05 -3.5082528644296944e+07 
+1.8000000000000009e+00 -5.2338024620044010e-01 +6.8712663061245376e+00 +4.1574887886804310e+00 -1.4698302037518286e+02 +7.1276846085168772e+03 +5.3942191571123106e+05 -3.5384319783708766e+07 
+1.8500000000000010e+00 -5.2339159479614239e-01 +6.8719047095699173e+00 +4.1401135850386765e+00 -1.4709088631423606e+02 +7.1941598752722184e+03 +5.4090764799380826e+05 -3.5705393642035969e+07 
+1.9000000000000010e+00 -5.2340328727897889e-01 +6.8725616601650446e+00 +4.1220402543967882e+00 -1.4718716928095679e+02 +7.2651415902475628e+03 +5.4229227421236678e+05 -3.6046258847280905e+07 
+1.9500000000000011e+00 -5.2341532289494230e-01 +6.8732371138250441e+00 +4.1032615751150647e+00 -1.4727141012639032e+02 +7.3407518487105599e+03 +5.4357045136838709e+05 -3.6407423713383242e+07 
+2.0000000000000009e+00 -5.2342770089002644e-01 +6.8739310264642981e+00 +4.0837703227223336e+00 -1.4734314964506038e+02 +7.4211128231598286e+03 +5.4473683598136960e+05 -3.6789397072245799e+07 
+2.0500000000000007e+00 -5.2344042034505844e-01 +6.8746433360777131e+00 +4.0635633387281285e+00 -1.4740201015197400e+02 +7.5062933625567357e+03 +5.4578727819494100e+05 -3.7192459166711241e+07 
+2.1000000000000005e+00 -5.2345347968052247e-01 +6.8753739040427631e+00 +4.0426542927179110e+00 -1.4744800149533225e+02 +7.5961493256327694e+03 +5.4672280261210073e+05 -3.7615994499331184e+07 
+2.1500000000000004e+00 -5.2346687715183848e-01 +6.8761225713570244e+00 +4.0210611963677527e+00 -1.4748124715651937e+02 +7.6904838793730141e+03 +5.4754583341712842e+05 -3.8059171479170322e+07 
+2.2000000000000002e+00 -5.2348061101447318e-01 +6.8768891790155600e+00 +3.9988020673093083e+00 -1.4750187051379146e+02 +7.7891000326437916e+03 +5.4825879399084242e+05 -3.8521157455136269e+07 
+2.2500000000000000e+00 -5.2349467952390105e-01 +6.8776735680141297e+00 +3.9758949225992262e+00 -1.4750999496053046e+02 +7.8918008077329705e+03 +5.4886410784840211e+05 -3.9001119859347083e+07 
+2.2999999999999998e+00 -5.2350908093558735e-01 +6.8784755793532675e+00 +3.9523577755597272e+00 -1.4750574405889390e+02 +7.9983893284891810e+03 +5.4936419985031988e+05 -3.9498226814815871e+07 
+2.3499999999999996e+00 -5.2352381350502619e-01 +6.8792950540278168e+00 +3.9282086425566072e+00 -1.4748924113958492e+02 +8.1086686350738910e+03 +5.4976149302075093e+05 -4.0011645872076638e+07 
+2.3999999999999995e+00 -5.2353887548772138e-01 +6.8801318330361010e+00 +3.9034655398675531e+00 -1.4746060966856484e+02 +8.2224417701287020e+03 +5.5005841153130587e+05 -4.0540544601949073e+07 
+2.4499999999999993e+00 -5.2355426513919290e-01 +6.8809857573739182e+00 +3.8781464843447275e+00 -1.4741997298261839e+02 +8.3395117615158779e+03 +5.5025737844746804e+05 -4.1084090477793925e+07 
+2.4999999999999991e+00 -5.2356998071495175e-01 +6.8818566680406192e+00 +3.8522694896057339e+00 -1.4736745457083811e+02 +8.4596817232985213e+03 +5.5036081817278359e+05 -4.1641451551960759e+07 
+2.5499999999999989e+00 -5.2358602047053759e-01 +6.8827444060317742e+00 +3.8258525724381163e+00 -1.4730317774863101e+02 +8.5827546829007424e+03 +5.5037115366658953e+05 -4.2211795289717928e+07 
+2.5999999999999988e+00 -5.2360238266149262e-01 +6.8836488123460819e+00 +3.7989137484990412e+00 -1.4722726596354801e+02 +8.7085336963843565e+03 +5.5029080904606963e+05 -4.2794289344100691e+07 
+2.6499999999999986e+00 -5.2361906554337323e-01 +6.8845697279798719e+00 +3.7714710337230062e+00 -1.4713984254504987e+02 +8.8368218164193549e+03 +5.5012220742272050e+05 -4.3388101361898944e+07 
+2.6999999999999984e+00 -5.2363606737173596e-01 +6.8855069939285665e+00 +3.7435424427407478e+00 -1.4704103080109152e+02 +8.9674221247165824e+03 +5.4986777185487282e+05 -4.3992399162926562e+07 
+2.7499999999999982e+00 -5.2365338640216164e-01 +6.8864604511903504e+00 +3.7151459923655681e+00 -1.4693095412662353e+02 +9.1001376497076399e+03 +5.4952992606047494e+05 -4.4606350232458048e+07 
+2.7999999999999980e+00 -5.2367102089023043e-01 +6.8874299407610655e+00 +3.6862996981548655e+00 -1.4680973583553501e+02 +9.2347714471202216e+03 +5.4911109319960815e+05 -4.5229122214903280e+07 
+2.8499999999999979e+00 -5.2368896909152984e-01 +6.8884153036367817e+00 +3.6570215747103285e+00 -1.4667749923768949e+02 +9.3711266036254856e+03 +5.4861369639350078e+05 -4.5859882985631227e+07 
+2.8999999999999977e+00 -5.2370722926165969e-01 +6.8894163808120696e+00 +3.6273296380664419e+00 -1.4653436758422569e+02 +9.5090061609901168e+03 +5.4804015834019217e+05 -4.6497800096823089e+07 
+2.9499999999999975e+00 -5.2372579965624066e-01 +6.8904330132830633e+00 +3.5972419055912215e+00 -1.4638046419080476e+02 +9.6482131297303804e+03 +5.4739290231895156e+05 -4.7142040906455882e+07 
+2.9999999999999973e+00 -5.2374467853086892e-01 +6.8914650420441186e+00 +3.5667763891214448e+00 -1.4621591230127271e+02 +9.7885506668629132e+03 +5.4667435106142343e+05 -4.7791773755379409e+07 
+3.0499999999999972e+00 -5.2376386414118614e-01 +6.8925123080892474e+00 +3.5359511075219583e+00 -1.4604083514421703e+02 +9.9298217357366375e+03 +5.4588692721954628e+05 -4.8446165663723759e+07 
+3.0999999999999970e+00 -5.2378335474282178e-01 +6.8935746524116999e+00 +3.5047840752100949e+00 -1.4585535592183095e+02 +1.0071829427506331e+04 +5.4503305328412633e+05 -4.9104384546446636e+07 
+3.1499999999999968e+00 -5.2380314859141086e-01 +6.8946519160046718e+00 +3.4732933072444223e+00 -1.4565959783719001e+02 +1.0214376804743568e+04 +5.4411515180679911e+05 -4.9765598085163675e+07 
+3.1999999999999966e+00 -5.2382324394261226e-01 +6.8957439398607558e+00 +3.4414968204751322e+00 -1.4545368407503923e+02 +1.0357266892754587e+04 +5.4313564525165909e+05 -5.0428973754042588e+07 
+3.2499999999999964e+00 -5.2384363905207632e-01 +6.8968505649704799e+00 +3.4094126298062495e+00 -1.4523773773518141e+02 +1.0500302757729094e+04 +5.4209695542648109e+05 -5.1093679261619441e+07 
+3.2999999999999963e+00 -5.2386433217546091e-01 +6.8979716323241904e+00 +3.3770587499165057e+00 -1.4501188192327646e+02 +1.0643287478236676e+04 +5.4100150427224010e+05 -5.1758882428528115e+07 
+3.3499999999999961e+00 -5.2388532156845624e-01 +6.8991069829149421e+00 +3.3444531999119693e+00 -1.4477623985801137e+02 +1.0786024010302757e+04 +5.3985171469965321e+05 -5.2423750236922115e+07 
+3.3999999999999959e+00 -5.2390660548670709e-01 +6.9002564577278482e+00 +3.3116139895940884e+00 -1.4453093444576254e+02 +1.0928315561430687e+04 +5.3865000714078068e+05 -5.3087451371736631e+07 
+3.4499999999999957e+00 -5.2392818218592785e-01 +6.9014198977538914e+00 +3.2785591403661369e+00 -1.4427608883922403e+02 +1.1069965024486699e+04 +5.3739880410682689e+05 -5.3749152394056141e+07 
+3.4999999999999956e+00 -5.2395004992178529e-01 +6.9025971439793645e+00 +3.2453066637332366e+00 -1.4401182600711053e+02 +1.1210775558128686e+04 +5.3610052666158869e+05 -5.4408021652264588e+07 
+3.5499999999999954e+00 -5.2397220694999058e-01 +6.9037880373900489e+00 +3.2118745779786790e+00 -1.4373826891488116e+02 +1.1350550139931689e+04 +5.3475759593635146e+05 -5.5063226286024034e+07 
+3.5999999999999952e+00 -5.2399465152623315e-01 +6.9049924189715757e+00 +3.1782808967765304e+00 -1.4345554052985113e+02 +1.1489091868579950e+04 +5.3337243314681784e+05 -5.5713934243481874e+07 
+3.6499999999999950e+00 -5.2401738190622216e-01 +6.9062101297089500e+00 +3.1445436362804555e+00 -1.4316376380606062e+02 +1.1626203775350315e+04 +5.3194745946041076e+05 -5.6359313018369764e+07 
+3.6999999999999948e+00 -5.2404039634567823e-01 +6.9074410105834030e+00 +3.1106808134920954e+00 -1.4286306155891594e+02 +1.1761688869674443e+04 +5.3048509501341463e+05 -5.6998529964328207e+07 
+3.7499999999999947e+00 -5.2406369310030754e-01 +6.9086849025780603e+00 +3.0767104422557940e+00 -1.4255355669459681e+02 +1.1895350243267239e+04 +5.2898776074323931e+05 -5.7630752984810717e+07 
+3.7999999999999945e+00 -5.2408727042584247e-01 +6.9099416466739711e+00 +3.0426505400306381e+00 -1.4223537205036493e+02 +1.2026990889804832e+04 +5.2745787711952429e+05 -5.8255149319881767e+07 
+3.8499999999999943e+00 -5.2411112657800341e-01 +6.9112110838480785e+00 +3.0085191211906497e+00 -1.4190863031277033e+02 +1.2156413888972922e+04 +5.2589786346419516e+05 -5.8870886808925852e+07 
+3.8999999999999941e+00 -5.2413525981252163e-01 +6.9124930550813257e+00 +2.9743342016620926e+00 -1.4157345435297546e+02 +1.2283422272037653e+04 +5.2431014071090450e+05 -5.9477132940680631e+07 
+3.9499999999999940e+00 -5.2415966838514305e-01 +6.9137874013475846e+00 +2.9401137990656356e+00 -1.4122996676621491e+02 +1.2407819026771687e+04 +5.2269712760395679e+05 -6.0073054924036585e+07 
+3.9999999999999938e+00 -5.2418435055158996e-01 +6.9150939636255151e+00 +2.9058759258326328e+00 -1.4087829035957597e+02 +1.2529407283123604e+04 +5.2106124473624240e+05 -6.0657820938270040e+07 
+4.0499999999999936e+00 -5.2420930441804814e-01 +6.9164125830627396e+00 +2.8716360338935001e+00 -1.4051856376379419e+02 +1.2648027184622813e+04 +5.1940462516483187e+05 -6.1230759813254148e+07 
+4.0999999999999934e+00 -5.2423452749221766e-01 +6.9177430943658695e+00 +2.8373993057528062e+00 -1.4015092158385522e+02 +1.2763669224710786e+04 +5.1772771018604439e+05 -6.1791837466384940e+07 
+4.1499999999999932e+00 -5.2426001713209092e-01 +6.9190853288457665e+00 +2.8031683733787154e+00 -1.3977548035500490e+02 +1.2876361814096974e+04 +5.1603037145984516e+05 -6.2341175694929302e+07 
+4.1999999999999931e+00 -5.2428577069568494e-01 +6.9204391178069313e+00 +2.7689458726724507e+00 -1.3939235635407633e+02 +1.2986133254236724e+04 +5.1431247845625173e+05 -6.2878895536570273e+07 
+4.2499999999999929e+00 -5.2431178554101321e-01 +6.9218042925530945e+00 +2.7347344380197161e+00 -1.3900166583261614e+02 +1.3093011897473642e+04 +5.1257390045311645e+05 -6.3405118414339453e+07 
+4.2999999999999927e+00 -5.2433805902608632e-01 +6.9231806843936852e+00 +2.7005367031435821e+00 -1.3860352529052639e+02 +1.3197026106343574e+04 +5.1081450881651195e+05 -6.3919965785599232e+07 
+4.3499999999999925e+00 -5.2436458850892176e-01 +6.9245681246318727e+00 +2.6663553025710445e+00 -1.3819805095315834e+02 +1.3298204225584625e+04 +5.0903417258120782e+05 -6.4423559003557079e+07 
+4.3999999999999924e+00 -5.2439137134754266e-01 +6.9259664445731177e+00 +2.6321928718541305e+00 -1.3778535917286266e+02 +1.3396574567464826e+04 +5.0723276193697588e+05 -6.4916019183189899e+07 
+4.4499999999999922e+00 -5.2441840489996039e-01 +6.9273754755241441e+00 +2.5980520436411658e+00 -1.3736556634452748e+02 +1.3492165530312372e+04 +5.0541014737443149e+05 -6.5397468048717901e+07 
+4.4999999999999920e+00 -5.2444568652419976e-01 +6.9287950487873191e+00 +2.5639354533235026e+00 -1.3693878869932374e+02 +1.3585005430800389e+04 +5.0356619807727827e+05 -6.5868026743377112e+07 
+4.5499999999999918e+00 -5.2447321357828336e-01 +6.9302249956688806e+00 +2.5298457354106230e+00 -1.3650514262702151e+02 +1.3675122613004822e+04 +5.0170078452252812e+05 -6.6327816607102692e+07 
+4.5999999999999917e+00 -5.2450098342022833e-01 +6.9316651474734687e+00 +2.4957855232633817e+00 -1.3606474446482093e+02 +1.3762545453294746e+04 +4.9981377677554067e+05 -6.6776959203367472e+07 
+4.6499999999999915e+00 -5.2452899340806125e-01 +6.9331153355030555e+00 +2.4617574521974275e+00 -1.3561771044787284e+02 +1.3847302272063062e+04 +4.9790504407791828e+05 -6.7215575704239130e+07 
+4.6999999999999913e+00 -5.2455724089980116e-01 +6.9345753910623404e+00 +2.4277641556862797e+00 -1.3516415693651209e+02 +1.3929421442995390e+04 +4.9597445672529674e+05 -6.7643787653018087e+07 
+4.7499999999999911e+00 -5.2458572325347663e-01 +6.9360451454539334e+00 +2.3938082689100506e+00 -1.3470420020228963e+02 +1.4008931294786244e+04 +4.9402188424197456e+05 -6.8061716293065637e+07 
+4.7999999999999909e+00 -5.2461443782711115e-01 +6.9375244299832213e+00 +2.3598924269931292e+00 -1.3423795664994825e+02 +1.4085860147579118e+04 +4.9204719730305625e+05 -6.8469482768498465e+07 
+4.8499999999999908e+00 -5.2464338197871740e-01 +6.9390130759509105e+00 +2.3260192620416564e+00 -1.3376554250142377e+02 +1.4160236418880962e+04 +4.9005026507702930e+05 -6.8867208945187539e+07 
+4.8999999999999906e+00 -5.2467255306632432e-01 +6.9405109146589243e+00 +2.2921914100152305e+00 -1.3328707403820928e+02 +1.4232088409976961e+04 +4.8803095723625086e+05 -6.9255015850103453e+07 
+4.9499999999999904e+00 -5.2470194844794749e-01 +6.9420177774106335e+00 +2.2584115042909376e+00 -1.3280266761448709e+02 +1.4301444498034882e+04 +4.8598914406484074e+05 -6.9633025048630938e+07 
+4.9999999999999902e+00 -5.2473156548160749e-01 +6.9435334955072090e+00 +2.2246821796022234e+00 -1.3231243949161453e+02 +1.4368333021956347e+04 +4.8392469504250796e+05 -7.0001357840668797e+07 
+5.0499999999999901e+00 -5.2476140152532036e-01 +6.9450579002506316e+00 +2.1910060700836036e+00 -1.3181650599540407e+02 +1.4432782334223921e+04 +4.8183748025750031e+05 -7.0360135603271604e+07 
