# field on trajectory
# s[mm] rx[mm] ry[mm] rz[mm] bx[T] by[T] bz[T]
0.0000000000000000e+00 +8.3650000000000002e+00 +0.0000000000000000e+00 +0.0000000000000000e+00 -3.0553019986052168e-02 -5.7929548281219612e-01 +5.0012205938209870e-03
5.0000000000000003e-02 +8.3649999309597529e+00 +0.0000000000000000e+00 +4.9999999999936449e-02 -3.0554358966099825e-02 -5.7929540021933801e-01 +5.0012693033781655e-03
1.0000000000000001e-01 +8.3649997238390110e+00 +0.0000000000000000e+00 +9.9999999999491565e-02 -3.0555719904955595e-02 -5.7929571971283977e-01 +5.0013348661175428e-03
1.5000000000000002e-01 +8.3649993786376964e+00 +0.0000000000000000e+00 +1.4999999999828403e-01 -3.0557102694176837e-02 -5.7929644023740001e-01 +5.0014173133160634e-03
2.0000000000000001e-01 +8.3649988953556385e+00 +0.0000000000000000e+00 +1.9999999999593254e-01 -3.0558507225321985e-02 -5.7929756073773642e-01 +5.0015166762515271e-03
2.5000000000000000e-01 +8.3649982739925690e+00 +0.0000000000000000e+00 +2.4999999999205574e-01 -3.0559933389950548e-02 -5.7929908015858711e-01 +5.0016329862026098e-03
2.9999999999999999e-01 +8.3649975145481257e+00 +0.0000000000000000e+00 +2.9999999998627230e-01 -3.0561381079623039e-02 -5.7930099744470709e-01 +5.0017662744488338e-03
3.4999999999999998e-01 +8.3649966170218537e+00 +0.0000000000000000e+00 +3.4999999997820086e-01 -3.0562850185900992e-02 -5.7930331154087267e-01 +5.0019165722706019e-03
3.9999999999999997e-01 +8.3649955814131989e+00 +0.0000000000000000e+00 +3.9999999996746011e-01 -3.0564340600346886e-02 -5.7930602139187759e-01 +5.0020839109491538e-03
4.4999999999999996e-01 +8.3649944077215181e+00 +0.0000000000000000e+00 +4.4999999995366868e-01 -3.0565852214524139e-02 -5.7930912594253448e-01 +5.0022683217666062e-03
4.9999999999999994e-01 +8.3649930959460690e+00 +0.0000000000000000e+00 +4.9999999993644528e-01 -3.0567384919997092e-02 -5.7931262413767504e-01 +5.0024698360059275e-03
5.4999999999999993e-01 +8.3649916460860183e+00 +0.0000000000000000e+00 +5.4999999991540849e-01 -3.0568938608330935e-02 -5.7931651492214908e-01 +5.0026884849509413e-03
5.9999999999999998e-01 +8.3649900581404388e+00 +0.0000000000000000e+00 +5.9999999989017694e-01 -3.0570513171091721e-02 -5.7932079724082441e-01 +5.0029242998863334e-03
6.5000000000000002e-01 +8.3649883321083109e+00 +0.0000000000000000e+00 +6.4999999986036916e-01 -3.0572108499846321e-02 -5.7932547003858759e-01 +5.0031773120976378e-03
7.0000000000000007e-01 +8.3649864679885191e+00 +0.0000000000000000e+00 +6.9999999982560390e-01 -3.0573724486162381e-02 -5.7933053226034348e-01 +5.0034475528712534e-03
7.5000000000000011e-01 +8.3649844657798589e+00 +0.0000000000000000e+00 +7.4999999978549958e-01 -3.0575361021608318e-02 -5.7933598285101373e-01 +5.0037350534944238e-03
8.0000000000000016e-01 +8.3649823254810300e+00 +0.0000000000000000e+00 +7.9999999973967495e-01 -3.0577017997753225e-02 -5.7934182075553908e-01 +5.0040398452552469e-03
8.5000000000000020e-01 +8.3649800470906399e+00 +0.0000000000000000e+00 +8.4999999968774842e-01 -3.0578695306166984e-02 -5.7934804491887748e-01 +5.0043619594426813e-03
9.0000000000000024e-01 +8.3649776306072052e+00 +0.0000000000000000e+00 +8.9999999962933863e-01 -3.0580392838420054e-02 -5.7935465428600375e-01 +5.0047014273465291e-03
9.5000000000000029e-01 +8.3649750760291521e+00 +0.0000000000000000e+00 +9.4999999956406400e-01 -3.0582110486083579e-02 -5.7936164780191213e-01 +5.0050582802574429e-03
1.0000000000000002e+00 +8.3649723833548126e+00 +0.0000000000000000e+00 +9.9999999949154317e-01 -3.0583848140729290e-02 -5.7936902441161175e-01 +5.0054325494669283e-03
1.0500000000000003e+00 +8.3649695525824281e+00 +0.0000000000000000e+00 +1.0499999994113947e+00 -3.0585605693929489e-02 -5.7937678306013096e-01 +5.0058242662673379e-03
1.1000000000000003e+00 +8.3649665837101512e+00 +0.0000000000000000e+00 +1.0999999993232368e+00 -3.0587383037257037e-02 -5.7938492269251396e-01 +5.0062334619518731e-03
1.1500000000000004e+00 +8.3649634767360403e+00 +0.0000000000000000e+00 +1.1499999992266881e+00 -3.0589180062285313e-02 -5.7939344225382250e-01 +5.0066601678145865e-03
1.2000000000000004e+00 +8.3649602316580651e+00 +0.0000000000000000e+00 +1.1999999991213668e+00 -3.0590996660588170e-02 -5.7940234068913465e-01 +5.0071044151503681e-03
1.2500000000000004e+00 +8.3649568484741046e+00 +0.0000000000000000e+00 +1.2499999990068915e+00 -3.0592832723739919e-02 -5.7941161694354681e-01 +5.0075662352549620e-03
1.3000000000000005e+00 +8.3649533271819472e+00 +0.0000000000000000e+00 +1.2999999988828805e+00 -3.0594688143315289e-02 -5.7942126996216936e-01 +5.0080456594249522e-03
1.3500000000000005e+00 +8.3649496677792925e+00 +0.0000000000000000e+00 +1.3499999987489524e+00 -3.0596562810889447e-02 -5.7943129869013099e-01 +5.0085427189577696e-03
1.4000000000000006e+00 +8.3649458702637496e+00 +0.0000000000000000e+00 +1.3999999986047253e+00 -3.0598456618037860e-02 -5.7944170207257628e-01 +5.0090574451516854e-03
1.4500000000000006e+00 +8.3649419346328386e+00 +0.0000000000000000e+00 +1.4499999984498175e+00 -3.0600369456336360e-02 -5.7945247905466624e-01 +5.0095898693058123e-03
1.5000000000000007e+00 +8.3649378608839928e+00 +0.0000000000000000e+00 +1.4999999982838474e+00 -3.0602301217361117e-02 -5.7946362858157774e-01 +5.0101400227201102e-03
1.5500000000000007e+00 +8.3649336490145529e+00 +0.0000000000000000e+00 +1.5499999981064332e+00 -3.0604251792688535e-02 -5.7947514959850344e-01 +5.0107079366953728e-03
1.6000000000000008e+00 +8.3649292990217727e+00 +0.0000000000000000e+00 +1.5999999979171928e+00 -3.0606221073895264e-02 -5.7948704105065207e-01 +5.0112936425332376e-03
1.6500000000000008e+00 +8.3649248109028189e+00 +0.0000000000000000e+00 +1.6499999977157449e+00 -3.0608208952558193e-02 -5.7949930188324850e-01 +5.0118971715361815e-03
1.7000000000000008e+00 +8.3649201846547676e+00 +0.0000000000000000e+00 +1.6999999975017073e+00 -3.0610215320254371e-02 -5.7951193104153254e-01 +5.0125185550075153e-03
1.7500000000000009e+00 +8.3649154202746097e+00 +0.0000000000000000e+00 +1.7499999972746982e+00 -3.0612240068561031e-02 -5.7952492747075957e-01 +5.0131578242513910e-03
1.8000000000000009e+00 +8.3649105177592471e+00 +0.0000000000000000e+00 +1.7999999970343359e+00 -3.0614283089055529e-02 -5.7953829011620117e-01 +5.0138150105727974e-03
1.8500000000000010e+00 +8.3649054771054949e+00 +0.0000000000000000e+00 +1.8499999967802381e+00 -3.0616344273315270e-02 -5.7955201792314270e-01 +5.0144901452775521e-03
1.9000000000000010e+00 +8.3649002983100811e+00 +0.0000000000000000e+00 +1.8999999965120229e+00 -3.0618423512917790e-02 -5.7956610983688595e-01 +5.0151832596723196e-03
1.9500000000000011e+00 +8.3648949813696465e+00 +0.0000000000000000e+00 +1.9499999962293084e+00 -3.0620520699440615e-02 -5.7958056480274733e-01 +5.0158943850645878e-03
2.0000000000000009e+00 +8.3648895262807468e+00 +0.0000000000000000e+00 +1.9999999959317125e+00 -3.0622635724461285e-02 -5.7959538176605729e-01 +5.0166235527626815e-03
2.0500000000000007e+00 +8.3648839330398488e+00 +0.0000000000000000e+00 +2.0499999956188533e+00 -3.0624768470745318e-02 -5.7961055951147711e-01 +5.0173707755395295e-03
2.1000000000000005e+00 +8.3648782016433358e+00 +0.0000000000000000e+00 +2.0999999952903483e+00 -3.0626918785810503e-02 -5.7962609618094074e-01 +5.0181359920239005e-03
2.1500000000000004e+00 +8.3648723320875042e+00 +0.0000000000000000e+00 +2.1499999949458157e+00 -3.0629086508363591e-02 -5.7964198975570858e-01 +5.0189191223089548e-03
2.2000000000000002e+00 +8.3648663243685650e+00 +0.0000000000000000e+00 +2.1999999945848732e+00 -3.0631271477112407e-02 -5.7965823821705387e-01 +5.0197200864884502e-03
2.2500000000000000e+00 +8.3648601784826457e+00 +0.0000000000000000e+00 +2.2499999942071383e+00 -3.0633473530765943e-02 -5.7967483954626176e-01 +5.0205388046567385e-03
2.2999999999999998e+00 +8.3648538944257904e+00 +0.0000000000000000e+00 +2.2999999938122286e+00 -3.0635692508034388e-02 -5.7969179172462881e-01 +5.0213751969087382e-03
2.3499999999999996e+00 +8.3648474721939579e+00 +0.0000000000000000e+00 +2.3499999933997620e+00 -3.0637928247629082e-02 -5.7970909273346261e-01 +5.0222291833399253e-03
2.3999999999999995e+00 +8.3648409117830234e+00 +0.0000000000000000e+00 +2.3999999929693563e+00 -3.0640180588262657e-02 -5.7972674055408180e-01 +5.0231006840463282e-03
2.4499999999999993e+00 +8.3648342131887805e+00 +0.0000000000000000e+00 +2.4499999925206288e+00 -3.0642449368649030e-02 -5.7974473316781705e-01 +5.0239896191245047e-03
2.4999999999999991e+00 +8.3648273764069430e+00 +0.0000000000000000e+00 +2.4999999920531972e+00 -3.0644734427503432e-02 -5.7976306855600801e-01 +5.0248959086715292e-03
2.5499999999999989e+00 +8.3648204014331373e+00 +0.0000000000000000e+00 +2.5499999915666787e+00 -3.0647035603542445e-02 -5.7978174470000543e-01 +5.0258194727849830e-03
2.5999999999999988e+00 +8.3648132882629138e+00 +0.0000000000000000e+00 +2.5999999910606908e+00 -3.0649352735484088e-02 -5.7980075958117039e-01 +5.0267602315629371e-03
2.6499999999999986e+00 +8.3648060368917410e+00 +0.0000000000000000e+00 +2.6499999905348512e+00 -3.0651685662047796e-02 -5.7982011118087307e-01 +5.0277181051039434e-03
2.6999999999999984e+00 +8.3647986473150038e+00 +0.0000000000000000e+00 +2.6999999899887768e+00 -3.0654034221954469e-02 -5.7983979748049364e-01 +5.0286930135070131e-03
2.7499999999999982e+00 +8.3647911195280127e+00 +0.0000000000000000e+00 +2.7499999894220850e+00 -3.0656398253926537e-02 -5.7985981646142204e-01 +5.0296848768716139e-03
2.7999999999999980e+00 +8.3647834535259946e+00 +0.0000000000000000e+00 +2.7999999888343932e+00 -3.0658777596687975e-02 -5.7988016610505655e-01 +5.0306936152976463e-03
2.8499999999999979e+00 +8.3647756493040983e+00 +0.0000000000000000e+00 +2.8499999882253184e+00 -3.0661172088964343e-02 -5.7990084439280443e-01 +5.0317191488854357e-03
2.8999999999999977e+00 +8.3647677068573962e+00 +0.0000000000000000e+00 +2.8999999875944780e+00 -3.0663581569482824e-02 -5.7992184930608182e-01 +5.0327613977357143e-03
2.9499999999999975e+00 +8.3647596261808808e+00 +0.0000000000000000e+00 +2.9499999869414886e+00 -3.0666005876972269e-02 -5.7994317882631274e-01 +5.0338202819496143e-03
2.9999999999999973e+00 +8.3647514072694698e+00 +0.0000000000000000e+00 +2.9999999862659674e+00 -3.0668444850163217e-02 -5.7996483093492968e-01 +5.0348957216286511e-03
3.0499999999999972e+00 +8.3647430501180011e+00 +0.0000000000000000e+00 +3.0499999855675317e+00 -3.0670898327787958e-02 -5.7998680361337285e-01 +5.0359876368747027e-03
3.0999999999999970e+00 +8.3647345547212382e+00 +0.0000000000000000e+00 +3.0999999848457982e+00 -3.0673366148580551e-02 -5.8000909484308960e-01 +5.0370959477900107e-03
3.1499999999999968e+00 +8.3647259210738660e+00 +0.0000000000000000e+00 +3.1499999841003836e+00 -3.0675848151276872e-02 -5.8003170260553527e-01 +5.0382205744771511e-03
3.1999999999999966e+00 +8.3647171491704970e+00 +0.0000000000000000e+00 +3.1999999833309047e+00 -3.0678344174614645e-02 -5.8005462488217197e-01 +5.0393614370390369e-03
3.2499999999999964e+00 +8.3647082390056688e+00 +0.0000000000000000e+00 +3.2499999825369783e+00 -3.0680854057333458e-02 -5.8007785965446812e-01 +5.0405184555788844e-03
3.2999999999999963e+00 +8.3646991905738410e+00 +0.0000000000000000e+00 +3.2999999817182211e+00 -3.0683377638174861e-02 -5.8010140490389961e-01 +5.0416915502002205e-03
3.3499999999999961e+00 +8.3646900038694039e+00 +0.0000000000000000e+00 +3.3499999808742498e+00 -3.0685914755882344e-02 -5.8012525861194775e-01 +5.0428806410068531e-03
3.3999999999999959e+00 +8.3646806788866694e+00 +0.0000000000000000e+00 +3.3999999800046807e+00 -3.0688465249201411e-02 -5.8014941876010073e-01 +5.0440856481028702e-03
3.4499999999999957e+00 +8.3646712156198806e+00 +0.0000000000000000e+00 +3.4499999791091307e+00 -3.0691028956879585e-02 -5.8017388332985165e-01 +5.0453064915926141e-03
3.4999999999999956e+00 +8.3646616140632055e+00 +0.0000000000000000e+00 +3.4999999781872160e+00 -3.0693605717666477e-02 -5.8019865030270035e-01 +5.0465430915806768e-03
3.5499999999999954e+00 +8.3646518742107414e+00 +0.0000000000000000e+00 +3.5499999772385529e+00 -3.0696195370313799e-02 -5.8022371766015068e-01 +5.0477953681718800e-03
3.5999999999999952e+00 +8.3646419960565126e+00 +0.0000000000000000e+00 +3.5999999762627577e+00 -3.0698797753575438e-02 -5.8024908338371217e-01 +5.0490632414712704e-03
3.6499999999999950e+00 +8.3646319795944724e+00 +0.0000000000000000e+00 +3.6499999752594467e+00 -3.0701412706207420e-02 -5.8027474545489910e-01 +5.0503466315840947e-03
3.6999999999999948e+00 +8.3646218248185047e+00 +0.0000000000000000e+00 +3.6999999742282359e+00 -3.0704040066968061e-02 -5.8030070185523019e-01 +5.0516454586157977e-03
3.7499999999999947e+00 +8.3646115317224243e+00 +0.0000000000000000e+00 +3.7499999731687419e+00 -3.0706679674617869e-02 -5.8032695056622863e-01 +5.0529596426719964e-03
3.7999999999999945e+00 +8.3646011002999732e+00 +0.0000000000000000e+00 +3.7999999720805802e+00 -3.0709331367919708e-02 -5.8035348956942145e-01 +5.0542891038584756e-03
3.8499999999999943e+00 +8.3645905305448256e+00 +0.0000000000000000e+00 +3.8499999709633670e+00 -3.0711994985638768e-02 -5.8038031684633995e-01 +5.0556337622811769e-03
3.8999999999999941e+00 +8.3645798224505867e+00 +0.0000000000000000e+00 +3.8999999698167183e+00 -3.0714670366542577e-02 -5.8040743037851783e-01 +5.0569935380461685e-03
3.9499999999999940e+00 +8.3645689760107960e+00 +0.0000000000000000e+00 +3.9499999686402498e+00 -3.0717357349401116e-02 -5.8043482814749325e-01 +5.0583683512596522e-03
3.9999999999999938e+00 +8.3645579912189216e+00 +0.0000000000000000e+00 +3.9999999674335776e+00 -3.0720055772986810e-02 -5.8046250813480715e-01 +5.0597581220279339e-03
4.0499999999999936e+00 +8.3645468680683646e+00 +0.0000000000000000e+00 +4.0499999661963164e+00 -3.0722765492268756e-02 -5.8049046819718630e-01 +5.0611627697254996e-03
4.0999999999999934e+00 +8.3645356065524616e+00 +0.0000000000000000e+00 +4.0999999649280827e+00 -3.0725486426994329e-02 -5.8051870569209596e-01 +5.0625822107994165e-03
4.1499999999999932e+00 +8.3645242066644840e+00 +0.0000000000000000e+00 +4.1499999636284919e+00 -3.0728218513104321e-02 -5.8054721785218699e-01 +5.0640163609654409e-03
4.1999999999999931e+00 +8.3645126683976336e+00 +0.0000000000000000e+00 +4.1999999622971602e+00 -3.0730961686538404e-02 -5.8057600191011238e-01 +5.0654651359400144e-03
4.2499999999999929e+00 +8.3645009917450501e+00 +0.0000000000000000e+00 +4.2499999609337022e+00 -3.0733715883234990e-02 -5.8060505509852856e-01 +5.0669284514402481e-03
4.2999999999999927e+00 +8.3644891766998093e+00 +0.0000000000000000e+00 +4.2999999595377334e+00 -3.0736481039131139e-02 -5.8063437465009282e-01 +5.0684062231839333e-03
4.3499999999999925e+00 +8.3644772232549212e+00 +0.0000000000000000e+00 +4.3499999581088691e+00 -3.0739257090162550e-02 -5.8066395779746516e-01 +5.0698983668895515e-03
4.3999999999999924e+00 +8.3644651314033354e+00 +0.0000000000000000e+00 +4.3999999566467247e+00 -3.0742043972263440e-02 -5.8069380177330676e-01 +5.0714047982762748e-03
4.4499999999999922e+00 +8.3644529011379376e+00 +0.0000000000000000e+00 +4.4499999551509148e+00 -3.0744841621366481e-02 -5.8072390381028016e-01 +5.0729254330639743e-03
4.4999999999999920e+00 +8.3644405324515549e+00 +0.0000000000000000e+00 +4.4999999536210549e+00 -3.0747649973402756e-02 -5.8075426114104933e-01 +5.0744601869732175e-03
4.5499999999999918e+00 +8.3644280253369505e+00 +0.0000000000000000e+00 +4.5499999520567593e+00 -3.0750468964301621e-02 -5.8078487099827891e-01 +5.0760089757252731e-03
4.5999999999999917e+00 +8.3644153797868270e+00 +0.0000000000000000e+00 +4.5999999504576436e+00 -3.0753298529990696e-02 -5.8081573061463410e-01 +5.0775717150421274e-03
4.6499999999999915e+00 +8.3644025957938304e+00 +0.0000000000000000e+00 +4.6499999488233232e+00 -3.0756138606395755e-02 -5.8084683722278052e-01 +5.0791483206464767e-03
4.6999999999999913e+00 +8.3643896733505461e+00 +0.0000000000000000e+00 +4.6999999471534117e+00 -3.0758989129440657e-02 -5.8087818805538449e-01 +5.0807387082617344e-03
4.7499999999999911e+00 +8.3643766124495009e+00 +0.0000000000000000e+00 +4.7499999454475246e+00 -3.0761850035047299e-02 -5.8090978034511154e-01 +5.0823427936120425e-03
4.7999999999999909e+00 +8.3643634130831650e+00 +0.0000000000000000e+00 +4.7999999437052763e+00 -3.0764721259135486e-02 -5.8094161132462729e-01 +5.0839604924222629e-03
4.8499999999999908e+00 +8.3643500752439515e+00 +0.0000000000000000e+00 +4.8499999419262805e+00 -3.0767602737622919e-02 -5.8097367822659651e-01 +5.0855917204179930e-03
4.8999999999999906e+00 +8.3643365989242184e+00 +0.0000000000000000e+00 +4.8999999401101526e+00 -3.0770494406425094e-02 -5.8100597828368372e-01 +5.0872363933255711e-03
4.9499999999999904e+00 +8.3643229841162654e+00 +0.0000000000000000e+00 +4.9499999382565063e+00 -3.0773396201455205e-02 -5.8103850872855212e-01 +5.0888944268720690e-03
4.9999999999999902e+00 +8.3643092308123386e+00 +0.0000000000000000e+00 +4.9999999363649570e+00 -3.0776308058624104e-02 -5.8107126679386378e-01 +5.0905657367853116e-03
5.0499999999999901e+00 +8.3642953390046291e+00 +0.0000000000000000e+00 +5.0499999344351174e+00 -3.0779229913840231e-02 -5.8110424971227892e-01 +5.0922502387938679e-03
5.0999999999999899e+00 +8.3642813086852765e+00 +0.0000000000000000e+00 +5.0999999324666030e+00 -3.0782161703009518e-02 -5.8113745471645650e-01 +5.0939478486270694e-03
5.1499999999999897e+00 +8.3642671398463673e+00 +0.0000000000000000e+00 +5.1499999304590274e+00 -3.0785103362035302e-02 -5.8117087903905273e-01 +5.0956584820149951e-03
5.1999999999999895e+00 +8.3642528324799326e+00 +0.0000000000000000e+00 +5.1999999284120042e+00 -3.0788054826818304e-02 -5.8120451991272293e-01 +5.0973820546885013e-03
5.2499999999999893e+00 +8.3642383865779557e+00 +0.0000000000000000e+00 +5.2499999263251471e+00 -3.0791016033256485e-02 -5.8123837457011895e-01 +5.0991184823792075e-03
5.2999999999999892e+00 +8.3642238021323649e+00 +0.0000000000000000e+00 +5.2999999241980706e+00 -3.0793986917245060e-02 -5.8127244024389013e-01 +5.1008676808194982e-03
5.3499999999999890e+00 +8.3642090791350423e+00 +0.0000000000000000e+00 +5.3499999220303884e+00 -3.0796967414676319e-02 -5.8130671416668311e-01 +5.1026295657425518e-03
5.3999999999999888e+00 +8.3641942175778183e+00 +0.0000000000000000e+00 +5.3999999198217132e+00 -3.0799957461439653e-02 -5.8134119357114111e-01 +5.1044040528823156e-03
5.4499999999999886e+00 +8.3641792174524738e+00 +0.0000000000000000e+00 +5.4499999175716596e+00 -3.0802956993421417e-02 -5.8137587568990423e-01 +5.1061910579735283e-03
5.4999999999999885e+00 +8.3641640787507434e+00 +0.0000000000000000e+00 +5.4999999152798402e+00 -3.0805965946504872e-02 -5.8141075775560891e-01 +5.1079904967517228e-03
5.5499999999999883e+00 +8.3641488014643119e+00 +0.0000000000000000e+00 +5.5499999129458697e+00 -3.0808984256570110e-02 -5.8144583700088759e-01 +5.1098022849532191e-03
5.5999999999999881e+00 +8.3641333855848181e+00 +0.0000000000000000e+00 +5.5999999105693599e+00 -3.0812011859493987e-02 -5.8148111065836827e-01 +5.1116263383151504e-03
5.6499999999999879e+00 +8.3641178311038544e+00 +0.0000000000000000e+00 +5.6499999081499253e+00 -3.0815048691150062e-02 -5.8151657596067519e-01 +5.1134625725754428e-03
5.6999999999999877e+00 +8.3641021380129690e+00 +0.0000000000000000e+00 +5.6999999056871786e+00 -3.0818094687408482e-02 -5.8155223014042789e-01 +5.1153109034728370e-03
5.7499999999999876e+00 +8.3640863063036619e+00 +0.0000000000000000e+00 +5.7499999031807327e+00 -3.0821149784135946e-02 -5.8158807043024119e-01 +5.1171712467468896e-03
5.7999999999999874e+00 +8.3640703359673907e+00 +0.0000000000000000e+00 +5.7999999006302003e+00 -3.0824213917195604e-02 -5.8162409406272375e-01 +5.1190435181379728e-03
5.8499999999999872e+00 +8.3640542269955684e+00 +0.0000000000000000e+00 +5.8499998980351942e+00 -3.0827287022447029e-02 -5.8166029827048071e-01 +5.1209276333872853e-03
5.8999999999999870e+00 +8.3640379793795674e+00 +0.0000000000000000e+00 +5.8999998953953279e+00 -3.0830369035746076e-02 -5.8169668028611010e-01 +5.1228235082368496e-03
