# trajectory
# s[mm] rx[mm] ry[mm] rz[mm] px[rad] py[rad] pz[rad]
0.0000000000000000e+00 +8.3650000000000002e+00 +0.0000000000000000e+00 +0.0000000000000000e+00 +0.0000000000000000e+00 +0.0000000000000000e+00 +1.0000000000000000e+00
5.0000000000000003e-02 +8.3649999309597529e+00 +0.0000000000000000e+00 +4.9999999999936449e-02 -2.7616097970695734e-06 +0.0000000000000000e+00 +9.9999999999618672e-01
1.0000000000000001e-01 +8.3649997238390110e+00 +0.0000000000000000e+00 +9.9999999999491565e-02 -5.5232201592122121e-06 +0.0000000000000000e+00 +9.9999999998474698e-01
1.5000000000000002e-01 +8.3649993786376964e+00 +0.0000000000000000e+00 +1.4999999999828403e-01 -8.2848330007124827e-06 +0.0000000000000000e+00 +9.9999999996568079e-01
2.0000000000000001e-01 +8.3649988953556385e+00 +0.0000000000000000e+00 +1.9999999999593254e-01 -1.1046450230824181e-05 +0.0000000000000000e+00 +9.9999999993898803e-01
2.5000000000000000e-01 +8.3649982739925690e+00 +0.0000000000000000e+00 +2.4999999999205574e-01 -1.3808073753770420e-05 +0.0000000000000000e+00 +9.9999999990466859e-01
2.9999999999999999e-01 +8.3649975145481257e+00 +0.0000000000000000e+00 +2.9999999998627230e-01 -1.6569705468743725e-05 +0.0000000000000000e+00 +9.9999999986272248e-01
3.4999999999999998e-01 +8.3649966170218537e+00 +0.0000000000000000e+00 +3.4999999997820086e-01 -1.9331347269906114e-05 +0.0000000000000000e+00 +9.9999999981314958e-01
3.9999999999999997e-01 +8.3649955814131989e+00 +0.0000000000000000e+00 +3.9999999996746011e-01 -2.2093001046389206e-05 +0.0000000000000000e+00 +9.9999999975594978e-01
4.4999999999999996e-01 +8.3649944077215181e+00 +0.0000000000000000e+00 +4.4999999995366868e-01 -2.4854668682294289e-05 +0.0000000000000000e+00 +9.9999999969112285e-01
4.9999999999999994e-01 +8.3649930959460690e+00 +0.0000000000000000e+00 +4.9999999993644528e-01 -2.7616352056692424e-05 +0.0000000000000000e+00 +9.9999999961866870e-01
5.4999999999999993e-01 +8.3649916460860183e+00 +0.0000000000000000e+00 +5.4999999991540849e-01 -3.0378053043624529e-05 +0.0000000000000000e+00 +9.9999999953858709e-01
5.9999999999999998e-01 +8.3649900581404388e+00 +0.0000000000000000e+00 +5.9999999989017694e-01 -3.3139773512101460e-05 +0.0000000000000000e+00 +9.9999999945087781e-01
6.5000000000000002e-01 +8.3649883321083109e+00 +0.0000000000000000e+00 +6.4999999986036916e-01 -3.5901515326104116e-05 +0.0000000000000000e+00 +9.9999999935554074e-01
7.0000000000000007e-01 +8.3649864679885191e+00 +0.0000000000000000e+00 +6.9999999982560390e-01 -3.8663280344583498e-05 +0.0000000000000000e+00 +9.9999999925257554e-01
7.5000000000000011e-01 +8.3649844657798589e+00 +0.0000000000000000e+00 +7.4999999978549958e-01 -4.1425070421460815e-05 +0.0000000000000000e+00 +9.9999999914198190e-01
8.0000000000000016e-01 +8.3649823254810300e+00 +0.0000000000000000e+00 +7.9999999973967495e-01 -4.4186887405627571e-05 +0.0000000000000000e+00 +9.9999999902375958e-01
8.5000000000000020e-01 +8.3649800470906399e+00 +0.0000000000000000e+00 +8.4999999968774842e-01 -4.6948733140945636e-05 +0.0000000000000000e+00 +9.9999999889790836e-01
9.0000000000000024e-01 +8.3649776306072052e+00 +0.0000000000000000e+00 +8.9999999962933863e-01 -4.9710609466247337e-05 +0.0000000000000000e+00 +9.9999999876442780e-01
9.5000000000000029e-01 +8.3649750760291521e+00 +0.0000000000000000e+00 +9.4999999956406400e-01 -5.2472518215335540e-05 +0.0000000000000000e+00 +9.9999999862331757e-01
1.0000000000000002e+00 +8.3649723833548126e+00 +0.0000000000000000e+00 +9.9999999949154317e-01 -5.5234461216983740e-05 +0.0000000000000000e+00 +9.9999999847457732e-01
1.0500000000000003e+00 +8.3649695525824281e+00 +0.0000000000000000e+00 +1.0499999994113947e+00 -5.7996440294936129e-05 +0.0000000000000000e+00 +9.9999999831820663e-01
1.1000000000000003e+00 +8.3649665837101512e+00 +0.0000000000000000e+00 +1.0999999993232368e+00 -6.0758457267907692e-05 +0.0000000000000000e+00 +9.9999999815420515e-01
1.1500000000000004e+00 +8.3649634767360403e+00 +0.0000000000000000e+00 +1.1499999992266881e+00 -6.3520513949584268e-05 +0.0000000000000000e+00 +9.9999999798257233e-01
1.2000000000000004e+00 +8.3649602316580651e+00 +0.0000000000000000e+00 +1.1999999991213668e+00 -6.6282612148622672e-05 +0.0000000000000000e+00 +9.9999999780330784e-01
1.2500000000000004e+00 +8.3649568484741046e+00 +0.0000000000000000e+00 +1.2499999990068915e+00 -6.9044753668650720e-05 +0.0000000000000000e+00 +9.9999999761641112e-01
1.3000000000000005e+00 +8.3649533271819472e+00 +0.0000000000000000e+00 +1.2999999988828805e+00 -7.1806940308267336e-05 +0.0000000000000000e+00 +9.9999999742188184e-01
1.3500000000000005e+00 +8.3649496677792925e+00 +0.0000000000000000e+00 +1.3499999987489524e+00 -7.4569173861042652e-05 +0.0000000000000000e+00 +9.9999999721971933e-01
1.4000000000000006e+00 +8.3649458702637496e+00 +0.0000000000000000e+00 +1.3999999986047253e+00 -7.7331456115518044e-05 +0.0000000000000000e+00 +9.9999999700992315e-01
1.4500000000000006e+00 +8.3649419346328386e+00 +0.0000000000000000e+00 +1.4499999984498175e+00 -8.0093788855206235e-05 +0.0000000000000000e+00 +9.9999999679249274e-01
1.5000000000000007e+00 +8.3649378608839928e+00 +0.0000000000000000e+00 +1.4999999982838474e+00 -8.2856173858591377e-05 +0.0000000000000000e+00 +9.9999999656742744e-01
1.5500000000000007e+00 +8.3649336490145529e+00 +0.0000000000000000e+00 +1.5499999981064332e+00 -8.5618612899129092e-05 +0.0000000000000000e+00 +9.9999999633472680e-01
1.6000000000000008e+00 +8.3649292990217727e+00 +0.0000000000000000e+00 +1.5999999979171928e+00 -8.8381107745246596e-05 +0.0000000000000000e+00 +9.9999999609439016e-01
1.6500000000000008e+00 +8.3649248109028189e+00 +0.0000000000000000e+00 +1.6499999977157449e+00 -9.1143660160342751e-05 +0.0000000000000000e+00 +9.9999999584641686e-01
1.7000000000000008e+00 +8.3649201846547676e+00 +0.0000000000000000e+00 +1.6999999975017073e+00 -9.3906271902788118e-05 +0.0000000000000000e+00 +9.9999999559080632e-01
1.7500000000000009e+00 +8.3649154202746097e+00 +0.0000000000000000e+00 +1.7499999972746982e+00 -9.6668944725925070e-05 +0.0000000000000000e+00 +9.9999999532755779e-01
1.8000000000000009e+00 +8.3649105177592471e+00 +0.0000000000000000e+00 +1.7999999970343359e+00 -9.9431680378067841e-05 +0.0000000000000000e+00 +9.9999999505667070e-01
1.8500000000000010e+00 +8.3649054771054949e+00 +0.0000000000000000e+00 +1.8499999967802381e+00 -1.0219448060250261e-04 +0.0000000000000000e+00 +9.9999999477814427e-01
1.9000000000000010e+00 +8.3649002983100811e+00 +0.0000000000000000e+00 +1.8999999965120229e+00 -1.0495734713748757e-04 +0.0000000000000000e+00 +9.9999999449197785e-01
1.9500000000000011e+00 +8.3648949813696465e+00 +0.0000000000000000e+00 +1.9499999962293084e+00 -1.0772028171625299e-04 +0.0000000000000000e+00 +9.9999999419817065e-01
2.0000000000000009e+00 +8.3648895262807468e+00 +0.0000000000000000e+00 +1.9999999959317125e+00 -1.1048328606700131e-04 +0.0000000000000000e+00 +9.9999999389672189e-01
2.0500000000000007e+00 +8.3648839330398488e+00 +0.0000000000000000e+00 +2.0499999956188533e+00 -1.1324636191271566e-04 +0.0000000000000000e+00 +9.9999999358763092e-01
2.1000000000000005e+00 +8.3648782016433358e+00 +0.0000000000000000e+00 +2.0999999952903483e+00 -1.1600951096905345e-04 +0.0000000000000000e+00 +9.9999999327089684e-01
2.1500000000000004e+00 +8.3648723320875042e+00 +0.0000000000000000e+00 +2.1499999949458157e+00 -1.1877273494223983e-04 +0.0000000000000000e+00 +9.9999999294651887e-01
2.2000000000000002e+00 +8.3648663243685650e+00 +0.0000000000000000e+00 +2.1999999945848732e+00 -1.2153603552887628e-04 +0.0000000000000000e+00 +9.9999999261449624e-01
2.2500000000000000e+00 +8.3648601784826457e+00 +0.0000000000000000e+00 +2.2499999942071383e+00 -1.2429941441594063e-04 +0.0000000000000000e+00 +9.9999999227482794e-01
2.2999999999999998e+00 +8.3648538944257904e+00 +0.0000000000000000e+00 +2.2999999938122286e+00 -1.2706287328078720e-04 +0.0000000000000000e+00 +9.9999999192751332e-01
2.3499999999999996e+00 +8.3648474721939579e+00 +0.0000000000000000e+00 +2.3499999933997620e+00 -1.2982641379114671e-04 +0.0000000000000000e+00 +9.9999999157255137e-01
2.3999999999999995e+00 +8.3648409117830234e+00 +0.0000000000000000e+00 +2.3999999929693563e+00 -1.3259003760512645e-04 +0.0000000000000000e+00 +9.9999999120994121e-01
2.4499999999999993e+00 +8.3648342131887805e+00 +0.0000000000000000e+00 +2.4499999925206288e+00 -1.3535374637121034e-04 +0.0000000000000000e+00 +9.9999999083968194e-01
2.4999999999999991e+00 +8.3648273764069430e+00 +0.0000000000000000e+00 +2.4999999920531972e+00 -1.3811754172825887e-04 +0.0000000000000000e+00 +9.9999999046177257e-01
2.5499999999999989e+00 +8.3648204014331373e+00 +0.0000000000000000e+00 +2.5499999915666787e+00 -1.4088142530550927e-04 +0.0000000000000000e+00 +9.9999999007621221e-01
2.5999999999999988e+00 +8.3648132882629138e+00 +0.0000000000000000e+00 +2.5999999910606908e+00 -1.4364539872257549e-04 +0.0000000000000000e+00 +9.9999998968299997e-01
2.6499999999999986e+00 +8.3648060368917410e+00 +0.0000000000000000e+00 +2.6499999905348512e+00 -1.4640946358944826e-04 +0.0000000000000000e+00 +9.9999998928213474e-01
2.6999999999999984e+00 +8.3647986473150038e+00 +0.0000000000000000e+00 +2.6999999899887768e+00 -1.4917362150649517e-04 +0.0000000000000000e+00 +9.9999998887361552e-01
2.7499999999999982e+00 +8.3647911195280127e+00 +0.0000000000000000e+00 +2.7499999894220850e+00 -1.5193787406446064e-04 +0.0000000000000000e+00 +9.9999998845744142e-01
2.7999999999999980e+00 +8.3647834535259946e+00 +0.0000000000000000e+00 +2.7999999888343932e+00 -1.5470222284446605e-04 +0.0000000000000000e+00 +9.9999998803361134e-01
2.8499999999999979e+00 +8.3647756493040983e+00 +0.0000000000000000e+00 +2.8499999882253184e+00 -1.5746666941800973e-04 +0.0000000000000000e+00 +9.9999998760212427e-01
2.8999999999999977e+00 +8.3647677068573962e+00 +0.0000000000000000e+00 +2.8999999875944780e+00 -1.6023121534696700e-04 +0.0000000000000000e+00 +9.9999998716297911e-01
2.9499999999999975e+00 +8.3647596261808808e+00 +0.0000000000000000e+00 +2.9499999869414886e+00 -1.6299586218359024e-04 +0.0000000000000000e+00 +9.9999998671617474e-01
2.9999999999999973e+00 +8.3647514072694698e+00 +0.0000000000000000e+00 +2.9999999862659674e+00 -1.6576061147050890e-04 +0.0000000000000000e+00 +9.9999998626171016e-01
3.0499999999999972e+00 +8.3647430501180011e+00 +0.0000000000000000e+00 +3.0499999855675317e+00 -1.6852546474072956e-04 +0.0000000000000000e+00 +9.9999998579958416e-01
3.0999999999999970e+00 +8.3647345547212382e+00 +0.0000000000000000e+00 +3.0999999848457982e+00 -1.7129042351763597e-04 +0.0000000000000000e+00 +9.9999998532979573e-01
3.1499999999999968e+00 +8.3647259210738660e+00 +0.0000000000000000e+00 +3.1499999841003836e+00 -1.7405548931498905e-04 +0.0000000000000000e+00 +9.9999998485234365e-01
3.1999999999999966e+00 +8.3647171491704970e+00 +0.0000000000000000e+00 +3.1999999833309047e+00 -1.7682066363692699e-04 +0.0000000000000000e+00 +9.9999998436722681e-01
3.2499999999999964e+00 +8.3647082390056688e+00 +0.0000000000000000e+00 +3.2499999825369783e+00 -1.7958594797796518e-04 +0.0000000000000000e+00 +9.9999998387444400e-01
3.2999999999999963e+00 +8.3646991905738410e+00 +0.0000000000000000e+00 +3.2999999817182211e+00 -1.8235134382299631e-04 +0.0000000000000000e+00 +9.9999998337399409e-01
3.3499999999999961e+00 +8.3646900038694039e+00 +0.0000000000000000e+00 +3.3499999808742498e+00 -1.8511685264729043e-04 +0.0000000000000000e+00 +9.9999998286587577e-01
3.3999999999999959e+00 +8.3646806788866694e+00 +0.0000000000000000e+00 +3.3999999800046807e+00 -1.8788247591649491e-04 +0.0000000000000000e+00 +9.9999998235008791e-01
3.4499999999999957e+00 +8.3646712156198806e+00 +0.0000000000000000e+00 +3.4499999791091307e+00 -1.9064821508663453e-04 +0.0000000000000000e+00 +9.9999998182662930e-01
3.4999999999999956e+00 +8.3646616140632055e+00 +0.0000000000000000e+00 +3.4999999781872160e+00 -1.9341407160411146e-04 +0.0000000000000000e+00 +9.9999998129549872e-01
3.5499999999999954e+00 +8.3646518742107414e+00 +0.0000000000000000e+00 +3.5499999772385529e+00 -1.9618004690570529e-04 +0.0000000000000000e+00 +9.9999998075669483e-01
3.5999999999999952e+00 +8.3646419960565126e+00 +0.0000000000000000e+00 +3.5999999762627577e+00 -1.9894614241857309e-04 +0.0000000000000000e+00 +9.9999998021021641e-01
3.6499999999999950e+00 +8.3646319795944724e+00 +0.0000000000000000e+00 +3.6499999752594467e+00 -2.0171235956024938e-04 +0.0000000000000000e+00 +9.9999997965606224e-01
3.6999999999999948e+00 +8.3646218248185047e+00 +0.0000000000000000e+00 +3.6999999742282359e+00 -2.0447869973864622e-04 +0.0000000000000000e+00 +9.9999997909423088e-01
3.7499999999999947e+00 +8.3646115317224243e+00 +0.0000000000000000e+00 +3.7499999731687419e+00 -2.0724516435205315e-04 +0.0000000000000000e+00 +9.9999997852472111e-01
3.7999999999999945e+00 +8.3646011002999732e+00 +0.0000000000000000e+00 +3.7999999720805802e+00 -2.1001175478913730e-04 +0.0000000000000000e+00 +9.9999997794753159e-01
3.8499999999999943e+00 +8.3645905305448256e+00 +0.0000000000000000e+00 +3.8499999709633670e+00 -2.1277847242894332e-04 +0.0000000000000000e+00 +9.9999997736266100e-01
3.8999999999999941e+00 +8.3645798224505867e+00 +0.0000000000000000e+00 +3.8999999698167183e+00 -2.1554531864089347e-04 +0.0000000000000000e+00 +9.9999997677010799e-01
3.9499999999999940e+00 +8.3645689760107960e+00 +0.0000000000000000e+00 +3.9499999686402498e+00 -2.1831229478478758e-04 +0.0000000000000000e+00 +9.9999997616987113e-01
3.9999999999999938e+00 +8.3645579912189216e+00 +0.0000000000000000e+00 +3.9999999674335776e+00 -2.2107940221080310e-04 +0.0000000000000000e+00 +9.9999997556194908e-01
4.0499999999999936e+00 +8.3645468680683646e+00 +0.0000000000000000e+00 +4.0499999661963164e+00 -2.2384664225934638e-04 +0.0000000000000000e+00 +9.9999997494634052e-01
4.0999999999999934e+00 +8.3645356065524616e+00 +0.0000000000000000e+00 +4.0999999649280827e+00 -2.2661401625941629e-04 +0.0000000000000000e+00 +9.9999997432304399e-01
4.1499999999999932e+00 +8.3645242066644840e+00 +0.0000000000000000e+00 +4.1499999636284919e+00 -2.2938152552696802e-04 +0.0000000000000000e+00 +9.9999997369205806e-01
4.1999999999999931e+00 +8.3645126683976336e+00 +0.0000000000000000e+00 +4.1999999622971602e+00 -2.3214917136476422e-04 +0.0000000000000000e+00 +9.9999997305338129e-01
4.2499999999999929e+00 +8.3645009917450501e+00 +0.0000000000000000e+00 +4.2499999609337022e+00 -2.3491695506237513e-04 +0.0000000000000000e+00 +9.9999997240701222e-01
4.2999999999999927e+00 +8.3644891766998093e+00 +0.0000000000000000e+00 +4.2999999595377334e+00 -2.3768487789617852e-04 +0.0000000000000000e+00 +9.9999997175294952e-01
4.3499999999999925e+00 +8.3644772232549212e+00 +0.0000000000000000e+00 +4.3499999581088691e+00 -2.4045294112935969e-04 +0.0000000000000000e+00 +9.9999997109119165e-01
4.3999999999999924e+00 +8.3644651314033354e+00 +0.0000000000000000e+00 +4.3999999566467247e+00 -2.4322114601191155e-04 +0.0000000000000000e+00 +9.9999997042173716e-01
4.4499999999999922e+00 +8.3644529011379376e+00 +0.0000000000000000e+00 +4.4499999551509148e+00 -2.4598949378063455e-04 +0.0000000000000000e+00 +9.9999996974458449e-01
4.4999999999999920e+00 +8.3644405324515549e+00 +0.0000000000000000e+00 +4.4999999536210549e+00 -2.4875798565913678e-04 +0.0000000000000000e+00 +9.9999996905973232e-01
4.5499999999999918e+00 +8.3644280253369505e+00 +0.0000000000000000e+00 +4.5499999520567593e+00 -2.5152662285783379e-04 +0.0000000000000000e+00 +9.9999996836717897e-01
4.5999999999999917e+00 +8.3644153797868270e+00 +0.0000000000000000e+00 +4.5999999504576436e+00 -2.5429540657394886e-04 +0.0000000000000000e+00 +9.9999996766692301e-01
4.6499999999999915e+00 +8.3644025957938304e+00 +0.0000000000000000e+00 +4.6499999488233232e+00 -2.5706433799151270e-04 +0.0000000000000000e+00 +9.9999996695896298e-01
4.6999999999999913e+00 +8.3643896733505461e+00 +0.0000000000000000e+00 +4.6999999471534117e+00 -2.5983341828136376e-04 +0.0000000000000000e+00 +9.9999996624329723e-01
4.7499999999999911e+00 +8.3643766124495009e+00 +0.0000000000000000e+00 +4.7499999454475246e+00 -2.6260264860114801e-04 +0.0000000000000000e+00 +9.9999996551992432e-01
4.7999999999999909e+00 +8.3643634130831650e+00 +0.0000000000000000e+00 +4.7999999437052763e+00 -2.6537203009531897e-04 +0.0000000000000000e+00 +9.9999996478884268e-01
4.8499999999999908e+00 +8.3643500752439515e+00 +0.0000000000000000e+00 +4.8499999419262805e+00 -2.6814156389513784e-04 +0.0000000000000000e+00 +9.9999996405005065e-01
4.8999999999999906e+00 +8.3643365989242184e+00 +0.0000000000000000e+00 +4.8999999401101526e+00 -2.7091125111867331e-04 +0.0000000000000000e+00 +9.9999996330354679e-01
4.9499999999999904e+00 +8.3643229841162654e+00 +0.0000000000000000e+00 +4.9499999382565063e+00 -2.7368109287080172e-04 +0.0000000000000000e+00 +9.9999996254932944e-01
4.9999999999999902e+00 +8.3643092308123386e+00 +0.0000000000000000e+00 +4.9999999363649570e+00 -2.7645109024320694e-04 +0.0000000000000000e+00 +9.9999996178739703e-01
5.0499999999999901e+00 +8.3642953390046291e+00 +0.0000000000000000e+00 +5.0499999344351174e+00 -2.7922124431438043e-04 +0.0000000000000000e+00 +9.9999996101774802e-01
5.0999999999999899e+00 +8.3642813086852765e+00 +0.0000000000000000e+00 +5.0999999324666030e+00 -2.8199155614962125e-04 +0.0000000000000000e+00 +9.9999996024038074e-01
5.1499999999999897e+00 +8.3642671398463673e+00 +0.0000000000000000e+00 +5.1499999304590274e+00 -2.8476202680103593e-04 +0.0000000000000000e+00 +9.9999995945529363e-01
5.1999999999999895e+00 +8.3642528324799326e+00 +0.0000000000000000e+00 +5.1999999284120042e+00 -2.8753265730753854e-04 +0.0000000000000000e+00 +9.9999995866248503e-01
5.2499999999999893e+00 +8.3642383865779557e+00 +0.0000000000000000e+00 +5.2499999263251471e+00 -2.9030344869485075e-04 +0.0000000000000000e+00 +9.9999995786195339e-01
5.2999999999999892e+00 +8.3642238021323649e+00 +0.0000000000000000e+00 +5.2999999241980706e+00 -2.9307440197550171e-04 +0.0000000000000000e+00 +9.9999995705369693e-01
5.3499999999999890e+00 +8.3642090791350423e+00 +0.0000000000000000e+00 +5.3499999220303884e+00 -2.9584551814882808e-04 +0.0000000000000000e+00 +9.9999995623771409e-01
5.3999999999999888e+00 +8.3641942175778183e+00 +0.0000000000000000e+00 +5.3999999198217132e+00 -2.9861679820097404e-04 +0.0000000000000000e+00 +9.9999995541400333e-01
5.4499999999999886e+00 +8.3641792174524738e+00 +0.0000000000000000e+00 +5.4499999175716596e+00 -3.0138824310489118e-04 +0.0000000000000000e+00 +9.9999995458256286e-01
5.4999999999999885e+00 +8.3641640787507434e+00 +0.0000000000000000e+00 +5.4999999152798402e+00 -3.0415985382033857e-04 +0.0000000000000000e+00 +9.9999995374339101e-01
5.5499999999999883e+00 +8.3641488014643119e+00 +0.0000000000000000e+00 +5.5499999129458697e+00 -3.0693163129388271e-04 +0.0000000000000000e+00 +9.9999995289648613e-01
5.5999999999999881e+00 +8.3641333855848181e+00 +0.0000000000000000e+00 +5.5999999105693599e+00 -3.0970357645889758e-04 +0.0000000000000000e+00 +9.9999995204184655e-01
5.6499999999999879e+00 +8.3641178311038544e+00 +0.0000000000000000e+00 +5.6499999081499253e+00 -3.1247569023556450e-04 +0.0000000000000000e+00 +9.9999995117947060e-01
5.6999999999999877e+00 +8.3641021380129690e+00 +0.0000000000000000e+00 +5.6999999056871786e+00 -3.1524797353087218e-04 +0.0000000000000000e+00 +9.9999995030935662e-01
5.7499999999999876e+00 +8.3640863063036619e+00 +0.0000000000000000e+00 +5.7499999031807327e+00 -3.1802042723861674e-04 +0.0000000000000000e+00 +9.9999994943150294e-01
5.7999999999999874e+00 +8.3640703359673907e+00 +0.0000000000000000e+00 +5.7999999006302003e+00 -3.2079305223940154e-04 +0.0000000000000000e+00 +9.9999994854590779e-01
5.8499999999999872e+00 +8.3640542269955684e+00 +0.0000000000000000e+00 +5.8499998980351942e+00 -3.2356584940063728e-04 +0.0000000000000000e+00 +9.9999994765256950e-01
5.8999999999999870e+00 +8.3640379793795674e+00 +0.0000000000000000e+00 +5.8999998953953279e+00 -3.2633881957654201e-04 +0.0000000000000000e+00 +9.9999994675148629e-01
