# multipoles
# s[mm] polynom_b[n=0][T/m^n] polynom_b[n=1][T/m^n] polynom_b[n=2][T/m^n] polynom_b[n=3][T/m^n] polynom_b[n=4][T/m^n] polynom_b[n=5][T/m^n] polynom_b[n=6][T/m^n] 
-0.0000000000000000e+00 -5.7642852398496192e-01 +7.5391793658961754e+00 +5.7898749545367885e+00 -9.4753143811062870e+01 +1.3672410970369390e+04 +1.4961445018098745e+05 -6.0863793690532692e+07 
-5.0000000000000003e-02 -5.7643047519417212e-01 +7.5392115455465314e+00 +5.7876182476234002e+00 -9.5079863352599020e+01 +1.3690087014846609e+04 +1.5186976158972975e+05 -6.0870159097444162e+07 
-1.0000000000000001e-01 -5.7643284947424733e-01 +7.5392670827295980e+00 +5.7850241612264348e+00 -9.5429717200682347e+01 +1.3706245555669497e+04 +1.5432824030695250e+05 -6.0875079631214514e+07 
-1.4999999999999999e-01 -5.7643564602799402e-01 +7.5393459024656950e+00 +5.7820971866650348e+00 -9.5801888572442977e+01 +1.3720777031089261e+04 +1.5698404641467790e+05 -6.0877736524998985e+07 
-2.0000000000000001e-01 -5.7643886405827038e-01 +7.5394479297795582e+00 +5.7788418192354509e+00 -9.6195560863473517e+01 +1.3733571767481080e+04 +1.5983134159346911e+05 -6.0877310242426537e+07 
-2.5000000000000000e-01 -5.7644250276797449e-01 +7.5395730896922828e+00 +5.7752625523505170e+00 -9.6609917275540170e+01 +1.3744520146803228e+04 +1.6286428588867854e+05 -6.0872981639339410e+07 
-2.9999999999999999e-01 -5.7644656135998928e-01 +7.5397213072261069e+00 +5.7713638787461141e+00 -9.7044141035524376e+01 +1.3753512569985523e+04 +1.6607703960902715e+05 -6.0863931709870838e+07 
-3.4999999999999998e-01 -5.7645103903716777e-01 +7.5398925074092418e+00 +5.7671502922802134e+00 -9.7497415580343798e+01 +1.3760439403333568e+04 +1.6946376481084438e+05 -6.0849341196240179e+07 
-4.0000000000000002e-01 -5.7645593500251280e-01 +7.5400866152619823e+00 +5.7626262851777783e+00 -9.7968924002458962e+01 +1.3765191065948775e+04 +1.7301862073442983e+05 -6.0828391232886612e+07 
-4.5000000000000001e-01 -5.7646124845889035e-01 +7.5403035558114517e+00 +5.7577963520542301e+00 -9.8457849631636876e+01 +1.3767657903620433e+04 +1.7673576859213322e+05 -6.0800262428377204e+07 
-5.0000000000000000e-01 -5.7646697860932072e-01 +7.5405432540828476e+00 +5.7526649869950797e+00 -9.8963375714643163e+01 +1.3767730279869467e+04 +1.8060936898879323e+05 -6.0764135524463847e+07 
-5.5000000000000004e-01 -5.7647312465674894e-01 +7.5408056351018953e+00 +5.7472366821213834e+00 -9.9484685465034431e+01 +1.3765298612541234e+04 +1.8463358220555060e+05 -6.0719191639315099e+07 
-5.9999999999999998e-01 -5.7647968580424380e-01 +7.5410906238951467e+00 +5.7415159335051964e+00 -1.0002096212547387e+02 +1.3760253213648370e+04 +1.8880256883984138e+05 -6.0664611179222919e+07 
-6.5000000000000002e-01 -5.7648666125472769e-01 +7.5413981454886265e+00 +5.7355072325905487e+00 -1.0057138886393858e+02 +1.3752484517239134e+04 +1.9311048885171086e+05 -6.0599575366148695e+07 
-6.9999999999999996e-01 -5.7649405021129474e-01 +7.5417281249109109e+00 +5.7292150735682155e+00 -1.0113514894924022e+02 +1.3741882885053372e+04 +1.9755150310071115e+05 -6.0523264940726668e+07 
-7.5000000000000000e-01 -5.7650185187698344e-01 +7.5420804871896712e+00 +5.7226439526334500e+00 -1.0171142556443614e+02 +1.3728338622304303e+04 +2.0211977170027213e+05 -6.0434860258080877e+07 
-8.0000000000000004e-01 -5.7651006545485095e-01 +7.5424551573521903e+00 +5.7157983603972005e+00 -1.0229940186111247e+02 +1.3711742190071513e+04 +2.0680945457254013e+05 -6.0333542742978275e+07 
-8.4999999999999998e-01 -5.7651869014802637e-01 +7.5428520604275651e+00 +5.7086827928834181e+00 -1.0289826103631138e+02 +1.3691983897875230e+04 +2.1161471201124435e+05 -6.0218492778391182e+07 
-9.0000000000000002e-01 -5.7652772515961326e-01 +7.5432711214449792e+00 +5.7013017432091830e+00 -1.0350718625175412e+02 +1.3668954136076516e+04 +2.1652970400712363e+05 -6.0088891305627801e+07 
-9.4999999999999996e-01 -5.7653716969271129e-01 +7.5437122654337259e+00 +5.6936597054863132e+00 -1.0412536066388944e+02 +1.3642543264944763e+04 +2.2154859060105443e+05 -5.9943919049088493e+07 
-1.0000000000000000e+00 -5.7654702295046356e-01 +7.5441754174246523e+00 +5.6857611730440150e+00 -1.0475196743849250e+02 +1.3612641673925893e+04 +2.2666553181104214e+05 -5.9782756964589134e+07 
-1.0500000000000000e+00 -5.7655728413605867e-01 +7.5446605024483784e+00 +5.6776106405823628e+00 -1.0538618972696693e+02 +1.3579139701197941e+04 +2.3187468763456476e+05 -5.9604585607033946e+07 
-1.1000000000000001e+00 -5.7656795245262094e-01 +7.5451674455334512e+00 +5.6692126011817621e+00 -1.0602721055949911e+02 +1.3541927744464396e+04 +2.3717021707792016e+05 -5.9408585995128602e+07 
-1.1499999999999999e+00 -5.7657902710343101e-01 +7.5456961717130557e+00 +5.6605715499422624e+00 -1.0667421311896749e+02 +1.3500896131855194e+04 +2.4254628032821056e+05 -5.9193938620689869e+07 
-1.2000000000000000e+00 -5.7659050729165318e-01 +7.5462466060174744e+00 +5.6516919814063735e+00 -1.0732638045664767e+02 +1.3455935215344260e+04 +2.4799703661624540e+05 -5.8959824172484867e+07 
-1.2500000000000000e+00 -5.7660239222050480e-01 +7.5468186734796987e+00 +5.6425783873839421e+00 -1.0798289569168922e+02 +1.3406935417535655e+04 +2.5351664564599184e+05 -5.8705423805929780e+07 
-1.3000000000000000e+00 -5.7661468109326364e-01 +7.5474122991314898e+00 +5.6332352622072559e+00 -1.0864294187842904e+02 +1.3353787091111324e+04 +2.5909926666022680e+05 -5.8429918194877043e+07 
-1.3500000000000001e+00 -5.7662737311320122e-01 +7.5480274080036640e+00 +5.6236671011775918e+00 -1.0930570199453368e+02 +1.3296380561823466e+04 +2.6473905823290144e+05 -5.8132487830947839e+07 
-1.3999999999999999e+00 -5.7664046748353970e-01 +7.5486639251339147e+00 +5.6138783973191755e+00 -1.0997035926012076e+02 +1.3234606220262251e+04 +2.7043018091286329e+05 -5.7812313659679785e+07 
-1.4500000000000000e+00 -5.7665396340762964e-01 +7.5493217755514541e+00 +5.6038736442438264e+00 -1.1063609655566161e+02 +1.3168354435072994e+04 +2.7616679257234203e+05 -5.7468576451465331e+07 
-1.5000000000000000e+00 -5.7666786008879212e-01 +7.5500008842924684e+00 +5.5936573370238696e+00 -1.1130209698311310e+02 +1.3097515537783178e+04 +2.8194305278346688e+05 -5.7100456739039205e+07 
-1.5500000000000000e+00 -5.7668215673032885e-01 +7.5507011763889693e+00 +5.5832339691877317e+00 -1.1196754345045410e+02 +1.3021979898897382e+04 +2.8775311954523210e+05 -5.6707135306220599e+07 
-1.6000000000000001e+00 -5.7669685253558267e-01 +7.5514225768766172e+00 +5.5726080333995993e+00 -1.1263161900087199e+02 +1.2941637916982218e+04 +2.9359115202563175e+05 -5.6287793146781512e+07 
-1.6499999999999999e+00 -5.7671194670794512e-01 +7.5521650107898042e+00 +5.5617840238785732e+00 -1.1329350659179821e+02 +1.2856379939030970e+04 +2.9945130864652316e+05 -5.5841610868735790e+07 
-1.7000000000000000e+00 -5.7672743845076735e-01 +7.5529284031627277e+00 +5.5507664340339131e+00 -1.1395238913524112e+02 +1.2766096339055646e+04 +3.0532774744494347e+05 -5.5367769283308305e+07 
-1.7500000000000000e+00 -5.7674332696747699e-01 +7.5537126790327083e+00 +5.5395597583308565e+00 -1.1460744965225628e+02 +1.2670677458945491e+04 +3.1121462736892758e+05 -5.4865448970733106e+07 
-1.8000000000000000e+00 -5.7675961146145915e-01 +7.5545177634336351e+00 +5.5281684904913106e+00 -1.1525787099520198e+02 +1.2570013662197151e+04 +3.1710610598971747e+05 -5.4333830664720953e+07 
-1.8500000000000001e+00 -5.7677629113613482e-01 +7.5553435814006580e+00 +5.5165971229053188e+00 -1.1590283602869341e+02 +1.2463995344703013e+04 +3.2299634092145576e+05 -5.3772095301350832e+07 
-1.8999999999999999e+00 -5.7679336519497815e-01 +7.5561900579737680e+00 +5.5048501498023485e+00 -1.1654152780105751e+02 +1.2352512852216525e+04 +3.2887949133662932e+05 -5.3179423480578355e+07 
-1.9500000000000000e+00 -5.7681083284142654e-01 +7.5570571181851509e+00 +5.4929320655777607e+00 -1.1717312899915325e+02 +1.2235456524052923e+04 +3.3474971338451956e+05 -5.2554995746981524e+07 
-2.0000000000000000e+00 -5.7682869327897768e-01 +7.5579446870739018e+00 +5.4808473629244530e+00 -1.1779682257341705e+02 +1.2112716746839804e+04 +3.4060116539808002e+05 -5.1897992972897105e+07 
-2.0499999999999998e+00 -5.7684694543152182e-01 +7.5588526717878066e+00 +5.4685979771369473e+00 -1.1841187379106317e+02 +1.1984257338045965e+04 +3.4642840739665984e+05 -5.1208050000025049e+07 
-2.1000000000000001e+00 -5.7686558710117708e-01 +7.5597809105883895e+00 +5.4561755605057884e+00 -1.1901789690781102e+02 +1.1850340118514550e+04 +3.5222769507469208e+05 -5.0486643642648093e+07 
-2.1499999999999999e+00 -5.7688461580881933e-01 +7.5607292207593169e+00 +5.4435694126278849e+00 -1.1961460361714555e+02 +1.1711302386046355e+04 +3.5799572662545851e+05 -4.9735716511902228e+07 
-2.2000000000000002e+00 -5.7690402907535898e-01 +7.5616974195829716e+00 +5.4307688272614376e+00 -1.2020170554698372e+02 +1.1567481594797988e+04 +3.6372919966807426e+05 -4.8957212266545333e+07 
-2.2500000000000000e+00 -5.7692382442166412e-01 +7.5626853243449990e+00 +5.4177631028115680e+00 -1.2077891443432121e+02 +1.1419215074589045e+04 +3.6942481272024789e+05 -4.8153073728116468e+07 
-2.2999999999999998e+00 -5.7694399936861740e-01 +7.5636927523306818e+00 +5.4045415336967464e+00 -1.2134594198085293e+02 +1.1266840259818709e+04 +3.7507926398841944e+05 -4.7325244415259086e+07 
-2.3500000000000001e+00 -5.7696455143709879e-01 +7.5647195208253839e+00 +5.3910934160779176e+00 -1.2190249987712089e+02 +1.1110694541141767e+04 +3.8068925160506222e+05 -4.6475667561405413e+07 
-2.3999999999999999e+00 -5.7698547814805912e-01 +7.5657654471165880e+00 +5.3774080471858667e+00 -1.2244829988142077e+02 +1.0951115278162666e+04 +3.8625147422547650e+05 -4.5606286183054350e+07 
-2.4500000000000002e+00 -5.7700677702239356e-01 +7.5668303484924033e+00 +5.3634747220540770e+00 -1.2298305375709218e+02 +1.0788439888386021e+04 +3.9176263054919615e+05 -4.4719043680597894e+07 
-2.5000000000000000e+00 -5.7702844558110156e-01 +7.5679140422394999e+00 +5.3492827375500323e+00 -1.2350647319680748e+02 +1.0623005739791070e+04 +3.9721941867969627e+05 -4.3815883119469285e+07 
-2.5499999999999998e+00 -5.7705048134504200e-01 +7.5690163456494144e+00 +5.3348213880944746e+00 -1.2401827007300069e+02 +1.0455150266532835e+04 +4.0261853820847906e+05 -4.2898748012010619e+07 
-2.6000000000000001e+00 -5.7707288183526650e-01 +7.5701370760118341e+00 +5.3200799707893482e+00 -1.2451815617029899e+02 +1.0285210832943674e+04 +4.0795668797763367e+05 -4.1969581410051152e+07 
-2.6499999999999999e+00 -5.7709564457271534e-01 +7.5712760506142596e+00 +5.3050477808771648e+00 -1.2500584315825654e+02 +1.0113524850338175e+04 +4.1323056585374038e+05 -4.1030326665918872e+07 
-2.7000000000000002e+00 -5.7711876707836052e-01 +7.5724330867543621e+00 +5.2897141126657905e+00 -1.2548104311745193e+02 +9.9404297527896761e+03 +4.1843687310639798e+05 -4.0082927277651913e+07 
-2.7500000000000000e+00 -5.7714224687319782e-01 +7.5736080017217722e+00 +5.2740682629673410e+00 -1.2594346778309563e+02 +9.7662629095020366e+03 +4.2357230813992949e+05 -3.9129326317654148e+07 
-2.7999999999999998e+00 -5.7716608147819903e-01 +7.5748006128105843e+00 +5.2580995267709110e+00 -1.2639282905306450e+02 +9.5913617406381072e+03 +4.2863357067427790e+05 -3.8171467202150516e+07 
-2.8500000000000001e+00 -5.7719026841438426e-01 +7.5760107373159675e+00 +5.2417971968043000e+00 -1.2682883885661873e+02 +9.4160637236513248e+03 +4.3361736065709585e+05 -3.7211293723005526e+07 
-2.8999999999999999e+00 -5.7721480520279511e-01 +7.5772381925345487e+00 +5.2251505728096745e+00 -1.2725120918349685e+02 +9.2407061468932861e+03 +4.3852037858501275e+05 -3.6250748394699275e+07 
-2.9500000000000002e+00 -5.7723968936442671e-01 +7.5784827957618610e+00 +5.2081489444731828e+00 -1.2765965194389209e+02 +9.0656265712700351e+03 +4.4333932419687550e+05 -3.5291775575338304e+07 
-3.0000000000000000e+00 -5.7726491842032734e-01 +7.5797443642963671e+00 +5.1907816093857253e+00 -1.2805387917510564e+02 +8.8911623428659314e+03 +4.4807089834183548e+05 -3.4336318164146878e+07 
-3.0499999999999998e+00 -5.7729048989150589e-01 +7.5810227154370651e+00 +5.1730378614267325e+00 -1.2843360290657549e+02 +8.7176509093213263e+03 +4.5271180171351507e+05 -3.3386319751703996e+07 
-3.1000000000000001e+00 -5.7731640129904593e-01 +7.5823176664829131e+00 +5.1549069967419587e+00 -1.2879853516966875e+02 +8.5454296547145223e+03 +4.5725873505931522e+05 -3.2443723488615710e+07 
-3.1499999999999999e+00 -5.7734265016397623e-01 +7.5836290347364068e+00 +5.1363783049501839e+00 -1.2914838812611720e+02 +8.3748361398713059e+03 +4.6170840016861598e+05 -3.1510473719680138e+07 
-3.2000000000000002e+00 -5.7736923400738316e-01 +7.5849566374999897e+00 +5.1174410845877372e+00 -1.2948287392257112e+02 +8.2062076868394252e+03 +4.6605749867824779e+05 -3.0588513184451070e+07 
-3.2500000000000000e+00 -5.7739615035029768e-01 +7.5863002920755669e+00 +5.0980846276859735e+00 -1.2980170467740626e+02 +8.0398817916915905e+03 +4.7030273198942491e+05 -2.9679785788625080e+07 
-3.2999999999999998e+00 -5.7742339671382714e-01 +7.5876598157672763e+00 +5.0782982288873333e+00 -1.3010459257585600e+02 +7.8761958808545160e+03 +4.7444080197115667e+05 -2.8786234970465302e+07 
-3.3500000000000001e+00 -5.7745097061907358e-01 +7.5890350258814134e+00 +5.0580711810737240e+00 -1.3039124991102415e+02 +7.7154874212622562e+03 +4.7846841146431398e+05 -2.7909804411630090e+07 
-3.3999999999999999e+00 -5.7747886958707351e-01 +7.5904257397238553e+00 +5.0373927780304522e+00 -1.3066138892574131e+02 +7.5580938665359799e+03 +4.8238226280040835e+05 -2.7052437747160397e+07 
-3.4500000000000002e+00 -5.7750709113891918e-01 +7.5918317746046950e+00 +5.0162523131211687e+00 -1.3091472204258775e+02 +7.4043526746456700e+03 +4.8617905980394612e+05 -2.6216078611240815e+07 
-3.5000000000000000e+00 -5.7753563279573361e-01 +7.5932529478316333e+00 +4.9946390789740986e+00 -1.3115096156111770e+02 +7.2546013241246992e+03 +4.8985550520480715e+05 -2.5402670778162327e+07 
-3.5499999999999998e+00 -5.7756449207862592e-01 +7.5946890767142508e+00 +4.9725423694469990e+00 -1.3136981987666499e+02 +7.1091772625027670e+03 +4.9340830259311880e+05 -2.4614157820330061e+07 
-3.6000000000000001e+00 -5.7759366650869970e-01 +7.5961399785645671e+00 +4.9499514764483186e+00 -1.3157100945451381e+02 +6.9684179869746795e+03 +4.9683415602552198e+05 -2.3852483631305803e+07 
-3.6499999999999999e+00 -5.7762315360706884e-01 +7.5976054706974097e+00 +4.9268556927227092e+00 -1.3175424287910039e+02 +6.8326609729512720e+03 +5.0012977055150771e+05 -2.3119591958586611e+07 
-3.6999999999999900e+00 -5.7765295089482349e-01 +7.5990853704246168e+00 +4.9032443106367172e+00 -1.3191923260563573e+02 +6.7022437088416864e+03 +5.0329185013346007e+05 -2.2417426647978265e+07 
-3.7499999999999898e+00 -5.7768305589314417e-01 +7.6005794950632790e+00 +4.8791066230452955e+00 -1.3206569130551466e+02 +6.5775036648491141e+03 +5.0631710049538006e+05 -2.1747931398610279e+07 
-3.7999999999999901e+00 -5.7771346612309171e-01 +7.6020876619287989e+00 +4.8544319203885529e+00 -1.3219333155441305e+02 +6.4587783790454687e+03 +5.0920222647618980e+05 -2.1113050377922591e+07 
-3.8499999999999899e+00 -5.7774417910586684e-01 +7.6036096883395246e+00 +4.8292094970787041e+00 -1.3230186608326503e+02 +6.3464052838705256e+03 +5.1194393431121175e+05 -2.0514727042331114e+07 
-3.8999999999999901e+00 -5.7777519236249564e-01 +7.6051453916157001e+00 +4.8034286407191571e+00 -1.3239100765275819e+02 +6.2407219923631155e+03 +5.1453893028635951e+05 -1.9954906055453766e+07 
-3.9499999999999900e+00 -5.7780650341421724e-01 +7.6066945890775832e+00 +4.7770786462397998e+00 -1.3246046905868326e+02 +6.1420659236024394e+03 +5.1698392107993248e+05 -1.9435530783535626e+07 
-3.9999999999999898e+00 -5.7783810978210981e-01 +7.6082570980483020e+00 +4.7501488039634028e+00 -1.3250996317984271e+02 +6.0507746161120340e+03 +5.1927561397360434e+05 -1.8958545369045101e+07 
-4.0499999999999901e+00 -5.7787000888146267e-01 +7.6098327351572523e+00 +4.7226321676026632e+00 -1.3253931515033483e+02 +5.9671068502383387e+03 +5.2141178517642198e+05 -1.8525436437447205e+07 
-4.0999999999999899e+00 -5.7790219770480911e-01 +7.6114213064221259e+00 +4.6945371290651314e+00 -1.3254880818260398e+02 +5.8910067480026664e+03 +5.2339459702870046e+05 -1.8135878154814325e+07 
-4.1499999999999897e+00 -5.7793467313939018e-01 +7.6130226132550733e+00 +4.6658760199597786e+00 -1.3253884381897285e+02 +5.8223396785176765e+03 +5.2522734462414996e+05 -1.7789094957255822e+07 
-4.1999999999999904e+00 -5.7796743207238821e-01 +7.6146364570695209e+00 +4.6366611717990072e+00 -1.3250982364955419e+02 +5.7609710059683157e+03 +5.2691332331546466e+05 -1.7484311211051818e+07 
-4.2499999999999902e+00 -5.7800047139107269e-01 +7.6162626392792010e+00 +4.6069049160966768e+00 -1.3246214930571588e+02 +5.7067660999874679e+03 +5.2845582886008173e+05 -1.7220751339585178e+07 
-4.2999999999999901e+00 -5.7803378798260685e-01 +7.6179009612958479e+00 +4.5766195846129509e+00 -1.3239622232204152e+02 +5.6595903278431206e+03 +5.2985815614485578e+05 -1.6997639767113291e+07 
-4.3499999999999899e+00 -5.7806737873423342e-01 +7.6195512245319543e+00 +4.5458175094153299e+00 -1.3231244430257095e+02 +5.6193090357676792e+03 +5.3112360072679154e+05 -1.6814200726723261e+07 
-4.3999999999999897e+00 -5.7810124053315859e-01 +7.6212132304003024e+00 +4.5145110200331455e+00 -1.3221121685152386e+02 +5.5857876502067766e+03 +5.3225545808838436e+05 -1.6669659040030878e+07 
-4.4499999999999904e+00 -5.7813537026658557e-01 +7.6228867803113820e+00 +4.4827124508778962e+00 -1.3209294149729493e+02 +5.5588914582888747e+03 +5.3325702311987116e+05 -1.6563238557013545e+07 
-4.4999999999999902e+00 -5.7816976482175164e-01 +7.6245716756766049e+00 +4.4504341321223233e+00 -1.3195801982479628e+02 +5.5384858687922897e+03 +5.3413159119428042e+05 -1.6494163980285883e+07 
-4.5499999999999901e+00 -5.7820442108586800e-01 +7.6262677179092302e+00 +4.4176883947000389e+00 -1.3180685349279287e+02 +5.5244362640343725e+03 +5.3488245824134210e+05 -1.6461659809049005e+07 
-4.5999999999999899e+00 -5.7823933594618548e-01 +7.6279747084168896e+00 +4.3844875717300473e+00 -1.3163984396591550e+02 +5.5166079698955709e+03 +5.3551291868222342e+05 -1.6464950172827274e+07 
-4.6499999999999897e+00 -5.7827450628984123e-01 +7.6296924486128832e+00 +4.3508439960372156e+00 -1.3145739293414539e+02 +5.5148663177368217e+03 +5.3602626874306891e+05 -1.6503259228493497e+07 
-4.6999999999999904e+00 -5.7830992900411182e-01 +7.6314207399041392e+00 +4.3167699958435648e+00 -1.3125990184613048e+02 +5.5190767662220869e+03 +5.3642580263910734e+05 -1.6575812005960770e+07 
-4.7499999999999902e+00 -5.7834560097617815e-01 +7.6331593837012619e+00 +4.2822779074312045e+00 -1.3104777232606219e+02 +5.5291045540539817e+03 +5.3671481611336721e+05 -1.6681832040624596e+07 
-4.7999999999999901e+00 -5.7838151909329016e-01 +7.6349081814128974e+00 +4.2473800599510918e+00 -1.3082140592455730e+02 +5.5448151122974896e+03 +5.3689660423794645e+05 -1.6820544166351642e+07 
-4.8499999999999899e+00 -5.7841768024258267e-01 +7.6366669344470948e+00 +4.2120887869534096e+00 -1.3058120419009001e+02 +5.5660737557532566e+03 +5.3697446211890865e+05 -1.6991172442426216e+07 
-4.8999999999999897e+00 -5.7845408131134235e-01 +7.6384354442116509e+00 +4.1764164200514156e+00 -1.3032756867925679e+02 +5.5927458501812880e+03 +5.3695168491105863e+05 -1.7192941269496124e+07 
-4.9499999999999904e+00 -5.7849071918674244e-01 +7.6402135121133421e+00 +4.1403752908068210e+00 -1.3006090092035757e+02 +5.6246967621248150e+03 +5.3683156754353666e+05 -1.7425075048539255e+07 
-4.9999999999999902e+00 -5.7852759075595728e-01 +7.6420009395585815e+00 +4.1039777315906427e+00 -1.2978160245775342e+02 +5.6617918367923803e+03 +5.3661740511913644e+05 -1.7686798040669221e+07 
-5.0499999999999901e+00 -5.7856469290867585e-01 +7.6437975184143170e+00 +4.0672365394521899e+00 -1.2949008363600350e+02 +5.7038964145759946e+03 +5.3631249050888827e+05 -1.7977334044809300e+07 
