# trajectory
# s[mm] rx[mm] ry[mm] rz[mm] px[rad] py[rad] pz[rad]
0.0000000000000000e+00 +8.2850000000000001e+00 +0.0000000000000000e+00 +0.0000000000000000e+00 +0.0000000000000000e+00 +0.0000000000000000e+00 +1.0000000000000000e+00
5.0000000000000003e-02 +8.2849999310558591e+00 +0.0000000000000000e+00 +4.9999999999936623e-02 -2.7577642402157376e-06 +0.0000000000000000e+00 +9.9999999999619738e-01
1.0000000000000001e-01 +8.2849997242237006e+00 +0.0000000000000000e+00 +9.9999999999492981e-02 -5.5155210028492875e-06 +0.0000000000000000e+00 +9.9999999998478950e-01
1.5000000000000002e-01 +8.2849993795038497e+00 +0.0000000000000000e+00 +1.4999999999828881e-01 -8.2732722716987344e-06 +0.0000000000000000e+00 +9.9999999996577649e-01
2.0000000000000001e-01 +8.2849988968965320e+00 +0.0000000000000000e+00 +1.9999999999594387e-01 -1.1031020027341134e-05 +0.0000000000000000e+00 +9.9999999993915833e-01
2.5000000000000000e-01 +8.2849982764018737e+00 +0.0000000000000000e+00 +2.4999999999207789e-01 -1.3788766247132607e-05 +0.0000000000000000e+00 +9.9999999990493504e-01
2.9999999999999999e-01 +8.2849975180199014e+00 +0.0000000000000000e+00 +2.9999999998631061e-01 -1.6546512905208432e-05 +0.0000000000000000e+00 +9.9999999986310650e-01
3.4999999999999998e-01 +8.2849966217505440e+00 +0.0000000000000000e+00 +3.4999999997826176e-01 -1.9304261972483132e-05 +0.0000000000000000e+00 +9.9999999981367282e-01
3.9999999999999997e-01 +8.2849955875936310e+00 +0.0000000000000000e+00 +3.9999999996755109e-01 -2.2062015416650575e-05 +0.0000000000000000e+00 +9.9999999975663378e-01
4.4999999999999996e-01 +8.2849944155488959e+00 +0.0000000000000000e+00 +4.4999999995379836e-01 -2.4819775202184055e-05 +0.0000000000000000e+00 +9.9999999969198938e-01
4.9999999999999994e-01 +8.2849931056159729e+00 +0.0000000000000000e+00 +4.9999999993662325e-01 -2.7577543290336395e-05 +0.0000000000000000e+00 +9.9999999961973951e-01
5.4999999999999993e-01 +8.2849916577943965e+00 +0.0000000000000000e+00 +5.4999999991564552e-01 -3.0335321639140025e-05 +0.0000000000000000e+00 +9.9999999953988405e-01
5.9999999999999998e-01 +8.2849900720836054e+00 +0.0000000000000000e+00 +5.9999999989048491e-01 -3.3093112203407084e-05 +0.0000000000000000e+00 +9.9999999945242291e-01
6.5000000000000002e-01 +8.2849883484829405e+00 +0.0000000000000000e+00 +6.4999999986076107e-01 -3.5850916934729497e-05 +0.0000000000000000e+00 +9.9999999935735584e-01
7.0000000000000007e-01 +8.2849864869916434e+00 +0.0000000000000000e+00 +6.9999999982609373e-01 -3.8608737781479078e-05 +0.0000000000000000e+00 +9.9999999925468264e-01
7.5000000000000011e-01 +8.2849844876088614e+00 +0.0000000000000000e+00 +7.4999999978610254e-01 -4.1366576688807612e-05 +0.0000000000000000e+00 +9.9999999914440307e-01
8.0000000000000016e-01 +8.2849823503336424e+00 +0.0000000000000000e+00 +7.9999999974040725e-01 -4.4124435598646935e-05 +0.0000000000000000e+00 +9.9999999902651704e-01
8.5000000000000020e-01 +8.2849800751649365e+00 +0.0000000000000000e+00 +8.4999999968862749e-01 -4.6882316449709037e-05 +0.0000000000000000e+00 +9.9999999890102420e-01
9.0000000000000024e-01 +8.2849776621015998e+00 +0.0000000000000000e+00 +8.9999999963038291e-01 -4.9640221177486135e-05 +0.0000000000000000e+00 +9.9999999876792423e-01
9.5000000000000029e-01 +8.2849751111423888e+00 +0.0000000000000000e+00 +9.4999999956529313e-01 -5.2398151714250777e-05 +0.0000000000000000e+00 +9.9999999862721689e-01
1.0000000000000002e+00 +8.2849724222859660e+00 +0.0000000000000000e+00 +9.9999999949297780e-01 -5.5156109989055920e-05 +0.0000000000000000e+00 +9.9999999847890175e-01
1.0500000000000003e+00 +8.2849695955308960e+00 +0.0000000000000000e+00 +1.0499999994130564e+00 -5.7914097927735008e-05 +0.0000000000000000e+00 +9.9999999832297859e-01
1.1000000000000003e+00 +8.2849666308756476e+00 +0.0000000000000000e+00 +1.0999999993251488e+00 -6.0672117452902071e-05 +0.0000000000000000e+00 +9.9999999815944707e-01
1.1500000000000004e+00 +8.2849635283185936e+00 +0.0000000000000000e+00 +1.1499999992288743e+00 -6.3430170483951806e-05 +0.0000000000000000e+00 +9.9999999798830674e-01
1.2000000000000004e+00 +8.2849602878580093e+00 +0.0000000000000000e+00 +1.1999999991238526e+00 -6.6188258937059657e-05 +0.0000000000000000e+00 +9.9999999780955717e-01
1.2500000000000004e+00 +8.2849569094920774e+00 +0.0000000000000000e+00 +1.2499999990097033e+00 -6.8946384725181915e-05 +0.0000000000000000e+00 +9.9999999762319802e-01
1.3000000000000005e+00 +8.2849533932188830e+00 +0.0000000000000000e+00 +1.2999999988860456e+00 -7.1704549758055787e-05 +0.0000000000000000e+00 +9.9999999742922874e-01
1.3500000000000005e+00 +8.2849497390364153e+00 +0.0000000000000000e+00 +1.3499999987524993e+00 -7.4462755942199482e-05 +0.0000000000000000e+00 +9.9999999722764898e-01
1.4000000000000006e+00 +8.2849459469425710e+00 +0.0000000000000000e+00 +1.3999999986086837e+00 -7.7221005180912297e-05 +0.0000000000000000e+00 +9.9999999701845821e-01
1.4500000000000006e+00 +8.2849420169351475e+00 +0.0000000000000000e+00 +1.4499999984542182e+00 -7.9979299374274693e-05 +0.0000000000000000e+00 +9.9999999680165585e-01
1.5000000000000007e+00 +8.2849379490118515e+00 +0.0000000000000000e+00 +1.4999999982887224e+00 -8.2737640419148408e-05 +0.0000000000000000e+00 +9.9999999657724148e-01
1.5500000000000007e+00 +8.2849337431702921e+00 +0.0000000000000000e+00 +1.5499999981118155e+00 -8.5496030209176506e-05 +0.0000000000000000e+00 +9.9999999634521441e-01
1.6000000000000008e+00 +8.2849293994079858e+00 +0.0000000000000000e+00 +1.5999999979231170e+00 -8.8254470634783463e-05 +0.0000000000000000e+00 +9.9999999610557422e-01
1.6500000000000008e+00 +8.2849249177223534e+00 +0.0000000000000000e+00 +1.6499999977222461e+00 -9.1012963583175262e-05 +0.0000000000000000e+00 +9.9999999585832022e-01
1.7000000000000008e+00 +8.2849202981107215e+00 +0.0000000000000000e+00 +1.6999999975088222e+00 -9.3771510938339469e-05 +0.0000000000000000e+00 +9.9999999560345187e-01
1.7500000000000009e+00 +8.2849155405703225e+00 +0.0000000000000000e+00 +1.7499999972824645e+00 -9.6530114581045307e-05 +0.0000000000000000e+00 +9.9999999534096851e-01
1.8000000000000009e+00 +8.2849106450982948e+00 +0.0000000000000000e+00 +1.7999999970427922e+00 -9.9288776388843747e-05 +0.0000000000000000e+00 +9.9999999507086945e-01
1.8500000000000010e+00 +8.2849056116916824e+00 +0.0000000000000000e+00 +1.8499999967894245e+00 -1.0204749823606756e-04 +0.0000000000000000e+00 +9.9999999479315405e-01
1.9000000000000010e+00 +8.2849004403474389e+00 +0.0000000000000000e+00 +1.8999999965219807e+00 -1.0480628199383146e-04 +0.0000000000000000e+00 +9.9999999450782162e-01
1.9500000000000011e+00 +8.2848951310624201e+00 +0.0000000000000000e+00 +1.9499999962400798e+00 -1.0756512953003210e-04 +0.0000000000000000e+00 +9.9999999421487140e-01
2.0000000000000009e+00 +8.2848896838333914e+00 +0.0000000000000000e+00 +1.9999999959433410e+00 -1.1032404270934823e-04 +0.0000000000000000e+00 +9.9999999391430272e-01
2.0500000000000007e+00 +8.2848840986570238e+00 +0.0000000000000000e+00 +2.0499999956313832e+00 -1.1308302339292144e-04 +0.0000000000000000e+00 +9.9999999360611480e-01
2.1000000000000005e+00 +8.2848783755298960e+00 +0.0000000000000000e+00 +2.0999999953038255e+00 -1.1584207343484437e-04 +0.0000000000000000e+00 +9.9999999329030687e-01
2.1500000000000004e+00 +8.2848725144484945e+00 +0.0000000000000000e+00 +2.1499999949602868e+00 -1.1860119467864880e-04 +0.0000000000000000e+00 +9.9999999296687814e-01
2.2000000000000002e+00 +8.2848665154092114e+00 +0.0000000000000000e+00 +2.1999999946003861e+00 -1.2136038895698650e-04 +0.0000000000000000e+00 +9.9999999263582784e-01
2.2500000000000000e+00 +8.2848603784083501e+00 +0.0000000000000000e+00 +2.2499999942237423e+00 -1.2411965809162927e-04 +0.0000000000000000e+00 +9.9999999229715508e-01
2.2999999999999998e+00 +8.2848541034421235e+00 +0.0000000000000000e+00 +2.2999999938299744e+00 -1.2687900389346898e-04 +0.0000000000000000e+00 +9.9999999195085898e-01
2.3499999999999996e+00 +8.2848476905066519e+00 +0.0000000000000000e+00 +2.3499999934187010e+00 -1.2963842816251768e-04 +0.0000000000000000e+00 +9.9999999159693875e-01
2.3999999999999995e+00 +8.2848411395979689e+00 +0.0000000000000000e+00 +2.3999999929895410e+00 -1.3239793268790762e-04 +0.0000000000000000e+00 +9.9999999123539351e-01
2.4499999999999993e+00 +8.2848344507120153e+00 +0.0000000000000000e+00 +2.4499999925421134e+00 -1.3515751924789133e-04 +0.0000000000000000e+00 +9.9999999086622227e-01
2.4999999999999991e+00 +8.2848276238446470e+00 +0.0000000000000000e+00 +2.4999999920760363e+00 -1.3791718960984162e-04 +0.0000000000000000e+00 +9.9999999048942412e-01
2.5499999999999989e+00 +8.2848206589916291e+00 +0.0000000000000000e+00 +2.5499999915909286e+00 -1.4067694553025178e-04 +0.0000000000000000e+00 +9.9999999010499818e-01
2.5999999999999988e+00 +8.2848135561486398e+00 +0.0000000000000000e+00 +2.5999999910864089e+00 -1.4343678875473548e-04 +0.0000000000000000e+00 +9.9999998971294346e-01
2.6499999999999986e+00 +8.2848063153112701e+00 +0.0000000000000000e+00 +2.6499999905620957e+00 -1.4619672101802688e-04 +0.0000000000000000e+00 +9.9999998931325906e-01
2.6999999999999984e+00 +8.2847989364750259e+00 +0.0000000000000000e+00 +2.6999999900176075e+00 -1.4895674404398073e-04 +0.0000000000000000e+00 +9.9999998890594388e-01
2.7499999999999982e+00 +8.2847914196353258e+00 +0.0000000000000000e+00 +2.7499999894525629e+00 -1.5171685954557234e-04 +0.0000000000000000e+00 +9.9999998849099692e-01
2.7999999999999980e+00 +8.2847837647875018e+00 +0.0000000000000000e+00 +2.7999999888665799e+00 -1.5447706922489768e-04 +0.0000000000000000e+00 +9.9999998806841717e-01
2.8499999999999979e+00 +8.2847759719268055e+00 +0.0000000000000000e+00 +2.8499999882592770e+00 -1.5723737477317345e-04 +0.0000000000000000e+00 +9.9999998763820364e-01
2.8999999999999977e+00 +8.2847680410483999e+00 +0.0000000000000000e+00 +2.8999999876302729e+00 -1.5999777787073708e-04 +0.0000000000000000e+00 +9.9999998720035521e-01
2.9499999999999975e+00 +8.2847599721473646e+00 +0.0000000000000000e+00 +2.9499999869791855e+00 -1.6275828018704681e-04 +0.0000000000000000e+00 +9.9999998675487078e-01
2.9999999999999973e+00 +8.2847517652186990e+00 +0.0000000000000000e+00 +2.9999999863056330e+00 -1.6551888338068170e-04 +0.0000000000000000e+00 +9.9999998630174924e-01
3.0499999999999972e+00 +8.2847434202573176e+00 +0.0000000000000000e+00 +3.0499999856092335e+00 -1.6827958909934170e-04 +0.0000000000000000e+00 +9.9999998584098959e-01
3.0999999999999970e+00 +8.2847349372580528e+00 +0.0000000000000000e+00 +3.0999999848896049e+00 -1.7104039897984774e-04 +0.0000000000000000e+00 +9.9999998537259061e-01
3.1499999999999968e+00 +8.2847263162156555e+00 +0.0000000000000000e+00 +3.1499999841463655e+00 -1.7380131464814167e-04 +0.0000000000000000e+00 +9.9999998489655118e-01
3.1999999999999966e+00 +8.2847175571247966e+00 +0.0000000000000000e+00 +3.1999999833791328e+00 -1.7656233771928641e-04 +0.0000000000000000e+00 +9.9999998441287008e-01
3.2499999999999964e+00 +8.2847086599800654e+00 +0.0000000000000000e+00 +3.2499999825875250e+00 -1.7932346979746591e-04 +0.0000000000000000e+00 +9.9999998392154621e-01
3.2999999999999963e+00 +8.2846996247759730e+00 +0.0000000000000000e+00 +3.2999999817711601e+00 -1.8208471247598519e-04 +0.0000000000000000e+00 +9.9999998342257834e-01
3.3499999999999961e+00 +8.2846904515069486e+00 +0.0000000000000000e+00 +3.3499999809296557e+00 -1.8484606733727046e-04 +0.0000000000000000e+00 +9.9999998291596526e-01
3.3999999999999959e+00 +8.2846811401673435e+00 +0.0000000000000000e+00 +3.3999999800626295e+00 -1.8760753595286909e-04 +0.0000000000000000e+00 +9.9999998240170573e-01
3.4499999999999957e+00 +8.2846716907514306e+00 +0.0000000000000000e+00 +3.4499999791696991e+00 -1.9036911988344962e-04 +0.0000000000000000e+00 +9.9999998187979855e-01
3.4999999999999956e+00 +8.2846621032534067e+00 +0.0000000000000000e+00 +3.4999999782504823e+00 -1.9313082067880190e-04 +0.0000000000000000e+00 +9.9999998135024248e-01
3.5499999999999954e+00 +8.2846523776673902e+00 +0.0000000000000000e+00 +3.5499999773045960e+00 -1.9589263987783702e-04 +0.0000000000000000e+00 +9.9999998081303620e-01
3.5999999999999952e+00 +8.2846425139874214e+00 +0.0000000000000000e+00 +3.5999999763316581e+00 -1.9865457900858740e-04 +0.0000000000000000e+00 +9.9999998026817849e-01
3.6499999999999950e+00 +8.2846325122074660e+00 +0.0000000000000000e+00 +3.6499999753312862e+00 -2.0141663958820678e-04 +0.0000000000000000e+00 +9.9999997971566801e-01
3.6999999999999948e+00 +8.2846223723214134e+00 +0.0000000000000000e+00 +3.6999999743030973e+00 -2.0417882312297027e-04 +0.0000000000000000e+00 +9.9999997915550343e-01
3.7499999999999947e+00 +8.2846120943230801e+00 +0.0000000000000000e+00 +3.7499999732467089e+00 -2.0694113110827442e-04 +0.0000000000000000e+00 +9.9999997858768341e-01
3.7999999999999945e+00 +8.2846016782062044e+00 +0.0000000000000000e+00 +3.7999999721617379e+00 -2.0970356502863718e-04 +0.0000000000000000e+00 +9.9999997801220664e-01
3.8499999999999943e+00 +8.2845911239644536e+00 +0.0000000000000000e+00 +3.8499999710478017e+00 -2.1246612635769798e-04 +0.0000000000000000e+00 +9.9999997742907176e-01
3.8999999999999941e+00 +8.2845804315914204e+00 +0.0000000000000000e+00 +3.8999999699045174e+00 -2.1522881655821775e-04 +0.0000000000000000e+00 +9.9999997683827746e-01
3.9499999999999940e+00 +8.2845696010806247e+00 +0.0000000000000000e+00 +3.9499999687315017e+00 -2.1799163708207888e-04 +0.0000000000000000e+00 +9.9999997623982229e-01
3.9999999999999938e+00 +8.2845586324255152e+00 +0.0000000000000000e+00 +3.9999999675283719e+00 -2.2075458937028533e-04 +0.0000000000000000e+00 +9.9999997563370480e-01
4.0499999999999936e+00 +8.2845475256194678e+00 +0.0000000000000000e+00 +4.0499999662947443e+00 -2.2351767485284197e-04 +0.0000000000000000e+00 +9.9999997501992366e-01
4.0999999999999934e+00 +8.2845362806557858e+00 +0.0000000000000000e+00 +4.0999999650302366e+00 -2.2628089494742783e-04 +0.0000000000000000e+00 +9.9999997439847743e-01
4.1499999999999932e+00 +8.2845248975277048e+00 +0.0000000000000000e+00 +4.1499999637344649e+00 -2.2904425105806930e-04 +0.0000000000000000e+00 +9.9999997376936467e-01
4.1999999999999931e+00 +8.2845133762283893e+00 +0.0000000000000000e+00 +4.1999999624070457e+00 -2.3180774457501950e-04 +0.0000000000000000e+00 +9.9999997313258393e-01
4.2499999999999929e+00 +8.2845017167509347e+00 +0.0000000000000000e+00 +4.2499999610475951e+00 -2.3457137687475830e-04 +0.0000000000000000e+00 +9.9999997248813366e-01
4.2999999999999927e+00 +8.2844899190883670e+00 +0.0000000000000000e+00 +4.2999999596557306e+00 -2.3733514931999233e-04 +0.0000000000000000e+00 +9.9999997183601252e-01
4.3499999999999925e+00 +8.2844779832336446e+00 +0.0000000000000000e+00 +4.3499999582310682e+00 -2.4009906325965502e-04 +0.0000000000000000e+00 +9.9999997117621897e-01
4.3999999999999924e+00 +8.2844659091796604e+00 +0.0000000000000000e+00 +4.3999999567732244e+00 -2.4286312002890658e-04 +0.0000000000000000e+00 +9.9999997050875156e-01
4.4499999999999922e+00 +8.2844536969192397e+00 +0.0000000000000000e+00 +4.4499999552818155e+00 -2.4562732094913408e-04 +0.0000000000000000e+00 +9.9999996983360873e-01
4.4999999999999920e+00 +8.2844413464451421e+00 +0.0000000000000000e+00 +4.4999999537564577e+00 -2.4839166732795124e-04 +0.0000000000000000e+00 +9.9999996915078893e-01
4.5499999999999918e+00 +8.2844288577500613e+00 +0.0000000000000000e+00 +4.5499999521967665e+00 -2.5115616045919876e-04 +0.0000000000000000e+00 +9.9999996846029060e-01
4.5999999999999917e+00 +8.2844162308266291e+00 +0.0000000000000000e+00 +4.5999999506023581e+00 -2.5392080162294411e-04 +0.0000000000000000e+00 +9.9999996776211231e-01
4.6499999999999915e+00 +8.2844034656674115e+00 +0.0000000000000000e+00 +4.6499999489728490e+00 -2.5668559208548160e-04 +0.0000000000000000e+00 +9.9999996705625249e-01
4.6999999999999913e+00 +8.2843905622649121e+00 +0.0000000000000000e+00 +4.6999999473078553e+00 -2.5945053309933225e-04 +0.0000000000000000e+00 +9.9999996634270949e-01
4.7499999999999911e+00 +8.2843775206115726e+00 +0.0000000000000000e+00 +4.7499999456069917e+00 -2.6221562590324405e-04 +0.0000000000000000e+00 +9.9999996562148175e-01
4.7999999999999909e+00 +8.2843643406997725e+00 +0.0000000000000000e+00 +4.7999999438698753e+00 -2.6498087172219177e-04 +0.0000000000000000e+00 +9.9999996489256782e-01
4.8499999999999908e+00 +8.2843510225218306e+00 +0.0000000000000000e+00 +4.8499999420961206e+00 -2.6774627176737702e-04 +0.0000000000000000e+00 +9.9999996415596593e-01
4.8999999999999906e+00 +8.2843375660700058e+00 +0.0000000000000000e+00 +4.8999999402853440e+00 -2.7051182723622822e-04 +0.0000000000000000e+00 +9.9999996341167463e-01
4.9499999999999904e+00 +8.2843239713364962e+00 +0.0000000000000000e+00 +4.9499999384371600e+00 -2.7327753931240061e-04 +0.0000000000000000e+00 +9.9999996265969215e-01
4.9999999999999902e+00 +8.2843102383134433e+00 +0.0000000000000000e+00 +4.9999999365511849e+00 -2.7604340916577625e-04 +0.0000000000000000e+00 +9.9999996190001705e-01
5.0499999999999901e+00 +8.2842963669929297e+00 +0.0000000000000000e+00 +5.0499999346270332e+00 -2.7880943795246404e-04 +0.0000000000000000e+00 +9.9999996113264755e-01
5.0999999999999899e+00 +8.2842823573669797e+00 +0.0000000000000000e+00 +5.0999999326643213e+00 -2.8157562681479966e-04 +0.0000000000000000e+00 +9.9999996035758210e-01
5.1499999999999897e+00 +8.2842682094275606e+00 +0.0000000000000000e+00 +5.1499999306626636e+00 -2.8434197688134558e-04 +0.0000000000000000e+00 +9.9999995957481902e-01
5.1999999999999895e+00 +8.2842539231665864e+00 +0.0000000000000000e+00 +5.1999999286216747e+00 -2.8710848926689106e-04 +0.0000000000000000e+00 +9.9999995878435655e-01
5.2499999999999893e+00 +8.2842394985759107e+00 +0.0000000000000000e+00 +5.2499999265409709e+00 -2.8987516507245217e-04 +0.0000000000000000e+00 +9.9999995798619312e-01
5.2999999999999892e+00 +8.2842249356473374e+00 +0.0000000000000000e+00 +5.2999999244201659e+00 -2.9264200538527168e-04 +0.0000000000000000e+00 +9.9999995718032708e-01
5.3499999999999890e+00 +8.2842102343726136e+00 +0.0000000000000000e+00 +5.3499999222588750e+00 -2.9540901127881919e-04 +0.0000000000000000e+00 +9.9999995636675676e-01
5.3999999999999888e+00 +8.2841953947434330e+00 +0.0000000000000000e+00 +5.3999999200567128e+00 -2.9817618381279098e-04 +0.0000000000000000e+00 +9.9999995554548038e-01
5.4499999999999886e+00 +8.2841804167514379e+00 +0.0000000000000000e+00 +5.4499999178132947e+00 -3.0094352403311006e-04 +0.0000000000000000e+00 +9.9999995471649628e-01
5.4999999999999885e+00 +8.2841653003882172e+00 +0.0000000000000000e+00 +5.4999999155282344e+00 -3.0371103297192615e-04 +0.0000000000000000e+00 +9.9999995387980278e-01
5.5499999999999883e+00 +8.2841500456453119e+00 +0.0000000000000000e+00 +5.5499999132011464e+00 -3.0647871164761568e-04 +0.0000000000000000e+00 +9.9999995303539813e-01
5.5999999999999881e+00 +8.2841346525142079e+00 +0.0000000000000000e+00 +5.5999999108316452e+00 -3.0924656106478166e-04 +0.0000000000000000e+00 +9.9999995218328064e-01
5.6499999999999879e+00 +8.2841191209863432e+00 +0.0000000000000000e+00 +5.6499999084193453e+00 -3.1201458221425386e-04 +0.0000000000000000e+00 +9.9999995132344865e-01
5.6999999999999877e+00 +8.2841034510531077e+00 +0.0000000000000000e+00 +5.6999999059638613e+00 -3.1478277607308860e-04 +0.0000000000000000e+00 +9.9999995045590029e-01
5.7499999999999876e+00 +8.2840876427058419e+00 +0.0000000000000000e+00 +5.7499999034648068e+00 -3.1755114360456884e-04 +0.0000000000000000e+00 +9.9999994958063387e-01
5.7999999999999874e+00 +8.2840716959358378e+00 +0.0000000000000000e+00 +5.7999999009217964e+00 -3.2031968575820408e-04 +0.0000000000000000e+00 +9.9999994869764763e-01
5.8499999999999872e+00 +8.2840556107343399e+00 +0.0000000000000000e+00 +5.8499998983344437e+00 -3.2308840346973036e-04 +0.0000000000000000e+00 +9.9999994780693990e-01
5.8999999999999870e+00 +8.2840393870925482e+00 +0.0000000000000000e+00 +5.8999998957023623e+00 -3.2585729766111026e-04 +0.0000000000000000e+00 +9.9999994690850891e-01
