# field on trajectory
# s[mm] rx[mm] ry[mm] rz[mm] bx[T] by[T] bz[T]
0.0000000000000000e+00 +8.2850000000000001e+00 +0.0000000000000000e+00 +0.0000000000000000e+00 -2.9244205166360147e-02 -5.5181673756934080e-01 +5.3566228072183825e-03
5.0000000000000003e-02 +8.2849999310763849e+00 +0.0000000000000000e+00 +4.9999999999936658e-02 -2.9243729246918159e-02 -5.5180935695997224e-01 +5.3550576617870113e-03
1.0000000000000001e-01 +8.2849997243067541e+00 +0.0000000000000000e+00 +9.9999999999493286e-02 -2.9243276668029082e-02 -5.5180235923046528e-01 +5.3534948183164652e-03
1.5000000000000002e-01 +8.2849993796928558e+00 +0.0000000000000000e+00 +1.4999999999828986e-01 -2.9242847426675628e-02 -5.5179574453993208e-01 +5.3519343822974108e-03
2.0000000000000001e-01 +8.2849988972363420e+00 +0.0000000000000000e+00 +1.9999999999594636e-01 -2.9242441519840588e-02 -5.5178951304750401e-01 +5.3503764592207140e-03
2.5000000000000000e-01 +8.2849982769387687e+00 +0.0000000000000000e+00 +2.4999999999208283e-01 -2.9242058944506908e-02 -5.5178366491232955e-01 +5.3488211545774144e-03
2.9999999999999999e-01 +8.2849975188015978e+00 +0.0000000000000000e+00 +2.9999999998631927e-01 -2.9241699697657764e-02 -5.5177820029357627e-01 +5.3472685738587484e-03
3.4999999999999998e-01 +8.2849966228261938e+00 +0.0000000000000000e+00 +3.4999999997827569e-01 -2.9241363776276608e-02 -5.5177311935043050e-01 +5.3457188225561492e-03
3.9999999999999997e-01 +8.2849955890138265e+00 +0.0000000000000000e+00 +3.9999999996757218e-01 -2.9241051177347221e-02 -5.5176842224209555e-01 +5.3441720061612411e-03
4.4999999999999996e-01 +8.2849944173656684e+00 +0.0000000000000000e+00 +4.4999999995382878e-01 -2.9240761897853795e-02 -5.5176410912779417e-01 +5.3426282301658407e-03
4.9999999999999994e-01 +8.2849931078827979e+00 +0.0000000000000000e+00 +4.9999999993666550e-01 -2.9240495934780959e-02 -5.5176018016676665e-01 +5.3410876000619589e-03
5.4999999999999993e-01 +8.2849916605661953e+00 +0.0000000000000000e+00 +5.4999999991570236e-01 -2.9240253285113909e-02 -5.5175663551827181e-01 +5.3395502213418166e-03
5.9999999999999998e-01 +8.2849900754167471e+00 +0.0000000000000000e+00 +5.9999999989055952e-01 -2.9240033945838375e-02 -5.5175347534158714e-01 +5.3380161994978238e-03
6.5000000000000002e-01 +8.2849883524352421e+00 +0.0000000000000000e+00 +6.4999999986085699e-01 -2.9239837913940730e-02 -5.5175069979600744e-01 +5.3364856400225898e-03
7.0000000000000007e-01 +8.2849864916223748e+00 +0.0000000000000000e+00 +6.9999999982621497e-01 -2.9239665186408068e-02 -5.5174830904084649e-01 +5.3349586484089254e-03
7.5000000000000011e-01 +8.2849844929787420e+00 +0.0000000000000000e+00 +7.4999999978625342e-01 -2.9239515760228246e-02 -5.5174630323543583e-01 +5.3334353301498572e-03
8.0000000000000016e-01 +8.2849823565048446e+00 +0.0000000000000000e+00 +7.9999999974059244e-01 -2.9239389632389923e-02 -5.5174468253912545e-01 +5.3319157907385974e-03
8.5000000000000020e-01 +8.2849800822010877e+00 +0.0000000000000000e+00 +8.4999999968885198e-01 -2.9239286799882656e-02 -5.5174344711128331e-01 +5.3304001356685796e-03
9.0000000000000024e-01 +8.2849776700677786e+00 +0.0000000000000000e+00 +8.9999999963065225e-01 -2.9239207259696951e-02 -5.5174259711129603e-01 +5.3288884704334417e-03
9.5000000000000029e-01 +8.2849751201051305e+00 +0.0000000000000000e+00 +9.4999999956561332e-01 -2.9239151008824297e-02 -5.5174213269856709e-01 +5.3273809005270198e-03
1.0000000000000002e+00 +8.2849724323132605e+00 +0.0000000000000000e+00 +9.9999999949335527e-01 -2.9239118044257259e-02 -5.5174205403252008e-01 +5.3258775314433716e-03
1.0500000000000003e+00 +8.2849696066921865e+00 +0.0000000000000000e+00 +1.0499999994134981e+00 -2.9239108362989520e-02 -5.5174236127259524e-01 +5.3243784686767635e-03
1.1000000000000003e+00 +8.2849666432418321e+00 +0.0000000000000000e+00 +1.0999999993256619e+00 -2.9239121962015963e-02 -5.5174305457825135e-01 +5.3228838177216730e-03
1.1500000000000004e+00 +8.2849635419620249e+00 +0.0000000000000000e+00 +1.1499999992294667e+00 -2.9239158838332703e-02 -5.5174413410896517e-01 +5.3213936840727913e-03
1.2000000000000004e+00 +8.2849603028524950e+00 +0.0000000000000000e+00 +1.1999999991245325e+00 -2.9239218988937169e-02 -5.5174560002423167e-01 +5.3199081732250254e-03
1.2500000000000004e+00 +8.2849569259128764e+00 +0.0000000000000000e+00 +1.2499999990104795e+00 -2.9239302410828141e-02 -5.5174745248356416e-01 +5.3184273906734993e-03
1.3000000000000005e+00 +8.2849534111427072e+00 +0.0000000000000000e+00 +1.2999999988869275e+00 -2.9239409101005837e-02 -5.5174969164649390e-01 +5.3169514419135590e-03
1.3500000000000005e+00 +8.2849497585414262e+00 +0.0000000000000000e+00 +1.3499999987534967e+00 -2.9239539056471971e-02 -5.5175231767256960e-01 +5.3154804324407638e-03
1.4000000000000006e+00 +8.2849459681083779e+00 +0.0000000000000000e+00 +1.3999999986098071e+00 -2.9239692274229810e-02 -5.5175533072135896e-01 +5.3140144677508968e-03
1.4500000000000006e+00 +8.2849420398428109e+00 +0.0000000000000000e+00 +1.4499999984554786e+00 -2.9239868751284183e-02 -5.5175873095244687e-01 +5.3125536533399692e-03
1.5000000000000007e+00 +8.2849379737438742e+00 +0.0000000000000000e+00 +1.4999999982901311e+00 -2.9240068484641644e-02 -5.5176251852543701e-01 +5.3110980947042022e-03
1.5500000000000007e+00 +8.2849337698106229e+00 +0.0000000000000000e+00 +1.5499999981133847e+00 -2.9240291471310447e-02 -5.5176669359995067e-01 +5.3096478973400580e-03
1.6000000000000008e+00 +8.2849294280420143e+00 +0.0000000000000000e+00 +1.5999999979248594e+00 -2.9240537708300644e-02 -5.5177125633562729e-01 +5.3082031667442148e-03
1.6500000000000008e+00 +8.2849249484369079e+00 +0.0000000000000000e+00 +1.6499999977241748e+00 -2.9240807192624133e-02 -5.5177620689212370e-01 +5.3067640084135800e-03
1.7000000000000008e+00 +8.2849203309940656e+00 +0.0000000000000000e+00 +1.6999999975109512e+00 -2.9241099921294721e-02 -5.5178154542911562e-01 +5.3053305278452940e-03
1.7500000000000009e+00 +8.2849155757121551e+00 +0.0000000000000000e+00 +1.7499999972848084e+00 -2.9241415891328202e-02 -5.5178727210629630e-01 +5.3039028305367237e-03
1.8000000000000009e+00 +8.2849106825897465e+00 +0.0000000000000000e+00 +1.7999999970453662e+00 -2.9241755099742396e-02 -5.5179338708337689e-01 +5.3024810219854720e-03
1.8500000000000010e+00 +8.2849056516253121e+00 +0.0000000000000000e+00 +1.8499999967922443e+00 -2.9242117543557183e-02 -5.5179989052008660e-01 +5.3010652076893724e-03
1.9000000000000010e+00 +8.2849004828172266e+00 +0.0000000000000000e+00 +1.8999999965250627e+00 -2.9242503219794644e-02 -5.5180678257617244e-01 +5.2996554931464910e-03
1.9500000000000011e+00 +8.2848951761637686e+00 +0.0000000000000000e+00 +1.9499999962434411e+00 -2.9242912125479047e-02 -5.5181406341139960e-01 +5.2982519838551340e-03
2.0000000000000009e+00 +8.2848897316631209e+00 +0.0000000000000000e+00 +1.9999999959469994e+00 -2.9243344257636941e-02 -5.5182173318555094e-01 +5.2968547853138488e-03
2.0500000000000007e+00 +8.2848841493133651e+00 +0.0000000000000000e+00 +2.0499999956353574e+00 -2.9243799612884064e-02 -5.5182979178594849e-01 +5.2954640014605380e-03
2.1000000000000005e+00 +8.2848784291124904e+00 +0.0000000000000000e+00 +2.0999999953081345e+00 -2.9244278186185624e-02 -5.5183823801001608e-01 +5.2940797299898907e-03
2.1500000000000004e+00 +8.2848725710583846e+00 +0.0000000000000000e+00 +2.1499999949649506e+00 -2.9244779972095146e-02 -5.5184707038271363e-01 +5.2927020670360102e-03
2.2000000000000002e+00 +8.2848665751488433e+00 +0.0000000000000000e+00 +2.1999999946054256e+00 -2.9245304965167598e-02 -5.5185628742901782e-01 +5.2913311087333260e-03
2.2500000000000000e+00 +8.2848604413815625e+00 +0.0000000000000000e+00 +2.2499999942291788e+00 -2.9245853159959336e-02 -5.5186588767392020e-01 +5.2899669512165778e-03
2.2999999999999998e+00 +8.2848541697541460e+00 +0.0000000000000000e+00 +2.2999999938358298e+00 -2.9246424551028109e-02 -5.5187586964242707e-01 +5.2886096906208336e-03
2.3499999999999996e+00 +8.2848477602640980e+00 +0.0000000000000000e+00 +2.3499999934249982e+00 -2.9247019132933115e-02 -5.5188623185956109e-01 +5.2872594230814795e-03
2.3999999999999995e+00 +8.2848412129088320e+00 +0.0000000000000000e+00 +2.3999999929963036e+00 -2.9247636900234877e-02 -5.5189697285035855e-01 +5.2859162447342432e-03
2.4499999999999993e+00 +8.2848345276856641e+00 +0.0000000000000000e+00 +2.4499999925493658e+00 -2.9248277847495396e-02 -5.5190809113987227e-01 +5.2845802517151909e-03
2.4999999999999991e+00 +8.2848277045918177e+00 +0.0000000000000000e+00 +2.4999999920838039e+00 -2.9248941969278023e-02 -5.5191958525316798e-01 +5.2832515401607270e-03
2.5499999999999989e+00 +8.2848207436244206e+00 +0.0000000000000000e+00 +2.5499999915992375e+00 -2.9249629260147528e-02 -5.5193145371532759e-01 +5.2819302062076089e-03
2.5999999999999988e+00 +8.2848136447805079e+00 +0.0000000000000000e+00 +2.5999999910952858e+00 -2.9250339714670056e-02 -5.5194369505144691e-01 +5.2806163459929462e-03
2.6499999999999986e+00 +8.2848064080570225e+00 +0.0000000000000000e+00 +2.6499999905715681e+00 -2.9251073327413186e-02 -5.5195630778663551e-01 +5.2793100556542058e-03
2.6999999999999984e+00 +8.2847990334508133e+00 +0.0000000000000000e+00 +2.6999999900277043e+00 -2.9251830092945855e-02 -5.5196929044601817e-01 +5.2780114313292223e-03
2.7499999999999982e+00 +8.2847915209586365e+00 +0.0000000000000000e+00 +2.7499999894633129e+00 -2.9252610005838418e-02 -5.5198264155473287e-01 +5.2767205691562000e-03
2.7999999999999980e+00 +8.2847838705771579e+00 +0.0000000000000000e+00 +2.7999999888780138e+00 -2.9253413060662592e-02 -5.5199635963793159e-01 +5.2754375652737159e-03
2.8499999999999979e+00 +8.2847760823029510e+00 +0.0000000000000000e+00 +2.8499999882714260e+00 -2.9254239251991526e-02 -5.5201044322078086e-01 +5.2741625158207279e-03
2.8999999999999977e+00 +8.2847681561324968e+00 +0.0000000000000000e+00 +2.8999999876431684e+00 -2.9255088574399731e-02 -5.5202489082845996e-01 +5.2728955169365774e-03
2.9499999999999975e+00 +8.2847600920621876e+00 +0.0000000000000000e+00 +2.9499999869928604e+00 -2.9255961022463091e-02 -5.5203970098616195e-01 +5.2716366647610037e-03
2.9999999999999973e+00 +8.2847518900883230e+00 +0.0000000000000000e+00 +2.9999999863201205e+00 -2.9256856590758915e-02 -5.5205487221909322e-01 +5.2703860554341271e-03
3.0499999999999972e+00 +8.2847435502071125e+00 +0.0000000000000000e+00 +3.0499999856245683e+00 -2.9257775273865881e-02 -5.5207040305247324e-01 +5.2691437850964865e-03
3.0999999999999970e+00 +8.2847350724146782e+00 +0.0000000000000000e+00 +3.0999999849058226e+00 -2.9258717066364039e-02 -5.5208629201153492e-01 +5.2679099498890132e-03
3.1499999999999968e+00 +8.2847264567070500e+00 +0.0000000000000000e+00 +3.1499999841635025e+00 -2.9259681962834839e-02 -5.5210253762152384e-01 +5.2666846459530547e-03
3.1999999999999966e+00 +8.2847177030801689e+00 +0.0000000000000000e+00 +3.1999999833972268e+00 -2.9260669957861106e-02 -5.5211913840769855e-01 +5.2654679694303756e-03
3.2499999999999964e+00 +8.2847088115298888e+00 +0.0000000000000000e+00 +3.2499999826066142e+00 -2.9261681046027051e-02 -5.5213609289532994e-01 +5.2642600164631631e-03
3.2999999999999963e+00 +8.2846997820519750e+00 +0.0000000000000000e+00 +3.2999999817912835e+00 -2.9262715221918253e-02 -5.5215339960970111e-01 +5.2630608831940300e-03
3.3499999999999961e+00 +8.2846906146421038e+00 +0.0000000000000000e+00 +3.3499999809508534e+00 -2.9263772480121669e-02 -5.5217105707610836e-01 +5.2618706657660188e-03
3.3999999999999959e+00 +8.2846813092958644e+00 +0.0000000000000000e+00 +3.3999999800849428e+00 -2.9264852815225676e-02 -5.5218906381985999e-01 +5.2606894603226158e-03
3.4499999999999957e+00 +8.2846718660087575e+00 +0.0000000000000000e+00 +3.4499999791931701e+00 -2.9265956221819940e-02 -5.5220741836627585e-01 +5.2595173630077437e-03
3.4999999999999956e+00 +8.2846622847761999e+00 +0.0000000000000000e+00 +3.4999999782751541e+00 -2.9267082694495589e-02 -5.5222611924068821e-01 +5.2583544699657762e-03
3.5499999999999954e+00 +8.2846525655935199e+00 +0.0000000000000000e+00 +3.5499999773305131e+00 -2.9268232227845081e-02 -5.5224516496844100e-01 +5.2572008773415398e-03
3.5999999999999952e+00 +8.2846427084559586e+00 +0.0000000000000000e+00 +3.5999999763588657e+00 -2.9269404816462261e-02 -5.5226455407488995e-01 +5.2560566812803206e-03
3.6499999999999950e+00 +8.2846327133586737e+00 +0.0000000000000000e+00 +3.6499999753598300e+00 -2.9270600454942310e-02 -5.5228428508540195e-01 +5.2549219779278646e-03
3.6999999999999948e+00 +8.2846225802967357e+00 +0.0000000000000000e+00 +3.6999999743330245e+00 -2.9271819137881825e-02 -5.5230435652535548e-01 +5.2537968634303860e-03
3.7499999999999947e+00 +8.2846123092651300e+00 +0.0000000000000000e+00 +3.7499999732780678e+00 -2.9273060859878755e-02 -5.5232476692014076e-01 +5.2526814339345839e-03
3.7999999999999945e+00 +8.2846019002587603e+00 +0.0000000000000000e+00 +3.7999999721945779e+00 -2.9274325615532414e-02 -5.5234551479515825e-01 +5.2515757855876232e-03
3.8499999999999943e+00 +8.2845913532724413e+00 +0.0000000000000000e+00 +3.8499999710821728e+00 -2.9275613399443463e-02 -5.5236659867581983e-01 +5.2504800145371554e-03
3.8999999999999941e+00 +8.2845806683009080e+00 +0.0000000000000000e+00 +3.8999999699404708e+00 -2.9276924206213976e-02 -5.5238801708754814e-01 +5.2493942169313341e-03
3.9499999999999940e+00 +8.2845698453388099e+00 +0.0000000000000000e+00 +3.9499999687690899e+00 -2.9278258030447323e-02 -5.5240976855577684e-01 +5.2483184889187936e-03
3.9999999999999938e+00 +8.2845588843807114e+00 +0.0000000000000000e+00 +3.9999999675676481e+00 -2.9279614866748304e-02 -5.5243185160594932e-01 +5.2472529266486727e-03
4.0499999999999936e+00 +8.2845477854210987e+00 +0.0000000000000000e+00 +4.0499999663357631e+00 -2.9280994670038970e-02 -5.5245426457009494e-01 +5.2461976209192251e-03
4.0999999999999934e+00 +8.2845365484543709e+00 +0.0000000000000000e+00 +4.0999999650730530e+00 -2.9282397236505414e-02 -5.5247700500654784e-01 +5.2451526411236666e-03
4.1499999999999932e+00 +8.2845251734748491e+00 +0.0000000000000000e+00 +4.1499999637791358e+00 -2.9283822322649009e-02 -5.5250007028022341e-01 +5.2441180513045291e-03
4.1999999999999931e+00 +8.2845136604767706e+00 +0.0000000000000000e+00 +4.1999999624536288e+00 -2.9285269684970250e-02 -5.5252345775604117e-01 +5.2430939155050909e-03
4.2499999999999929e+00 +8.2845020094542932e+00 +0.0000000000000000e+00 +4.2499999610961501e+00 -2.9286739079968874e-02 -5.5254716479892663e-01 +5.2420802977694173e-03
4.2999999999999927e+00 +8.2844902204014961e+00 +0.0000000000000000e+00 +4.2999999597063168e+00 -2.9288230264143646e-02 -5.5257118877380995e-01 +5.2410772621423376e-03
4.3499999999999925e+00 +8.2844782933123771e+00 +0.0000000000000000e+00 +4.3499999582837461e+00 -2.9289742993992379e-02 -5.5259552704562631e-01 +5.2400848726694878e-03
4.3999999999999924e+00 +8.2844662281808557e+00 +0.0000000000000000e+00 +4.3999999568280561e+00 -2.9291277026011836e-02 -5.5262017697931465e-01 +5.2391031933973009e-03
4.4499999999999922e+00 +8.2844540250007750e+00 +0.0000000000000000e+00 +4.4499999553388641e+00 -2.9292832116697667e-02 -5.5264513593981823e-01 +5.2381322883730359e-03
4.4999999999999920e+00 +8.2844416837659001e+00 +0.0000000000000000e+00 +4.4999999538157871e+00 -2.9294408022544360e-02 -5.5267040129208433e-01 +5.2371722216447789e-03
4.5499999999999918e+00 +8.2844292044699195e+00 +0.0000000000000000e+00 +4.5499999522584433e+00 -2.9296004500045162e-02 -5.5269597040106355e-01 +5.2362230572614559e-03
4.5999999999999917e+00 +8.2844165871064472e+00 +0.0000000000000000e+00 +4.5999999506664491e+00 -2.9297621305692034e-02 -5.5272184063170948e-01 +5.2352848592728471e-03
4.6499999999999915e+00 +8.2844038316690192e+00 +0.0000000000000000e+00 +4.6499999490394215e+00 -2.9299258195975533e-02 -5.5274800934897950e-01 +5.2343576917296113e-03
4.6999999999999913e+00 +8.2843909381511001e+00 +0.0000000000000000e+00 +4.6999999473769778e+00 -2.9300914927384847e-02 -5.5277447391783252e-01 +5.2334416186832697e-03
4.7499999999999911e+00 +8.2843779065460783e+00 +0.0000000000000000e+00 +4.7499999456787343e+00 -2.9302591256407617e-02 -5.5280123170323103e-01 +5.2325367041862469e-03
4.7999999999999909e+00 +8.2843647368472695e+00 +0.0000000000000000e+00 +4.7999999439443091e+00 -2.9304286939529963e-02 -5.5282828007013940e-01 +5.2316430122918657e-03
4.8499999999999908e+00 +8.2843514290479163e+00 +0.0000000000000000e+00 +4.8499999421733175e+00 -2.9306001733236359e-02 -5.5285561638352343e-01 +5.2307606070543652e-03
4.8999999999999906e+00 +8.2843379831411905e+00 +0.0000000000000000e+00 +4.8999999403653778e+00 -2.9307735394009604e-02 -5.5288323800835049e-01 +5.2298895525289130e-03
4.9499999999999904e+00 +8.2843243991201927e+00 +0.0000000000000000e+00 +4.9499999385201052e+00 -2.9309487678330751e-02 -5.5291114230959015e-01 +5.2290299127716201e-03
4.9999999999999902e+00 +8.2843106769779524e+00 +0.0000000000000000e+00 +4.9999999366371171e+00 -2.9311258342679034e-02 -5.5293932665221202e-01 +5.2281817518395422e-03
5.0499999999999901e+00 +8.2842968167074300e+00 +0.0000000000000000e+00 +5.0499999347160305e+00 -2.9313047143531779e-02 -5.5296778840118688e-01 +5.2273451337907055e-03
5.0999999999999899e+00 +8.2842828183015129e+00 +0.0000000000000000e+00 +5.0999999327564609e+00 -2.9314853837364433e-02 -5.5299652492148621e-01 +5.2265201226841121e-03
5.1499999999999897e+00 +8.2842686817530247e+00 +0.0000000000000000e+00 +5.1499999307580246e+00 -2.9316678180650386e-02 -5.5302553357808182e-01 +5.2257067825797520e-03
5.1999999999999895e+00 +8.2842544070547195e+00 +0.0000000000000000e+00 +5.1999999287203389e+00 -2.9318519929860946e-02 -5.5305481173594517e-01 +5.2249051775386142e-03
5.2499999999999893e+00 +8.2842399941992824e+00 +0.0000000000000000e+00 +5.2499999266430191e+00 -2.9320378841465333e-02 -5.5308435676004686e-01 +5.2241153716227062e-03
5.2999999999999892e+00 +8.2842254431793325e+00 +0.0000000000000000e+00 +5.2999999245256815e+00 -2.9322254671930521e-02 -5.5311416601535812e-01 +5.2233374288950573e-03
5.3499999999999890e+00 +8.2842107539874252e+00 +0.0000000000000000e+00 +5.3499999223679415e+00 -2.9324147177721239e-02 -5.5314423686684833e-01 +5.2225714134197347e-03
5.3999999999999888e+00 +8.2841959266160465e+00 +0.0000000000000000e+00 +5.3999999201694164e+00 -2.9326056115299887e-02 -5.5317456667948639e-01 +5.2218173892618546e-03
5.4499999999999886e+00 +8.2841809610576220e+00 +0.0000000000000000e+00 +5.4499999179297207e+00 -2.9327981241126459e-02 -5.5320515281823912e-01 +5.2210754204875982e-03
5.4999999999999885e+00 +8.2841658573045098e+00 +0.0000000000000000e+00 +5.4999999156484716e+00 -2.9329922311658502e-02 -5.5323599264807211e-01 +5.2203455711642231e-03
5.5499999999999883e+00 +8.2841506153490077e+00 +0.0000000000000000e+00 +5.5499999133252835e+00 -2.9331879083351029e-02 -5.5326708353394871e-01 +5.2196279053600666e-03
5.5999999999999881e+00 +8.2841352351833475e+00 +0.0000000000000000e+00 +5.5999999109597729e+00 -2.9333851312656482e-02 -5.5329842284083042e-01 +5.2189224871445668e-03
5.6499999999999879e+00 +8.2841197167997009e+00 +0.0000000000000000e+00 +5.6499999085515542e+00 -2.9335838756024628e-02 -5.5333000793367570e-01 +5.2182293805882792e-03
5.6999999999999877e+00 +8.2841040601901774e+00 +0.0000000000000000e+00 +5.6999999061002438e+00 -2.9337841169902540e-02 -5.5336183617744039e-01 +5.2175486497628718e-03
5.7499999999999876e+00 +8.2840882653468277e+00 +0.0000000000000000e+00 +5.7499999036054570e+00 -2.9339858310734501e-02 -5.5339390493707763e-01 +5.2168803587411610e-03
5.7999999999999874e+00 +8.2840723322616405e+00 +0.0000000000000000e+00 +5.7999999010668093e+00 -2.9341889934961937e-02 -5.5342621157753658e-01 +5.2162245715970980e-03
5.8499999999999872e+00 +8.2840562609265458e+00 +0.0000000000000000e+00 +5.8499998984839152e+00 -2.9343935799023373e-02 -5.5345875346376316e-01 +5.2155813524058002e-03
5.8999999999999870e+00 +8.2840400513334131e+00 +0.0000000000000000e+00 +5.8999998958563902e+00 -2.9345995659354390e-02 -5.5349152796069956e-01 +5.2149507652435615e-03
