# multipoles
# s[mm] polynom_b[n=0][T/m^n] polynom_b[n=1][T/m^n] polynom_b[n=2][T/m^n] polynom_b[n=3][T/m^n] polynom_b[n=4][T/m^n] polynom_b[n=5][T/m^n] polynom_b[n=6][T/m^n] 
+0.0000000000000000e+00 -5.7777968035133065e-01 +7.5622673259073112e+00 +5.7470336457782532e+00 +1.5235647733814265e+01 +1.9622431429994053e+03 -5.3905080779524695e+05 +7.0968194546926173e+05 
+5.0000000000000003e-02 -5.7777979674193791e-01 +7.5623318919992153e+00 +5.7489928000929940e+00 +1.4643165129487720e+01 +1.9254838290377877e+03 -5.3492643349503027e+05 +7.8660817791085178e+05 
+1.0000000000000001e-01 -5.7778033638459247e-01 +7.5624189529048413e+00 +5.7507544179807555e+00 +1.4053398196600385e+01 +1.8844797473088902e+03 -5.3076806269646529e+05 +8.8017594187932729e+05 
+1.4999999999999999e-01 -5.7778129809351697e-01 +7.5625284517344609e+00 +5.7523025234822969e+00 +1.3466386546599548e+01 +1.8394612992222042e+03 -5.2657657710485556e+05 +9.8958763720133854e+05 
+2.0000000000000001e-01 -5.7778268068284810e-01 +7.5626603316031273e+00 +5.7536211392717060e+00 +1.2882169656436819e+01 +1.7906589173055033e+03 -5.2235285738770716e+05 +1.1140454762767600e+06 
+2.5000000000000000e-01 -5.7778448296687390e-01 +7.5628145356201344e+00 +5.7546942921523936e+00 +1.2300787238698192e+01 +1.7383029231344703e+03 -5.1809778602484096e+05 +1.2527524127466863e+06 
+2.9999999999999999e-01 -5.7778670375983032e-01 +7.5629910069010746e+00 +5.7555060104345435e+00 +1.1722278799820797e+01 +1.6826235982228181e+03 -5.1381224384444428e+05 +1.4049116716106646e+06 
+3.4999999999999998e-01 -5.7778934187594200e-01 +7.5631896885583947e+00 +5.7560403123119270e+00 +1.1146683996840940e+01 +1.6238514957741957e+03 -5.0949711286877299e+05 +1.5697246432324375e+06 
+4.0000000000000002e-01 -5.7779239612952216e-01 +7.5634105237066604e+00 +5.7562812284026270e+00 +1.0574042429307822e+01 +1.5622168342394639e+03 -5.0515327461204870e+05 +1.7463949732815938e+06 
+4.5000000000000001e-01 -5.7779586533488125e-01 +7.5636534554600665e+00 +5.7562127803751979e+00 +1.0004393748235138e+01 +1.4979500720549186e+03 -5.0078161103119876e+05 +1.9341246948413725e+06 
+5.0000000000000000e-01 -5.7779974830633007e-01 +7.5639184269357704e+00 +5.7558189963899382e+00 +9.4377775198129399e+00 +1.4312814923879857e+03 -4.9638300337799161e+05 +2.1321170213568071e+06 
+5.5000000000000004e-01 -5.7780404385815887e-01 +7.5642053812484420e+00 +5.7550838977322032e+00 +8.8742334385857689e+00 +1.3624415644326236e+03 -4.9195833392550354e+05 +2.3395739035841851e+06 
+5.9999999999999998e-01 -5.7780875080480687e-01 +7.5645142615160648e+00 +5.7539915139400719e+00 +8.3138010910202027e+00 +1.2916605333085861e+03 -4.8750848406020639e+05 +2.5556988138374244e+06 
+6.5000000000000002e-01 -5.7781386796060064e-01 +7.5648450108567316e+00 +5.7525258659333725e+00 +7.7565201149331466e+00 +1.2191688768276531e+03 -4.8303433565846429e+05 +2.7796936476434665e+06 
+6.9999999999999996e-01 -5.7781939413997918e-01 +7.5651975723894740e+00 +5.7506709814135517e+00 +7.2024301240618547e+00 +1.1451968898891064e+03 -4.7853677033119480e+05 +3.0107615359875006e+06 
+7.5000000000000000e-01 -5.7782532815729093e-01 +7.5655718892342527e+00 +5.7484108836324133e+00 +6.6515707451126991e+00 +1.0699749842805093e+03 -4.7401666986341291e+05 +3.2481048293813816e+06 
+8.0000000000000004e-01 -5.7783166882702475e-01 +7.5659679045111305e+00 +5.7457295976301586e+00 +6.1039816220196919e+00 +9.9373352790830768e+02 -4.6947491615790594e+05 +3.4909261568425940e+06 
+8.4999999999999998e-01 -5.7783841496361388e-01 +7.5663855613415771e+00 +5.7426111501381438e+00 +5.5597023805046160e+00 +9.1670283717059408e+02 -4.6491239098107844e+05 +3.7384285184685644e+06 
+9.0000000000000002e-01 -5.7784556538152343e-01 +7.5668248028518512e+00 +5.7390395653236483e+00 +5.0187725006348742e+00 +8.3911330068816631e+02 -4.6032997499005601e+05 +3.9898144117406984e+06 
+9.4999999999999996e-01 -5.7785311889526381e-01 +7.5672855721627803e+00 +5.7349988670755243e+00 +4.4812317129956076e+00 +7.6119531617236191e+02 -4.5572855088878673e+05 +4.2442862644492658e+06 
+1.0000000000000000e+00 -5.7786107431929390e-01 +7.5677678124007528e+00 +5.7304730816820779e+00 +3.9471195552201013e+00 +6.8317921259073592e+02 -4.5110899981015007e+05 +4.5010469864108423e+06 
+1.0500000000000000e+00 -5.7786943046816319e-01 +7.5682714666908204e+00 +5.7254462341108168e+00 +3.4164756687717404e+00 +6.0529535281742903e+02 -4.4647220382582123e+05 +4.7592992587592006e+06 
+1.1000000000000001e+00 -5.7787818615643816e-01 +7.5687964781641464e+00 +5.7199023483537630e+00 +2.8893394739148839e+00 +5.2777413022457631e+02 -4.4181904319004045e+05 +5.0182455444703298e+06 
+1.1499999999999999e+00 -5.7788734019866117e-01 +7.5693427899456278e+00 +5.7138254510833208e+00 +2.3657506897766187e+00 +4.5084586289643653e+02 -4.3715040065861435e+05 +5.2770888242515475e+06 
+1.2000000000000000e+00 -5.7789689140940204e-01 +7.5699103451695473e+00 +5.7071995659238830e+00 +1.8457486979411939e+00 +3.7474095031822708e+02 -4.3246715629333263e+05 +5.5350315282694250e+06 
+1.2500000000000000e+00 -5.7790683860326630e-01 +7.5704990869657509e+00 +5.7000087192016844e+00 +1.3293731000845215e+00 +2.9968972236630140e+02 -4.2777019200530299e+05 +5.7912765462578954e+06 
+1.3000000000000000e+00 -5.7791718059488073e-01 +7.5711089584672715e+00 +5.6922369336214453e+00 +8.1666340385196279e-01 +2.2592259940076616e+02 -4.2306038897366956e+05 +6.0450261833866080e+06 
+1.3500000000000001e+00 -5.7792791619883621e-01 +7.5717399028089076e+00 +5.6838682367099835e+00 +3.0765909347190434e-01 +1.5366987546611526e+02 -4.1833862826318236e+05 +6.2954835820241496e+06 
+1.3999999999999999e+00 -5.7793904422984177e-01 +7.5723918631276499e+00 +5.6748866540144389e+00 -1.9760039247439590e-01 +8.3161900795982419e+01 -4.1360579064564628e+05 +6.5418514931787355e+06 
+1.4500000000000000e+00 -5.7795056350252005e-01 +7.5730647825605697e+00 +5.6652762077152889e+00 -6.9907558516838719e-01 +1.4629109936775704e+01 -4.0886275716818322e+05 +6.7833321246039830e+06 
+1.5000000000000000e+00 -5.7796247283155766e-01 +7.5737586042499947e+00 +5.6550209234038107e+00 -1.1967271786411215e+00 -5.1698152300096609e+01 -4.0411040763762168e+05 +7.0191282776089367e+06 
+1.5500000000000000e+00 -5.7797477103166583e-01 +7.5744732713329626e+00 +5.6441048274645818e+00 -1.6905156025494219e+00 -1.1558956039789979e+02 -3.9934962414089247e+05 +7.2484428782381685e+06 
+1.6000000000000001e+00 -5.7798745691758857e-01 +7.5752087269553510e+00 +5.6325119448269811e+00 -2.1804016178815839e+00 -1.7681475523084978e+02 -3.9458128605842532e+05 +7.4704786447555255e+06 
+1.6499999999999999e+00 -5.7800052930400214e-01 +7.5759649142608394e+00 +5.6202262994852212e+00 -2.6663458324353564e+00 -2.3514334925730967e+02 -3.8980627417038975e+05 +7.6844380921913953e+06 
+1.7000000000000000e+00 -5.7801398700571882e-01 +7.5767417763960516e+00 +5.6072319173434408e+00 -3.1483089440370100e+00 -2.9034500818710006e+02 -3.8502546857378411e+05 +7.8895240994101549e+06 
+1.7500000000000000e+00 -5.7802782883751280e-01 +7.5775392565083983e+00 +5.5935128239166261e+00 -3.6262516275482310e+00 -3.4218938621677671e+02 -3.8023974966625019e+05 +8.0849394674650179e+06 
+1.8000000000000000e+00 -5.7804205361410965e-01 +7.5783572977506051e+00 +5.5790530431240555e+00 -4.1001347197271221e+00 -3.9044609497838610e+02 -3.7544999663699762e+05 +8.2698867056141095e+06 
+1.8500000000000001e+00 -5.7805666015033652e-01 +7.5791958432732489e+00 +5.5638365995401520e+00 -4.5699189402605516e+00 -4.3488476800004781e+02 -3.7065708967638499e+05 +8.4435684908075761e+06 
+1.8999999999999999e+00 -5.7807164726105675e-01 +7.5800548362307563e+00 +5.5478475203828479e+00 -5.0355651041848555e+00 -4.7527510403354626e+02 -3.6586190836160269e+05 +8.6051879174383804e+06 
+1.9500000000000000e+00 -5.7808701376104255e-01 +7.5809342197792287e+00 +5.5310698294627816e+00 -5.4970340489094394e+00 -5.1138671814323123e+02 -3.6106533215006068e+05 +8.7539475445127357e+06 
+2.0000000000000000e+00 -5.7810262326454143e-01 +7.5818262062800317e+00 +5.5136446936906518e+00 -5.9504113503854894e+00 -5.4278459026122937e+02 -3.5630910997373017e+05 +8.8880569972042888e+06 
+2.0499999999999998e+00 -5.7811860231883339e-01 +7.5827380057577125e+00 +5.4954413183372806e+00 -6.3995907842218323e+00 -5.6978539481329381e+02 -3.5155380547028512e+05 +9.0085107326606791e+06 
+2.1000000000000001e+00 -5.7813494865195991e-01 +7.5836694381474787e+00 +5.4764727247928953e+00 -6.8445722292571851e+00 -5.9242453910616678e+02 -3.4680047842334385e+05 +9.1150770419476088e+06 
+2.1499999999999999e+00 -5.7815165999189921e-01 +7.5846203233871590e+00 +5.4567519260201616e+00 -7.2853556532920383e+00 -6.1073720717418053e+02 -3.4205018791886739e+05 +9.2075227291738130e+06 
+2.2000000000000002e+00 -5.7816873406672331e-01 +7.5855904814138047e+00 +5.4362919444957010e+00 -7.7219409896493696e+00 -6.2475883932926763e+02 -3.3730399326841201e+05 +9.2856163291819785e+06 
+2.2500000000000000e+00 -5.7818616860451122e-01 +7.5865797321633064e+00 +5.4151057967779765e+00 -8.1543280910369624e+00 -6.3452471534209440e+02 -3.3256295452516683e+05 +9.3491252879142947e+06 
+2.2999999999999998e+00 -5.7820396133330521e-01 +7.5875878955744103e+00 +5.3932065005716385e+00 -8.5825169261023362e+00 -6.4007014412946467e+02 -3.2782813069935609e+05 +9.3978172397857364e+06 
+2.3500000000000001e+00 -5.7822210998124135e-01 +7.5886147915860320e+00 +5.3706070736947638e+00 -9.0065074554983067e+00 -6.4143044021088974e+02 -3.2310058090293355e+05 +9.4314598682580963e+06 
+2.3999999999999999e+00 -5.7824061227633172e-01 +7.5896602401392714e+00 +5.3473205341457906e+00 -9.4262997104876529e+00 -6.3864092348866291e+02 -3.1838136362862424e+05 +9.4498208982293811e+06 
+2.4500000000000002e+00 -5.7825946594674305e-01 +7.5907240611678235e+00 +5.3233599009978416e+00 -9.8418934112688472e+00 -6.3173693987085699e+02 -3.1367153993680654e+05 +9.4526682151682116e+06 
+2.5000000000000000e+00 -5.7827866872055622e-01 +7.5918060746160210e+00 +5.2987381907566258e+00 -1.0253288708185906e+01 -6.2075376538645912e+02 -3.0897216729838582e+05 +9.4397692299014498e+06 
+2.5499999999999998e+00 -5.7829821832589734e-01 +7.5929061004210254e+00 +5.2734684212538419e+00 -1.0660485442535116e+01 -6.0572671624700695e+02 -3.0428430573372886e+05 +9.4108916463036928e+06 
+2.6000000000000001e+00 -5.7831811249095810e-01 +7.5940239585251010e+00 +5.2475636108094248e+00 -1.1063483666603434e+01 -5.8669112116941665e+02 -2.9960901348456682e+05 +9.3658032458223142e+06 
+2.6499999999999999e+00 -5.7833834894383840e-01 +7.5951594688690953e+00 +5.2210367780118192e+00 -1.1462283368887265e+01 -5.6368230832101290e+02 -2.9494734925009921e+05 +9.3042717796940338e+06 
+2.7000000000000002e+00 -5.7835892541267853e-01 +7.5963124513913058e+00 +5.1939009384494774e+00 -1.1856884411769249e+01 -5.3673553600238847e+02 -2.9030037282536109e+05 +9.2260645688109510e+06 
+2.7500000000000000e+00 -5.7837983962567996e-01 +7.5974827260326157e+00 +5.1661691110477346e+00 -1.2247286789589010e+01 -5.0588614309078423e+02 -2.8566914277055522e+05 +9.1309494417510722e+06 
+2.7999999999999998e+00 -5.7840108931100143e-01 +7.5986701127353085e+00 +5.1378543153078677e+00 -1.2633490523109915e+01 -4.7116948620831624e+02 -2.8105471749717504e+05 +9.0186943593846485e+06 
+2.8500000000000001e+00 -5.7842267219682919e-01 +7.5998744314388214e+00 +5.1089695648017210e+00 -1.3015495535856788e+01 -4.3262076563231267e+02 -2.7645815610021679e+05 +8.8890662370053083e+06 
+2.8999999999999999e+00 -5.7844458601137327e-01 +7.6010955020862072e+00 +5.0795278802846768e+00 -1.3393301896713048e+01 -3.9027537209117628e+02 -2.7188051644371677e+05 +8.7418332659972589e+06 
+2.9500000000000002e+00 -5.7846682848277187e-01 +7.6023331446146436e+00 +5.0495422779182206e+00 -1.3766909415054952e+01 -3.4416857282767484e+02 -2.6732285855473531e+05 +8.5767628069664743e+06 
+3.0000000000000000e+00 -5.7848939733928761e-01 +7.6035871789681471e+00 +5.0190257750651917e+00 -1.4136318222003053e+01 -2.9433566544916897e+02 -2.6278623962418904e+05 +8.3936224159174524e+06 
+3.0499999999999998e+00 -5.7851229030913365e-01 +7.6048574250870526e+00 +4.9879913882906344e+00 -1.4501528263055421e+01 -2.4081192493703890e+02 -2.5827171846256399e+05 +8.1921794944473235e+06 
+3.1000000000000001e+00 -5.7853550512052654e-01 +7.6061437029092342e+00 +4.9564521389691647e+00 -1.4862539416642173e+01 -1.8363276226468119e+02 -2.5378035426121869e+05 +7.9722023876368944e+06 
+3.1499999999999999e+00 -5.7855903950171872e-01 +7.6074458323770955e+00 +4.9244210383397160e+00 -1.5219351736980272e+01 -1.2283330876130000e+02 -2.4931320478387357e+05 +7.7334575268881498e+06 
+3.2000000000000002e+00 -5.7858289118089012e-01 +7.6087636334291542e+00 +4.8919111077839972e+00 -1.5571965140586745e+01 -5.8448967854329609e+01 -2.4487132878524368e+05 +7.4757131785202939e+06 
+3.2500000000000000e+00 -5.7860705788630240e-01 +7.6100969260072828e+00 +4.8589353628039040e+00 -1.5920379673322504e+01 +9.4850100272865738e+00 -2.4045578398177470e+05 +7.1987365977081377e+06 
+3.2999999999999998e+00 -5.7863153734623640e-01 +7.6114455300486243e+00 +4.8255068205626497e+00 -1.6264595217060542e+01 +8.0933337841909278e+01 -2.3606762928591305e+05 +6.9022952544963099e+06 
+3.3500000000000001e+00 -5.7865632728895955e-01 +7.6128092654943513e+00 +4.7916385001622395e+00 -1.6604611820273075e+01 +1.5586066896971877e+02 -2.3170792221671192e+05 +6.5861570526219402e+06 
+3.3999999999999999e+00 -5.7868142544268530e-01 +7.6141879522793383e+00 +4.7573434147313201e+00 -1.6940429278779238e+01 +2.3423182129528624e+02 -2.2737772230940135e+05 +6.2500887713043243e+06 
+3.4500000000000002e+00 -5.7870682953572961e-01 +7.6155814103454196e+00 +4.7226345840020860e+00 -1.7272047704229074e+01 +3.1601144057221410e+02 -2.2307808637309051e+05 +5.8938583326593637e+06 
+3.5000000000000000e+00 -5.7873253729632856e-01 +7.6169894596276393e+00 +4.6875250235788029e+00 -1.7599466936444959e+01 +4.0116427495277793e+02 -2.1881007339716289e+05 +5.5172329981645476e+06 
+3.5499999999999998e+00 -5.7875854645277036e-01 +7.6184119200655180e+00 +4.6520277513800847e+00 -1.7922687014060799e+01 +4.8965501719125251e+02 -2.1457474066755586e+05 +5.1199803826861950e+06 
+3.6000000000000001e+00 -5.7878485473338770e-01 +7.6198486115932154e+00 +4.6161557829387725e+00 -1.8241707786515473e+01 +5.8144842144997517e+02 -2.1037314689149373e+05 +4.7018676969046537e+06 
+3.6499999999999999e+00 -5.7881145986638893e-01 +7.6212993541476601e+00 +4.5799221351092720e+00 -1.8556529213285728e+01 +6.7650921073408199e+02 -2.0620634984822999e+05 +4.2626623458177522e+06 
+3.6999999999999900e+00 -5.7883835958015040e-01 +7.6227639676643317e+00 +4.5433398247623824e+00 -1.8867151236333790e+01 +7.7480210322719017e+02 -2.0207540731641330e+05 +3.8021317841390348e+06 
+3.7499999999999898e+00 -5.7886555160288189e-01 +7.6242422720757430e+00 +4.5064218671711336e+00 -1.9173573680304468e+01 +8.7629186550494762e+02 -1.9798137797485999e+05 +3.3200431227494772e+06 
+3.7999999999999901e+00 -5.7889303366295641e-01 +7.6257340873184400e+00 +4.4691812818078702e+00 -1.9475796582591549e+01 +9.8094314732223836e+02 -1.9392531859876675e+05 +2.8161642758915639e+06 
+3.8499999999999899e+00 -5.7892080348865560e-01 +7.6272392333241310e+00 +4.4316310806668389e+00 -1.9773819778534580e+01 +1.0887208055079805e+03 -1.8990828760424809e+05 +2.2902617394869765e+06 
+3.8999999999999901e+00 -5.7894885880828240e-01 +7.6287575300233259e+00 +4.3937842839100503e+00 -2.0067643099010475e+01 +1.1995894748744690e+03 -1.8593134326665197e+05 +1.7421035172391343e+06 
+3.9499999999999900e+00 -5.7897719731690978e-01 +7.6302887940238149e+00 +4.3556541104122939e+00 -2.0357216380179469e+01 +1.3135005296992031e+03 -1.8199579313327061e+05 +1.1715629316569206e+06 
+3.9999999999999898e+00 -5.7900581632394899e-01 +7.6318327952939571e+00 +4.3172569578331297e+00 -2.0641790089217956e+01 +1.4302359242737296e+03 -1.7810667749749092e+05 +5.7982543559110677e+05 
+4.0499999999999901e+00 -5.7903471289008557e-01 +7.6333892699076520e+00 +4.2786116928856996e+00 -2.0920109893938132e+01 +1.5494613710923709e+03 -1.7427182588668013e+05 -3.1037007144054114e+04 
+4.0999999999999899e+00 -5.7906388407188969e-01 +7.6349579532025569e+00 +4.2397372422442157e+00 -2.1190910783567805e+01 +1.6708403710568443e+03 -1.7049913078136329e+05 -6.5893612092321180e+05 
+4.1499999999999897e+00 -5.7909332692604210e-01 +7.6365385805069250e+00 +4.2006525333721330e+00 -2.1452927403651255e+01 +1.7940363950650674e+03 -1.6679648737256715e+05 -1.3017833914494410e+06 
+4.1999999999999904e+00 -5.7912303850908520e-01 +7.6381308871540643e+00 +4.1613764937305984e+00 -2.1704894573770904e+01 +1.9187129114888305e+03 -1.6317178955196287e+05 -1.9574902762158399e+06 
+4.2499999999999902e+00 -5.7915301587764212e-01 +7.6397346084744147e+00 +4.1219280502623601e+00 -2.1945547022461835e+01 +2.0445334049791616e+03 -1.5963293189893142e+05 -2.6239683517594179e+06 
+4.2999999999999901e+00 -5.7918325608827415e-01 +7.6413494797968173e+00 +4.0823261295427535e+00 -2.2173619417655889e+01 +2.1711613605982170e+03 -1.5618780949051009e+05 -3.2991291583134211e+06 
+4.3499999999999899e+00 -5.7921375619757298e-01 +7.6429752364478887e+00 +4.0425896587429744e+00 -2.2387846338497035e+01 +2.2982602488487209e+03 -1.5284431817341837e+05 -3.9808841452811565e+06 
+4.3999999999999897e+00 -5.7924451326214399e-01 +7.6446116137575997e+00 +4.0027375631672406e+00 -2.2586962515592504e+01 +2.4254935825809330e+03 -1.4961035253202909e+05 -4.6671450126241744e+06 
+4.4499999999999904e+00 -5.7927552433857010e-01 +7.6462583470463681e+00 +3.9627887692412571e+00 -2.2769702297745056e+01 +2.5525248457063826e+03 -1.4649381028378737e+05 -5.3558232717470918e+06 
+4.4999999999999902e+00 -5.7930678648337575e-01 +7.6479151716403919e+00 +3.9227622036804708e+00 -2.2934800263184258e+01 +2.6790175088545657e+03 -1.4350258732299667e+05 -6.0448303215644807e+06 
+4.5499999999999901e+00 -5.7933829675322790e-01 +7.6495818228629879e+00 +3.8826767892405623e+00 -2.3080990909179064e+01 +2.8046351467847694e+03 -1.4064458014321284e+05 -6.7320782518882118e+06 
+4.5999999999999899e+00 -5.7937005220456272e-01 +7.6512580360341556e+00 +3.8425514531216889e+00 -2.3207008582618389e+01 +2.9290412096141790e+03 -1.3792768652228761e+05 -7.4154782928822646e+06 
+4.6499999999999897e+00 -5.7940204989401889e-01 +7.6529435464732165e+00 +3.8024051194071546e+00 -2.3311587617367280e+01 +3.0518992289760504e+03 -1.3535980438982439e+05 -8.0929422122693630e+06 
+4.6999999999999904e+00 -5.7943428687815302e-01 +7.6546380894960846e+00 +3.7622567135443901e+00 -2.3393462235992786e+01 +3.1728726944799960e+03 -1.3294883250860331e+05 -8.7623814760780931e+06 
+4.7499999999999902e+00 -5.7946676021347421e-01 +7.6563414004209909e+00 +3.7221251580165498e+00 -2.3451366745111859e+01 +3.2916251752409953e+03 -1.3070266904177495e+05 -9.4217080815604441e+06 
+4.7999999999999901e+00 -5.7949946695656063e-01 +7.6580532145633873e+00 +3.6820293787814489e+00 -2.3484035355403293e+01 +3.4078201371969221e+03 -1.2862921294734161e+05 -1.0068833291337751e+07 
+4.8499999999999899e+00 -5.7953240416395524e-01 +7.6597732672335646e+00 +3.6419882965866499e+00 -2.3490202091571486e+01 +3.5211211868572382e+03 -1.2673636465801517e+05 -1.0701669317359097e+07 
+4.8999999999999897e+00 -5.7956556889208444e-01 +7.6615012937440055e+00 +3.6020208370605946e+00 -2.3468601060320331e+01 +3.6311917971190383e+03 -1.2503202401099460e+05 -1.1318127463425329e+07 
+4.9499999999999904e+00 -5.7959873261173300e-01 +7.6632253072189966e+00 +3.5624145317057887e+00 -2.3418416078508443e+01 +3.7369910184436590e+03 -1.2353357056263692e+05 -1.1912158688047694e+07 
+4.9999999999999902e+00 -5.7963211501484069e-01 +7.6649566668714986e+00 +3.5229180752608578e+00 -2.3338346473319785e+01 +3.8389415550958925e+03 -1.2223663153010154e+05 -1.2485925532743445e+07 
+5.0499999999999901e+00 -5.7966571321697025e-01 +7.6666951133190304e+00 +3.4835500093113803e+00 -2.3227151441190994e+01 +3.9367137270827307e+03 -1.2114895079563156e+05 -1.3037381778770929e+07 
