# multipoles
# s[mm] polynom_b[n=0][T/m^n] polynom_b[n=1][T/m^n] polynom_b[n=2][T/m^n] polynom_b[n=3][T/m^n] polynom_b[n=4][T/m^n] polynom_b[n=5][T/m^n] polynom_b[n=6][T/m^n] 
+0.0000000000000000e+00 -5.5284221394333066e-01 +7.2603189916451027e+00 +5.3744004942903452e+00 -5.8440430693055765e+00 +8.7339959927811606e+02 -2.5494621072398697e+05 +1.4799837292874252e+07 
-5.0000000000000003e-02 -5.5284307629381868e-01 +7.2603452069248293e+00 +5.3753563292597768e+00 -5.5973385814550047e+00 +8.4872378135854626e+02 -2.5732769887695444e+05 +1.4856668579476263e+07 
-1.0000000000000001e-01 -5.5284431667167899e-01 +7.2603928378370641e+00 +5.3756660073158908e+00 -5.3487539990885207e+00 +8.2730134252074765e+02 -2.5975160303911907e+05 +1.4897769508559655e+07 
-1.5000000000000002e-01 -5.5284593425977735e-01 +7.2604617978005761e+00 +5.3753368413091254e+00 -5.0985945426150572e+00 +8.0900152421348230e+02 -2.6221271347218961e+05 +1.4923909061293289e+07 
-2.0000000000000001e-01 -5.5284792824099638e-01 +7.2605520002356396e+00 +5.3743761434608039e+00 -4.8471654587389530e+00 +7.9369358935656112e+02 -2.6470582023618475e+05 +1.4935856057187192e+07 
-2.5000000000000000e-01 -5.5285029779825234e-01 +7.2606633585598166e+00 +5.3727912290148625e+00 -4.5947718548100358e+00 +7.8124671420778236e+02 -2.6722571454930835e+05 +1.4934379923619211e+07 
-2.9999999999999999e-01 -5.5285304211446162e-01 +7.2607957861960237e+00 +5.3705894102022738e+00 -4.3417190370984384e+00 +7.7153015769635215e+02 -2.6976718597101612e+05 +1.4920249522532657e+07 
-3.4999999999999998e-01 -5.5285616037256013e-01 +7.2609491965637938e+00 +5.3677779994410129e+00 -4.0883121201990784e+00 +7.6441317254071305e+02 -2.7232502573324490e+05 +1.4894233764568873e+07 
-3.9999999999999997e-01 -5.5285965175552176e-01 +7.2611235030888848e+00 +5.3643643125138132e+00 -3.8348564630044044e+00 +7.5976492460877137e+02 -2.7489402300532057e+05 +1.4857102131915491e+07 
-4.4999999999999996e-01 -5.5286351544631740e-01 +7.2613186191922621e+00 +5.3603556618337258e+00 -3.5816571881842627e+00 +7.5745466724514631e+02 -2.7746896895056329e+05 +1.4809623528320864e+07 
-4.9999999999999994e-01 -5.5286775062792726e-01 +7.2615344583006403e+00 +5.3557593583512606e+00 -3.3290196304669242e+00 +7.5735169389333373e+02 -2.8004465296897967e+05 +1.4752566584936554e+07 
-5.4999999999999993e-01 -5.5287235648338906e-01 +7.2617709338355780e+00 +5.3505827199030733e+00 -3.0772488762340848e+00 +7.5932511345172975e+02 -2.8261586655294738e+05 +1.4686701175125893e+07 
-5.9999999999999998e-01 -5.5287733219570634e-01 +7.2620279592275478e+00 +5.3448330554238632e+00 -2.8266503542346078e+00 +7.6324427446642289e+02 -2.8517739836636995e+05 +1.4612795553328367e+07 
-6.5000000000000002e-01 -5.5288267694794113e-01 +7.2623054479004532e+00 +5.3385176808936974e+00 -2.5775291942621688e+00 +7.6897833809991869e+02 -2.8772403953663929e+05 +1.4531619229789380e+07 
-7.0000000000000007e-01 -5.5288838992315714e-01 +7.2626033132832655e+00 +5.3316439101871680e+00 -2.3301906969482782e+00 +7.7639651488123388e+02 -2.9025057984664507e+05 +1.4443941409357399e+07 
-7.5000000000000011e-01 -5.5289447030443495e-01 +7.2629214688045005e+00 +5.3242190566187881e+00 -2.0849401224473714e+00 +7.8536803666359503e+02 -2.9275180938014277e+05 +1.4350531128096713e+07 
-8.0000000000000016e-01 -5.5290091727486024e-01 +7.2632598278919343e+00 +5.3162504316051962e+00 -1.8420826633655858e+00 +7.9576218711071294e+02 -2.9522251882814587e+05 +1.4252157066660821e+07 
-8.5000000000000020e-01 -5.5290773001754789e-01 +7.2636183039773474e+00 +5.3077453488221114e+00 -1.6019236596958437e+00 +8.0744818442505004e+02 -2.9765749763748643e+05 +1.4149588366987053e+07 
-9.0000000000000024e-01 -5.5291490771565266e-01 +7.2639968104912800e+00 +5.2987111262469258e+00 -1.3647683666493693e+00 +8.2029513134022659e+02 -3.0005153597754071e+05 +1.4043594946165068e+07 
-9.5000000000000029e-01 -5.5292244955230418e-01 +7.2643952608656184e+00 +5.2891550741975539e+00 -1.1309220557483768e+00 +8.3417234325639686e+02 -3.0239942394667142e+05 +1.3934945255460873e+07 
-1.0000000000000002e+00 -5.5293035471066376e-01 +7.2648135685308182e+00 +5.2790845059714400e+00 -9.0068992566360928e-01 +8.4894904573646727e+02 -3.0469595218794863e+05 +1.3824408395893674e+07 
-1.0500000000000003e+00 -5.5293862237391456e-01 +7.2652516469206665e+00 +5.2685067360593187e+00 -6.7437728418686738e-01 +8.6449443779773537e+02 -3.0693591046323138e+05 +1.3712753615968937e+07 
-1.1000000000000003e+00 -5.5294725172525971e-01 +7.2657094094714196e+00 +5.2574290791991105e+00 -4.5228949384725553e-01 +8.8067771039914282e+02 -3.0911408816661895e+05 +1.3600750226729695e+07 
-1.1500000000000004e+00 -5.5295624194790383e-01 +7.2661867696139684e+00 +5.2458588480672823e+00 -2.3473169677131198e-01 +8.9736810960462878e+02 -3.1122527641321684e+05 +1.3489167163474735e+07 
-1.2000000000000004e+00 -5.5296559222508379e-01 +7.2666836407843460e+00 +5.2338033580311158e+00 -2.2009193879827100e-02 +9.1443480766576658e+02 -3.1326426510511647e+05 +1.3378773864441805e+07 
-1.2500000000000004e+00 -5.5297530174003284e-01 +7.2671999364177804e+00 +5.2212699210573215e+00 +1.8557276944758108e-01 +9.3174707084818363e+02 -3.1522584460528131e+05 +1.3270339119140120e+07 
-1.3000000000000005e+00 -5.5298536967601697e-01 +7.2677355699514266e+00 +5.2082658523551393e+00 +3.8770888327615666e-01 +9.4917407408176530e+02 -3.1710480470953073e+05 +1.3164632346655475e+07 
-1.3500000000000005e+00 -5.5299579521631836e-01 +7.2682904548210194e+00 +5.1947984671303162e+00 +5.8409393554532685e-01 +9.6658499547239649e+02 -3.1889593605983804e+05 +1.3062422930810660e+07 
-1.4000000000000006e+00 -5.5300657754422133e-01 +7.2688645044661628e+00 +5.1808750785025826e+00 +7.7442258182761581e-01 +9.8384906569079328e+02 -3.2059402823221253e+05 +1.2964479908480363e+07 
-1.4500000000000006e+00 -5.5301771584304116e-01 +7.2694576323219593e+00 +5.1665030020944558e+00 +9.5838967576497036e-01 +1.0008354507329243e+03 -3.2219387238733156e+05 +1.2871572741852768e+07 
-1.5000000000000007e+00 -5.5302920929608534e-01 +7.2700697518279638e+00 +5.1516895496447761e+00 +1.1356899424586877e+00 +1.0174134197650354e+03 -3.2369025874155480e+05 +1.2784470196609553e+07 
-1.5500000000000007e+00 -5.5304105708670614e-01 +7.2707007764247971e+00 +5.1364420386863268e+00 +1.3060180567848847e+00 +1.0334520826507699e+03 -3.2507797698201443e+05 +1.2703942121743089e+07 
-1.6000000000000008e+00 -5.5305325839825348e-01 +7.2713506195502911e+00 +5.1207677829340614e+00 +1.4690688660316282e+00 +1.0488206555725355e+03 -3.2635181834064628e+05 +1.2630757633187596e+07 
-1.6500000000000008e+00 -5.5306581241409458e-01 +7.2720191946462540e+00 +5.1046740973869662e+00 +1.6245370520605464e+00 +1.0633883168923787e+03 -3.2750657259763055e+05 +1.2565686107170030e+07 
-1.7000000000000008e+00 -5.5307871831760635e-01 +7.2727064151507657e+00 +5.0881682957066339e+00 +1.7721174995230875e+00 +1.0770242809355493e+03 -3.2853703129532270e+05 +1.2509496675989941e+07 
-1.7500000000000009e+00 -5.5309197529219523e-01 +7.2734121945073351e+00 +5.0712576941730729e+00 +1.9115048790884190e+00 +1.0895976943050098e+03 -3.2943798415649688e+05 +1.2462958912259813e+07 
-1.8000000000000009e+00 -5.5310558252127340e-01 +7.2741364461569811e+00 +5.0539496083962252e+00 +2.0423940006648338e+00 +1.1009777133273915e+03 -3.3020422210928897e+05 +1.2426842349543421e+07 
-1.8500000000000010e+00 -5.5311953918825607e-01 +7.2748790835422872e+00 +5.0362513512114013e+00 +2.1644796297640454e+00 +1.1110335756817904e+03 -3.3083053569823864e+05 +1.2401915941712191e+07 
-1.9000000000000010e+00 -5.5313384447659930e-01 +7.2756400201042410e+00 +5.0181702407914139e+00 +2.2774566277875965e+00 +1.1196343712287871e+03 -3.3131171628260351e+05 +1.2388949649814315e+07 
-1.9500000000000011e+00 -5.5314849756974893e-01 +7.2764191692885598e+00 +4.9997135903171799e+00 +2.3810196794217631e+00 +1.1266493286685170e+03 -3.3164255375221383e+05 +1.2388712478249701e+07 
-2.0000000000000009e+00 -5.5316349765118844e-01 +7.2772164445352834e+00 +4.9808887182868933e+00 +2.4748637349360765e+00 +1.1319475229882871e+03 -3.3181784020289569e+05 +1.2401974502863230e+07 
-2.0500000000000007e+00 -5.5317884370903159e-01 +7.2780317465814104e+00 +4.9617022628158054e+00 +2.5588788156851932e+00 +1.1354379248267594e+03 -3.3183459959678818e+05 +1.2429228900923446e+07 
-2.1000000000000005e+00 -5.5319453394935580e-01 +7.2788649208096761e+00 +4.9421583869222880e+00 +2.6336961027439454e+00 +1.1371871000349504e+03 -3.3169862889864109e+05 +1.2469898402530087e+07 
-2.1500000000000004e+00 -5.5321056638256882e-01 +7.2797157976304137e+00 +4.9222606968593521e+00 +2.7001220467658413e+00 +1.1373007797074804e+03 -3.3141788445298857e+05 +1.2523145785159705e+07 
-2.2000000000000002e+00 -5.5322693901906794e-01 +7.2805842074572569e+00 +4.9020127948106760e+00 +2.7589629711677159e+00 +1.1358848042301015e+03 -3.3100032154703885e+05 +1.2588133092981067e+07 
-2.2500000000000000e+00 -5.5324364986928209e-01 +7.2814699806998506e+00 +4.8814182861889570e+00 +2.8110253711248894e+00 +1.1330449298024173e+03 -3.3045389685760508e+05 +1.2664022927802516e+07 
-2.2999999999999998e+00 -5.5326069694364677e-01 +7.2823729477705150e+00 +4.8604807762105278e+00 +2.8571156458644591e+00 +1.1288869116608732e+03 -3.2978656627078739e+05 +1.2749977920972804e+07 
-2.3499999999999996e+00 -5.5327807825259667e-01 +7.2832929390830285e+00 +4.8392038676659270e+00 +2.8980401451570952e+00 +1.1235165741931148e+03 -3.2900628525147942e+05 +1.2845160221539903e+07 
-2.3999999999999995e+00 -5.5329579180658894e-01 +7.2842297850491518e+00 +4.8175911652911907e+00 +2.9346053117340736e+00 +1.1170396897916653e+03 -3.2812101001268678e+05 +1.2948732327587897e+07 
-2.4499999999999993e+00 -5.5331383561608594e-01 +7.2851833160818833e+00 +4.7956462729806120e+00 +2.9676175469252790e+00 +1.1095620505055626e+03 -3.2713869642310514e+05 +1.3059856618638363e+07 
-2.4999999999999991e+00 -5.5333220769156211e-01 +7.2861533625940522e+00 +4.7733727950902596e+00 +2.9978832562696494e+00 +1.1011894362890682e+03 -3.2606730031496083e+05 +1.3177695551491205e+07 
-2.5499999999999989e+00 -5.5335090604350290e-01 +7.2871397550005756e+00 +4.7507743359543042e+00 +3.0262087845564549e+00 +1.0920276270454904e+03 -3.2491477708325465e+05 +1.3301411589428397e+07 
-2.5999999999999988e+00 -5.5336992868239065e-01 +7.2881423237136032e+00 +4.7278544977737846e+00 +3.0534005808312905e+00 +1.0821824581574579e+03 -3.2368908288629493e+05 +1.3430166826566985e+07 
-2.6499999999999986e+00 -5.5338927361873380e-01 +7.2891608991479444e+00 +4.7046168851244312e+00 +3.0802649991161459e+00 +1.0717597077846058e+03 -3.2239817313512327e+05 +1.3563123718455413e+07 
-2.6999999999999984e+00 -5.5340893886303522e-01 +7.2901953117173379e+00 +4.6810651008085973e+00 +3.1076084320186368e+00 +1.0608651904404242e+03 -3.2105000347213732e+05 +1.3699444520277608e+07 
-2.7499999999999982e+00 -5.5342892242581887e-01 +7.2912453918356768e+00 +4.6572027490374346e+00 +3.1362372821390623e+00 +1.0496046899509208e+03 -3.1965252966710192e+05 +1.3838291667090256e+07 
-2.7999999999999980e+00 -5.5344922231761307e-01 +7.2923109699174811e+00 +4.6330334332865233e+00 +3.1669579179183049e+00 +1.0380840079659065e+03 -3.1821370713255700e+05 +1.3978827482500408e+07 
-2.8499999999999979e+00 -5.5346983654894721e-01 +7.2933918763769299e+00 +4.6085607558971819e+00 +3.2005767360166795e+00 +1.0264089738171831e+03 -3.1674149153900164e+05 +1.4120214115865719e+07 
-2.8999999999999977e+00 -5.5349076313036549e-01 +7.2944879416298711e+00 +4.5837883199640448e+00 +3.2379000485133655e+00 +1.0146853996418763e+03 -3.1524383775160887e+05 +1.4261613820589004e+07 
-2.9499999999999975e+00 -5.5351200007241852e-01 +7.2955989960888576e+00 +4.5587197284790246e+00 +3.2797343158480405e+00 +1.0030190962348767e+03 -3.1372870190332015e+05 +1.4402188878217433e+07 
-2.9999999999999973e+00 -5.5353354538565847e-01 +7.2967248701707286e+00 +4.5333585832131869e+00 +3.3268858178366063e+00 +9.9151590999865198e+02 -3.1220403856994386e+05 +1.4541101318680191e+07 
-3.0499999999999972e+00 -5.5355539708064982e-01 +7.2978653942903682e+00 +4.5077084864768713e+00 +3.3801609111244972e+00 +9.8028167126374979e+02 -3.1067780293072283e+05 +1.4677513290049654e+07 
-3.0999999999999970e+00 -5.5357755316797252e-01 +7.2990203988620426e+00 +4.4817730423278910e+00 +3.4403659826464636e+00 +9.6942216034632258e+02 -3.0915795041869255e+05 +1.4810587289930865e+07 
-3.1499999999999968e+00 -5.5360001165818873e-01 +7.3001897142995311e+00 +4.4555558500228303e+00 +3.5083074296155545e+00 +9.5904328975461067e+02 -3.0765243647671252e+05 +1.4939484914584601e+07 
-3.1999999999999966e+00 -5.5362277056189391e-01 +7.3013731710201855e+00 +4.4290605132049832e+00 +3.5847914998215278e+00 +9.4925085444203455e+02 -3.0616921529354795e+05 +1.5063368555033538e+07 
-3.2499999999999964e+00 -5.5364582788967143e-01 +7.3025705994360877e+00 +4.4022906328618223e+00 +3.6706246522201371e+00 +9.4015071331603394e+02 -3.0471624276458682e+05 +1.5181400199254133e+07 
-3.2999999999999963e+00 -5.5366918165211820e-01 +7.3037818299654838e+00 +4.3752498103750082e+00 +3.7666130823164097e+00 +9.3184872150146839e+02 -3.0330147254939674e+05 +1.5292741839659356e+07 
-3.3499999999999961e+00 -5.5369282985983903e-01 +7.3050066930211237e+00 +4.3479416477489048e+00 +3.8735632158678444e+00 +9.2445071347400949e+02 -3.0193286021469074e+05 +1.5396555623099791e+07 
-3.3999999999999959e+00 -5.5371677052343127e-01 +7.3062450190189541e+00 +4.3203697442328375e+00 +3.9922813373460198e+00 +9.1806259978922185e+02 -3.0061836011604429e+05 +1.5492003178797567e+07 
-3.4499999999999957e+00 -5.5374100165351392e-01 +7.3074966383721218e+00 +4.2925377019072339e+00 +4.1235738263911799e+00 +9.1279021113948068e+02 -2.9936592729670217e+05 +1.5578246694154361e+07 
-3.4999999999999956e+00 -5.5376552126069922e-01 +7.3087613814980816e+00 +4.2644491207189450e+00 +4.2682468958923048e+00 +9.0873943660722648e+02 -2.9818351546943333e+05 +1.5654447958588652e+07 
-3.5499999999999954e+00 -5.5379032735560385e-01 +7.3100390788093819e+00 +4.2361076001509490e+00 +4.4271069317346727e+00 +9.0601617758198972e+02 -2.9707907965092175e+05 +1.5719768683800319e+07 
-3.5999999999999952e+00 -5.5381541794885381e-01 +7.3113295607227187e+00 +4.2075167404909672e+00 +4.6009601431308944e+00 +9.0472631196414511e+02 -2.9606057337104401e+05 +1.5773370749040671e+07 
-3.6499999999999950e+00 -5.5384079105108031e-01 +7.3126326576504797e+00 +4.1786801415828361e+00 +4.7906129150316543e+00 +9.0497573311761573e+02 -2.9513595160717692e+05 +1.5814415920221115e+07 
-3.6999999999999948e+00 -5.5386644467290713e-01 +7.3139482000086362e+00 +4.1496014016562377e+00 +4.9968714649135650e+00 +9.0687037082041059e+02 -2.9431316788000363e+05 +1.5842065747746523e+07 
-3.7499999999999947e+00 -5.5389237682498327e-01 +7.3152760182086345e+00 +4.1202841220205801e+00 +5.2205421830844116e+00 +9.1051607514750242e+02 -2.9360017708199756e+05 +1.5855482311126778e+07 
-3.7999999999999945e+00 -5.5391858551793938e-01 +7.3166159426687409e+00 +4.0907318998355340e+00 +5.4624311640594980e+00 +9.1601880964970303e+02 -2.9300493161272997e+05 +1.5853826920932831e+07 
-3.8499999999999943e+00 -5.5394506876241412e-01 +7.3179678037997782e+00 +4.0609483332467171e+00 +5.7233448003399845e+00 +9.2348450608386145e+02 -2.9253538631002081e+05 +1.5836261125619164e+07 
-3.8999999999999941e+00 -5.5397182456905758e-01 +7.3193314320165763e+00 +4.0309370213725817e+00 +6.0040892947699476e+00 +9.3301907155216657e+02 -2.9219949435656943e+05 +1.5801946639655076e+07 
-3.9499999999999940e+00 -5.5399885094852030e-01 +7.3207066577319511e+00 +4.0007015626573459e+00 +6.3054709239937106e+00 +9.4472843184542569e+02 -2.9200520951329614e+05 +1.5750045051426779e+07 
-3.9999999999999938e+00 -5.5402614591143484e-01 +7.3220933113578104e+00 +3.9702455517535347e+00 +6.6282959830465531e+00 +9.5871861294865994e+02 -2.9196048560383014e+05 +1.5679717291394835e+07 
-4.0499999999999936e+00 -5.5405370732179171e-01 +7.3234912277508766e+00 +3.9395727466196875e+00 +6.9731356188724991e+00 +9.7506836371871123e+02 -2.9207147739814682e+05 +1.5590357410018953e+07 
-4.0999999999999934e+00 -5.5408153245792080e-01 +7.3249002506570982e+00 +3.9086875720748031e+00 +7.3397081174830996e+00 +9.9375370263932541e+02 -2.9233776743285422e+05 +1.5482239622355813e+07 
-4.1499999999999932e+00 -5.5410961845203255e-01 +7.3263202238458707e+00 +3.8775946636938792e+00 +7.7275387368297030e+00 +1.0147259648480316e+03 -2.9275744143347471e+05 +1.5355849227902658e+07 
-4.1999999999999931e+00 -5.5413796243632774e-01 +7.3277509910886351e+00 +3.8462986548970273e+00 +8.1361526457760700e+00 +1.0379365465222090e+03 -2.9332858447918587e+05 +1.5211671111907586e+07 
-4.2499999999999929e+00 -5.5416656154302157e-01 +7.3291923961528145e+00 +3.8148041812033742e+00 +8.5650751617084602e+00 +1.0633367868826026e+03 -2.9404928284987673e+05 +1.5050190549722048e+07 
-4.2999999999999927e+00 -5.5419541290432461e-01 +7.3306442828123002e+00 +3.7831158770838784e+00 +9.0138313533389915e+00 +1.0908780534873799e+03 -2.9491762086799415e+05 +1.4871892627745552e+07 
-4.3499999999999925e+00 -5.5422451365246495e-01 +7.3321064948334893e+00 +3.7512383795019675e+00 +9.4819465853256641e+00 +1.1205116504585803e+03 -2.9593168528598116e+05 +1.4677262849641819e+07 
-4.3999999999999924e+00 -5.5425386091964124e-01 +7.3335788759876381e+00 +3.7191763200120205e+00 +9.9689460192672996e+00 +1.1521890273902402e+03 -2.9708956120502838e+05 +1.4466785741364721e+07 
-4.4499999999999922e+00 -5.5428345183807504e-01 +7.3350612700440738e+00 +3.6869343348098296e+00 +1.0474354895423305e+01 +1.1858615017689849e+03 -2.9838933442410320e+05 +1.4240946751012642e+07 
-4.4999999999999920e+00 -5.5431328353999632e-01 +7.3365535207744799e+00 +3.6545170599004129e+00 +1.0997698356018375e+01 +1.2214804089901568e+03 -2.9982908996224409e+05 +1.4000231162339907e+07 
-4.5499999999999918e+00 -5.5434335315760852e-01 +7.3380554719491125e+00 +3.6219291279382149e+00 +1.1538501593748911e+01 +1.2589971639493936e+03 -3.0140691326589405e+05 +1.3745123765496871e+07 
-4.5999999999999917e+00 -5.5437365782314330e-01 +7.3395669673331936e+00 +3.5891751753695940e+00 +1.2096290006229847e+01 +1.2983630896748718e+03 -3.0312089151550375e+05 +1.3476109934143214e+07 
-4.6499999999999915e+00 -5.5440419466881974e-01 +7.3410878507011930e+00 +3.5562598368841170e+00 +1.2670588612195909e+01 +1.3395295520065854e+03 -3.0496910882670555e+05 +1.3193674776483478e+07 
-4.6999999999999913e+00 -5.5443496082685495e-01 +7.3426179658206641e+00 +3.5231877466971047e+00 +1.3260922705078086e+01 +1.3824479303585756e+03 -3.0694965158684278e+05 +1.2898303309117055e+07 
-4.7499999999999911e+00 -5.5446595342948246e-01 +7.3441571564618453e+00 +3.4899635418355976e+00 +1.3866817457060897e+01 +1.4270695322649876e+03 -3.0906060520450375e+05 +1.2590481021942485e+07 
-4.7999999999999909e+00 -5.5449716960890849e-01 +7.3457052663936597e+00 +3.4565918546349788e+00 +1.4487798102760989e+01 +1.4733457895206143e+03 -3.1130005568110186e+05 +1.2270692580430962e+07 
-4.8499999999999908e+00 -5.5452860649737068e-01 +7.3472621393861273e+00 +3.4230773232797902e+00 +1.5123389821179424e+01 +1.5212279762689211e+03 -3.1366608858780609e+05 +1.1939423717396947e+07 
-4.8999999999999906e+00 -5.5456026122707347e-01 +7.3488276192075954e+00 +3.3894245800288494e+00 +1.5773117852853062e+01 +1.5706675309468119e+03 -3.1615679003357620e+05 +1.1597159040582247e+07 
-4.9499999999999904e+00 -5.5459213093024751e-01 +7.3504015496281756e+00 +3.3556382616494300e+00 +1.6436507361455103e+01 +1.6216157706765537e+03 -3.1877024553801009e+05 +1.1244383986254230e+07 
-4.9999999999999902e+00 -5.5462421273910667e-01 +7.3519837744174721e+00 +3.3217230029386871e+00 +1.7113083520685748e+01 +1.6740240620369527e+03 -3.2150454073400184e+05 +1.0881583670429567e+07 
-5.0499999999999901e+00 -5.5465650378587583e-01 +7.3535741373421368e+00 +3.2876834401128376e+00 +1.7802371629304677e+01 +1.7278437396288762e+03 -3.2435776235980337e+05 +1.0509243408686327e+07 
