# field on trajectory
# s[mm] rx[mm] ry[mm] rz[mm] bx[T] by[T] bz[T]
0.0000000000000000e+00 +8.2850000000000001e+00 +0.0000000000000000e+00 +0.0000000000000000e+00 -2.9780971953376929e-02 -5.8246570755858529e-01 +5.8154110940239773e-03
-5.0000000000000003e-02 +8.2849999304263715e+00 +0.0000000000000000e+00 -4.9999999999935457e-02 -2.9781006115289204e-02 -5.8246630556737489e-01 +5.8155321214193971e-03
-1.0000000000000001e-01 +8.2849997217053737e+00 +0.0000000000000000e+00 -9.9999999999483669e-02 -2.9781057168022353e-02 -5.8246725210019812e-01 +5.8156575368996577e-03
-1.5000000000000002e-01 +8.2849993738367811e+00 +0.0000000000000000e+00 -1.4999999999825742e-01 -2.9781125099396396e-02 -5.8246854628264322e-01 +5.8157873661422018e-03
-2.0000000000000001e-01 +8.2849988868202864e+00 +0.0000000000000000e+00 -1.9999999999586943e-01 -2.9781209897231892e-02 -5.8247018724031530e-01 +5.8159216348245141e-03
-2.5000000000000000e-01 +8.2849982606554953e+00 +0.0000000000000000e+00 -2.4999999999193248e-01 -2.9781311549349994e-02 -5.8247217409883700e-01 +5.8160603686241404e-03
-2.9999999999999999e-01 +8.2849974953419352e+00 +0.0000000000000000e+00 -2.9999999998605931e-01 -2.9781430043572414e-02 -5.8247450598384576e-01 +5.8162035932186815e-03
-3.4999999999999998e-01 +8.2849965908790484e+00 +0.0000000000000000e+00 -3.4999999997786263e-01 -2.9781565367721505e-02 -5.8247718202099663e-01 +5.8163513342858091e-03
-3.9999999999999997e-01 +8.2849955472661954e+00 +0.0000000000000000e+00 -3.9999999996695523e-01 -2.9781717509620241e-02 -5.8248020133596068e-01 +5.8165036175032662e-03
-4.4999999999999996e-01 +8.2849943645026549e+00 +0.0000000000000000e+00 -4.4999999995294981e-01 -2.9781886457092264e-02 -5.8248356305442506e-01 +5.8166604685488633e-03
-4.9999999999999994e-01 +8.2849930425876224e+00 +0.0000000000000000e+00 -4.9999999993545907e-01 -2.9782072197961914e-02 -5.8248726630209258e-01 +5.8168219131005108e-03
-5.4999999999999993e-01 +8.2849915815202149e+00 +0.0000000000000000e+00 -5.4999999991409576e-01 -2.9782274720054215e-02 -5.8249131020468270e-01 +5.8169879768361849e-03
-5.9999999999999998e-01 +8.2849899812994661e+00 +0.0000000000000000e+00 -5.9999999988847252e-01 -2.9782494011194899e-02 -5.8249569388792932e-01 +5.8171586854339659e-03
-6.5000000000000002e-01 +8.2849882419243297e+00 +0.0000000000000000e+00 -6.4999999985820212e-01 -2.9782730059210484e-02 -5.8250041647758299e-01 +5.8173340645720278e-03
-7.0000000000000007e-01 +8.2849863633936760e+00 +0.0000000000000000e+00 -6.9999999982289718e-01 -2.9782982851928264e-02 -5.8250547709941014e-01 +5.8175141399286505e-03
-7.5000000000000011e-01 +8.2849843457062970e+00 +0.0000000000000000e+00 -7.4999999978217047e-01 -2.9783252377176283e-02 -5.8251087487919107e-01 +5.8176989371822117e-03
-8.0000000000000016e-01 +8.2849821888609032e+00 +0.0000000000000000e+00 -7.9999999973563451e-01 -2.9783538622783413e-02 -5.8251660894272272e-01 +5.8178884820112168e-03
-8.5000000000000020e-01 +8.2849798928561249e+00 +0.0000000000000000e+00 -8.4999999968290196e-01 -2.9783841576579394e-02 -5.8252267841581629e-01 +5.8180828000942717e-03
-9.0000000000000024e-01 +8.2849774576905109e+00 +0.0000000000000000e+00 -8.9999999962358546e-01 -2.9784161226394785e-02 -5.8252908242429868e-01 +5.8182819171101194e-03
-9.5000000000000029e-01 +8.2849748833625334e+00 +0.0000000000000000e+00 -9.4999999955729764e-01 -2.9784497560061070e-02 -5.8253582009401073e-01 +5.8184858587376253e-03
-1.0000000000000002e+00 +8.2849721698705814e+00 +0.0000000000000000e+00 -9.9999999948365115e-01 -2.9784850565410581e-02 -5.8254289055080899e-01 +5.8186946506557837e-03
-1.0500000000000003e+00 +8.2849693172129655e+00 +0.0000000000000000e+00 -1.0499999994022584e+00 -2.9785220230276646e-02 -5.8255029292056426e-01 +5.8189083185437411e-03
-1.1000000000000003e+00 +8.2849663253879182e+00 +0.0000000000000000e+00 -1.0999999993127321e+00 -2.9785606542493459e-02 -5.8255802632916165e-01 +5.8191268880807678e-03
-1.1500000000000004e+00 +8.2849631943935922e+00 +0.0000000000000000e+00 -1.1499999992146848e+00 -2.9786009489896268e-02 -5.8256608990250114e-01 +5.8193503849463006e-03
-1.2000000000000004e+00 +8.2849599242280600e+00 +0.0000000000000000e+00 -1.1999999991077288e+00 -2.9786429060321227e-02 -5.8257448276649582e-01 +5.8195788348199204e-03
-1.2500000000000004e+00 +8.2849565148893181e+00 +0.0000000000000000e+00 -1.2499999989914767e+00 -2.9786865241605592e-02 -5.8258320404707475e-01 +5.8198122633813755e-03
-1.3000000000000005e+00 +8.2849529663752826e+00 +0.0000000000000000e+00 -1.2999999988655411e+00 -2.9787318021587589e-02 -5.8259225287017935e-01 +5.8200506963105676e-03
-1.3500000000000005e+00 +8.2849492786837917e+00 +0.0000000000000000e+00 -1.3499999987295341e+00 -2.9787787388106543e-02 -5.8260162836176566e-01 +5.8202941592875781e-03
-1.4000000000000006e+00 +8.2849454518126056e+00 +0.0000000000000000e+00 -1.3999999985830687e+00 -2.9788273329002826e-02 -5.8261132964780360e-01 +5.8205426779926557e-03
-1.4500000000000006e+00 +8.2849414857594077e+00 +0.0000000000000000e+00 -1.4499999984257568e+00 -2.9788775832117961e-02 -5.8262135585427632e-01 +5.8207962781062364e-03
-1.5000000000000007e+00 +8.2849373805218018e+00 +0.0000000000000000e+00 -1.4999999982572110e+00 -2.9789294885294543e-02 -5.8263170610718040e-01 +5.8210549853089377e-03
-1.5500000000000007e+00 +8.2849331360973171e+00 +0.0000000000000000e+00 -1.5499999980770434e+00 -2.9789830476376341e-02 -5.8264237953252662e-01 +5.8213188252815616e-03
-1.6000000000000008e+00 +8.2849287524834008e+00 +0.0000000000000000e+00 -1.5999999978848665e+00 -2.9790382593208296e-02 -5.8265337525633809e-01 +5.8215878237051185e-03
-1.6500000000000008e+00 +8.2849242296774293e+00 +0.0000000000000000e+00 -1.6499999976802926e+00 -2.9790951223636532e-02 -5.8266469240465124e-01 +5.8218620062608041e-03
-1.7000000000000008e+00 +8.2849195676766971e+00 +0.0000000000000000e+00 -1.6999999974629338e+00 -2.9791536355508411e-02 -5.8267633010351638e-01 +5.8221413986300347e-03
-1.7500000000000009e+00 +8.2849147664784244e+00 +0.0000000000000000e+00 -1.7499999972324027e+00 -2.9792137976672493e-02 -5.8268828747899504e-01 +5.8224260264944259e-03
-1.8000000000000009e+00 +8.2849098260797547e+00 +0.0000000000000000e+00 -1.7999999969883111e+00 -2.9792756074978631e-02 -5.8270056365716405e-01 +5.8227159155358242e-03
-1.8500000000000010e+00 +8.2849047464777552e+00 +0.0000000000000000e+00 -1.8499999967302714e+00 -2.9793390638277940e-02 -5.8271315776410981e-01 +5.8230110914362782e-03
-1.9000000000000010e+00 +8.2848995276694186e+00 +0.0000000000000000e+00 -1.8999999964578955e+00 -2.9794041654422825e-02 -5.8272606892593359e-01 +5.8233115798780738e-03
-1.9500000000000011e+00 +8.2848941696516594e+00 +0.0000000000000000e+00 -1.9499999961707959e+00 -2.9794709111267071e-02 -5.8273929626874821e-01 +5.8236174065437324e-03
-2.0000000000000009e+00 +8.2848886724213173e+00 +0.0000000000000000e+00 -1.9999999958685843e+00 -2.9795392996665736e-02 -5.8275283891867868e-01 +5.8239285971160033e-03
-2.0500000000000007e+00 +8.2848830359751577e+00 +0.0000000000000000e+00 -2.0499999955508730e+00 -2.9796093284686555e-02 -5.8276669585325258e-01 +5.8242451652880112e-03
-2.1000000000000005e+00 +8.2848772603098713e+00 +0.0000000000000000e+00 -2.0999999952172739e+00 -2.9796809894243406e-02 -5.8278086545556873e-01 +5.8245670767935751e-03
-2.1500000000000004e+00 +8.2848713454220722e+00 +0.0000000000000000e+00 -2.1499999948673989e+00 -2.9797542730462454e-02 -5.8279534596012750e-01 +5.8248942853768000e-03
-2.2000000000000002e+00 +8.2848652913083001e+00 +0.0000000000000000e+00 -2.1999999945008599e+00 -2.9798291698470800e-02 -5.8281013560144168e-01 +5.8252267447819446e-03
-2.2500000000000000e+00 +8.2848590979650236e+00 +0.0000000000000000e+00 -2.2499999941172688e+00 -2.9799056703396512e-02 -5.8282523261403341e-01 +5.8255644087534062e-03
-2.2999999999999998e+00 +8.2848527653886350e+00 +0.0000000000000000e+00 -2.2999999937162374e+00 -2.9799837650368612e-02 -5.8284063523243712e-01 +5.8259072310357513e-03
-2.3499999999999996e+00 +8.2848462935754554e+00 +0.0000000000000000e+00 -2.3499999932973776e+00 -2.9800634444517068e-02 -5.8285634169119760e-01 +5.8262551653736798e-03
-2.3999999999999995e+00 +8.2848396825217332e+00 +0.0000000000000000e+00 -2.3999999928603013e+00 -2.9801446990972813e-02 -5.8287235022487061e-01 +5.8266081655120525e-03
-2.4499999999999993e+00 +8.2848329322236438e+00 +0.0000000000000000e+00 -2.4499999924046199e+00 -2.9802275194867712e-02 -5.8288865906802190e-01 +5.8269661851958702e-03
-2.4999999999999991e+00 +8.2848260426772917e+00 +0.0000000000000000e+00 -2.4999999919299452e+00 -2.9803118961334595e-02 -5.8290526645522867e-01 +5.8273291781702910e-03
-2.5499999999999989e+00 +8.2848190138787086e+00 +0.0000000000000000e+00 -2.5499999914358891e+00 -2.9803978195507164e-02 -5.8292217062107710e-01 +5.8276970981806057e-03
-2.5999999999999988e+00 +8.2848118458238567e+00 +0.0000000000000000e+00 -2.5999999909220630e+00 -2.9804852802520140e-02 -5.8293936980016425e-01 +5.8280698989722698e-03
-2.6499999999999986e+00 +8.2848045385086273e+00 +0.0000000000000000e+00 -2.6499999903880784e+00 -2.9805742687509081e-02 -5.8295686222709697e-01 +5.8284475342908690e-03
-2.6999999999999984e+00 +8.2847970919288425e+00 +0.0000000000000000e+00 -2.6999999898335467e+00 -2.9806647755610555e-02 -5.8297464613649186e-01 +5.8288299578821432e-03
-2.7499999999999982e+00 +8.2847895060802514e+00 +0.0000000000000000e+00 -2.7499999892580798e+00 -2.9807567911961992e-02 -5.8299271976297540e-01 +5.8292171234919721e-03
-2.7999999999999980e+00 +8.2847817809585393e+00 +0.0000000000000000e+00 -2.7999999886612885e+00 -2.9808503061701748e-02 -5.8301108134118307e-01 +5.8296089848663838e-03
-2.8499999999999979e+00 +8.2847739165593186e+00 +0.0000000000000000e+00 -2.8499999880427844e+00 -2.9809453109969110e-02 -5.8302972910576012e-01 +5.8300054957515415e-03
-2.8999999999999977e+00 +8.2847659128781341e+00 +0.0000000000000000e+00 -2.8999999874021793e+00 -2.9810417961904246e-02 -5.8304866129136079e-01 +5.8304066098937603e-03
-2.9499999999999975e+00 +8.2847577699104633e+00 +0.0000000000000000e+00 -2.9499999867390838e+00 -2.9811397522648265e-02 -5.8306787613264843e-01 +5.8308122810394889e-03
-2.9999999999999973e+00 +8.2847494876517178e+00 +0.0000000000000000e+00 -2.9999999860531097e+00 -2.9812391697343114e-02 -5.8308737186429482e-01 +5.8312224629353216e-03
-3.0499999999999972e+00 +8.2847410660972383e+00 +0.0000000000000000e+00 -3.0499999853438675e+00 -2.9813400391131697e-02 -5.8310714672098141e-01 +5.8316371093279926e-03
-3.0999999999999970e+00 +8.2847325052423013e+00 +0.0000000000000000e+00 -3.0999999846109692e+00 -2.9814423509157771e-02 -5.8312719893739773e-01 +5.8320561739643719e-03
-3.1499999999999968e+00 +8.2847238050821161e+00 +0.0000000000000000e+00 -3.1499999838540251e+00 -2.9815460956565992e-02 -5.8314752674824144e-01 +5.8324796105914765e-03
-3.1999999999999966e+00 +8.2847149656118280e+00 +0.0000000000000000e+00 -3.1999999830726464e+00 -2.9816512638501907e-02 -5.8316812838821896e-01 +5.8329073729564505e-03
-3.2499999999999964e+00 +8.2847059868265145e+00 +0.0000000000000000e+00 -3.2499999822664445e+00 -2.9817578460111925e-02 -5.8318900209204450e-01 +5.8333394148065848e-03
-3.2999999999999963e+00 +8.2846968687211895e+00 +0.0000000000000000e+00 -3.2999999814350298e+00 -2.9818658326543332e-02 -5.8321014609444022e-01 +5.8337756898893022e-03
-3.3499999999999961e+00 +8.2846876112908010e+00 +0.0000000000000000e+00 -3.3499999805780134e+00 -2.9819752142944307e-02 -5.8323155863013687e-01 +5.8342161519521632e-03
-3.3999999999999959e+00 +8.2846782145302349e+00 +0.0000000000000000e+00 -3.3999999796950062e+00 -2.9820859814463859e-02 -5.8325323793387163e-01 +5.8346607547428639e-03
-3.4499999999999957e+00 +8.2846686784343131e+00 +0.0000000000000000e+00 -3.4499999787856188e+00 -2.9821981246251884e-02 -5.8327518224039021e-01 +5.8351094520092371e-03
-3.4999999999999956e+00 +8.2846590029977918e+00 +0.0000000000000000e+00 -3.4999999778494617e+00 -2.9823116343459136e-02 -5.8329738978444534e-01 +5.8355621974992469e-03
-3.5499999999999954e+00 +8.2846491882153650e+00 +0.0000000000000000e+00 -3.5499999768861459e+00 -2.9824265011237205e-02 -5.8331985880079684e-01 +5.8360189449609889e-03
-3.5999999999999952e+00 +8.2846392340816664e+00 +0.0000000000000000e+00 -3.5999999758952819e+00 -2.9825427154738550e-02 -5.8334258752421175e-01 +5.8364796481426987e-03
-3.6499999999999950e+00 +8.2846291405912673e+00 +0.0000000000000000e+00 -3.6499999748764802e+00 -2.9826602679116462e-02 -5.8336557418946389e-01 +5.8369442607927357e-03
-3.6999999999999948e+00 +8.2846189077386754e+00 +0.0000000000000000e+00 -3.6999999738293514e+00 -2.9827791489525080e-02 -5.8338881703133438e-01 +5.8374127366595972e-03
-3.7499999999999947e+00 +8.2846085355183376e+00 +0.0000000000000000e+00 -3.7499999727535056e+00 -2.9828993491119369e-02 -5.8341231428461016e-01 +5.8378850294919082e-03
-3.7999999999999945e+00 +8.2845980239246426e+00 +0.0000000000000000e+00 -3.7999999716485533e+00 -2.9830208589055142e-02 -5.8343606418408445e-01 +5.8383610930384262e-03
-3.8499999999999943e+00 +8.2845873729519148e+00 +0.0000000000000000e+00 -3.8499999705141050e+00 -2.9831436688489050e-02 -5.8346006496455871e-01 +5.8388408810480345e-03
-3.8999999999999941e+00 +8.2845765825944220e+00 +0.0000000000000000e+00 -3.8999999693497709e+00 -2.9832677694578556e-02 -5.8348431486083818e-01 +5.8393243472697476e-03
-3.9499999999999940e+00 +8.2845656528463696e+00 +0.0000000000000000e+00 -3.9499999681551610e+00 -2.9833931512481923e-02 -5.8350881210773531e-01 +5.8398114454527089e-03
-3.9999999999999938e+00 +8.2845545837019081e+00 +0.0000000000000000e+00 -3.9999999669298854e+00 -2.9835198047358253e-02 -5.8353355494006842e-01 +5.8403021293461851e-03
-4.0499999999999936e+00 +8.2845433751551241e+00 +0.0000000000000000e+00 -4.0499999656735541e+00 -2.9836477201381256e-02 -5.8355854144127994e-01 +5.8407963594008195e-03
-4.0999999999999934e+00 +8.2845320272000507e+00 +0.0000000000000000e+00 -4.0999999643857770e+00 -2.9837768864779922e-02 -5.8358376908929110e-01 +5.8412941228723932e-03
-4.1499999999999932e+00 +8.2845205398306607e+00 +0.0000000000000000e+00 -4.1499999630661639e+00 -2.9839072924796223e-02 -5.8360923521064301e-01 +5.8417954137181469e-03
-4.1999999999999931e+00 +8.2845089130408702e+00 +0.0000000000000000e+00 -4.1999999617143251e+00 -2.9840389268671084e-02 -5.8363493713187820e-01 +5.8423002258954993e-03
-4.2499999999999929e+00 +8.2844971468245383e+00 +0.0000000000000000e+00 -4.2499999603298706e+00 -2.9841717783644368e-02 -5.8366087217954032e-01 +5.8428085533620529e-03
-4.2999999999999927e+00 +8.2844852411754708e+00 +0.0000000000000000e+00 -4.2999999589124096e+00 -2.9843058356954773e-02 -5.8368703768017371e-01 +5.8433203900756037e-03
-4.3499999999999925e+00 +8.2844731960874167e+00 +0.0000000000000000e+00 -4.3499999574615522e+00 -2.9844410875839830e-02 -5.8371343096032302e-01 +5.8438357299941297e-03
-4.3999999999999924e+00 +8.2844610115540718e+00 +0.0000000000000000e+00 -4.3999999559769076e+00 -2.9845775227535787e-02 -5.8374004934653312e-01 +5.8443545670758025e-03
-4.4499999999999922e+00 +8.2844486875690766e+00 +0.0000000000000000e+00 -4.4499999544580850e+00 -2.9847151299277588e-02 -5.8376689016534966e-01 +5.8448768952789817e-03
-4.4999999999999920e+00 +8.2844362241260185e+00 +0.0000000000000000e+00 -4.4999999529046946e+00 -2.9848538978298811e-02 -5.8379395074331653e-01 +5.8454027085622163e-03
-4.5499999999999918e+00 +8.2844236212184335e+00 +0.0000000000000000e+00 -4.5499999513163454e+00 -2.9849938151831582e-02 -5.8382122840697848e-01 +5.8459320008842500e-03
-4.5999999999999917e+00 +8.2844108788398056e+00 +0.0000000000000000e+00 -4.5999999496926467e+00 -2.9851348707106599e-02 -5.8384872048287839e-01 +5.8464647662040195e-03
-4.6499999999999915e+00 +8.2843979969835662e+00 +0.0000000000000000e+00 -4.6499999480332086e+00 -2.9852770531352924e-02 -5.8387642429755848e-01 +5.8470009984806547e-03
-4.6999999999999913e+00 +8.2843849756430981e+00 +0.0000000000000000e+00 -4.6999999463376394e+00 -2.9854203511798100e-02 -5.8390433717755930e-01 +5.8475406916734815e-03
-4.7499999999999911e+00 +8.2843718148117347e+00 +0.0000000000000000e+00 -4.7499999446055483e+00 -2.9855647535667971e-02 -5.8393245644942038e-01 +5.8480838397420281e-03
-4.7999999999999909e+00 +8.2843585144827561e+00 +0.0000000000000000e+00 -4.7999999428365445e+00 -2.9857102490186655e-02 -5.8396077943967850e-01 +5.8486304366460089e-03
-4.8499999999999908e+00 +8.2843450746493978e+00 +0.0000000000000000e+00 -4.8499999410302372e+00 -2.9858568262576511e-02 -5.8398930347486888e-01 +5.8491804763453432e-03
-4.8999999999999906e+00 +8.2843314953048459e+00 +0.0000000000000000e+00 -4.8999999391862348e+00 -2.9860044740058052e-02 -5.8401802588152363e-01 +5.8497339528001549e-03
-4.9499999999999904e+00 +8.2843177764422382e+00 +0.0000000000000000e+00 -4.9499999373041463e+00 -2.9861531809849903e-02 -5.8404694398617252e-01 +5.8502908599707606e-03
-4.9999999999999902e+00 +8.2843039180546665e+00 +0.0000000000000000e+00 -4.9999999353835811e+00 -2.9863029359168757e-02 -5.8407605511534255e-01 +5.8508511918176813e-03
-5.0499999999999901e+00 +8.2842899201351763e+00 +0.0000000000000000e+00 -5.0499999334241474e+00 -2.9864537275229266e-02 -5.8410535659555740e-01 +5.8514149423016457e-03
-5.0999999999999899e+00 +8.2842757826767688e+00 +0.0000000000000000e+00 -5.0999999314254536e+00 -2.9866055445244032e-02 -5.8413484575333641e-01 +5.8519821053835833e-03
-5.1499999999999897e+00 +8.2842615056723989e+00 +0.0000000000000000e+00 -5.1499999293871088e+00 -2.9867583756423514e-02 -5.8416451991519569e-01 +5.8525526750246217e-03
-5.1999999999999895e+00 +8.2842470891149773e+00 +0.0000000000000000e+00 -5.1999999273087214e+00 -2.9869122095976041e-02 -5.8419437640764771e-01 +5.8531266451861104e-03
-5.2499999999999893e+00 +8.2842325329973718e+00 +0.0000000000000000e+00 -5.2499999251898997e+00 -2.9870670351107648e-02 -5.8422441255719948e-01 +5.8537040098295889e-03
-5.2999999999999892e+00 +8.2842178373124078e+00 +0.0000000000000000e+00 -5.2999999230302519e+00 -2.9872228409022091e-02 -5.8425462569035469e-01 +5.8542847629168221e-03
-5.3499999999999890e+00 +8.2842030020528679e+00 +0.0000000000000000e+00 -5.3499999208293865e+00 -2.9873796156920790e-02 -5.8428501313361125e-01 +5.8548688984097711e-03
-5.3999999999999888e+00 +8.2841880272114921e+00 +0.0000000000000000e+00 -5.3999999185869116e+00 -2.9875373482002712e-02 -5.8431557221346175e-01 +5.8554564102706137e-03
-5.4499999999999886e+00 +8.2841729127809796e+00 +0.0000000000000000e+00 -5.4499999163024349e+00 -2.9876960271464373e-02 -5.8434630025639411e-01 +5.8560472924617385e-03
-5.4999999999999885e+00 +8.2841576587539905e+00 +0.0000000000000000e+00 -5.4999999139755653e+00 -2.9878556412499764e-02 -5.8437719458888993e-01 +5.8566415389457440e-03
-5.5499999999999883e+00 +8.2841422651231458e+00 +0.0000000000000000e+00 -5.5499999116059104e+00 -2.9880161792300290e-02 -5.8440825253742490e-01 +5.8572391436854474e-03
-5.5999999999999881e+00 +8.2841267318810257e+00 +0.0000000000000000e+00 -5.5999999091930777e+00 -2.9881776298054708e-02 -5.8443947142846897e-01 +5.8578401006438808e-03
-5.6499999999999879e+00 +8.2841110590201712e+00 +0.0000000000000000e+00 -5.6499999067366753e+00 -2.9883399816949038e-02 -5.8447084858848486e-01 +5.8584444037842846e-03
-5.6999999999999877e+00 +8.2840952465330862e+00 +0.0000000000000000e+00 -5.6999999042363116e+00 -2.9885032236166623e-02 -5.8450238134392929e-01 +5.8590520470701291e-03
-5.7499999999999876e+00 +8.2840792944122406e+00 +0.0000000000000000e+00 -5.7499999016915941e+00 -2.9886673442887899e-02 -5.8453406702125088e-01 +5.8596630244650873e-03
-5.7999999999999874e+00 +8.2840632026500618e+00 +0.0000000000000000e+00 -5.7999998991021293e+00 -2.9888323324290443e-02 -5.8456590294689170e-01 +5.8602773299330640e-03
-5.8499999999999872e+00 +8.2840469712389471e+00 +0.0000000000000000e+00 -5.8499998964675255e+00 -2.9889981767548951e-02 -5.8459788644728639e-01 +5.8608949574381810e-03
