# multipoles
# s[mm] polynom_b[n=0][T/m^n] polynom_b[n=1][T/m^n] polynom_b[n=2][T/m^n] polynom_b[n=3][T/m^n] polynom_b[n=4][T/m^n] polynom_b[n=5][T/m^n] polynom_b[n=6][T/m^n] 
+0.0000000000000000e+00 -5.5333653296282270e-01 +7.2205318802029312e+00 +6.6736442620832186e+00 -4.5251695004908854e+01 -1.5539319688461306e+04 -1.6953886477688176e+05 +8.3084432741066068e+07 
-5.0000000000000003e-02 -5.5334012802247601e-01 +7.2207080174784837e+00 +6.6690222073081245e+00 -4.5737974557626160e+01 -1.5541319343946883e+04 -1.6618908888617455e+05 +8.3221579034568638e+07 
-1.0000000000000001e-01 -5.5334412411642342e-01 +7.2209051187708351e+00 +6.6640351530857762e+00 -4.6207048624186697e+01 -1.5545701195720376e+04 -1.6289796521614818e+05 +8.3373870585994676e+07 
-1.5000000000000002e-01 -5.5334852017888059e-01 +7.2211231172517394e+00 +6.6586868098724246e+00 -4.6658965123168109e+01 -1.5552445218087736e+04 -1.5966611395606014e+05 +8.3540947877607763e+07 
-2.0000000000000001e-01 -5.5335331514406882e-01 +7.2213619460917080e+00 +6.6529808865760423e+00 -4.7093771889383490e+01 -1.5561531351409300e+04 -1.5649415601234272e+05 +8.3722451191220373e+07 
-2.5000000000000000e-01 -5.5335850794623787e-01 +7.2216215384628359e+00 +6.6469210933443872e+00 -4.7511516803992663e+01 -1.5572939562797888e+04 -1.5338271186232410e+05 +8.3918020961192459e+07 
-2.9999999999999999e-01 -5.5336409751964510e-01 +7.2219018275364641e+00 +6.6405111390329861e+00 -4.7912247680580968e+01 -1.5586649791779328e+04 -1.5033240257982968e+05 +8.4127297463015109e+07 
-3.4999999999999998e-01 -5.5337008279857758e-01 +7.2222027464848484e+00 +6.6337547340678125e+00 -4.8296012349816706e+01 -1.5602642014524992e+04 -1.4734384906131218e+05 +8.4349921194881275e+07 
-3.9999999999999997e-01 -5.5337646271733609e-01 +7.2225242284819844e+00 +6.6266555884690987e+00 -4.8662858679811279e+01 -1.5620896201997251e+04 -1.4441767192592160e+05 +8.4585532642226428e+07 
-4.4999999999999996e-01 -5.5338323621022345e-01 +7.2228662067005542e+00 +6.6192174092976490e+00 -4.9012834466862877e+01 -1.5641392243505787e+04 -1.4155449234041551e+05 +8.4833771731622055e+07 
-4.9999999999999994e-01 -5.5339040221159186e-01 +7.2232286143144648e+00 +6.6114439095614976e+00 -4.9345987526482745e+01 -1.5664110192437502e+04 -1.3875493132317913e+05 +8.5094279508110046e+07 
-5.4999999999999993e-01 -5.5339795965577854e-01 +7.2236113844975698e+00 +6.6033387961124950e+00 -4.9662365646881511e+01 -1.5689029931914409e+04 -1.3601961010462465e+05 +8.5366695850215286e+07 
-5.9999999999999998e-01 -5.5340590747715090e-01 +7.2240144504257966e+00 +6.5949057783880907e+00 -4.9962016679864334e+01 -1.5716131419962896e+04 -1.3334914937656553e+05 +8.5650661161201924e+07 
-6.5000000000000002e-01 -5.5341424461009747e-01 +7.2244377452759485e+00 +6.5861485662276094e+00 -5.0244988485293469e+01 -1.5745394624891125e+04 -1.3074416975474608e+05 +8.5945815913651749e+07 
-7.0000000000000007e-01 -5.5342296998901797e-01 +7.2248812022224307e+00 +6.5770708685431245e+00 -5.0511328797793936e+01 -1.5776799487582828e+04 -1.2820529288743153e+05 +8.6251800378641650e+07 
-7.5000000000000011e-01 -5.5343208254833709e-01 +7.2253447544408429e+00 +6.5676763956401745e+00 -5.0761085389209832e+01 -1.5810325991797385e+04 -1.2573314005286386e+05 +8.6568255141516715e+07 
-8.0000000000000016e-01 -5.5344158122248555e-01 +7.2258283351098473e+00 +6.5579688558487401e+00 -5.0994306116341377e+01 -1.5845954065528485e+04 -1.2332833187876134e+05 +8.6894820397139505e+07 
-8.5000000000000020e-01 -5.5345146494591646e-01 +7.2263318774054621e+00 +6.5479519583897385e+00 -5.1211038719659733e+01 -1.5883663662504923e+04 -1.2099148987521246e+05 +8.7231136521976754e+07 
-9.0000000000000024e-01 -5.5346173265309995e-01 +7.2268553145046015e+00 +6.5376294126687506e+00 -5.1411330945724700e+01 -1.5923434742420155e+04 -1.1872323551429654e+05 +8.7576843934876636e+07 
-9.5000000000000029e-01 -5.5347238327851656e-01 +7.2273985795864339e+00 +6.5270049269661712e+00 -5.1595230614749156e+01 -1.5965247235591691e+04 -1.1652418962944757e+05 +8.7931582859521613e+07 
-1.0000000000000002e+00 -5.5348341575666915e-01 +7.2279616058293845e+00 +6.5160822104577818e+00 -5.1762785496361879e+01 -1.6009081095759910e+04 -1.1439497343514719e+05 +8.8294993673441365e+07 
-1.0500000000000003e+00 -5.5349482902208358e-01 +7.2285443264103737e+00 +6.5048649733393606e+00 -5.1914043269326939e+01 -1.6054916304390255e+04 -1.1233620890891734e+05 +8.8666716942452461e+07 
-1.1000000000000003e+00 -5.5350662200927614e-01 +7.2291466745096811e+00 +6.4933569212700641e+00 -5.2049051741504847e+01 -1.6102732720893642e+04 -1.1034851688819526e+05 +8.9046392408963248e+07 
-1.1500000000000004e+00 -5.5351879365281187e-01 +7.2297685833073073e+00 +6.4815617658228932e+00 -5.2167858680367445e+01 -1.6152510367511724e+04 -1.0843251854770715e+05 +8.9433660926241532e+07 
-1.2000000000000004e+00 -5.5353134288726213e-01 +7.2304099859805024e+00 +6.4694832165913496e+00 -5.2270511723021713e+01 -1.6204229210302236e+04 -1.0658883610416041e+05 +8.9828162956232145e+07 
-1.2500000000000004e+00 -5.5354426864719453e-01 +7.2310708157104306e+00 +6.4571249800222557e+00 -5.2357058648878343e+01 -1.6257869135711479e+04 -1.0481809055775049e+05 +9.0229538445161492e+07 
-1.3000000000000005e+00 -5.5355756986721216e-01 +7.2317510056773999e+00 +6.4444907650629517e+00 -5.2427547182750082e+01 -1.6313410088974331e+04 -1.0312090333438835e+05 +9.0637427700849935e+07 
-1.3500000000000005e+00 -5.5357124548193026e-01 +7.2324504890632193e+00 +6.4315842810907196e+00 -5.2482025089803315e+01 -1.6370832037528482e+04 -1.0149789550778702e+05 +9.1051471221746892e+07 
-1.4000000000000006e+00 -5.5358529442597870e-01 +7.2331691990447373e+00 +6.4184092366898948e+00 -5.2520539919913062e+01 -1.6430114923884150e+04 -9.9949689856585843e+04 +9.1471309324210376e+07 
-1.4500000000000006e+00 -5.5359971563400157e-01 +7.2339070688062446e+00 +6.4049693401954988e+00 -5.2543139501720795e+01 -1.6491238682279985e+04 -9.8476906867066864e+04 +9.1896582261613473e+07 
-1.5000000000000007e+00 -5.5361450804065548e-01 +7.2346640315270880e+00 +6.3912682992675940e+00 -5.2549871453603110e+01 -1.6554183230990431e+04 -9.7080168678749353e+04 +9.2326930189801052e+07 
-1.5500000000000007e+00 -5.5362967058061940e-01 +7.2354400203883937e+00 +6.3773098230243033e+00 -5.2540783442405605e+01 -1.6618928527929231e+04 -9.5760097027736032e+04 +9.2761993530451432e+07 
-1.6000000000000008e+00 -5.5364520218858815e-01 +7.2362349685733403e+00 +6.3630976203541030e+00 -5.2515923202524469e+01 -1.6685454525087825e+04 -9.4517313043697271e+04 +9.3201412669775471e+07 
-1.6500000000000008e+00 -5.5366110179926020e-01 +7.2370488092625678e+00 +6.3486353985666621e+00 -5.2475338354098341e+01 -1.6753741133984124e+04 -9.3352438743670995e+04 +9.3644827723305181e+07 
-1.7000000000000008e+00 -5.5367736834736014e-01 +7.2378814756359766e+00 +6.3339268659139654e+00 -5.2419076470682604e+01 -1.6823768287034080e+04 -9.2266096476115665e+04 +9.4091878936878771e+07 
-1.7500000000000009e+00 -5.5369400076762676e-01 +7.2387329008805565e+00 +6.3189757313928627e+00 -5.2347185390481037e+01 -1.6895515941175508e+04 -9.1258906422803368e+04 +9.4542206733013317e+07 
-1.8000000000000009e+00 -5.5371099799481027e-01 +7.2396030181736171e+00 +6.3037857030291420e+00 -5.2259712564477738e+01 -1.6968964028948372e+04 -9.0331491789667780e+04 +9.4995451380241156e+07 
-1.8500000000000010e+00 -5.5372835896366635e-01 +7.2404917606992871e+00 +6.2883604867850229e+00 -5.2156705676196800e+01 -1.7044092421932357e+04 -8.9484473969059065e+04 +9.5451252713482812e+07 
-1.9000000000000010e+00 -5.5374608260898739e-01 +7.2413990616397683e+00 +6.2727037931244860e+00 -5.2038212343121984e+01 -1.7120881117781184e+04 -8.8718474732965609e+04 +9.5909251434683383e+07 
-1.9500000000000011e+00 -5.5376416786556359e-01 +7.2423248541768661e+00 +6.2568193290678114e+00 -5.1904280141310501e+01 -1.7199310023180249e+04 -8.8034116187761174e+04 +9.6369087644709870e+07 
-2.0000000000000009e+00 -5.5378261366820880e-01 +7.2432690714946224e+00 +6.2407108030484659e+00 -5.1754956723474677e+01 -1.7279359076087032e+04 -8.7432019764364624e+04 +9.6830401625268921e+07 
-2.0500000000000007e+00 -5.5380141871113997e-01 +7.2442316332229897e+00 +6.2243800790757318e+00 -5.1590382713701892e+01 -1.7360981398737258e+04 -8.6912169065558846e+04 +9.7292766475941226e+07 
-2.1000000000000005e+00 -5.5382058072635520e-01 +7.2452123985881309e+00 +6.2078220622649720e+00 -5.1411038077790721e+01 -1.7444021575495870e+04 -8.6472402787869010e+04 +9.7755478400114208e+07 
-2.1500000000000004e+00 -5.5384009720529137e-01 +7.2462112101672860e+00 +6.1910300210834341e+00 -5.1217480188431381e+01 -1.7528296476707932e+04 -8.6110125712781781e+04 +9.8217760914110467e+07 
-2.2000000000000002e+00 -5.5385996563941298e-01 +7.2472279105398583e+00 +6.1739972262307479e+00 -5.1010266494098978e+01 -1.7613623026451060e+04 -8.5822742012969451e+04 +9.8678837874528244e+07 
-2.2500000000000000e+00 -5.5388018352021051e-01 +7.2482623422834571e+00 +6.1567169517549489e+00 -5.0789954349409363e+01 -1.7699818247632196e+04 -8.5607656663425398e+04 +9.9137933837844819e+07 
-2.2999999999999998e+00 -5.5390074833915237e-01 +7.2493143479783093e+00 +6.1391824650865061e+00 -5.0557101207915473e+01 -1.7786698978065728e+04 -8.5462273806662488e+04 +9.9594272088129222e+07 
-2.3499999999999996e+00 -5.5392165758774381e-01 +7.2503837702030971e+00 +6.1213870383728759e+00 -5.0312264430386875e+01 -1.7874082182976628e+04 -8.5383998406147366e+04 +1.0004707676847072e+08 
-2.3999999999999995e+00 -5.5394290875749153e-01 +7.2514704515388368e+00 +6.1033239422229206e+00 -5.0056001470446347e+01 -1.7961784789249483e+04 -8.5370234633369793e+04 +1.0049557177783856e+08 
-2.4499999999999993e+00 -5.5396449933991709e-01 +7.2525742345657189e+00 +6.0849864480068758e+00 -4.9788869728261211e+01 -1.8049623741985146e+04 -8.5418387130637348e+04 +1.0093898112682350e+08 
-2.4999999999999991e+00 -5.5398642682654708e-01 +7.2536949618669402e+00 +6.0663678256666911e+00 -4.9511426710103230e+01 -1.8137415944738495e+04 -8.5525859690066427e+04 +1.0137652853832722e+08 
-2.5499999999999989e+00 -5.5400868870893083e-01 +7.2548324760258396e+00 +6.0474613480452000e+00 -4.9224229918216345e+01 -1.8224978383967235e+04 -8.5690056141801615e+04 +1.0180743830936109e+08 
-2.5999999999999988e+00 -5.5403128247860389e-01 +7.2559866196249203e+00 +6.0282602831012850e+00 -4.8927836791385417e+01 -1.8312127909379207e+04 -8.5908380910041247e+04 +1.0223093379943001e+08 
-2.6499999999999986e+00 -5.5405420562713426e-01 +7.2571572352470586e+00 +6.0087579032527243e+00 -4.8622804793485322e+01 -1.8398681494267476e+04 -8.6178238145690499e+04 +1.0264623921373516e+08 
-2.6999999999999984e+00 -5.5407745564609967e-01 +7.2583441654795529e+00 +5.9889474804977629e+00 -4.8309691532082141e+01 -1.8484456093888799e+04 -8.6497030930080349e+04 +1.0305257860947612e+08 
-2.7499999999999982e+00 -5.5410103002707378e-01 +7.2595472529075105e+00 +5.9688222849580770e+00 -4.7989054521790329e+01 -1.8569268619907361e+04 -8.6862163096801334e+04 +1.0344917577955969e+08 
-2.7999999999999980e+00 -5.5412492626164245e-01 +7.2607663401168887e+00 +5.9483755867581207e+00 -4.7661451292505525e+01 -1.8652935975986522e+04 -8.7271038408838271e+04 +1.0383525443139827e+08 
-2.8499999999999979e+00 -5.5414914184141051e-01 +7.2620012696958254e+00 +5.9276006585804915e+00 -4.7327439456936013e+01 -1.8735275142845872e+04 -8.7721059943851491e+04 +1.0421003882530877e+08 
-2.8999999999999977e+00 -5.5417367425798159e-01 +7.2632518842336022e+00 +5.9064907703467204e+00 -4.6987576653206084e+01 -1.8816103015900091e+04 -8.8209630640305360e+04 +1.0457275260489079e+08 
-2.9499999999999975e+00 -5.5419852100296796e-01 +7.2645180263176039e+00 +5.8850391928364783e+00 -4.6642420431621119e+01 -1.8895236520711213e+04 -8.8734154181110018e+04 +1.0492261964526944e+08 
-2.9999999999999973e+00 -5.5422367956799512e-01 +7.2657995385391825e+00 +5.8632391972098556e+00 -4.6292528492050529e+01 -1.8972492587671772e+04 -8.9292033053025618e+04 +1.0525886383425435e+08 
-3.0499999999999972e+00 -5.5424914744470011e-01 +7.2670962634894192e+00 +5.8410840557012094e+00 -4.5938458509228596e+01 -1.9047688178682878e+04 -8.9880669997901903e+04 +1.0558070928334416e+08 
-3.0999999999999970e+00 -5.5427492212472074e-01 +7.2684080437594725e+00 +5.8185670389259982e+00 -4.5580768144889518e+01 -1.9120640207453591e+04 -9.0497467919276503e+04 +1.0588737976105410e+08 
-3.1499999999999968e+00 -5.5430100109970326e-01 +7.2697347219428305e+00 +5.7956814180077227e+00 -4.5220015143679433e+01 -1.9191165605476508e+04 -9.1139829076761540e+04 +1.0617809917557369e+08 
-3.1999999999999966e+00 -5.5432738186130637e-01 +7.2710761406339293e+00 +5.7724204643850650e+00 -4.4856757282628834e+01 -1.9259081303853174e+04 -9.1805155490267556e+04 +1.0645209139832939e+08 
-3.2499999999999964e+00 -5.5435406190117809e-01 +7.2724321424263660e+00 +5.7487774470243842e+00 -4.4491552287420269e+01 -1.9324204172765727e+04 -9.2490849670421987e+04 +1.0670857991113549e+08 
-3.2999999999999963e+00 -5.5438103871100763e-01 +7.2738025699173585e+00 +5.7247456408243336e+00 -4.4124958013197400e+01 -1.9386351241899716e+04 -9.3194313138433135e+04 +1.0694678927652773e+08 
-3.3499999999999961e+00 -5.5440830978246525e-01 +7.2751872657025540e+00 +5.7003183157673831e+00 -4.3757532251470636e+01 -1.9445339400178560e+04 -9.3912947937540564e+04 +1.0716594307180332e+08 
-3.3999999999999959e+00 -5.5443587260723026e-01 +7.2765860723819600e+00 +5.6754887428366505e+00 -4.3389832946537972e+01 -1.9500985570195982e+04 -9.4644154969921103e+04 +1.0736526513280569e+08 
-3.4499999999999957e+00 -5.5446372467699490e-01 +7.2779988325524538e+00 +5.6502501939733598e+00 -4.3022417917444656e+01 -1.9553106694552578e+04 -9.5385336163645552e+04 +1.0754397940621249e+08 
-3.4999999999999956e+00 -5.5449186348345514e-01 +7.2794253888144542e+00 +5.6245959405826209e+00 -4.2655845099692485e+01 -1.9601519700226534e+04 -9.6133892616556972e+04 +1.0770130973289542e+08 
-3.5499999999999954e+00 -5.5452028651832219e-01 +7.2808655837702272e+00 +5.5985192560201895e+00 -4.2290672507580219e+01 -1.9646041566823453e+04 -9.6887224785013270e+04 +1.0783648030969593e+08 
-3.5999999999999952e+00 -5.5454899127328194e-01 +7.2823192600224633e+00 +5.5720134082580106e+00 -4.1927458147601357e+01 -1.9686489128853696e+04 -9.7642733304908761e+04 +1.0794871435580875e+08 
-3.6499999999999950e+00 -5.5457797524005903e-01 +7.2837862601719969e+00 +5.5450716709917458e+00 -4.1566759953544519e+01 -1.9722679371409395e+04 -9.8397819417274251e+04 +1.0803723609448227e+08 
-3.6999999999999948e+00 -5.5460723591038841e-01 +7.2852664268259835e+00 +5.5176873190110634e+00 -4.1209136100823137e+01 -1.9754429307927785e+04 -9.9149882472253172e+04 +1.0810126993698478e+08 
-3.7499999999999947e+00 -5.5463677077596962e-01 +7.2867596025894485e+00 +5.4898536197878895e+00 -4.0855144655050296e+01 -1.9781555753311273e+04 -9.9896322845635048e+04 +1.0814003895332111e+08 
-3.7999999999999945e+00 -5.5466657732853786e-01 +7.2882656300697475e+00 +5.4615638463528233e+00 -4.0505343787832096e+01 -1.9803875669554611e+04 -1.0063454001665259e+05 +1.0815276719689262e+08 
-3.8499999999999943e+00 -5.5469665305983518e-01 +7.2897843518730099e+00 +5.4328112729282081e+00 -4.0160291595358409e+01 -1.9821206056184888e+04 -1.0136193422567470e+05 +1.0813867899469663e+08 
-3.8999999999999941e+00 -5.5472699546159043e-01 +7.2913156106097672e+00 +5.4035891696110747e+00 -3.9820546348689192e+01 -1.9833363791066829e+04 -1.0207590433219165e+05 +1.0809699781854677e+08 
-3.9499999999999940e+00 -5.5475760202554747e-01 +7.2928592488935546e+00 +5.3738908089213631e+00 -3.9486666425193540e+01 -1.9840165818057230e+04 -1.0277384842909404e+05 +1.0802694758740979e+08 
-3.9999999999999938e+00 -5.5478847024344446e-01 +7.2944151093318368e+00 +5.3437094620154379e+00 -3.9159209952749826e+01 -1.9841429044673609e+04 -1.0345316665486555e+05 +1.0792775198190878e+08 
-4.0499999999999936e+00 -5.5481959755288224e-01 +7.2959830306330922e+00 +5.3130418854025567e+00 -3.8838719966066172e+01 -1.9837033040639471e+04 -1.0411104290426032e+05 +1.0779895839610380e+08 
-4.0999999999999934e+00 -5.5485098117518328e-01 +7.2975628314412866e+00 +5.2818990733538227e+00 -3.8525728136001099e+01 -1.9827110253808944e+04 -1.0474335382590919e+05 +1.0764140720788951e+08 
-4.1499999999999932e+00 -5.5488261827774243e-01 +7.2991543242702859e+00 +5.2502956829481935e+00 -3.8220776753492167e+01 -1.9811857155982329e+04 -1.0534552973941602e+05 +1.0745626291948488e+08 
-4.1999999999999931e+00 -5.5491450602795012e-01 +7.3007573216390220e+00 +5.2182463687931753e+00 -3.7924408347810676e+01 -1.9791470141318459e+04 -1.0591299899110326e+05 +1.0724468947726715e+08 
-4.2499999999999929e+00 -5.5494664159322460e-01 +7.3023716360603066e+00 +5.1857657915559754e+00 -3.7637165183787964e+01 -1.9766145773602650e+04 -1.0644119218007414e+05 +1.0700785198912336e+08 
-4.2999999999999927e+00 -5.5497902214095229e-01 +7.3039970800535556e+00 +5.1528686052068435e+00 -3.7359589813050448e+01 -1.9736080430114296e+04 -1.0692553752541942e+05 +1.0674691428377546e+08 
-4.3499999999999925e+00 -5.5501164483853993e-01 +7.3056334661308124e+00 +5.1195694677231156e+00 -3.7092224493341483e+01 -1.9701470598108404e+04 -1.0736146567707317e+05 +1.0646304093766132e+08 
-4.3999999999999924e+00 -5.5504450685338724e-01 +7.3072806068077316e+00 +5.0858830362248186e+00 -3.6835611635978395e+01 -1.9662512746027282e+04 -1.0774440604333975e+05 +1.0615739641651861e+08 
-4.4499999999999922e+00 -5.5507760535289297e-01 +7.3089383145987350e+00 +5.0518239670171470e+00 -3.6590293614871598e+01 -1.9619403309151803e+04 -1.0806978832472590e+05 +1.0583114491276692e+08 
-4.4999999999999920e+00 -5.5511093750447726e-01 +7.3106064020172710e+00 +5.0174069204205942e+00 -3.6356812776666779e+01 -1.9572338836561859e+04 -1.0833304244866807e+05 +1.0548545141448519e+08 
-4.5499999999999918e+00 -5.5514450047552910e-01 +7.3122846815754965e+00 +4.9826465518411363e+00 -3.6135711412612878e+01 -1.9521515745162062e+04 -1.0852959886307734e+05 +1.0512148001098265e+08 
-4.5999999999999917e+00 -5.5517829143346709e-01 +7.3139729657857178e+00 +4.9475575216691601e+00 -3.5927531841140969e+01 -1.9467130581432306e+04 -1.0865488775499804e+05 +1.0474039564886394e+08 
-4.6499999999999915e+00 -5.5521230754567930e-01 +7.3156710671599114e+00 +4.9121544856235548e+00 -3.5732816384692093e+01 -1.9409379770055599e+04 -1.0870433926599383e+05 +1.0434336246631262e+08 
-4.6999999999999913e+00 -5.5524654597957568e-01 +7.3173787982086704e+00 +4.8764521028650645e+00 -3.5552107309297803e+01 -1.9348459820835560e+04 -1.0867338406512522e+05 +1.0393154514477547e+08 
-4.7499999999999911e+00 -5.5528100390256341e-01 +7.3190959714421533e+00 +4.8404650334333361e+00 -3.5385946881925889e+01 -1.9284567276230177e+04 -1.0855745278297621e+05 +1.0350610861916880e+08 
-4.7999999999999909e+00 -5.5531567848204455e-01 +7.3208223993711252e+00 +4.8042079357036185e+00 -3.5234877406988282e+01 -1.9217898622120472e+04 -1.0835197577281957e+05 +1.0306821739630982e+08 
-4.8499999999999908e+00 -5.5535056688541162e-01 +7.3225578945030705e+00 +4.7676954678939829e+00 -3.5099441077685270e+01 -1.9148650347402334e+04 -1.0805238425670008e+05 +1.0261903602727422e+08 
-4.8999999999999906e+00 -5.5538566628006125e-01 +7.3243022693436961e+00 +4.7309422887734494e+00 -3.4980180009690343e+01 -1.9077018952831459e+04 -1.0765411019708072e+05 +1.0215972913220941e+08 
-4.9499999999999904e+00 -5.5542097383340217e-01 +7.3260553364028524e+00 +4.6939630599907041e+00 -3.4877636525515001e+01 -1.9003201013877610e+04 -1.0715258376449664e+05 +1.0169146182009487e+08 
-4.9999999999999902e+00 -5.5545648671282477e-01 +7.3278169081868052e+00 +4.6567724407591173e+00 -3.4792352803403773e+01 -1.8927393044029166e+04 -1.0654323638570073e+05 +1.0121539879582047e+08 
-5.0499999999999901e+00 -5.5549220208572037e-01 +7.3295867971990063e+00 +4.6193850907550544e+00 -3.4724870929625098e+01 -1.8849791563414859e+04 -1.0582150021694764e+05 +1.0073270478440692e+08 
