# trajectory
# s[mm] rx[mm] ry[mm] rz[mm] px[rad] py[rad] pz[rad]
0.0000000000000000e+00 +8.2850000000000001e+00 +0.0000000000000000e+00 +0.0000000000000000e+00 +0.0000000000000000e+00 +0.0000000000000000e+00 +1.0000000000000000e+00
-5.0000000000000003e-02 +8.2849999306178468e+00 +0.0000000000000000e+00 -4.9999999999935811e-02 +2.7752861410467036e-06 +0.0000000000000000e+00 +9.9999999999614886e-01
-1.0000000000000001e-01 +8.2849997224713672e+00 +0.0000000000000000e+00 -9.9999999999486514e-02 +5.5505733592194005e-06 +0.0000000000000000e+00 +9.9999999998459554e-01
-1.5000000000000002e-01 +8.2849993755604636e+00 +0.0000000000000000e+00 -1.4999999999826699e-01 +8.3258634275943526e-06 +0.0000000000000000e+00 +9.9999999996533995e-01
-2.0000000000000001e-01 +8.2849988898849478e+00 +0.0000000000000000e+00 -1.9999999999589213e-01 +1.1101158116438427e-05 +0.0000000000000000e+00 +9.9999999993838207e-01
-2.5000000000000000e-01 +8.2849982654445462e+00 +0.0000000000000000e+00 -2.4999999999197681e-01 +1.3876459193209182e-05 +0.0000000000000000e+00 +9.9999999990372190e-01
-2.9999999999999999e-01 +8.2849975022388929e+00 +0.0000000000000000e+00 -2.9999999998613591e-01 +1.6651768422554947e-05 +0.0000000000000000e+00 +9.9999999986135923e-01
-3.4999999999999998e-01 +8.2849966002675384e+00 +0.0000000000000000e+00 -3.4999999997798437e-01 +1.9427087566314902e-05 +0.0000000000000000e+00 +9.9999999981129406e-01
-3.9999999999999997e-01 +8.2849955595299427e+00 +0.0000000000000000e+00 -3.9999999996713698e-01 +2.2202418383519170e-05 +0.0000000000000000e+00 +9.9999999975352627e-01
-4.4999999999999996e-01 +8.2849943800254771e+00 +0.0000000000000000e+00 -4.4999999995320861e-01 +2.4977762630388895e-05 +0.0000000000000000e+00 +9.9999999968805564e-01
-4.9999999999999994e-01 +8.2849930617534273e+00 +0.0000000000000000e+00 -4.9999999993581412e-01 +2.7753122060336319e-05 +0.0000000000000000e+00 +9.9999999961488206e-01
-5.4999999999999993e-01 +8.2849916047129888e+00 +0.0000000000000000e+00 -5.4999999991456838e-01 +3.0528498423964878e-05 +0.0000000000000000e+00 +9.9999999953400531e-01
-5.9999999999999998e-01 +8.2849900089032733e+00 +0.0000000000000000e+00 -5.9999999988908626e-01 +3.3303893469069261e-05 +0.0000000000000000e+00 +9.9999999944542528e-01
-6.5000000000000002e-01 +8.2849882743233021e+00 +0.0000000000000000e+00 -6.4999999985898249e-01 +3.6079308940635516e-05 +0.0000000000000000e+00 +9.9999999934914163e-01
-7.0000000000000007e-01 +8.2849864009720093e+00 +0.0000000000000000e+00 -6.9999999982387195e-01 +3.8854746580841119e-05 +0.0000000000000000e+00 +9.9999999924515426e-01
-7.5000000000000011e-01 +8.2849843888482440e+00 +0.0000000000000000e+00 -7.4999999978336951e-01 +4.1630208129055046e-05 +0.0000000000000000e+00 +9.9999999913346282e-01
-8.0000000000000016e-01 +8.2849822379507678e+00 +0.0000000000000000e+00 -7.9999999973708991e-01 +4.4405695321837880e-05 +0.0000000000000000e+00 +9.9999999901406700e-01
-8.5000000000000020e-01 +8.2849799482782558e+00 +0.0000000000000000e+00 -8.4999999968464790e-01 +4.7181209892941855e-05 +0.0000000000000000e+00 +9.9999999888696656e-01
-9.0000000000000024e-01 +8.2849775198292939e+00 +0.0000000000000000e+00 -8.9999999962565824e-01 +4.9956753573310971e-05 +0.0000000000000000e+00 +9.9999999875216128e-01
-9.5000000000000029e-01 +8.2849749526023846e+00 +0.0000000000000000e+00 -9.4999999955973569e-01 +5.2732328091081046e-05 +0.0000000000000000e+00 +9.9999999860965072e-01
-1.0000000000000002e+00 +8.2849722465959417e+00 +0.0000000000000000e+00 -9.9999999948649487e-01 +5.5507935171579818e-05 +0.0000000000000000e+00 +9.9999999845943455e-01
-1.0500000000000003e+00 +8.2849694018082953e+00 +0.0000000000000000e+00 -1.0499999994055507e+00 +5.8283576537327012e-05 +0.0000000000000000e+00 +9.9999999830151232e-01
-1.1000000000000003e+00 +8.2849664182376870e+00 +0.0000000000000000e+00 -1.0999999993165177e+00 +6.1059253908034408e-05 +0.0000000000000000e+00 +9.9999999813588369e-01
-1.1500000000000004e+00 +8.2849632958822745e+00 +0.0000000000000000e+00 -1.1499999992190106e+00 +6.3834969000605950e-05 +0.0000000000000000e+00 +9.9999999796254835e-01
-1.2000000000000004e+00 +8.2849600347401289e+00 +0.0000000000000000e+00 -1.1999999991126442e+00 +6.6610723529137794e-05 +0.0000000000000000e+00 +9.9999999778150572e-01
-1.2500000000000004e+00 +8.2849566348092356e+00 +0.0000000000000000e+00 -1.2499999989970330e+00 +6.9386519204918401e-05 +0.0000000000000000e+00 +9.9999999759275549e-01
-1.3000000000000005e+00 +8.2849530960874951e+00 +0.0000000000000000e+00 -1.2999999988717914e+00 +7.2162357736428606e-05 +0.0000000000000000e+00 +9.9999999739629708e-01
-1.3500000000000005e+00 +8.2849494185727206e+00 +0.0000000000000000e+00 -1.3499999987365343e+00 +7.4938240829341705e-05 +0.0000000000000000e+00 +9.9999999719213006e-01
-1.4000000000000006e+00 +8.2849456022626420e+00 +0.0000000000000000e+00 -1.3999999985908760e+00 +7.7714170186523519e-05 +0.0000000000000000e+00 +9.9999999698025388e-01
-1.4500000000000006e+00 +8.2849416471549038e+00 +0.0000000000000000e+00 -1.4499999984344312e+00 +8.0490147508032505e-05 +0.0000000000000000e+00 +9.9999999676066809e-01
-1.5000000000000007e+00 +8.2849375532470635e+00 +0.0000000000000000e+00 -1.4999999982668144e+00 +8.3266174491119780e-05 +0.0000000000000000e+00 +9.9999999653337213e-01
-1.5500000000000007e+00 +8.2849333205365987e+00 +0.0000000000000000e+00 -1.5499999980876400e+00 +8.6042252830229233e-05 +0.0000000000000000e+00 +9.9999999629836545e-01
-1.6000000000000008e+00 +8.2849289490208964e+00 +0.0000000000000000e+00 -1.5999999978965225e+00 +8.8818384216997603e-05 +0.0000000000000000e+00 +9.9999999605564738e-01
-1.6500000000000008e+00 +8.2849244386972636e+00 +0.0000000000000000e+00 -1.6499999976930761e+00 +9.1594570340254521e-05 +0.0000000000000000e+00 +9.9999999580521737e-01
-1.7000000000000008e+00 +8.2849197895629221e+00 +0.0000000000000000e+00 -1.6999999974769155e+00 +9.4370812886022633e-05 +0.0000000000000000e+00 +9.9999999554707486e-01
-1.7500000000000009e+00 +8.2849150016150066e+00 +0.0000000000000000e+00 -1.7499999972476550e+00 +9.7147113537517628e-05 +0.0000000000000000e+00 +9.9999999528121919e-01
-1.8000000000000009e+00 +8.2849100748505720e+00 +0.0000000000000000e+00 -1.7999999970049088e+00 +9.9923473975148353e-05 +0.0000000000000000e+00 +9.9999999500764969e-01
-1.8500000000000010e+00 +8.2849050092665859e+00 +0.0000000000000000e+00 -1.8499999967482912e+00 +1.0269989587651685e-04 +0.0000000000000000e+00 +9.9999999472636569e-01
-1.9000000000000010e+00 +8.2848998048599327e+00 +0.0000000000000000e+00 -1.8999999964774166e+00 +1.0547638091641846e-04 +0.0000000000000000e+00 +9.9999999443736654e-01
-1.9500000000000011e+00 +8.2848944616274149e+00 +0.0000000000000000e+00 -1.9499999961918992e+00 +1.0825293076684189e-04 +0.0000000000000000e+00 +9.9999999414065144e-01
-2.0000000000000009e+00 +8.2848889795657481e+00 +0.0000000000000000e+00 -1.9999999958913532e+00 +1.1102954709696927e-04 +0.0000000000000000e+00 +9.9999999383621974e-01
-2.0500000000000007e+00 +8.2848833586715696e+00 +0.0000000000000000e+00 -2.0499999955753925e+00 +1.1380623157289891e-04 +0.0000000000000000e+00 +9.9999999352407076e-01
-2.1000000000000005e+00 +8.2848775989414278e+00 +0.0000000000000000e+00 -2.0999999952436315e+00 +1.1658298585459444e-04 +0.0000000000000000e+00 +9.9999999320420363e-01
-2.1500000000000004e+00 +8.2848717003717933e+00 +0.0000000000000000e+00 -2.1499999948956843e+00 +1.1935981159283407e-04 +0.0000000000000000e+00 +9.9999999287661756e-01
-2.2000000000000002e+00 +8.2848656629590511e+00 +0.0000000000000000e+00 -2.1999999945311646e+00 +1.2213671042893325e-04 +0.0000000000000000e+00 +9.9999999254131189e-01
-2.2500000000000000e+00 +8.2848594866995047e+00 +0.0000000000000000e+00 -2.2499999941496869e+00 +1.2491368399474476e-04 +0.0000000000000000e+00 +9.9999999219828573e-01
-2.2999999999999998e+00 +8.2848531715893792e+00 +0.0000000000000000e+00 -2.2999999937508648e+00 +1.2769073391265872e-04 +0.0000000000000000e+00 +9.9999999184753818e-01
-2.3499999999999996e+00 +8.2848467176248146e+00 +0.0000000000000000e+00 -2.3499999933343121e+00 +1.3046786179560270e-04 +0.0000000000000000e+00 +9.9999999148906848e-01
-2.3999999999999995e+00 +8.2848401248018728e+00 +0.0000000000000000e+00 -2.3999999928996427e+00 +1.3324506924704176e-04 +0.0000000000000000e+00 +9.9999999112287574e-01
-2.4499999999999993e+00 +8.2848333931165374e+00 +0.0000000000000000e+00 -2.4499999924464708e+00 +1.3602235786097845e-04 +0.0000000000000000e+00 +9.9999999074895907e-01
-2.4999999999999991e+00 +8.2848265225647086e+00 +0.0000000000000000e+00 -2.4999999919744100e+00 +1.3879972922195289e-04 +0.0000000000000000e+00 +9.9999999036731757e-01
-2.5499999999999989e+00 +8.2848195131422102e+00 +0.0000000000000000e+00 -2.5499999914830740e+00 +1.4157718490504287e-04 +0.0000000000000000e+00 +9.9999998997795037e-01
-2.5999999999999988e+00 +8.2848123648447860e+00 +0.0000000000000000e+00 -2.5999999909720763e+00 +1.4435472647586386e-04 +0.0000000000000000e+00 +9.9999998958085645e-01
-2.6499999999999986e+00 +8.2848050776681053e+00 +0.0000000000000000e+00 -2.6499999904410307e+00 +1.4713235549056904e-04 +0.0000000000000000e+00 +9.9999998917603494e-01
-2.6999999999999984e+00 +8.2847976516077537e+00 +0.0000000000000000e+00 -2.6999999898895508e+00 +1.4991007349584939e-04 +0.0000000000000000e+00 +9.9999998876348484e-01
-2.7499999999999982e+00 +8.2847900866592461e+00 +0.0000000000000000e+00 -2.7499999893172502e+00 +1.5268788202893365e-04 +0.0000000000000000e+00 +9.9999998834320525e-01
-2.7999999999999980e+00 +8.2847823828180172e+00 +0.0000000000000000e+00 -2.7999999887237426e+00 +1.5546578261758852e-04 +0.0000000000000000e+00 +9.9999998791519507e-01
-2.8499999999999979e+00 +8.2847745400794253e+00 +0.0000000000000000e+00 -2.8499999881086411e+00 +1.5824377678011852e-04 +0.0000000000000000e+00 +9.9999998747945340e-01
-2.8999999999999977e+00 +8.2847665584387542e+00 +0.0000000000000000e+00 -2.8999999874715590e+00 +1.6102186602536618e-04 +0.0000000000000000e+00 +9.9999998703597914e-01
-2.9499999999999975e+00 +8.2847584378912131e+00 +0.0000000000000000e+00 -2.9499999868121098e+00 +1.6380005185271201e-04 +0.0000000000000000e+00 +9.9999998658477129e-01
-2.9999999999999973e+00 +8.2847501784319348e+00 +0.0000000000000000e+00 -2.9999999861299069e+00 +1.6657833575207457e-04 +0.0000000000000000e+00 +9.9999998612582885e-01
-3.0499999999999972e+00 +8.2847417800559793e+00 +0.0000000000000000e+00 -3.0499999854245639e+00 +1.6935671920391044e-04 +0.0000000000000000e+00 +9.9999998565915060e-01
-3.0999999999999970e+00 +8.2847332427583318e+00 +0.0000000000000000e+00 -3.0999999846956934e+00 +1.7213520367921435e-04 +0.0000000000000000e+00 +9.9999998518473554e-01
-3.1499999999999968e+00 +8.2847245665339031e+00 +0.0000000000000000e+00 -3.1499999839429087e+00 +1.7491379063951920e-04 +0.0000000000000000e+00 +9.9999998470258267e-01
-3.1999999999999966e+00 +8.2847157513775347e+00 +0.0000000000000000e+00 -3.1999999831658226e+00 +1.7769248153689604e-04 +0.0000000000000000e+00 +9.9999998421269076e-01
-3.2499999999999964e+00 +8.2847067972839934e+00 +0.0000000000000000e+00 -3.2499999823640486e+00 +1.8047127781395416e-04 +0.0000000000000000e+00 +9.9999998371505872e-01
-3.2999999999999963e+00 +8.2846977042479732e+00 +0.0000000000000000e+00 -3.2999999815371996e+00 +1.8325018090384110e-04 +0.0000000000000000e+00 +9.9999998320968542e-01
-3.3499999999999961e+00 +8.2846884722640990e+00 +0.0000000000000000e+00 -3.3499999806848884e+00 +1.8602919223024265e-04 +0.0000000000000000e+00 +9.9999998269656964e-01
-3.3999999999999959e+00 +8.2846791013269225e+00 +0.0000000000000000e+00 -3.3999999798067275e+00 +1.8880831320738296e-04 +0.0000000000000000e+00 +9.9999998217571029e-01
-3.4499999999999957e+00 +8.2846695914309265e+00 +0.0000000000000000e+00 -3.4499999789023303e+00 +1.9158754524002452e-04 +0.0000000000000000e+00 +9.9999998164710613e-01
-3.4999999999999956e+00 +8.2846599425705243e+00 +0.0000000000000000e+00 -3.4999999779713091e+00 +1.9436688972346820e-04 +0.0000000000000000e+00 +9.9999998111075594e-01
-3.5499999999999954e+00 +8.2846501547400582e+00 +0.0000000000000000e+00 -3.5499999770132766e+00 +1.9714634804355325e-04 +0.0000000000000000e+00 +9.9999998056665862e-01
-3.5999999999999952e+00 +8.2846402279338012e+00 +0.0000000000000000e+00 -3.5999999760278456e+00 +1.9992592157665737e-04 +0.0000000000000000e+00 +9.9999998001481283e-01
-3.6499999999999950e+00 +8.2846301621459588e+00 +0.0000000000000000e+00 -3.6499999750146288e+00 +2.0270561168969672e-04 +0.0000000000000000e+00 +9.9999997945521735e-01
-3.6999999999999948e+00 +8.2846199573706674e+00 +0.0000000000000000e+00 -3.6999999739732381e+00 +2.0548541974012595e-04 +0.0000000000000000e+00 +9.9999997888787096e-01
-3.7499999999999947e+00 +8.2846096136019973e+00 +0.0000000000000000e+00 -3.7499999729032867e+00 +2.0826534707593818e-04 +0.0000000000000000e+00 +9.9999997831277243e-01
-3.7999999999999945e+00 +8.2845991308339499e+00 +0.0000000000000000e+00 -3.7999999718043864e+00 +2.1104539503566510e-04 +0.0000000000000000e+00 +9.9999997772992044e-01
-3.8499999999999943e+00 +8.2845885090604607e+00 +0.0000000000000000e+00 -3.8499999706761496e+00 +2.1382556494837693e-04 +0.0000000000000000e+00 +9.9999997713931366e-01
-3.8999999999999941e+00 +8.2845777482753995e+00 +0.0000000000000000e+00 -3.8999999695181886e+00 +2.1660585813368247e-04 +0.0000000000000000e+00 +9.9999997654095085e-01
-3.9499999999999940e+00 +8.2845668484725703e+00 +0.0000000000000000e+00 -3.9499999683301157e+00 +2.1938627590172911e-04 +0.0000000000000000e+00 +9.9999997593483070e-01
-3.9999999999999938e+00 +8.2845558096457115e+00 +0.0000000000000000e+00 -3.9999999671115427e+00 +2.2216681955320282e-04 +0.0000000000000000e+00 +9.9999997532095186e-01
-4.0499999999999936e+00 +8.2845446317884956e+00 +0.0000000000000000e+00 -4.0499999658620816e+00 +2.2494749037915083e-04 +0.0000000000000000e+00 +9.9999997469931301e-01
-4.0999999999999934e+00 +8.2845333148945333e+00 +0.0000000000000000e+00 -4.0999999645813450e+00 +2.2772828965903004e-04 +0.0000000000000000e+00 +9.9999997406991270e-01
-4.1499999999999932e+00 +8.2845218589573690e+00 +0.0000000000000000e+00 -4.1499999632689439e+00 +2.3050921865875552e-04 +0.0000000000000000e+00 +9.9999997343274971e-01
-4.1999999999999931e+00 +8.2845102639704855e+00 +0.0000000000000000e+00 -4.1999999619244903e+00 +2.3329027863052312e-04 +0.0000000000000000e+00 +9.9999997278782260e-01
-4.2499999999999929e+00 +8.2844985299273031e+00 +0.0000000000000000e+00 -4.2499999605475969e+00 +2.3607147081280950e-04 +0.0000000000000000e+00 +9.9999997213512992e-01
-4.2999999999999927e+00 +8.2844866568211799e+00 +0.0000000000000000e+00 -4.2999999591378746e+00 +2.3885279643037202e-04 +0.0000000000000000e+00 +9.9999997147467035e-01
-4.3499999999999925e+00 +8.2844746446454156e+00 +0.0000000000000000e+00 -4.3499999576949344e+00 +2.4163425669424890e-04 +0.0000000000000000e+00 +9.9999997080644254e-01
-4.3999999999999924e+00 +8.2844624933932476e+00 +0.0000000000000000e+00 -4.3999999562183891e+00 +2.4441585280175911e-04 +0.0000000000000000e+00 +9.9999997013044495e-01
-4.4499999999999922e+00 +8.2844502030578528e+00 +0.0000000000000000e+00 -4.4499999547078497e+00 +2.4719758593650244e-04 +0.0000000000000000e+00 +9.9999996944667624e-01
-4.4999999999999920e+00 +8.2844377736323516e+00 +0.0000000000000000e+00 -4.4999999531629271e+00 +2.4997945726835946e-04 +0.0000000000000000e+00 +9.9999996875513497e-01
-4.5499999999999918e+00 +8.2844252051098035e+00 +0.0000000000000000e+00 -4.5499999515832332e+00 +2.5276146795349155e-04 +0.0000000000000000e+00 +9.9999996805581959e-01
-4.5999999999999917e+00 +8.2844124974832134e+00 +0.0000000000000000e+00 -4.5999999499683790e+00 +2.5554361913434080e-04 +0.0000000000000000e+00 +9.9999996734872876e-01
-4.6499999999999915e+00 +8.2843996507455291e+00 +0.0000000000000000e+00 -4.6499999483179764e+00 +2.5832591193963015e-04 +0.0000000000000000e+00 +9.9999996663386104e-01
-4.6999999999999913e+00 +8.2843866648896398e+00 +0.0000000000000000e+00 -4.6999999466316353e+00 +2.6110834748436335e-04 +0.0000000000000000e+00 +9.9999996591121487e-01
-4.7499999999999911e+00 +8.2843735399083833e+00 +0.0000000000000000e+00 -4.7499999449089678e+00 +2.6389092686982484e-04 +0.0000000000000000e+00 +9.9999996518078882e-01
-4.7999999999999909e+00 +8.2843602757945387e+00 +0.0000000000000000e+00 -4.7999999431495848e+00 +2.6667365118357986e-04 +0.0000000000000000e+00 +9.9999996444258132e-01
-4.8499999999999908e+00 +8.2843468725408318e+00 +0.0000000000000000e+00 -4.8499999413530963e+00 +2.6945652149947441e-04 +0.0000000000000000e+00 +9.9999996369659094e-01
-4.8999999999999906e+00 +8.2843333301399369e+00 +0.0000000000000000e+00 -4.8999999395191143e+00 +2.7223953887763530e-04 +0.0000000000000000e+00 +9.9999996294281612e-01
-4.9499999999999904e+00 +8.2843196485844750e+00 +0.0000000000000000e+00 -4.9499999376472488e+00 +2.7502270436446995e-04 +0.0000000000000000e+00 +9.9999996218125542e-01
-4.9999999999999902e+00 +8.2843058278670139e+00 +0.0000000000000000e+00 -4.9999999357371099e+00 +2.7780601899266656e-04 +0.0000000000000000e+00 +9.9999996141190728e-01
-5.0499999999999901e+00 +8.2842918679800714e+00 +0.0000000000000000e+00 -5.0499999337883095e+00 +2.8058948378119407e-04 +0.0000000000000000e+00 +9.9999996063477015e-01
-5.0999999999999899e+00 +8.2842777689161160e+00 +0.0000000000000000e+00 -5.0999999318004576e+00 +2.8337309973530201e-04 +0.0000000000000000e+00 +9.9999995984984247e-01
-5.1499999999999897e+00 +8.2842635306675625e+00 +0.0000000000000000e+00 -5.1499999297731645e+00 +2.8615686784652070e-04 +0.0000000000000000e+00 +9.9999995905712280e-01
-5.1999999999999895e+00 +8.2842491532267797e+00 +0.0000000000000000e+00 -5.1999999277060400e+00 +2.8894078909266112e-04 +0.0000000000000000e+00 +9.9999995825660948e-01
-5.2499999999999893e+00 +8.2842346365860848e+00 +0.0000000000000000e+00 -5.2499999255986953e+00 +2.9172486443781477e-04 +0.0000000000000000e+00 +9.9999995744830095e-01
-5.2999999999999892e+00 +8.2842199807377508e+00 +0.0000000000000000e+00 -5.2999999234507404e+00 +2.9450909483235387e-04 +0.0000000000000000e+00 +9.9999995663219576e-01
-5.3499999999999890e+00 +8.2842051856740007e+00 +0.0000000000000000e+00 -5.3499999212617855e+00 +2.9729348121293117e-04 +0.0000000000000000e+00 +9.9999995580829226e-01
-5.3999999999999888e+00 +8.2841902513870131e+00 +0.0000000000000000e+00 -5.3999999190314396e+00 +3.0007802450248008e-04 +0.0000000000000000e+00 +9.9999995497658878e-01
-5.4499999999999886e+00 +8.2841751778689190e+00 +0.0000000000000000e+00 -5.4499999167593138e+00 +3.0286272561021448e-04 +0.0000000000000000e+00 +9.9999995413708387e-01
-5.4999999999999885e+00 +8.2841599651118063e+00 +0.0000000000000000e+00 -5.4999999144450182e+00 +3.0564758543162878e-04 +0.0000000000000000e+00 +9.9999995328977587e-01
-5.5499999999999883e+00 +8.2841446131077152e+00 +0.0000000000000000e+00 -5.5499999120881620e+00 +3.0843260484849792e-04 +0.0000000000000000e+00 +9.9999995243466322e-01
-5.5999999999999881e+00 +8.2841291218486468e+00 +0.0000000000000000e+00 -5.5999999096883544e+00 +3.1121778472887728e-04 +0.0000000000000000e+00 +9.9999995157174426e-01
-5.6499999999999879e+00 +8.2841134913265542e+00 +0.0000000000000000e+00 -5.6499999072452063e+00 +3.1400312592710271e-04 +0.0000000000000000e+00 +9.9999995070101744e-01
-5.6999999999999877e+00 +8.2840977215333513e+00 +0.0000000000000000e+00 -5.6999999047583261e+00 +3.1678862928379042e-04 +0.0000000000000000e+00 +9.9999994982248108e-01
-5.7499999999999876e+00 +8.2840818124609097e+00 +0.0000000000000000e+00 -5.7499999022273238e+00 +3.1957429562583706e-04 +0.0000000000000000e+00 +9.9999994893613364e-01
-5.7999999999999874e+00 +8.2840657641010598e+00 +0.0000000000000000e+00 -5.7999998996518087e+00 +3.2236012576641952e-04 +0.0000000000000000e+00 +9.9999994804197345e-01
-5.8499999999999872e+00 +8.2840495764455913e+00 +0.0000000000000000e+00 -5.8499998970313909e+00 +3.2514612050499504e-04 +0.0000000000000000e+00 +9.9999994713999896e-01
