# field on trajectory
# s[mm] rx[mm] ry[mm] rz[mm] bx[T] by[T] bz[T]
0.0000000000000000e+00 +8.3650000000000002e+00 +0.0000000000000000e+00 +0.0000000000000000e+00 -2.9211017918686188e-02 -5.5464339041468447e-01 +4.7883929394484373e-03
5.0000000000000003e-02 +8.3649999309524468e+00 +0.0000000000000000e+00 +4.9999999999936436e-02 -2.9212410082865941e-02 -5.5464321172008468e-01 +4.7884462112806284e-03
1.0000000000000001e-01 +8.3649997238098006e+00 +0.0000000000000000e+00 +9.9999999999491468e-02 -2.9213823089596594e-02 -5.5464341609661250e-01 +4.7885154788723542e-03
1.5000000000000002e-01 +8.3649993785720120e+00 +0.0000000000000000e+00 +1.4999999999828367e-01 -2.9215256697714891e-02 -5.5464400277451842e-01 +4.7886007666781139e-03
2.0000000000000001e-01 +8.3649988952389336e+00 +0.0000000000000000e+00 +1.9999999999593168e-01 -2.9216710666058045e-02 -5.5464497098407251e-01 +4.7887020991532712e-03
2.5000000000000000e-01 +8.3649982738103255e+00 +0.0000000000000000e+00 +2.4999999999205405e-01 -2.9218184753463720e-02 -5.5464631995556091e-01 +4.7888195007540560e-03
2.9999999999999999e-01 +8.3649975142858519e+00 +0.0000000000000000e+00 +2.9999999998626936e-01 -2.9219678718770029e-02 -5.5464804891928843e-01 +4.7889529959375772e-03
3.4999999999999998e-01 +8.3649966166650813e+00 +0.0000000000000000e+00 +3.4999999997819625e-01 -2.9221192320815520e-02 -5.5465015710557775e-01 +4.7891026091618147e-03
3.9999999999999997e-01 +8.3649955809474896e+00 +0.0000000000000000e+00 +3.9999999996745328e-01 -2.9222725318439165e-02 -5.5465264374476841e-01 +4.7892683648856106e-03
4.4999999999999996e-01 +8.3649944071324569e+00 +0.0000000000000000e+00 +4.4999999995365897e-01 -2.9224277470480373e-02 -5.5465550806721819e-01 +4.7894502875686926e-03
4.9999999999999994e-01 +8.3649930952192708e+00 +0.0000000000000000e+00 +4.9999999993643190e-01 -2.9225848535778962e-02 -5.5465874930330228e-01 +4.7896484016716635e-03
5.4999999999999993e-01 +8.3649916452071231e+00 +0.0000000000000000e+00 +5.4999999991539061e-01 -2.9227438273175192e-02 -5.5466236668341296e-01 +4.7898627316559925e-03
5.9999999999999998e-01 +8.3649900570951150e+00 +0.0000000000000000e+00 +5.9999999989015373e-01 -2.9229046441509695e-02 -5.5466635943796061e-01 +4.7900933019840355e-03
6.5000000000000002e-01 +8.3649883308822517e+00 +0.0000000000000000e+00 +6.4999999986033974e-01 -2.9230672799623533e-02 -5.5467072679737239e-01 +4.7903401371190276e-03
7.0000000000000007e-01 +8.3649864665674460e+00 +0.0000000000000000e+00 +6.9999999982556715e-01 -2.9232317106358163e-02 -5.5467546799209300e-01 +4.7906032615250742e-03
7.5000000000000011e-01 +8.3649844641495168e+00 +0.0000000000000000e+00 +7.4999999978545451e-01 -2.9233979120555427e-02 -5.5468058225258454e-01 +4.7908826996671721e-03
8.0000000000000016e-01 +8.3649823236271903e+00 +0.0000000000000000e+00 +7.9999999973962022e-01 -2.9235658601057542e-02 -5.5468606880932625e-01 +4.7911784760111932e-03
8.5000000000000020e-01 +8.3649800449991023e+00 +0.0000000000000000e+00 +8.4999999968768281e-01 -2.9237355306707107e-02 -5.5469192689281377e-01 +4.7914906150238945e-03
9.0000000000000024e-01 +8.3649776282637927e+00 +0.0000000000000000e+00 +8.9999999962926081e-01 -2.9239068996347102e-02 -5.5469815573356085e-01 +4.7918191411729216e-03
9.5000000000000029e-01 +8.3649750734197124e+00 +0.0000000000000000e+00 +9.4999999956397263e-01 -2.9240799428820907e-02 -5.5470475456209778e-01 +4.7921640789267981e-03
1.0000000000000002e+00 +8.3649723804652165e+00 +0.0000000000000000e+00 +9.9999999949143670e-01 -2.9242546362972206e-02 -5.5471172260897161e-01 +4.7925254527549400e-03
1.0500000000000003e+00 +8.3649695493985714e+00 +0.0000000000000000e+00 +1.0499999994112714e+00 -2.9244309557645062e-02 -5.5471905910474661e-01 +4.7929032871276431e-03
1.1000000000000003e+00 +8.3649665802179491e+00 +0.0000000000000000e+00 +1.0999999993230951e+00 -2.9246088771683897e-02 -5.5472676328000414e-01 +4.7932976065161049e-03
1.1500000000000004e+00 +8.3649634729214331e+00 +0.0000000000000000e+00 +1.1499999992265262e+00 -2.9247883763933478e-02 -5.5473483436534188e-01 +4.7937084353923982e-03
1.2000000000000004e+00 +8.3649602275070123e+00 +0.0000000000000000e+00 +1.1999999991211832e+00 -2.9249694293238891e-02 -5.5474327159137382e-01 +4.7941357982295004e-03
1.2500000000000004e+00 +8.3649568439725872e+00 +0.0000000000000000e+00 +1.2499999990066841e+00 -2.9251520118445579e-02 -5.5475207418873174e-01 +4.7945797195012730e-03
1.3000000000000005e+00 +8.3649533223159658e+00 +0.0000000000000000e+00 +1.2999999988826476e+00 -2.9253360998399293e-02 -5.5476124138806338e-01 +4.7950402236824688e-03
1.3500000000000005e+00 +8.3649496625348672e+00 +0.0000000000000000e+00 +1.3499999987486917e+00 -2.9255216691946098e-02 -5.5477077242003281e-01 +4.7955173352487437e-03
1.4000000000000006e+00 +8.3649458646269164e+00 +0.0000000000000000e+00 +1.3999999986044347e+00 -2.9257086957932416e-02 -5.5478066651532132e-01 +4.7960110786766435e-03
1.4500000000000006e+00 +8.3649419285896514e+00 +0.0000000000000000e+00 +1.4499999984494949e+00 -2.9258971555204911e-02 -5.5479092290462573e-01 +4.7965214784436074e-03
1.5000000000000007e+00 +8.3649378544205177e+00 +0.0000000000000000e+00 +1.4999999982834904e+00 -2.9260870242610620e-02 -5.5480154081865984e-01 +4.7970485590279801e-03
1.5500000000000007e+00 +8.3649336421168705e+00 +0.0000000000000000e+00 +1.5499999981060395e+00 -2.9262782778996837e-02 -5.5481251948815391e-01 +4.7975923449090031e-03
1.6000000000000008e+00 +8.3649292916759777e+00 +0.0000000000000000e+00 +1.5999999979167603e+00 -2.9264708923211143e-02 -5.5482385814385393e-01 +4.7981528605668157e-03
1.6500000000000008e+00 +8.3649248030950165e+00 +0.0000000000000000e+00 +1.6499999977152708e+00 -2.9266648434101445e-02 -5.5483555601652290e-01 +4.7987301304824601e-03
1.7000000000000008e+00 +8.3649201763710739e+00 +0.0000000000000000e+00 +1.6999999975011892e+00 -2.9268601070515859e-02 -5.5484761233693869e-01 +4.7993241791378788e-03
1.7500000000000009e+00 +8.3649154115011495e+00 +0.0000000000000000e+00 +1.7499999972741336e+00 -2.9270566591302859e-02 -5.5486002633589659e-01 +4.7999350310159224e-03
1.8000000000000009e+00 +8.3649105084821507e+00 +0.0000000000000000e+00 +1.7999999970337217e+00 -2.9272544755311120e-02 -5.5487279724420724e-01 +4.8005627106003437e-03
1.8500000000000010e+00 +8.3649054673108996e+00 +0.0000000000000000e+00 +1.8499999967795717e+00 -2.9274535321389634e-02 -5.5488592429269712e-01 +4.8012072423758009e-03
1.9000000000000010e+00 +8.3649002879841259e+00 +0.0000000000000000e+00 +1.8999999965113015e+00 -2.9276538048387601e-02 -5.5489940671220939e-01 +4.8018686508278603e-03
1.9500000000000011e+00 +8.3648949704984741e+00 +0.0000000000000000e+00 +1.9499999962285290e+00 -2.9278552695154489e-02 -5.5491324373360185e-01 +4.8025469604429964e-03
2.0000000000000009e+00 +8.3648895148504998e+00 +0.0000000000000000e+00 +1.9999999959308723e+00 -2.9280579020540012e-02 -5.5492743458774951e-01 +4.8032421957085918e-03
2.0500000000000007e+00 +8.3648839210366681e+00 +0.0000000000000000e+00 +2.0499999956179487e+00 -2.9282616843959910e-02 -5.5494197826866443e-01 +4.8039543690351402e-03
2.1000000000000005e+00 +8.3648781890533588e+00 +0.0000000000000000e+00 +2.0999999952893766e+00 -2.9284666227093411e-02 -5.5495687282286121e-01 +4.8046834445227248e-03
2.1500000000000004e+00 +8.3648723188968628e+00 +0.0000000000000000e+00 +2.1499999949447735e+00 -2.9286727292186530e-02 -5.5497211605998875e-01 +4.8054293741942502e-03
2.2000000000000002e+00 +8.3648663105633858e+00 +0.0000000000000000e+00 +2.1999999945837567e+00 -2.9288800161486356e-02 -5.5498770578970735e-01 +4.8061921100732092e-03
2.2500000000000000e+00 +8.3648601640490465e+00 +0.0000000000000000e+00 +2.2499999942059445e+00 -2.9290884957241036e-02 -5.5500363982168932e-01 +4.8069716041836729e-03
2.2999999999999998e+00 +8.3648538793498783e+00 +0.0000000000000000e+00 +2.2999999938109541e+00 -2.9292981801699914e-02 -5.5501991596561728e-01 +4.8077678085502677e-03
2.3499999999999996e+00 +8.3648474564618276e+00 +0.0000000000000000e+00 +2.3499999933984035e+00 -2.9295090817113487e-02 -5.5503653203118608e-01 +4.8085806751981559e-03
2.3999999999999995e+00 +8.3648408953807571e+00 +0.0000000000000000e+00 +2.3999999929679099e+00 -2.9297212125733475e-02 -5.5505348582809932e-01 +4.8094101561530229e-03
2.4499999999999993e+00 +8.3648341961024464e+00 +0.0000000000000000e+00 +2.4499999925190905e+00 -2.9299345849812874e-02 -5.5507077516607217e-01 +4.8102562034410641e-03
2.4999999999999991e+00 +8.3648273586225912e+00 +0.0000000000000000e+00 +2.4999999920515634e+00 -2.9301492111606015e-02 -5.5508839785482944e-01 +4.8111187690889562e-03
2.5499999999999989e+00 +8.3648203829368040e+00 +0.0000000000000000e+00 +2.5499999915649454e+00 -2.9303651033368513e-02 -5.5510635170410605e-01 +4.8119978051238549e-03
2.5999999999999988e+00 +8.3648132690406136e+00 +0.0000000000000000e+00 +2.5999999910588545e+00 -2.9305822737357455e-02 -5.5512463452364580e-01 +4.8128932635733701e-03
2.6499999999999986e+00 +8.3648060169294691e+00 +0.0000000000000000e+00 +2.6499999905329075e+00 -2.9308007345831291e-02 -5.5514324412320215e-01 +4.8138050964655439e-03
2.6999999999999984e+00 +8.3647986265987377e+00 +0.0000000000000000e+00 +2.6999999899867215e+00 -2.9310204981049966e-02 -5.5516217831253722e-01 +4.8147332558288484e-03
2.7499999999999982e+00 +8.3647910980437050e+00 +0.0000000000000000e+00 +2.7499999894199143e+00 -2.9312415765274952e-02 -5.5518143490142169e-01 +4.8156776936921514e-03
2.7999999999999980e+00 +8.3647834312595748e+00 +0.0000000000000000e+00 +2.7999999888321025e+00 -2.9314639820769258e-02 -5.5520101169963521e-01 +4.8166383620847162e-03
2.8499999999999979e+00 +8.3647756262414745e+00 +0.0000000000000000e+00 +2.8499999882229035e+00 -2.9316877269797474e-02 -5.5522090651696521e-01 +4.8176152130361711e-03
2.8999999999999977e+00 +8.3647676829844499e+00 +0.0000000000000000e+00 +2.8999999875919342e+00 -2.9319128234625839e-02 -5.5524111716320623e-01 +4.8186081985764984e-03
2.9499999999999975e+00 +8.3647596014834704e+00 +0.0000000000000000e+00 +2.9499999869388116e+00 -2.9321392837522289e-02 -5.5526164144816159e-01 +4.8196172707360265e-03
2.9999999999999973e+00 +8.3647513817334254e+00 +0.0000000000000000e+00 +2.9999999862631528e+00 -2.9323671200756428e-02 -5.5528247718164070e-01 +4.8206423815453881e-03
3.0499999999999972e+00 +8.3647430237291278e+00 +0.0000000000000000e+00 +3.0499999855645745e+00 -2.9325963446599664e-02 -5.5530362217346130e-01 +4.8216834830355345e-03
3.0999999999999970e+00 +8.3647345274653127e+00 +0.0000000000000000e+00 +3.0999999848426936e+00 -2.9328269697325163e-02 -5.5532507423344635e-01 +4.8227405272376908e-03
3.1499999999999968e+00 +8.3647258929366384e+00 +0.0000000000000000e+00 +3.1499999840971267e+00 -2.9330590075207962e-02 -5.5534683117142636e-01 +4.8238134661833633e-03
3.1999999999999966e+00 +8.3647171201376871e+00 +0.0000000000000000e+00 +3.1999999833274906e+00 -2.9332924702524937e-02 -5.5536889079723750e-01 +4.8249022519043019e-03
3.2499999999999964e+00 +8.3647082090629681e+00 +0.0000000000000000e+00 +3.2499999825334021e+00 -2.9335273701554931e-02 -5.5539125092072195e-01 +4.8260068364324969e-03
3.2999999999999963e+00 +8.3646991597069142e+00 +0.0000000000000000e+00 +3.2999999817144778e+00 -2.9337637194578728e-02 -5.5541390935172785e-01 +4.8271271718001553e-03
3.3499999999999961e+00 +8.3646899720638839e+00 +0.0000000000000000e+00 +3.3499999808703342e+00 -2.9340015303879079e-02 -5.5543686390010794e-01 +4.8282632100396881e-03
3.3999999999999959e+00 +8.3646806461281624e+00 +0.0000000000000000e+00 +3.3999999800005876e+00 -2.9342408151740846e-02 -5.5546011237572079e-01 +4.8294149031836917e-03
3.4499999999999957e+00 +8.3646711818939607e+00 +0.0000000000000000e+00 +3.4499999791048541e+00 -2.9344815860450908e-02 -5.5548365258842902e-01 +4.8305822032649274e-03
3.4999999999999956e+00 +8.3646615793554187e+00 +0.0000000000000000e+00 +3.4999999781827507e+00 -2.9347238552298309e-02 -5.5550748234810043e-01 +4.8317650623163101e-03
3.5499999999999954e+00 +8.3646518385066031e+00 +0.0000000000000000e+00 +3.5499999772338935e+00 -2.9349676349574232e-02 -5.5553159946460651e-01 +4.8329634323708908e-03
3.5999999999999952e+00 +8.3646419593415082e+00 +0.0000000000000000e+00 +3.5999999762578985e+00 -2.9352129374572083e-02 -5.5555600174782316e-01 +4.8341772654618351e-03
3.6499999999999950e+00 +8.3646319418540589e+00 +0.0000000000000000e+00 +3.6499999752543819e+00 -2.9354597749587517e-02 -5.5558068700762975e-01 +4.8354065136224133e-03
3.6999999999999948e+00 +8.3646217860381107e+00 +0.0000000000000000e+00 +3.6999999742229601e+00 -2.9357081596918442e-02 -5.5560565305390885e-01 +4.8366511288859765e-03
3.7499999999999947e+00 +8.3646114918874463e+00 +0.0000000000000000e+00 +3.7499999731632490e+00 -2.9359581038865112e-02 -5.5563089769654672e-01 +4.8379110632859436e-03
3.7999999999999945e+00 +8.3646010593957811e+00 +0.0000000000000000e+00 +3.7999999720748643e+00 -2.9362096197730180e-02 -5.5565641874543203e-01 +4.8391862688557828e-03
3.8499999999999943e+00 +8.3645904885567592e+00 +0.0000000000000000e+00 +3.8499999709574220e+00 -2.9364627195818664e-02 -5.5568221401045603e-01 +4.8404766976290004e-03
3.8999999999999941e+00 +8.3645797793639609e+00 +0.0000000000000000e+00 +3.8999999698105379e+00 -2.9367174155438037e-02 -5.5570828130151251e-01 +4.8417823016391106e-03
3.9499999999999940e+00 +8.3645689318108936e+00 +0.0000000000000000e+00 +3.9499999686338279e+00 -2.9369737198898273e-02 -5.5573461842849692e-01 +4.8431030329196337e-03
3.9999999999999938e+00 +8.3645579458910024e+00 +0.0000000000000000e+00 +3.9999999674269073e+00 -2.9372316448511893e-02 -5.5576122320130683e-01 +4.8444388435040725e-03
4.0499999999999936e+00 +8.3645468215976617e+00 +0.0000000000000000e+00 +4.0499999661893922e+00 -2.9374911946558682e-02 -5.5578809332928925e-01 +4.8457896715554402e-03
4.0999999999999934e+00 +8.3645355589241817e+00 +0.0000000000000000e+00 +4.0999999649208982e+00 -2.9377523415178085e-02 -5.5581522611958067e-01 +4.8471553997549259e-03
4.1499999999999932e+00 +8.3645241578638085e+00 +0.0000000000000000e+00 +4.1499999636210401e+00 -2.9380150496473138e-02 -5.5584261877876862e-01 +4.8485358969135983e-03
4.1999999999999931e+00 +8.3645126184097194e+00 +0.0000000000000000e+00 +4.1999999622894340e+00 -2.9382792832545575e-02 -5.5587026851344157e-01 +4.8499310318429302e-03
4.2499999999999929e+00 +8.3645009405550326e+00 +0.0000000000000000e+00 +4.2499999609256953e+00 -2.9385450065495859e-02 -5.5589817253019014e-01 +4.8513406733548129e-03
4.2999999999999927e+00 +8.3644891242927990e+00 +0.0000000000000000e+00 +4.2999999595294387e+00 -2.9388121837423023e-02 -5.5592632803560627e-01 +4.8527646902615379e-03
4.3499999999999925e+00 +8.3644771696160110e+00 +0.0000000000000000e+00 +4.3499999581002795e+00 -2.9390807790424675e-02 -5.5595473223628344e-01 +4.8542029513758151e-03
4.3999999999999924e+00 +8.3644650765175950e+00 +0.0000000000000000e+00 +4.3999999566378332e+00 -2.9393507566596828e-02 -5.5598338233881561e-01 +4.8556553255107533e-03
4.4499999999999922e+00 +8.3644528449904172e+00 +0.0000000000000000e+00 +4.4499999551417142e+00 -2.9396220808033904e-02 -5.5601227554979804e-01 +4.8571216814798646e-03
4.4999999999999920e+00 +8.3644404750272852e+00 +0.0000000000000000e+00 +4.4999999536115380e+00 -2.9398947156828600e-02 -5.5604140907582622e-01 +4.8586018880970583e-03
4.5499999999999918e+00 +8.3644279666209442e+00 +0.0000000000000000e+00 +4.5499999520469201e+00 -2.9401686255071908e-02 -5.5607078012349653e-01 +4.8600958141766498e-03
4.5999999999999917e+00 +8.3644153197640829e+00 +0.0000000000000000e+00 +4.5999999504474740e+00 -2.9404437744852890e-02 -5.5610038589940447e-01 +4.8616033285333454e-03
4.6499999999999915e+00 +8.3644025344493294e+00 +0.0000000000000000e+00 +4.6499999488128152e+00 -2.9407201268258749e-02 -5.5613022361014608e-01 +4.8631242999822447e-03
4.6999999999999913e+00 +8.3643896106692548e+00 +0.0000000000000000e+00 +4.6999999471425582e+00 -2.9409976467374671e-02 -5.5616029046231685e-01 +4.8646585973388433e-03
4.7499999999999911e+00 +8.3643765484163737e+00 +0.0000000000000000e+00 +4.7499999454363175e+00 -2.9412762984283768e-02 -5.5619058366251151e-01 +4.8662060894190222e-03
4.7999999999999909e+00 +8.3643633476831436e+00 +0.0000000000000000e+00 +4.7999999436937077e+00 -2.9415560461067018e-02 -5.5622110041732409e-01 +4.8677666450390516e-03
4.8499999999999908e+00 +8.3643500084619671e+00 +0.0000000000000000e+00 +4.8499999419143434e+00 -2.9418368539803157e-02 -5.5625183793334720e-01 +4.8693401330155879e-03
4.8999999999999906e+00 +8.3643365307451916e+00 +0.0000000000000000e+00 +4.8999999400978389e+00 -2.9421186862568637e-02 -5.5628279341717246e-01 +4.8709264221656690e-03
4.9499999999999904e+00 +8.3643229145251077e+00 +0.0000000000000000e+00 +4.9499999382438080e+00 -2.9424015071437552e-02 -5.5631396407538991e-01 +4.8725253813067136e-03
4.9999999999999902e+00 +8.3643091597939563e+00 +0.0000000000000000e+00 +4.9999999363518661e+00 -2.9426852808481514e-02 -5.5634534711458705e-01 +4.8741368792565186e-03
5.0499999999999901e+00 +8.3642952665439250e+00 +0.0000000000000000e+00 +5.0499999344216260e+00 -2.9429699715769659e-02 -5.5637693974135005e-01 +4.8757607848332581e-03
5.0999999999999899e+00 +8.3642812347671462e+00 +0.0000000000000000e+00 +5.0999999324527021e+00 -2.9432555435368480e-02 -5.5640873916226286e-01 +4.8773969668554802e-03
5.1499999999999897e+00 +8.3642670644557029e+00 +0.0000000000000000e+00 +5.1499999304447091e+00 -2.9435419609341828e-02 -5.5644074258390597e-01 +4.8790452941421042e-03
5.1999999999999895e+00 +8.3642527556016280e+00 +0.0000000000000000e+00 +5.1999999283972596e+00 -2.9438291879750812e-02 -5.5647294721285834e-01 +4.8807056355124230e-03
5.2499999999999893e+00 +8.3642383081969029e+00 +0.0000000000000000e+00 +5.2499999263099681e+00 -2.9441171888653684e-02 -5.5650535025569436e-01 +4.8823778597860872e-03
5.2999999999999892e+00 +8.3642237222334597e+00 +0.0000000000000000e+00 +5.2999999241824485e+00 -2.9444059278105835e-02 -5.5653794891898689e-01 +4.8840618357831296e-03
5.3499999999999890e+00 +8.3642089977031819e+00 +0.0000000000000000e+00 +5.3499999220143142e+00 -2.9446953690159650e-02 -5.5657074040930388e-01 +4.8857574323239268e-03
5.3999999999999888e+00 +8.3641941345979056e+00 +0.0000000000000000e+00 +5.3999999198051789e+00 -2.9449854766864497e-02 -5.5660372193321028e-01 +4.8874645182292306e-03
5.4499999999999886e+00 +8.3641791329094204e+00 +0.0000000000000000e+00 +5.4499999175546563e+00 -2.9452762150266622e-02 -5.5663689069726696e-01 +4.8891829623201478e-03
5.4999999999999885e+00 +8.3641639926294662e+00 +0.0000000000000000e+00 +5.4999999152623591e+00 -2.9455675482409027e-02 -5.5667024390803022e-01 +4.8909126334181355e-03
5.5499999999999883e+00 +8.3641487137497403e+00 +0.0000000000000000e+00 +5.5499999129279010e+00 -2.9458594405331488e-02 -5.5670377877205235e-01 +4.8926534003450144e-03
5.5999999999999881e+00 +8.3641332962618922e+00 +0.0000000000000000e+00 +5.5999999105508955e+00 -2.9461518561070429e-02 -5.5673749249588045e-01 +4.8944051319229536e-03
5.6499999999999879e+00 +8.3641177401575284e+00 +0.0000000000000000e+00 +5.6499999081309555e+00 -2.9464447591658824e-02 -5.5677138228605716e-01 +4.8961676969744693e-03
5.6999999999999877e+00 +8.3641020454282113e+00 +0.0000000000000000e+00 +5.6999999056676938e+00 -2.9467381139126166e-02 -5.5680544534911991e-01 +4.8979409643224335e-03
5.7499999999999876e+00 +8.3640862120654607e+00 +0.0000000000000000e+00 +5.7499999031607238e+00 -2.9470318845498389e-02 -5.5683967889160046e-01 +4.8997248027900543e-03
5.7999999999999874e+00 +8.3640702400607534e+00 +0.0000000000000000e+00 +5.7999999006096585e+00 -2.9473260352797716e-02 -5.5687408012002437e-01 +4.9015190812008854e-03
5.8499999999999872e+00 +8.3640541294055240e+00 +0.0000000000000000e+00 +5.8499998980141106e+00 -2.9476205303042752e-02 -5.5690864624091319e-01 +4.9033236683788325e-03
5.8999999999999870e+00 +8.3640378800911659e+00 +0.0000000000000000e+00 +5.8999998953736927e+00 -2.9479153338248201e-02 -5.5694337446078002e-01 +4.9051384331481205e-03
