# multipoles
# s[mm] polynom_b[n=0][T/m^n] polynom_b[n=1][T/m^n] polynom_b[n=2][T/m^n] polynom_b[n=3][T/m^n] polynom_b[n=4][T/m^n] polynom_b[n=5][T/m^n] polynom_b[n=6][T/m^n] 
+0.0000000000000000e+00 -5.7895835880650837e-01 +7.6054782136214643e+00 +6.1502990472133163e+00 -2.7321230565638501e+00 +1.1313277806937374e+03 -4.1283758536713058e+05 -9.6311466552493032e+06 
+5.0000000000000003e-02 -5.7896015774879128e-01 +7.6056251940710426e+00 +6.1461755103014628e+00 -2.4662600584883698e+00 +1.1226328889830227e+03 -4.1489421294494462e+05 -9.5083400497517139e+06 
+1.0000000000000001e-01 -5.7896233002619157e-01 +7.6057917167945552e+00 +6.1418276252546367e+00 -2.1838290794387007e+00 +1.1076444204384838e+03 -4.1697754965193500e+05 -9.3461844742600806e+06 
+1.4999999999999999e-01 -5.7896487471527625e-01 +7.6059777205840629e+00 +6.1372521704500755e+00 -1.8852445744273314e+00 +1.0865422420341040e+03 -4.1908598323376424e+05 -9.1458813827551119e+06 
+2.0000000000000001e-01 -5.7896779089269312e-01 +7.6061831442332748e+00 +6.1324459334654735e+00 -1.5709210348286764e+00 +1.0595059695431303e+03 -4.2121790113767033e+05 -8.9086305245994553e+06 
+2.5000000000000000e-01 -5.7897107763509392e-01 +7.6064079265379290e+00 +6.1274056943459625e+00 -1.2412730005430646e+00 +1.0267154241140827e+03 -4.2337169043064711e+05 -8.6356330455433745e+06 
+2.9999999999999999e-01 -5.7897473401912636e-01 +7.6066520062927880e+00 +6.1221282348385042e+00 -8.9671494274306018e-01 +9.8835037688344573e+02 -4.2554573872526118e+05 -8.3280897408363158e+06 
+3.4999999999999998e-01 -5.7897875912141084e-01 +7.6069153222937045e+00 +6.1166103391225404e+00 -5.3766133069296307e-01 +9.4459053177781607e+02 -4.2773843369697325e+05 -7.9872009506670674e+06 
+4.0000000000000002e-01 -5.7898315201870909e-01 +7.6071978133351426e+00 +6.1108487883911655e+00 -1.6452655888643175e-01 +8.9561567495355780e+02 -4.2994816362386884e+05 -7.6141675745098870e+06 
+4.5000000000000001e-01 -5.7898791178764464e-01 +7.6074994182156592e+00 +6.1048403661316861e+00 +2.2227483793022515e-01 +8.4160553117186407e+02 -4.3217331557164370e+05 -7.2101901057749633e+06 
+5.0000000000000000e-01 -5.7899303750498043e-01 +7.6078200757322243e+00 +6.0985818538209369e+00 +6.2232842986603387e-01 +7.8273987124546863e+02 -4.3441227754684811e+05 -6.7764693156769760e+06 
+5.5000000000000004e-01 -5.7899852824742104e-01 +7.6081597246818875e+00 +6.0920700339833358e+00 +1.0352198113532922e+00 +7.1919844333490755e+02 -4.3666343772132113e+05 -6.3142058498341441e+06 
+5.9999999999999998e-01 -5.7900438309177227e-01 +7.6085183038630024e+00 +6.0853016896764958e+00 +1.4605345425263843e+00 +6.5116098036821745e+02 -4.3892518396679568e+05 -5.8246002487050975e+06 
+6.5000000000000002e-01 -5.7901060111471436e-01 +7.6088957520731908e+00 +6.0782736033753730e+00 +1.8978582581981522e+00 +5.7880722817868082e+02 -4.4119590479570982e+05 -5.3088531290648123e+06 
+6.9999999999999996e-01 -5.7901718139308223e-01 +7.6092920081127771e+00 +6.0709825582811456e+00 +2.3467764982847421e+00 +5.0231691037194719e+02 -4.4347398792108725e+05 -4.7681649525085445e+06 
+7.5000000000000000e-01 -5.7902412300362305e-01 +7.6097070107814400e+00 +6.0634253334463484e+00 +2.8068748652872593e+00 +4.2186986676986004e+02 -4.4575782158586639e+05 -4.2037369838747773e+06 
+8.0000000000000004e-01 -5.7903142502316851e-01 +7.6101406988799472e+00 +6.0555987156937290e+00 +3.2777389325349970e+00 +3.3764572210582008e+02 -4.4804579374317196e+05 -3.6167690140688405e+06 
+8.4999999999999998e-01 -5.7903908652854841e-01 +7.6105930112073237e+00 +6.0474994836267220e+00 +3.7589543823213836e+00 +2.4982432668404698e+02 -4.5033629329190537e+05 -3.0084623766232720e+06 
+9.0000000000000002e-01 -5.7904710659661651e-01 +7.6110638865680276e+00 +6.0391244226229501e+00 +4.2501066910387610e+00 +1.5858534325787647e+02 -4.5262770737752225e+05 -2.3800171196451858e+06 
+9.4999999999999996e-01 -5.7905548430418596e-01 +7.6115532637617056e+00 +6.0304703127341268e+00 +4.7507815792986623e+00 +6.4108583742272870e+01 -4.5491842524037306e+05 -1.7326343246027038e+06 
+1.0000000000000000e+00 -5.7906421872812930e-01 +7.6120610815896343e+00 +6.0215339378481092e+00 +5.2605646883084738e+00 -3.3426254040031971e+01 -4.5720683530508587e+05 -1.0675142610888036e+06 
+1.0500000000000000e+00 -5.7907330894535169e-01 +7.6125872788572471e+00 +6.0123120790898188e+00 +5.7790415468375480e+00 -1.3383938672851798e+02 -4.5949132520823466e+05 -3.8585782163751323e+05 
+1.1000000000000001e+00 -5.7908275403269949e-01 +7.6131317943658816e+00 +6.0028015197974511e+00 +6.3057978696259624e+00 -2.3695109641719020e+02 -4.6177028406276129e+05 +3.1113456343846046e+05 
+1.1499999999999999e+00 -5.7909255306716823e-01 +7.6136945669221001e+00 +5.9929990427105384e+00 +6.8404191624546815e+00 -3.4258165022787637e+02 -4.6404209921453253e+05 +1.0222623665539915e+06 
+1.2000000000000000e+00 -5.7910270512561990e-01 +7.6142755353279048e+00 +5.9829014289811218e+00 +7.3824911613193924e+00 -4.5055127376974548e+02 -4.6630515993229189e+05 +1.7463247817495535e+06 
+1.2500000000000000e+00 -5.7911320928499455e-01 +7.6148746383897459e+00 +5.9725054605049266e+00 +7.9315994346002903e+00 -5.6068020585690124e+02 -4.6855785408602800e+05 +2.4821210646843622e+06 
+1.3000000000000000e+00 -5.7912406462228050e-01 +7.6154918149131454e+00 +5.9618079213306086e+00 +8.4873296073007225e+00 -6.7278875164919486e+02 -4.7079856998548633e+05 +3.2284509480498983e+06 
+1.3500000000000001e+00 -5.7913527021444777e-01 +7.6161270037019406e+00 +5.9508055940207001e+00 +9.0492674033549587e+00 -7.8669717328751074e+02 -4.7302569677537453e+05 +3.9841138635524823e+06 
+1.3999999999999999e+00 -5.7914682513841043e-01 +7.6167801435674960e+00 +5.9394952585869927e+00 +9.6169982539303192e+00 -9.0222566234776286e+02 -4.7523762113436946e+05 +4.7479087548201354e+06 
+1.4500000000000000e+00 -5.7915872847123318e-01 +7.6174511733139747e+00 +5.9278736997481349e+00 +1.0190107905284162e+01 -1.0191945393274877e+03 -4.7743273234765604e+05 +5.5186354451795183e+06 
+1.5000000000000000e+00 -5.7917097928991645e-01 +7.6181400317491654e+00 +5.9159376981472525e+00 +1.0768181974459543e+01 -1.1374240147457174e+03 -4.7960941860918043e+05 +6.2950930116972551e+06 
+1.5500000000000000e+00 -5.7918357667146458e-01 +7.6188466576812868e+00 +5.9036840378361681e+00 +1.1350806090580594e+01 -1.2567343913884388e+03 -4.8176606822864246e+05 +7.0760811532462901e+06 
+1.6000000000000001e+00 -5.7919651969290387e-01 +7.6195709899195290e+00 +5.8911094986542105e+00 +1.1937565852592233e+01 -1.3769458535675528e+03 -4.8390106921641791e+05 +7.8603987508313404e+06 
+1.6499999999999999e+00 -5.7920980743132422e-01 +7.6203129672753676e+00 +5.8782108657107797e+00 +1.2528046777705780e+01 -1.4978787391344090e+03 -4.8601280887810746e+05 +8.6468457633526400e+06 
+1.7000000000000000e+00 -5.7922343896375361e-01 +7.6210725285553931e+00 +5.8649849192557353e+00 +1.3121834618374097e+01 -1.6193532409502009e+03 -4.8809967649303604e+05 +9.4342211143089458e+06 
+1.7500000000000000e+00 -5.7923741336729972e-01 +7.6218496125719151e+00 +5.8514284421374745e+00 +1.3718514897924964e+01 -1.7411896311976357e+03 -4.9016005939322204e+05 +1.0221324300910166e+07 
+1.8000000000000000e+00 -5.7925172971903827e-01 +7.6226441581364170e+00 +5.8375382186443803e+00 +1.4317673199268739e+01 -1.8632082137514838e+03 -4.9219234540463035e+05 +1.1006955001565233e+07 
+1.8500000000000001e+00 -5.7926638709605149e-01 +7.6234561040581026e+00 +5.8233110277770530e+00 +1.4918895204407425e+01 -1.9852291592749395e+03 -4.9419492312196532e+05 +1.1789912030973149e+07 
+1.8999999999999999e+00 -5.7928138457550205e-01 +7.6242853891515976e+00 +5.8087436543503195e+00 +1.5521766397375650e+01 -2.1070727833005731e+03 -4.9616617951304262e+05 +1.2568995136735417e+07 
+1.9500000000000000e+00 -5.7929672123448894e-01 +7.6251319522291769e+00 +5.7938328802819719e+00 +1.6125872377370257e+01 -2.2285593301581489e+03 -4.9810450248477096e+05 +1.3343003608005477e+07 
+2.0000000000000000e+00 -5.7931239615018160e-01 +7.6259957321033749e+00 +5.7785754875561404e+00 +1.6730798739677564e+01 -2.3495090439411047e+03 -5.0000827985718130e+05 +1.4110736726213312e+07 
+2.0499999999999998e+00 -5.7932840815559539e-01 +7.6268766571103184e+00 +5.7629684134914783e+00 +1.7336091764351636e+01 -2.4697492429650506e+03 -5.0187578317615815e+05 +1.4871075125276763e+07 
+2.1000000000000001e+00 -5.7934475510420980e-01 +7.6277746148648689e+00 +5.7470090769606097e+00 +1.7941165354549511e+01 -2.5891357911326427e+03 -5.0370500015677122e+05 +1.5623229704086373e+07 
+2.1499999999999999e+00 -5.7936143460393652e-01 +7.6286894792097577e+00 +5.7306952101867195e+00 +1.8545400988292911e+01 -2.7075316639290863e+03 -5.0549389380227041e+05 +1.6366495183177359e+07 
+2.2000000000000002e+00 -5.7937844426274865e-01 +7.6296211239942879e+00 +5.7140245448078515e+00 +1.9148179909008622e+01 -2.8247998235562645e+03 -5.0724042529985640e+05 +1.7100166206201438e+07 
+2.2500000000000000e+00 -5.7939578168855610e-01 +7.6305694230658077e+00 +5.6969948138364943e+00 +1.9748883432050071e+01 -2.9408032671184415e+03 -5.0894255633798888e+05 +1.7823537646266934e+07 
+2.2999999999999998e+00 -5.7941344448928556e-01 +7.6315342502733774e+00 +5.6796037465325471e+00 +2.0346892837214359e+01 -3.0554048878784147e+03 -5.1059824839898484e+05 +1.8535903664180525e+07 
+2.3500000000000001e+00 -5.7943143027288491e-01 +7.6325154794636072e+00 +5.6618490793066041e+00 +2.0941589498419571e+01 -3.1684677767055177e+03 -5.1220546365987509e+05 +1.9236559775446210e+07 
+2.3999999999999999e+00 -5.7944973664732935e-01 +7.6335129844885738e+00 +5.6437285415593257e+00 +2.1532354587431577e+01 -3.2798548274118120e+03 -5.1376216269733763e+05 +1.9924800133000027e+07 
+2.4500000000000002e+00 -5.7946836122056822e-01 +7.6345266391960553e+00 +5.6252398660686511e+00 +2.2118569462908976e+01 -3.3894290278098651e+03 -5.1526630760868790e+05 +2.0599919538908552e+07 
+2.5000000000000000e+00 -5.7948730160064199e-01 +7.6355563174374623e+00 +5.6063807853864915e+00 +2.2699615349095595e+01 -3.4970533574541982e+03 -5.1671585942033725e+05 +2.1261212731851231e+07 
+2.5499999999999998e+00 -5.7950655539545259e-01 +7.6366018930639790e+00 +5.5871490307665521e+00 +2.3274873480458769e+01 -3.6025907620144535e+03 -5.1810877919086639e+05 +2.1907974227123834e+07 
+2.6000000000000001e+00 -5.7952612021308891e-01 +7.6376632399270878e+00 +5.5675423346997288e+00 +2.3843725086378264e+01 -3.7059042135322675e+03 -5.1944302795283886e+05 +2.2539498691988643e+07 
+2.6499999999999999e+00 -5.7954599366154880e-01 +7.6387402318818882e+00 +5.5475584322646743e+00 +2.4405551279886033e+01 -3.8068567591947490e+03 -5.2071656586389191e+05 +2.3155081324729513e+07 
+2.7000000000000002e+00 -5.7956617334884675e-01 +7.6398327427777843e+00 +5.5271950545423429e+00 +2.4959733393386017e+01 -3.9053113317835432e+03 -5.2192735480310011e+05 +2.3754016526364047e+07 
+2.7500000000000000e+00 -5.7958665688300270e-01 +7.6409406464712877e+00 +5.5064499323795850e+00 +2.5505652491470435e+01 -4.0011308604431028e+03 -5.2307335451226000e+05 +2.4335598684370738e+07 
+2.7999999999999998e+00 -5.7960744187203650e-01 +7.6420638168169175e+00 +5.4853207997874263e+00 +2.6042689721606415e+01 -4.0941783560638892e+03 -5.2415252539283113e+05 +2.4899122729006395e+07 
+2.8500000000000001e+00 -5.7962852592403558e-01 +7.6432021276694284e+00 +5.4638053914679254e+00 +2.6570226225191565e+01 -4.1843168474148997e+03 -5.2516282779997762e+05 +2.5443883708977625e+07 
+2.8999999999999999e+00 -5.7964990664703053e-01 +7.6443554528844482e+00 +5.4419014354456294e+00 +2.7087643126323954e+01 -4.2714091792300778e+03 -5.2610222200089565e+05 +2.5969175415523492e+07 
+2.9500000000000002e+00 -5.7967158164912136e-01 +7.6455236663187485e+00 +5.4196066709356305e+00 +2.7594321507712152e+01 -4.3553185021829586e+03 -5.2696866791350290e+05 +2.6474293726878919e+07 
+3.0000000000000000e+00 -5.7969354853835986e-01 +7.6467066418290885e+00 +5.3969188266927626e+00 +2.8089642446067863e+01 -4.4359076753233585e+03 -5.2776012537962443e+05 +2.6958532515862409e+07 
+3.0499999999999998e+00 -5.7971580492281038e-01 +7.6479042532734551e+00 +5.3738356376247420e+00 +2.8572986988652243e+01 -4.5130397275659579e+03 -5.2847455406633834e+05 +2.7421186821096156e+07 
+3.1000000000000001e+00 -5.7973834841058047e-01 +7.6491163745113049e+00 +5.3503548353048238e+00 +2.9043736123148182e+01 -4.5865775963393717e+03 -5.2910991314512340e+05 +2.7861551059218209e+07 
+3.1499999999999999e+00 -5.7976117660978155e-01 +7.6503428794017472e+00 +5.3264741550736110e+00 +2.9501270851386007e+01 -4.6563843134797980e+03 -5.2966416190070577e+05 +2.8278920259171773e+07 
+3.2000000000000002e+00 -5.7978428712851260e-01 +7.6515836418033629e+00 +5.3021913293292249e+00 +2.9944972207433750e+01 -4.7223228367789952e+03 -5.3013525991794223e+05 +2.8672588975376271e+07 
+3.2500000000000000e+00 -5.7980767757485874e-01 +7.6528385355782707e+00 +5.2775040915662714e+00 +3.0374221084933602e+01 -4.7842561471085883e+03 -5.3052116564048582e+05 +2.9041851893406987e+07 
+3.2999999999999998e+00 -5.7983134555697013e-01 +7.6541074345868170e+00 +5.2524101755037895e+00 +3.0788398451227618e+01 -4.8420472277569406e+03 -5.3081983813160076e+05 +2.9386003704453785e+07 
+3.3500000000000001e+00 -5.7985528868300817e-01 +7.6553902126920645e+00 +5.2269073161250521e+00 +3.1186885156535858e+01 -4.8955591001496705e+03 -5.3102923547409242e+05 +2.9704339378573086e+07 
+3.3999999999999999e+00 -5.7987950456104487e-01 +7.6566867437555413e+00 +5.2009932461095083e+00 +3.1569062138739017e+01 -4.9446547175562637e+03 -5.3114731656061090e+05 +2.9996153402812127e+07 
+3.4500000000000002e+00 -5.7990399079921973e-01 +7.6579969016416944e+00 +5.1746656988597373e+00 +3.1934310203467213e+01 -4.9891970494640636e+03 -5.3117203916982876e+05 +3.0260740367128070e+07 
+3.5000000000000000e+00 -5.7992874500572233e-01 +7.6593205602136347e+00 +5.1479224111088318e+00 +3.2282010210868997e+01 -5.0290491564285503e+03 -5.3110136153840856e+05 +3.0497395482625548e+07 
+3.5499999999999998e+00 -5.7995376478868488e-01 +7.6606575933386116e+00 +5.1207611129878909e+00 +3.2611542859391648e+01 -5.0640739158128436e+03 -5.3093324061428767e+05 +3.0705412708826516e+07 
+3.6000000000000001e+00 -5.7997904775628006e-01 +7.6620078748788103e+00 +5.0931795408273555e+00 +3.2922289053490388e+01 -5.0941343693550789e+03 -5.3066563505497947e+05 +3.0884087107042179e+07 
+3.6499999999999999e+00 -5.8000459151668959e-01 +7.6633712787032415e+00 +5.0651754321564324e+00 +3.3213629418809326e+01 -5.1190935944469402e+03 -5.3029650124384766e+05 +3.1032713996649601e+07 
+3.6999999999999900e+00 -5.8003039367803444e-01 +7.6647476786770223e+00 +5.0367465168529195e+00 +3.3484944743534463e+01 -5.1388144512466424e+03 -5.2982379693119810e+05 +3.1150587193009272e+07 
+3.7499999999999898e+00 -5.8005645184855492e-01 +7.6661369486672282e+00 +5.0078905310652297e+00 +3.3735615726948893e+01 -5.1531599730638227e+03 -5.2924547914483387e+05 +3.1237001698549360e+07 
+3.7999999999999901e+00 -5.8008276363639411e-01 +7.6675389625462032e+00 +4.9786052123615852e+00 +3.3965022854191083e+01 -5.1619932281052570e+03 -5.2855950316003151e+05 +3.1291252744135454e+07 
+3.8499999999999899e+00 -5.8010932664978188e-01 +7.6689535941808282e+00 +4.9488882928453295e+00 +3.4172546840509305e+01 -5.1651771322255736e+03 -5.2776382621798513e+05 +3.1312634518440410e+07 
+3.8999999999999901e+00 -5.8013613849683121e-01 +7.6703807174390901e+00 +4.9187375080619917e+00 +3.4357568352678186e+01 -5.1625746920784077e+03 -5.2685640515812300e+05 +3.1300441816711001e+07 
+3.9499999999999900e+00 -5.8016319678582673e-01 +7.6718202061949530e+00 +4.8881505934351344e+00 +3.4519467796877706e+01 -5.1540489077063212e+03 -5.2583519468045235e+05 +3.1253969383302756e+07 
+3.9999999999999898e+00 -5.8019049912493015e-01 +7.6732719343180671e+00 +4.8571252868239432e+00 +3.4657625770026669e+01 -5.1394628439126200e+03 -5.2469815111898375e+05 +3.1172512401233453e+07 
+4.0499999999999901e+00 -5.8021804308039049e-01 +7.6747357588224752e+00 +4.8256620720576366e+00 +3.4771670293158117e+01 -5.1187367127787256e+03 -5.2344445584836433e+05 +3.1055681703382112e+07 
+4.0999999999999899e+00 -5.8024582605048614e-01 +7.6762114654742044e+00 +4.7937733818124286e+00 +3.4862204625568808e+01 -5.0920335672597575e+03 -5.2207796618916502e+05 +3.0904422475541774e+07 
+4.1499999999999897e+00 -5.8027384539159987e-01 +7.6776988212508801e+00 +4.7614748774255427e+00 +3.4930070779698774e+01 -5.0595803568190495e+03 -5.2060364438204822e+05 +3.0720028539619222e+07 
+4.1999999999999904e+00 -5.8030209846006509e-01 +7.6791975931299419e+00 +4.7287822213729482e+00 +3.4976110768812731e+01 -5.0216040590880912e+03 -5.1902645275251631e+05 +3.0503793904357478e+07 
+4.2499999999999902e+00 -5.8033058261229276e-01 +7.6807075480889457e+00 +4.6957110754244873e+00 +3.5001166568019769e+01 -4.9783316376016382e+03 -5.1735135321757017e+05 +3.0257012502557378e+07 
+4.2999999999999901e+00 -5.8035929520458218e-01 +7.6822284531051261e+00 +4.6622771011298667e+00 +3.5006080192506062e+01 -4.9299900455457146e+03 -5.1558330815980415e+05 +2.9980978182025336e+07 
+4.3499999999999899e+00 -5.8038823359332570e-01 +7.6837600751532520e+00 +4.6284959624482980e+00 +3.4991693702349281e+01 -4.8768063060813947e+03 -5.1372728014177963e+05 +2.9676985280593779e+07 
+4.3999999999999897e+00 -5.8041739513487445e-01 +7.6853021812103091e+00 +4.5943833208523808e+00 +3.4958849091622795e+01 -4.8190073741241831e+03 -5.1178823133151775e+05 +2.9346327674347814e+07 
+4.4499999999999904e+00 -5.8044677718554738e-01 +7.6868545382472249e+00 +4.5599548379439403e+00 +3.4908388568758028e+01 -4.7568202120722990e+03 -5.0977112556182552e+05 +2.8990299303465817e+07 
+4.4999999999999902e+00 -5.8047637710173017e-01 +7.6884169132390534e+00 +4.5252261766501345e+00 +3.4841154165400511e+01 -4.6904718111767706e+03 -5.0768092522505246e+05 +2.8610194280382220e+07 
+4.5499999999999901e+00 -5.8050619223975097e-01 +7.6899890731595981e+00 +4.4902129966122803e+00 +3.4757987948567241e+01 -4.6201890883689530e+03 -5.0552259299584717e+05 +2.8207306267452616e+07 
+4.5999999999999899e+00 -5.8053621995598925e-01 +7.6915707849765260e+00 +4.4549309608276779e+00 +3.4659732223655034e+01 -4.5461990407465300e+03 -5.0330109350309905e+05 +2.7782929433442105e+07 
+4.6499999999999897e+00 -5.8056645760670367e-01 +7.6931618156629016e+00 +4.4193957320276533e+00 +3.4547229064786947e+01 -4.4687286634373322e+03 -5.0102138946483750e+05 +2.7338357949164197e+07 
+4.6999999999999904e+00 -5.8059690254830998e-01 +7.6947619321878715e+00 +4.3836229711144403e+00 +3.4421320681465609e+01 -4.3880049026961515e+03 -4.9868844469688687e+05 +2.6874885663187776e+07 
+4.7499999999999902e+00 -5.8062755213706729e-01 +7.6963709015190895e+00 +4.3476283374388824e+00 +3.4282849328718825e+01 -4.3042546676665925e+03 -4.9630722335851687e+05 +2.6393806188438501e+07 
+4.7999999999999901e+00 -5.8065840372937372e-01 +7.6979884906236169e+00 +4.3114274952218548e+00 +3.4132657276642497e+01 -4.2177049969529444e+03 -4.9388268976734753e+05 +2.5896414009107638e+07 
+4.8499999999999899e+00 -5.8068945468144428e-01 +7.6996144664686517e+00 +4.2750361024017733e+00 +3.3971586762160605e+01 -4.1285827629330515e+03 -4.9141980790156464e+05 +2.5384002494224664e+07 
+4.8999999999999897e+00 -5.8072070234968887e-01 +7.7012485960174555e+00 +4.2384698216469685e+00 +3.3800480172597105e+01 -4.0371149641963630e+03 -4.8892354301537073e+05 +2.4857865869210597e+07 
+4.9499999999999904e+00 -5.8075214409039211e-01 +7.7028906462360576e+00 +4.2017443153145191e+00 +3.3620179753029262e+01 -3.9435285973700870e+03 -4.8639885912328446e+05 +2.4319298362569433e+07 
+4.9999999999999902e+00 -5.8078377725981190e-01 +7.7045403840837903e+00 +4.1648752411575680e+00 +3.3431528021077256e+01 -3.8480505316207482e+03 -4.8385072254963190e+05 +2.3769593335340749e+07 
+5.0499999999999901e+00 -5.8081559921675185e-01 +7.7061975683384514e+00 +4.1278786879173950e+00 +3.3235358878830390e+01 -3.7509078359562159e+03 -4.8128409665227681e+05 +2.3210045838737525e+07 
