# field on trajectory
# s[mm] rx[mm] ry[mm] rz[mm] bx[T] by[T] bz[T]
-0.0000000000000000e+00 +8.5270000000000206e+00 +0.0000000000000000e+00 -0.0000000000000000e+00 -3.0852155763089608e-02 -5.5146569500066456e-01 +5.5849015505197814e-03
-5.0000000000000003e-02 +8.5269999309457507e+00 +0.0000000000000000e+00 -4.9999999999936401e-02 -3.0852543565180208e-02 -5.5146660069659603e-01 +5.5854733125966184e-03
-1.0000000000000001e-01 +8.5269997237846802e+00 +0.0000000000000000e+00 -9.9999999999491399e-02 -3.0852950617691784e-02 -5.5146785886555894e-01 +5.5860474560356478e-03
-1.4999999999999999e-01 +8.5269993785186706e+00 +0.0000000000000000e+00 -1.4999999999828301e-01 -3.0853376886255945e-02 -5.5146946875277758e-01 +5.5866238448099102e-03
-2.0000000000000001e-01 +8.5269988951477007e+00 +0.0000000000000000e+00 -1.9999999999593099e-01 -3.0853822336505431e-02 -5.5147142960350604e-01 +5.5872023428927033e-03
-2.5000000000000000e-01 +8.5269982736681396e+00 +0.0000000000000000e+00 -2.4999999999205300e-01 -3.0854286934074795e-02 -5.5147374066304056e-01 +5.5877828142577171e-03
-2.9999999999999999e-01 +8.5269975140799907e+00 +0.0000000000000000e+00 -2.9999999998626697e-01 -3.0854770644597768e-02 -5.5147640117666652e-01 +5.5883651228784198e-03
-3.4999999999999998e-01 +8.5269966163905302e+00 +0.0000000000000000e+00 -3.4999999997819298e-01 -3.0855273433705942e-02 -5.5147941038963355e-01 +5.5889491327277500e-03
-4.0000000000000002e-01 +8.5269955805888493e+00 +0.0000000000000000e+00 -3.9999999996744801e-01 -3.0855795267038268e-02 -5.5148276754733805e-01 +5.5895347077801385e-03
-4.5000000000000001e-01 +8.5269944066858407e+00 +0.0000000000000000e+00 -4.4999999995365197e-01 -3.0856336110226194e-02 -5.5148647189503441e-01 +5.5901217120082718e-03
-5.0000000000000000e-01 +8.5269930946742498e+00 +0.0000000000000000e+00 -4.9999999993642202e-01 -3.0856895928908636e-02 -5.5149052267812371e-01 +5.5907100093862822e-03
-5.5000000000000004e-01 +8.5269916445577092e+00 +0.0000000000000000e+00 -5.4999999991537796e-01 -3.0857474688721138e-02 -5.5149491914194448e-01 +5.5912994638873930e-03
-5.9999999999999998e-01 +8.5269900563289394e+00 +0.0000000000000000e+00 -5.9999999989013697e-01 -3.0858072355304102e-02 -5.5149966053192967e-01 +5.5918899394856595e-03
-6.5000000000000002e-01 +8.5269883299988596e+00 +0.0000000000000000e+00 -6.4999999986031898e-01 -3.0858688894291927e-02 -5.5150474609339506e-01 +5.5924813001535876e-03
-6.9999999999999996e-01 +8.5269864655601904e+00 +0.0000000000000000e+00 -6.9999999982554195e-01 -3.0859324271326601e-02 -5.5151017507180344e-01 +5.5930734098650434e-03
-7.5000000000000000e-01 +8.5269844630165608e+00 +0.0000000000000000e+00 -7.4999999978542398e-01 -3.0859978452046966e-02 -5.5151594671255511e-01 +5.5936661325929147e-03
-8.0000000000000004e-01 +8.5269823223679904e+00 +0.0000000000000000e+00 -7.9999999973958402e-01 -3.0860651402094104e-02 -5.5152206026109007e-01 +5.5942593323102235e-03
-8.4999999999999998e-01 +8.5269800436108198e+00 +0.0000000000000000e+00 -8.4999999968764095e-01 -3.0861343087111418e-02 -5.5152851496289113e-01 +5.5948528729901324e-03
-9.0000000000000002e-01 +8.5269776267450705e+00 +0.0000000000000000e+00 -8.9999999962921295e-01 -3.0862053472741950e-02 -5.5153531006342882e-01 +5.5954466186053306e-03
-9.4999999999999996e-01 +8.5269750717743609e+00 +0.0000000000000000e+00 -9.4999999956391801e-01 -3.0862782524628395e-02 -5.5154244480816217e-01 +5.5960404331279988e-03
-1.0000000000000000e+00 +8.5269723786986997e+00 +0.0000000000000000e+00 -9.9999999949137597e-01 -3.0863530208415910e-02 -5.5154991844259149e-01 +5.5966341805303924e-03
-1.0500000000000000e+00 +8.5269695475144491e+00 +0.0000000000000000e+00 -1.0499999994111999e+00 -3.0864296489752086e-02 -5.5155773021225818e-01 +5.5972277247848109e-03
-1.1000000000000001e+00 +8.5269665782288904e+00 +0.0000000000000000e+00 -1.0999999993230201e+00 -3.0865081334281657e-02 -5.5156587936263901e-01 +5.5978209298624040e-03
-1.1499999999999999e+00 +8.5269634708311095e+00 +0.0000000000000000e+00 -1.1499999992264500e+00 -3.0865884707657245e-02 -5.5157436513935731e-01 +5.5984136597355006e-03
-1.2000000000000000e+00 +8.5269602253283701e+00 +0.0000000000000000e+00 -1.1999999991210999e+00 -3.0866706575525992e-02 -5.5158318678791818e-01 +5.5990057783746492e-03
-1.2500000000000000e+00 +8.5269568417206791e+00 +0.0000000000000000e+00 -1.2499999990065900e+00 -3.0867546903539003e-02 -5.5159234355389486e-01 +5.5995971497506472e-03
-1.3000000000000000e+00 +8.5269533200044005e+00 +0.0000000000000000e+00 -1.2999999988825499e+00 -3.0868405657350016e-02 -5.5160183468290025e-01 +5.6001876378342459e-03
-1.3500000000000001e+00 +8.5269496601795307e+00 +0.0000000000000000e+00 -1.3499999987485900e+00 -3.0869282802612818e-02 -5.5161165942053536e-01 +5.6007771065955088e-03
-1.3999999999999999e+00 +8.5269458622533403e+00 +0.0000000000000000e+00 -1.3999999986043401e+00 -3.0870178304979855e-02 -5.5162181701236290e-01 +5.6013654200035264e-03
-1.4500000000000000e+00 +8.5269419262185693e+00 +0.0000000000000000e+00 -1.4499999984494001e+00 -3.0871092130110387e-02 -5.5163230670406405e-01 +5.6019524420281375e-03
-1.5000000000000000e+00 +8.5269378520752106e+00 +0.0000000000000000e+00 -1.4999999982833900e+00 -3.0872024243662470e-02 -5.5164312774128188e-01 +5.6025380366381645e-03
-1.5500000000000000e+00 +8.5269336398268898e+00 +0.0000000000000000e+00 -1.5499999981059500e+00 -3.0872974611294329e-02 -5.5165427936964651e-01 +5.6031220678016665e-03
-1.6000000000000001e+00 +8.5269292894736299e+00 +0.0000000000000000e+00 -1.5999999979166799e+00 -3.0873943198667035e-02 -5.5166576083482810e-01 +5.6037043994865057e-03
-1.6499999999999999e+00 +8.5269248010117700e+00 +0.0000000000000000e+00 -1.6499999977152000e+00 -3.0874929971444667e-02 -5.5167757138253737e-01 +5.6042848956603551e-03
-1.7000000000000000e+00 +8.5269201744449692e+00 +0.0000000000000000e+00 -1.6999999975011300e+00 -3.0875934895290162e-02 -5.5168971025844471e-01 +5.6048634202897490e-03
-1.7500000000000000e+00 +8.5269154097695701e+00 +0.0000000000000000e+00 -1.7499999972740901e+00 -3.0876957935870884e-02 -5.5170217670828781e-01 +5.6054398373412860e-03
-1.8000000000000000e+00 +8.5269105069892195e+00 +0.0000000000000000e+00 -1.7999999970336999e+00 -3.0877999058853165e-02 -5.5171496997776404e-01 +5.6060140107803916e-03
-1.8500000000000001e+00 +8.5269054661039299e+00 +0.0000000000000000e+00 -1.8499999967795799e+00 -3.0879058229906428e-02 -5.5172808931261075e-01 +5.6065858045721978e-03
-1.8999999999999999e+00 +8.5269002871100401e+00 +0.0000000000000000e+00 -1.8999999965113501e+00 -3.0880135414703292e-02 -5.5174153395860481e-01 +5.6071550826815326e-03
-1.9500000000000000e+00 +8.5268949700112007e+00 +0.0000000000000000e+00 -1.9499999962286201e+00 -3.0881230578915422e-02 -5.5175530316148336e-01 +5.6077217090719795e-03
-2.0000000000000000e+00 +8.5268895148037700e+00 +0.0000000000000000e+00 -1.9999999959310100e+00 -3.0882343688219110e-02 -5.5176939616704956e-01 +5.6082855477070830e-03
-2.0499999999999998e+00 +8.5268839213858900e+00 +0.0000000000000000e+00 -2.0499999956181298e+00 -3.0883474694548947e-02 -5.5178381204275040e-01 +5.6088464723667159e-03
-2.1000000000000001e+00 +8.5268781896593300e+00 +0.0000000000000000e+00 -2.0999999952895898e+00 -3.0884623494719061e-02 -5.5179854913969217e-01 +5.6094043960657524e-03
-2.1499999999999999e+00 +8.5268723196240899e+00 +0.0000000000000000e+00 -2.1499999949449999e+00 -3.0885789971727379e-02 -5.5181360562919513e-01 +5.6099592416194643e-03
-2.2000000000000002e+00 +8.5268663112729008e+00 +0.0000000000000000e+00 -2.1999999945839801e+00 -3.0886974008574996e-02 -5.5182897968264266e-01 +5.6105109318432241e-03
-2.2500000000000000e+00 +8.5268601646093902e+00 +0.0000000000000000e+00 -2.2499999942061502e+00 -3.0888175488259343e-02 -5.5184466947134936e-01 +5.6110593895509929e-03
-2.2999999999999998e+00 +8.5268538796335598e+00 +0.0000000000000000e+00 -2.2999999938111202e+00 -3.0889394293779533e-02 -5.5186067316666487e-01 +5.6116045375565081e-03
-2.3500000000000001e+00 +8.5268474563490599e+00 +0.0000000000000000e+00 -2.3499999933985198e+00 -3.0890630308133615e-02 -5.5187698893992243e-01 +5.6121462986726753e-03
-2.3999999999999999e+00 +8.5268408947522403e+00 +0.0000000000000000e+00 -2.3999999929679601e+00 -3.0891883414322637e-02 -5.5189361496251732e-01 +5.6126845957124678e-03
-2.4500000000000002e+00 +8.5268341948467405e+00 +0.0000000000000000e+00 -2.4499999925190501e+00 -3.0893153495345094e-02 -5.5191054940580109e-01 +5.6132193514877096e-03
-2.5000000000000000e+00 +8.5268273566252901e+00 +0.0000000000000000e+00 -2.4999999920514302e+00 -3.0894440434203717e-02 -5.5192779044121298e-01 +5.6137504888105639e-03
-2.5499999999999998e+00 +8.5268203800987994e+00 +0.0000000000000000e+00 -2.5499999915646900e+00 -3.0895744113894560e-02 -5.5194533624006847e-01 +5.6142779304911416e-03
-2.6000000000000001e+00 +8.5268132652563509e+00 +0.0000000000000000e+00 -2.5999999910584699e+00 -3.0897064417421877e-02 -5.5196318497385077e-01 +5.6148015993407723e-03
-2.6499999999999999e+00 +8.5268060121015896e+00 +0.0000000000000000e+00 -2.6499999905323701e+00 -3.0898401227784495e-02 -5.5198133481394440e-01 +5.6153214181690189e-03
-2.7000000000000002e+00 +8.5267986206345103e+00 +0.0000000000000000e+00 -2.6999999899860101e+00 -3.0899754427982529e-02 -5.5199978393176885e-01 +5.6158373097851353e-03
-2.7500000000000000e+00 +8.5267910908551094e+00 +0.0000000000000000e+00 -2.7499999894190199e+00 -3.0901123901016066e-02 -5.5201853049875105e-01 +5.6163491969978023e-03
-2.7999999999999998e+00 +8.5267834227670392e+00 +0.0000000000000000e+00 -2.7999999888310101e+00 -3.0902509529883618e-02 -5.5203757268629838e-01 +5.6168570026147776e-03
-2.8500000000000001e+00 +8.5267756163666508e+00 +0.0000000000000000e+00 -2.8499999882215898e+00 -3.0903911197586297e-02 -5.5205690866587864e-01 +5.6173606494438148e-03
-2.8999999999999999e+00 +8.5267676716539391e+00 +0.0000000000000000e+00 -2.8999999875903901e+00 -3.0905328787123581e-02 -5.5207653660894040e-01 +5.6178600602917505e-03
-2.9500000000000002e+00 +8.5267595886289200e+00 +0.0000000000000000e+00 -2.9499999869370299e+00 -3.0906762181494671e-02 -5.5209645468693858e-01 +5.6183551579647760e-03
-3.0000000000000000e+00 +8.5267513672915793e+00 +0.0000000000000000e+00 -2.9999999862611100e+00 -3.0908211263698429e-02 -5.5211666107133461e-01 +5.6188458652684592e-03
-3.0499999999999998e+00 +8.5267430076455604e+00 +0.0000000000000000e+00 -3.0499999855622502e+00 -3.0909675916732007e-02 -5.5213715393356921e-01 +5.6193321050074180e-03
-3.1000000000000001e+00 +8.5267345096872305e+00 +0.0000000000000000e+00 -3.0999999848400801e+00 -3.0911156023594802e-02 -5.5215793144514314e-01 +5.6198137999862079e-03
-3.1499999999999999e+00 +8.5267258734165807e+00 +0.0000000000000000e+00 -3.1499999840942201e+00 -3.0912651467284398e-02 -5.5217899177753549e-01 +5.6202908730084320e-03
-3.2000000000000002e+00 +8.5267170988336094e+00 +0.0000000000000000e+00 -3.1999999833242700e+00 -3.0914162130797864e-02 -5.5220033310223127e-01 +5.6207632468770162e-03
-3.2500000000000000e+00 +8.5267081859419704e+00 +0.0000000000000000e+00 -3.2499999825298600e+00 -3.0915687897130301e-02 -5.5222195359069426e-01 +5.6212308443939069e-03
-3.2999999999999998e+00 +8.5266991347380099e+00 +0.0000000000000000e+00 -3.2999999817106000e+00 -3.0917228649278948e-02 -5.5224385141444621e-01 +5.6216935883609646e-03
-3.3500000000000001e+00 +8.5266899452181004e+00 +0.0000000000000000e+00 -3.3499999808661101e+00 -3.0918784270240328e-02 -5.5226602474501374e-01 +5.6221514015793502e-03
-3.3999999999999999e+00 +8.5266806173895002e+00 +0.0000000000000000e+00 -3.3999999799960099e+00 -3.0920354643006204e-02 -5.5228847175384943e-01 +5.6226042068486257e-03
-3.4500000000000002e+00 +8.5266711512522306e+00 +0.0000000000000000e+00 -3.4499999790999101e+00 -3.0921939650570274e-02 -5.5231119061246181e-01 +5.6230519269682318e-03
-3.5000000000000000e+00 +8.5266615468026394e+00 +0.0000000000000000e+00 -3.4999999781774398e+00 -3.0923539175926752e-02 -5.5233417949239105e-01 +5.6234944847371928e-03
-3.5499999999999998e+00 +8.5266518040407409e+00 +0.0000000000000000e+00 -3.5499999772282100e+00 -3.0925153102067681e-02 -5.5235743656515446e-01 +5.6239318029535027e-03
-3.6000000000000001e+00 +8.5266419229665207e+00 +0.0000000000000000e+00 -3.5999999762518402e+00 -3.0926781311984161e-02 -5.5238096000227321e-01 +5.6243638044144208e-03
-3.6499999999999999e+00 +8.5266319035799807e+00 +0.0000000000000000e+00 -3.6499999752479400e+00 -3.0928423688666301e-02 -5.5240474797527139e-01 +5.6247904119164542e-03
-3.6999999999999900e+00 +8.5266217458847695e+00 +0.0000000000000000e+00 -3.6999999742161398e+00 -3.0930080115101892e-02 -5.5242879865565087e-01 +5.6252115482550557e-03
-3.7499999999999898e+00 +8.5266114498736005e+00 +0.0000000000000000e+00 -3.7499999731560498e+00 -3.0931750474281736e-02 -5.5245311021499555e-01 +5.6256271362258208e-03
-3.7999999999999901e+00 +8.5266010155537497e+00 +0.0000000000000000e+00 -3.7999999720672801e+00 -3.0933434649190045e-02 -5.5247768082478554e-01 +5.6260370986223685e-03
-3.8499999999999899e+00 +8.5265904429179500e+00 +0.0000000000000000e+00 -3.8499999709494599e+00 -3.0935132522815382e-02 -5.5250250865661077e-01 +5.6264413582387401e-03
-3.8999999999999901e+00 +8.5265797319771099e+00 +0.0000000000000000e+00 -3.8999999698022001e+00 -3.0936843978138208e-02 -5.5252759188192935e-01 +5.6268398378666821e-03
-3.9499999999999900e+00 +8.5265688827203103e+00 +0.0000000000000000e+00 -3.9499999686251202e+00 -3.0938568898146022e-02 -5.5255292867236239e-01 +5.6272324602989606e-03
-3.9999999999999898e+00 +8.5265578951548395e+00 +0.0000000000000000e+00 -3.9999999674178399e+00 -3.0940307165818099e-02 -5.5257851719939877e-01 +5.6276191483260168e-03
-4.0499999999999901e+00 +8.5265467692734092e+00 +0.0000000000000000e+00 -4.0499999661799704e+00 -3.0942058654973594e-02 -5.5260435545561870e-01 +5.6279998387719883e-03
-4.0999999999999899e+00 +8.5265355050833005e+00 +0.0000000000000000e+00 -4.0999999649111301e+00 -3.0943823202768117e-02 -5.5263044071742662e-01 +5.6283745245925294e-03
-4.1499999999999897e+00 +8.5265241025808791e+00 +0.0000000000000000e+00 -4.1499999636109504e+00 -3.0945600637197108e-02 -5.5265677008228931e-01 +5.6287432127775112e-03
-4.1999999999999904e+00 +8.5265125617697795e+00 +0.0000000000000000e+00 -4.1999999622790298e+00 -3.0947390786253571e-02 -5.5268334064762126e-01 +5.6291059103162821e-03
-4.2499999999999902e+00 +8.5265008826427202e+00 +0.0000000000000000e+00 -4.2499999609149901e+00 -3.0949193477934799e-02 -5.5271014951091624e-01 +5.6294626241991724e-03
-4.2999999999999901e+00 +8.5264890652069898e+00 +0.0000000000000000e+00 -4.2999999595184599e+00 -3.0951008540232895e-02 -5.5273719376956187e-01 +5.6298133614154080e-03
-4.3499999999999899e+00 +8.5264771094589396e+00 +0.0000000000000000e+00 -4.3499999580890396e+00 -3.0952835801144291e-02 -5.5276447052102629e-01 +5.6301581289552385e-03
-4.3999999999999897e+00 +8.5264650153985695e+00 +0.0000000000000000e+00 -4.3999999566263703e+00 -3.0954675088664299e-02 -5.5279197686274861e-01 +5.6304969338087556e-03
-4.4499999999999904e+00 +8.5264527830295300e+00 +0.0000000000000000e+00 -4.4499999551300400e+00 -3.0956526230787120e-02 -5.5281970989214224e-01 +5.6308297829659017e-03
-4.4999999999999902e+00 +8.5264404123481707e+00 +0.0000000000000000e+00 -4.4999999535996897e+00 -3.0958389055509947e-02 -5.5284766670667251e-01 +5.6311566834174043e-03
-4.5499999999999901e+00 +8.5264279033544899e+00 +0.0000000000000000e+00 -4.5499999520349199e+00 -3.0960263390828861e-02 -5.5287584440377624e-01 +5.6314776421538754e-03
-4.5999999999999899e+00 +8.5264152560448601e+00 +0.0000000000000000e+00 -4.5999999504353601e+00 -3.0962149064741547e-02 -5.5290424008091599e-01 +5.6317926661664458e-03
-4.6499999999999897e+00 +8.5264024704301793e+00 +0.0000000000000000e+00 -4.6499999488006196e+00 -3.0964045905240510e-02 -5.5293285083544619e-01 +5.6321017624452680e-03
-4.6999999999999904e+00 +8.5263895464995603e+00 +0.0000000000000000e+00 -4.6999999471303298e+00 -3.0965953740326700e-02 -5.5296167376487804e-01 +5.6324049379825481e-03
-4.7499999999999902e+00 +8.5263764842602505e+00 +0.0000000000000000e+00 -4.7499999454240900e+00 -3.0967872397994506e-02 -5.5299070596658872e-01 +5.6327021997692600e-03
-4.7999999999999901e+00 +8.5263632837050007e+00 +0.0000000000000000e+00 -4.7999999436815299e+00 -3.0969801706244061e-02 -5.5301994453805869e-01 +5.6329935547978658e-03
-4.8499999999999899e+00 +8.5263499448447000e+00 +0.0000000000000000e+00 -4.8499999419022597e+00 -3.0971741493068909e-02 -5.5304938657663305e-01 +5.6332790100596178e-03
-4.8999999999999897e+00 +8.5263364676684397e+00 +0.0000000000000000e+00 -4.8999999400859000e+00 -3.0973691586471109e-02 -5.5307902917981311e-01 +5.6335585725479052e-03
-4.9499999999999904e+00 +8.5263228521798702e+00 +0.0000000000000000e+00 -4.9499999382320699e+00 -3.0975651814447488e-02 -5.5310886944499105e-01 +5.6338322492552450e-03
-4.9999999999999902e+00 +8.5263090983826295e+00 +0.0000000000000000e+00 -4.9999999363403900e+00 -3.0977622004995157e-02 -5.5313890446955516e-01 +5.6341000471745173e-03
-5.0499999999999901e+00 +8.5262952059529198e+00 +0.0000000000000000e+00 -5.0499999344103799e+00 -3.0979601986235113e-02 -5.5316913135329393e-01 +5.6343619733262443e-03
-5.0999999999999899e+00 +8.5262811745706095e+00 +0.0000000000000000e+00 -5.0999999324415599e+00 -3.0981591586287348e-02 -5.5319954719596598e-01 +5.6346180347310358e-03
-5.1499999999999897e+00 +8.5262670042357094e+00 +0.0000000000000000e+00 -5.1499999304335597e+00 -3.0983590633151387e-02 -5.5323014909497881e-01 +5.6348682383832657e-03
-5.1999999999999904e+00 +8.5262526949518396e+00 +0.0000000000000000e+00 -5.1999999283859903e+00 -3.0985598954825652e-02 -5.5326093414770683e-01 +5.6351125912774344e-03
-5.2499999999999902e+00 +8.5262382467153692e+00 +0.0000000000000000e+00 -5.2499999262984600e+00 -3.0987616379311619e-02 -5.5329189945157475e-01 +5.6353511004090893e-03
-5.2999999999999901e+00 +8.5262236595299292e+00 +0.0000000000000000e+00 -5.2999999241705797e+00 -3.0989642734608292e-02 -5.5332304210394778e-01 +5.6355837727736415e-03
-5.3499999999999899e+00 +8.5262089333882596e+00 +0.0000000000000000e+00 -5.3499999220019703e+00 -3.0991677848719125e-02 -5.5335435920226772e-01 +5.6358106153678970e-03
-5.3999999999999897e+00 +8.5261940682976292e+00 +0.0000000000000000e+00 -5.3999999197922497e+00 -3.0993721549642323e-02 -5.5338584784386224e-01 +5.6360316351879557e-03
-5.4499999999999904e+00 +8.5261790642507496e+00 +0.0000000000000000e+00 -5.4499999175410201e+00 -3.0995773665381924e-02 -5.5341750512616183e-01 +5.6362468392316400e-03
-5.4999999999999902e+00 +8.5261639212585596e+00 +0.0000000000000000e+00 -5.4999999152479004e+00 -3.0997834023935428e-02 -5.5344932814645686e-01 +5.6364562344958079e-03
-5.5499999999999901e+00 +8.5261486393137602e+00 +0.0000000000000000e+00 -5.5499999129125097e+00 -3.0999902453307436e-02 -5.5348131400216505e-01 +5.6366598279793843e-03
-5.5999999999999899e+00 +8.5261332184127205e+00 +0.0000000000000000e+00 -5.5999999105344500e+00 -3.1001978781501561e-02 -5.5351345979067224e-01 +5.6368576266815741e-03
-5.6499999999999897e+00 +8.5261176585627307e+00 +0.0000000000000000e+00 -5.6499999081133403e+00 -3.1004062836517542e-02 -5.5354576260927602e-01 +5.6370496376012529e-03
-5.6999999999999904e+00 +8.5261019597637606e+00 +0.0000000000000000e+00 -5.6999999056488004e+00 -3.1006154446358226e-02 -5.5357821955532127e-01 +5.6372358677385364e-03
-5.7499999999999902e+00 +8.5260861220122006e+00 +0.0000000000000000e+00 -5.7499999031404396e+00 -3.1008253439028119e-02 -5.5361082772617243e-01 +5.6374163240944537e-03
-5.7999999999999901e+00 +8.5260701453080401e+00 +0.0000000000000000e+00 -5.7999999005878804e+00 -3.1010359642530707e-02 -5.5364358421916038e-01 +5.6375910136703964e-03
-5.8499999999999899e+00 +8.5260540296512808e+00 +0.0000000000000000e+00 -5.8499998979907204e+00 -3.1012472884869753e-02 -5.5367648613160769e-01 +5.6377599434684154e-03
