# field on trajectory
# s[mm] rx[mm] ry[mm] rz[mm] bx[T] by[T] bz[T]
0.0000000000000000e+00 +8.5389999999999997e+00 +0.0000000000000000e+00 +0.0000000000000000e+00 -3.0368682056554869e-02 -5.7729586257905963e-01 +5.5447320317775521e-03
5.0000000000000003e-02 +8.5389999310440636e+00 +0.0000000000000000e+00 +4.9999999999936595e-02 -3.0368898234377904e-02 -5.7729213912281019e-01 +5.5433652655086964e-03
1.0000000000000001e-01 +8.5389997241768327e+00 +0.0000000000000000e+00 +9.9999999999492800e-02 -3.0369141538431586e-02 -5.7728880780055070e-01 +5.5420062566364911e-03
1.5000000000000002e-01 +8.5389993793991028e+00 +0.0000000000000000e+00 +1.4999999999828822e-01 -3.0369411837956828e-02 -5.7728586839732032e-01 +5.5406551082099768e-03
2.0000000000000001e-01 +8.5389988967115773e+00 +0.0000000000000000e+00 +1.9999999999594251e-01 -3.0369709002195967e-02 -5.7728332069817712e-01 +5.5393119232786114e-03
2.5000000000000000e-01 +8.5389982761148637e+00 +0.0000000000000000e+00 +2.4999999999207526e-01 -3.0370032900392790e-02 -5.7728116448819722e-01 +5.5379768048922908e-03
2.9999999999999999e-01 +8.5389975176094772e+00 +0.0000000000000000e+00 +2.9999999998630611e-01 -3.0370383401792447e-02 -5.7727939955247587e-01 +5.5366498561013403e-03
3.4999999999999998e-01 +8.5389966211958388e+00 +0.0000000000000000e+00 +3.4999999997825471e-01 -3.0370760375641511e-02 -5.7727802567612618e-01 +5.5353311799565541e-03
3.9999999999999997e-01 +8.5389955868742771e+00 +0.0000000000000000e+00 +3.9999999996754065e-01 -3.0371163691187902e-02 -5.7727704264427981e-01 +5.5340208795091909e-03
4.4999999999999996e-01 +8.5389944146450283e+00 +0.0000000000000000e+00 +4.4999999995378359e-01 -3.0371593217680917e-02 -5.7727645024208651e-01 +5.5327190578110010e-03
4.9999999999999994e-01 +8.5389931045082328e+00 +0.0000000000000000e+00 +4.9999999993660316e-01 -3.0372048824371174e-02 -5.7727624825471435e-01 +5.5314258179142324e-03
5.4999999999999993e-01 +8.5389916564639385e+00 +0.0000000000000000e+00 +5.4999999991561899e-01 -3.0372530380510656e-02 -5.7727643646734939e-01 +5.5301412628716417e-03
5.9999999999999998e-01 +8.5389900705121011e+00 +0.0000000000000000e+00 +5.9999999989045072e-01 -3.0373037755352605e-02 -5.7727701466519554e-01 +5.5288654957365230e-03
6.5000000000000002e-01 +8.5389883466525820e+00 +0.0000000000000000e+00 +6.4999999986071799e-01 -3.0373570818151605e-02 -5.7727798263347430e-01 +5.5275986195627066e-03
7.0000000000000007e-01 +8.5389864848851502e+00 +0.0000000000000000e+00 +6.9999999982604033e-01 -3.0374129438163526e-02 -5.7727934015742632e-01 +5.5263407374045847e-03
7.5000000000000011e-01 +8.5389844852094807e+00 +0.0000000000000000e+00 +7.4999999978603749e-01 -3.0374713484645478e-02 -5.7728108702230840e-01 +5.5250919523171125e-03
8.0000000000000016e-01 +8.5389823476251578e+00 +0.0000000000000000e+00 +7.9999999974032898e-01 -3.0375322826855823e-02 -5.7728322301339530e-01 +5.5238523673558334e-03
8.5000000000000020e-01 +8.5389800721316700e+00 +0.0000000000000000e+00 +8.4999999968853446e-01 -3.0375957334054175e-02 -5.7728574791597942e-01 +5.5226220855768872e-03
9.0000000000000024e-01 +8.5389776587284150e+00 +0.0000000000000000e+00 +8.9999999963027344e-01 -3.0376616875501396e-02 -5.7728866151537139e-01 +5.5214012100370333e-03
9.5000000000000029e-01 +8.5389751074146965e+00 +0.0000000000000000e+00 +9.4999999956516556e-01 -3.0377301320459498e-02 -5.7729196359689783e-01 +5.5201898437936478e-03
1.0000000000000002e+00 +8.5389724181897257e+00 +0.0000000000000000e+00 +9.9999999949283036e-01 -3.0378010538191749e-02 -5.7729565394590421e-01 +5.5189880899047580e-03
1.0500000000000003e+00 +8.5389695910526200e+00 +0.0000000000000000e+00 +1.0499999994128875e+00 -3.0378744397962527e-02 -5.7729973234775123e-01 +5.5177960514290383e-03
1.1000000000000003e+00 +8.5389666260024057e+00 +0.0000000000000000e+00 +1.0999999993249563e+00 -3.0379502769037458e-02 -5.7730419858781823e-01 +5.5166138314258336e-03
1.1500000000000004e+00 +8.5389635230380172e+00 +0.0000000000000000e+00 +1.1499999992286565e+00 -3.0380285520683233e-02 -5.7730905245150099e-01 +5.5154415329551768e-03
1.2000000000000004e+00 +8.5389602821582926e+00 +0.0000000000000000e+00 +1.1999999991236077e+00 -3.0381092522167721e-02 -5.7731429372421239e-01 +5.5142792590777926e-03
1.2500000000000004e+00 +8.5389569033619814e+00 +0.0000000000000000e+00 +1.2499999990094293e+00 -3.0381923642759906e-02 -5.7731992219138151e-01 +5.5131271128551207e-03
1.3000000000000005e+00 +8.5389533866477390e+00 +0.0000000000000000e+00 +1.2999999988857407e+00 -3.0382778751729868e-02 -5.7732593763845530e-01 +5.5119851973493197e-03
1.3500000000000005e+00 +8.5389497320141281e+00 +0.0000000000000000e+00 +1.3499999987521614e+00 -3.0383657718348795e-02 -5.7733233985089638e-01 +5.5108536156233019e-03
1.4000000000000006e+00 +8.5389459394596194e+00 +0.0000000000000000e+00 +1.3999999986083109e+00 -3.0384560411888896e-02 -5.7733912861418435e-01 +5.5097324707407162e-03
1.4500000000000006e+00 +8.5389420089825911e+00 +0.0000000000000000e+00 +1.4499999984538086e+00 -3.0385486701623499e-02 -5.7734630371381523e-01 +5.5086218657659919e-03
1.5000000000000007e+00 +8.5389379405813290e+00 +0.0000000000000000e+00 +1.4999999982882739e+00 -3.0386436456826951e-02 -5.7735386493530128e-01 +5.5075219037643347e-03
1.5500000000000007e+00 +8.5389337342540266e+00 +0.0000000000000000e+00 +1.5499999981113262e+00 -3.0387409546774605e-02 -5.7736181206417125e-01 +5.5064326878017465e-03
1.6000000000000008e+00 +8.5389293899987866e+00 +0.0000000000000000e+00 +1.5999999979225847e+00 -3.0388405840742882e-02 -5.7737014488597005e-01 +5.5053543209450384e-03
1.6500000000000008e+00 +8.5389249078136160e+00 +0.0000000000000000e+00 +1.6499999977216691e+00 -3.0389425208009156e-02 -5.7737886318625919e-01 +5.5042869062618561e-03
1.7000000000000008e+00 +8.5389202876964347e+00 +0.0000000000000000e+00 +1.6999999975081983e+00 -3.0390467517851787e-02 -5.7738796675061510e-01 +5.5032305468206665e-03
1.7500000000000009e+00 +8.5389155296450667e+00 +0.0000000000000000e+00 +1.7499999972817919e+00 -3.0391532639550130e-02 -5.7739745536463105e-01 +5.5021853456908012e-03
1.8000000000000009e+00 +8.5389106336572453e+00 +0.0000000000000000e+00 +1.7999999970420690e+00 -3.0392620442384478e-02 -5.7740732881391621e-01 +5.5011514059424551e-03
1.8500000000000010e+00 +8.5389055997306116e+00 +0.0000000000000000e+00 +1.8499999967886489e+00 -3.0393730795636068e-02 -5.7741758688409472e-01 +5.5001288306467050e-03
1.9000000000000010e+00 +8.5389004278627159e+00 +0.0000000000000000e+00 +1.8999999965211509e+00 -3.0394863568587047e-02 -5.7742822936080773e-01 +5.4991177228755168e-03
1.9500000000000011e+00 +8.5388951180510162e+00 +0.0000000000000000e+00 +1.9499999962391941e+00 -3.0396018630520494e-02 -5.7743925602971080e-01 +5.4981181857017766e-03
2.0000000000000009e+00 +8.5388896702928765e+00 +0.0000000000000000e+00 +1.9999999959423975e+00 -3.0397195850720357e-02 -5.7745066667647504e-01 +5.4971303221992814e-03
2.0500000000000007e+00 +8.5388840845855718e+00 +0.0000000000000000e+00 +2.0499999956303805e+00 -3.0398395116128973e-02 -5.7746246076797791e-01 +5.4961542246962326e-03
2.1000000000000005e+00 +8.5388783609262848e+00 +0.0000000000000000e+00 +2.0999999953027619e+00 -3.0399616384319452e-02 -5.7747463649586872e-01 +5.4951899425354674e-03
2.1500000000000004e+00 +8.5388724993121077e+00 +0.0000000000000000e+00 +2.1499999949591611e+00 -3.0400859630523282e-02 -5.7748719173300089e-01 +5.4942375143139819e-03
2.2000000000000002e+00 +8.5388664997400401e+00 +0.0000000000000000e+00 +2.1999999945991964e+00 -3.0402124829972805e-02 -5.7750012435224118e-01 +5.4932969786294231e-03
2.2500000000000000e+00 +8.5388603622069930e+00 +0.0000000000000000e+00 +2.2499999942224873e+00 -3.0403411957901218e-02 -5.7751343222647022e-01 +5.4923683740801038e-03
2.2999999999999998e+00 +8.5388540867097866e+00 +0.0000000000000000e+00 +2.2999999938286528e+00 -3.0404720989542569e-02 -5.7752711322858086e-01 +5.4914517392649917e-03
2.3499999999999996e+00 +8.5388476732451544e+00 +0.0000000000000000e+00 +2.3499999934173115e+00 -3.0406051900131705e-02 -5.7754116523148047e-01 +5.4905471127837122e-03
2.3999999999999995e+00 +8.5388411218097371e+00 +0.0000000000000000e+00 +2.3999999929880826e+00 -3.0407404664904297e-02 -5.7755558610808821e-01 +5.4896545332365331e-03
2.4499999999999993e+00 +8.5388344324000922e+00 +0.0000000000000000e+00 +2.4499999925405849e+00 -3.0408779259096800e-02 -5.7757037373133646e-01 +5.4887740392243773e-03
2.4999999999999991e+00 +8.5388276050126848e+00 +0.0000000000000000e+00 +2.4999999920744367e+00 -3.0410175657946466e-02 -5.7758552597416990e-01 +5.4879056693488033e-03
2.5499999999999989e+00 +8.5388206396438964e+00 +0.0000000000000000e+00 +2.5499999915892571e+00 -3.0411593836691300e-02 -5.7760104070954565e-01 +5.4870494622120168e-03
2.5999999999999988e+00 +8.5388135362900215e+00 +0.0000000000000000e+00 +2.5999999910846650e+00 -3.0413033770570096e-02 -5.7761691581043351e-01 +5.4862054564168506e-03
2.6499999999999986e+00 +8.5388062949472658e+00 +0.0000000000000000e+00 +2.6499999905602785e+00 -3.0414495434822355e-02 -5.7763314914981412e-01 +5.4853736905667834e-03
2.6999999999999984e+00 +8.5387989156117534e+00 +0.0000000000000000e+00 +2.6999999900157166e+00 -3.0415978804688305e-02 -5.7764973860068114e-01 +5.4845542032659093e-03
2.7499999999999982e+00 +8.5387913982795212e+00 +0.0000000000000000e+00 +2.7499999894505978e+00 -3.0417483855408923e-02 -5.7766668203603933e-01 +5.4837470331189605e-03
2.7999999999999980e+00 +8.5387837429465208e+00 +0.0000000000000000e+00 +2.7999999888645406e+00 -3.0419010562225866e-02 -5.7768397732890531e-01 +5.4829522187312832e-03
2.8499999999999979e+00 +8.5387759496086204e+00 +0.0000000000000000e+00 +2.8499999882571636e+00 -3.0420558900381478e-02 -5.7770162235230615e-01 +5.4821697987088467e-03
2.8999999999999977e+00 +8.5387680182616048e+00 +0.0000000000000000e+00 +2.8999999876280849e+00 -3.0422128845118770e-02 -5.7771961497928093e-01 +5.4813998116582368e-03
2.9499999999999975e+00 +8.5387599489011752e+00 +0.0000000000000000e+00 +2.9499999869769233e+00 -3.0423720371681440e-02 -5.7773795308287978e-01 +5.4806422961866524e-03
2.9999999999999973e+00 +8.5387517415229528e+00 +0.0000000000000000e+00 +2.9999999863032967e+00 -3.0425333455313838e-02 -5.7775663453616255e-01 +5.4798972909018929e-03
3.0499999999999972e+00 +8.5387433961224737e+00 +0.0000000000000000e+00 +3.0499999856068238e+00 -3.0426968071260892e-02 -5.7777565721220070e-01 +5.4791648344123759e-03
3.0999999999999970e+00 +8.5387349126951939e+00 +0.0000000000000000e+00 +3.0999999848871225e+00 -3.0428624194768203e-02 -5.7779501898407581e-01 +5.4784449653271141e-03
3.1499999999999968e+00 +8.5387262912364879e+00 +0.0000000000000000e+00 +3.1499999841438111e+00 -3.0430301801081971e-02 -5.7781471772487936e-01 +5.4777377222557178e-03
3.1999999999999966e+00 +8.5387175317416499e+00 +0.0000000000000000e+00 +3.1999999833765078e+00 -3.0432000865448984e-02 -5.7783475130771356e-01 +5.4770431438083949e-03
3.2499999999999964e+00 +8.5387086342058929e+00 +0.0000000000000000e+00 +3.2499999825848307e+00 -3.0433721363116614e-02 -5.7785511760569008e-01 +5.4763612685959466e-03
3.2999999999999963e+00 +8.5386995986243530e+00 +0.0000000000000000e+00 +3.2999999817683974e+00 -3.0435463269332792e-02 -5.7787581449193048e-01 +5.4756921352297604e-03
3.3499999999999961e+00 +8.5386904249920867e+00 +0.0000000000000000e+00 +3.3499999809268264e+00 -3.0437226559346005e-02 -5.7789683983956530e-01 +5.4750357823218077e-03
3.3999999999999959e+00 +8.5386811133040705e+00 +0.0000000000000000e+00 +3.3999999800597354e+00 -3.0439011208405278e-02 -5.7791819152173529e-01 +5.4743922484846459e-03
3.4499999999999957e+00 +8.5386716635552027e+00 +0.0000000000000000e+00 +3.4499999791667419e+00 -3.0440817191760186e-02 -5.7793986741158987e-01 +5.4737615723314034e-03
3.4999999999999956e+00 +8.5386620757403069e+00 +0.0000000000000000e+00 +3.4999999782474642e+00 -3.0442644484660782e-02 -5.7796186538228755e-01 +5.4731437924757922e-03
3.5499999999999954e+00 +8.5386523498541269e+00 +0.0000000000000000e+00 +3.5499999773015198e+00 -3.0444493062357639e-02 -5.7798418330699608e-01 +5.4725389475320874e-03
3.5999999999999952e+00 +8.5386424858913319e+00 +0.0000000000000000e+00 +3.5999999763285264e+00 -3.0446362900101807e-02 -5.7800681905889106e-01 +5.4719470761151398e-03
3.6499999999999950e+00 +8.5386324838465129e+00 +0.0000000000000000e+00 +3.6499999753281016e+00 -3.0448253973144813e-02 -5.7802977051115711e-01 +5.4713682168403581e-03
3.6999999999999948e+00 +8.5386223437141879e+00 +0.0000000000000000e+00 +3.6999999742998630e+00 -3.0450166256738648e-02 -5.7805303553698717e-01 +5.4708024083237154e-03
3.7499999999999947e+00 +8.5386120654888007e+00 +0.0000000000000000e+00 +3.7499999732434279e+00 -3.0452099726135731e-02 -5.7807661200958205e-01 +5.4702496891817429e-03
3.7999999999999945e+00 +8.5386016491647183e+00 +0.0000000000000000e+00 +3.7999999721584139e+00 -3.0454054356588947e-02 -5.7810049780215100e-01 +5.4697100980315256e-03
3.8499999999999943e+00 +8.5385910947362333e+00 +0.0000000000000000e+00 +3.8499999710444386e+00 -3.0456030123351557e-02 -5.7812469078791007e-01 +5.4691836734906971e-03
3.8999999999999941e+00 +8.5385804021975673e+00 +0.0000000000000000e+00 +3.8999999699011187e+00 -3.0458027001677254e-02 -5.7814918884008404e-01 +5.4686704541774423e-03
3.9499999999999940e+00 +8.5385695715428689e+00 +0.0000000000000000e+00 +3.9499999687280720e+00 -3.0460044966820116e-02 -5.7817398983190460e-01 +5.4681704787104884e-03
3.9999999999999938e+00 +8.5385586027662121e+00 +0.0000000000000000e+00 +3.9999999675249156e+00 -3.0462083994034585e-02 -5.7819909163661021e-01 +5.4676837857091029e-03
4.0499999999999936e+00 +8.5385474958616019e+00 +0.0000000000000000e+00 +4.0499999662912662e+00 -3.0464144014039476e-02 -5.7822449198606973e-01 +5.4672104061816310e-03
4.0999999999999934e+00 +8.5385362508229683e+00 +0.0000000000000000e+00 +4.0999999650267416e+00 -3.0466224779409475e-02 -5.7825018804664352e-01 +5.4667503406911535e-03
4.1499999999999932e+00 +8.5385248676441741e+00 +0.0000000000000000e+00 +4.1499999637309584e+00 -3.0468325998183252e-02 -5.7827617684331800e-01 +5.4663035821900336e-03
4.1999999999999931e+00 +8.5385133463190108e+00 +0.0000000000000000e+00 +4.1999999624035329e+00 -3.0470447378399674e-02 -5.7830245540108238e-01 +5.4658701236314526e-03
4.2499999999999929e+00 +8.5385016868412009e+00 +0.0000000000000000e+00 +4.2499999610440824e+00 -3.0472588628097715e-02 -5.7832902074492820e-01 +5.4654499579693937e-03
4.2999999999999927e+00 +8.5384898892043974e+00 +0.0000000000000000e+00 +4.2999999596522240e+00 -3.0474749455316519e-02 -5.7835586989985055e-01 +5.4650430781586646e-03
4.3499999999999925e+00 +8.5384779534021877e+00 +0.0000000000000000e+00 +4.3499999582275741e+00 -3.0476929568095303e-02 -5.7838299989084552e-01 +5.4646494771548888e-03
4.3999999999999924e+00 +8.5384658794280899e+00 +0.0000000000000000e+00 +4.3999999567697499e+00 -3.0479128674473412e-02 -5.7841040774291119e-01 +5.4642691479145173e-03
4.4499999999999922e+00 +8.5384536672755562e+00 +0.0000000000000000e+00 +4.4499999552783676e+00 -3.0481346482490238e-02 -5.7843809048104822e-01 +5.4639020833948324e-03
4.4999999999999920e+00 +8.5384413169379751e+00 +0.0000000000000000e+00 +4.4999999537530435e+00 -3.0483582700185235e-02 -5.7846604513025779e-01 +5.4635482765539589e-03
4.5499999999999918e+00 +8.5384288284086676e+00 +0.0000000000000000e+00 +4.5499999521933940e+00 -3.0485837035597901e-02 -5.7849426871554233e-01 +5.4632077203508505e-03
4.5999999999999917e+00 +8.5384162016808904e+00 +0.0000000000000000e+00 +4.5999999505990354e+00 -3.0488109196767751e-02 -5.7852275826190480e-01 +5.4628804077453122e-03
4.6499999999999915e+00 +8.5384034367478403e+00 +0.0000000000000000e+00 +4.6499999489695840e+00 -3.0490398891734279e-02 -5.7855151079434863e-01 +5.4625663316980044e-03
4.6999999999999913e+00 +8.5383905336026462e+00 +0.0000000000000000e+00 +4.6999999473046561e+00 -3.0492705828536998e-02 -5.7858052333787846e-01 +5.4622654851704342e-03
4.7499999999999911e+00 +8.5383774922383786e+00 +0.0000000000000000e+00 +4.7499999456038680e+00 -3.0495029715215366e-02 -5.7860979291749726e-01 +5.4619778611249723e-03
4.7999999999999909e+00 +8.5383643126480440e+00 +0.0000000000000000e+00 +4.7999999438668359e+00 -3.0497370259808792e-02 -5.7863931655820877e-01 +5.4617034525248553e-03
4.8499999999999908e+00 +8.5383509948245919e+00 +0.0000000000000000e+00 +4.8499999420931754e+00 -3.0499727170356598e-02 -5.7866909128501554e-01 +5.4614422523341886e-03
4.8999999999999906e+00 +8.5383375387609082e+00 +0.0000000000000000e+00 +4.8999999402825027e+00 -3.0502100154898029e-02 -5.7869911412291974e-01 +5.4611942535179566e-03
4.9499999999999904e+00 +8.5383239444498198e+00 +0.0000000000000000e+00 +4.9499999384344342e+00 -3.0504488921472211e-02 -5.7872938209692115e-01 +5.4609594490420106e-03
4.9999999999999902e+00 +8.5383102118840970e+00 +0.0000000000000000e+00 +4.9999999365485843e+00 -3.0506893178118173e-02 -5.7875989223201962e-01 +5.4607378318731001e-03
5.0499999999999901e+00 +8.5382963410564514e+00 +0.0000000000000000e+00 +5.0499999346245694e+00 -3.0509312632874763e-02 -5.7879064155321225e-01 +5.4605293949788591e-03
5.0999999999999899e+00 +8.5382823319595378e+00 +0.0000000000000000e+00 +5.0999999326620058e+00 -3.0511746993780686e-02 -5.7882162708549412e-01 +5.4603341313278087e-03
5.1499999999999897e+00 +8.5382681845859523e+00 +0.0000000000000000e+00 +5.1499999306605080e+00 -3.0514195968874450e-02 -5.7885284585385832e-01 +5.4601520338893811e-03
5.1999999999999895e+00 +8.5382538989282395e+00 +0.0000000000000000e+00 +5.1999999286196914e+00 -3.0516659266194367e-02 -5.7888429488329485e-01 +5.4599830956339017e-03
5.2499999999999893e+00 +8.5382394749788855e+00 +0.0000000000000000e+00 +5.2499999265391724e+00 -3.0519136593778563e-02 -5.7891597119879146e-01 +5.4598273095326100e-03
5.2999999999999892e+00 +8.5382249127303229e+00 +0.0000000000000000e+00 +5.2999999244185654e+00 -3.0521627659664870e-02 -5.7894787182533192e-01 +5.4596846685576565e-03
5.3499999999999890e+00 +8.5382102121749313e+00 +0.0000000000000000e+00 +5.3499999222574859e+00 -3.0524132171890914e-02 -5.7897999378789711e-01 +5.4595551656821074e-03
5.3999999999999888e+00 +8.5381953733050366e+00 +0.0000000000000000e+00 +5.3999999200555493e+00 -3.0526649838494034e-02 -5.7901233411146391e-01 +5.4594387938799631e-03
5.4499999999999886e+00 +8.5381803961129137e+00 +0.0000000000000000e+00 +5.4499999178123701e+00 -3.0529180367511271e-02 -5.7904488982100544e-01 +5.4593355461261348e-03
5.4999999999999885e+00 +8.5381652805907855e+00 +0.0000000000000000e+00 +5.4999999155275638e+00 -3.0531723466979348e-02 -5.7907765794148991e-01 +5.4592454153964800e-03
5.5499999999999883e+00 +8.5381500267308237e+00 +0.0000000000000000e+00 +5.5499999132007458e+00 -3.0534278844934697e-02 -5.7911063549788155e-01 +5.4591683946677901e-03
5.5999999999999881e+00 +8.5381346345251519e+00 +0.0000000000000000e+00 +5.5999999108315297e+00 -3.0536846209413354e-02 -5.7914381951513960e-01 +5.4591044769177971e-03
5.6499999999999879e+00 +8.5381191039658404e+00 +0.0000000000000000e+00 +5.6499999084195309e+00 -3.0539425268451045e-02 -5.7917720701821751e-01 +5.4590536551251791e-03
5.6999999999999877e+00 +8.5381034350449152e+00 +0.0000000000000000e+00 +5.6999999059643640e+00 -3.0542015730083062e-02 -5.7921079503206396e-01 +5.4590159222695682e-03
5.7499999999999876e+00 +8.5380876277543507e+00 +0.0000000000000000e+00 +5.7499999034656435e+00 -3.0544617302344354e-02 -5.7924458058162176e-01 +5.4589912713315586e-03
5.7999999999999874e+00 +8.5380716820860769e+00 +0.0000000000000000e+00 +5.7999999009229839e+00 -3.0547229693269392e-02 -5.7927856069182770e-01 +5.4589796952926942e-03
5.8499999999999872e+00 +8.5380555980319777e+00 +0.0000000000000000e+00 +5.8499998983359998e+00 -3.0549852610892256e-02 -5.7931273238761183e-01 +5.4589811871354997e-03
5.8999999999999870e+00 +8.5380393755838888e+00 +0.0000000000000000e+00 +5.8999998957043056e+00 -3.0552485763246547e-02 -5.7934709269389828e-01 +5.4589957398434611e-03
