# trajectory
# s[mm] rx[mm] ry[mm] rz[mm] px[rad] py[rad] pz[rad]
0.0000000000000000e+00 +8.2850000000000001e+00 +0.0000000000000000e+00 +0.0000000000000000e+00 +0.0000000000000000e+00 +0.0000000000000000e+00 +1.0000000000000000e+00
-5.0000000000000003e-02 +8.2849999307696010e+00 +0.0000000000000000e+00 -4.9999999999936096e-02 +2.7692148540690768e-06 +0.0000000000000000e+00 +9.9999999999616573e-01
-1.0000000000000001e-01 +8.2849997230786148e+00 +0.0000000000000000e+00 -9.9999999999488762e-02 +5.5384237936026178e-06 +0.0000000000000000e+00 +9.9999999998466294e-01
-1.5000000000000002e-01 +8.2849993769272885e+00 +0.0000000000000000e+00 -1.4999999999827457e-01 +8.3076287587517818e-06 +0.0000000000000000e+00 +9.9999999996549160e-01
-2.0000000000000001e-01 +8.2849988923157731e+00 +0.0000000000000000e+00 -1.9999999999591012e-01 +1.1076831685441116e-05 +0.0000000000000000e+00 +9.9999999993865185e-01
-2.5000000000000000e-01 +8.2849982692441220e+00 +0.0000000000000000e+00 -2.4999999999201195e-01 +1.3846034505368651e-05 +0.0000000000000000e+00 +9.9999999990414357e-01
-2.9999999999999999e-01 +8.2849975077122924e+00 +0.0000000000000000e+00 -2.9999999998619664e-01 +1.6615239146005993e-05 +0.0000000000000000e+00 +9.9999999986196686e-01
-3.4999999999999998e-01 +8.2849966077201458e+00 +0.0000000000000000e+00 -3.4999999997808079e-01 +1.9384447530598405e-05 +0.0000000000000000e+00 +9.9999999981212151e-01
-3.9999999999999997e-01 +8.2849955692674460e+00 +0.0000000000000000e+00 -3.9999999996728097e-01 +2.2153661578164897e-05 +0.0000000000000000e+00 +9.9999999975460752e-01
-4.4999999999999996e-01 +8.2849943923538625e+00 +0.0000000000000000e+00 -4.4999999995341372e-01 +2.4922883203498326e-05 +0.0000000000000000e+00 +9.9999999968942477e-01
-4.9999999999999994e-01 +8.2849930769789673e+00 +0.0000000000000000e+00 -4.9999999993609562e-01 +2.7692114317165470e-05 +0.0000000000000000e+00 +9.9999999961657327e-01
-5.4999999999999993e-01 +8.2849916231422398e+00 +0.0000000000000000e+00 -5.4999999991494319e-01 +3.0461356825507125e-05 +0.0000000000000000e+00 +9.9999999953605279e-01
-5.9999999999999998e-01 +8.2849900308430620e+00 +0.0000000000000000e+00 -5.9999999988957309e-01 +3.3230612630638180e-05 +0.0000000000000000e+00 +9.9999999944786311e-01
-6.5000000000000002e-01 +8.2849883000807232e+00 +0.0000000000000000e+00 -6.4999999985960177e-01 +3.5999883630447721e-05 +0.0000000000000000e+00 +9.9999999935200412e-01
-7.0000000000000007e-01 +8.2849864308544152e+00 +0.0000000000000000e+00 -6.9999999982464567e-01 +3.8769171718599105e-05 +0.0000000000000000e+00 +9.9999999924847560e-01
-7.5000000000000011e-01 +8.2849844231632357e+00 +0.0000000000000000e+00 -7.4999999978432141e-01 +4.1538478784530042e-05 +0.0000000000000000e+00 +9.9999999913727733e-01
-8.0000000000000016e-01 +8.2849822770061898e+00 +0.0000000000000000e+00 -7.9999999973824554e-01 +4.4307806713452700e-05 +0.0000000000000000e+00 +9.9999999901840908e-01
-8.5000000000000020e-01 +8.2849799923821852e+00 +0.0000000000000000e+00 -8.4999999968603446e-01 +4.7077157386353763e-05 +0.0000000000000000e+00 +9.9999999889187052e-01
-9.0000000000000024e-01 +8.2849775692900405e+00 +0.0000000000000000e+00 -8.9999999962730470e-01 +4.9846532679994539e-05 +0.0000000000000000e+00 +9.9999999875766143e-01
-9.5000000000000029e-01 +8.2849750077284767e+00 +0.0000000000000000e+00 -9.4999999956167269e-01 +5.2615934466911020e-05 +0.0000000000000000e+00 +9.9999999861578159e-01
-1.0000000000000002e+00 +8.2849723076961226e+00 +0.0000000000000000e+00 -9.9999999948875495e-01 +5.5385364615413998e-05 +0.0000000000000000e+00 +9.9999999846623056e-01
-1.0500000000000003e+00 +8.2849694691915126e+00 +0.0000000000000000e+00 -1.0499999994081679e+00 +5.8154824989589121e-05 +0.0000000000000000e+00 +9.9999999830900799e-01
-1.1000000000000003e+00 +8.2849664922130888e+00 +0.0000000000000000e+00 -1.0999999993195280e+00 +6.0924317449296974e-05 +0.0000000000000000e+00 +9.9999999814411356e-01
-1.1500000000000004e+00 +8.2849633767592010e+00 +0.0000000000000000e+00 -1.1499999992224514e+00 +6.3693843850173184e-05 +0.0000000000000000e+00 +9.9999999797154693e-01
-1.2000000000000004e+00 +8.2849601228281067e+00 +0.0000000000000000e+00 -1.1999999991165549e+00 +6.6463406043628479e-05 +0.0000000000000000e+00 +9.9999999779130766e-01
-1.2500000000000004e+00 +8.2849567304179690e+00 +0.0000000000000000e+00 -1.2499999990014543e+00 +6.9233005876848791e-05 +0.0000000000000000e+00 +9.9999999760339531e-01
-1.3000000000000005e+00 +8.2849531995268606e+00 +0.0000000000000000e+00 -1.2999999988767663e+00 +7.2002645192795314e-05 +0.0000000000000000e+00 +9.9999999740780943e-01
-1.3500000000000005e+00 +8.2849495301527618e+00 +0.0000000000000000e+00 -1.3499999987421072e+00 +7.4772325830204582e-05 +0.0000000000000000e+00 +9.9999999720454957e-01
-1.4000000000000006e+00 +8.2849457222935587e+00 +0.0000000000000000e+00 -1.3999999985970932e+00 +7.7542049623588588e-05 +0.0000000000000000e+00 +9.9999999699361519e-01
-1.4500000000000006e+00 +8.2849417759470487e+00 +0.0000000000000000e+00 -1.4499999984413408e+00 +8.0311818403234827e-05 +0.0000000000000000e+00 +9.9999999677500584e-01
-1.5000000000000007e+00 +8.2849376911109385e+00 +0.0000000000000000e+00 -1.4999999982744658e+00 +8.3081633995206377e-05 +0.0000000000000000e+00 +9.9999999654872096e-01
-1.5500000000000007e+00 +8.2849334677828388e+00 +0.0000000000000000e+00 -1.5499999980960848e+00 +8.5851498221341992e-05 +0.0000000000000000e+00 +9.9999999631476000e-01
-1.6000000000000008e+00 +8.2849291059602752e+00 +0.0000000000000000e+00 -1.5999999979058139e+00 +8.8621412899256172e-05 +0.0000000000000000e+00 +9.9999999607312251e-01
-1.6500000000000008e+00 +8.2849246056406773e+00 +0.0000000000000000e+00 -1.6499999977032691e+00 +9.1391379842339229e-05 +0.0000000000000000e+00 +9.9999999582380772e-01
-1.7000000000000008e+00 +8.2849199668213895e+00 +0.0000000000000000e+00 -1.6999999974880666e+00 +9.4161400859757397e-05 +0.0000000000000000e+00 +9.9999999556681518e-01
-1.7500000000000009e+00 +8.2849151894996602e+00 +0.0000000000000000e+00 -1.7499999972598226e+00 +9.6931477756452886e-05 +0.0000000000000000e+00 +9.9999999530214423e-01
-1.8000000000000009e+00 +8.2849102736726525e+00 +0.0000000000000000e+00 -1.7999999970181531e+00 +9.9701612333143934e-05 +0.0000000000000000e+00 +9.9999999502979420e-01
-1.8500000000000010e+00 +8.2849052193374355e+00 +0.0000000000000000e+00 -1.8499999967626741e+00 +1.0247180638632494e-04 +0.0000000000000000e+00 +9.9999999474976442e-01
-1.9000000000000010e+00 +8.2849000264909929e+00 +0.0000000000000000e+00 -1.8999999964930017e+00 +1.0524206170826650e-04 +0.0000000000000000e+00 +9.9999999446205423e-01
-1.9500000000000011e+00 +8.2848946951302143e+00 +0.0000000000000000e+00 -1.9499999962087515e+00 +1.0801238008701547e-04 +0.0000000000000000e+00 +9.9999999416666285e-01
-2.0000000000000009e+00 +8.2848892252519040e+00 +0.0000000000000000e+00 -1.9999999959095398e+00 +1.1078276330639510e-04 +0.0000000000000000e+00 +9.9999999386358962e-01
-2.0500000000000007e+00 +8.2848836168527740e+00 +0.0000000000000000e+00 -2.0499999955949826e+00 +1.1355321314573656e-04 +0.0000000000000000e+00 +9.9999999355283387e-01
-2.1000000000000005e+00 +8.2848778699294492e+00 +0.0000000000000000e+00 -2.0999999952646955e+00 +1.1632373137692599e-04 +0.0000000000000000e+00 +9.9999999323439470e-01
-2.1500000000000004e+00 +8.2848719844784675e+00 +0.0000000000000000e+00 -2.1499999949182942e+00 +1.1909431976145138e-04 +0.0000000000000000e+00 +9.9999999290827146e-01
-2.2000000000000002e+00 +8.2848659604962762e+00 +0.0000000000000000e+00 -2.1999999945553945e+00 +1.2186498005013420e-04 +0.0000000000000000e+00 +9.9999999257446326e-01
-2.2500000000000000e+00 +8.2848597979792356e+00 +0.0000000000000000e+00 -2.2499999941756124e+00 +1.2463571398312948e-04 +0.0000000000000000e+00 +9.9999999223296931e-01
-2.2999999999999998e+00 +8.2848534969236205e+00 +0.0000000000000000e+00 -2.2999999937785631e+00 +1.2740652328992587e-04 +0.0000000000000000e+00 +9.9999999188378885e-01
-2.3499999999999996e+00 +8.2848470573256208e+00 +0.0000000000000000e+00 -2.3499999933638631e+00 +1.3017740968934558e-04 +0.0000000000000000e+00 +9.9999999152692098e-01
-2.3999999999999995e+00 +8.2848404791813390e+00 +0.0000000000000000e+00 -2.3999999929311273e+00 +1.3294837488954465e-04 +0.0000000000000000e+00 +9.9999999116236482e-01
-2.4499999999999993e+00 +8.2848337624867909e+00 +0.0000000000000000e+00 -2.4499999924799716e+00 +1.3571942058801279e-04 +0.0000000000000000e+00 +9.9999999079011948e-01
-2.4999999999999991e+00 +8.2848269072379104e+00 +0.0000000000000000e+00 -2.4999999920100113e+00 +1.3849054847157356e-04 +0.0000000000000000e+00 +9.9999999041018406e-01
-2.5499999999999989e+00 +8.2848199134305460e+00 +0.0000000000000000e+00 -2.5499999915208620e+00 +1.4126176021638439e-04 +0.0000000000000000e+00 +9.9999999002255757e-01
-2.5999999999999988e+00 +8.2848127810604630e+00 +0.0000000000000000e+00 -2.5999999910121390e+00 +1.4403305748793665e-04 +0.0000000000000000e+00 +9.9999998962723924e-01
-2.6499999999999986e+00 +8.2848055101233449e+00 +0.0000000000000000e+00 -2.6499999904834577e+00 +1.4680444194105561e-04 +0.0000000000000000e+00 +9.9999998922422795e-01
-2.6999999999999984e+00 +8.2847981006147897e+00 +0.0000000000000000e+00 -2.6999999899344336e+00 +1.4957591521990064e-04 +0.0000000000000000e+00 +9.9999998881352281e-01
-2.7499999999999982e+00 +8.2847905525303158e+00 +0.0000000000000000e+00 -2.7499999893646816e+00 +1.5234747895796511e-04 +0.0000000000000000e+00 +9.9999998839512283e-01
-2.7999999999999980e+00 +8.2847828658653597e+00 +0.0000000000000000e+00 -2.7999999887738176e+00 +1.5511913477807656e-04 +0.0000000000000000e+00 +9.9999998796902700e-01
-2.8499999999999979e+00 +8.2847750406152763e+00 +0.0000000000000000e+00 -2.8499999881614562e+00 +1.5789088429239663e-04 +0.0000000000000000e+00 +9.9999998753523434e-01
-2.8999999999999977e+00 +8.2847670767753421e+00 +0.0000000000000000e+00 -2.8999999875272127e+00 +1.6066272910242118e-04 +0.0000000000000000e+00 +9.9999998709374371e-01
-2.9499999999999975e+00 +8.2847589743407521e+00 +0.0000000000000000e+00 -2.9499999868707021e+00 +1.6343467079898031e-04 +0.0000000000000000e+00 +9.9999998664455414e-01
-2.9999999999999973e+00 +8.2847507333066215e+00 +0.0000000000000000e+00 -2.9999999861915398e+00 +1.6620671096223840e-04 +0.0000000000000000e+00 +9.9999998618766461e-01
-3.0499999999999972e+00 +8.2847423536679887e+00 +0.0000000000000000e+00 -3.0499999854893405e+00 +1.6897885116169418e-04 +0.0000000000000000e+00 +9.9999998572307391e-01
-3.0999999999999970e+00 +8.2847338354198126e+00 +0.0000000000000000e+00 -3.0999999847637190e+00 +1.7175109295618072e-04 +0.0000000000000000e+00 +9.9999998525078104e-01
-3.1499999999999968e+00 +8.2847251785569735e+00 +0.0000000000000000e+00 -3.1499999840142903e+00 +1.7452343789386548e-04 +0.0000000000000000e+00 +9.9999998477078478e-01
-3.1999999999999966e+00 +8.2847163830742776e+00 +0.0000000000000000e+00 -3.1999999832406689e+00 +1.7729588751225035e-04 +0.0000000000000000e+00 +9.9999998428308412e-01
-3.2499999999999964e+00 +8.2847074489664525e+00 +0.0000000000000000e+00 -3.2499999824424699e+00 +1.8006844333817175e-04 +0.0000000000000000e+00 +9.9999998378767785e-01
-3.2999999999999963e+00 +8.2846983762281496e+00 +0.0000000000000000e+00 -3.2999999816193082e+00 +1.8284110688780055e-04 +0.0000000000000000e+00 +9.9999998328456485e-01
-3.3499999999999961e+00 +8.2846891648539440e+00 +0.0000000000000000e+00 -3.3499999807707979e+00 +1.8561387966664221e-04 +0.0000000000000000e+00 +9.9999998277374391e-01
-3.3999999999999959e+00 +8.2846798148383378e+00 +0.0000000000000000e+00 -3.3999999798965539e+00 +1.8838676316953670e-04 +0.0000000000000000e+00 +9.9999998225521380e-01
-3.4499999999999957e+00 +8.2846703261757568e+00 +0.0000000000000000e+00 -3.4499999789961908e+00 +1.9115975888065863e-04 +0.0000000000000000e+00 +9.9999998172897331e-01
-3.4999999999999956e+00 +8.2846606988605540e+00 +0.0000000000000000e+00 -3.4999999780693227e+00 +1.9393286827351725e-04 +0.0000000000000000e+00 +9.9999998119502131e-01
-3.5499999999999954e+00 +8.2846509328870095e+00 +0.0000000000000000e+00 -3.5499999771155641e+00 +1.9670609281095645e-04 +0.0000000000000000e+00 +9.9999998065335649e-01
-3.5999999999999952e+00 +8.2846410282493288e+00 +0.0000000000000000e+00 -3.5999999761345296e+00 +1.9947943394515481e-04 +0.0000000000000000e+00 +9.9999998010397773e-01
-3.6499999999999950e+00 +8.2846309849416464e+00 +0.0000000000000000e+00 -3.6499999751258332e+00 +2.0225289311762566e-04 +0.0000000000000000e+00 +9.9999997954688358e-01
-3.6999999999999948e+00 +8.2846208029580257e+00 +0.0000000000000000e+00 -3.6999999740890894e+00 +2.0502647175921703e-04 +0.0000000000000000e+00 +9.9999997898207293e-01
-3.7499999999999947e+00 +8.2846104822924556e+00 +0.0000000000000000e+00 -3.7499999730239120e+00 +2.0780017129011174e-04 +0.0000000000000000e+00 +9.9999997840954435e-01
-3.7999999999999945e+00 +8.2846000229388572e+00 +0.0000000000000000e+00 -3.7999999719299153e+00 +2.1057399311982737e-04 +0.0000000000000000e+00 +9.9999997782929662e-01
-3.8499999999999943e+00 +8.2845894248910810e+00 +0.0000000000000000e+00 -3.8499999708067132e+00 +2.1334793864721634e-04 +0.0000000000000000e+00 +9.9999997724132839e-01
-3.8999999999999941e+00 +8.2845786881429078e+00 +0.0000000000000000e+00 -3.8999999696539196e+00 +2.1612200926046589e-04 +0.0000000000000000e+00 +9.9999997664563844e-01
-3.9499999999999940e+00 +8.2845678126880475e+00 +0.0000000000000000e+00 -3.9499999684711482e+00 +2.1889620633709810e-04 +0.0000000000000000e+00 +9.9999997604222535e-01
-3.9999999999999938e+00 +8.2845567985201427e+00 +0.0000000000000000e+00 -3.9999999672580131e+00 +2.2167053124396989e-04 +0.0000000000000000e+00 +9.9999997543108765e-01
-4.0499999999999936e+00 +8.2845456456327700e+00 +0.0000000000000000e+00 -4.0499999660141279e+00 +2.2444498533715686e-04 +0.0000000000000000e+00 +9.9999997481222413e-01
-4.0999999999999934e+00 +8.2845343540194349e+00 +0.0000000000000000e+00 -4.0999999647391068e+00 +2.2721956996067430e-04 +0.0000000000000000e+00 +9.9999997418563336e-01
-4.1499999999999932e+00 +8.2845229236735776e+00 +0.0000000000000000e+00 -4.1499999634325624e+00 +2.2999428644519845e-04 +0.0000000000000000e+00 +9.9999997355131398e-01
-4.1999999999999931e+00 +8.2845113545885720e+00 +0.0000000000000000e+00 -4.1999999620941093e+00 +2.3276913610795010e-04 +0.0000000000000000e+00 +9.9999997290926446e-01
-4.2499999999999929e+00 +8.2844996467577268e+00 +0.0000000000000000e+00 -4.2499999607233603e+00 +2.3554412025269470e-04 +0.0000000000000000e+00 +9.9999997225948356e-01
-4.2999999999999927e+00 +8.2844878001742845e+00 +0.0000000000000000e+00 -4.2999999593199290e+00 +2.3831924016974238e-04 +0.0000000000000000e+00 +9.9999997160196974e-01
-4.3499999999999925e+00 +8.2844758148314259e+00 +0.0000000000000000e+00 -4.3499999578834281e+00 +2.4109449713594788e-04 +0.0000000000000000e+00 +9.9999997093672155e-01
-4.3999999999999924e+00 +8.2844636907222657e+00 +0.0000000000000000e+00 -4.3999999564134722e+00 +2.4386989241471062e-04 +0.0000000000000000e+00 +9.9999997026373755e-01
-4.4499999999999922e+00 +8.2844514278398584e+00 +0.0000000000000000e+00 -4.4499999549096731e+00 +2.4664542725597467e-04 +0.0000000000000000e+00 +9.9999996958301640e-01
-4.4999999999999920e+00 +8.2844390261771945e+00 +0.0000000000000000e+00 -4.4999999533716446e+00 +2.4942110289622875e-04 +0.0000000000000000e+00 +9.9999996889455645e-01
-4.5499999999999918e+00 +8.2844264857272023e+00 +0.0000000000000000e+00 -4.5499999517989993e+00 +2.5219692055850626e-04 +0.0000000000000000e+00 +9.9999996819835635e-01
-4.5999999999999917e+00 +8.2844138064827515e+00 +0.0000000000000000e+00 -4.5999999501913509e+00 +2.5497288145238532e-04 +0.0000000000000000e+00 +9.9999996749441455e-01
-4.6499999999999915e+00 +8.2844009884366496e+00 +0.0000000000000000e+00 -4.6499999485483121e+00 +2.5774898677398866e-04 +0.0000000000000000e+00 +9.9999996678272962e-01
-4.6999999999999913e+00 +8.2843880315816474e+00 +0.0000000000000000e+00 -4.6999999468694948e+00 +2.6052523770598370e-04 +0.0000000000000000e+00 +9.9999996606329999e-01
-4.7499999999999911e+00 +8.2843749359104333e+00 +0.0000000000000000e+00 -4.7499999451545127e+00 +2.6330163541758245e-04 +0.0000000000000000e+00 +9.9999996533612412e-01
-4.7999999999999909e+00 +8.2843617014156408e+00 +0.0000000000000000e+00 -4.7999999434029785e+00 +2.6607818106454172e-04 +0.0000000000000000e+00 +9.9999996460120044e-01
-4.8499999999999908e+00 +8.2843483280898429e+00 +0.0000000000000000e+00 -4.8499999416145041e+00 +2.6885487578916283e-04 +0.0000000000000000e+00 +9.9999996385852752e-01
-4.8999999999999906e+00 +8.2843348159255576e+00 +0.0000000000000000e+00 -4.8999999397887022e+00 +2.7163172072029187e-04 +0.0000000000000000e+00 +9.9999996310810380e-01
-4.9499999999999904e+00 +8.2843211649152479e+00 +0.0000000000000000e+00 -4.9499999379251856e+00 +2.7440871697331949e-04 +0.0000000000000000e+00 +9.9999996234992761e-01
-4.9999999999999902e+00 +8.2843073750513199e+00 +0.0000000000000000e+00 -4.9999999360235661e+00 +2.7718586565018104e-04 +0.0000000000000000e+00 +9.9999996158399751e-01
-5.0499999999999901e+00 +8.2842934463261244e+00 +0.0000000000000000e+00 -5.0499999340834565e+00 +2.7996316783935644e-04 +0.0000000000000000e+00 +9.9999996081031184e-01
-5.0999999999999899e+00 +8.2842793787319593e+00 +0.0000000000000000e+00 -5.0999999321044687e+00 +2.8274062461587022e-04 +0.0000000000000000e+00 +9.9999996002886904e-01
-5.1499999999999897e+00 +8.2842651722610690e+00 +0.0000000000000000e+00 -5.1499999300862145e+00 +2.8551823704129156e-04 +0.0000000000000000e+00 +9.9999995923966756e-01
-5.1999999999999895e+00 +8.2842508269056445e+00 +0.0000000000000000e+00 -5.1999999280283058e+00 +2.8829600616373413e-04 +0.0000000000000000e+00 +9.9999995844270573e-01
-5.2499999999999893e+00 +8.2842363426578238e+00 +0.0000000000000000e+00 -5.2499999259303554e+00 +2.9107393301785626e-04 +0.0000000000000000e+00 +9.9999995763798200e-01
-5.2999999999999892e+00 +8.2842217195096968e+00 +0.0000000000000000e+00 -5.2999999237919750e+00 +2.9385201862486076e-04 +0.0000000000000000e+00 +9.9999995682549481e-01
-5.3499999999999890e+00 +8.2842069574532999e+00 +0.0000000000000000e+00 -5.3499999216127758e+00 +2.9663026399249506e-04 +0.0000000000000000e+00 +9.9999995600524239e-01
-5.3999999999999888e+00 +8.2841920564806184e+00 +0.0000000000000000e+00 -5.3999999193923696e+00 +2.9940867011505099e-04 +0.0000000000000000e+00 +9.9999995517722329e-01
-5.4499999999999886e+00 +8.2841770165835928e+00 +0.0000000000000000e+00 -5.4499999171303681e+00 +3.0218723797336501e-04 +0.0000000000000000e+00 +9.9999995434143574e-01
-5.4999999999999885e+00 +8.2841618377541106e+00 +0.0000000000000000e+00 -5.4999999148263834e+00 +3.0496596853481792e-04 +0.0000000000000000e+00 +9.9999995349787807e-01
-5.5499999999999883e+00 +8.2841465199840130e+00 +0.0000000000000000e+00 -5.5499999124800263e+00 +3.0774486275333507e-04 +0.0000000000000000e+00 +9.9999995264654873e-01
-5.5999999999999881e+00 +8.2841310632650931e+00 +0.0000000000000000e+00 -5.5999999100909088e+00 +3.1052392156938623e-04 +0.0000000000000000e+00 +9.9999995178744605e-01
-5.6499999999999879e+00 +8.2841154675890980e+00 +0.0000000000000000e+00 -5.6499999076586418e+00 +3.1330314590998550e-04 +0.0000000000000000e+00 +9.9999995092056837e-01
-5.6999999999999877e+00 +8.2840997329477286e+00 +0.0000000000000000e+00 -5.6999999051828363e+00 +3.1608253668869140e-04 +0.0000000000000000e+00 +9.9999995004591391e-01
-5.7499999999999876e+00 +8.2840838593326396e+00 +0.0000000000000000e+00 -5.7499999026631032e+00 +3.1886209480560683e-04 +0.0000000000000000e+00 +9.9999994916348112e-01
-5.7999999999999874e+00 +8.2840678467354429e+00 +0.0000000000000000e+00 -5.7999999000990545e+00 +3.2164182114737894e-04 +0.0000000000000000e+00 +9.9999994827326821e-01
-5.8499999999999872e+00 +8.2840516951477063e+00 +0.0000000000000000e+00 -5.8499998974903002e+00 +3.2442171658719922e-04 +0.0000000000000000e+00 +9.9999994737527365e-01
