# field on trajectory
# s[mm] rx[mm] ry[mm] rz[mm] bx[T] by[T] bz[T]
0.0000000000000000e+00 +8.3650000000000002e+00 +0.0000000000000000e+00 +0.0000000000000000e+00 -2.8620298092626277e-02 -5.5323502235987188e-01 +5.6865921179954067e-03
5.0000000000000003e-02 +8.3649999311277430e+00 +0.0000000000000000e+00 +4.9999999999936762e-02 -2.8619877954035661e-02 -5.5323562912847424e-01 +5.6860556449702263e-03
1.0000000000000001e-01 +8.3649997245108523e+00 +0.0000000000000000e+00 +9.9999999999494049e-02 -2.8619480825631857e-02 -5.5323663701500747e-01 +5.6855203981322645e-03
1.5000000000000002e-01 +8.3649993801490776e+00 +0.0000000000000000e+00 +1.4999999999829239e-01 -2.8619106704753212e-02 -5.5323804503451735e-01 +5.6849864142137245e-03
2.0000000000000001e-01 +8.3649988980420691e+00 +0.0000000000000000e+00 +1.9999999999595230e-01 -2.8618755588739334e-02 -5.5323985220206839e-01 +5.6844537299469075e-03
2.5000000000000000e-01 +8.3649982781893772e+00 +0.0000000000000000e+00 +2.4999999999209432e-01 -2.8618427474930853e-02 -5.5324205753274391e-01 +5.6839223820641955e-03
2.9999999999999999e-01 +8.3649975205904514e+00 +0.0000000000000000e+00 +2.9999999998633897e-01 -2.8618122360669584e-02 -5.5324466004164463e-01 +5.6833924072980579e-03
3.4999999999999998e-01 +8.3649966252446450e+00 +0.0000000000000000e+00 +3.4999999997830672e-01 -2.8617840243298338e-02 -5.5324765874388959e-01 +5.6828638423810432e-03
3.9999999999999997e-01 +8.3649955921512102e+00 +0.0000000000000000e+00 +3.9999999996761809e-01 -2.8617581120160947e-02 -5.5325105265461660e-01 +5.6823367240457908e-03
4.4999999999999996e-01 +8.3649944213093033e+00 +0.0000000000000000e+00 +4.4999999995389356e-01 -2.8617344988602193e-02 -5.5325484078897991e-01 +5.6818110890250045e-03
4.9999999999999994e-01 +8.3649931127179808e+00 +0.0000000000000000e+00 +4.9999999993675365e-01 -2.8617131845967807e-02 -5.5325902216215339e-01 +5.6812869740514808e-03
5.4999999999999993e-01 +8.3649916663762021e+00 +0.0000000000000000e+00 +5.4999999991581883e-01 -2.8616941689604380e-02 -5.5326359578932738e-01 +5.6807644158580811e-03
5.9999999999999998e-01 +8.3649900822828265e+00 +0.0000000000000000e+00 +5.9999999989070951e-01 -2.8616774516859324e-02 -5.5326856068570984e-01 +5.6802434511777442e-03
6.5000000000000002e-01 +8.3649883604366195e+00 +0.0000000000000000e+00 +6.4999999986104617e-01 -2.8616630325080869e-02 -5.5327391586652641e-01 +5.6797241167434766e-03
7.0000000000000007e-01 +8.3649865008362472e+00 +0.0000000000000000e+00 +6.9999999982644923e-01 -2.8616509111617994e-02 -5.5327966034702003e-01 +5.6792064492883591e-03
7.5000000000000011e-01 +8.3649845034802794e+00 +0.0000000000000000e+00 +7.4999999978653908e-01 -2.8616410873820365e-02 -5.5328579314245030e-01 +5.6786904855455379e-03
8.0000000000000016e-01 +8.3649823683671904e+00 +0.0000000000000000e+00 +7.9999999974093616e-01 -2.8616335609038351e-02 -5.5329231326809525e-01 +5.6781762622482197e-03
8.5000000000000020e-01 +8.3649800954953548e+00 +0.0000000000000000e+00 +8.4999999968926088e-01 -2.8616283314622886e-02 -5.5329921973924834e-01 +5.6776638161296841e-03
9.0000000000000024e-01 +8.3649776848630548e+00 +0.0000000000000000e+00 +8.9999999963113364e-01 -2.8616253987925513e-02 -5.5330651157121991e-01 +5.6771531839232602e-03
9.5000000000000029e-01 +8.3649751364684750e+00 +0.0000000000000000e+00 +9.4999999956617465e-01 -2.8616247626298351e-02 -5.5331418777933872e-01 +5.6766444023623464e-03
1.0000000000000002e+00 +8.3649724503097023e+00 +0.0000000000000000e+00 +9.9999999949400431e-01 -2.8616264227093950e-02 -5.5332224737894842e-01 +5.6761375081803948e-03
1.0500000000000003e+00 +8.3649696263847311e+00 +0.0000000000000000e+00 +1.0499999994142430e+00 -2.8616303787665356e-02 -5.5333068938540964e-01 +5.6756325381109142e-03
1.1000000000000003e+00 +8.3649666646914600e+00 +0.0000000000000000e+00 +1.0999999993265110e+00 -2.8616366305366004e-02 -5.5333951281409943e-01 +5.6751295288874643e-03
1.1500000000000004e+00 +8.3649635652276917e+00 +0.0000000000000000e+00 +1.1499999992304284e+00 -2.8616451777549706e-02 -5.5334871668041130e-01 +5.6746285172436586e-03
1.2000000000000004e+00 +8.3649603279911364e+00 +0.0000000000000000e+00 +1.1999999991256156e+00 -2.8616560201570596e-02 -5.5335829999975428e-01 +5.6741295399131541e-03
1.2500000000000004e+00 +8.3649569529794050e+00 +0.0000000000000000e+00 +1.2499999990116928e+00 -2.8616691574783089e-02 -5.5336826178755383e-01 +5.6736326336296657e-03
1.3000000000000005e+00 +8.3649534401900194e+00 +0.0000000000000000e+00 +1.2999999988882800e+00 -2.8616845894541831e-02 -5.5337860105925119e-01 +5.6731378351269476e-03
1.3500000000000005e+00 +8.3649497896204057e+00 +0.0000000000000000e+00 +1.3499999987549975e+00 -2.8617023158201693e-02 -5.5338931683030346e-01 +5.6726451811387945e-03
1.4000000000000006e+00 +8.3649460012678940e+00 +0.0000000000000000e+00 +1.3999999986114655e+00 -2.8617223363117662e-02 -5.5340040811618318e-01 +5.6721547083990517e-03
1.4500000000000006e+00 +8.3649420751297239e+00 +0.0000000000000000e+00 +1.4499999984573040e+00 -2.8617446506644880e-02 -5.5341187393237878e-01 +5.6716664536415971e-03
1.5000000000000007e+00 +8.3649380112030407e+00 +0.0000000000000000e+00 +1.4999999982921333e+00 -2.8617692586138520e-02 -5.5342371329439333e-01 +5.6711804536003461e-03
1.5500000000000007e+00 +8.3649338094848975e+00 +0.0000000000000000e+00 +1.5499999981155730e+00 -2.8617961598953794e-02 -5.5343592521774643e-01 +5.6706967450092524e-03
1.6000000000000008e+00 +8.3649294699722532e+00 +0.0000000000000000e+00 +1.5999999979272435e+00 -2.8618253542445918e-02 -5.5344850871797169e-01 +5.6702153646023068e-03
1.6500000000000008e+00 +8.3649249926619742e+00 +0.0000000000000000e+00 +1.6499999977267645e+00 -2.8618568413970022e-02 -5.5346146281061792e-01 +5.6697363491135218e-03
1.7000000000000008e+00 +8.3649203775508347e+00 +0.0000000000000000e+00 +1.6999999975137563e+00 -2.8618906210881149e-02 -5.5347478651124971e-01 +5.6692597352769472e-03
1.7500000000000009e+00 +8.3649156246355183e+00 +0.0000000000000000e+00 +1.7499999972878384e+00 -2.8619266930534196e-02 -5.5348847883544539e-01 +5.6687855598266590e-03
1.8000000000000009e+00 +8.3649107339126161e+00 +0.0000000000000000e+00 +1.7999999970486309e+00 -2.8619650570283890e-02 -5.5350253879879896e-01 +5.6683138594967606e-03
1.8500000000000010e+00 +8.3649057053786287e+00 +0.0000000000000000e+00 +1.8499999967957534e+00 -2.8620057127484690e-02 -5.5351696541691808e-01 +5.6678446710213739e-03
1.9000000000000010e+00 +8.3649005390299624e+00 +0.0000000000000000e+00 +1.8999999965288261e+00 -2.8620486599490833e-02 -5.5353175770542551e-01 +5.6673780311346502e-03
1.9500000000000011e+00 +8.3648952348629351e+00 +0.0000000000000000e+00 +1.9499999962474683e+00 -2.8620938983656200e-02 -5.5354691467995809e-01 +5.6669139765707513e-03
2.0000000000000009e+00 +8.3648897928737718e+00 +0.0000000000000000e+00 +1.9999999959513000e+00 -2.8621414277334362e-02 -5.5356243535616745e-01 +5.6664525440638693e-03
2.0500000000000007e+00 +8.3648842130586090e+00 +0.0000000000000000e+00 +2.0499999956399408e+00 -2.8621912455158119e-02 -5.5357831858480711e-01 +5.6659937686891230e-03
2.1000000000000005e+00 +8.3648784954134925e+00 +0.0000000000000000e+00 +2.0999999953130102e+00 -2.8622433400879138e-02 -5.5359456255700135e-01 +5.6655376788853845e-03
2.1500000000000004e+00 +8.3648726399343776e+00 +0.0000000000000000e+00 +2.1499999949701278e+00 -2.8622976975529513e-02 -5.5361116529897636e-01 +5.6650843014325377e-03
2.2000000000000002e+00 +8.3648666466171324e+00 +0.0000000000000000e+00 +2.1999999946109137e+00 -2.8623543040142335e-02 -5.5362812483697077e-01 +5.6646336631105696e-03
2.2500000000000000e+00 +8.3648605154575328e+00 +0.0000000000000000e+00 +2.2499999942349866e+00 -2.8624131455751756e-02 -5.5364543919723663e-01 +5.6641857906995809e-03
2.2999999999999998e+00 +8.3648542464512676e+00 +0.0000000000000000e+00 +2.2999999938419666e+00 -2.8624742083392905e-02 -5.5366310640603822e-01 +5.6637407109797772e-03
2.3499999999999996e+00 +8.3648478395939385e+00 +0.0000000000000000e+00 +2.3499999934314726e+00 -2.8625374784102046e-02 -5.5368112448965212e-01 +5.6632984507314762e-03
2.3999999999999995e+00 +8.3648412948810584e+00 +0.0000000000000000e+00 +2.3999999930031239e+00 -2.8626029418916604e-02 -5.5369949147436748e-01 +5.6628590367351151e-03
2.4499999999999993e+00 +8.3648346123080568e+00 +0.0000000000000000e+00 +2.4499999925565401e+00 -2.8626705848875104e-02 -5.5371820538648520e-01 +5.6624224957712507e-03
2.4999999999999991e+00 +8.3648277918702725e+00 +0.0000000000000000e+00 +2.4999999920913405e+00 -2.8627403935017351e-02 -5.5373726425231817e-01 +5.6619888546205581e-03
2.5499999999999989e+00 +8.3648208335629608e+00 +0.0000000000000000e+00 +2.5499999916071441e+00 -2.8628123538384398e-02 -5.5375666609819163e-01 +5.6615581400638474e-03
2.5999999999999988e+00 +8.3648137373812919e+00 +0.0000000000000000e+00 +2.5999999911035703e+00 -2.8628864520018577e-02 -5.5377640895044156e-01 +5.6611303788820554e-03
2.6499999999999986e+00 +8.3648065033203487e+00 +0.0000000000000000e+00 +2.6499999905802381e+00 -2.8629626740963563e-02 -5.5379649083541527e-01 +5.6607055978562465e-03
2.6999999999999984e+00 +8.3647991313751326e+00 +0.0000000000000000e+00 +2.6999999900367664e+00 -2.8630410062264414e-02 -5.5381690977947196e-01 +5.6602838237676230e-03
2.7499999999999982e+00 +8.3647916215405598e+00 +0.0000000000000000e+00 +2.7499999894727742e+00 -2.8631214344967602e-02 -5.5383766380898247e-01 +5.6598650833975276e-03
2.7999999999999980e+00 +8.3647839738114627e+00 +0.0000000000000000e+00 +2.7999999888878806e+00 -2.8632039450121060e-02 -5.5385875095032655e-01 +5.6594494035274471e-03
2.8499999999999979e+00 +8.3647761881825904e+00 +0.0000000000000000e+00 +2.8499999882817044e+00 -2.8632885238774254e-02 -5.5388016922989691e-01 +5.6590368109390122e-03
2.8999999999999977e+00 +8.3647682646486103e+00 +0.0000000000000000e+00 +2.8999999876538647e+00 -2.8633751571978113e-02 -5.5390191667409505e-01 +5.6586273324140011e-03
2.9499999999999975e+00 +8.3647602032041100e+00 +0.0000000000000000e+00 +2.9499999870039799e+00 -2.8634638310785238e-02 -5.5392399130933412e-01 +5.6582209947343455e-03
2.9999999999999973e+00 +8.3647520038435914e+00 +0.0000000000000000e+00 +2.9999999863316691e+00 -2.8635545316249796e-02 -5.5394639116203725e-01 +5.6578178246821324e-03
3.0499999999999972e+00 +8.3647436665614787e+00 +0.0000000000000000e+00 +3.0499999856365503e+00 -2.8636472449427623e-02 -5.5396911425863693e-01 +5.6574178490396074e-03
3.0999999999999970e+00 +8.3647351913521124e+00 +0.0000000000000000e+00 +3.0999999849182425e+00 -2.8637419571376287e-02 -5.5399215862557694e-01 +5.6570210945891741e-03
3.1499999999999968e+00 +8.3647265782097566e+00 +0.0000000000000000e+00 +3.1499999841763642e+00 -2.8638386543155064e-02 -5.5401552228930917e-01 +5.6566275881134078e-03
3.1999999999999966e+00 +8.3647178271285938e+00 +0.0000000000000000e+00 +3.1999999834105339e+00 -2.8639373225825052e-02 -5.5403920327629663e-01 +5.6562373563950477e-03
3.2499999999999964e+00 +8.3647089381027282e+00 +0.0000000000000000e+00 +3.2499999826203703e+00 -2.8640379480449153e-02 -5.5406319961301087e-01 +5.6558504262170066e-03
3.2999999999999963e+00 +8.3646999111261859e+00 +0.0000000000000000e+00 +3.2999999818054913e+00 -2.8641405168092129e-02 -5.5408750932593254e-01 +5.6554668243623627e-03
3.3499999999999961e+00 +8.3646907461929150e+00 +0.0000000000000000e+00 +3.3499999809655154e+00 -2.8642450149820652e-02 -5.5411213044155216e-01 +5.6550865776143853e-03
3.3999999999999959e+00 +8.3646814432967833e+00 +0.0000000000000000e+00 +3.3999999801000609e+00 -2.8643514286703385e-02 -5.5413706098636883e-01 +5.6547097127565222e-03
3.4499999999999957e+00 +8.3646720024315844e+00 +0.0000000000000000e+00 +3.4499999792087457e+00 -2.8644597439810911e-02 -5.5416229898688962e-01 +5.6543362565723938e-03
3.4999999999999956e+00 +8.3646624235910352e+00 +0.0000000000000000e+00 +3.4999999782911879e+00 -2.8645699470215894e-02 -5.5418784246963149e-01 +5.6539662358458228e-03
3.5499999999999954e+00 +8.3646527067687764e+00 +0.0000000000000000e+00 +3.5499999773470057e+00 -2.8646820238993027e-02 -5.5421368946111904e-01 +5.6535996773608094e-03
3.5999999999999952e+00 +8.3646428519583722e+00 +0.0000000000000000e+00 +3.5999999763758170e+00 -2.8647959607219175e-02 -5.5423983798788545e-01 +5.6532366079015640e-03
3.6499999999999950e+00 +8.3646328591533123e+00 +0.0000000000000000e+00 +3.6499999753772396e+00 -2.8649117435973287e-02 -5.5426628607647177e-01 +5.6528770542524738e-03
3.6999999999999948e+00 +8.3646227283470118e+00 +0.0000000000000000e+00 +3.6999999743508916e+00 -2.8650293586336546e-02 -5.5429303175342703e-01 +5.6525210431981462e-03
3.7499999999999947e+00 +8.3646124595328111e+00 +0.0000000000000000e+00 +3.7499999732963900e+00 -2.8651487919392340e-02 -5.5432007304530795e-01 +5.6521686015233771e-03
3.7999999999999945e+00 +8.3646020527039777e+00 +0.0000000000000000e+00 +3.7999999722133531e+00 -2.8652700296226373e-02 -5.5434740797867921e-01 +5.6518197560131789e-03
3.8499999999999943e+00 +8.3645915078537065e+00 +0.0000000000000000e+00 +3.8499999711013984e+00 -2.8653930577926624e-02 -5.5437503458011261e-01 +5.6514745334527690e-03
3.8999999999999941e+00 +8.3645808249751177e+00 +0.0000000000000000e+00 +3.8999999699601435e+00 -2.8655178625583436e-02 -5.5440295087618674e-01 +5.6511329606275780e-03
3.9499999999999940e+00 +8.3645700040612621e+00 +0.0000000000000000e+00 +3.9499999687892058e+00 -2.8656444300289567e-02 -5.5443115489348838e-01 +5.6507950643232560e-03
3.9999999999999938e+00 +8.3645590451051177e+00 +0.0000000000000000e+00 +3.9999999675882028e+00 -2.8657727463140176e-02 -5.5445964465861075e-01 +5.6504608713256717e-03
4.0499999999999936e+00 +8.3645479480995917e+00 +0.0000000000000000e+00 +4.0499999663567516e+00 -2.8659027959842660e-02 -5.5448841804042492e-01 +5.6501304070914306e-03
4.0999999999999934e+00 +8.3645367130375181e+00 +0.0000000000000000e+00 +4.0999999650944696e+00 -2.8660345574544915e-02 -5.5451747227689463e-01 +5.6498036917594268e-03
4.1499999999999932e+00 +8.3645253399116655e+00 +0.0000000000000000e+00 +4.1499999638009735e+00 -2.8661680076004725e-02 -5.5454680444825655e-01 +5.6494807441392842e-03
4.1999999999999931e+00 +8.3645138287147294e+00 +0.0000000000000000e+00 +4.1999999624758813e+00 -2.8663031232979860e-02 -5.5457641163475013e-01 +5.6491615830408680e-03
4.2499999999999929e+00 +8.3645021794393397e+00 +0.0000000000000000e+00 +4.2499999611188093e+00 -2.8664398814228099e-02 -5.5460629091661584e-01 +5.6488462272742688e-03
4.2999999999999927e+00 +8.3644903920780553e+00 +0.0000000000000000e+00 +4.2999999597293748e+00 -2.8665782588507115e-02 -5.5463643937409624e-01 +5.6485346956498131e-03
4.3499999999999925e+00 +8.3644784666233711e+00 +0.0000000000000000e+00 +4.3499999583071940e+00 -2.8667182324574481e-02 -5.5466685408743477e-01 +5.6482270069780688e-03
4.3999999999999924e+00 +8.3644664030677145e+00 +0.0000000000000000e+00 +4.3999999568518842e+00 -2.8668597791187609e-02 -5.5469753213687545e-01 +5.6479231800698479e-03
4.4499999999999922e+00 +8.3644542014034489e+00 +0.0000000000000000e+00 +4.4499999553630625e+00 -2.8670028757103751e-02 -5.5472847060266350e-01 +5.6476232337362058e-03
4.4999999999999920e+00 +8.3644418616228702e+00 +0.0000000000000000e+00 +4.4999999538403443e+00 -2.8671474991079939e-02 -5.5475966656504372e-01 +5.6473271867884456e-03
4.5499999999999918e+00 +8.3644293837182104e+00 +0.0000000000000000e+00 +4.5499999522833470e+00 -2.8672936261872926e-02 -5.5479111710426154e-01 +5.6470350580381211e-03
4.5999999999999917e+00 +8.3644167676816394e+00 +0.0000000000000000e+00 +4.5999999506916875e+00 -2.8674412338239211e-02 -5.5482281930056176e-01 +5.6467468662970473e-03
4.6499999999999915e+00 +8.3644040135052649e+00 +0.0000000000000000e+00 +4.6499999490649815e+00 -2.8675902988934947e-02 -5.5485477023418828e-01 +5.6464626303772917e-03
4.6999999999999913e+00 +8.3643911211811321e+00 +0.0000000000000000e+00 +4.6999999474028451e+00 -2.8677407982715931e-02 -5.5488696698538476e-01 +5.6461823690911826e-03
4.7499999999999911e+00 +8.3643780907012246e+00 +0.0000000000000000e+00 +4.7499999457048947e+00 -2.8678927088337566e-02 -5.5491940663439321e-01 +5.6459061012513138e-03
4.7999999999999909e+00 +8.3643649220574652e+00 +0.0000000000000000e+00 +4.7999999439707466e+00 -2.8680460074554822e-02 -5.5495208626145465e-01 +5.6456338456705533e-03
4.8499999999999908e+00 +8.3643516152417181e+00 +0.0000000000000000e+00 +4.8499999422000171e+00 -2.8682006710122186e-02 -5.5498500294680775e-01 +5.6453656211620292e-03
4.8999999999999906e+00 +8.3643381702457873e+00 +0.0000000000000000e+00 +4.8999999403923216e+00 -2.8683566763793678e-02 -5.5501815377068919e-01 +5.6451014465391507e-03
4.9499999999999904e+00 +8.3643245870614198e+00 +0.0000000000000000e+00 +4.9499999385472764e+00 -2.8685140004322717e-02 -5.5505153581333333e-01 +5.6448413406155950e-03
4.9999999999999902e+00 +8.3643108656803040e+00 +0.0000000000000000e+00 +4.9999999366644978e+00 -2.8686726200462215e-02 -5.5508514615497240e-01 +5.6445853222053350e-03
5.0499999999999901e+00 +8.3642970060940716e+00 +0.0000000000000000e+00 +5.0499999347436004e+00 -2.8688325120964409e-02 -5.5511898187583530e-01 +5.6443334101226091e-03
5.0999999999999899e+00 +8.3642830082942972e+00 +0.0000000000000000e+00 +5.0999999327842005e+00 -2.8689936534580927e-02 -5.5515304005614774e-01 +5.6440856231819566e-03
5.1499999999999897e+00 +8.3642688722725023e+00 +0.0000000000000000e+00 +5.1499999307859134e+00 -2.8691560210062708e-02 -5.5518731777613128e-01 +5.6438419801981997e-03
5.1999999999999895e+00 +8.3642545980201533e+00 +0.0000000000000000e+00 +5.1999999287483547e+00 -2.8693195916159948e-02 -5.5522181211600485e-01 +5.6436024999864465e-03
5.2499999999999893e+00 +8.3642401855286614e+00 +0.0000000000000000e+00 +5.2499999266711397e+00 -2.8694843421622127e-02 -5.5525652015598248e-01 +5.6433672013621178e-03
5.2999999999999892e+00 +8.3642256347893849e+00 +0.0000000000000000e+00 +5.2999999245538838e+00 -2.8696502495197864e-02 -5.5529143897627353e-01 +5.6431361031409177e-03
5.3499999999999890e+00 +8.3642109457936300e+00 +0.0000000000000000e+00 +5.3499999223962016e+00 -2.8698172905635054e-02 -5.5532656565708383e-01 +5.6429092241388635e-03
5.3999999999999888e+00 +8.3641961185326501e+00 +0.0000000000000000e+00 +5.3999999201977094e+00 -2.8699854421680625e-02 -5.5536189727861329e-01 +5.6426865831722666e-03
5.4499999999999886e+00 +8.3641811529976504e+00 +0.0000000000000000e+00 +5.4499999179580207e+00 -2.8701546812080651e-02 -5.5539743092105620e-01 +5.6424681990577576e-03
5.4999999999999885e+00 +8.3641660491797829e+00 +0.0000000000000000e+00 +5.4999999156767512e+00 -2.8703249845580286e-02 -5.5543316366460205e-01 +5.6422540906122757e-03
5.5499999999999883e+00 +8.3641508070701516e+00 +0.0000000000000000e+00 +5.5499999133535161e+00 -2.8704963290923688e-02 -5.5546909258943467e-01 +5.6420442766530682e-03
5.5999999999999881e+00 +8.3641354266598089e+00 +0.0000000000000000e+00 +5.5999999109879299e+00 -2.8706686916854001e-02 -5.5550521477573056e-01 +5.6418387759977094e-03
5.6499999999999879e+00 +8.3641199079397630e+00 +0.0000000000000000e+00 +5.6499999085796073e+00 -2.8708420492113362e-02 -5.5554152730366113e-01 +5.6416376074640900e-03
5.6999999999999877e+00 +8.3641042509009740e+00 +0.0000000000000000e+00 +5.6999999061281628e+00 -2.8710163785442774e-02 -5.5557802725338978e-01 +5.6414407898704244e-03
5.7499999999999876e+00 +8.3640884555343522e+00 +0.0000000000000000e+00 +5.7499999036332108e+00 -2.8711916565582168e-02 -5.5561471170507359e-01 +5.6412483420352540e-03
5.7999999999999874e+00 +8.3640725218307654e+00 +0.0000000000000000e+00 +5.7999999010943659e+00 -2.8713678601270321e-02 -5.5565157773886231e-01 +5.6410602827774601e-03
5.8499999999999872e+00 +8.3640564497810352e+00 +0.0000000000000000e+00 +5.8499998985112418e+00 -2.8715449661244799e-02 -5.5568862243489781e-01 +5.6408766309162441e-03
5.8999999999999870e+00 +8.3640402393759370e+00 +0.0000000000000000e+00 +5.8999998958834539e+00 -2.8717229514241941e-02 -5.5572584287331428e-01 +5.6406974052711492e-03
