# field on trajectory
# s[mm] rx[mm] ry[mm] rz[mm] bx[T] by[T] bz[T]
-0.0000000000000000e+00 +8.5270000000000206e+00 +0.0000000000000000e+00 -0.0000000000000000e+00 -3.0364289475158190e-02 -5.7904276310578384e-01 +5.6601105152811028e-03
-5.0000000000000003e-02 +8.5269999309457507e+00 +0.0000000000000000e+00 -4.9999999999936401e-02 -3.0364439563521677e-02 -5.7904590516868504e-01 +5.6627646063715058e-03
-1.0000000000000001e-01 +8.5269997237846802e+00 +0.0000000000000000e+00 -9.9999999999491399e-02 -3.0364614705204528e-02 -5.7904942300482465e-01 +5.6654261258828444e-03
-1.4999999999999999e-01 +8.5269993785186706e+00 +0.0000000000000000e+00 -1.4999999999828301e-01 -3.0364814894940233e-02 -5.7905331580011821e-01 +5.6680948736811581e-03
-2.0000000000000001e-01 +8.5269988951477007e+00 +0.0000000000000000e+00 -1.9999999999593099e-01 -3.0365040127464289e-02 -5.7905758274051078e-01 +5.6707706496328296e-03
-2.5000000000000000e-01 +8.5269982736681396e+00 +0.0000000000000000e+00 -2.4999999999205300e-01 -3.0365290397515014e-02 -5.7906222301199117e-01 +5.6734532536047095e-03
-2.9999999999999999e-01 +8.5269975140799907e+00 +0.0000000000000000e+00 -2.9999999998626697e-01 -3.0365565699830555e-02 -5.7906723580053843e-01 +5.6761424854635378e-03
-3.4999999999999998e-01 +8.5269966163905302e+00 +0.0000000000000000e+00 -3.4999999997819298e-01 -3.0365866029147388e-02 -5.7907262029209217e-01 +5.6788381450756584e-03
-4.0000000000000002e-01 +8.5269955805888493e+00 +0.0000000000000000e+00 -3.9999999996744801e-01 -3.0366191380210759e-02 -5.7907837567274634e-01 +5.6815400323089573e-03
-4.5000000000000001e-01 +8.5269944066858407e+00 +0.0000000000000000e+00 -4.4999999995365197e-01 -3.0366541747758248e-02 -5.7908450112844601e-01 +5.6842479470297740e-03
-5.0000000000000000e-01 +8.5269930946742498e+00 +0.0000000000000000e+00 -4.9999999993642202e-01 -3.0366917126536212e-02 -5.7909099584528934e-01 +5.6869616891059554e-03
-5.5000000000000004e-01 +8.5269916445577092e+00 +0.0000000000000000e+00 -5.4999999991537796e-01 -3.0367317511287829e-02 -5.7909785900930877e-01 +5.6896810584046208e-03
-5.9999999999999998e-01 +8.5269900563289394e+00 +0.0000000000000000e+00 -5.9999999989013697e-01 -3.0367742896762074e-02 -5.7910508980663611e-01 +5.6924058547938193e-03
-6.5000000000000002e-01 +8.5269883299988596e+00 +0.0000000000000000e+00 -6.4999999986031898e-01 -3.0368193277701711e-02 -5.7911268742327981e-01 +5.6951358781402615e-03
-6.9999999999999996e-01 +8.5269864655601904e+00 +0.0000000000000000e+00 -6.9999999982554195e-01 -3.0368668648858267e-02 -5.7912065104540267e-01 +5.6978709283121275e-03
-7.5000000000000000e-01 +8.5269844630165608e+00 +0.0000000000000000e+00 -7.4999999978542398e-01 -3.0369169004980129e-02 -5.7912897985910095e-01 +5.7006108051768012e-03
-8.0000000000000004e-01 +8.5269823223679904e+00 +0.0000000000000000e+00 -7.9999999973958402e-01 -3.0369694340818390e-02 -5.7913767305051389e-01 +5.7033553086019784e-03
-8.4999999999999998e-01 +8.5269800436108198e+00 +0.0000000000000000e+00 -8.4999999968764095e-01 -3.0370244651126980e-02 -5.7914672980582393e-01 +5.7061042384556537e-03
-9.0000000000000002e-01 +8.5269776267450705e+00 +0.0000000000000000e+00 -8.9999999962921295e-01 -3.0370819930659598e-02 -5.7915614931120174e-01 +5.7088573946055456e-03
-9.4999999999999996e-01 +8.5269750717743609e+00 +0.0000000000000000e+00 -9.4999999956391801e-01 -3.0371420174169706e-02 -5.7916593075280542e-01 +5.7116145769190736e-03
-1.0000000000000000e+00 +8.5269723786986997e+00 +0.0000000000000000e+00 -9.9999999949137597e-01 -3.0372045376413564e-02 -5.7917607331683618e-01 +5.7143755852639214e-03
-1.0500000000000000e+00 +8.5269695475144491e+00 +0.0000000000000000e+00 -1.0499999994111999e+00 -3.0372695532150155e-02 -5.7918657618953828e-01 +5.7171402195080115e-03
-1.1000000000000001e+00 +8.5269665782288904e+00 +0.0000000000000000e+00 -1.0999999993230201e+00 -3.0373370636135311e-02 -5.7919743855708883e-01 +5.7199082795183660e-03
-1.1499999999999999e+00 +8.5269634708311095e+00 +0.0000000000000000e+00 -1.1499999992264500e+00 -3.0374070683133570e-02 -5.7920865960581736e-01 +5.7226795651633584e-03
-1.2000000000000000e+00 +8.5269602253283701e+00 +0.0000000000000000e+00 -1.1999999991210999e+00 -3.0374795667903250e-02 -5.7922023852193061e-01 +5.7254538763098616e-03
-1.2500000000000000e+00 +8.5269568417206791e+00 +0.0000000000000000e+00 -1.2499999990065900e+00 -3.0375545585206939e-02 -5.7923217449170616e-01 +5.7282310128252186e-03
-1.3000000000000000e+00 +8.5269533200044005e+00 +0.0000000000000000e+00 -1.2999999988825499e+00 -3.0376320429809978e-02 -5.7924446670146323e-01 +5.7310107745769494e-03
-1.3500000000000001e+00 +8.5269496601795307e+00 +0.0000000000000000e+00 -1.3499999987485900e+00 -3.0377120196477446e-02 -5.7925711433750926e-01 +5.7337929614321714e-03
-1.3999999999999999e+00 +8.5269458622533403e+00 +0.0000000000000000e+00 -1.3999999986043401e+00 -3.0377944879972734e-02 -5.7927011658610983e-01 +5.7365773732572780e-03
-1.4500000000000000e+00 +8.5269419262185693e+00 +0.0000000000000000e+00 -1.4499999984494001e+00 -3.0378794475066400e-02 -5.7928347263365654e-01 +5.7393638099196643e-03
-1.5000000000000000e+00 +8.5269378520752106e+00 +0.0000000000000000e+00 -1.4999999982833900e+00 -3.0379668976527312e-02 -5.7929718166650113e-01 +5.7421520712859888e-03
-1.5500000000000000e+00 +8.5269336398268898e+00 +0.0000000000000000e+00 -1.5499999981059500e+00 -3.0380568379124062e-02 -5.7931124287098035e-01 +5.7449419572224401e-03
-1.6000000000000001e+00 +8.5269292894736299e+00 +0.0000000000000000e+00 -1.5999999979166799e+00 -3.0381492677627971e-02 -5.7932565543347447e-01 +5.7477332675952902e-03
-1.6499999999999999e+00 +8.5269248010117700e+00 +0.0000000000000000e+00 -1.6499999977152000e+00 -3.0382441866813149e-02 -5.7934041854040530e-01 +5.7505258022709132e-03
-1.7000000000000000e+00 +8.5269201744449692e+00 +0.0000000000000000e+00 -1.6999999975011300e+00 -3.0383415941451872e-02 -5.7935553137815343e-01 +5.7533193611148548e-03
-1.7500000000000000e+00 +8.5269154097695701e+00 +0.0000000000000000e+00 -1.7499999972740901e+00 -3.0384414896320707e-02 -5.7937099313316875e-01 +5.7561137439930262e-03
-1.8000000000000000e+00 +8.5269105069892195e+00 +0.0000000000000000e+00 -1.7999999970336999e+00 -3.0385438726194414e-02 -5.7938680299186085e-01 +5.7589087507704945e-03
-1.8500000000000001e+00 +8.5269054661039299e+00 +0.0000000000000000e+00 -1.8499999967795799e+00 -3.0386487425850511e-02 -5.7940296014068016e-01 +5.7617041813123552e-03
-1.8999999999999999e+00 +8.5269002871100401e+00 +0.0000000000000000e+00 -1.8999999965113501e+00 -3.0387560990069236e-02 -5.7941946376611919e-01 +5.7644998354837249e-03
-1.9500000000000000e+00 +8.5268949700112007e+00 +0.0000000000000000e+00 -1.9499999962286201e+00 -3.0388659413629025e-02 -5.7943631305462862e-01 +5.7672955131488268e-03
-2.0000000000000000e+00 +8.5268895148037700e+00 +0.0000000000000000e+00 -1.9999999959310100e+00 -3.0389782691312577e-02 -5.7945350719272870e-01 +5.7700910141721753e-03
-2.0499999999999998e+00 +8.5268839213858900e+00 +0.0000000000000000e+00 -2.0499999956181298e+00 -3.0390930778897932e-02 -5.7947104514279901e-01 +5.7728861456958613e-03
-2.1000000000000001e+00 +8.5268781896593300e+00 +0.0000000000000000e+00 -2.0999999952895898e+00 -3.0392103475977119e-02 -5.7948892496760140e-01 +5.7756807439413426e-03
-2.1499999999999999e+00 +8.5268723196240899e+00 +0.0000000000000000e+00 -2.1499999949449999e+00 -3.0393300543055852e-02 -5.7950714450426144e-01 +5.7784746523918042e-03
-2.2000000000000002e+00 +8.5268663112729008e+00 +0.0000000000000000e+00 -2.1999999945839801e+00 -3.0394521740643516e-02 -5.7952570158997208e-01 +5.7812677145306704e-03
-2.2500000000000000e+00 +8.5268601646093902e+00 +0.0000000000000000e+00 -2.2499999942061502e+00 -3.0395766829245659e-02 -5.7954459406185688e-01 +5.7840597738401172e-03
-2.2999999999999998e+00 +8.5268538796335598e+00 +0.0000000000000000e+00 -2.2999999938111202e+00 -3.0397035569369832e-02 -5.7956381975707683e-01 +5.7868506738022159e-03
-2.3500000000000001e+00 +8.5268474563490599e+00 +0.0000000000000000e+00 -2.3499999933985198e+00 -3.0398327721522692e-02 -5.7958337651277891e-01 +5.7896402578983576e-03
-2.3999999999999999e+00 +8.5268408947522403e+00 +0.0000000000000000e+00 -2.3999999929679601e+00 -3.0399643046214439e-02 -5.7960326216617686e-01 +5.7924283696101095e-03
-2.4500000000000002e+00 +8.5268341948467405e+00 +0.0000000000000000e+00 -2.4499999925190501e+00 -3.0400981303952697e-02 -5.7962347455444041e-01 +5.7952148524180206e-03
-2.5000000000000000e+00 +8.5268273566252901e+00 +0.0000000000000000e+00 -2.4999999920514302e+00 -3.0402342255250098e-02 -5.7964401151483447e-01 +5.7979995498030901e-03
-2.5499999999999998e+00 +8.5268203800987994e+00 +0.0000000000000000e+00 -2.5499999915646900e+00 -3.0403725660612144e-02 -5.7966487088449636e-01 +5.8007823052443818e-03
-2.6000000000000001e+00 +8.5268132652563509e+00 +0.0000000000000000e+00 -2.5999999910584699e+00 -3.0405131280553777e-02 -5.7968605050074073e-01 +5.8035629622222758e-03
-2.6499999999999999e+00 +8.5268060121015896e+00 +0.0000000000000000e+00 -2.6499999905323701e+00 -3.0406558875584251e-02 -5.7970754820078352e-01 +5.8063413642154872e-03
-2.7000000000000002e+00 +8.5267986206345103e+00 +0.0000000000000000e+00 -2.6999999899860101e+00 -3.0408008206214643e-02 -5.7972936182187751e-01 +5.8091173547025242e-03
-2.7500000000000000e+00 +8.5267910908551094e+00 +0.0000000000000000e+00 -2.7499999894190199e+00 -3.0409479032956342e-02 -5.7975148920128827e-01 +5.8118907771614013e-03
-2.7999999999999998e+00 +8.5267834227670392e+00 +0.0000000000000000e+00 -2.7999999888310101e+00 -3.0410971116319432e-02 -5.7977392817626272e-01 +5.8146614750692995e-03
-2.8500000000000001e+00 +8.5267756163666508e+00 +0.0000000000000000e+00 -2.8499999882215898e+00 -3.0412484216817255e-02 -5.7979667658411471e-01 +5.8174292919034708e-03
-2.8999999999999999e+00 +8.5267676716539391e+00 +0.0000000000000000e+00 -2.8999999875903901e+00 -3.0414018094961845e-02 -5.7981973226214056e-01 +5.8201940711403192e-03
-2.9500000000000002e+00 +8.5267595886289200e+00 +0.0000000000000000e+00 -2.9499999869370299e+00 -3.0415572511265362e-02 -5.7984309304764681e-01 +5.8229556562556855e-03
-3.0000000000000000e+00 +8.5267513672915793e+00 +0.0000000000000000e+00 -2.9999999862611100e+00 -3.0417147226240077e-02 -5.7986675677794952e-01 +5.8257138907248313e-03
-3.0499999999999998e+00 +8.5267430076455604e+00 +0.0000000000000000e+00 -3.0499999855622502e+00 -3.0418742000396851e-02 -5.7989072129034802e-01 +5.8284686180221316e-03
-3.1000000000000001e+00 +8.5267345096872305e+00 +0.0000000000000000e+00 -3.0999999848400801e+00 -3.0420356594249603e-02 -5.7991498442220601e-01 +5.8312196816219545e-03
-3.1499999999999999e+00 +8.5267258734165807e+00 +0.0000000000000000e+00 -3.1499999840942201e+00 -3.0421990768310758e-02 -5.7993954401086945e-01 +5.8339669249977584e-03
-3.2000000000000002e+00 +8.5267170988336094e+00 +0.0000000000000000e+00 -3.1999999833242700e+00 -3.0423644283092726e-02 -5.7996439789369414e-01 +5.8367101916223640e-03
-3.2500000000000000e+00 +8.5267081859419704e+00 +0.0000000000000000e+00 -3.2499999825298600e+00 -3.0425316899106353e-02 -5.7998954390801671e-01 +5.8394493249676422e-03
-3.2999999999999998e+00 +8.5266991347380099e+00 +0.0000000000000000e+00 -3.2999999817106000e+00 -3.0427008376865412e-02 -5.8001497989123985e-01 +5.8421841685054208e-03
-3.3500000000000001e+00 +8.5266899452181004e+00 +0.0000000000000000e+00 -3.3499999808661101e+00 -3.0428718476883557e-02 -5.8004070368077365e-01 +5.8449145657068456e-03
-3.3999999999999999e+00 +8.5266806173895002e+00 +0.0000000000000000e+00 -3.3999999799960099e+00 -3.0430446959669767e-02 -5.8006671311395552e-01 +5.8476403600414726e-03
-3.4500000000000002e+00 +8.5266711512522306e+00 +0.0000000000000000e+00 -3.4499999790999101e+00 -3.0432193585735842e-02 -5.8009300602818625e-01 +5.8503613949787642e-03
-3.5000000000000000e+00 +8.5266615468026394e+00 +0.0000000000000000e+00 -3.4999999781774398e+00 -3.0433958115594888e-02 -5.8011958026090293e-01 +5.8530775139877681e-03
-3.5499999999999998e+00 +8.5266518040407409e+00 +0.0000000000000000e+00 -3.5499999772282100e+00 -3.0435740309758218e-02 -5.8014643364952434e-01 +5.8557885605365076e-03
-3.6000000000000001e+00 +8.5266419229665207e+00 +0.0000000000000000e+00 -3.5999999762518402e+00 -3.0437539928736896e-02 -5.8017356403147669e-01 +5.8584943780922646e-03
-3.6499999999999999e+00 +8.5266319035799807e+00 +0.0000000000000000e+00 -3.6499999752479400e+00 -3.0439356733041614e-02 -5.8020096924419495e-01 +5.8611948101215576e-03
-3.6999999999999900e+00 +8.5266217458847695e+00 +0.0000000000000000e+00 -3.6999999742161398e+00 -3.0441190483181238e-02 -5.8022864712509392e-01 +5.8638897000898426e-03
-3.7499999999999898e+00 +8.5266114498736005e+00 +0.0000000000000000e+00 -3.7499999731560498e+00 -3.0443040939668781e-02 -5.8025659551168107e-01 +5.8665788914627065e-03
-3.7999999999999901e+00 +8.5266010155537497e+00 +0.0000000000000000e+00 -3.7999999720672801e+00 -3.0444907863010743e-02 -5.8028481224135842e-01 +5.8692622277037153e-03
-3.8499999999999899e+00 +8.5265904429179500e+00 +0.0000000000000000e+00 -3.8499999709494599e+00 -3.0446791013719259e-02 -5.8031329515164864e-01 +5.8719395522768498e-03
-3.8999999999999901e+00 +8.5265797319771099e+00 +0.0000000000000000e+00 -3.8999999698022001e+00 -3.0448690152298379e-02 -5.8034204207994200e-01 +5.8746107086437354e-03
-3.9499999999999900e+00 +8.5265688827203103e+00 +0.0000000000000000e+00 -3.9499999686251202e+00 -3.0450605039260753e-02 -5.8037105086380325e-01 +5.8772755402670069e-03
-3.9999999999999898e+00 +8.5265578951548395e+00 +0.0000000000000000e+00 -3.9999999674178399e+00 -3.0452535435110836e-02 -5.8040031934066527e-01 +5.8799338906069020e-03
-4.0499999999999901e+00 +8.5265467692734092e+00 +0.0000000000000000e+00 -4.0499999661799704e+00 -3.0454481119216857e-02 -5.8042984522982866e-01 +5.8825856121708818e-03
-4.0999999999999899e+00 +8.5265355050833005e+00 +0.0000000000000000e+00 -4.0999999649111301e+00 -3.0456441946373619e-02 -5.8045962577748389e-01 +5.8852305936518074e-03
-4.1499999999999897e+00 +8.5265241025808791e+00 +0.0000000000000000e+00 -4.1499999636109504e+00 -3.0458417790238591e-02 -5.8048965811165398e-01 +5.8878687327894984e-03
-4.1999999999999904e+00 +8.5265125617697795e+00 +0.0000000000000000e+00 -4.1999999622790298e+00 -3.0460408524466024e-02 -5.8051993936030699e-01 +5.8904999273223270e-03
-4.2499999999999902e+00 +8.5265008826427202e+00 +0.0000000000000000e+00 -4.2499999609149901e+00 -3.0462414022714539e-02 -5.8055046665149468e-01 +5.8931240749887266e-03
-4.2999999999999901e+00 +8.5264890652069898e+00 +0.0000000000000000e+00 -4.2999999595184599e+00 -3.0464434158636450e-02 -5.8058123711315612e-01 +5.8957410735250302e-03
-4.3499999999999899e+00 +8.5264771094589396e+00 +0.0000000000000000e+00 -4.3499999580890396e+00 -3.0466468805888422e-02 -5.8061224787331422e-01 +5.8983508206676138e-03
-4.3999999999999897e+00 +8.5264650153985695e+00 +0.0000000000000000e+00 -4.3999999566263703e+00 -3.0468517838125302e-02 -5.8064349605996235e-01 +5.9009532141516535e-03
-4.4499999999999904e+00 +8.5264527830295300e+00 +0.0000000000000000e+00 -4.4499999551300400e+00 -3.0470581129000186e-02 -5.8067497880106456e-01 +5.9035481517111087e-03
-4.4999999999999902e+00 +8.5264404123481707e+00 +0.0000000000000000e+00 -4.4999999535996897e+00 -3.0472658552168880e-02 -5.8070669322463853e-01 +5.9061355310796402e-03
-4.5499999999999901e+00 +8.5264279033544899e+00 +0.0000000000000000e+00 -4.5499999520349199e+00 -3.0474749981285413e-02 -5.8073863645867341e-01 +5.9087152499896819e-03
-4.5999999999999899e+00 +8.5264152560448601e+00 +0.0000000000000000e+00 -4.5999999504353601e+00 -3.0476855290004937e-02 -5.8077080563118233e-01 +5.9112872061730260e-03
-4.6499999999999897e+00 +8.5264024704301793e+00 +0.0000000000000000e+00 -4.6499999488006196e+00 -3.0478974351976256e-02 -5.8080319787006474e-01 +5.9138512973592660e-03
-4.6999999999999904e+00 +8.5263895464995603e+00 +0.0000000000000000e+00 -4.6999999471303298e+00 -3.0481107040856846e-02 -5.8083581030338371e-01 +5.9164074212789070e-03
-4.7499999999999902e+00 +8.5263764842602505e+00 +0.0000000000000000e+00 -4.7499999454240900e+00 -3.0483253230296263e-02 -5.8086864005906036e-01 +5.9189554756599169e-03
-4.7999999999999901e+00 +8.5263632837050007e+00 +0.0000000000000000e+00 -4.7999999436815299e+00 -3.0485412793949722e-02 -5.8090168426512334e-01 +5.9214953582305239e-03
-4.8499999999999899e+00 +8.5263499448447000e+00 +0.0000000000000000e+00 -4.8499999419022597e+00 -3.0487585605464402e-02 -5.8093494004945712e-01 +5.9240269667163890e-03
-4.8999999999999897e+00 +8.5263364676684397e+00 +0.0000000000000000e+00 -4.8999999400859000e+00 -3.0489771538496146e-02 -5.8096840454011034e-01 +5.9265501988440454e-03
-4.9499999999999904e+00 +8.5263228521798702e+00 +0.0000000000000000e+00 -4.9499999382320699e+00 -3.0491970466694319e-02 -5.8100207486501398e-01 +5.9290649523377394e-03
-4.9999999999999902e+00 +8.5263090983826295e+00 +0.0000000000000000e+00 -4.9999999363403900e+00 -3.0494182263707769e-02 -5.8103594815209481e-01 +5.9315711249206945e-03
-5.0499999999999901e+00 +8.5262952059529198e+00 +0.0000000000000000e+00 -5.0499999344103799e+00 -3.0496406803321739e-02 -5.8107002153179044e-01 +5.9340686143434249e-03
-5.0999999999999899e+00 +8.5262811745706095e+00 +0.0000000000000000e+00 -5.0999999324415599e+00 -3.0498643959319567e-02 -5.8110429213450632e-01 +5.9365573183551741e-03
-5.1499999999999897e+00 +8.5262670042357094e+00 +0.0000000000000000e+00 -5.1499999304335597e+00 -3.0500893605350285e-02 -5.8113875708818308e-01 +5.9390371346764500e-03
-5.1999999999999904e+00 +8.5262526949518396e+00 +0.0000000000000000e+00 -5.1999999283859903e+00 -3.0503155615060860e-02 -5.8117341352072716e-01 +5.9415079610263613e-03
-5.2499999999999902e+00 +8.5262382467153692e+00 +0.0000000000000000e+00 -5.2499999262984600e+00 -3.0505429862100690e-02 -5.8120825856009317e-01 +5.9439696951235381e-03
-5.2999999999999901e+00 +8.5262236595299292e+00 +0.0000000000000000e+00 -5.2999999241705797e+00 -3.0507716220115569e-02 -5.8124328933417346e-01 +5.9464222346848747e-03
-5.3499999999999899e+00 +8.5262089333882596e+00 +0.0000000000000000e+00 -5.3499999220019703e+00 -3.0510014562755268e-02 -5.8127850297093731e-01 +5.9488654774270911e-03
-5.3999999999999897e+00 +8.5261940682976292e+00 +0.0000000000000000e+00 -5.3999999197922497e+00 -3.0512324763662814e-02 -5.8131389659823307e-01 +5.9512993210645076e-03
-5.4499999999999904e+00 +8.5261790642507496e+00 +0.0000000000000000e+00 -5.4499999175410201e+00 -3.0514646696486663e-02 -5.8134946734401460e-01 +5.9537236633115604e-03
-5.4999999999999902e+00 +8.5261639212585596e+00 +0.0000000000000000e+00 -5.4999999152479004e+00 -3.0516980234867049e-02 -5.8138521233608631e-01 +5.9561384018799492e-03
-5.5499999999999901e+00 +8.5261486393137602e+00 +0.0000000000000000e+00 -5.5499999129125097e+00 -3.0519325252451088e-02 -5.8142112870238416e-01 +5.9585434344817815e-03
-5.5999999999999899e+00 +8.5261332184127205e+00 +0.0000000000000000e+00 -5.5999999105344500e+00 -3.0521681622883701e-02 -5.8145721357080704e-01 +5.9609386588276685e-03
-5.6499999999999897e+00 +8.5261176585627307e+00 +0.0000000000000000e+00 -5.6499999081133403e+00 -3.0524049219804509e-02 -5.8149346406916036e-01 +5.9633239726260764e-03
-5.6999999999999904e+00 +8.5261019597637606e+00 +0.0000000000000000e+00 -5.6999999056488004e+00 -3.0526427916855434e-02 -5.8152987732529660e-01 +5.9656992735848974e-03
-5.7499999999999902e+00 +8.5260861220122006e+00 +0.0000000000000000e+00 -5.7499999031404396e+00 -3.0528817587679172e-02 -5.8156645046708477e-01 +5.9680644594111215e-03
-5.7999999999999901e+00 +8.5260701453080401e+00 +0.0000000000000000e+00 -5.7999999005878804e+00 -3.0531218105916125e-02 -5.8160318062235694e-01 +5.9704194278101946e-03
-5.8499999999999899e+00 +8.5260540296512808e+00 +0.0000000000000000e+00 -5.8499998979907204e+00 -3.0533629345205895e-02 -5.8164006491893350e-01 +5.9727640764863157e-03
