# field on trajectory
# s[mm] rx[mm] ry[mm] rz[mm] bx[T] by[T] bz[T]
0.0000000000000000e+00 +8.2850000000000001e+00 +0.0000000000000000e+00 +0.0000000000000000e+00 -2.9242992249830062e-02 -5.5522507216657646e-01 +4.7921352570561163e-03
5.0000000000000003e-02 +8.2849999309544522e+00 +0.0000000000000000e+00 +4.9999999999936436e-02 -2.9244387865246534e-02 -5.5522489306229372e-01 +4.7921890504467393e-03
1.0000000000000001e-01 +8.2849997238178208e+00 +0.0000000000000000e+00 +9.9999999999491496e-02 -2.9245804360028962e-02 -5.5522509869735048e-01 +4.7922589234367947e-03
1.5000000000000002e-01 +8.2849993785900544e+00 +0.0000000000000000e+00 +1.4999999999828378e-01 -2.9247241493013769e-02 -5.5522568829876462e-01 +4.7923449005245859e-03
2.0000000000000001e-01 +8.2849988952710074e+00 +0.0000000000000000e+00 +1.9999999999593193e-01 -2.9248699023037818e-02 -5.5522666109357377e-01 +4.7924470062092970e-03
2.5000000000000000e-01 +8.2849982738604382e+00 +0.0000000000000000e+00 +2.4999999999205452e-01 -2.9250176708938341e-02 -5.5522801630883256e-01 +4.7925652649909853e-03
2.9999999999999999e-01 +8.2849975143580092e+00 +0.0000000000000000e+00 +2.9999999998627019e-01 -2.9251674309552989e-02 -5.5522975317161383e-01 +4.7926997013705988e-03
3.4999999999999998e-01 +8.2849966167632889e+00 +0.0000000000000000e+00 +3.4999999997819753e-01 -2.9253191583719744e-02 -5.5523187090900727e-01 +4.7928503398499515e-03
3.9999999999999997e-01 +8.2849955810757496e+00 +0.0000000000000000e+00 +3.9999999996745517e-01 -2.9254728290277070e-02 -5.5523436874812115e-01 +4.7930172049317488e-03
4.4999999999999996e-01 +8.2849944072947714e+00 +0.0000000000000000e+00 +4.4999999995366163e-01 -2.9256284188063787e-02 -5.5523724591608081e-01 +4.7932003211195624e-03
4.9999999999999994e-01 +8.2849930954196385e+00 +0.0000000000000000e+00 +4.9999999993643557e-01 -2.9257859035919181e-02 -5.5524050164002947e-01 +4.7933997129178596e-03
5.4999999999999993e-01 +8.2849916454495407e+00 +0.0000000000000000e+00 +5.4999999991539550e-01 -2.9259452592682911e-02 -5.5524413514712756e-01 +4.7936154048319815e-03
5.9999999999999998e-01 +8.2849900573835740e+00 +0.0000000000000000e+00 +5.9999999989016006e-01 -2.9261064617195087e-02 -5.5524814566455294e-01 +4.7938474213681465e-03
6.5000000000000002e-01 +8.2849883312207417e+00 +0.0000000000000000e+00 +6.4999999986034773e-01 -2.9262694868296257e-02 -5.5525253241950145e-01 +4.7940957870334618e-03
7.0000000000000007e-01 +8.2849864669599516e+00 +0.0000000000000000e+00 +6.9999999982557715e-01 -2.9264343104827409e-02 -5.5525729463918527e-01 +4.7943605263359133e-03
7.5000000000000011e-01 +8.2849844646000204e+00 +0.0000000000000000e+00 +7.4999999978546683e-01 -2.9266009085629978e-02 -5.5526243155083466e-01 +4.7946416637843761e-03
8.0000000000000016e-01 +8.2849823241396710e+00 +0.0000000000000000e+00 +7.9999999973963520e-01 -2.9267692569545832e-02 -5.5526794238169652e-01 +4.7949392238885967e-03
8.5000000000000020e-01 +8.2849800455775320e+00 +0.0000000000000000e+00 +8.4999999968770079e-01 -2.9269393315417325e-02 -5.5527382635903555e-01 +4.7952532311592118e-03
9.0000000000000024e-01 +8.2849776289121397e+00 +0.0000000000000000e+00 +8.9999999962928212e-01 -2.9271111082087263e-02 -5.5528008271013285e-01 +4.7955837101077425e-03
9.5000000000000029e-01 +8.2849750741419381e+00 +0.0000000000000000e+00 +9.4999999956399772e-01 -2.9272845628398915e-02 -5.5528671066228708e-01 +4.7959306852465933e-03
1.0000000000000002e+00 +8.2849723812652805e+00 +0.0000000000000000e+00 +9.9999999949146601e-01 -2.9274596713196040e-02 -5.5529370944281309e-01 +4.7962941810890504e-03
1.0500000000000003e+00 +8.2849695502804241e+00 +0.0000000000000000e+00 +1.0499999994113054e+00 -2.9276364095322849e-02 -5.5530107827904429e-01 +4.7966742221492893e-03
1.1000000000000003e+00 +8.2849665811855377e+00 +0.0000000000000000e+00 +1.0999999993231342e+00 -2.9278147533624073e-02 -5.5530881639832885e-01 +4.7970708329423658e-03
1.1500000000000004e+00 +8.2849634739786957e+00 +0.0000000000000000e+00 +1.1499999992265710e+00 -2.9279946786944969e-02 -5.5531692302803404e-01 +4.7974840379842306e-03
1.2000000000000004e+00 +8.2849602286578818e+00 +0.0000000000000000e+00 +1.1999999991212340e+00 -2.9281761614131190e-02 -5.5532539739554165e-01 +4.7979138617917083e-03
1.2500000000000004e+00 +8.2849568452209894e+00 +0.0000000000000000e+00 +1.2499999990067416e+00 -2.9283591774028981e-02 -5.5533423872825172e-01 +4.7983603288825226e-03
1.3000000000000005e+00 +8.2849533236658193e+00 +0.0000000000000000e+00 +1.2999999988827122e+00 -2.9285437025485087e-02 -5.5534344625358045e-01 +4.7988234637752749e-03
1.3500000000000005e+00 +8.2849496639900817e+00 +0.0000000000000000e+00 +1.3499999987487641e+00 -2.9287297127346745e-02 -5.5535301919896052e-01 +4.7993032909894586e-03
1.4000000000000006e+00 +8.2849458661913946e+00 +0.0000000000000000e+00 +1.3999999986045155e+00 -2.9289171838461716e-02 -5.5536295679184133e-01 +4.7997998350454542e-03
1.4500000000000006e+00 +8.2849419302672871e+00 +0.0000000000000000e+00 +1.4499999984495846e+00 -2.9291060917678319e-02 -5.5537325825968886e-01 +4.8003131204645286e-03
1.5000000000000007e+00 +8.2849378562151976e+00 +0.0000000000000000e+00 +1.4999999982835897e+00 -2.9292964123845397e-02 -5.5538392282998506e-01 +4.8008431717688422e-03
1.5500000000000007e+00 +8.2849336440324741e+00 +0.0000000000000000e+00 +1.5499999981061490e+00 -2.9294881215812314e-02 -5.5539494973022885e-01 +4.8013900134814408e-03
1.6000000000000008e+00 +8.2849292937163721e+00 +0.0000000000000000e+00 +1.5999999979168806e+00 -2.9296811952429006e-02 -5.5540633818793528e-01 +4.8019536701262560e-03
1.6500000000000008e+00 +8.2849248052640618e+00 +0.0000000000000000e+00 +1.6499999977154027e+00 -2.9298756092545942e-02 -5.5541808743063537e-01 +4.8025341662281222e-03
1.7000000000000008e+00 +8.2849201786726194e+00 +0.0000000000000000e+00 +1.6999999975013333e+00 -2.9300713395014170e-02 -5.5543019668587668e-01 +4.8031315263127490e-03
1.7500000000000009e+00 +8.2849154139390340e+00 +0.0000000000000000e+00 +1.7499999972742906e+00 -2.9302683618685300e-02 -5.5544266518122243e-01 +4.8037457749067498e-03
1.8000000000000009e+00 +8.2849105110602039e+00 +0.0000000000000000e+00 +1.7999999970338925e+00 -2.9304666522411489e-02 -5.5545549214425305e-01 +4.8043769365376200e-03
1.8500000000000010e+00 +8.2849054700329390e+00 +0.0000000000000000e+00 +1.8499999967797569e+00 -2.9306661865045529e-02 -5.5546867680256407e-01 +4.8050250357337520e-03
1.9000000000000010e+00 +8.2849002908539600e+00 +0.0000000000000000e+00 +1.8999999965115020e+00 -2.9308669405440718e-02 -5.5548221838376655e-01 +4.8056900970244272e-03
1.9500000000000011e+00 +8.2848949735199007e+00 +0.0000000000000000e+00 +1.9499999962287458e+00 -2.9310688902451008e-02 -5.5549611611548921e-01 +4.8063721449398229e-03
2.0000000000000009e+00 +8.2848895180273026e+00 +0.0000000000000000e+00 +1.9999999959311059e+00 -2.9312720114930909e-02 -5.5551036922537467e-01 +4.8070712040110073e-03
2.0500000000000007e+00 +8.2848839243726218e+00 +0.0000000000000000e+00 +2.0499999956182005e+00 -2.9314762862632154e-02 -5.5552497670211520e-01 +4.8077872865227222e-03
2.1000000000000005e+00 +8.2848781925522257e+00 +0.0000000000000000e+00 +2.0999999952896471e+00 -2.9316817208893738e-02 -5.5553993657854683e-01 +4.8085203557716207e-03
2.1500000000000004e+00 +8.2848723225623928e+00 +0.0000000000000000e+00 +2.1499999949450634e+00 -2.9318883277952228e-02 -5.5555524664854905e-01 +4.8092703628077544e-03
2.2000000000000002e+00 +8.2848663143993164e+00 +0.0000000000000000e+00 +2.1999999945840671e+00 -2.9320961194045189e-02 -5.5557090470601467e-01 +4.8100372586817666e-03
2.2500000000000000e+00 +8.2848601680591010e+00 +0.0000000000000000e+00 +2.2499999942062763e+00 -2.9323051081411255e-02 -5.5558690854484705e-01 +4.8108209944448723e-03
2.2999999999999998e+00 +8.2848538835377674e+00 +0.0000000000000000e+00 +2.2999999938113085e+00 -2.9325153064290083e-02 -5.5560325595896098e-01 +4.8116215211488301e-03
2.3499999999999996e+00 +8.2848474608312497e+00 +0.0000000000000000e+00 +2.3499999933987810e+00 -2.9327267266922443e-02 -5.5561994474228182e-01 +4.8124387898459513e-03
2.3999999999999995e+00 +8.2848408999353964e+00 +0.0000000000000000e+00 +2.3999999929683113e+00 -2.9329393813550229e-02 -5.5563697268874634e-01 +4.8132727515890553e-03
2.4499999999999993e+00 +8.2848342008459728e+00 +0.0000000000000000e+00 +2.4499999925195173e+00 -2.9331532828416457e-02 -5.5565433759230143e-01 +4.8141233574314725e-03
2.4999999999999991e+00 +8.2848273635586605e+00 +0.0000000000000000e+00 +2.4999999920520164e+00 -2.9333684435765322e-02 -5.5567203724690339e-01 +4.8149905584270172e-03
2.5499999999999989e+00 +8.2848203880690576e+00 +0.0000000000000000e+00 +2.5499999915654259e+00 -2.9335848759842222e-02 -5.5569006944651955e-01 +4.8158743056299800e-03
2.5999999999999988e+00 +8.2848132743726790e+00 +0.0000000000000000e+00 +2.5999999910593634e+00 -2.9338025924893790e-02 -5.5570843198512565e-01 +4.8167745500951008e-03
2.6499999999999986e+00 +8.2848060224649593e+00 +0.0000000000000000e+00 +2.6499999905334457e+00 -2.9340216055167897e-02 -5.5572712265670787e-01 +4.8176912428775556e-03
2.6999999999999984e+00 +8.2847986323412481e+00 +0.0000000000000000e+00 +2.6999999899872904e+00 -2.9342419274913711e-02 -5.5574613925526017e-01 +4.8186243350329472e-03
2.7499999999999982e+00 +8.2847911039968167e+00 +0.0000000000000000e+00 +2.7499999894205147e+00 -2.9344635708381691e-02 -5.5576547957478650e-01 +4.8195737776172785e-03
2.7999999999999980e+00 +8.2847834374268547e+00 +0.0000000000000000e+00 +2.7999999888327358e+00 -2.9346865479823639e-02 -5.5578514140929791e-01 +4.8205395216869380e-03
2.8499999999999979e+00 +8.2847756326264719e+00 +0.0000000000000000e+00 +2.8499999882235709e+00 -2.9349108713492725e-02 -5.5580512255281500e-01 +4.8215215182986909e-03
2.8999999999999977e+00 +8.2847676895906996e+00 +0.0000000000000000e+00 +2.8999999875926368e+00 -2.9351365533643523e-02 -5.5582542079936537e-01 +4.8225197185096554e-03
2.9499999999999975e+00 +8.2847596083144897e+00 +0.0000000000000000e+00 +2.9499999869395506e+00 -2.9353636064531997e-02 -5.5584603394298515e-01 +4.8235340733772808e-03
2.9999999999999973e+00 +8.2847513887927136e+00 +0.0000000000000000e+00 +2.9999999862639291e+00 -2.9355920430415558e-02 -5.5586695977771627e-01 +4.8245645339593428e-03
3.0499999999999972e+00 +8.2847430310201684e+00 +0.0000000000000000e+00 +3.0499999855653894e+00 -2.9358218755553115e-02 -5.5588819609760953e-01 +4.8256110513139223e-03
3.0999999999999970e+00 +8.2847345349915731e+00 +0.0000000000000000e+00 +3.0999999848435484e+00 -2.9360531164205068e-02 -5.5590974069672128e-01 +4.8266735764993839e-03
3.1499999999999968e+00 +8.2847259007015683e+00 +0.0000000000000000e+00 +3.1499999840980228e+00 -2.9362857780633321e-02 -5.5593159136911541e-01 +4.8277520605743678e-03
3.1999999999999966e+00 +8.2847171281447203e+00 +0.0000000000000000e+00 +3.1999999833284294e+00 -2.9365198729101372e-02 -5.5595374590886126e-01 +4.8288464545977643e-03
3.2499999999999964e+00 +8.2847082173155187e+00 +0.0000000000000000e+00 +3.2499999825343848e+00 -2.9367554133874277e-02 -5.5597620211003429e-01 +4.8299567096287029e-03
3.2999999999999963e+00 +8.2846991682083786e+00 +0.0000000000000000e+00 +3.2999999817155055e+00 -2.9369924119218703e-02 -5.5599895776671682e-01 +4.8310827767265368e-03
3.3499999999999961e+00 +8.2846899808176406e+00 +0.0000000000000000e+00 +3.3499999808714080e+00 -2.9372308809402951e-02 -5.5602201067299450e-01 +4.8322246069508129e-03
3.3999999999999959e+00 +8.2846806551375707e+00 +0.0000000000000000e+00 +3.3999999800017089e+00 -2.9374708328697010e-02 -5.5604535862295990e-01 +4.8333821513612809e-03
3.4499999999999957e+00 +8.2846711911623618e+00 +0.0000000000000000e+00 +3.4499999791060247e+00 -2.9377122801372529e-02 -5.5606899941071031e-01 +4.8345553610178510e-03
3.4999999999999956e+00 +8.2846615888861361e+00 +0.0000000000000000e+00 +3.4999999781839719e+00 -2.9379552351702903e-02 -5.5609293083034650e-01 +4.8357441869805928e-03
3.5499999999999954e+00 +8.2846518483029410e+00 +0.0000000000000000e+00 +3.5499999772351662e+00 -2.9381997103963248e-02 -5.5611715067597500e-01 +4.8369485803097089e-03
3.5999999999999952e+00 +8.2846419694067510e+00 +0.0000000000000000e+00 +3.5999999762592245e+00 -2.9384457182430462e-02 -5.5614165674170557e-01 +4.8381684920655258e-03
3.6499999999999950e+00 +8.2846319521914733e+00 +0.0000000000000000e+00 +3.6499999752557626e+00 -2.9386932711383255e-02 -5.5616644682165184e-01 +4.8394038733084741e-03
3.6999999999999948e+00 +8.2846217966509421e+00 +0.0000000000000000e+00 +3.6999999742243967e+00 -2.9389423815102178e-02 -5.5619151870993144e-01 +4.8406546750990728e-03
3.7499999999999947e+00 +8.2846115027789224e+00 +0.0000000000000000e+00 +3.7499999731647429e+00 -2.9391930617869610e-02 -5.5621687020066513e-01 +4.8419208484979121e-03
3.7999999999999945e+00 +8.2846010705691082e+00 +0.0000000000000000e+00 +3.7999999720764168e+00 -2.9394453243969797e-02 -5.5624249908797574e-01 +4.8432023445656325e-03
3.8499999999999943e+00 +8.2845905000151241e+00 +0.0000000000000000e+00 +3.8499999709590349e+00 -2.9396991817688924e-02 -5.5626840316599024e-01 +4.8444991143629136e-03
3.8999999999999941e+00 +8.2845797911105290e+00 +0.0000000000000000e+00 +3.8999999698122125e+00 -2.9399546463315135e-02 -5.5629458022883704e-01 +4.8458111089504582e-03
3.9499999999999940e+00 +8.2845689438488126e+00 +0.0000000000000000e+00 +3.9499999686355656e+00 -2.9402117305138486e-02 -5.5632102807064687e-01 +4.8471382793889763e-03
3.9999999999999938e+00 +8.2845579582233970e+00 +0.0000000000000000e+00 +3.9999999674287099e+00 -2.9404704467451047e-02 -5.5634774448555258e-01 +4.8484805767391543e-03
4.0499999999999936e+00 +8.2845468342276387e+00 +0.0000000000000000e+00 +4.0499999661912609e+00 -2.9407307993503849e-02 -5.5637472716748337e-01 +4.8498379383342151e-03
4.0999999999999934e+00 +8.2845355718548248e+00 +0.0000000000000000e+00 +4.0999999649228345e+00 -2.9409927602375971e-02 -5.5640197340954733e-01 +4.8512102465975938e-03
4.1499999999999932e+00 +8.2845241710981803e+00 +0.0000000000000000e+00 +4.1499999636230456e+00 -2.9412562932102367e-02 -5.5642948040464868e-01 +4.8525973702256186e-03
4.1999999999999931e+00 +8.2845126319508644e+00 +0.0000000000000000e+00 +4.1999999622915105e+00 -2.9415213620716946e-02 -5.5645724534569485e-01 +4.8539991779150537e-03
4.2499999999999929e+00 +8.2845009544059707e+00 +0.0000000000000000e+00 +4.2499999609278438e+00 -2.9417879306252493e-02 -5.5648526542559251e-01 +4.8554155383630851e-03
4.2999999999999927e+00 +8.2844891384565305e+00 +0.0000000000000000e+00 +4.2999999595316609e+00 -2.9420559626740582e-02 -5.5651353783725266e-01 +4.8568463202673280e-03
4.3499999999999925e+00 +8.2844771840955129e+00 +0.0000000000000000e+00 +4.3499999581025772e+00 -2.9423254220211564e-02 -5.5654205977358473e-01 +4.8582913923258262e-03
4.3999999999999924e+00 +8.2844650913158251e+00 +0.0000000000000000e+00 +4.3999999566402082e+00 -2.9425962724694454e-02 -5.5657082842750083e-01 +4.8597506232370431e-03
4.4499999999999922e+00 +8.2844528601103100e+00 +0.0000000000000000e+00 +4.4499999551441682e+00 -2.9428684778216887e-02 -5.5659984099191351e-01 +4.8612238816998698e-03
4.4999999999999920e+00 +8.2844404904717539e+00 +0.0000000000000000e+00 +4.4999999536140729e+00 -2.9431420018805089e-02 -5.5662909465973531e-01 +4.8627110364136148e-03
4.5499999999999918e+00 +8.2844279823928808e+00 +0.0000000000000000e+00 +4.5499999520495367e+00 -2.9434168084483694e-02 -5.5665858662387913e-01 +4.8642119560780026e-03
4.5999999999999917e+00 +8.2844153358663544e+00 +0.0000000000000000e+00 +4.5999999504501741e+00 -2.9436928613275813e-02 -5.5668831407725761e-01 +4.8657265093931821e-03
4.6499999999999915e+00 +8.2844025508847832e+00 +0.0000000000000000e+00 +4.6499999488156005e+00 -2.9439701243202908e-02 -5.5671827421278408e-01 +4.8672545650597122e-03
4.6999999999999913e+00 +8.2843896274407136e+00 +0.0000000000000000e+00 +4.6999999471454306e+00 -2.9442485612284700e-02 -5.5674846422336954e-01 +4.8687959917785677e-03
4.7499999999999911e+00 +8.2843765655266388e+00 +0.0000000000000000e+00 +4.7499999454392787e+00 -2.9445281358539167e-02 -5.5677888130192643e-01 +4.8703506582511340e-03
4.7999999999999909e+00 +8.2843633651349933e+00 +0.0000000000000000e+00 +4.7999999436967595e+00 -2.9448088119982424e-02 -5.5680952264136441e-01 +4.8719184331792132e-03
4.8499999999999908e+00 +8.2843500262581582e+00 +0.0000000000000000e+00 +4.8499999419174875e+00 -2.9450905534628691e-02 -5.5684038543459280e-01 +4.8734991852650081e-03
4.8999999999999906e+00 +8.2843365488884562e+00 +0.0000000000000000e+00 +4.8999999401010763e+00 -2.9453733240490203e-02 -5.5687146687451872e-01 +4.8750927832111341e-03
4.9499999999999904e+00 +8.2843229330181565e+00 +0.0000000000000000e+00 +4.9499999382471414e+00 -2.9456570875577175e-02 -5.5690276415404860e-01 +4.8766990957206111e-03
4.9999999999999902e+00 +8.2843091786394751e+00 +0.0000000000000000e+00 +4.9999999363552963e+00 -2.9459418077897696e-02 -5.5693427446608545e-01 +4.8783179914968604e-03
5.0499999999999901e+00 +8.2842952857445766e+00 +0.0000000000000000e+00 +5.0499999344251547e+00 -2.9462274485457692e-02 -5.5696599500353150e-01 +4.8799493392437101e-03
5.0999999999999899e+00 +8.2842812543255722e+00 +0.0000000000000000e+00 +5.0999999324563312e+00 -2.9465139736260856e-02 -5.5699792295928563e-01 +4.8815930076653883e-03
5.1499999999999897e+00 +8.2842670843745196e+00 +0.0000000000000000e+00 +5.1499999304484403e+00 -2.9468013468308584e-02 -5.5703005552624418e-01 +4.8832488654665177e-03
5.1999999999999895e+00 +8.2842527758834272e+00 +0.0000000000000000e+00 +5.1999999284010947e+00 -2.9470895319599906e-02 -5.5706238989730061e-01 +4.8849167813521215e-03
5.2499999999999893e+00 +8.2842383288442552e+00 +0.0000000000000000e+00 +5.2499999263139090e+00 -2.9473784928131432e-02 -5.5709492326534493e-01 +4.8865966240276221e-03
5.2999999999999892e+00 +8.2842237432489103e+00 +0.0000000000000000e+00 +5.2999999241864968e+00 -2.9476681931897227e-02 -5.5712765282326426e-01 +4.8882882621988288e-03
5.3499999999999890e+00 +8.2842090190892534e+00 +0.0000000000000000e+00 +5.3499999220184717e+00 -2.9479585968888847e-02 -5.5716057576394173e-01 +4.8899915645719454e-03
5.3999999999999888e+00 +8.2841941563570956e+00 +0.0000000000000000e+00 +5.3999999198094475e+00 -2.9482496677095179e-02 -5.5719368928025592e-01 +4.8917063998535713e-03
5.4499999999999886e+00 +8.2841791550442032e+00 +0.0000000000000000e+00 +5.4499999175590377e+00 -2.9485413694502464e-02 -5.5722699056508218e-01 +4.8934326367506891e-03
5.4999999999999885e+00 +8.2841640151422915e+00 +0.0000000000000000e+00 +5.4999999152668551e+00 -2.9488336659094141e-02 -5.5726047681129121e-01 +4.8951701439706730e-03
5.5499999999999883e+00 +8.2841487366430346e+00 +0.0000000000000000e+00 +5.5499999129325133e+00 -2.9491265208850835e-02 -5.5729414521174869e-01 +4.8969187902212800e-03
5.5999999999999881e+00 +8.2841333195380571e+00 +0.0000000000000000e+00 +5.5999999105556260e+00 -2.9494198981750284e-02 -5.5732799295931534e-01 +4.8986784442106510e-03
5.6499999999999879e+00 +8.2841177638189407e+00 +0.0000000000000000e+00 +5.6499999081358059e+00 -2.9497137615767281e-02 -5.5736201724684742e-01 +4.9004489746473099e-03
5.6999999999999877e+00 +8.2841020694772247e+00 +0.0000000000000000e+00 +5.6999999056726658e+00 -2.9500080748873579e-02 -5.5739621526719496e-01 +4.9022302502401667e-03
5.7499999999999876e+00 +8.2840862365044039e+00 +0.0000000000000000e+00 +5.7499999031658193e+00 -2.9503028019037841e-02 -5.5743058421320302e-01 +4.9040221396985020e-03
5.7999999999999874e+00 +8.2840702648919287e+00 +0.0000000000000000e+00 +5.7999999006148792e+00 -2.9505979064225620e-02 -5.5746512127771031e-01 +4.9058245117319802e-03
5.8499999999999872e+00 +8.2840541546312103e+00 +0.0000000000000000e+00 +5.8499998980194583e+00 -2.9508933522399201e-02 -5.5749982365354978e-01 +4.9076372350506320e-03
5.8999999999999870e+00 +8.2840379057136193e+00 +0.0000000000000000e+00 +5.8999998953791692e+00 -2.9511891031517589e-02 -5.5753468853354748e-01 +4.9094601783648802e-03
