# field on trajectory
# s[mm] rx[mm] ry[mm] rz[mm] bx[T] by[T] bz[T]
0.0000000000000000e+00 +8.2850000000000001e+00 +0.0000000000000000e+00 +0.0000000000000000e+00 -2.8568216688183056e-02 -5.5546133795234964e-01 +5.8339476783138191e-03
-5.0000000000000003e-02 +8.2849999309251281e+00 +0.0000000000000000e+00 -4.9999999999936373e-02 -2.8568475832472653e-02 -5.5545976918271300e-01 +5.8339275114674292e-03
-1.0000000000000001e-01 +8.2849997237007571e+00 +0.0000000000000000e+00 -9.9999999999491052e-02 -2.8568757147660488e-02 -5.5545857457056025e-01 +5.8339057829723331e-03
-1.5000000000000002e-01 +8.2849993783271838e+00 +0.0000000000000000e+00 -1.4999999999828231e-01 -2.8569060586358400e-02 -5.5545775357933458e-01 +5.8338825001657928e-03
-2.0000000000000001e-01 +8.2849988948046125e+00 +0.0000000000000000e+00 -1.9999999999592846e-01 -2.8569386101179262e-02 -5.5545730567249429e-01 +5.8338576703848982e-03
-2.5000000000000000e-01 +8.2849982731331551e+00 +0.0000000000000000e+00 -2.4999999999204781e-01 -2.8569733644736858e-02 -5.5545723031351346e-01 +5.8338313009665809e-03
-2.9999999999999999e-01 +8.2849975133128293e+00 +0.0000000000000000e+00 -2.9999999998625865e-01 -2.8570103169645970e-02 -5.5545752696588191e-01 +5.8338033992475953e-03
-3.4999999999999998e-01 +8.2849966153435624e+00 +0.0000000000000000e+00 -3.4999999997817927e-01 -2.8570494628522340e-02 -5.5545819509310523e-01 +5.8337739725645502e-03
-3.9999999999999997e-01 +8.2849955792251873e+00 +0.0000000000000000e+00 -3.9999999996742797e-01 -2.8570907973982689e-02 -5.5545923415870579e-01 +5.8337430282538938e-03
-4.4999999999999996e-01 +8.2849944049574464e+00 +0.0000000000000000e+00 -4.4999999995362300e-01 -2.8571343158644680e-02 -5.5546064362622016e-01 +5.8337105736519096e-03
-4.9999999999999994e-01 +8.2849930925399882e+00 +0.0000000000000000e+00 -4.9999999993638272e-01 -2.8571800135126973e-02 -5.5546242295920201e-01 +5.8336766160947432e-03
-5.4999999999999993e-01 +8.2849916419723719e+00 +0.0000000000000000e+00 -5.4999999991532533e-01 -2.8572278856049172e-02 -5.5546457162122032e-01 +5.8336411629183712e-03
-5.9999999999999998e-01 +8.2849900532540612e+00 +0.0000000000000000e+00 -5.9999999989006914e-01 -2.8572779274031859e-02 -5.5546708907586007e-01 +5.8336042214586301e-03
-6.5000000000000002e-01 +8.2849883263844308e+00 +0.0000000000000000e+00 -6.4999999986023249e-01 -2.8573301341696573e-02 -5.5546997478672211e-01 +5.8335657990512121e-03
-7.0000000000000007e-01 +8.2849864613627631e+00 +0.0000000000000000e+00 -6.9999999982543348e-01 -2.8573845011665818e-02 -5.5547322821742340e-01 +5.8335259030316607e-03
-7.5000000000000011e-01 +8.2849844581882497e+00 +0.0000000000000000e+00 -7.4999999978529053e-01 -2.8574410236563052e-02 -5.5547684883159620e-01 +5.8334845407353748e-03
-8.0000000000000016e-01 +8.2849823168599883e+00 +0.0000000000000000e+00 -7.9999999973942171e-01 -2.8574996969012705e-02 -5.5548083609288945e-01 +5.8334417194976160e-03
-8.5000000000000020e-01 +8.2849800373769895e+00 +0.0000000000000000e+00 -8.4999999968744533e-01 -2.8575605161640157e-02 -5.5548518946496750e-01 +5.8333974466535021e-03
-9.0000000000000024e-01 +8.2849776197381697e+00 +0.0000000000000000e+00 -8.9999999962897970e-01 -2.8576234767071738e-02 -5.5548990841151025e-01 +5.8333517295380242e-03
-9.5000000000000029e-01 +8.2849750639423547e+00 +0.0000000000000000e+00 -9.4999999956364289e-01 -2.8576885737934776e-02 -5.5549499239621503e-01 +5.8333045754860305e-03
-1.0000000000000002e+00 +8.2849723699882798e+00 +0.0000000000000000e+00 -9.9999999949105312e-01 -2.8577558026857526e-02 -5.5550044088279360e-01 +5.8332559918322429e-03
-1.0500000000000003e+00 +8.2849695378745913e+00 +0.0000000000000000e+00 -1.0499999994108284e+00 -2.8578251586469202e-02 -5.5550625333497439e-01 +5.8332059859112521e-03
-1.1000000000000003e+00 +8.2849665675998416e+00 +0.0000000000000000e+00 -1.0999999993225873e+00 -2.8578966369399973e-02 -5.5551242921650146e-01 +5.8331545650575174e-03
-1.1500000000000004e+00 +8.2849634591624959e+00 +0.0000000000000000e+00 -1.1499999992259475e+00 -2.8579702328280988e-02 -5.5551896799113554e-01 +5.8331017366053802e-03
-1.2000000000000004e+00 +8.2849602125609287e+00 +0.0000000000000000e+00 -1.1999999991205275e+00 -2.8580459415744285e-02 -5.5552586912265245e-01 +5.8330475078890503e-03
-1.2500000000000004e+00 +8.2849568277934225e+00 +0.0000000000000000e+00 -1.2499999990059449e+00 -2.8581237584422950e-02 -5.5553313207484512e-01 +5.8329918862426236e-03
-1.3000000000000005e+00 +8.2849533048581723e+00 +0.0000000000000000e+00 -1.2999999988818183e+00 -2.8582036786950944e-02 -5.5554075631152133e-01 +5.8329348790000747e-03
-1.3500000000000005e+00 +8.2849496437532810e+00 +0.0000000000000000e+00 -1.3499999987477656e+00 -2.8582856975963206e-02 -5.5554874129650555e-01 +5.8328764934952584e-03
-1.4000000000000006e+00 +8.2849458444767627e+00 +0.0000000000000000e+00 -1.3999999986034046e+00 -2.8583698104095643e-02 -5.5555708649363866e-01 +5.8328167370619247e-03
-1.4500000000000006e+00 +8.2849419070265409e+00 +0.0000000000000000e+00 -1.4499999984483536e+00 -2.8584560123985085e-02 -5.5556579136677697e-01 +5.8327556170336952e-03
-1.5000000000000007e+00 +8.2849378314004518e+00 +0.0000000000000000e+00 -1.4999999982822305e+00 -2.8585442988269323e-02 -5.5557485537979279e-01 +5.8326931407441020e-03
-1.5500000000000007e+00 +8.2849336175962414e+00 +0.0000000000000000e+00 -1.5499999981046531e+00 -2.8586346649587098e-02 -5.5558427799657517e-01 +5.8326293155265491e-03
-1.6000000000000008e+00 +8.2849292656115647e+00 +0.0000000000000000e+00 -1.5999999979152395e+00 -2.8587271060578092e-02 -5.5559405868102851e-01 +5.8325641487143457e-03
-1.6500000000000008e+00 +8.2849247754439901e+00 +0.0000000000000000e+00 -1.6499999977136075e+00 -2.8588216173882974e-02 -5.5560419689707430e-01 +5.8324976476407031e-03
-1.7000000000000008e+00 +8.2849201470909968e+00 +0.0000000000000000e+00 -1.6999999974993751e+00 -2.8589181942143271e-02 -5.5561469210864944e-01 +5.8324298196387103e-03
-1.7500000000000009e+00 +8.2849153805499736e+00 +0.0000000000000000e+00 -1.7499999972721600e+00 -2.8590168318001541e-02 -5.5562554377970685e-01 +5.8323606720413852e-03
-1.8000000000000009e+00 +8.2849104758182222e+00 +0.0000000000000000e+00 -1.7999999970315801e+00 -2.8591175254101240e-02 -5.5563675137421598e-01 +5.8322902121816268e-03
-1.8500000000000010e+00 +8.2849054328929554e+00 +0.0000000000000000e+00 -1.8499999967772531e+00 -2.8592202703086801e-02 -5.5564831435616280e-01 +5.8322184473922475e-03
-1.9000000000000010e+00 +8.2849002517712975e+00 +0.0000000000000000e+00 -1.8999999965087970e+00 -2.8593250617603545e-02 -5.5566023218954819e-01 +5.8321453850059685e-03
-1.9500000000000011e+00 +8.2848949324502836e+00 +0.0000000000000000e+00 -1.9499999962258294e+00 -2.8594318950297810e-02 -5.5567250433839099e-01 +5.8320710323554138e-03
-2.0000000000000009e+00 +8.2848894749268620e+00 +0.0000000000000000e+00 -1.9999999959279680e+00 -2.8595407653816789e-02 -5.5568513026672406e-01 +5.8319953967731269e-03
-2.0500000000000007e+00 +8.2848838791978920e+00 +0.0000000000000000e+00 -2.0499999956148303e+00 -2.8596516655243376e-02 -5.5569810923659768e-01 +5.8319184897978613e-03
-2.1000000000000005e+00 +8.2848781452601461e+00 +0.0000000000000000e+00 -2.0999999952860340e+00 -2.8597645779400084e-02 -5.5571143970206915e-01 +5.8318403397935150e-03
-2.1500000000000004e+00 +8.2848722731103095e+00 +0.0000000000000000e+00 -2.1499999949411968e+00 -2.8598794825544862e-02 -5.5572511991520934e-01 +5.8317609793302819e-03
-2.2000000000000002e+00 +8.2848662627449787e+00 +0.0000000000000000e+00 -2.1999999945799358e+00 -2.8599963592936498e-02 -5.5573914812810254e-01 +5.8316804409783716e-03
-2.2500000000000000e+00 +8.2848601141606650e+00 +0.0000000000000000e+00 -2.2499999942018691e+00 -2.8601151880834504e-02 -5.5575352259284605e-01 +5.8315987573080074e-03
-2.2999999999999998e+00 +8.2848538273537944e+00 +0.0000000000000000e+00 -2.2999999938066140e+00 -2.8602359488499231e-02 -5.5576824156155047e-01 +5.8315159608894425e-03
-2.3499999999999996e+00 +8.2848474023207057e+00 +0.0000000000000000e+00 -2.3499999933937876e+00 -2.8603586215191743e-02 -5.5578330328634040e-01 +5.8314320842929677e-03
-2.3999999999999995e+00 +8.2848408390576527e+00 +0.0000000000000000e+00 -2.3999999929630076e+00 -2.8604831860173877e-02 -5.5579870601935244e-01 +5.8313471600889046e-03
-2.4499999999999993e+00 +8.2848341375608037e+00 +0.0000000000000000e+00 -2.4499999925138911e+00 -2.8606096222708207e-02 -5.5581444801273616e-01 +5.8312612208476257e-03
-2.4999999999999991e+00 +8.2848272978262454e+00 +0.0000000000000000e+00 -2.4999999920460554e+00 -2.8607379102058027e-02 -5.5583052751865469e-01 +5.8311742991395644e-03
-2.5499999999999989e+00 +8.2848203198499775e+00 +0.0000000000000000e+00 -2.5499999915591181e+00 -2.8608680297487362e-02 -5.5584694278928237e-01 +5.8310864275352096e-03
-2.5999999999999988e+00 +8.2848132036279178e+00 +0.0000000000000000e+00 -2.5999999910526959e+00 -2.8609999608260980e-02 -5.5586369207680708e-01 +5.8309976386051229e-03
-2.6499999999999986e+00 +8.2848059491559010e+00 +0.0000000000000000e+00 -2.6499999905264064e+00 -2.8611336833644321e-02 -5.5588077363342825e-01 +5.8309079649199362e-03
-2.6999999999999984e+00 +8.2847985564296778e+00 +0.0000000000000000e+00 -2.6999999899798666e+00 -2.8612691772903539e-02 -5.5589818571135841e-01 +5.8308174390503797e-03
-2.7499999999999982e+00 +8.2847910254449193e+00 +0.0000000000000000e+00 -2.7499999894126934e+00 -2.8614064225305443e-02 -5.5591592656282096e-01 +5.8307260935672595e-03
-2.7999999999999980e+00 +8.2847833561972113e+00 +0.0000000000000000e+00 -2.7999999888245037e+00 -2.8615453990117584e-02 -5.5593399444005187e-01 +5.8306339610414851e-03
-2.8499999999999979e+00 +8.2847755486820613e+00 +0.0000000000000000e+00 -2.8499999882149147e+00 -2.8616860866608109e-02 -5.5595238759529908e-01 +5.8305410740440771e-03
-2.8999999999999977e+00 +8.2847676028948953e+00 +0.0000000000000000e+00 -2.8999999875835436e+00 -2.8618284654045891e-02 -5.5597110428082119e-01 +5.8304474651461602e-03
-2.9499999999999975e+00 +8.2847595188310574e+00 +0.0000000000000000e+00 -2.9499999869300066e+00 -2.8619725151700422e-02 -5.5599014274888925e-01 +5.8303531669189829e-03
-2.9999999999999973e+00 +8.2847512964858137e+00 +0.0000000000000000e+00 -2.9999999862539211e+00 -2.8621182158841810e-02 -5.5600950125178461e-01 +5.8302582119339232e-03
-3.0499999999999972e+00 +8.2847429358543483e+00 +0.0000000000000000e+00 -3.0499999855549036e+00 -2.8622655474740848e-02 -5.5602917804180063e-01 +5.8301626327624898e-03
-3.0999999999999970e+00 +8.2847344369317675e+00 +0.0000000000000000e+00 -3.0999999848325710e+00 -2.8624144898668918e-02 -5.5604917137124166e-01 +5.8300664619763331e-03
-3.1499999999999968e+00 +8.2847257997130992e+00 +0.0000000000000000e+00 -3.1499999840865396e+00 -2.8625650229898027e-02 -5.5606947949242214e-01 +5.8299697321472577e-03
-3.1999999999999966e+00 +8.2847170241932933e+00 +0.0000000000000000e+00 -3.1999999833164261e+00 -2.8627171267700788e-02 -5.5609010065766873e-01 +5.8298724758472165e-03
-3.2499999999999964e+00 +8.2847081103672213e+00 +0.0000000000000000e+00 -3.2499999825218473e+00 -2.8628707811350407e-02 -5.5611103311931676e-01 +5.8297747256483333e-03
-3.2999999999999963e+00 +8.2846990582296751e+00 +0.0000000000000000e+00 -3.2999999817024195e+00 -2.8630259660120679e-02 -5.5613227512971364e-01 +5.8296765141228951e-03
-3.3499999999999961e+00 +8.2846898677753735e+00 +0.0000000000000000e+00 -3.3499999808577590e+00 -2.8631826613285970e-02 -5.5615382494121668e-01 +5.8295778738433742e-03
-3.3999999999999959e+00 +8.2846805389989573e+00 +0.0000000000000000e+00 -3.3999999799874825e+00 -2.8633408470121226e-02 -5.5617568080619284e-01 +5.8294788373824177e-03
-3.4499999999999957e+00 +8.2846710718949890e+00 +0.0000000000000000e+00 -3.4499999790912059e+00 -2.8635005029901940e-02 -5.5619784097701974e-01 +5.8293794373128777e-03
-3.4999999999999956e+00 +8.2846614664579583e+00 +0.0000000000000000e+00 -3.4999999781685456e+00 -2.8636616091904158e-02 -5.5622030370608477e-01 +5.8292797062077951e-03
-3.5499999999999954e+00 +8.2846517226822787e+00 +0.0000000000000000e+00 -3.5499999772191178e+00 -2.8638241455404480e-02 -5.5624306724578498e-01 +5.8291796766404228e-03
-3.5999999999999952e+00 +8.2846418405622888e+00 +0.0000000000000000e+00 -3.5999999762425388e+00 -2.8639880919680019e-02 -5.5626612984852741e-01 +5.8290793811842300e-03
-3.6499999999999950e+00 +8.2846318200922511e+00 +0.0000000000000000e+00 -3.6499999752384245e+00 -2.8641534284008424e-02 -5.5628948976672765e-01 +5.8289788524128949e-03
-3.6999999999999948e+00 +8.2846216612663586e+00 +0.0000000000000000e+00 -3.6999999742063912e+00 -2.8643201347667849e-02 -5.5631314525281172e-01 +5.8288781229003401e-03
-3.7499999999999947e+00 +8.2846113640787262e+00 +0.0000000000000000e+00 -3.7499999731460543e+00 -2.8644881909936960e-02 -5.5633709455921443e-01 +5.8287772252207113e-03
-3.7999999999999945e+00 +8.2846009285233979e+00 +0.0000000000000000e+00 -3.7999999720570301e+00 -2.8646575770094929e-02 -5.5636133593838000e-01 +5.8286761919484056e-03
-3.8499999999999943e+00 +8.2845903545943447e+00 +0.0000000000000000e+00 -3.8499999709389345e+00 -2.8648282727421377e-02 -5.5638586764276043e-01 +5.8285750556580649e-03
-3.8999999999999941e+00 +8.2845796422854647e+00 +0.0000000000000000e+00 -3.8999999697913830e+00 -2.8650002581196432e-02 -5.5641068792481829e-01 +5.8284738489245876e-03
-3.9499999999999940e+00 +8.2845687915905852e+00 +0.0000000000000000e+00 -3.9499999686139913e+00 -2.8651735130700701e-02 -5.5643579503702323e-01 +5.8283726043231428e-03
-3.9999999999999938e+00 +8.2845578025034623e+00 +0.0000000000000000e+00 -3.9999999674063749e+00 -2.8653480175215212e-02 -5.5646118723185434e-01 +5.8282713544291652e-03
-4.0499999999999936e+00 +8.2845466750177810e+00 +0.0000000000000000e+00 -4.0499999661681496e+00 -2.8655237530132171e-02 -5.5648686262592628e-01 +5.8281701303518228e-03
-4.0999999999999934e+00 +8.2845354091271552e+00 +0.0000000000000000e+00 -4.0999999648989309e+00 -2.8657007075286584e-02 -5.5651281879237102e-01 +5.8280689573342644e-03
-4.1499999999999932e+00 +8.2845240048251299e+00 +0.0000000000000000e+00 -4.1499999635983338e+00 -2.8658788706623185e-02 -5.5653905316844965e-01 +5.8279678591530888e-03
-4.1999999999999931e+00 +8.2845124621051802e+00 +0.0000000000000000e+00 -4.1999999622659736e+00 -2.8660582320085507e-02 -5.5656556319142847e-01 +5.8278668595848782e-03
-4.2499999999999929e+00 +8.2845007809607125e+00 +0.0000000000000000e+00 -4.2499999609014658e+00 -2.8662387811615793e-02 -5.5659234629857512e-01 +5.8277659824061854e-03
-4.2999999999999927e+00 +8.2844889613850672e+00 +0.0000000000000000e+00 -4.2999999595044258e+00 -2.8664205077154947e-02 -5.5661939992716003e-01 +5.8276652513935268e-03
-4.3499999999999925e+00 +8.2844770033715136e+00 +0.0000000000000000e+00 -4.3499999580744690e+00 -2.8666034012642474e-02 -5.5664672151445604e-01 +5.8275646903234038e-03
-4.3999999999999924e+00 +8.2844649069132590e+00 +0.0000000000000000e+00 -4.3999999566112100e+00 -2.8667874514016468e-02 -5.5667430849773780e-01 +5.8274643229722783e-03
-4.4499999999999922e+00 +8.2844526720034395e+00 +0.0000000000000000e+00 -4.4499999551142642e+00 -2.8669726477213452e-02 -5.5670215831428083e-01 +5.8273641731165712e-03
-4.4999999999999920e+00 +8.2844402986351309e+00 +0.0000000000000000e+00 -4.4999999535832460e+00 -2.8671589798168466e-02 -5.5673026840136353e-01 +5.8272642645326800e-03
-4.5499999999999918e+00 +8.2844277868013414e+00 +0.0000000000000000e+00 -4.5499999520177701e+00 -2.8673464372814858e-02 -5.5675863619626353e-01 +5.8271646209969528e-03
-4.5999999999999917e+00 +8.2844151364950154e+00 +0.0000000000000000e+00 -4.5999999504174518e+00 -2.8675350097084332e-02 -5.5678725913626126e-01 +5.8270652662856951e-03
-4.6499999999999915e+00 +8.2844023477090349e+00 +0.0000000000000000e+00 -4.6499999487819057e+00 -2.8677246866906828e-02 -5.5681613465863544e-01 +5.8269662241751735e-03
-4.6999999999999913e+00 +8.2843894204362183e+00 +0.0000000000000000e+00 -4.6999999471107454e+00 -2.8679154578210516e-02 -5.5684526020066649e-01 +5.8268675184416112e-03
-4.7499999999999911e+00 +8.2843763546693214e+00 +0.0000000000000000e+00 -4.7499999454035864e+00 -2.8681073126921704e-02 -5.5687463319963404e-01 +5.8267691728611697e-03
-4.7999999999999909e+00 +8.2843631504010382e+00 +0.0000000000000000e+00 -4.7999999436600431e+00 -2.8683002408964788e-02 -5.5690425109281760e-01 +5.8266712112099760e-03
-4.8499999999999908e+00 +8.2843498076240039e+00 +0.0000000000000000e+00 -4.8499999418797302e+00 -2.8684942320262183e-02 -5.5693411131749615e-01 +5.8265736572640885e-03
-4.8999999999999906e+00 +8.2843363263307914e+00 +0.0000000000000000e+00 -4.8999999400622611e+00 -2.8686892756734323e-02 -5.5696421131094698e-01 +5.8264765347995238e-03
-4.9499999999999904e+00 +8.2843227065139153e+00 +0.0000000000000000e+00 -4.9499999382072506e+00 -2.8688853614299490e-02 -5.5699454851044694e-01 +5.8263798675922285e-03
-4.9999999999999902e+00 +8.2843089481658296e+00 +0.0000000000000000e+00 -4.9999999363143131e+00 -2.8690824788873883e-02 -5.5702512035327101e-01 +5.8262836794180945e-03
-5.0499999999999901e+00 +8.2842950512789315e+00 +0.0000000000000000e+00 -5.0499999343830622e+00 -2.8692806176371464e-02 -5.5705592427669237e-01 +5.8261879940529520e-03
-5.0999999999999899e+00 +8.2842810158455595e+00 +0.0000000000000000e+00 -5.0999999324131124e+00 -2.8694797672703956e-02 -5.5708695771798211e-01 +5.8260928352725627e-03
-5.1499999999999897e+00 +8.2842668418579954e+00 +0.0000000000000000e+00 -5.1499999304040776e+00 -2.8696799173780773e-02 -5.5711821811440876e-01 +5.8259982268526267e-03
-5.1999999999999895e+00 +8.2842525293084641e+00 +0.0000000000000000e+00 -5.1999999283555711e+00 -2.8698810575508917e-02 -5.5714970290323806e-01 +5.8259041925687654e-03
-5.2499999999999893e+00 +8.2842380781891372e+00 +0.0000000000000000e+00 -5.2499999262672068e+00 -2.8700831773793029e-02 -5.5718140952173389e-01 +5.8258107561965375e-03
-5.2999999999999892e+00 +8.2842234884921258e+00 +0.0000000000000000e+00 -5.2999999241385982e+00 -2.8702862664535190e-02 -5.5721333540715468e-01 +5.8257179415114185e-03
-5.3499999999999890e+00 +8.2842087602094914e+00 +0.0000000000000000e+00 -5.3499999219693590e+00 -2.8704903143634976e-02 -5.5724547799675772e-01 +5.8256257722888137e-03
-5.3999999999999888e+00 +8.2841938933332404e+00 +0.0000000000000000e+00 -5.3999999197591029e+00 -2.8706953106989345e-02 -5.5727783472779502e-01 +5.8255342723040468e-03
-5.4499999999999886e+00 +8.2841788878553260e+00 +0.0000000000000000e+00 -5.4499999175074434e+00 -2.8709012450492590e-02 -5.5731040303751500e-01 +5.8254434653323608e-03
-5.4999999999999885e+00 +8.2841637437676461e+00 +0.0000000000000000e+00 -5.4999999152139933e+00 -2.8711081070036296e-02 -5.5734318036316099e-01 +5.8253533751489164e-03
-5.5499999999999883e+00 +8.2841484610620508e+00 +0.0000000000000000e+00 -5.5499999128783664e+00 -2.8713158861509269e-02 -5.5737616414197233e-01 +5.8252640255287815e-03
-5.5999999999999881e+00 +8.2841330397303352e+00 +0.0000000000000000e+00 -5.5999999105001752e+00 -2.8715245720797478e-02 -5.5740935181118367e-01 +5.8251754402469432e-03
-5.6499999999999879e+00 +8.2841174797642463e+00 +0.0000000000000000e+00 -5.6499999080790335e+00 -2.8717341543783970e-02 -5.5744274080802325e-01 +5.8250876430782942e-03
-5.6999999999999877e+00 +8.2841017811554796e+00 +0.0000000000000000e+00 -5.6999999056145541e+00 -2.8719446226348901e-02 -5.5747632856971496e-01 +5.8250006577976361e-03
-5.7499999999999876e+00 +8.2840859438956826e+00 +0.0000000000000000e+00 -5.7499999031063496e+00 -2.8721559664369341e-02 -5.5751011253347560e-01 +5.8249145081796698e-03
-5.7999999999999874e+00 +8.2840699679764516e+00 +0.0000000000000000e+00 -5.7999999005540337e+00 -2.8723681753719369e-02 -5.5754409013651762e-01 +5.8248292179990035e-03
-5.8499999999999872e+00 +8.2840538533893362e+00 +0.0000000000000000e+00 -5.8499998979572183e+00 -2.8725812390269886e-02 -5.5757825881604506e-01 +5.8247448110301456e-03
