# multipoles
# s[mm] polynom_b[n=0][T/m^n] polynom_b[n=1][T/m^n] polynom_b[n=2][T/m^n] polynom_b[n=3][T/m^n] polynom_b[n=4][T/m^n] polynom_b[n=5][T/m^n] polynom_b[n=6][T/m^n] 
+0.0000000000000000e+00 -5.2299073122253170e-01 +6.8509049028134168e+00 +5.8578066049552175e+00 -1.9782015325748574e+01 -1.3900283175828607e+04 -2.5522153206946742e+05 +8.3894386141679719e+07 
+5.0000000000000003e-02 -5.2299035245528946e-01 +6.8509262682356296e+00 +5.8581753198799671e+00 -1.9562025136196265e+01 -1.3937555460156756e+04 -2.5655055095553078e+05 +8.4125986503379449e+07 
+1.0000000000000001e-01 -5.2299036673870014e-01 +6.8509689007831609e+00 +5.8582243446176925e+00 -1.9331459879897025e+01 -1.3980210486650867e+04 -2.5788925158961679e+05 +8.4394183428757265e+07 
+1.4999999999999999e-01 -5.2299077330414190e-01 +6.8510327368085360e+00 +5.8579447372084603e+00 -1.9090775591562675e+01 -1.4027942646919944e+04 -2.5923571799269397e+05 +8.4697066662286460e+07 
+2.0000000000000001e-01 -5.2299157138294072e-01 +6.8511177126722558e+00 +5.8573275579765092e+00 -1.8840428608789502e+01 -1.4080446389839284e+04 -2.6058803164365323e+05 +8.5032726317778647e+07 
+2.5000000000000000e-01 -5.2299276020653518e-01 +6.8512237647284389e+00 +5.8563638668263076e+00 -1.8580874959255546e+01 -1.4137416161668789e+04 -2.6194427663664485e+05 +8.5399252524697796e+07 
+2.9999999999999999e-01 -5.2299433900630032e-01 +6.8513508293371697e+00 +5.8550447220497830e+00 -1.8312570880713587e+01 -1.4198546358371057e+04 -2.6330253533393564e+05 +8.5794735042171821e+07 
+3.4999999999999998e-01 -5.2299630701366984e-01 +6.8514988428542045e+00 +5.8533611847422566e+00 -1.8035972396833053e+01 -1.4263531456672510e+04 -2.6466089187598944e+05 +8.6217264195501789e+07 
+4.0000000000000002e-01 -5.2299866346008739e-01 +6.8516677416422862e+00 +5.8513043146896875e+00 -1.7751535782798285e+01 -1.4332065896573029e+04 -2.6601742834279954e+05 +8.6664930052356526e+07 
+4.5000000000000001e-01 -5.2300140757702918e-01 +6.8518574620605568e+00 +5.8488651698169463e+00 -1.7459717127023193e+01 -1.4403844070863095e+04 -2.6737022838549362e+05 +8.7135822373720914e+07 
+5.0000000000000000e-01 -5.2300453859596052e-01 +6.8520679404701532e+00 +5.8460348113184724e+00 -1.7160972567378170e+01 -1.4478560455863790e+04 -2.6871737523399270e+05 +8.7628031464499578e+07 
+5.5000000000000004e-01 -5.2300805574834797e-01 +6.8522991132329087e+00 +5.8428042983055635e+00 -1.6855758230707636e+01 -1.4555909478490479e+04 -2.7005695224433235e+05 +8.8139647317796677e+07 
+5.9999999999999998e-01 -5.2301195826575209e-01 +6.8525509167125778e+00 +5.8391646894157789e+00 -1.6544530302374895e+01 -1.4635585550726633e+04 -2.7138704226493457e+05 +8.8668759820864365e+07 
+6.5000000000000002e-01 -5.2301624537969693e-01 +6.8528232872713808e+00 +5.8351070472254856e+00 -1.6227744848753826e+01 -1.4717283188890769e+04 -2.7270572920412431e+05 +8.9213459552739128e+07 
+6.9999999999999996e-01 -5.2302091632173009e-01 +6.8531161612735385e+00 +5.8306224266978255e+00 -1.5905858002769975e+01 -1.4800696707965601e+04 -2.7401109637661243e+05 +8.9771835746447563e+07 
+7.5000000000000000e-01 -5.2302597032340159e-01 +6.8534294750857025e+00 +5.8257018931165510e+00 -1.5579325957995998e+01 -1.4885520700164392e+04 -2.7530122661766759e+05 +9.0341979505026579e+07 
+8.0000000000000004e-01 -5.2303140661632008e-01 +6.8537631650742608e+00 +5.8203365014367678e+00 -1.5248604863651737e+01 -1.4971449476678405e+04 -2.7657420316436974e+05 +9.0921980019421309e+07 
+8.4999999999999998e-01 -5.2303722443207767e-01 +6.8541171676069226e+00 +5.8145173140776176e+00 -1.4914150897174355e+01 -1.5058177555467431e+04 -2.7782810899501300e+05 +9.1509927898570955e+07 
+9.0000000000000002e-01 -5.2304342300228457e-01 +6.8544914190504604e+00 +5.8082353891413607e+00 -1.4576420157323971e+01 -1.5145399332989531e+04 -2.7906102777904930e+05 +9.2103912906648725e+07 
+9.4999999999999996e-01 -5.2305000155860548e-01 +6.8548858557732135e+00 +5.8014817869876820e+00 -1.4235868788252986e+01 -1.5232809272335882e+04 -2.8027104278785374e+05 +9.2702025283097133e+07 
+1.0000000000000000e+00 -5.2305695933264185e-01 +6.8553004141476892e+00 +5.7942475666573365e+00 -1.3892953063470840e+01 -1.5320101793138598e+04 -2.8145623626033444e+05 +9.3302354938619316e+07 
+1.0500000000000000e+00 -5.2306429555609268e-01 +6.8557350305445324e+00 +5.7865237887295224e+00 -1.3548129152504758e+01 -1.5406971363151159e+04 -2.8261469131127850e+05 +9.3902992134287864e+07 
+1.1000000000000001e+00 -5.2307200946066945e-01 +6.8561896413337600e+00 +5.7783015130035587e+00 -1.3201853180357942e+01 -1.5493112428221866e+04 -2.8374449138692633e+05 +9.4502026977914557e+07 
+1.1499999999999999e+00 -5.2308010027804286e-01 +6.8566641828906727e+00 +5.7695717975191840e+00 -1.2854581446879475e+01 -1.5578219382715499e+04 -2.8484371854270686e+05 +9.5097549213520929e+07 
+1.2000000000000000e+00 -5.2308856723993791e-01 +6.8571585915872042e+00 +5.7603257031290500e+00 -1.2506770096312305e+01 -1.5661986701450674e+04 -2.8591045608724450e+05 +9.5687649144809663e+07 
+1.2500000000000000e+00 -5.2309740957809736e-01 +6.8576728038017123e+00 +5.7505542902976661e+00 -1.2158875501228112e+01 -1.5744108843617976e+04 -2.8694278547828499e+05 +9.6270416949007511e+07 
+1.3000000000000000e+00 -5.2310662652429629e-01 +6.8582067559064201e+00 +5.7402486186348280e+00 -1.1811353759492812e+01 -1.5824280249976118e+04 -2.8793879044114135e+05 +9.6843942693225905e+07 
+1.3500000000000001e+00 -5.2311621731024038e-01 +6.8587603842808003e+00 +5.7293997453289265e+00 -1.1464661241615364e+01 -1.5902195292589195e+04 -2.8889655243271159e+05 +9.7406315969017848e+07 
+1.3999999999999999e+00 -5.2312618116778586e-01 +6.8593336253028827e+00 +5.7179987336922533e+00 -1.1119254224307966e+01 -1.5977548507055484e+04 -2.8981415373787424e+05 +9.7955627463851362e+07 
+1.4500000000000000e+00 -5.2313651732868938e-01 +6.8599264153524695e+00 +5.7060366405070679e+00 -1.0775589044747155e+01 -1.6050034258820197e+04 -2.9068967608673667e+05 +9.8489966736275762e+07 
+1.5000000000000000e+00 -5.2314722502477984e-01 +6.8605386908081449e+00 +5.6935045269166995e+00 -1.0434121954372705e+01 -1.6119347020709984e+04 -2.9152120196298318e+05 +9.9007424033181295e+07 
+1.5500000000000000e+00 -5.2315830348788128e-01 +6.8611703880536430e+00 +5.6803934514497394e+00 -1.0095309393489801e+01 -1.6185181202483991e+04 -2.9230681229325489e+05 +9.9506089199190348e+07 
+1.6000000000000001e+00 -5.2316975194988091e-01 +6.8618214434706042e+00 +5.6666944762798055e+00 -9.7596076983279278e+00 -1.6247231308675635e+04 -2.9304458884200302e+05 +9.9984052706211895e+07 
+1.6499999999999999e+00 -5.2318156964258578e-01 +6.8624917934434162e+00 +5.6523986596804265e+00 -9.4274732849694889e+00 -1.6305191737225083e+04 -2.9373261274254665e+05 +1.0043940430010077e+08 
+1.7000000000000000e+00 -5.2319375579792471e-01 +6.8631813743575920e+00 +5.6374970612609401e+00 -9.0993626047916045e+00 -1.6358756921810174e+04 -2.9436896481445356e+05 +1.0087023396446319e+08 
+1.7500000000000000e+00 -5.2320630964779347e-01 +6.8638901225963522e+00 +5.6219807410474258e+00 -8.7757319849840449e+00 -1.6407621308245089e+04 -2.9495172691768239e+05 +1.0127463176709527e+08 
+1.8000000000000000e+00 -5.2321923042405605e-01 +6.8646179745522451e+00 +5.6058407592862549e+00 -8.4570381112833992e+00 -1.6451479345682408e+04 -2.9547897795890394e+05 +1.0165068778904955e+08 
+1.8500000000000001e+00 -5.2323251735866039e-01 +6.8653648666094433e+00 +5.5890681751686442e+00 -8.1437373118626173e+00 -1.6490025454073028e+04 -2.9594879977863363e+05 +1.0199649190927444e+08 
+1.8999999999999999e+00 -5.2324616968357907e-01 +6.8661307351592002e+00 +5.5716540496659901e+00 -7.8362861815556846e+00 -1.6522954100493771e+04 -2.9635927203085233e+05 +1.0231013432070021e+08 
+1.9500000000000000e+00 -5.2326018663070906e-01 +6.8669155165931857e+00 +5.5535894409695485e+00 -7.5351413050936209e+00 -1.6549959675541522e+04 -2.9670847445137776e+05 +1.0258970469276302e+08 
+2.0000000000000000e+00 -5.2327444380575705e-01 +6.8677122440859035e+00 +5.5350315771379783e+00 -7.2431121853279139e+00 -1.6570684863741462e+04 -2.9699315832708211e+05 +1.0283193804643828e+08 
+2.0499999999999998e+00 -5.2328905657149005e-01 +6.8685273578211232e+00 +5.5158448793426214e+00 -6.9575001873680948e+00 -1.6585576993456514e+04 -2.9721869473879691e+05 +1.0304028299525239e+08 
+2.1000000000000001e+00 -5.2330402280394006e-01 +6.8693607092900546e+00 +5.4960490180433039e+00 -6.6780771113607544e+00 -1.6594928705911505e+04 -2.9738800708217674e+05 +1.0321624140619649e+08 
+2.1499999999999999e+00 -5.2331934037912542e-01 +6.8702121499857229e+00 +5.4756636639929246e+00 -6.4046148100498650e+00 -1.6599032656041127e+04 -2.9750401835197484e+05 +1.0336131526529928e+08 
+2.2000000000000002e+00 -5.2333500717310100e-01 +6.8710815314003169e+00 +5.4547084878355134e+00 -6.1368850956529846e+00 -1.6598181493793625e+04 -2.9756965182395320e+05 +1.0347700651636766e+08 
+2.2500000000000000e+00 -5.2335102106195597e-01 +6.8719687050255249e+00 +5.4332031595327583e+00 -5.8746597480323066e+00 -1.6592667846634846e+04 -2.9758783102515701e+05 +1.0356481693502682e+08 
+2.2999999999999998e+00 -5.2336737992174132e-01 +6.8728735223540669e+00 +5.4111673490821026e+00 -5.6177105712566018e+00 -1.6582784346448858e+04 -2.9756147926933278e+05 +1.0362624834538899e+08 
+2.3500000000000001e+00 -5.2338408162861461e-01 +6.8737958348784840e+00 +5.3886207301462887e+00 -5.3658093621721070e+00 -1.6568823722388152e+04 -2.9749351986559556e+05 +1.0366280322071023e+08 
+2.3999999999999999e+00 -5.2340112405858596e-01 +6.8747354940916781e+00 +5.3655829707429783e+00 -5.1187279135501171e+00 -1.6551078552889347e+04 -2.9738687614205742e+05 +1.0367598302241701e+08 
+2.4500000000000002e+00 -5.2341850508782473e-01 +6.8756923514842079e+00 +5.3420737422930742e+00 -4.8762379120886319e+00 -1.6529841503771240e+04 -2.9724447229027475e+05 +1.0366728978949371e+08 
+2.5000000000000000e+00 -5.2343622259242317e-01 +6.8766662585475338e+00 +5.3181127149201766e+00 -4.6381110846612916e+00 -1.6505405212635091e+04 -2.9706923207677051e+05 +1.0363822539513221e+08 
+2.5499999999999998e+00 -5.2345427444851378e-01 +6.8776570667743160e+00 +5.2937195585573766e+00 -4.4041191804686877e+00 -1.6478062303450864e+04 -2.9686407912924705e+05 +1.0359029159130347e+08 
+2.6000000000000001e+00 -5.2347265853229530e-01 +6.8786646276531220e+00 +5.2689139448533915e+00 -4.1740337969182209e+00 -1.6448105451897787e+04 -2.9663193820199999e+05 +1.0352499050092939e+08 
+2.6499999999999999e+00 -5.2349137271987145e-01 +6.8796887926779702e+00 +5.2437155443432255e+00 -3.9476267294247789e+00 -1.6415827301459463e+04 -2.9637573243899224e+05 +1.0344382402281629e+08 
+2.7000000000000002e+00 -5.2351041488739758e-01 +6.8807294133358905e+00 +5.2181440261100107e+00 -3.7246694874281507e+00 -1.6381520456795584e+04 -2.9609838727770885e+05 +1.0334829379711363e+08 
+2.7500000000000000e+00 -5.2352978291107499e-01 +6.8817863411179818e+00 +5.1922190613563313e+00 -3.5049337509019765e+00 -1.6345477580648901e+04 -2.9580282668614172e+05 +1.0323990186161685e+08 
+2.7999999999999998e+00 -5.2354947466706581e-01 +6.8828594275119750e+00 +5.1659603212169420e+00 -3.2881910442518971e+00 -1.6307991330160110e+04 -2.9549197590120649e+05 +1.0312015020409283e+08 
+2.8500000000000001e+00 -5.2356948803157077e-01 +6.8839485240089440e+00 +5.1393874734650087e+00 -3.0742130301457880e+00 -1.6269354276043105e+04 -2.9516875897638133e+05 +1.0299054024728259e+08 
+2.8999999999999999e+00 -5.2358982088081063e-01 +6.8850534820944311e+00 +5.1125201919088390e+00 -2.8627711448447015e+00 -1.6229859147176359e+04 -2.9483610175892763e+05 +1.0285257446652751e+08 
+2.9500000000000002e+00 -5.2361047109092851e-01 +6.8861741532565981e+00 +5.0853781442271373e+00 -2.6536369345182456e+00 -1.6189798509628530e+04 -2.9449692911516363e+05 +1.0270775424855851e+08 
+3.0000000000000000e+00 -5.2363143653818811e-01 +6.8873103889822405e+00 +5.0579809998728642e+00 -2.4465818726801078e+00 -1.6149464975812863e+04 -2.9415416653640475e+05 +1.0255758129278748e+08 
+3.0499999999999998e+00 -5.2365271509882894e-01 +6.8884620407546278e+00 +5.0303484320410252e+00 -2.2413773022681838e+00 -1.6109151263456948e+04 -2.9381074046903010e+05 +1.0240355802570342e+08 
+3.1000000000000001e+00 -5.2367430464904585e-01 +6.8896289600611338e+00 +5.0025001080470579e+00 -2.0377947247414903e+00 -1.6069149923267329e+04 -2.9346957603382447e+05 +1.0224718571916223e+08 
+3.1499999999999999e+00 -5.2369620306513986e-01 +6.8908109983837642e+00 +4.9744556999045955e+00 -1.8356054343129873e+00 -1.6029753639476377e+04 -2.9313359997546097e+05 +1.0208996657445039e+08 
+3.2000000000000002e+00 -5.2371840822328075e-01 +6.8920080072057797e+00 +4.9462348768496787e+00 -1.6345807654997775e+00 -1.5991255015971828e+04 -2.9280573866655846e+05 +1.0193340223267739e+08 
+3.2500000000000000e+00 -5.2374091799974309e-01 +6.8932198380091299e+00 +4.9178573080706123e+00 -1.4344920082231842e+00 -1.5953946661941483e+04 -2.9248891878138360e+05 +1.0177899439868036e+08 
+3.2999999999999998e+00 -5.2376373027082346e-01 +6.8944463422744420e+00 +4.8893426647107718e+00 -1.2351104027585937e+00 -1.5918121231426423e+04 -2.9218606733760273e+05 +1.0162824505395456e+08 
+3.3500000000000001e+00 -5.2378684291278532e-01 +6.8956873714817926e+00 +4.8607106156219659e+00 -1.0362071660415944e+00 -1.5884071321570143e+04 -2.9190011149872537e+05 +1.0148265581755078e+08 
+3.3999999999999999e+00 -5.2381025380188706e-01 +6.8969427771100102e+00 +4.8319808316778490e+00 -8.3755347035891703e-01 -1.5852089581159460e+04 -2.9163397870839323e+05 +1.0134372864930120e+08 
+3.4500000000000002e+00 -5.2383396081442735e-01 +6.8982124106345450e+00 +4.8031729810243231e+00 -6.3892035456535790e-01 -1.5822468587631460e+04 -2.9139059746171179e+05 +1.0121296504075855e+08 
+3.5000000000000000e+00 -5.2385796182667732e-01 +6.8994961235326127e+00 +4.7743067346756876e+00 -4.4007893710928481e-01 -1.5795500994462158e+04 -2.9117289551587123e+05 +1.0109186699272338e+08 
+3.5499999999999998e+00 -5.2388225471493832e-01 +6.9007937672802919e+00 +4.7454017631376431e+00 -2.4080029788941210e-01 -1.5771479440125902e+04 -2.9098380087431945e+05 +1.0098193640655211e+08 
+3.6000000000000001e+00 -5.2390683735554311e-01 +6.9021051933471753e+00 +4.7164777327263234e+00 -4.0855255088572191e-02 -1.5750696450269843e+04 -2.9082624364224635e+05 +1.0088467442269371e+08 
+3.6499999999999999e+00 -5.2393170762475161e-01 +6.9034302532091081e+00 +4.6875543179173418e+00 +1.5998511071129359e-01 -1.5733444772928260e+04 -2.9070315168032120e+05 +1.0080158370192622e+08 
+3.6999999999999900e+00 -5.2395686339892167e-01 +6.9047687983334276e+00 +4.6586511828905071e+00 +3.6195004840554834e-01 -1.5720016876371943e+04 -2.9061745547046891e+05 +1.0073416500627202e+08 
+3.7499999999999898e+00 -5.2398230255431266e-01 +6.9061206801910524e+00 +4.6297880001110538e+00 +5.6526866358320782e-01 -1.5710705451455444e+04 -2.9057208426694217e+05 +1.0068392060392159e+08 
+3.7999999999999901e+00 -5.2400802296728977e-01 +6.9074857502491156e+00 +4.6009844373091964e+00 +7.7017019838762868e-01 -1.5705803059345424e+04 -2.9056996836259816e+05 +1.0065235188266174e+08 
+3.8499999999999899e+00 -5.2403402251418785e-01 +6.9088638599724810e+00 +4.5722601654389781e+00 +9.7688397699964935e-01 -1.5705602355944477e+04 -2.9061403863007750e+05 +1.0064096090741736e+08 
+3.8999999999999901e+00 -5.2406029907130924e-01 +6.9102548608268473e+00 +4.5436348525997108e+00 +1.1856392813300201e+00 -1.5710395911498092e+04 -2.9070722553108295e+05 +1.0065124913362107e+08 
+3.9499999999999900e+00 -5.2408685046779535e-01 +6.9116586017888206e+00 +4.5151265589500413e+00 +1.3966511274286859e+00 -1.5720448873469486e+04 -2.9085217478066374e+05 +1.0068459289434162e+08 
+3.9999999999999898e+00 -5.2411367398421316e-01 +6.9130748964691859e+00 +4.4867351714614605e+00 +1.6100690689563444e+00 -1.5735705944491661e+04 -2.9104931048533367e+05 +1.0074087266228592e+08 
+4.0499999999999901e+00 -5.2414076654714359e-01 +6.9145035325830406e+00 +4.4584491461305324e+00 +1.8260455496275647e+00 -1.5755905179020559e+04 -2.9129812933288253e+05 +1.0081899219170408e+08 
+4.0999999999999899e+00 -5.2416812507729282e-01 +6.9159442972788074e+00 +4.4302567626565770e+00 +2.0447347311308572e+00 -1.5780781193537268e+04 -2.9159813326289208e+05 +1.0091783858650431e+08 
+4.1499999999999897e+00 -5.2419574649544864e-01 +6.9173969777041737e+00 +4.4021462971827763e+00 +2.2662908062680560e+00 -1.5810068509505329e+04 -2.9194882455357135e+05 +1.0103629831504276e+08 
+4.1999999999999904e+00 -5.2422362772229503e-01 +6.9188613610095917e+00 +4.3741060298075656e+00 +2.4908678686406209e+00 -1.5843501756174172e+04 -2.9234970475908869e+05 +1.0117325857284029e+08 
+4.2499999999999902e+00 -5.2425176567858167e-01 +6.9203372343450704e+00 +4.3461242385032204e+00 +2.7186200238705336e+00 -1.5880815502508249e+04 -2.9280027557419788e+05 +1.0132760613615218e+08 
+4.2999999999999901e+00 -5.2428015728500155e-01 +6.9218243848611340e+00 +4.3181892007557892e+00 +2.9497013702265678e+00 -1.5921744312191240e+04 -2.9330003875208949e+05 +1.0149822777585423e+08 
+4.3499999999999899e+00 -5.2430879946229159e-01 +6.9233225997111560e+00 +4.2902891971324042e+00 +3.1842658916667865e+00 -1.5966022828775100e+04 -2.9384849518094579e+05 +1.0168401078640428e+08 
+4.3999999999999897e+00 -5.2433768913118850e-01 +6.9248316660500828e+00 +4.2624125038111691e+00 +3.4224675073179531e+00 -1.6013385576666331e+04 -2.9444514529520430e+05 +1.0188384165266937e+08 
+4.4499999999999904e+00 -5.2436682321242001e-01 +6.9263513710313598e+00 +4.2345474002592578e+00 +3.6644602077654058e+00 -1.6063567174533136e+04 -2.9508949022343656e+05 +1.0209660751703189e+08 
+4.4999999999999902e+00 -5.2439619862666320e-01 +6.9278815018101616e+00 +4.2066821659161073e+00 +3.9103979167313416e+00 -1.6116302237672604e+04 -2.9578103062890639e+05 +1.0232119548677897e+08 
+4.5499999999999901e+00 -5.2442581229472240e-01 +6.9294218455439074e+00 +4.1788050767005283e+00 +4.1604344647557037e+00 -1.6171325290722447e+04 -2.9651926651781698e+05 +1.0255649207043897e+08 
+4.5999999999999899e+00 -5.2445566113720044e-01 +6.9309721893920786e+00 +4.1509044128442012e+00 +4.4147236124545994e+00 -1.6228370972334425e+04 -2.9730369741910131e+05 +1.0280138453704123e+08 
+4.6499999999999897e+00 -5.2448574207487897e-01 +6.9325323205121876e+00 +4.1229684513158045e+00 +4.6734191939380123e+00 -1.6287173835685173e+04 -2.9813382356572896e+05 +1.0305475958443318e+08 
+4.6999999999999904e+00 -5.2451605202847995e-01 +6.9341020260666140e+00 +4.0949854724167265e+00 +4.9366748541495484e+00 -1.6347468526606615e+04 -2.9900914375779784e+05 +1.0331550454641487e+08 
+4.7499999999999902e+00 -5.2454658791868158e-01 +6.9356810932151971e+00 +4.0669437536995465e+00 +5.2046443448596893e+00 -1.6408989618384170e+04 -2.9992915777265682e+05 +1.0358250626920018e+08 
+4.7999999999999901e+00 -5.2457734666620748e-01 +6.9372693091240185e+00 +4.0388315720529775e+00 +5.4774811620456179e+00 -1.6471471662738506e+04 -3.0089336339263408e+05 +1.0385465143794563e+08 
+4.8499999999999899e+00 -5.2460832519179257e-01 +6.9388664609543360e+00 +4.0106372073152121e+00 +5.7553390093982095e+00 -1.6534649296058269e+04 -3.0190126025529328e+05 +1.0413082732594529e+08 
+4.8999999999999897e+00 -5.2463952041604167e-01 +6.9404723358750502e+00 +3.9823489396174110e+00 +6.0383712762980641e+00 -1.6598257167040319e+04 -3.0295234549473523e+05 +1.0440992130534139e+08 
+4.9499999999999904e+00 -5.2467071704704960e-01 +6.9420758137730498e+00 +3.9541470398100427e+00 +6.3247637191383062e+00 -1.6661600294056712e+04 -3.0403861490928114e+05 +1.0468892429654621e+08 
+4.9999999999999902e+00 -5.2470212141714367e-01 +6.9436874790277736e+00 +3.9258294504536617e+00 +6.6165628013169924e+00 -1.6724845953111242e+04 -3.0516650518414180e+05 +1.0496861741725045e+08 
+5.0499999999999901e+00 -5.2473373050878980e-01 +6.9453071230804984e+00 +3.8973846829531467e+00 +6.9139188797621953e+00 -1.6787734017233033e+04 -3.0633552429991605e+05 +1.0524790968354703e+08 
