# trajectory
# s[mm] rx[mm] ry[mm] rz[mm] px[rad] py[rad] pz[rad]
0.0000000000000000e+00 +8.2850000000000001e+00 +0.0000000000000000e+00 +0.0000000000000000e+00 +0.0000000000000000e+00 +0.0000000000000000e+00 +1.0000000000000000e+00
-5.0000000000000003e-02 +8.2849999308021420e+00 +0.0000000000000000e+00 -4.9999999999936151e-02 +2.7679150761569483e-06 +0.0000000000000000e+00 +9.9999999999616929e-01
-1.0000000000000001e-01 +8.2849997232083989e+00 +0.0000000000000000e+00 -9.9999999999489234e-02 +5.5358357176523630e-06 +0.0000000000000000e+00 +9.9999999998467726e-01
-1.5000000000000002e-01 +8.2849993772184476e+00 +0.0000000000000000e+00 -1.4999999999827618e-01 +8.3037636726994404e-06 +0.0000000000000000e+00 +9.9999999996552380e-01
-2.0000000000000001e-01 +8.2849988928318794e+00 +0.0000000000000000e+00 -1.9999999999591392e-01 +1.1071700685329310e-05 +0.0000000000000000e+00 +9.9999999993870881e-01
-2.5000000000000000e-01 +8.2849982700481988e+00 +0.0000000000000000e+00 -2.4999999999201938e-01 +1.3839648495391121e-05 +0.0000000000000000e+00 +9.9999999990423216e-01
-2.9999999999999999e-01 +8.2849975088668213e+00 +0.0000000000000000e+00 -2.9999999998620946e-01 +1.6607608838552130e-05 +0.0000000000000000e+00 +9.9999999986209376e-01
-3.4999999999999998e-01 +8.2849966092870773e+00 +0.0000000000000000e+00 -3.4999999997810105e-01 +1.9375583446297779e-05 +0.0000000000000000e+00 +9.9999999981229348e-01
-3.9999999999999997e-01 +8.2849955713082100e+00 +0.0000000000000000e+00 -3.9999999996731106e-01 +2.2143574045931783e-05 +0.0000000000000000e+00 +9.9999999975483111e-01
-4.4999999999999996e-01 +8.2849943949293774e+00 +0.0000000000000000e+00 -4.4999999995345641e-01 +2.4911582360576211e-05 +0.0000000000000000e+00 +9.9999999968970654e-01
-4.9999999999999994e-01 +8.2849930801496505e+00 +0.0000000000000000e+00 -4.9999999993615396e-01 +2.7679610109171568e-05 +0.0000000000000000e+00 +9.9999999961691965e-01
-5.4999999999999993e-01 +8.2849916269680151e+00 +0.0000000000000000e+00 -5.4999999991502058e-01 +3.0447659006476879e-05 +0.0000000000000000e+00 +9.9999999953647012e-01
-5.9999999999999998e-01 +8.2849900353833696e+00 +0.0000000000000000e+00 -5.9999999988967323e-01 +3.3215730763069766e-05 +0.0000000000000000e+00 +9.9999999944835771e-01
-6.5000000000000002e-01 +8.2849883053945295e+00 +0.0000000000000000e+00 -6.4999999985972867e-01 +3.5983827085346538e-05 +0.0000000000000000e+00 +9.9999999935258221e-01
-7.0000000000000007e-01 +8.2849864370002226e+00 +0.0000000000000000e+00 -6.9999999982480376e-01 +3.8751949675522258e-05 +0.0000000000000000e+00 +9.9999999924914329e-01
-7.5000000000000011e-01 +8.2849844301990956e+00 +0.0000000000000000e+00 -7.4999999978451526e-01 +4.1520100231630832e-05 +0.0000000000000000e+00 +9.9999999913804072e-01
-8.0000000000000016e-01 +8.2849822849897059e+00 +0.0000000000000000e+00 -7.9999999973848002e-01 +4.4288280447525080e-05 +0.0000000000000000e+00 +9.9999999901927417e-01
-8.5000000000000020e-01 +8.2849800013705277e+00 +0.0000000000000000e+00 -8.4999999968631490e-01 +4.7056492012876836e-05 +0.0000000000000000e+00 +9.9999999889284330e-01
-9.0000000000000024e-01 +8.2849775793399534e+00 +0.0000000000000000e+00 -8.9999999962763666e-01 +4.9824736613176999e-05 +0.0000000000000000e+00 +9.9999999875874779e-01
-9.5000000000000029e-01 +8.2849750188962883e+00 +0.0000000000000000e+00 -9.4999999956206194e-01 +5.2593015929735635e-05 +0.0000000000000000e+00 +9.9999999861698730e-01
-1.0000000000000002e+00 +8.2849723200377543e+00 +0.0000000000000000e+00 -9.9999999948920759e-01 +5.5361331639682032e-05 +0.0000000000000000e+00 +9.9999999846756149e-01
-1.0500000000000003e+00 +8.2849694827624898e+00 +0.0000000000000000e+00 -1.0499999994086904e+00 +5.8129685415964795e-05 +0.0000000000000000e+00 +9.9999999831046982e-01
-1.1000000000000003e+00 +8.2849665070685496e+00 +0.0000000000000000e+00 -1.0999999993201268e+00 +6.0898078927351910e-05 +0.0000000000000000e+00 +9.9999999814571194e-01
-1.1500000000000004e+00 +8.2849633929539070e+00 +0.0000000000000000e+00 -1.1499999992231338e+00 +6.3666513838430840e-05 +0.0000000000000000e+00 +9.9999999797328742e-01
-1.2000000000000004e+00 +8.2849601404164481e+00 +0.0000000000000000e+00 -1.1999999991173278e+00 +6.6434991809608571e-05 +0.0000000000000000e+00 +9.9999999779319582e-01
-1.2500000000000004e+00 +8.2849567494539809e+00 +0.0000000000000000e+00 -1.2499999990023256e+00 +6.9203514497111711e-05 +0.0000000000000000e+00 +9.9999999760543667e-01
-1.3000000000000005e+00 +8.2849532200642262e+00 +0.0000000000000000e+00 -1.2999999988777438e+00 +7.1972083552986559e-05 +0.0000000000000000e+00 +9.9999999741000944e-01
-1.3500000000000005e+00 +8.2849495522448251e+00 +0.0000000000000000e+00 -1.3499999987431988e+00 +7.4740700625099162e-05 +0.0000000000000000e+00 +9.9999999720691368e-01
-1.4000000000000006e+00 +8.2849457459933351e+00 +0.0000000000000000e+00 -1.3999999985983074e+00 +7.7509367357135413e-05 +0.0000000000000000e+00 +9.9999999699614883e-01
-1.4500000000000006e+00 +8.2849418013072338e+00 +0.0000000000000000e+00 -1.4499999984426859e+00 +8.0278085388601130e-05 +0.0000000000000000e+00 +9.9999999677771434e-01
-1.5000000000000007e+00 +8.2849377181839134e+00 +0.0000000000000000e+00 -1.4999999982759509e+00 +8.3046856354822087e-05 +0.0000000000000000e+00 +9.9999999655160965e-01
-1.5500000000000007e+00 +8.2849334966206882e+00 +0.0000000000000000e+00 -1.5499999980977188e+00 +8.5815681886944130e-05 +0.0000000000000000e+00 +9.9999999631783421e-01
-1.6000000000000008e+00 +8.2849291366147888e+00 +0.0000000000000000e+00 -1.5999999979076063e+00 +8.8584563611933224e-05 +0.0000000000000000e+00 +9.9999999607638734e-01
-1.6500000000000008e+00 +8.2849246381633641e+00 +0.0000000000000000e+00 -1.6499999977052295e+00 +9.1353503152575530e-05 +0.0000000000000000e+00 +9.9999999582726851e-01
-1.7000000000000008e+00 +8.2849200012634832e+00 +0.0000000000000000e+00 -1.6999999974902051e+00 +9.4122502127477474e-05 +0.0000000000000000e+00 +9.9999999557047703e-01
-1.7500000000000009e+00 +8.2849152259121333e+00 +0.0000000000000000e+00 -1.7499999972621494e+00 +9.6891562151065841e-05 +0.0000000000000000e+00 +9.9999999530601236e-01
-1.8000000000000009e+00 +8.2849103121062235e+00 +0.0000000000000000e+00 -1.7999999970206786e+00 +9.9660684833587806e-05 +0.0000000000000000e+00 +9.9999999503387371e-01
-1.8500000000000010e+00 +8.2849052598425796e+00 +0.0000000000000000e+00 -1.8499999967654088e+00 +1.0242987178111104e-04 +0.0000000000000000e+00 +9.9999999475406043e-01
-1.9000000000000010e+00 +8.2849000691179473e+00 +0.0000000000000000e+00 -1.8999999964959566e+00 +1.0519912459552372e-04 +0.0000000000000000e+00 +9.9999999446657184e-01
-1.9500000000000011e+00 +8.2848947399289958e+00 +0.0000000000000000e+00 -1.9499999962119381e+00 +1.0796844487453471e-04 +0.0000000000000000e+00 +9.9999999417140717e-01
-2.0000000000000009e+00 +8.2848892722723093e+00 +0.0000000000000000e+00 -1.9999999959129695e+00 +1.1073783421167347e-04 +0.0000000000000000e+00 +9.9999999386856575e-01
-2.0500000000000007e+00 +8.2848836661443972e+00 +0.0000000000000000e+00 -2.0499999955986667e+00 +1.1350729419609607e-04 +0.0000000000000000e+00 +9.9999999355804681e-01
-2.1000000000000005e+00 +8.2848779215416855e+00 +0.0000000000000000e+00 -2.0999999952686461e+00 +1.1627682641044874e-04 +0.0000000000000000e+00 +9.9999999323984956e-01
-2.1500000000000004e+00 +8.2848720384605254e+00 +0.0000000000000000e+00 -2.1499999949225237e+00 +1.1904643242873159e-04 +0.0000000000000000e+00 +9.9999999291397323e-01
-2.2000000000000002e+00 +8.2848660168971868e+00 +0.0000000000000000e+00 -2.1999999945599154e+00 +1.2181611381610444e-04 +0.0000000000000000e+00 +9.9999999258041694e-01
-2.2500000000000000e+00 +8.2848598568478611e+00 +0.0000000000000000e+00 -2.2499999941804374e+00 +1.2458587212888685e-04 +0.0000000000000000e+00 +9.9999999223918001e-01
-2.2999999999999998e+00 +8.2848535583086651e+00 +0.0000000000000000e+00 -2.2999999937837052e+00 +1.2735570891455822e-04 +0.0000000000000000e+00 +9.9999999189026145e-01
-2.3499999999999996e+00 +8.2848471212756358e+00 +0.0000000000000000e+00 -2.3499999933693352e+00 +1.3012562571175778e-04 +0.0000000000000000e+00 +9.9999999153366048e-01
-2.3999999999999995e+00 +8.2848405457447338e+00 +0.0000000000000000e+00 -2.3999999929369431e+00 +1.3289562405028468e-04 +0.0000000000000000e+00 +9.9999999116937621e-01
-2.4499999999999993e+00 +8.2848338317118451e+00 +0.0000000000000000e+00 -2.4499999924861449e+00 +1.3566570545109802e-04 +0.0000000000000000e+00 +9.9999999079740787e-01
-2.4999999999999991e+00 +8.2848269791727791e+00 +0.0000000000000000e+00 -2.4999999920165559e+00 +1.3843587142631691e-04 +0.0000000000000000e+00 +9.9999999041775445e-01
-2.5499999999999989e+00 +8.2848199881232674e+00 +0.0000000000000000e+00 -2.5499999915277920e+00 +1.4120612347922050e-04 +0.0000000000000000e+00 +9.9999999003041506e-01
-2.5999999999999988e+00 +8.2848128585589702e+00 +0.0000000000000000e+00 -2.5999999910194691e+00 +1.4397646310424804e-04 +0.0000000000000000e+00 +9.9999998963538872e-01
-2.6499999999999986e+00 +8.2848055904754716e+00 +0.0000000000000000e+00 -2.6499999904912026e+00 +1.4674689178699894e-04 +0.0000000000000000e+00 +9.9999998923267452e-01
-2.6999999999999984e+00 +8.2847981838682827e+00 +0.0000000000000000e+00 -2.6999999899426084e+00 +1.4951741100423273e-04 +0.0000000000000000e+00 +9.9999998882227159e-01
-2.7499999999999982e+00 +8.2847906387328383e+00 +0.0000000000000000e+00 -2.7499999893733018e+00 +1.5228802222386922e-04 +0.0000000000000000e+00 +9.9999998840417881e-01
-2.7999999999999980e+00 +8.2847829550645020e+00 +0.0000000000000000e+00 -2.7999999887828984e+00 +1.5505872690498842e-04 +0.0000000000000000e+00 +9.9999998797839529e-01
-2.8499999999999979e+00 +8.2847751328585648e+00 +0.0000000000000000e+00 -2.8499999881710134e+00 +1.5782952649783072e-04 +0.0000000000000000e+00 +9.9999998754491992e-01
-2.8999999999999977e+00 +8.2847671721102465e+00 +0.0000000000000000e+00 -2.8999999875372624e+00 +1.6060042244379677e-04 +0.0000000000000000e+00 +9.9999998710375182e-01
-2.9499999999999975e+00 +8.2847590728146923e+00 +0.0000000000000000e+00 -2.9499999868812603e+00 +1.6337141617544764e-04 +0.0000000000000000e+00 +9.9999998665488987e-01
-2.9999999999999973e+00 +8.2847508349669763e+00 +0.0000000000000000e+00 -2.9999999862026230e+00 +1.6614250911650480e-04 +0.0000000000000000e+00 +9.9999998619833297e-01
-3.0499999999999972e+00 +8.2847424585621035e+00 +0.0000000000000000e+00 -3.0499999855009654e+00 +1.6891370268185013e-04 +0.0000000000000000e+00 +9.9999998573408011e-01
-3.0999999999999970e+00 +8.2847339435950076e+00 +0.0000000000000000e+00 -3.0999999847759026e+00 +1.7168499827752601e-04 +0.0000000000000000e+00 +9.9999998526213030e-01
-3.1499999999999968e+00 +8.2847252900605515e+00 +0.0000000000000000e+00 -3.1499999840270498e+00 +1.7445639730073533e-04 +0.0000000000000000e+00 +9.9999998478248231e-01
-3.1999999999999966e+00 +8.2847164979535304e+00 +0.0000000000000000e+00 -3.1999999832540222e+00 +1.7722790113984150e-04 +0.0000000000000000e+00 +9.9999998429513515e-01
-3.2499999999999964e+00 +8.2847075672686685e+00 +0.0000000000000000e+00 -3.2499999824564347e+00 +1.7999951117436854e-04 +0.0000000000000000e+00 +9.9999998380008759e-01
-3.2999999999999963e+00 +8.2846984980006209e+00 +0.0000000000000000e+00 -3.2999999816339023e+00 +1.8277122877500098e-04 +0.0000000000000000e+00 +9.9999998329733852e-01
-3.3499999999999961e+00 +8.2846892901439748e+00 +0.0000000000000000e+00 -3.3499999807860399e+00 +1.8554305530358404e-04 +0.0000000000000000e+00 +9.9999998278688684e-01
-3.3999999999999959e+00 +8.2846799436932521e+00 +0.0000000000000000e+00 -3.3999999799124625e+00 +1.8831499211312359e-04 +0.0000000000000000e+00 +9.9999998226873144e-01
-3.4499999999999957e+00 +8.2846704586429034e+00 +0.0000000000000000e+00 -3.4499999790127847e+00 +1.9108704054778613e-04 +0.0000000000000000e+00 +9.9999998174287097e-01
-3.4999999999999956e+00 +8.2846608349873154e+00 +0.0000000000000000e+00 -3.4999999780866213e+00 +1.9385920194289885e-04 +0.0000000000000000e+00 +9.9999998120930444e-01
-3.5499999999999954e+00 +8.2846510727208056e+00 +0.0000000000000000e+00 -3.5499999771335866e+00 +1.9663147762494972e-04 +0.0000000000000000e+00 +9.9999998066803053e-01
-3.5999999999999952e+00 +8.2846411718376274e+00 +0.0000000000000000e+00 -3.5999999761532955e+00 +1.9940386891158739e-04 +0.0000000000000000e+00 +9.9999998011904800e-01
-3.6499999999999950e+00 +8.2846311323319668e+00 +0.0000000000000000e+00 -3.6499999751453629e+00 +2.0217637711162126e-04 +0.0000000000000000e+00 +9.9999997956235576e-01
-3.6999999999999948e+00 +8.2846209541979459e+00 +0.0000000000000000e+00 -3.6999999741094030e+00 +2.0494900352502156e-04 +0.0000000000000000e+00 +9.9999997899795245e-01
-3.7499999999999947e+00 +8.2846106374296227e+00 +0.0000000000000000e+00 -3.7499999730450297e+00 +2.0772174944291930e-04 +0.0000000000000000e+00 +9.9999997842583688e-01
-3.7999999999999945e+00 +8.2846001820209896e+00 +0.0000000000000000e+00 -3.7999999719518578e+00 +2.1049461614760625e-04 +0.0000000000000000e+00 +9.9999997784600769e-01
-3.8499999999999943e+00 +8.2845895879659750e+00 +0.0000000000000000e+00 -3.8499999708295016e+00 +2.1326760491253505e-04 +0.0000000000000000e+00 +9.9999997725846379e-01
-3.8999999999999941e+00 +8.2845788552584434e+00 +0.0000000000000000e+00 -3.8999999696775753e+00 +2.1604071700231917e-04 +0.0000000000000000e+00 +9.9999997666320373e-01
-3.9499999999999940e+00 +8.2845679838921988e+00 +0.0000000000000000e+00 -3.9499999684956935e+00 +2.1881395367273295e-04 +0.0000000000000000e+00 +9.9999997606022628e-01
-3.9999999999999938e+00 +8.2845569738609797e+00 +0.0000000000000000e+00 -3.9999999672834696e+00 +2.2158731617071155e-04 +0.0000000000000000e+00 +9.9999997544953012e-01
-4.0499999999999936e+00 +8.2845458251584638e+00 +0.0000000000000000e+00 -4.0499999660405175e+00 +2.2436080573415930e-04 +0.0000000000000000e+00 +9.9999997483111391e-01
-4.0999999999999934e+00 +8.2845345377782671e+00 +0.0000000000000000e+00 -4.0999999647664520e+00 +2.2713442358984027e-04 +0.0000000000000000e+00 +9.9999997420497633e-01
-4.1499999999999932e+00 +8.2845231117139448e+00 +0.0000000000000000e+00 -4.1499999634608864e+00 +2.2990817095126909e-04 +0.0000000000000000e+00 +9.9999997357111592e-01
-4.1999999999999931e+00 +8.2845115469589921e+00 +0.0000000000000000e+00 -4.1999999621234352e+00 +2.3268204901851909e-04 +0.0000000000000000e+00 +9.9999997292953147e-01
-4.2499999999999929e+00 +8.2844998435068433e+00 +0.0000000000000000e+00 -4.2499999607537111e+00 +2.3545605897822239e-04 +0.0000000000000000e+00 +9.9999997228022153e-01
-4.2999999999999927e+00 +8.2844880013508764e+00 +0.0000000000000000e+00 -4.2999999593513287e+00 +2.3823020200356988e-04 +0.0000000000000000e+00 +9.9999997162318477e-01
-4.3499999999999925e+00 +8.2844760204844068e+00 +0.0000000000000000e+00 -4.3499999579159008e+00 +2.4100447925431122e-04 +0.0000000000000000e+00 +9.9999997095841986e-01
-4.3999999999999924e+00 +8.2844639009006951e+00 +0.0000000000000000e+00 -4.3999999564470418e+00 +2.4377889187675490e-04 +0.0000000000000000e+00 +9.9999997028592524e-01
-4.4499999999999922e+00 +8.2844516425929449e+00 +0.0000000000000000e+00 -4.4499999549443645e+00 +2.4655344100376822e-04 +0.0000000000000000e+00 +9.9999996960569970e-01
-4.4999999999999920e+00 +8.2844392455543012e+00 +0.0000000000000000e+00 -4.4999999534074826e+00 +2.4932812775477729e-04 +0.0000000000000000e+00 +9.9999996891774168e-01
-4.5499999999999918e+00 +8.2844267097778577e+00 +0.0000000000000000e+00 -4.5499999518360097e+00 +2.5210295323576710e-04 +0.0000000000000000e+00 +9.9999996822204984e-01
-4.5999999999999917e+00 +8.2844140352566473e+00 +0.0000000000000000e+00 -4.5999999502295585e+00 +2.5487791853928140e-04 +0.0000000000000000e+00 +9.9999996751862263e-01
-4.6499999999999915e+00 +8.2844012219836554e+00 +0.0000000000000000e+00 -4.6499999485877428e+00 +2.5765302474442281e-04 +0.0000000000000000e+00 +9.9999996680745873e-01
-4.6999999999999913e+00 +8.2843882699518083e+00 +0.0000000000000000e+00 -4.6999999469101752e+00 +2.6042827291685285e-04 +0.0000000000000000e+00 +9.9999996608855657e-01
-4.7499999999999911e+00 +8.2843751791539813e+00 +0.0000000000000000e+00 -4.7499999451964694e+00 +2.6320366410879182e-04 +0.0000000000000000e+00 +9.9999996536191482e-01
-4.7999999999999909e+00 +8.2843619495829977e+00 +0.0000000000000000e+00 -4.7999999434462381e+00 +2.6597919935901899e-04 +0.0000000000000000e+00 +9.9999996462753193e-01
-4.8499999999999908e+00 +8.2843485812316278e+00 +0.0000000000000000e+00 -4.8499999416590942e+00 +2.6875487969287243e-04 +0.0000000000000000e+00 +9.9999996388540646e-01
-4.8999999999999906e+00 +8.2843350740925938e+00 +0.0000000000000000e+00 -4.8999999398346503e+00 +2.7153070612224908e-04 +0.0000000000000000e+00 +9.9999996313553696e-01
-4.9499999999999904e+00 +8.2843214281585649e+00 +0.0000000000000000e+00 -4.9499999379725192e+00 +2.7430667964560475e-04 +0.0000000000000000e+00 +9.9999996237792188e-01
-4.9999999999999902e+00 +8.2843076434221619e+00 +0.0000000000000000e+00 -4.9999999360723137e+00 +2.7708280124795416e-04 +0.0000000000000000e+00 +9.9999996161255977e-01
-5.0499999999999901e+00 +8.2842937198759561e+00 +0.0000000000000000e+00 -5.0499999341336466e+00 +2.7985907190087092e-04 +0.0000000000000000e+00 +9.9999996083944909e-01
-5.0999999999999899e+00 +8.2842796575124709e+00 +0.0000000000000000e+00 -5.0999999321561296e+00 +2.8263549256248743e-04 +0.0000000000000000e+00 +9.9999996005858827e-01
-5.1499999999999897e+00 +8.2842654563241833e+00 +0.0000000000000000e+00 -5.1499999301393764e+00 +2.8541206417749494e-04 +0.0000000000000000e+00 +9.9999995926997587e-01
-5.1999999999999895e+00 +8.2842511163035208e+00 +0.0000000000000000e+00 -5.1999999280829980e+00 +2.8818878767714371e-04 +0.0000000000000000e+00 +9.9999995847361034e-01
-5.2499999999999893e+00 +8.2842366374428682e+00 +0.0000000000000000e+00 -5.2499999259866081e+00 +2.9096566397924275e-04 +0.0000000000000000e+00 +9.9999995766949012e-01
-5.2999999999999892e+00 +8.2842220197345622e+00 +0.0000000000000000e+00 -5.2999999238498177e+00 +2.9374269398815990e-04 +0.0000000000000000e+00 +9.9999995685761378e-01
-5.3499999999999890e+00 +8.2842072631708934e+00 +0.0000000000000000e+00 -5.3499999216722403e+00 +2.9651987859482198e-04 +0.0000000000000000e+00 +9.9999995603797964e-01
-5.3999999999999888e+00 +8.2841923677441116e+00 +0.0000000000000000e+00 -5.3999999194534869e+00 +2.9929721867671456e-04 +0.0000000000000000e+00 +9.9999995521058627e-01
-5.4499999999999886e+00 +8.2841773334464204e+00 +0.0000000000000000e+00 -5.4499999171931695e+00 +3.0207471509788205e-04 +0.0000000000000000e+00 +9.9999995437543199e-01
-5.4999999999999885e+00 +8.2841621602699824e+00 +0.0000000000000000e+00 -5.4999999148909007e+00 +3.0485236870892774e-04 +0.0000000000000000e+00 +9.9999995353251536e-01
-5.5499999999999883e+00 +8.2841468482069160e+00 +0.0000000000000000e+00 -5.5499999125462915e+00 +3.0763018034701367e-04 +0.0000000000000000e+00 +9.9999995268183473e-01
-5.5999999999999881e+00 +8.2841313972493005e+00 +0.0000000000000000e+00 -5.5999999101589548e+00 +3.1040815083586076e-04 +0.0000000000000000e+00 +9.9999995182338852e-01
-5.6499999999999879e+00 +8.2841158073891723e+00 +0.0000000000000000e+00 -5.6499999077285015e+00 +3.1318628098574869e-04 +0.0000000000000000e+00 +9.9999995095717520e-01
-5.6999999999999877e+00 +8.2841000786185273e+00 +0.0000000000000000e+00 -5.6999999052545434e+00 +3.1596457159351591e-04 +0.0000000000000000e+00 +9.9999995008319320e-01
-5.7499999999999876e+00 +8.2840842109293256e+00 +0.0000000000000000e+00 -5.7499999027366915e+00 +3.1874302344255971e-04 +0.0000000000000000e+00 +9.9999994920144086e-01
-5.7999999999999874e+00 +8.2840682043134830e+00 +0.0000000000000000e+00 -5.7999999001745577e+00 +3.2152163730283606e-04 +0.0000000000000000e+00 +9.9999994831191674e-01
-5.8499999999999872e+00 +8.2840520587628816e+00 +0.0000000000000000e+00 -5.8499998975677538e+00 +3.2430041393085972e-04 +0.0000000000000000e+00 +9.9999994741461906e-01
