# field on trajectory
# s[mm] rx[mm] ry[mm] rz[mm] bx[T] by[T] bz[T]
0.0000000000000000e+00 +8.5980000000000008e+00 +0.0000000000000000e+00 +0.0000000000000000e+00 -2.9642827578222383e-02 -5.7688913465976588e-01 +5.9115250830087942e-03
5.0000000000000003e-02 +8.5979999310316959e+00 +0.0000000000000000e+00 +4.9999999999936581e-02 -2.9642719935686269e-02 -5.7688865810933643e-01 +5.9107965966237064e-03
1.0000000000000001e-01 +8.5979997241268400e+00 +0.0000000000000000e+00 +9.9999999999492634e-02 -2.9642637179177245e-02 -5.7688857487143019e-01 +5.9100689643141417e-03
1.5000000000000002e-01 +8.5979993792854525e+00 +0.0000000000000000e+00 +1.4999999999828761e-01 -2.9642579092393064e-02 -5.7688888428838081e-01 +5.9093422178389376e-03
2.0000000000000001e-01 +8.5979988965074607e+00 +0.0000000000000000e+00 +1.9999999999594101e-01 -2.9642545459033498e-02 -5.7688958570253801e-01 +5.9086163889569285e-03
2.5000000000000000e-01 +8.5979982757926976e+00 +0.0000000000000000e+00 +2.4999999999207229e-01 -2.9642536062800269e-02 -5.7689067845626962e-01 +5.9078915094269401e-03
2.9999999999999999e-01 +8.5979975171409002e+00 +0.0000000000000000e+00 +2.9999999998630089e-01 -2.9642550687396969e-02 -5.7689216189196157e-01 +5.9071676110078316e-03
3.4999999999999998e-01 +8.5979966205517151e+00 +0.0000000000000000e+00 +3.4999999997824632e-01 -2.9642589116528832e-02 -5.7689403535201722e-01 +5.9064447254584523e-03
3.9999999999999997e-01 +8.5979955860246928e+00 +0.0000000000000000e+00 +3.9999999996752800e-01 -2.9642651133902714e-02 -5.7689629817885735e-01 +5.9057228845376944e-03
4.4999999999999996e-01 +8.5979944135592934e+00 +0.0000000000000000e+00 +4.4999999995376538e-01 -2.9642736523226940e-02 -5.7689894971492084e-01 +5.9050021200044824e-03
4.9999999999999994e-01 +8.5979931031548826e+00 +0.0000000000000000e+00 +4.9999999993657795e-01 -2.9642845068211181e-02 -5.7690198930266379e-01 +5.9042824636177825e-03
5.4999999999999993e-01 +8.5979916548107340e+00 +0.0000000000000000e+00 +5.4999999991558512e-01 -2.9642976552566310e-02 -5.7690541628456049e-01 +5.9035639471366093e-03
5.9999999999999998e-01 +8.5979900685260287e+00 +0.0000000000000000e+00 +5.9999999989040631e-01 -2.9643130760004365e-02 -5.7690923000310212e-01 +5.9028466023200365e-03
6.5000000000000002e-01 +8.5979883442998535e+00 +0.0000000000000000e+00 +6.4999999986066093e-01 -2.9643307474238340e-02 -5.7691342980079841e-01 +5.9021304609272037e-03
7.0000000000000007e-01 +8.5979864821312049e+00 +0.0000000000000000e+00 +6.9999999982596839e-01 -2.9643506478982114e-02 -5.7691801502017637e-01 +5.9014155547173364e-03
7.5000000000000011e-01 +8.5979844820189868e+00 +0.0000000000000000e+00 +7.4999999978594800e-01 -2.9643727557950320e-02 -5.7692298500378036e-01 +5.9007019154497242e-03
8.0000000000000016e-01 +8.5979823439620109e+00 +0.0000000000000000e+00 +7.9999999974021929e-01 -2.9643970494858236e-02 -5.7692833909417329e-01 +5.8999895748837660e-03
8.5000000000000020e-01 +8.5979800679589964e+00 +0.0000000000000000e+00 +8.4999999968840156e-01 -2.9644235073421652e-02 -5.7693407663393503e-01 +5.8992785647789450e-03
9.0000000000000024e-01 +8.5979776540085719e+00 +0.0000000000000000e+00 +8.9999999963011412e-01 -2.9644521077356763e-02 -5.7694019696566334e-01 +5.8985689168948637e-03
9.5000000000000029e-01 +8.5979751021092738e+00 +0.0000000000000000e+00 +9.4999999956497638e-01 -2.9644828290380041e-02 -5.7694669943197385e-01 +5.8978606629912344e-03
1.0000000000000002e+00 +8.5979724122595478e+00 +0.0000000000000000e+00 +9.9999999949260765e-01 -2.9645156496208133e-02 -5.7695358337549996e-01 +5.8971538348278913e-03
1.0500000000000003e+00 +8.5979695844577488e+00 +0.0000000000000000e+00 +1.0499999994126272e+00 -2.9645505478557693e-02 -5.7696084813889192e-01 +5.8964484641648041e-03
1.1000000000000003e+00 +8.5979666187021380e+00 +0.0000000000000000e+00 +1.0999999993246543e+00 -2.9645875021145345e-02 -5.7696849306481890e-01 +5.8957445827620830e-03
1.1500000000000004e+00 +8.5979635149908891e+00 +0.0000000000000000e+00 +1.1499999992283083e+00 -2.9646264907687511e-02 -5.7697651749596723e-01 +5.8950422223799787e-03
1.2000000000000004e+00 +8.5979602733220819e+00 +0.0000000000000000e+00 +1.1999999991232082e+00 -2.9646674921900294e-02 -5.7698492077504082e-01 +5.8943414147789126e-03
1.2500000000000004e+00 +8.5979568936937074e+00 +0.0000000000000000e+00 +1.2499999990089734e+00 -2.9647104847499342e-02 -5.7699370224476132e-01 +5.8936421917194521e-03
1.3000000000000005e+00 +8.5979533761036659e+00 +0.0000000000000000e+00 +1.2999999988852231e+00 -2.9647554468199808e-02 -5.7700286124786870e-01 +5.8929445849623553e-03
1.3500000000000005e+00 +8.5979497205497690e+00 +0.0000000000000000e+00 +1.3499999987515765e+00 -2.9648023567716130e-02 -5.7701239712711960e-01 +5.8922486262685423e-03
1.4000000000000006e+00 +8.5979459270297358e+00 +0.0000000000000000e+00 +1.3999999986076528e+00 -2.9648511929761978e-02 -5.7702230922528930e-01 +5.8915543473991383e-03
1.4500000000000006e+00 +8.5979419955411966e+00 +0.0000000000000000e+00 +1.4499999984530709e+00 -2.9649019338050128e-02 -5.7703259688517072e-01 +5.8908617801154538e-03
1.5000000000000007e+00 +8.5979379260816913e+00 +0.0000000000000000e+00 +1.4999999982874501e+00 -2.9649545576292308e-02 -5.7704325944957391e-01 +5.8901709561790111e-03
1.5500000000000007e+00 +8.5979337186486688e+00 +0.0000000000000000e+00 +1.5499999981104093e+00 -2.9650090428199129e-02 -5.7705429626132720e-01 +5.8894819073515405e-03
1.6000000000000008e+00 +8.5979293732394932e+00 +0.0000000000000000e+00 +1.5999999979215676e+00 -2.9650653677479925e-02 -5.7706570666327650e-01 +5.8887946653949953e-03
1.6500000000000008e+00 +8.5979248898514342e+00 +0.0000000000000000e+00 +1.6499999977205440e+00 -2.9651235107842660e-02 -5.7707748999828568e-01 +5.8881092620715622e-03
1.7000000000000008e+00 +8.5979202684816745e+00 +0.0000000000000000e+00 +1.6999999975069575e+00 -2.9651834502993777e-02 -5.7708964560923548e-01 +5.8874257291436534e-03
1.7500000000000009e+00 +8.5979155091273096e+00 +0.0000000000000000e+00 +1.7499999972804272e+00 -2.9652451646638142e-02 -5.7710217283902598e-01 +5.8867440983739411e-03
1.8000000000000009e+00 +8.5979106117853430e+00 +0.0000000000000000e+00 +1.7999999970405718e+00 -2.9653086322478858e-02 -5.7711507103057369e-01 +5.8860644015253441e-03
1.8500000000000010e+00 +8.5979055764526908e+00 +0.0000000000000000e+00 +1.8499999967870102e+00 -2.9653738314217158e-02 -5.7712833952681331e-01 +5.8853866703610378e-03
1.9000000000000010e+00 +8.5979004031261788e+00 +0.0000000000000000e+00 +1.8999999965193612e+00 -2.9654407405552360e-02 -5.7714197767069730e-01 +5.8847109366444716e-03
1.9500000000000011e+00 +8.5978950918025490e+00 +0.0000000000000000e+00 +1.9499999962372438e+00 -2.9655093380181633e-02 -5.7715598480519636e-01 +5.8840372321393841e-03
2.0000000000000009e+00 +8.5978896424784494e+00 +0.0000000000000000e+00 +1.9999999959402766e+00 -2.9655796021799956e-02 -5.7717036027329760e-01 +5.8833655886097787e-03
2.0500000000000007e+00 +8.5978840551504447e+00 +0.0000000000000000e+00 +2.0499999956280783e+00 -2.9656515176401013e-02 -5.7718510316193805e-01 +5.8826960379616787e-03
2.1000000000000005e+00 +8.5978783298150105e+00 +0.0000000000000000e+00 +2.0999999953002679e+00 -2.9657250939181222e-02 -5.7720021153378753e-01 +5.8820286126681559e-03
2.1500000000000004e+00 +8.5978724664685338e+00 +0.0000000000000000e+00 +2.1499999949564637e+00 -2.9658003467638576e-02 -5.7721568319546102e-01 +5.8813633453440872e-03
2.2000000000000002e+00 +8.5978664651073142e+00 +0.0000000000000000e+00 +2.1999999945962845e+00 -2.9658772919271943e-02 -5.7723151595358391e-01 +5.8807002686044009e-03
2.2500000000000000e+00 +8.5978603257275665e+00 +0.0000000000000000e+00 +2.2499999942193489e+00 -2.9659559451581146e-02 -5.7724770761479505e-01 +5.8800394150640960e-03
2.2999999999999998e+00 +8.5978540483254200e+00 +0.0000000000000000e+00 +2.2999999938252751e+00 -2.9660363222067009e-02 -5.7726425598574316e-01 +5.8793808173382067e-03
2.3499999999999996e+00 +8.5978476328969187e+00 +0.0000000000000000e+00 +2.3499999934136819e+00 -2.9661184388231485e-02 -5.7728115887308984e-01 +5.8787245080418205e-03
2.3999999999999995e+00 +8.5978410794380196e+00 +0.0000000000000000e+00 +2.3999999929841880e+00 -2.9662023107577703e-02 -5.7729841408350646e-01 +5.8780705197900617e-03
2.4499999999999993e+00 +8.5978343879445980e+00 +0.0000000000000000e+00 +2.4499999925364113e+00 -2.9662879537610046e-02 -5.7731601942367605e-01 +5.8774188851980821e-03
2.4999999999999991e+00 +8.5978275584124439e+00 +0.0000000000000000e+00 +2.4999999920699705e+00 -2.9663753835834236e-02 -5.7733397270029108e-01 +5.8767696368810648e-03
2.5499999999999989e+00 +8.5978205908372640e+00 +0.0000000000000000e+00 +2.5499999915844835e+00 -2.9664646159757429e-02 -5.7735227172005454e-01 +5.8761228074542052e-03
2.5999999999999988e+00 +8.5978134852146848e+00 +0.0000000000000000e+00 +2.5999999910795690e+00 -2.9665556666888252e-02 -5.7737091428967879e-01 +5.8754784295327192e-03
2.6499999999999986e+00 +8.5978062415402476e+00 +0.0000000000000000e+00 +2.6499999905548450e+00 -2.9666485514736950e-02 -5.7738989821588649e-01 +5.8748365357318240e-03
2.6999999999999984e+00 +8.5977988598094139e+00 +0.0000000000000000e+00 +2.6999999900099296e+00 -2.9667432860815367e-02 -5.7740922130540817e-01 +5.8741971586667432e-03
2.7499999999999982e+00 +8.5977913400175634e+00 +0.0000000000000000e+00 +2.7499999894444409e+00 -2.9668398862637144e-02 -5.7742888136498427e-01 +5.8735603309526914e-03
2.7999999999999980e+00 +8.5977836821599940e+00 +0.0000000000000000e+00 +2.7999999888579974e+00 -2.9669383677717671e-02 -5.7744887620136287e-01 +5.8729260852048732e-03
2.8499999999999979e+00 +8.5977758862319273e+00 +0.0000000000000000e+00 +2.8499999882502167e+00 -2.9670387463574269e-02 -5.7746920362130105e-01 +5.8722944540384710e-03
2.8999999999999977e+00 +8.5977679522285015e+00 +0.0000000000000000e+00 +2.8999999876207165e+00 -2.9671410377726200e-02 -5.7748986143156233e-01 +5.8716654700686549e-03
2.9499999999999975e+00 +8.5977598801447783e+00 +0.0000000000000000e+00 +2.9499999869691154e+00 -2.9672452577694807e-02 -5.7751084743892001e-01 +5.8710391659105576e-03
2.9999999999999973e+00 +8.5977516699757395e+00 +0.0000000000000000e+00 +2.9999999862950308e+00 -2.9673514221003536e-02 -5.7753215945015290e-01 +5.8704155741792713e-03
3.0499999999999972e+00 +8.5977433217162886e+00 +0.0000000000000000e+00 +3.0499999855980806e+00 -2.9674595465178050e-02 -5.7755379527204720e-01 +5.8697947274898585e-03
3.0999999999999970e+00 +8.5977348353612548e+00 +0.0000000000000000e+00 +3.0999999848778823e+00 -2.9675696467746270e-02 -5.7757575271139561e-01 +5.8691766584573254e-03
3.1499999999999968e+00 +8.5977262109053854e+00 +0.0000000000000000e+00 +3.1499999841340540e+00 -2.9676817386238515e-02 -5.7759802957499773e-01 +5.8685613996966226e-03
3.1999999999999966e+00 +8.5977174483433565e+00 +0.0000000000000000e+00 +3.1999999833662134e+00 -2.9677958378187520e-02 -5.7762062366965872e-01 +5.8679489838226427e-03
3.2499999999999964e+00 +8.5977085476697646e+00 +0.0000000000000000e+00 +3.2499999825739776e+00 -2.9679119601128550e-02 -5.7764353280218994e-01 +5.8673394434502210e-03
3.2999999999999963e+00 +8.5976995088791313e+00 +0.0000000000000000e+00 +3.2999999817569643e+00 -2.9680301212599441e-02 -5.7766675477940677e-01 +5.8667328111941001e-03
3.3499999999999961e+00 +8.5976903319659055e+00 +0.0000000000000000e+00 +3.3499999809147911e+00 -2.9681503370140760e-02 -5.7769028740813133e-01 +5.8661291196689617e-03
3.3999999999999959e+00 +8.5976810169244597e+00 +0.0000000000000000e+00 +3.3999999800470753e+00 -2.9682726231295777e-02 -5.7771412849518999e-01 +5.8655284014893956e-03
3.4499999999999957e+00 +8.5976715637490937e+00 +0.0000000000000000e+00 +3.4499999791534339e+00 -2.9683969953610632e-02 -5.7773827584741300e-01 +5.8649306892699015e-03
3.4999999999999956e+00 +8.5976619724340342e+00 +0.0000000000000000e+00 +3.4999999782334847e+00 -2.9685234694634331e-02 -5.7776272727163558e-01 +5.8643360156248759e-03
3.5499999999999954e+00 +8.5976522429734352e+00 +0.0000000000000000e+00 +3.5499999772868449e+00 -2.9686520611918923e-02 -5.7778748057469653e-01 +5.8637444131686258e-03
3.5999999999999952e+00 +8.5976423753613780e+00 +0.0000000000000000e+00 +3.5999999763131312e+00 -2.9687827863019489e-02 -5.7781253356343754e-01 +5.8631559145153308e-03
3.6499999999999950e+00 +8.5976323695918726e+00 +0.0000000000000000e+00 +3.6499999753119612e+00 -2.9689156605494288e-02 -5.7783788404470482e-01 +5.8625705522790715e-03
3.6999999999999948e+00 +8.5976222256588564e+00 +0.0000000000000000e+00 +3.6999999742829517e+00 -2.9690506996904783e-02 -5.7786352982534639e-01 +5.8619883590737970e-03
3.7499999999999947e+00 +8.5976119435561991e+00 +0.0000000000000000e+00 +3.7499999732257194e+00 -2.9691879194815727e-02 -5.7788946871221325e-01 +5.8614093675133294e-03
3.7999999999999945e+00 +8.5976015232776977e+00 +0.0000000000000000e+00 +3.7999999721398816e+00 -2.9693273356795311e-02 -5.7791569851215918e-01 +5.8608336102113634e-03
3.8499999999999943e+00 +8.5975909648170816e+00 +0.0000000000000000e+00 +3.8499999710250550e+00 -2.9694689640415134e-02 -5.7794221703203907e-01 +5.8602611197814403e-03
3.8999999999999941e+00 +8.5975802681680094e+00 +0.0000000000000000e+00 +3.8999999698808558e+00 -2.9696128203250356e-02 -5.7796902207871015e-01 +5.8596919288369685e-03
3.9499999999999940e+00 +8.5975694333240718e+00 +0.0000000000000000e+00 +3.9499999687069014e+00 -2.9697589202879779e-02 -5.7799611145903118e-01 +5.8591260699911987e-03
3.9999999999999938e+00 +8.5975584602787922e+00 +0.0000000000000000e+00 +3.9999999675028084e+00 -2.9699072796885852e-02 -5.7802348297986117e-01 +5.8585635758572193e-03
4.0499999999999936e+00 +8.5975473490256267e+00 +0.0000000000000000e+00 +4.0499999662681931e+00 -2.9700579044168920e-02 -5.7805113434573752e-01 +5.8580044815297345e-03
4.0999999999999934e+00 +8.5975360995579635e+00 +0.0000000000000000e+00 +4.0999999650026719e+00 -2.9702107608887515e-02 -5.7807906285190458e-01 +5.8574488320305368e-03
4.1499999999999932e+00 +8.5975247118691254e+00 +0.0000000000000000e+00 +4.1499999637058611e+00 -2.9703658056514506e-02 -5.7810726569128812e-01 +5.8568966748634883e-03
4.1999999999999931e+00 +8.5975131859523675e+00 +0.0000000000000000e+00 +4.1999999623773778e+00 -2.9705229952523091e-02 -5.7813574005681612e-01 +5.8563480575327615e-03
4.2499999999999929e+00 +8.5975015218008828e+00 +0.0000000000000000e+00 +4.2499999610168375e+00 -2.9706822862386767e-02 -5.7816448314142088e-01 +5.8558030275428731e-03
4.2999999999999927e+00 +8.5974897194077986e+00 +0.0000000000000000e+00 +4.2999999596238565e+00 -2.9708436351579281e-02 -5.7819349213803628e-01 +5.8552616323986686e-03
4.3499999999999925e+00 +8.5974777787661782e+00 +0.0000000000000000e+00 +4.3499999581980511e+00 -2.9710069985574648e-02 -5.7822276423960184e-01 +5.8547239196053442e-03
4.3999999999999924e+00 +8.5974656998690246e+00 +0.0000000000000000e+00 +4.3999999567390375e+00 -2.9711723329847048e-02 -5.7825229663905708e-01 +5.8541899366684608e-03
4.4499999999999922e+00 +8.5974534827092750e+00 +0.0000000000000000e+00 +4.4499999552464313e+00 -2.9713395949870876e-02 -5.7828208652934598e-01 +5.8536597310939404e-03
4.4999999999999920e+00 +8.5974411272798061e+00 +0.0000000000000000e+00 +4.4999999537198487e+00 -2.9715087411120649e-02 -5.7831213110341362e-01 +5.8531333503880770e-03
4.5499999999999918e+00 +8.5974286335734362e+00 +0.0000000000000000e+00 +4.5499999521589061e+00 -2.9716797279071009e-02 -5.7834242755420784e-01 +5.8526108420575542e-03
4.5999999999999917e+00 +8.5974160015829195e+00 +0.0000000000000000e+00 +4.5999999505632179e+00 -2.9718525119196679e-02 -5.7837297307467894e-01 +5.8520922536094483e-03
4.6499999999999915e+00 +8.5974032313009552e+00 +0.0000000000000000e+00 +4.6499999489324013e+00 -2.9720270496972460e-02 -5.7840376485777811e-01 +5.8515776325512329e-03
4.6999999999999913e+00 +8.5973903227201784e+00 +0.0000000000000000e+00 +4.6999999472660710e+00 -2.9722032977873160e-02 -5.7843480009645853e-01 +5.8510670263907955e-03
4.7499999999999911e+00 +8.5973772758331695e+00 +0.0000000000000000e+00 +4.7499999455638422e+00 -2.9723812127373593e-02 -5.7846607598367450e-01 +5.8505604826364381e-03
4.7999999999999909e+00 +8.5973640906324498e+00 +0.0000000000000000e+00 +4.7999999438253313e+00 -2.9725607510948538e-02 -5.7849758971238163e-01 +5.8500580487968962e-03
4.8499999999999908e+00 +8.5973507671104858e+00 +0.0000000000000000e+00 +4.8499999420501529e+00 -2.9727418694072704e-02 -5.7852933847553689e-01 +5.8495597723813349e-03
4.8999999999999906e+00 +8.5973373052596855e+00 +0.0000000000000000e+00 +4.8999999402379224e+00 -2.9729245242220738e-02 -5.7856131946609712e-01 +5.8490657008993703e-03
4.9499999999999904e+00 +8.5973237050724034e+00 +0.0000000000000000e+00 +4.9499999383882551e+00 -2.9731086720867116e-02 -5.7859352987702017e-01 +5.8485758818610676e-03
4.9999999999999902e+00 +8.5973099665409372e+00 +0.0000000000000000e+00 +4.9999999365007666e+00 -2.9732942695486236e-02 -5.7862596690126455e-01 +5.8480903627769623e-03
5.0499999999999901e+00 +8.5972960896575294e+00 +0.0000000000000000e+00 +5.0499999345750712e+00 -2.9734812731552249e-02 -5.7865862773178856e-01 +5.8476091911580505e-03
5.0999999999999899e+00 +8.5972820744143732e+00 +0.0000000000000000e+00 +5.0999999326107845e+00 -2.9736696394539127e-02 -5.7869150956155069e-01 +5.8471324145158180e-03
5.1499999999999897e+00 +8.5972679208036062e+00 +0.0000000000000000e+00 +5.1499999306075219e+00 -2.9738593249920581e-02 -5.7872460958350858e-01 +5.8466600803622343e-03
5.1999999999999895e+00 +8.5972536288173131e+00 +0.0000000000000000e+00 +5.1999999285648970e+00 -2.9740502863170076e-02 -5.7875792499062029e-01 +5.8461922362097679e-03
5.2499999999999893e+00 +8.5972391984475305e+00 +0.0000000000000000e+00 +5.2499999264825252e+00 -2.9742424799760778e-02 -5.7879145297584256e-01 +5.8457289295713952e-03
5.2999999999999892e+00 +8.5972246296862398e+00 +0.0000000000000000e+00 +5.2999999243600211e+00 -2.9744358625165501e-02 -5.7882519073213179e-01 +5.8452702079606067e-03
5.3499999999999890e+00 +8.5972099225253746e+00 +0.0000000000000000e+00 +5.3499999221969992e+00 -2.9746303904856729e-02 -5.7885913545244250e-01 +5.8448161188914176e-03
5.3999999999999888e+00 +8.5971950769568188e+00 +0.0000000000000000e+00 +5.3999999199930739e+00 -2.9748260204306536e-02 -5.7889328432972897e-01 +5.8443667098783750e-03
5.4499999999999886e+00 +8.5971800929724083e+00 +0.0000000000000000e+00 +5.4499999177478600e+00 -2.9750227088986576e-02 -5.7892763455694352e-01 +5.8439220284365653e-03
5.4999999999999885e+00 +8.5971649705639290e+00 +0.0000000000000000e+00 +5.4999999154609718e+00 -2.9752204124368062e-02 -5.7896218332703686e-01 +5.8434821220816301e-03
5.5499999999999883e+00 +8.5971497097231211e+00 +0.0000000000000000e+00 +5.5499999131320230e+00 -2.9754190875921755e-02 -5.7899692783295786e-01 +5.8430470383297696e-03
5.5999999999999881e+00 +8.5971343104416764e+00 +0.0000000000000000e+00 +5.5999999107606282e+00 -2.9756186909117868e-02 -5.7903186526765338e-01 +5.8426168246977512e-03
5.6499999999999879e+00 +8.5971187727112426e+00 +0.0000000000000000e+00 +5.6499999083464019e+00 -2.9758191789426108e-02 -5.7906699282406737e-01 +5.8421915287029140e-03
5.6999999999999877e+00 +8.5971030965234192e+00 +0.0000000000000000e+00 +5.6999999058889568e+00 -2.9760205082315586e-02 -5.7910230769514270e-01 +5.8417711978631885e-03
5.7499999999999876e+00 +8.5970872818697632e+00 +0.0000000000000000e+00 +5.7499999033879083e+00 -2.9762226353254841e-02 -5.7913780707381834e-01 +5.8413558796970976e-03
5.7999999999999874e+00 +8.5970713287417873e+00 +0.0000000000000000e+00 +5.7999999008428693e+00 -2.9764255167711813e-02 -5.7917348815303116e-01 +5.8409456217237725e-03
5.8499999999999872e+00 +8.5970552371309594e+00 +0.0000000000000000e+00 +5.8499998982534542e+00 -2.9766291091153699e-02 -5.7920934812571412e-01 +5.8405404714629424e-03
5.8999999999999870e+00 +8.5970390070287053e+00 +0.0000000000000000e+00 +5.8999998956192758e+00 -2.9768333689047115e-02 -5.7924538418479765e-01 +5.8401404764349737e-03
