# field on trajectory
# s[mm] rx[mm] ry[mm] rz[mm] bx[T] by[T] bz[T]
0.0000000000000000e+00 +8.5269999999999992e+00 +0.0000000000000000e+00 +0.0000000000000000e+00 -2.9028150964296201e-02 -5.5011102239590093e-01 +5.3754869802190323e-03
-5.0000000000000003e-02 +8.5269999310679570e+00 +0.0000000000000000e+00 -4.9999999999936644e-02 -2.9028197488711587e-02 -5.5011277569595907e-01 +5.3756164108102545e-03
-1.0000000000000001e-01 +8.5269997242715192e+00 +0.0000000000000000e+00 -9.9999999999493161e-02 -2.9028266104238015e-02 -5.5011491475346252e-01 +5.3757522567382792e-03
-1.5000000000000002e-01 +8.5269993796101513e+00 +0.0000000000000000e+00 -1.4999999999828939e-01 -2.9028356748793158e-02 -5.5011743879054276e-01 +5.3758944905200915e-03
-2.0000000000000001e-01 +8.5269988970832191e+00 +0.0000000000000000e+00 -1.9999999999594523e-01 -2.9028469360294847e-02 -5.5012034702934920e-01 +5.3760430846732585e-03
-2.5000000000000000e-01 +8.5269982766899943e+00 +0.0000000000000000e+00 -2.4999999999208050e-01 -2.9028603876661199e-02 -5.5012363869204972e-01 +5.3761980117159021e-03
-2.9999999999999999e-01 +8.5269975184296527e+00 +0.0000000000000000e+00 -2.9999999998631510e-01 -2.9028760235810618e-02 -5.5012731300082873e-01 +5.3763592441666902e-03
-3.4999999999999998e-01 +8.5269966223012741e+00 +0.0000000000000000e+00 -3.4999999997826881e-01 -2.9028938375661919e-02 -5.5013136917788874e-01 +5.3765267545448237e-03
-3.9999999999999997e-01 +8.5269955883038406e+00 +0.0000000000000000e+00 -3.9999999996756147e-01 -2.9029138234134340e-02 -5.5013580644544979e-01 +5.3767005153700078e-03
-4.4999999999999996e-01 +8.5269944164362403e+00 +0.0000000000000000e+00 -4.4999999995381290e-01 -2.9029359749147689e-02 -5.5014062402574870e-01 +5.3768804991624480e-03
-4.9999999999999994e-01 +8.5269931066972671e+00 +0.0000000000000000e+00 -4.9999999993664290e-01 -2.9029602858622314e-02 -5.5014582114103960e-01 +5.3770666784428225e-03
-5.4999999999999993e-01 +8.5269916590856170e+00 +0.0000000000000000e+00 -5.4999999991567128e-01 -2.9029867500479326e-02 -5.5015139701359383e-01 +5.3772590257322754e-03
-5.9999999999999998e-01 +8.5269900735998938e+00 +0.0000000000000000e+00 -5.9999999989051778e-01 -2.9030153612640445e-02 -5.5015735086569884e-01 +5.3774575135523963e-03
-6.5000000000000002e-01 +8.5269883502386055e+00 +0.0000000000000000e+00 -6.4999999986080215e-01 -2.9030461133028294e-02 -5.5016368191966003e-01 +5.3776621144251994e-03
-7.0000000000000007e-01 +8.5269864890001639e+00 +0.0000000000000000e+00 -6.9999999982614425e-01 -2.9030789999566327e-02 -5.5017038939779850e-01 +5.3778728008731140e-03
-7.5000000000000011e-01 +8.5269844898828904e+00 +0.0000000000000000e+00 -7.4999999978616372e-01 -2.9031140150178963e-02 -5.5017747252245219e-01 +5.3780895454189626e-03
-8.0000000000000016e-01 +8.5269823528850086e+00 +0.0000000000000000e+00 -7.9999999974048031e-01 -2.9031511522791618e-02 -5.5018493051597539e-01 +5.3783123205859455e-03
-8.5000000000000020e-01 +8.5269800780046499e+00 +0.0000000000000000e+00 -8.4999999968871365e-01 -2.9031904055330789e-02 -5.5019276260073846e-01 +5.3785410988976250e-03
-9.0000000000000024e-01 +8.5269776652398512e+00 +0.0000000000000000e+00 -8.9999999963048349e-01 -2.9032317685724156e-02 -5.5020096799912854e-01 +5.3787758528779147e-03
-9.5000000000000029e-01 +8.5269751145885557e+00 +0.0000000000000000e+00 -9.4999999956540937e-01 -2.9032752351900597e-02 -5.5020954593354809e-01 +5.3790165550510489e-03
-1.0000000000000002e+00 +8.5269724260486139e+00 +0.0000000000000000e+00 -9.9999999949311102e-01 -2.9033207991790277e-02 -5.5021849562641578e-01 +5.3792631779415777e-03
-1.0500000000000003e+00 +8.5269695996177841e+00 +0.0000000000000000e+00 -1.0499999994132081e+00 -2.9033684543324743e-02 -5.5022781630016593e-01 +5.3795156940743463e-03
-1.1000000000000003e+00 +8.5269666352937286e+00 +0.0000000000000000e+00 -1.0999999993253200e+00 -2.9034181944436983e-02 -5.5023750717724884e-01 +5.3797740759744779e-03
-1.1500000000000004e+00 +8.5269635330740208e+00 +0.0000000000000000e+00 -1.1499999992290664e+00 -2.9034700133061423e-02 -5.5024756748012971e-01 +5.3800382961673608e-03
-1.2000000000000004e+00 +8.5269602929561383e+00 +0.0000000000000000e+00 -1.1999999991240669e+00 -2.9035239047134176e-02 -5.5025799643128970e-01 +5.3803083271786230e-03
-1.2500000000000004e+00 +8.5269569149374682e+00 +0.0000000000000000e+00 -1.2499999990099409e+00 -2.9035798624592872e-02 -5.5026879325322531e-01 +5.3805841415341289e-03
-1.3000000000000005e+00 +8.5269533990153032e+00 +0.0000000000000000e+00 -1.2999999988863080e+00 -2.9036378803376939e-02 -5.5027995716844824e-01 +5.3808657117599534e-03
-1.3500000000000005e+00 +8.5269497451868475e+00 +0.0000000000000000e+00 -1.3499999987527875e+00 -2.9036979521427548e-02 -5.5029148739948408e-01 +5.3811530103823630e-03
-1.4000000000000006e+00 +8.5269459534492107e+00 +0.0000000000000000e+00 -1.3999999986089990e+00 -2.9037600716687716e-02 -5.5030338316887506e-01 +5.3814460099278066e-03
-1.4500000000000006e+00 +8.5269420237994105e+00 +0.0000000000000000e+00 -1.4499999984545617e+00 -2.9038242327102406e-02 -5.5031564369917718e-01 +5.3817446829228961e-03
-1.5000000000000007e+00 +8.5269379562343754e+00 +0.0000000000000000e+00 -1.4999999982890950e+00 -2.9038904290618544e-02 -5.5032826821296132e-01 +5.3820490018943890e-03
-1.5500000000000007e+00 +8.5269337507509420e+00 +0.0000000000000000e+00 -1.5499999981122183e+00 -2.9039586545185139e-02 -5.5034125593281291e-01 +5.3823589393691704e-03
-1.6000000000000008e+00 +8.5269294073458557e+00 +0.0000000000000000e+00 -1.5999999979235509e+00 -2.9040289028753309e-02 -5.5035460608133235e-01 +5.3826744678742442e-03
-1.6500000000000008e+00 +8.5269249260157700e+00 +0.0000000000000000e+00 -1.6499999977227118e+00 -2.9041011679276387e-02 -5.5036831788113316e-01 +5.3829955599367036e-03
-1.7000000000000008e+00 +8.5269203067572494e+00 +0.0000000000000000e+00 -1.6999999975093205e+00 -2.9041754434709958e-02 -5.5038239055484395e-01 +5.3833221880837208e-03
-1.7500000000000009e+00 +8.5269155495667661e+00 +0.0000000000000000e+00 -1.7499999972829960e+00 -2.9042517233011947e-02 -5.5039682332510742e-01 +5.3836543248425399e-03
-1.8000000000000009e+00 +8.5269106544407034e+00 +0.0000000000000000e+00 -1.7999999970433576e+00 -2.9043300012142725e-02 -5.5041161541458017e-01 +5.3839919427404433e-03
-1.8500000000000010e+00 +8.5269056213753540e+00 +0.0000000000000000e+00 -1.8499999967900242e+00 -2.9044102710065096e-02 -5.5042676604593244e-01 +5.3843350143047489e-03
-1.9000000000000010e+00 +8.5269004503669219e+00 +0.0000000000000000e+00 -1.8999999965226151e+00 -2.9044925264744406e-02 -5.5044227444184779e-01 +5.3846835120627797e-03
-1.9500000000000011e+00 +8.5268951414115204e+00 +0.0000000000000000e+00 -1.9499999962407490e+00 -2.9045767614148663e-02 -5.5045813982502423e-01 +5.3850374085418649e-03
-2.0000000000000009e+00 +8.5268896945051740e+00 +0.0000000000000000e+00 -1.9999999959440453e+00 -2.9046629696248528e-02 -5.5047436141817285e-01 +5.3853966762693051e-03
-2.0500000000000007e+00 +8.5268841096438166e+00 +0.0000000000000000e+00 -2.0499999956321227e+00 -2.9047511421480359e-02 -5.5049093822956829e-01 +5.3857612816800649e-03
-2.1000000000000005e+00 +8.5268783868232951e+00 +0.0000000000000000e+00 -2.0999999953046000e+00 -2.9048412590134399e-02 -5.5050786840970123e-01 +5.3861311668398550e-03
-2.1500000000000004e+00 +8.5268725260393659e+00 +0.0000000000000000e+00 -2.1499999949610964e+00 -2.9049332974964742e-02 -5.5052514989462542e-01 +5.3865062677220478e-03
-2.2000000000000002e+00 +8.5268665272876980e+00 +0.0000000000000000e+00 -2.1999999946012303e+00 -2.9050272348726227e-02 -5.5054278062040851e-01 +5.3868865202999876e-03
-2.2500000000000000e+00 +8.5268603905638720e+00 +0.0000000000000000e+00 -2.2499999942246207e+00 -2.9051230484174372e-02 -5.5056075852313091e-01 +5.3872718605469704e-03
-2.2999999999999998e+00 +8.5268541158633848e+00 +0.0000000000000000e+00 -2.2999999938308862e+00 -2.9052207154065295e-02 -5.5057908153888546e-01 +5.3876622244362288e-03
-2.3499999999999996e+00 +8.5268477031816428e+00 +0.0000000000000000e+00 -2.3499999934196456e+00 -2.9053202131155694e-02 -5.5059774760377889e-01 +5.3880575479409269e-03
-2.3999999999999995e+00 +8.5268411525139687e+00 +0.0000000000000000e+00 -2.3999999929905171e+00 -2.9054215188202781e-02 -5.5061675465393034e-01 +5.3884577670341317e-03
-2.4499999999999993e+00 +8.5268344638555984e+00 +0.0000000000000000e+00 -2.4499999925431197e+00 -2.9055246097964213e-02 -5.5063610062547119e-01 +5.3888628176888163e-03
-2.4999999999999991e+00 +8.5268276372016860e+00 +0.0000000000000000e+00 -2.4999999920770719e+00 -2.9056294633198049e-02 -5.5065578345454580e-01 +5.3892726358778318e-03
-2.5499999999999989e+00 +8.5268206725472968e+00 +0.0000000000000000e+00 -2.5499999915919918e+00 -2.9057360566662718e-02 -5.5067580107731118e-01 +5.3896871575739042e-03
-2.5999999999999988e+00 +8.5268135698874143e+00 +0.0000000000000000e+00 -2.5999999910874982e+00 -2.9058443671116894e-02 -5.5069615142993544e-01 +5.3901063187496122e-03
-2.6499999999999986e+00 +8.5268063292169405e+00 +0.0000000000000000e+00 -2.6499999905632095e+00 -2.9059543719319555e-02 -5.5071683244860037e-01 +5.3905300553773851e-03
-2.6999999999999984e+00 +8.5267989505306900e+00 +0.0000000000000000e+00 -2.6999999900187435e+00 -2.9060660484029797e-02 -5.5073784206949938e-01 +5.3909583034294686e-03
-2.7499999999999982e+00 +8.5267914338233997e+00 +0.0000000000000000e+00 -2.7499999894537188e+00 -2.9061793738006891e-02 -5.5075917822883713e-01 +5.3913909988779424e-03
-2.7999999999999980e+00 +8.5267837790897207e+00 +0.0000000000000000e+00 -2.7999999888677536e+00 -2.9062943254010151e-02 -5.5078083886283113e-01 +5.3918280776946697e-03
-2.8499999999999979e+00 +8.5267759863242265e+00 +0.0000000000000000e+00 -2.8499999882604659e+00 -2.9064108804798924e-02 -5.5080282190771046e-01 +5.3922694758513131e-03
-2.8999999999999977e+00 +8.5267680555214067e+00 +0.0000000000000000e+00 -2.8999999876314737e+00 -2.9065290163132539e-02 -5.5082512529971539e-01 +5.3927151293193115e-03
-2.9499999999999975e+00 +8.5267599866756729e+00 +0.0000000000000000e+00 -2.9499999869803952e+00 -2.9066487101770205e-02 -5.5084774697509820e-01 +5.3931649740698541e-03
-2.9999999999999973e+00 +8.5267517797813550e+00 +0.0000000000000000e+00 -2.9999999863068481e+00 -2.9067699393470994e-02 -5.5087068487012225e-01 +5.3936189460738913e-03
-3.0499999999999972e+00 +8.5267434348327065e+00 +0.0000000000000000e+00 -3.0499999856104503e+00 -2.9068926810993774e-02 -5.5089393692106237e-01 +5.3940769813020911e-03
-3.0999999999999970e+00 +8.5267349518238991e+00 +0.0000000000000000e+00 -3.0999999848908200e+00 -2.9070169127097201e-02 -5.5091750106420501e-01 +5.3945390157248575e-03
-3.1499999999999968e+00 +8.5267263307490264e+00 +0.0000000000000000e+00 -3.1499999841475748e+00 -2.9071426114539570e-02 -5.5094137523584696e-01 +5.3950049853122885e-03
-3.1999999999999966e+00 +8.5267175716021075e+00 +0.0000000000000000e+00 -3.1999999833803323e+00 -2.9072697546078816e-02 -5.5096555737229658e-01 +5.3954748260341828e-03
-3.2499999999999964e+00 +8.5267086743770797e+00 +0.0000000000000000e+00 -3.2499999825887103e+00 -2.9073983194472516e-02 -5.5099004540987273e-01 +5.3959484738600131e-03
-3.2999999999999963e+00 +8.5266996390678074e+00 +0.0000000000000000e+00 -3.2999999817723262e+00 -2.9075282832477688e-02 -5.5101483728490530e-01 +5.3964258647589171e-03
-3.3499999999999961e+00 +8.5266904656680786e+00 +0.0000000000000000e+00 -3.3499999809307979e+00 -2.9076596232850901e-02 -5.5103993093373482e-01 +5.3969069346996856e-03
-3.3999999999999959e+00 +8.5266811541716034e+00 +0.0000000000000000e+00 -3.3999999800637424e+00 -2.9077923168348074e-02 -5.5106532429271238e-01 +5.3973916196507496e-03
-3.4499999999999957e+00 +8.5266717045720188e+00 +0.0000000000000000e+00 -3.4499999791707769e+00 -2.9079263411724558e-02 -5.5109101529819926e-01 +5.3978798555801618e-03
-3.4999999999999956e+00 +8.5266621168628856e+00 +0.0000000000000000e+00 -3.4999999782515192e+00 -2.9080616735734945e-02 -5.5111700188656720e-01 +5.3983715784555811e-03
-3.5499999999999954e+00 +8.5266523910376915e+00 +0.0000000000000000e+00 -3.5499999773055864e+00 -2.9081982913133145e-02 -5.5114328199419838e-01 +5.3988667242442709e-03
-3.5999999999999952e+00 +8.5266425270898516e+00 +0.0000000000000000e+00 -3.5999999763325956e+00 -2.9083361716672217e-02 -5.5116985355748460e-01 +5.3993652289130705e-03
-3.6499999999999950e+00 +8.5266325250127064e+00 +0.0000000000000000e+00 -3.6499999753321641e+00 -2.9084752919104399e-02 -5.5119671451282837e-01 +5.3998670284283934e-03
-3.6999999999999948e+00 +8.5266223847995235e+00 +0.0000000000000000e+00 -3.6999999743039091e+00 -2.9086156293181006e-02 -5.5122386279664148e-01 +5.4003720587562061e-03
-3.7499999999999947e+00 +8.5266121064435012e+00 +0.0000000000000000e+00 -3.7499999732474474e+00 -2.9087571611652367e-02 -5.5125129634534509e-01 +5.4008802558620150e-03
-3.7999999999999945e+00 +8.5266016899377632e+00 +0.0000000000000000e+00 -3.7999999721623956e+00 -2.9088998647267841e-02 -5.5127901309537153e-01 +5.4013915557108595e-03
-3.8499999999999943e+00 +8.5265911352753623e+00 +0.0000000000000000e+00 -3.8499999710483706e+00 -2.9090437172775676e-02 -5.5130701098316115e-01 +5.4019058942672924e-03
-3.8999999999999941e+00 +8.5265804424492835e+00 +0.0000000000000000e+00 -3.8999999699049894e+00 -2.9091886960923019e-02 -5.5133528794516484e-01 +5.4024232074953672e-03
-3.9499999999999940e+00 +8.5265696114524410e+00 +0.0000000000000000e+00 -3.9499999687318685e+00 -2.9093347784455784e-02 -5.5136384191784171e-01 +5.4029434313586158e-03
-3.9999999999999938e+00 +8.5265586422776778e+00 +0.0000000000000000e+00 -3.9999999675286246e+00 -2.9094819416118710e-02 -5.5139267083766119e-01 +5.4034665018200569e-03
-4.0499999999999936e+00 +8.5265475349177695e+00 +0.0000000000000000e+00 -4.0499999662948740e+00 -2.9096301675871867e-02 -5.5142177250725499e-01 +5.4039923654859885e-03
-4.0999999999999934e+00 +8.5265362893654224e+00 +0.0000000000000000e+00 -4.0999999650302339e+00 -2.9097794572541552e-02 -5.5145114419387475e-01 +5.4045210115378191e-03
-4.1499999999999932e+00 +8.5265249056132770e+00 +0.0000000000000000e+00 -4.1499999637343201e+00 -2.9099298162171404e-02 -5.5148078303092929e-01 +5.4050524398010086e-03
-4.1999999999999931e+00 +8.5265133836539047e+00 +0.0000000000000000e+00 -4.1999999624067490e+00 -2.9100812500805557e-02 -5.5151068615182663e-01 +5.4055866501012736e-03
-4.2499999999999929e+00 +8.5265017234798126e+00 +0.0000000000000000e+00 -4.2499999610471368e+00 -2.9102337644488784e-02 -5.5154085068997738e-01 +5.4061236422646014e-03
-4.2999999999999927e+00 +8.5264899250834407e+00 +0.0000000000000000e+00 -4.2999999596550991e+00 -2.9103873649266473e-02 -5.5157127377879145e-01 +5.4066634161172630e-03
-4.3499999999999925e+00 +8.5264779884571649e+00 +0.0000000000000000e+00 -4.3499999582302529e+00 -2.9105420571184575e-02 -5.5160195255168032e-01 +5.4072059714858223e-03
-4.3999999999999924e+00 +8.5264659135932970e+00 +0.0000000000000000e+00 -4.3999999567722137e+00 -2.9106978466289686e-02 -5.5163288414205414e-01 +5.4077513081971403e-03
-4.4499999999999922e+00 +8.5264537004840850e+00 +0.0000000000000000e+00 -4.4499999552805978e+00 -2.9108547390628976e-02 -5.5166406568332405e-01 +5.4082994260783984e-03
-4.4999999999999920e+00 +8.5264413491217148e+00 +0.0000000000000000e+00 -4.4999999537550206e+00 -2.9110127400250266e-02 -5.5169549430889919e-01 +5.4088503249571009e-03
-4.5499999999999918e+00 +8.5264288594983100e+00 +0.0000000000000000e+00 -4.5499999521950976e+00 -2.9111718551202002e-02 -5.5172716715218806e-01 +5.4094040046610845e-03
-4.5999999999999917e+00 +8.5264162316059338e+00 +0.0000000000000000e+00 -4.5999999506004450e+00 -2.9113320899533238e-02 -5.5175908134659879e-01 +5.4099604650185429e-03
-4.6499999999999915e+00 +8.5264034654365872e+00 +0.0000000000000000e+00 -4.6499999489706783e+00 -2.9114934501293682e-02 -5.5179123402553620e-01 +5.4105197058580143e-03
-4.6999999999999913e+00 +8.5263905609822128e+00 +0.0000000000000000e+00 -4.6999999473054128e+00 -2.9116559412533684e-02 -5.5182362232240412e-01 +5.4110817270084230e-03
-4.7499999999999911e+00 +8.5263775182346944e+00 +0.0000000000000000e+00 -4.7499999456042641e+00 -2.9118195689304235e-02 -5.5185624337060335e-01 +5.4116465282990573e-03
-4.7999999999999909e+00 +8.5263643371858571e+00 +0.0000000000000000e+00 -4.7999999438668475e+00 -2.9119843387656962e-02 -5.5188909430353295e-01 +5.4122141095596056e-03
-4.8499999999999908e+00 +8.5263510178274675e+00 +0.0000000000000000e+00 -4.8499999420927784e+00 -2.9121502563644167e-02 -5.5192217225458740e-01 +5.4127844706201560e-03
-4.8999999999999906e+00 +8.5263375601512372e+00 +0.0000000000000000e+00 -4.8999999402816723e+00 -2.9123173273318828e-02 -5.5195547435715964e-01 +5.4133576113112132e-03
-4.9499999999999904e+00 +8.5263239641488191e+00 +0.0000000000000000e+00 -4.9499999384331437e+00 -2.9124855572734535e-02 -5.5198899774463739e-01 +5.4139335314637013e-03
-4.9999999999999902e+00 +8.5263102298118127e+00 +0.0000000000000000e+00 -4.9999999365468080e+00 -2.9126549517945625e-02 -5.5202273955040493e-01 +5.4145122309089810e-03
-5.0499999999999901e+00 +8.5262963571317627e+00 +0.0000000000000000e+00 -5.0499999346222797e+00 -2.9128255165007076e-02 -5.5205669690784220e-01 +5.4150937094788647e-03
-5.0999999999999899e+00 +8.5262823461001584e+00 +0.0000000000000000e+00 -5.0999999326591734e+00 -2.9129972569974519e-02 -5.5209086695032461e-01 +5.4156779670056152e-03
-5.1499999999999897e+00 +8.5262681967084362e+00 +0.0000000000000000e+00 -5.1499999306571045e+00 -2.9131701788904327e-02 -5.5212524681122188e-01 +5.4162650033219651e-03
-5.1999999999999895e+00 +8.5262539089479823e+00 +0.0000000000000000e+00 -5.1999999286156875e+00 -2.9133442877853532e-02 -5.5215983362389887e-01 +5.4168548182611321e-03
-5.2499999999999893e+00 +8.5262394828101264e+00 +0.0000000000000000e+00 -5.2499999265345370e+00 -2.9135195892879884e-02 -5.5219462452171475e-01 +5.4174474116568143e-03
-5.2999999999999892e+00 +8.5262249182861520e+00 +0.0000000000000000e+00 -5.2999999244132674e+00 -2.9136960890041804e-02 -5.5222961663802195e-01 +5.4180427833432155e-03
-5.3499999999999890e+00 +8.5262102153672874e+00 +0.0000000000000000e+00 -5.3499999222514933e+00 -2.9138737925398495e-02 -5.5226480710616788e-01 +5.4186409331550642e-03
-5.3999999999999888e+00 +8.5261953740447165e+00 +0.0000000000000000e+00 -5.3999999200488285e+00 -2.9140527055009784e-02 -5.5230019305949152e-01 +5.4192418609275862e-03
-5.4499999999999886e+00 +8.5261803943095682e+00 +0.0000000000000000e+00 -5.4499999178048881e+00 -2.9142328334936282e-02 -5.5233577163132674e-01 +5.4198455664965679e-03
-5.4999999999999885e+00 +8.5261652761529287e+00 +0.0000000000000000e+00 -5.4999999155192851e+00 -2.9144141821239290e-02 -5.5237153995499777e-01 +5.4204520496983271e-03
-5.5499999999999883e+00 +8.5261500195658328e+00 +0.0000000000000000e+00 -5.5499999131916349e+00 -2.9145967569980873e-02 -5.5240749516382348e-01 +5.4210613103697399e-03
-5.5999999999999881e+00 +8.5261346245392708e+00 +0.0000000000000000e+00 -5.5999999108215501e+00 -2.9147805637223797e-02 -5.5244363439111277e-01 +5.4216733483482488e-03
-5.6499999999999879e+00 +8.5261190910641869e+00 +0.0000000000000000e+00 -5.6499999084086454e+00 -2.9149656079031569e-02 -5.5247995477016698e-01 +5.4222881634718809e-03
-5.6999999999999877e+00 +8.5261034191314771e+00 +0.0000000000000000e+00 -5.6999999059525344e+00 -2.9151518951468485e-02 -5.5251645343427902e-01 +5.4229057555792463e-03
-5.7499999999999876e+00 +8.5260876087319950e+00 +0.0000000000000000e+00 -5.7499999034528306e+00 -2.9153394310599538e-02 -5.5255312751673213e-01 +5.4235261245095586e-03
-5.7999999999999874e+00 +8.5260716598565516e+00 +0.0000000000000000e+00 -5.7999999009091487e+00 -2.9155282212490519e-02 -5.5258997415080080e-01 +5.4241492701026421e-03
-5.8499999999999872e+00 +8.5260555724959115e+00 +0.0000000000000000e+00 -5.8499998983211006e+00 -2.9157182713207951e-02 -5.5262699046974884e-01 +5.4247751921989440e-03
