# trajectory
# s[mm] rx[mm] ry[mm] rz[mm] px[rad] py[rad] pz[rad]
0.0000000000000000e+00 +8.2850000000000001e+00 +0.0000000000000000e+00 +0.0000000000000000e+00 +0.0000000000000000e+00 +0.0000000000000000e+00 +1.0000000000000000e+00
5.0000000000000003e-02 +8.2849999310817637e+00 +0.0000000000000000e+00 +4.9999999999936671e-02 -2.7567290299162499e-06 +0.0000000000000000e+00 +9.9999999999620026e-01
1.0000000000000001e-01 +8.2849997243271201e+00 +0.0000000000000000e+00 +9.9999999999493369e-02 -5.5134566257194777e-06 +0.0000000000000000e+00 +9.9999999998480094e-01
1.5000000000000002e-01 +8.2849993797360906e+00 +0.0000000000000000e+00 +1.4999999999829011e-01 -8.2701848075350949e-06 +0.0000000000000000e+00 +9.9999999996580202e-01
2.0000000000000001e-01 +8.2849988973085953e+00 +0.0000000000000000e+00 +1.9999999999594692e-01 -1.1026915590598075e-05 +0.0000000000000000e+00 +9.9999999993920352e-01
2.5000000000000000e-01 +8.2849982770444548e+00 +0.0000000000000000e+00 +2.4999999999208380e-01 -1.3783650985253050e-05 +0.0000000000000000e+00 +9.9999999990500543e-01
2.9999999999999999e-01 +8.2849975189433867e+00 +0.0000000000000000e+00 +2.9999999998632082e-01 -1.6540392996954404e-05 +0.0000000000000000e+00 +9.9999999986320764e-01
3.4999999999999998e-01 +8.2849966230050107e+00 +0.0000000000000000e+00 +3.4999999997827791e-01 -1.9297143626266355e-05 +0.0000000000000000e+00 +9.9999999981381005e-01
3.9999999999999997e-01 +8.2849955892288474e+00 +0.0000000000000000e+00 +3.9999999996757513e-01 -2.2053904868863067e-05 +0.0000000000000000e+00 +9.9999999975681253e-01
4.4999999999999996e-01 +8.2849944176143140e+00 +0.0000000000000000e+00 +4.4999999995383250e-01 -2.4810678715528717e-05 +0.0000000000000000e+00 +9.9999999969221498e-01
4.9999999999999994e-01 +8.2849931081607320e+00 +0.0000000000000000e+00 +4.9999999993666999e-01 -2.7567467152157603e-05 +0.0000000000000000e+00 +9.9999999962001729e-01
5.4999999999999993e-01 +8.2849916608673215e+00 +0.0000000000000000e+00 +5.4999999991570758e-01 -3.0324272159754229e-05 +0.0000000000000000e+00 +9.9999999954021912e-01
5.9999999999999998e-01 +8.2849900757332069e+00 +0.0000000000000000e+00 +5.9999999989056518e-01 -3.3081095714433386e-05 +0.0000000000000000e+00 +9.9999999945282037e-01
6.5000000000000002e-01 +8.2849883527574093e+00 +0.0000000000000000e+00 +6.4999999986086288e-01 -3.5837939787420264e-05 +0.0000000000000000e+00 +9.9999999935782080e-01
7.0000000000000007e-01 +8.2849864919388541e+00 +0.0000000000000000e+00 +6.9999999982622052e-01 -3.8594806345050508e-05 +0.0000000000000000e+00 +9.9999999925522021e-01
7.5000000000000011e-01 +8.2849844932763670e+00 +0.0000000000000000e+00 +7.4999999978625820e-01 -4.1351697348770327e-05 +0.0000000000000000e+00 +9.9999999914501836e-01
8.0000000000000016e-01 +8.2849823567686780e+00 +0.0000000000000000e+00 +7.9999999974059566e-01 -4.4108614755136586e-05 +0.0000000000000000e+00 +9.9999999902721481e-01
8.5000000000000020e-01 +8.2849800824144193e+00 +0.0000000000000000e+00 +8.4999999968885298e-01 -4.6865560515816879e-05 +0.0000000000000000e+00 +9.9999999890180935e-01
9.0000000000000024e-01 +8.2849776702121218e+00 +0.0000000000000000e+00 +8.9999999963064992e-01 -4.9622536577589612e-05 +0.0000000000000000e+00 +9.9999999876880163e-01
9.5000000000000029e-01 +8.2849751201602242e+00 +0.0000000000000000e+00 +9.4999999956560643e-01 -5.2379544882344100e-05 +0.0000000000000000e+00 +9.9999999862819133e-01
1.0000000000000002e+00 +8.2849724322570637e+00 +0.0000000000000000e+00 +9.9999999949334240e-01 -5.5136587367080655e-05 +0.0000000000000000e+00 +9.9999999847997811e-01
1.0500000000000003e+00 +8.2849696065008853e+00 +0.0000000000000000e+00 +1.0499999994134777e+00 -5.7893665963910655e-05 +0.0000000000000000e+00 +9.9999999832416142e-01
1.1000000000000003e+00 +8.2849666428898345e+00 +0.0000000000000000e+00 +1.0999999993256320e+00 -6.0650782600056642e-05 +0.0000000000000000e+00 +9.9999999816074103e-01
1.1500000000000004e+00 +8.2849635414219609e+00 +0.0000000000000000e+00 +1.1499999992294252e+00 -6.3407939197852395e-05 +0.0000000000000000e+00 +9.9999999798971639e-01
1.2000000000000004e+00 +8.2849603020952181e+00 +0.0000000000000000e+00 +1.1999999991244770e+00 -6.6165137674743026e-05 +0.0000000000000000e+00 +9.9999999781108706e-01
1.2500000000000004e+00 +8.2849569249074637e+00 +0.0000000000000000e+00 +1.2499999990104071e+00 -6.8922379943285033e-05 +0.0000000000000000e+00 +9.9999999762485259e-01
1.3000000000000005e+00 +8.2849534098564614e+00 +0.0000000000000000e+00 +1.2999999988868354e+00 -7.1679667911146437e-05 +0.0000000000000000e+00 +9.9999999743101242e-01
1.3500000000000005e+00 +8.2849497569398789e+00 +0.0000000000000000e+00 +1.3499999987533815e+00 -7.4437003481106793e-05 +0.0000000000000000e+00 +9.9999999722956612e-01
1.4000000000000006e+00 +8.2849459661552878e+00 +0.0000000000000000e+00 +1.3999999986096652e+00 -7.7194388551057329e-05 +0.0000000000000000e+00 +9.9999999702051301e-01
1.4500000000000006e+00 +8.2849420375001674e+00 +0.0000000000000000e+00 +1.4499999984553060e+00 -7.9951825014000998e-05 +0.0000000000000000e+00 +9.9999999680385265e-01
1.5000000000000007e+00 +8.2849379709718995e+00 +0.0000000000000000e+00 +1.4999999982899237e+00 -8.2709314758052573e-05 +0.0000000000000000e+00 +9.9999999657958449e-01
1.5500000000000007e+00 +8.2849337665677734e+00 +0.0000000000000000e+00 +1.5499999981131376e+00 -8.5466859666438687e-05 +0.0000000000000000e+00 +9.9999999634770786e-01
1.6000000000000008e+00 +8.2849294242849822e+00 +0.0000000000000000e+00 +1.5999999979245676e+00 -8.8224461617497971e-05 +0.0000000000000000e+00 +9.9999999610822210e-01
1.6500000000000008e+00 +8.2849249441206290e+00 +0.0000000000000000e+00 +1.6499999977238331e+00 -9.0982122484681080e-05 +0.0000000000000000e+00 +9.9999999586112664e-01
1.7000000000000008e+00 +8.2849203260717204e+00 +0.0000000000000000e+00 +1.6999999975105535e+00 -9.3739844136550798e-05 +0.0000000000000000e+00 +9.9999999560642072e-01
1.7500000000000009e+00 +8.2849155701351709e+00 +0.0000000000000000e+00 +1.7499999972843483e+00 -9.6497628436782113e-05 +0.0000000000000000e+00 +9.9999999534410378e-01
1.8000000000000009e+00 +8.2849106763078009e+00 +0.0000000000000000e+00 +1.7999999970448370e+00 -9.9255477244162291e-05 +0.0000000000000000e+00 +9.9999999507417503e-01
1.8500000000000010e+00 +8.2849056445863400e+00 +0.0000000000000000e+00 +1.8499999967916390e+00 -1.0201339241259093e-04 +0.0000000000000000e+00 +9.9999999479663382e-01
1.9000000000000010e+00 +8.2849004749674222e+00 +0.0000000000000000e+00 +1.8999999965243735e+00 -1.0477137579108009e-04 +0.0000000000000000e+00 +9.9999999451147936e-01
1.9500000000000011e+00 +8.2848951674475924e+00 +0.0000000000000000e+00 +1.9499999962426600e+00 -1.0752942922375428e-04 +0.0000000000000000e+00 +9.9999999421871089e-01
2.0000000000000009e+00 +8.2848897220233013e+00 +0.0000000000000000e+00 +1.9999999959461177e+00 -1.1028755454985064e-04 +0.0000000000000000e+00 +9.9999999391832761e-01
2.0500000000000007e+00 +8.2848841386909093e+00 +0.0000000000000000e+00 +2.0499999956343657e+00 -1.1304575360347217e-04 +0.0000000000000000e+00 +9.9999999361032876e-01
2.1000000000000005e+00 +8.2848784174466825e+00 +0.0000000000000000e+00 +2.0999999953070234e+00 -1.1580402821087362e-04 +0.0000000000000000e+00 +9.9999999329471345e-01
2.1500000000000004e+00 +8.2848725582867981e+00 +0.0000000000000000e+00 +2.1499999949637099e+00 -1.1856238018774735e-04 +0.0000000000000000e+00 +9.9999999297148090e-01
2.2000000000000002e+00 +8.2848665612073429e+00 +0.0000000000000000e+00 +2.1999999946040445e+00 -1.2132081133897660e-04 +0.0000000000000000e+00 +9.9999999264063022e-01
2.2500000000000000e+00 +8.2848604262043146e+00 +0.0000000000000000e+00 +2.2499999942276458e+00 -1.2407932345863561e-04 +0.0000000000000000e+00 +9.9999999230216063e-01
2.2999999999999998e+00 +8.2848541532736188e+00 +0.0000000000000000e+00 +2.2999999938341333e+00 -1.2683791832998961e-04 +0.0000000000000000e+00 +9.9999999195607114e-01
2.3499999999999996e+00 +8.2848477424110740e+00 +0.0000000000000000e+00 +2.3499999934231259e+00 -1.2959659772549496e-04 +0.0000000000000000e+00 +9.9999999160236086e-01
2.3999999999999995e+00 +8.2848411936124098e+00 +0.0000000000000000e+00 +2.3999999929942426e+00 -1.3235536340679919e-04 +0.0000000000000000e+00 +9.9999999124102879e-01
2.4499999999999993e+00 +8.2848345068732669e+00 +0.0000000000000000e+00 +2.4499999925471019e+00 -1.3511421712474105e-04 +0.0000000000000000e+00 +9.9999999087207403e-01
2.4999999999999991e+00 +8.2848276821892011e+00 +0.0000000000000000e+00 +2.4999999920813227e+00 -1.3787316061935058e-04 +0.0000000000000000e+00 +9.9999999049549571e-01
2.5499999999999989e+00 +8.2848207195556807e+00 +0.0000000000000000e+00 +2.5499999915965241e+00 -1.4063219561984917e-04 +0.0000000000000000e+00 +9.9999999011129270e-01
2.5999999999999988e+00 +8.2848136189680854e+00 +0.0000000000000000e+00 +2.5999999910923250e+00 -1.4339132384464962e-04 +0.0000000000000000e+00 +9.9999998971946402e-01
2.6499999999999986e+00 +8.2848063804217134e+00 +0.0000000000000000e+00 +2.6499999905683436e+00 -1.4615054700135619e-04 +0.0000000000000000e+00 +9.9999998932000866e-01
2.6999999999999984e+00 +8.2847990039117754e+00 +0.0000000000000000e+00 +2.6999999900241987e+00 -1.4890986678676467e-04 +0.0000000000000000e+00 +9.9999998891292563e-01
2.7499999999999982e+00 +8.2847914894333972e+00 +0.0000000000000000e+00 +2.7499999894595089e+00 -1.5166928488686247e-04 +0.0000000000000000e+00 +9.9999998849821381e-01
2.7999999999999980e+00 +8.2847838369816209e+00 +0.0000000000000000e+00 +2.7999999888738927e+00 -1.5442880297682860e-04 +0.0000000000000000e+00 +9.9999998807587220e-01
2.8499999999999979e+00 +8.2847760465514053e+00 +0.0000000000000000e+00 +2.8499999882669687e+00 -1.5718842272103382e-04 +0.0000000000000000e+00 +9.9999998764589970e-01
2.8999999999999977e+00 +8.2847681181376274e+00 +0.0000000000000000e+00 +2.8999999876383553e+00 -1.5994814577304059e-04 +0.0000000000000000e+00 +9.9999998720829519e-01
2.9499999999999975e+00 +8.2847600517350788e+00 +0.0000000000000000e+00 +2.9499999869876707e+00 -1.6270797377560320e-04 +0.0000000000000000e+00 +9.9999998676305746e-01
2.9999999999999973e+00 +8.2847518473384731e+00 +0.0000000000000000e+00 +2.9999999863145335e+00 -1.6546790836066781e-04 +0.0000000000000000e+00 +9.9999998631018550e-01
3.0499999999999972e+00 +8.2847435049424387e+00 +0.0000000000000000e+00 +3.0499999856185620e+00 -1.6822795114937247e-04 +0.0000000000000000e+00 +9.9999998584967809e-01
3.0999999999999970e+00 +8.2847350245415274e+00 +0.0000000000000000e+00 +3.0999999848993740e+00 -1.7098810375204725e-04 +0.0000000000000000e+00 +9.9999998538153401e-01
3.1499999999999968e+00 +8.2847264061302077e+00 +0.0000000000000000e+00 +3.1499999841565880e+00 -1.7374836776821420e-04 +0.0000000000000000e+00 +9.9999998490575215e-01
3.1999999999999966e+00 +8.2847176497028681e+00 +0.0000000000000000e+00 +3.1999999833898221e+00 -1.7650874478658746e-04 +0.0000000000000000e+00 +9.9999998442233129e-01
3.2499999999999964e+00 +8.2847087552538188e+00 +0.0000000000000000e+00 +3.2499999825986938e+00 -1.7926923638507327e-04 +0.0000000000000000e+00 +9.9999998393127021e-01
3.2999999999999963e+00 +8.2846997227772938e+00 +0.0000000000000000e+00 +3.2999999817828218e+00 -1.8202984413077003e-04 +0.0000000000000000e+00 +9.9999998343256769e-01
3.3499999999999961e+00 +8.2846905522674454e+00 +0.0000000000000000e+00 +3.3499999809418233e+00 -1.8479056957996837e-04 +0.0000000000000000e+00 +9.9999998292622250e-01
3.3999999999999959e+00 +8.2846812437183495e+00 +0.0000000000000000e+00 +3.3999999800753167e+00 -1.8755141427815119e-04 +0.0000000000000000e+00 +9.9999998241223331e-01
3.4499999999999957e+00 +8.2846717971240054e+00 +0.0000000000000000e+00 +3.4499999791829192e+00 -1.9031237975999371e-04 +0.0000000000000000e+00 +9.9999998189059891e-01
3.4999999999999956e+00 +8.2846622124783362e+00 +0.0000000000000000e+00 +3.4999999782642490e+00 -1.9307346754936344e-04 +0.0000000000000000e+00 +9.9999998136131796e-01
3.5499999999999954e+00 +8.2846524897751870e+00 +0.0000000000000000e+00 +3.5499999773189237e+00 -1.9583467915932034e-04 +0.0000000000000000e+00 +9.9999998082438912e-01
3.5999999999999952e+00 +8.2846426290083315e+00 +0.0000000000000000e+00 +3.5999999763465604e+00 -1.9859601609211684e-04 +0.0000000000000000e+00 +9.9999998027981107e-01
3.6499999999999950e+00 +8.2846326301714655e+00 +0.0000000000000000e+00 +3.6499999753467773e+00 -2.0135747983919777e-04 +0.0000000000000000e+00 +9.9999997972758248e-01
3.6999999999999948e+00 +8.2846224932582100e+00 +0.0000000000000000e+00 +3.6999999743191911e+00 -2.0411907188120054e-04 +0.0000000000000000e+00 +9.9999997916770200e-01
3.7499999999999947e+00 +8.2846122182621151e+00 +0.0000000000000000e+00 +3.7499999732634199e+00 -2.0688079368795515e-04 +0.0000000000000000e+00 +9.9999997860016832e-01
3.7999999999999945e+00 +8.2846018051766546e+00 +0.0000000000000000e+00 +3.7999999721790805e+00 -2.0964264671848414e-04 +0.0000000000000000e+00 +9.9999997802498009e-01
3.8499999999999943e+00 +8.2845912539952327e+00 +0.0000000000000000e+00 +3.8499999710657904e+00 -2.1240463242100277e-04 +0.0000000000000000e+00 +9.9999997744213576e-01
3.8999999999999941e+00 +8.2845805647111774e+00 +0.0000000000000000e+00 +3.8999999699231664e+00 -2.1516675223291892e-04 +0.0000000000000000e+00 +9.9999997685163400e-01
3.9499999999999940e+00 +8.2845697373177494e+00 +0.0000000000000000e+00 +3.9499999687508263e+00 -2.1792900758083324e-04 +0.0000000000000000e+00 +9.9999997625347348e-01
3.9999999999999938e+00 +8.2845587718081362e+00 +0.0000000000000000e+00 +3.9999999675483862e+00 -2.2069139988053910e-04 +0.0000000000000000e+00 +9.9999997564765264e-01
4.0499999999999936e+00 +8.2845476681754544e+00 +0.0000000000000000e+00 +4.0499999663154638e+00 -2.2345393053687824e-04 +0.0000000000000000e+00 +9.9999997503417004e-01
4.0999999999999934e+00 +8.2845364264127532e+00 +0.0000000000000000e+00 +4.0999999650516754e+00 -2.2621660094215149e-04 +0.0000000000000000e+00 +9.9999997441302424e-01
4.1499999999999932e+00 +8.2845250465130089e+00 +0.0000000000000000e+00 +4.1499999637566383e+00 -2.2897941247452961e-04 +0.0000000000000000e+00 +9.9999997378421379e-01
4.1999999999999931e+00 +8.2845135284691320e+00 +0.0000000000000000e+00 +4.1999999624299686e+00 -2.3174236649790874e-04 +0.0000000000000000e+00 +9.9999997314773725e-01
4.2499999999999929e+00 +8.2845018722739621e+00 +0.0000000000000000e+00 +4.2499999610712837e+00 -2.3450546436191053e-04 +0.0000000000000000e+00 +9.9999997250359307e-01
4.2999999999999927e+00 +8.2844900779202764e+00 +0.0000000000000000e+00 +4.2999999596801999e+00 -2.3726870740188198e-04 +0.0000000000000000e+00 +9.9999997185177969e-01
4.3499999999999925e+00 +8.2844781454007812e+00 +0.0000000000000000e+00 +4.3499999582563333e+00 -2.4003209693889560e-04 +0.0000000000000000e+00 +9.9999997119229567e-01
4.3999999999999924e+00 +8.2844660747081189e+00 +0.0000000000000000e+00 +4.3999999567993013e+00 -2.4279563427974930e-04 +0.0000000000000000e+00 +9.9999997052513945e-01
4.4499999999999922e+00 +8.2844538658348679e+00 +0.0000000000000000e+00 +4.4499999553087193e+00 -2.4555932071696640e-04 +0.0000000000000000e+00 +9.9999996985030948e-01
4.4999999999999920e+00 +8.2844415187735407e+00 +0.0000000000000000e+00 +4.4999999537842044e+00 -2.4832315752879562e-04 +0.0000000000000000e+00 +9.9999996916780420e-01
4.5499999999999918e+00 +8.2844290335165880e+00 +0.0000000000000000e+00 +4.5499999522253720e+00 -2.5108714597921108e-04 +0.0000000000000000e+00 +9.9999996847762207e-01
4.5999999999999917e+00 +8.2844164100563944e+00 +0.0000000000000000e+00 +4.5999999506318385e+00 -2.5385128731791233e-04 +0.0000000000000000e+00 +9.9999996777976141e-01
4.6499999999999915e+00 +8.2844036483852861e+00 +0.0000000000000000e+00 +4.6499999490032202e+00 -2.5661558278032435e-04 +0.0000000000000000e+00 +9.9999996707422079e-01
4.6999999999999913e+00 +8.2843907484955270e+00 +0.0000000000000000e+00 +4.6999999473391325e+00 -2.5938003358759736e-04 +0.0000000000000000e+00 +9.9999996636099853e-01
4.7499999999999911e+00 +8.2843777103793190e+00 +0.0000000000000000e+00 +4.7499999456391917e+00 -2.6214464094660700e-04 +0.0000000000000000e+00 +9.9999996564009308e-01
4.7999999999999909e+00 +8.2843645340288035e+00 +0.0000000000000000e+00 +4.7999999439030132e+00 -2.6490940604995426e-04 +0.0000000000000000e+00 +9.9999996491150278e-01
4.8499999999999908e+00 +8.2843512194360649e+00 +0.0000000000000000e+00 +4.8499999421302133e+00 -2.6767433007596539e-04 +0.0000000000000000e+00 +9.9999996417522596e-01
4.8999999999999906e+00 +8.2843377665931275e+00 +0.0000000000000000e+00 +4.8999999403204075e+00 -2.7043941418869200e-04 +0.0000000000000000e+00 +9.9999996343126107e-01
4.9499999999999904e+00 +8.2843241754919585e+00 +0.0000000000000000e+00 +4.9499999384732112e+00 -2.7320465953791087e-04 +0.0000000000000000e+00 +9.9999996267960645e-01
4.9999999999999902e+00 +8.2843104461244668e+00 +0.0000000000000000e+00 +4.9999999365882397e+00 -2.7597006725912411e-04 +0.0000000000000000e+00 +9.9999996192026042e-01
5.0499999999999901e+00 +8.2842965784825076e+00 +0.0000000000000000e+00 +5.0499999346651085e+00 -2.7873563847355897e-04 +0.0000000000000000e+00 +9.9999996115322132e-01
5.0999999999999899e+00 +8.2842825725578759e+00 +0.0000000000000000e+00 +5.0999999327034331e+00 -2.8150137428816798e-04 +0.0000000000000000e+00 +9.9999996037848748e-01
5.1499999999999897e+00 +8.2842684283423171e+00 +0.0000000000000000e+00 +5.1499999307028288e+00 -2.8426727579562873e-04 +0.0000000000000000e+00 +9.9999995959605725e-01
5.1999999999999895e+00 +8.2842541458275178e+00 +0.0000000000000000e+00 +5.1999999286629102e+00 -2.8703334407434401e-04 +0.0000000000000000e+00 +9.9999995880592896e-01
5.2499999999999893e+00 +8.2842397250051132e+00 +0.0000000000000000e+00 +5.2499999265832926e+00 -2.8979958018844165e-04 +0.0000000000000000e+00 +9.9999995800810093e-01
5.2999999999999892e+00 +8.2842251658666850e+00 +0.0000000000000000e+00 +5.2999999244635916e+00 -2.9256598518777452e-04 +0.0000000000000000e+00 +9.9999995720257140e-01
5.3499999999999890e+00 +8.2842104684037636e+00 +0.0000000000000000e+00 +5.3499999223034216e+00 -2.9533256010792059e-04 +0.0000000000000000e+00 +9.9999995638933870e-01
5.3999999999999888e+00 +8.2841956326078261e+00 +0.0000000000000000e+00 +5.3999999201023972e+00 -2.9809930597018270e-04 +0.0000000000000000e+00 +9.9999995556840104e-01
5.4499999999999886e+00 +8.2841806584703015e+00 +0.0000000000000000e+00 +5.4499999178601328e+00 -3.0086622378158869e-04 +0.0000000000000000e+00 +9.9999995473975678e-01
5.4999999999999885e+00 +8.2841655459825656e+00 +0.0000000000000000e+00 +5.4999999155762440e+00 -3.0363331453489128e-04 +0.0000000000000000e+00 +9.9999995390340424e-01
5.5499999999999883e+00 +8.2841502951359480e+00 +0.0000000000000000e+00 +5.5499999132503444e+00 -3.0640057920856806e-04 +0.0000000000000000e+00 +9.9999995305934153e-01
5.5999999999999881e+00 +8.2841349059217286e+00 +0.0000000000000000e+00 +5.5999999108820493e+00 -3.0916801876682139e-04 +0.0000000000000000e+00 +9.9999995220756699e-01
5.6499999999999879e+00 +8.2841193783311393e+00 +0.0000000000000000e+00 +5.6499999084709724e+00 -3.1193563415957842e-04 +0.0000000000000000e+00 +9.9999995134807895e-01
5.6999999999999877e+00 +8.2841037123553658e+00 +0.0000000000000000e+00 +5.6999999060167283e+00 -3.1470342632249093e-04 +0.0000000000000000e+00 +9.9999995048087553e-01
5.7499999999999876e+00 +8.2840879079855458e+00 +0.0000000000000000e+00 +5.7499999035189315e+00 -3.1747139617693544e-04 +0.0000000000000000e+00 +9.9999994960595506e-01
5.7999999999999874e+00 +8.2840719652127710e+00 +0.0000000000000000e+00 +5.7999999009771956e+00 -3.2023954463001307e-04 +0.0000000000000000e+00 +9.9999994872331577e-01
5.8499999999999872e+00 +8.2840558840280902e+00 +0.0000000000000000e+00 +5.8499998983911343e+00 -3.2300787257454939e-04 +0.0000000000000000e+00 +9.9999994783295587e-01
5.8999999999999870e+00 +8.2840396644225063e+00 +0.0000000000000000e+00 +5.8999998957603621e+00 -3.2577638088909452e-04 +0.0000000000000000e+00 +9.9999994693487348e-01
