# trajectory
# s[mm] rx[mm] ry[mm] rz[mm] px[rad] py[rad] pz[rad]
0.0000000000000000e+00 +8.5269999999999992e+00 +0.0000000000000000e+00 +0.0000000000000000e+00 +0.0000000000000000e+00 +0.0000000000000000e+00 +1.0000000000000000e+00
-5.0000000000000003e-02 +8.5269999310906375e+00 +0.0000000000000000e+00 -4.9999999999936685e-02 +2.7563816511394327e-06 +0.0000000000000000e+00 +9.9999999999620115e-01
-1.0000000000000001e-01 +8.5269997243611009e+00 +0.0000000000000000e+00 -9.9999999999493494e-02 +5.5128072847092695e-06 +0.0000000000000000e+00 +9.9999999998480449e-01
-1.5000000000000002e-01 +8.5269993798091441e+00 +0.0000000000000000e+00 -1.4999999999829050e-01 +8.2692787896876211e-06 +0.0000000000000000e+00 +9.9999999996580957e-01
-2.0000000000000001e-01 +8.5269988974324260e+00 +0.0000000000000000e+00 -1.9999999999594781e-01 +1.1025798047364754e-05 +0.0000000000000000e+00 +9.9999999993921596e-01
-2.5000000000000000e-01 +8.5269982772285129e+00 +0.0000000000000000e+00 -2.4999999999208544e-01 +1.3782366931343164e-05 +0.0000000000000000e+00 +9.9999999990502320e-01
-2.9999999999999999e-01 +8.5269975191948753e+00 +0.0000000000000000e+00 -2.9999999998632343e-01 +1.6538987307537663e-05 +0.0000000000000000e+00 +9.9999999986323096e-01
-3.4999999999999998e-01 +8.5269966233288930e+00 +0.0000000000000000e+00 -3.4999999997828185e-01 +1.9295661034175461e-05 +0.0000000000000000e+00 +9.9999999981383869e-01
-3.9999999999999997e-01 +8.5269955896278518e+00 +0.0000000000000000e+00 -3.9999999996758062e-01 +2.2052389961796244e-05 +0.0000000000000000e+00 +9.9999999975684606e-01
-4.4999999999999996e-01 +8.5269944180889468e+00 +0.0000000000000000e+00 -4.4999999995383977e-01 +2.4809175933252259e-05 +0.0000000000000000e+00 +9.9999999969225239e-01
-4.9999999999999994e-01 +8.5269931087092772e+00 +0.0000000000000000e+00 -4.9999999993667921e-01 +2.7566020783708393e-05 +0.0000000000000000e+00 +9.9999999962005726e-01
-5.4999999999999993e-01 +8.5269916614858552e+00 +0.0000000000000000e+00 -5.4999999991571880e-01 +3.0322926340642243e-05 +0.0000000000000000e+00 +9.9999999954026009e-01
-5.9999999999999998e-01 +8.5269900764156006e+00 +0.0000000000000000e+00 -5.9999999989057851e-01 +3.3079894423844206e-05 +0.0000000000000000e+00 +9.9999999945286033e-01
-6.5000000000000002e-01 +8.5269883534953408e+00 +0.0000000000000000e+00 -6.4999999986087809e-01 +3.5836926845417561e-05 +0.0000000000000000e+00 +9.9999999935785733e-01
-7.0000000000000007e-01 +8.5269864927218144e+00 +0.0000000000000000e+00 -6.9999999982623751e-01 +3.8594025409778526e-05 +0.0000000000000000e+00 +9.9999999925525063e-01
-7.5000000000000011e-01 +8.5269844940916677e+00 +0.0000000000000000e+00 -7.4999999978627641e-01 +4.1351191913656351e-05 +0.0000000000000000e+00 +9.9999999914503945e-01
-8.0000000000000016e-01 +8.5269823576014598e+00 +0.0000000000000000e+00 -7.9999999974061464e-01 +4.4108428146093399e-05 +0.0000000000000000e+00 +9.9999999902722325e-01
-8.5000000000000020e-01 +8.5269800832476612e+00 +0.0000000000000000e+00 -8.4999999968887197e-01 +4.6865735888445198e-05 +0.0000000000000000e+00 +9.9999999890180136e-01
-9.0000000000000024e-01 +8.5269776710266498e+00 +0.0000000000000000e+00 -8.9999999963066801e-01 +4.9623116914380543e-05 +0.0000000000000000e+00 +9.9999999876877310e-01
-9.5000000000000029e-01 +8.5269751209347184e+00 +0.0000000000000000e+00 -9.4999999956562253e-01 +5.2380572989881565e-05 +0.0000000000000000e+00 +9.9999999862813771e-01
-1.0000000000000002e+00 +8.5269724329680709e+00 +0.0000000000000000e+00 -9.9999999949335505e-01 +5.5138105873243786e-05 +0.0000000000000000e+00 +9.9999999847989451e-01
-1.0500000000000003e+00 +8.5269696071228225e+00 +0.0000000000000000e+00 -1.0499999994134852e+00 +5.7895717315076221e-05 +0.0000000000000000e+00 +9.9999999832404285e-01
-1.1000000000000003e+00 +8.5269666433950011e+00 +0.0000000000000000e+00 -1.0999999993256324e+00 +6.0653409058301422e-05 +0.0000000000000000e+00 +9.9999999816058183e-01
-1.1500000000000004e+00 +8.5269635417805496e+00 +0.0000000000000000e+00 -1.1499999992294165e+00 +6.3411182838155579e-05 +0.0000000000000000e+00 +9.9999999798951078e-01
-1.2000000000000004e+00 +8.5269603022753220e+00 +0.0000000000000000e+00 -1.1999999991244568e+00 +6.6169040382188556e-05 +0.0000000000000000e+00 +9.9999999781082893e-01
-1.2500000000000004e+00 +8.5269569248750869e+00 +0.0000000000000000e+00 -1.2499999990103725e+00 +6.8926983410264012e-05 +0.0000000000000000e+00 +9.9999999762453540e-01
-1.3000000000000005e+00 +8.5269534095755279e+00 +0.0000000000000000e+00 -1.2999999988867834e+00 +7.1685013634559426e-05 +0.0000000000000000e+00 +9.9999999743062928e-01
-1.3500000000000005e+00 +8.5269497563722414e+00 +0.0000000000000000e+00 -1.3499999987533087e+00 +7.4443132759566190e-05 +0.0000000000000000e+00 +9.9999999722910982e-01
-1.4000000000000006e+00 +8.5269459652607420e+00 +0.0000000000000000e+00 -1.3999999986095675e+00 +7.7201342482089680e-05 +0.0000000000000000e+00 +9.9999999701997622e-01
-1.4500000000000006e+00 +8.5269420362364556e+00 +0.0000000000000000e+00 -1.4499999984551792e+00 +7.9959644491249307e-05 +0.0000000000000000e+00 +9.9999999680322749e-01
-1.5000000000000007e+00 +8.5269379692947265e+00 +0.0000000000000000e+00 -1.4999999982897632e+00 +8.2718040468478615e-05 +0.0000000000000000e+00 +9.9999999657886274e-01
-1.5500000000000007e+00 +8.5269337644308152e+00 +0.0000000000000000e+00 -1.5499999981129384e+00 +8.5476532087525305e-05 +0.0000000000000000e+00 +9.9999999634688108e-01
-1.6000000000000008e+00 +8.5269294216398972e+00 +0.0000000000000000e+00 -1.5999999979243242e+00 +8.8235121014451360e-05 +0.0000000000000000e+00 +9.9999999610728152e-01
-1.6500000000000008e+00 +8.5269249409170644e+00 +0.0000000000000000e+00 -1.6499999977235396e+00 +9.0993808907633057e-05 +0.0000000000000000e+00 +9.9999999586006316e-01
-1.7000000000000008e+00 +8.5269203222573289e+00 +0.0000000000000000e+00 -1.6999999975102036e+00 +9.3752597417761074e-05 +0.0000000000000000e+00 +9.9999999560522501e-01
-1.7500000000000009e+00 +8.5269155656556190e+00 +0.0000000000000000e+00 -1.7499999972839351e+00 +9.6511488187840533e-05 +0.0000000000000000e+00 +9.9999999534276607e-01
-1.8000000000000009e+00 +8.5269106711067799e+00 +0.0000000000000000e+00 -1.7999999970443532e+00 +9.9270482853191068e-05 +0.0000000000000000e+00 +9.9999999507268533e-01
-1.8500000000000010e+00 +8.5269056386055748e+00 +0.0000000000000000e+00 -1.8499999967910767e+00 +1.0202958304144689e-04 +0.0000000000000000e+00 +9.9999999479498181e-01
-1.9000000000000010e+00 +8.5269004681466889e+00 +0.0000000000000000e+00 -1.8999999965237244e+00 +1.0478879037255687e-04 +0.0000000000000000e+00 +9.9999999450965438e-01
-1.9500000000000011e+00 +8.5268951597247238e+00 +0.0000000000000000e+00 -1.9499999962419150e+00 +1.0754810645878457e-04 +0.0000000000000000e+00 +9.9999999421670205e-01
-2.0000000000000009e+00 +8.5268897133342030e+00 +0.0000000000000000e+00 -1.9999999959452675e+00 +1.1030753290470833e-04 +0.0000000000000000e+00 +9.9999999391612371e-01
-2.0500000000000007e+00 +8.5268841289695683e+00 +0.0000000000000000e+00 -2.0499999956334003e+00 +1.1306707130702950e-04 +0.0000000000000000e+00 +9.9999999360791836e-01
-2.1000000000000005e+00 +8.5268784066251815e+00 +0.0000000000000000e+00 -2.0999999953059323e+00 +1.1582672325246237e-04 +0.0000000000000000e+00 +9.9999999329208478e-01
-2.1500000000000004e+00 +8.5268725462953245e+00 +0.0000000000000000e+00 -2.1499999949624820e+00 +1.1858649031562413e-04 +0.0000000000000000e+00 +9.9999999296862185e-01
-2.2000000000000002e+00 +8.5268665479742047e+00 +0.0000000000000000e+00 -2.1999999946026674e+00 +1.2134637405884306e-04 +0.0000000000000000e+00 +9.9999999263752848e-01
-2.2500000000000000e+00 +8.5268604116559477e+00 +0.0000000000000000e+00 -2.2499999942261075e+00 +1.2410637603215864e-04 +0.0000000000000000e+00 +9.9999999229880343e-01
-2.2999999999999998e+00 +8.5268541373346043e+00 +0.0000000000000000e+00 -2.2999999938324205e+00 +1.2686649777332151e-04 +0.0000000000000000e+00 +9.9999999195244560e-01
-2.3499999999999996e+00 +8.5268477250041474e+00 +0.0000000000000000e+00 -2.3499999934212248e+00 +1.2962674080779362e-04 +0.0000000000000000e+00 +9.9999999159845376e-01
-2.3999999999999995e+00 +8.5268411746584754e+00 +0.0000000000000000e+00 -2.3999999929921385e+00 +1.3238710664874816e-04 +0.0000000000000000e+00 +9.9999999123682670e-01
-2.4499999999999993e+00 +8.5268344862914098e+00 +0.0000000000000000e+00 -2.4499999925447802e+00 +1.3514759679706970e-04 +0.0000000000000000e+00 +9.9999999086756319e-01
-2.4999999999999991e+00 +8.5268276598966981e+00 +0.0000000000000000e+00 -2.4999999920787674e+00 +1.3790821274135422e-04 +0.0000000000000000e+00 +9.9999999049066213e-01
-2.5499999999999989e+00 +8.5268206954680146e+00 +0.0000000000000000e+00 -2.5499999915937188e+00 +1.4066895595790907e-04 +0.0000000000000000e+00 +9.9999999010612206e-01
-2.5999999999999988e+00 +8.5268135929989572e+00 +0.0000000000000000e+00 -2.5999999910892524e+00 +1.4342982791075312e-04 +0.0000000000000000e+00 +9.9999998971394188e-01
-2.6499999999999986e+00 +8.5268063524830531e+00 +0.0000000000000000e+00 -2.6499999905649858e+00 +1.4619083005161675e-04 +0.0000000000000000e+00 +9.9999998931412026e-01
-2.6999999999999984e+00 +8.5267989739137580e+00 +0.0000000000000000e+00 -2.6999999900205371e+00 +1.4895196381994188e-04 +0.0000000000000000e+00 +9.9999998890665587e-01
-2.7499999999999982e+00 +8.5267914572844532e+00 +0.0000000000000000e+00 -2.7499999894555240e+00 +1.5171323064288201e-04 +0.0000000000000000e+00 +9.9999998849154748e-01
-2.7999999999999980e+00 +8.5267838025884526e+00 +0.0000000000000000e+00 -2.7999999888695646e+00 +1.5447463193530228e-04 +0.0000000000000000e+00 +9.9999998806879364e-01
-2.8499999999999979e+00 +8.5267760098189953e+00 +0.0000000000000000e+00 -2.8499999882622760e+00 +1.5723616909977945e-04 +0.0000000000000000e+00 +9.9999998763839315e-01
-2.8999999999999977e+00 +8.5267680789692548e+00 +0.0000000000000000e+00 -2.8999999876332763e+00 +1.5999784352660205e-04 +0.0000000000000000e+00 +9.9999998720034466e-01
-2.9499999999999975e+00 +8.5267600100323317e+00 +0.0000000000000000e+00 -2.9499999869821831e+00 +1.6275965659377024e-04 +0.0000000000000000e+00 +9.9999998675464674e-01
-2.9999999999999973e+00 +8.5267518030012610e+00 +0.0000000000000000e+00 -2.9999999863086138e+00 +1.6552160966699605e-04 +0.0000000000000000e+00 +9.9999998630129805e-01
-3.0499999999999972e+00 +8.5267434578690082e+00 +0.0000000000000000e+00 -3.0499999856121853e+00 +1.6828370409970318e-04 +0.0000000000000000e+00 +9.9999998584029715e-01
-3.0999999999999970e+00 +8.5267349746284715e+00 +0.0000000000000000e+00 -3.0999999848925155e+00 +1.7104594123302724e-04 +0.0000000000000000e+00 +9.9999998537164270e-01
-3.1499999999999968e+00 +8.5267263532724833e+00 +0.0000000000000000e+00 -3.1499999841492219e+00 +1.7380832239581565e-04 +0.0000000000000000e+00 +9.9999998489533326e-01
-3.1999999999999966e+00 +8.5267175937938084e+00 +0.0000000000000000e+00 -3.1999999833819213e+00 +1.7657084890462769e-04 +0.0000000000000000e+00 +9.9999998441136739e-01
-3.2499999999999964e+00 +8.5267086961851479e+00 +0.0000000000000000e+00 -3.2499999825902308e+00 +1.7933352206373458e-04 +0.0000000000000000e+00 +9.9999998391974365e-01
-3.2999999999999963e+00 +8.5266996604391370e+00 +0.0000000000000000e+00 -3.2999999817737677e+00 +1.8209634316511942e-04 +0.0000000000000000e+00 +9.9999998342046059e-01
-3.3499999999999961e+00 +8.5266904865483450e+00 +0.0000000000000000e+00 -3.3499999809321492e+00 +1.8485931348847726e-04 +0.0000000000000000e+00 +9.9999998291351677e-01
-3.3999999999999959e+00 +8.5266811745052795e+00 +0.0000000000000000e+00 -3.3999999800649920e+00 +1.8762243430121516e-04 +0.0000000000000000e+00 +9.9999998239891075e-01
-3.4499999999999957e+00 +8.5266717243023855e+00 +0.0000000000000000e+00 -3.4499999791719129e+00 +1.9038570685845214e-04 +0.0000000000000000e+00 +9.9999998187664096e-01
-3.4999999999999956e+00 +8.5266621359320443e+00 +0.0000000000000000e+00 -3.4999999782525286e+00 +1.9314913240301923e-04 +0.0000000000000000e+00 +9.9999998134670598e-01
-3.5499999999999954e+00 +8.5266524093865748e+00 +0.0000000000000000e+00 -3.5499999773064559e+00 +1.9591271216545952e-04 +0.0000000000000000e+00 +9.9999998080910424e-01
-3.5999999999999952e+00 +8.5266425446582375e+00 +0.0000000000000000e+00 -3.5999999763333115e+00 +1.9867644736402810e-04 +0.0000000000000000e+00 +9.9999998026383430e-01
-3.6499999999999950e+00 +8.5266325417392288e+00 +0.0000000000000000e+00 -3.6499999753327117e+00 +2.0144033920469216e-04 +0.0000000000000000e+00 +9.9999997971089449e-01
-3.6999999999999948e+00 +8.5266224006216866e+00 +0.0000000000000000e+00 -3.6999999743042733e+00 +2.0420438888113095e-04 +0.0000000000000000e+00 +9.9999997915028338e-01
-3.7499999999999947e+00 +8.5266121212976902e+00 +0.0000000000000000e+00 -3.7499999732476121e+00 +2.0696859757473584e-04 +0.0000000000000000e+00 +9.9999997858199940e-01
-3.7999999999999945e+00 +8.5266017037592601e+00 +0.0000000000000000e+00 -3.7999999721623450e+00 +2.0973296645461029e-04 +0.0000000000000000e+00 +9.9999997800604101e-01
-3.8499999999999943e+00 +8.5265911479983565e+00 +0.0000000000000000e+00 -3.8499999710480881e+00 +2.1249749667756986e-04 +0.0000000000000000e+00 +9.9999997742240654e-01
-3.8999999999999941e+00 +8.5265804540068846e+00 +0.0000000000000000e+00 -3.8999999699044574e+00 +2.1526218938814227e-04 +0.0000000000000000e+00 +9.9999997683109443e-01
-3.9499999999999940e+00 +8.5265696217766909e+00 +0.0000000000000000e+00 -3.9499999687310692e+00 +2.1802704571856736e-04 +0.0000000000000000e+00 +9.9999997623210313e-01
-3.9999999999999938e+00 +8.5265586512995668e+00 +0.0000000000000000e+00 -3.9999999675275397e+00 +2.2079206678879713e-04 +0.0000000000000000e+00 +9.9999997562543108e-01
-4.0499999999999936e+00 +8.5265475425672470e+00 +0.0000000000000000e+00 -4.0499999662934840e+00 +2.2355725370640339e-04 +0.0000000000000000e+00 +9.9999997501107663e-01
-4.0999999999999934e+00 +8.5265362955714128e+00 +0.0000000000000000e+00 -4.0999999650285188e+00 +2.2632260756556214e-04 +0.0000000000000000e+00 +9.9999997438903809e-01
-4.1499999999999932e+00 +8.5265249103036904e+00 +0.0000000000000000e+00 -4.1499999637322595e+00 +2.2908812944603786e-04 +0.0000000000000000e+00 +9.9999997375931393e-01
-4.1999999999999931e+00 +8.5265133867556511e+00 +0.0000000000000000e+00 -4.1999999624043216e+00 +2.3185382041309119e-04 +0.0000000000000000e+00 +9.9999997312190247e-01
-4.2499999999999929e+00 +8.5265017249188144e+00 +0.0000000000000000e+00 -4.2499999610443213e+00 +2.3461968151747891e-04 +0.0000000000000000e+00 +9.9999997247680195e-01
-4.2999999999999927e+00 +8.5264899247846468e+00 +0.0000000000000000e+00 -4.2999999596518741e+00 +2.3738571379545396e-04 +0.0000000000000000e+00 +9.9999997182401090e-01
-4.3499999999999925e+00 +8.5264779863445650e+00 +0.0000000000000000e+00 -4.3499999582265945e+00 +2.4015191826876539e-04 +0.0000000000000000e+00 +9.9999997116352757e-01
-4.3999999999999924e+00 +8.5264659095899340e+00 +0.0000000000000000e+00 -4.3999999567680987e+00 +2.4291829594465838e-04 +0.0000000000000000e+00 +9.9999997049535017e-01
-4.4499999999999922e+00 +8.5264536945120675e+00 +0.0000000000000000e+00 -4.4499999552760015e+00 +2.4568484781587423e-04 +0.0000000000000000e+00 +9.9999996981947714e-01
-4.4999999999999920e+00 +8.5264413411022328e+00 +0.0000000000000000e+00 -4.4999999537499180e+00 +2.4845157486065030e-04 +0.0000000000000000e+00 +9.9999996913590683e-01
-4.5499999999999918e+00 +8.5264288493516460e+00 +0.0000000000000000e+00 -4.5499999521894638e+00 +2.5121847804272004e-04 +0.0000000000000000e+00 +9.9999996844463745e-01
-4.5999999999999917e+00 +8.5264162192514767e+00 +0.0000000000000000e+00 -4.5999999505942535e+00 +2.5398555831131295e-04 +0.0000000000000000e+00 +9.9999996774566735e-01
-4.6499999999999915e+00 +8.5264034507928468e+00 +0.0000000000000000e+00 -4.6499999489639023e+00 +2.5675281660115460e-04 +0.0000000000000000e+00 +9.9999996703899485e-01
-4.6999999999999913e+00 +8.5263905439668335e+00 +0.0000000000000000e+00 -4.6999999472980249e+00 +2.5952025383246650e-04 +0.0000000000000000e+00 +9.9999996632461818e-01
-4.7499999999999911e+00 +8.5263774987644663e+00 +0.0000000000000000e+00 -4.7499999455962358e+00 +2.6228787091096617e-04 +0.0000000000000000e+00 +9.9999996560253557e-01
-4.7999999999999909e+00 +8.5263643151767301e+00 +0.0000000000000000e+00 -4.7999999438581495e+00 +2.6505566872786718e-04 +0.0000000000000000e+00 +9.9999996487274534e-01
-4.8499999999999908e+00 +8.5263509931945656e+00 +0.0000000000000000e+00 -4.8499999420833815e+00 +2.6782364815987895e-04 +0.0000000000000000e+00 +9.9999996413524583e-01
-4.8999999999999906e+00 +8.5263375328088724e+00 +0.0000000000000000e+00 -4.8999999402715453e+00 +2.7059181006920679e-04 +0.0000000000000000e+00 +9.9999996339003527e-01
-4.9499999999999904e+00 +8.5263239340105041e+00 +0.0000000000000000e+00 -4.9499999384222564e+00 +2.7336015530355203e-04 +0.0000000000000000e+00 +9.9999996263711188e-01
-4.9999999999999902e+00 +8.5263101967902735e+00 +0.0000000000000000e+00 -4.9999999365351284e+00 +2.7612868469611171e-04 +0.0000000000000000e+00 +9.9999996187647389e-01
-5.0499999999999901e+00 +8.5262963211389522e+00 +0.0000000000000000e+00 -5.0499999346097750e+00 +2.7889739906557877e-04 +0.0000000000000000e+00 +9.9999996110811951e-01
-5.0999999999999899e+00 +8.5262823070472713e+00 +0.0000000000000000e+00 -5.0999999326458116e+00 +2.8166629921614190e-04 +0.0000000000000000e+00 +9.9999996033204697e-01
-5.1499999999999897e+00 +8.5262681545059209e+00 +0.0000000000000000e+00 -5.1499999306428510e+00 +2.8443538593748562e-04 +0.0000000000000000e+00 +9.9999995954825460e-01
-5.1999999999999895e+00 +8.5262538635055538e+00 +0.0000000000000000e+00 -5.1999999286005076e+00 +2.8720466000479008e-04 +0.0000000000000000e+00 +9.9999995875674064e-01
-5.2499999999999893e+00 +8.5262394340367837e+00 +0.0000000000000000e+00 -5.2499999265183961e+00 +2.8997412217873119e-04 +0.0000000000000000e+00 +9.9999995795750318e-01
-5.2999999999999892e+00 +8.5262248660901871e+00 +0.0000000000000000e+00 -5.2999999243961291e+00 +2.9274377320548042e-04 +0.0000000000000000e+00 +9.9999995715054057e-01
-5.3499999999999890e+00 +8.5262101596563031e+00 +0.0000000000000000e+00 -5.3499999222333212e+00 +2.9551361381670494e-04 +0.0000000000000000e+00 +9.9999995633585093e-01
-5.3999999999999888e+00 +8.5261953147256335e+00 +0.0000000000000000e+00 -5.3999999200295852e+00 +2.9828364472956741e-04 +0.0000000000000000e+00 +9.9999995551343246e-01
-5.4499999999999886e+00 +8.5261803312886464e+00 +0.0000000000000000e+00 -5.4499999177845355e+00 +3.0105386664672603e-04 +0.0000000000000000e+00 +9.9999995468328351e-01
-5.4999999999999885e+00 +8.5261652093357743e+00 +0.0000000000000000e+00 -5.4999999154977850e+00 +3.0382428025633448e-04 +0.0000000000000000e+00 +9.9999995384540219e-01
-5.5499999999999883e+00 +8.5261499488574142e+00 +0.0000000000000000e+00 -5.5499999131689473e+00 +3.0659488623204184e-04 +0.0000000000000000e+00 +9.9999995299978661e-01
-5.5999999999999881e+00 +8.5261345498439329e+00 +0.0000000000000000e+00 -5.5999999107976350e+00 +3.0936568523299256e-04 +0.0000000000000000e+00 +9.9999995214643511e-01
-5.6499999999999879e+00 +8.5261190122856636e+00 +0.0000000000000000e+00 -5.6499999083834620e+00 +3.1213667790382647e-04 +0.0000000000000000e+00 +9.9999995128534580e-01
-5.6999999999999877e+00 +8.5261033361729055e+00 +0.0000000000000000e+00 -5.6999999059260409e+00 +3.1490786487467867e-04 +0.0000000000000000e+00 +9.9999995041651690e-01
-5.7499999999999876e+00 +8.5260875214959277e+00 +0.0000000000000000e+00 -5.7499999034249845e+00 +3.1767924676117943e-04 +0.0000000000000000e+00 +9.9999994953994664e-01
-5.7999999999999874e+00 +8.5260715682449710e+00 +0.0000000000000000e+00 -5.7999999008799064e+00 +3.2045082416445430e-04 +0.0000000000000000e+00 +9.9999994865563313e-01
-5.8499999999999872e+00 +8.5260554764102441e+00 +0.0000000000000000e+00 -5.8499998982904184e+00 +3.2322259767112382e-04 +0.0000000000000000e+00 +9.9999994776357459e-01
