# multipoles
# s[mm] polynom_b[n=0][T/m^n] polynom_b[n=1][T/m^n] polynom_b[n=2][T/m^n] polynom_b[n=3][T/m^n] polynom_b[n=4][T/m^n] polynom_b[n=5][T/m^n] polynom_b[n=6][T/m^n] 
+0.0000000000000000e+00 -5.5606308654509284e-01 +7.2830434339603807e+00 +5.8403493797990658e+00 -8.8262444334376909e+01 -2.7240364807837846e+03 +3.2395841765391640e+05 -2.8765430844141641e+06 
+5.0000000000000003e-02 -5.5606222758363821e-01 +7.2830066511093801e+00 +5.8359472335944629e+00 -8.8556858178119171e+01 -2.5939996138763763e+03 +3.2561655360490526e+05 -3.6659054477265067e+06 
+1.0000000000000001e-01 -5.5606173042598162e-01 +7.2829890283104612e+00 +5.8309299978099114e+00 -8.8821338932380542e+01 -2.4611697853284213e+03 +3.2707693578635354e+05 -4.4674750905382903e+06 
+1.5000000000000002e-01 -5.5606159452184600e-01 +7.2829905403491892e+00 +5.8253122631462091e+00 -8.9056942513682827e+01 -2.3257901392666968e+03 +3.2834716001203557e+05 -5.2800096443141494e+06 
+2.0000000000000001e-01 -5.5606181932098486e-01 +7.2830111620040308e+00 +5.8191086226431983e+00 -8.9264724517399159e+01 -2.1881038894787398e+03 +3.2943481943878956e+05 -6.1022662378607616e+06 
+2.5000000000000000e-01 -5.5606240427315989e-01 +7.2830508680572921e+00 +5.8123336680326307e+00 -8.9445740657211545e+01 -2.0483542118432133e+03 +3.3034750813891168e+05 -6.9330022716737296e+06 
+2.9999999999999999e-01 -5.5606334882814745e-01 +7.2831096332918843e+00 +5.8050019903764625e+00 -8.9601046648762392e+01 -1.9067842641629236e+03 +3.3109282022606797e+05 -7.7709752655305695e+06 
+3.4999999999999998e-01 -5.5606465243574787e-01 +7.2831874324908368e+00 +5.7971281824885335e+00 -8.9731698177502651e+01 -1.7636372576112237e+03 +3.3167834951956588e+05 -8.6149423541907687e+06 
+3.9999999999999997e-01 -5.5606631454577038e-01 +7.2832842404397251e+00 +5.7887268348712650e+00 -8.9838751014656424e+01 -1.6191563314256380e+03 +3.3211169057739130e+05 -9.4636611974258926e+06 
+4.4999999999999996e-01 -5.5606833460803706e-01 +7.2834000319225396e+00 +5.7798125389422861e+00 -8.9923260836566740e+01 -1.4735846648302902e+03 +3.3240043715148937e+05 -1.0315889124210116e+07 
+4.9999999999999994e-01 -5.5607071207240988e-01 +7.2835347817230618e+00 +5.7703998881133396e+00 -8.9986283271201529e+01 -1.3271654726380466e+03 +3.3255218255147833e+05 -1.1170383292842612e+07 
+5.4999999999999993e-01 -5.5607344638872613e-01 +7.2836884646313722e+00 +5.7605034706926030e+00 -9.0028874193845994e+01 -1.1801418506350499e+03 +3.3257452217894397e+05 -1.2025901596964546e+07 
+5.9999999999999998e-01 -5.5607653700687842e-01 +7.2838610554331122e+00 +5.7501378804104082e+00 -9.0052089255729769e+01 -1.0327570304727039e+03 +3.3247504952163348e+05 -1.2881201047031816e+07 
+6.5000000000000002e-01 -5.5607998337675746e-01 +7.2840525289152183e+00 +5.7393177080356770e+00 -9.0056984144358793e+01 -8.8525416465819285e+02 +3.3226135840132018e+05 -1.3735039189917309e+07 
+7.0000000000000007e-01 -5.5608378494826549e-01 +7.2842628598646098e+00 +5.7280575439609098e+00 -9.0044614517944012e+01 -7.3787640131456737e+02 +3.3194104240045301e+05 -1.4586173578503812e+07 
+7.5000000000000011e-01 -5.5608794117133842e-01 +7.2844920230726515e+00 +5.7163719812651319e+00 -9.0016036189296244e+01 -5.9086695628048881e+02 +3.3152169634517591e+05 -1.5433361326885138e+07 
+8.0000000000000016e-01 -5.5609245149591235e-01 +7.2847399933277659e+00 +5.7042756102669623e+00 -8.9972304823722510e+01 -4.4446897416399707e+02 +3.3101091386545828e+05 -1.6275360016386131e+07 
+8.5000000000000020e-01 -5.5609731537194018e-01 +7.2850067454187908e+00 +5.6917830212712897e+00 -8.9914476080493429e+01 -2.9892559513416069e+02 +3.3041628853173816e+05 -1.7110927277452815e+07 
+9.0000000000000024e-01 -5.5610253224939876e-01 +7.2852922541347276e+00 +5.6789088064925579e+00 -8.9843605602657234e+01 -1.5448001811548315e+02 +3.2974541380701901e+05 -1.7938820313572206e+07 
+9.5000000000000029e-01 -5.5610810157827695e-01 +7.2855964942672022e+00 +5.6656675569554951e+00 -8.9760749117089333e+01 -1.1375404710610820e+01 +3.2900588384582032e+05 -1.8757796601397522e+07 
+1.0000000000000002e+00 -5.5611402280858380e-01 +7.2859194406075041e+00 +5.6520738644014727e+00 -8.9666962308275799e+01 +1.3014506521175798e+02 +3.2820529244055814e+05 -1.9566613498994272e+07 
+1.0500000000000003e+00 -5.5612029539033980e-01 +7.2862610679454738e+00 +5.6381423200620695e+00 -8.9563300776842098e+01 +2.6983822135625161e+02 +3.2735123270620988e+05 -2.0364028412545253e+07 
+1.1000000000000003e+00 -5.5612691877357945e-01 +7.2866213510719957e+00 +5.6238875151170360e+00 -8.9450820151616739e+01 +4.0746089424525593e+02 +3.2645129802233161e+05 -2.1148798754441757e+07 
+1.1500000000000004e+00 -5.5613389240836242e-01 +7.2870002647806444e+00 +5.6093240414845589e+00 -8.9330576134242506e+01 +5.4276990180483244e+02 +3.2551308232807898e+05 -2.1919681876586925e+07 
+1.2000000000000004e+00 -5.5614121574474951e-01 +7.2873977838607180e+00 +5.5944664894358409e+00 -8.9203624244378901e+01 +6.7552209965951101e+02 +3.2454417814166611e+05 -2.2675435365544043e+07 
+1.2500000000000004e+00 -5.5614888823281905e-01 +7.2878138831041728e+00 +5.5793294492613947e+00 -8.9071020075520934e+01 +8.0547434383853522e+02 +3.2355217854462093e+05 -2.3414816809115000e+07 
+1.3000000000000005e+00 -5.5615690932269279e-01 +7.2882485373055852e+00 +5.5639275158262800e+00 -8.8933819319956669e+01 +9.3238337212389592e+02 +3.2254467751055741e+05 -2.4136583020508982e+07 
+1.3500000000000005e+00 -5.5616527846447150e-01 +7.2887017212541849e+00 +5.5482752781883731e+00 -8.8793077415576761e+01 +1.0560060719702906e+03 +3.2152926686697814e+05 -2.4839491795921210e+07 
+1.4000000000000006e+00 -5.5617399510829335e-01 +7.2891734097437499e+00 +5.5323873289883654e+00 -8.8649849976852579e+01 +1.1760992395143355e+03 +3.2051353996627533e+05 -2.5522300338691492e+07 
+1.4500000000000006e+00 -5.5618305870430484e-01 +7.2896635775651362e+00 +5.5162782595626085e+00 -8.8505192468818592e+01 +1.2924197055917114e+03 +3.1950508891254541e+05 -2.6183766082713045e+07 
+1.5000000000000007e+00 -5.5619246870266736e-01 +7.2901721995121154e+00 +5.4999626613160792e+00 -8.8360160465440913e+01 +1.4047242981584161e+03 +3.1851150676890294e+05 -2.6822646440391887e+07 
+1.5500000000000007e+00 -5.5620222455356605e-01 +7.2906992503749564e+00 +5.4834551268104805e+00 -8.8215809362022426e+01 +1.5127698174972038e+03 +3.1754038508270151e+05 -2.7437698650436852e+07 
+1.6000000000000008e+00 -5.5621232570718793e-01 +7.2912447049469460e+00 +5.4667702471904027e+00 -8.8073194681828525e+01 +1.6163130956335826e+03 +3.1659931658401922e+05 -2.8027680144877438e+07 
+1.6500000000000008e+00 -5.5622277161375877e-01 +7.2918085380200690e+00 +5.4499226163907100e+00 -8.7933371853360384e+01 +1.7151109009087220e+03 +3.1569589314888464e+05 -2.8591347967768323e+07 
+1.7000000000000008e+00 -5.5623356172348415e-01 +7.2923907243864585e+00 +5.4329268231863619e+00 -8.7797396298923616e+01 +1.8089201332530363e+03 +3.1483770665918622e+05 -2.9127460026322514e+07 
+1.7500000000000009e+00 -5.5624469548662114e-01 +7.2929912388355609e+00 +5.4157974628270136e+00 -8.7666323323471389e+01 +1.8974975166532718e+03 +3.1403234811155463e+05 -2.9634773034033336e+07 
+1.8000000000000009e+00 -5.5625617235342539e-01 +7.2936100561620449e+00 +5.3985491270510293e+00 -8.7541208409853937e+01 +1.9805998772010078e+03 +3.1328740990953741e+05 -3.0112044424477115e+07 
+1.8500000000000010e+00 -5.5626799177416864e-01 +7.2942471511521711e+00 +5.3811964080223165e+00 -8.7423106690230853e+01 +2.0579840277830276e+03 +3.1261048166224174e+05 -3.0558031533503674e+07 
+1.9000000000000010e+00 -5.5628015319913748e-01 +7.2949024986017639e+00 +5.3637538980656201e+00 -8.7313073669427922e+01 +2.1294067782751858e+03 +3.1200915605690010e+05 -3.0971491688841067e+07 
+1.9500000000000011e+00 -5.5629265607864309e-01 +7.2955760732995065e+00 +5.3462361914519283e+00 -8.7212164546091515e+01 +2.1946248836124096e+03 +3.1149102332271816e+05 -3.1351181834481675e+07 
+2.0000000000000009e+00 -5.5630549986299249e-01 +7.2962678500355853e+00 +5.3286578786876078e+00 -8.7121434557234238e+01 +2.2533952040381901e+03 +3.1106367401048297e+05 -3.1695859640963633e+07 
+2.0500000000000007e+00 -5.5631868375457194e-01 +7.2969777810542666e+00 +5.3110306946481849e+00 -8.7041668844704432e+01 +2.3055276836082521e+03 +3.1073297417310596e+05 -3.2004524962593812e+07 
+2.1000000000000005e+00 -5.5633220596373467e-01 +7.2977057224113011e+00 +5.2933555094095901e+00 -8.6972548467290096e+01 +2.3510390859094332e+03 +3.1049756299021968e+05 -3.2277111549071427e+07 
+2.1500000000000004e+00 -5.5634606445275059e-01 +7.2984515046139480e+00 +5.2756306248495850e+00 -8.6913473256738371e+01 +2.3899965079028816e+03 +3.1035419208494161e+05 -3.2513777723705739e+07 
+2.2000000000000002e+00 -5.5636025718390980e-01 +7.2992149581659111e+00 +5.2578543450034143e+00 -8.6863842877267473e+01 +2.4224669795607774e+03 +3.1029961164604092e+05 -3.2714681320121229e+07 
+2.2500000000000000e+00 -5.5637478211949620e-01 +7.2999959135698944e+00 +5.2400249704209392e+00 -8.6823056933507587e+01 +2.4485176298209667e+03 +3.1033057137082837e+05 -3.2879980863148484e+07 
+2.2999999999999998e+00 -5.5638963722184864e-01 +7.3007942013336153e+00 +5.2221408090512780e+00 -8.6790515208000699e+01 +2.4682153901771489e+03 +3.1044382235774305e+05 -3.3009833552011807e+07 
+2.3499999999999996e+00 -5.5640482045326001e-01 +7.3016096519604146e+00 +5.2042001598414966e+00 -8.6765617304371958e+01 +2.4816274245593058e+03 +3.1063611429376004e+05 -3.3104398118754741e+07 
+2.3999999999999995e+00 -5.5642032977608469e-01 +7.3024420959562839e+00 +5.1862013295016398e+00 -8.6747762899149876e+01 +2.4888206967090059e+03 +3.1090419738903630e+05 -3.3163831978219267e+07 
+2.4499999999999993e+00 -5.5643616315264222e-01 +7.3032913638267649e+00 +5.1681426178507257e+00 -8.6736351634591841e+01 +2.4898623471514234e+03 +3.1124482154286740e+05 -3.3188293708233066e+07 
+2.4999999999999991e+00 -5.5645231854530053e-01 +7.3041572860792350e+00 +5.1500223305080528e+00 -8.6730783219554098e+01 +2.4848193675743037e+03 +3.1165473722828727e+05 -3.3177940910950873e+07 
+2.5499999999999989e+00 -5.5646879391641724e-01 +7.3050396932196993e+00 +5.1318387699401926e+00 -8.6730457286206374e+01 +2.4737588271899908e+03 +3.1213069425612554e+05 -3.3132931682662483e+07 
+2.5999999999999988e+00 -5.5648558722837194e-01 +7.3059384157543850e+00 +5.1135902408286453e+00 -8.6734773445706523e+01 +2.4567477379692223e+03 +3.1266944218125334e+05 -3.3053423749010790e+07 
+2.6499999999999986e+00 -5.5650269644352968e-01 +7.3068532841906002e+00 +5.0952750435116920e+00 -8.6743131351527921e+01 +2.4338532269049238e+03 +3.1326773095043376e+05 -3.2939575603131276e+07 
+2.6999999999999984e+00 -5.5652011952429714e-01 +7.3077841290344807e+00 +5.0768914840267563e+00 -8.6754930584566708e+01 +2.4051422649701190e+03 +3.1392230985315196e+05 -3.2791544676579487e+07 
+2.7499999999999982e+00 -5.5653785443306825e-01 +7.3087307807957469e+00 +5.0584378643778098e+00 -8.6769570849086392e+01 +2.3706819335477917e+03 +3.1462992913279292e+05 -3.2609489154724825e+07 
+2.7999999999999980e+00 -5.5655589913224324e-01 +7.3096930699820977e+00 +5.0399124863418781e+00 -8.6786451768413770e+01 +2.3305393195868069e+03 +3.1538733842355543e+05 -3.2393567263630453e+07 
+2.8499999999999979e+00 -5.5657425158424823e-01 +7.3106708271001812e+00 +5.0213136547905508e+00 -8.6804972886369171e+01 +2.2847814200663597e+03 +3.1619128658613301e+05 -3.2143936593455844e+07 
+2.8999999999999977e+00 -5.5659290975150533e-01 +7.3116638826614064e+00 +5.0026396718953352e+00 -8.6824533932614713e+01 +2.2334753125290003e+03 +3.1703852401056333e+05 -3.1860755314176116e+07 
+2.9499999999999975e+00 -5.5661187159644232e-01 +7.3126720671734589e+00 +4.9838888402442434e+00 -8.6844534468238010e+01 +2.1766880512307725e+03 +3.1792579965875228e+05 -3.1544181391003896e+07 
+2.9999999999999973e+00 -5.5663113508149997e-01 +7.3136952111453448e+00 +4.9650594625041595e+00 -8.6864374096765616e+01 +2.1144866946979532e+03 +3.1884986283400987e+05 -3.1194372845739249e+07 
+3.0499999999999972e+00 -5.5665069816913704e-01 +7.3147331450882485e+00 +4.9461498436185822e+00 -8.6883452483555942e+01 +2.0469382366571956e+03 +3.1980746325575834e+05 -3.0811487252167787e+07 
+3.0999999999999970e+00 -5.5667055882180105e-01 +7.3157856995111619e+00 +4.9271582846737951e+00 -8.6901169190000303e+01 +1.9741097763121606e+03 +3.2079534976091067e+05 -3.0395682903150909e+07 
+3.1499999999999968e+00 -5.5669071500195011e-01 +7.3168527049271441e+00 +4.9080830879712662e+00 -8.6916923943099007e+01 +1.8960683724175094e+03 +3.2181027256280399e+05 -2.9947117789588980e+07 
+3.1999999999999966e+00 -5.5671116467206339e-01 +7.3179339918441944e+00 +4.8889225579170486e+00 -8.6930116226732522e+01 +1.8128810316683623e+03 +3.2284897975130932e+05 -2.9465949574285153e+07 
+3.2499999999999964e+00 -5.5673190579460430e-01 +7.3190293907739328e+00 +4.8696749952337521e+00 -8.6940145668208658e+01 +1.7246148532940895e+03 +3.2390822059430683e+05 -2.8952336518825375e+07 
+3.2999999999999963e+00 -5.5675293633206013e-01 +7.3201387322298208e+00 +4.8503387029511398e+00 -8.6946411957528071e+01 +1.6313368790977870e+03 +3.2498474484488537e+05 -2.8406436515865657e+07 
+3.3499999999999961e+00 -5.5677425424692761e-01 +7.3212618467237895e+00 +4.8309119853922367e+00 -8.6948314689053262e+01 +1.5331141092374055e+03 +3.2607530133794685e+05 -2.7828407155459307e+07 
+3.3999999999999959e+00 -5.5679585750168969e-01 +7.3223985647685073e+00 +4.8113931431571597e+00 -8.6945253500399971e+01 +1.4300136439788964e+03 +3.2717663933877426e+05 -2.7218406704409678e+07 
+3.4499999999999957e+00 -5.5681774405884754e-01 +7.3235487168776228e+00 +4.7917804787187634e+00 -8.6936628029567501e+01 +1.3221025321784498e+03 +3.2828550795454119e+05 -2.6576593079978991e+07 
+3.4999999999999956e+00 -5.5683991188090531e-01 +7.3247121335631213e+00 +4.7720722944240217e+00 -8.6921837843823297e+01 +1.2094478241312522e+03 +3.2939865572369366e+05 -2.5903124205377806e+07 
+3.5499999999999954e+00 -5.5686235893037617e-01 +7.3258886453390142e+00 +4.7522668928656824e+00 -8.6900282579301418e+01 +1.0921165622944125e+03 +3.3051283167313540e+05 -2.5198157947417509e+07 
+3.5999999999999952e+00 -5.5688508316976715e-01 +7.3270780827227195e+00 +4.7323625748107316e+00 -8.6871361988439162e+01 +9.7017583762352558e+02 +3.3162478572290344e+05 -2.4461852500253957e+07 
+3.6499999999999950e+00 -5.5690808256161117e-01 +7.3282802762256036e+00 +4.7123576447862145e+00 -8.6834475562275713e+01 +8.4369263348344839e+02 +3.3273126556050562e+05 -2.3694365309589587e+07 
+3.6999999999999948e+00 -5.5693135506841462e-01 +7.3294950563641743e+00 +4.6922504016855413e+00 -8.6789023001888154e+01 +7.1273408680151874e+02 +3.3382902062022750e+05 -2.2895854867729675e+07 
+3.7499999999999947e+00 -5.5695489865272885e-01 +7.3307222536553729e+00 +4.6720391513128323e+00 -8.6734404003565615e+01 +5.7736714685741731e+02 +3.3491480018699873e+05 -2.2066478396139961e+07 
+3.7999999999999945e+00 -5.5697871127706222e-01 +7.3319616986150411e+00 +4.6517221914213662e+00 -8.6670018196143275e+01 +4.3765897619536901e+02 +3.3598535289958451e+05 -2.1206394545581743e+07 
+3.8499999999999943e+00 -5.5700279090395644e-01 +7.3332132217588253e+00 +4.6312978245660537e+00 -8.6595265205396899e+01 +2.9367660790012667e+02 +3.3703742738395371e+05 -2.0315761094081368e+07 
+3.8999999999999941e+00 -5.5702713549596183e-01 +7.3344766536053561e+00 +4.6107643546488033e+00 -8.6509544743347050e+01 +1.4548703238700932e+02 +3.3806777281021920e+05 -1.9394735510454308e+07 
+3.9499999999999940e+00 -5.5705174301560711e-01 +7.3357518246717746e+00 +4.5901200805098732e+00 -8.6412256469412270e+01 -6.8426209223846159e+00 +3.3907313795008807e+05 -1.8443476213175468e+07 
+3.9999999999999938e+00 -5.5707661142543741e-01 +7.3370385654766839e+00 +4.5693633035157353e+00 -8.6302800062563719e+01 -1.6324529294128780e+02 +3.4005027158374374e+05 -1.7462141138356760e+07 
+4.0499999999999936e+00 -5.5710173860465872e-01 +7.3383367087324567e+00 +4.5484933210838889e+00 -8.6180659793925457e+01 -3.2364548690408549e+02 +3.4099584837484569e+05 -1.6451039053603735e+07 
+4.0999999999999934e+00 -5.5712712209868898e-01 +7.3396460922411499e+00 +4.5275132397413955e+00 -8.6045774562853467e+01 -4.8792627395414911e+02 +3.4190711440259218e+05 -1.5411100830322385e+07 
+4.1499999999999932e+00 -5.5715275936940623e-01 +7.3409665541632130e+00 +4.5064270883897599e+00 -8.5898226212576333e+01 -6.5595811450018198e+02 +3.4278166224867012e+05 -1.4343420013141718e+07 
+4.1999999999999931e+00 -5.5717864787871008e-01 +7.3422979326575195e+00 +4.4852388991280581e+00 -8.5738096542985673e+01 -8.2761155476752219e+02 +3.4361708409915806e+05 -1.3249089550141012e+07 
+4.2499999999999929e+00 -5.5720478508848048e-01 +7.3436400658840961e+00 +4.4639527004611050e+00 -8.5565467416497668e+01 -1.0027570426982114e+03 +3.4441097269488231e+05 -1.2129203059582938e+07 
+4.2999999999999927e+00 -5.5723116846060128e-01 +7.3449927920014444e+00 +4.4425725209480778e+00 -8.5380420656959103e+01 -1.1812650273030511e+03 +3.4516092053869157e+05 -1.0984854147175431e+07 
+4.3499999999999925e+00 -5.5725779545697107e-01 +7.3463559491678518e+00 +4.4211023912063538e+00 -8.5183038086176410e+01 -1.3630060095282588e+03 +3.4586452012517909e+05 -9.8171360781009030e+06 
+4.3999999999999924e+00 -5.5728466353947459e-01 +7.3477293755408786e+00 +4.3995463397812644e+00 -8.4973401518717054e+01 -1.5478504394838344e+03 +3.4651936396018905e+05 -8.6271424381850660e+06 
+4.4499999999999922e+00 -5.5731177017000799e-01 +7.3491129092796257e+00 +4.3779083965658394e+00 -8.4751592861866783e+01 -1.7356687988652313e+03 +3.4712304539784550e+05 -7.4159666128787147e+06 
+4.4999999999999920e+00 -5.5733911281046911e-01 +7.3505063885398263e+00 +4.3561925911353230e+00 -8.4517693886592141e+01 -1.9263315582474165e+03 +3.4767315665681841e+05 -6.1847020662536714e+06 
+4.5499999999999918e+00 -5.5736668892275254e-01 +7.3519096514769338e+00 +4.3344029531160482e+00 -8.4271786394833185e+01 -2.1197091944907097e+03 +3.4816729035235645e+05 -4.9344421989372075e+06 
+4.5999999999999917e+00 -5.5739449596874469e-01 +7.3533225362499426e+00 +4.3125435100165683e+00 -8.4013952343042291e+01 -2.3156721195853179e+03 +3.4860304037898802e+05 -3.6662808747811462e+06 
+4.6499999999999915e+00 -5.5742253141034770e-01 +7.3547448810120200e+00 +4.2906182923963705e+00 -8.3744273471400106e+01 -2.5140908357520248e+03 +3.4897799890605046e+05 -2.3813113086928944e+06 
+4.6999999999999913e+00 -5.5745079270944475e-01 +7.3561765239197676e+00 +4.2686313266861582e+00 -8.3462831695578700e+01 -2.7148357201927547e+03 +3.4928975965220307e+05 -1.0806276118919773e+06 
+4.7499999999999911e+00 -5.5747927732794400e-01 +7.3576173031249983e+00 +4.2465866448010843e+00 -8.3169708753390694e+01 -2.9177773105034094e+03 +3.4953591491345561e+05 +2.3467724315841999e+05 
+4.7999999999999909e+00 -5.5750798272772539e-01 +7.3590670567855705e+00 +4.2244882727169939e+00 -8.2864986662213624e+01 -3.1227859726800766e+03 +3.4971405937377550e+05 +1.5635090869232791e+06 
+4.8499999999999908e+00 -5.5753690637069375e-01 +7.3605256230516956e+00 +4.2023402411283239e+00 -8.2548747152421967e+01 -3.3297322031257463e+03 +3.4982178542237164e+05 +2.9047746495742537e+06 
+4.8999999999999906e+00 -5.5756604571873425e-01 +7.3619928400769670e+00 +4.1801465778777693e+00 -8.2221072110883981e+01 -3.5384864213908127e+03 +3.4985668676083267e+05 +4.2573801443794575e+06 
+4.9499999999999904e+00 -5.5759539823372650e-01 +7.3634685460135643e+00 +4.1579113093487363e+00 -8.1882043407998211e+01 -3.7489190044803672e+03 +3.4981635708512884e+05 +5.6202314956292827e+06 
+4.9999999999999902e+00 -5.5762496137757112e-01 +7.3649525790115202e+00 +4.1356384660436598e+00 -8.1531742861439696e+01 -3.9609004391399376e+03 +3.4969838974248379e+05 +6.9922353666296490e+06 
+5.0499999999999901e+00 -5.5765473261215248e-01 +7.3664447772228048e+00 +4.1133320759682723e+00 -8.1170252389779080e+01 -4.1743011453813215e+03 +3.4950037895480066e+05 +8.3722979796222188e+06 
