# trajectory
# s[mm] rx[mm] ry[mm] rz[mm] px[rad] py[rad] pz[rad]
0.0000000000000000e+00 +8.2850000000000001e+00 +0.0000000000000000e+00 +0.0000000000000000e+00 +0.0000000000000000e+00 +0.0000000000000000e+00 +1.0000000000000000e+00
5.0000000000000003e-02 +8.2849999307268778e+00 +0.0000000000000000e+00 +4.9999999999936019e-02 -2.7709247999740225e-06 +0.0000000000000000e+00 +9.9999999999616096e-01
1.0000000000000001e-01 +8.2849997229075161e+00 +0.0000000000000000e+00 +9.9999999999488137e-02 -5.5418498943192941e-06 +0.0000000000000000e+00 +9.9999999998464395e-01
1.5000000000000002e-01 +8.2849993765418528e+00 +0.0000000000000000e+00 +1.4999999999827246e-01 -8.3127771961201551e-06 +0.0000000000000000e+00 +9.9999999996544886e-01
2.0000000000000001e-01 +8.2849988916297281e+00 +0.0000000000000000e+00 +1.9999999999590506e-01 -1.1083708614387133e-05 +0.0000000000000000e+00 +9.9999999993857569e-01
2.5000000000000000e-01 +8.2849982681708898e+00 +0.0000000000000000e+00 +2.4999999999200206e-01 -1.3854646054057033e-05 +0.0000000000000000e+00 +9.9999999990402433e-01
2.9999999999999999e-01 +8.2849975061649896e+00 +0.0000000000000000e+00 +2.9999999998617954e-01 -1.6625591415993023e-05 +0.0000000000000000e+00 +9.9999999986179477e-01
3.4999999999999998e-01 +8.2849966056115836e+00 +0.0000000000000000e+00 +3.4999999997805359e-01 -1.9396546596984724e-05 +0.0000000000000000e+00 +9.9999999981188692e-01
3.9999999999999997e-01 +8.2849955665101334e+00 +0.0000000000000000e+00 +3.9999999996724028e-01 -2.2167513489748287e-05 +0.0000000000000000e+00 +9.9999999975430065e-01
4.4999999999999996e-01 +8.2849943888600066e+00 +0.0000000000000000e+00 +4.4999999995335571e-01 -2.4938493982926488e-05 +0.0000000000000000e+00 +9.9999999968903575e-01
4.9999999999999994e-01 +8.2849930726604768e+00 +0.0000000000000000e+00 +4.9999999993601590e-01 -2.7709489961088806e-05 +0.0000000000000000e+00 +9.9999999961609209e-01
5.4999999999999993e-01 +8.2849916179107215e+00 +0.0000000000000000e+00 +5.4999999991483695e-01 -3.0480503304731520e-05 +0.0000000000000000e+00 +9.9999999953546947e-01
5.9999999999999998e-01 +8.2849900246098258e+00 +0.0000000000000000e+00 +5.9999999988943487e-01 -3.3251535890277775e-05 +0.0000000000000000e+00 +9.9999999944716766e-01
6.5000000000000002e-01 +8.2849882927567808e+00 +0.0000000000000000e+00 +6.4999999985942569e-01 -3.6022589590077689e-05 +0.0000000000000000e+00 +9.9999999935118655e-01
7.0000000000000007e-01 +8.2849864223504834e+00 +0.0000000000000000e+00 +6.9999999982442551e-01 -3.8793666272408413e-05 +0.0000000000000000e+00 +9.9999999924752581e-01
7.5000000000000011e-01 +8.2849844133897381e+00 +0.0000000000000000e+00 +7.4999999978405030e-01 -4.1564767801474245e-05 +0.0000000000000000e+00 +9.9999999913618509e-01
8.0000000000000016e-01 +8.2849822658732570e+00 +0.0000000000000000e+00 +7.9999999973791602e-01 -4.4335896037406682e-05 +0.0000000000000000e+00 +9.9999999901716419e-01
8.5000000000000020e-01 +8.2849799797996582e+00 +0.0000000000000000e+00 +8.4999999968563866e-01 -4.7107052836264533e-05 +0.0000000000000000e+00 +9.9999999889046276e-01
9.0000000000000024e-01 +8.2849775551674671e+00 +0.0000000000000000e+00 +8.9999999962683419e-01 -4.9878240050033974e-05 +0.0000000000000000e+00 +9.9999999875608059e-01
9.5000000000000029e-01 +8.2849749919751154e+00 +0.0000000000000000e+00 +9.4999999956111858e-01 -5.2649459526628667e-05 +0.0000000000000000e+00 +9.9999999861401723e-01
1.0000000000000002e+00 +8.2849722902209457e+00 +0.0000000000000000e+00 +9.9999999948810780e-01 -5.5420713109889797e-05 +0.0000000000000000e+00 +9.9999999846427234e-01
1.0500000000000003e+00 +8.2849694499032047e+00 +0.0000000000000000e+00 +1.0499999994074178e+00 -5.8192002639586203e-05 +0.0000000000000000e+00 +9.9999999830684549e-01
1.1000000000000003e+00 +8.2849664710200503e+00 +0.0000000000000000e+00 +1.0999999993186644e+00 -6.0963329951414422e-05 +0.0000000000000000e+00 +9.9999999814173623e-01
1.1500000000000004e+00 +8.2849633535695482e+00 +0.0000000000000000e+00 +1.1499999992214636e+00 -6.3734696876998798e-05 +0.0000000000000000e+00 +9.9999999796894423e-01
1.2000000000000004e+00 +8.2849600975496713e+00 +0.0000000000000000e+00 +1.1999999991154309e+00 -6.6506105243891540e-05 +0.0000000000000000e+00 +9.9999999778846904e-01
1.2500000000000004e+00 +8.2849567029583024e+00 +0.0000000000000000e+00 +1.2499999990001824e+00 -6.9277556875572830e-05 +0.0000000000000000e+00 +9.9999999760031011e-01
1.3000000000000005e+00 +8.2849531697932317e+00 +0.0000000000000000e+00 +1.2999999988753339e+00 -7.2049053591450899e-05 +0.0000000000000000e+00 +9.9999999740446699e-01
1.3500000000000005e+00 +8.2849494980521605e+00 +0.0000000000000000e+00 +1.3499999987405011e+00 -7.4820597206862066e-05 +0.0000000000000000e+00 +9.9999999720093913e-01
1.4000000000000006e+00 +8.2849456877326979e+00 +0.0000000000000000e+00 +1.3999999985952998e+00 -7.7592189533070890e-05 +0.0000000000000000e+00 +9.9999999698972608e-01
1.4500000000000006e+00 +8.2849417388323641e+00 +0.0000000000000000e+00 +1.4499999984393457e+00 -8.0363832377270208e-05 +0.0000000000000000e+00 +9.9999999677082729e-01
1.5000000000000007e+00 +8.2849376513485886e+00 +0.0000000000000000e+00 +1.4999999982722545e+00 -8.3135527542581202e-05 +0.0000000000000000e+00 +9.9999999654424210e-01
1.5500000000000007e+00 +8.2849334252787088e+00 +0.0000000000000000e+00 +1.5499999980936419e+00 -8.5907276828053525e-05 +0.0000000000000000e+00 +9.9999999630996994e-01
1.6000000000000008e+00 +8.2849290606199748e+00 +0.0000000000000000e+00 +1.5999999979031234e+00 -8.8679082028665350e-05 +0.0000000000000000e+00 +9.9999999606801027e-01
1.6500000000000008e+00 +8.2849245573695445e+00 +0.0000000000000000e+00 +1.6499999977003148e+00 -9.1450944935323443e-05 +0.0000000000000000e+00 +9.9999999581836241e-01
1.7000000000000008e+00 +8.2849199155244886e+00 +0.0000000000000000e+00 +1.6999999974848314e+00 -9.4222867334863253e-05 +0.0000000000000000e+00 +9.9999999556102570e-01
1.7500000000000009e+00 +8.2849151350817891e+00 +0.0000000000000000e+00 +1.7499999972562892e+00 -9.6994851010049024e-05 +0.0000000000000000e+00 +9.9999999529599948e-01
1.8000000000000009e+00 +8.2849102160383374e+00 +0.0000000000000000e+00 +1.7999999970143032e+00 -9.9766897739573821e-05 +0.0000000000000000e+00 +9.9999999502328307e-01
1.8500000000000010e+00 +8.2849051583909361e+00 +0.0000000000000000e+00 +1.8499999967584893e+00 -1.0253900929805964e-04 +0.0000000000000000e+00 +9.9999999474287582e-01
1.9000000000000010e+00 +8.2848999621362989e+00 +0.0000000000000000e+00 +1.8999999964884626e+00 -1.0531118745605745e-04 +0.0000000000000000e+00 +9.9999999445477694e-01
1.9500000000000011e+00 +8.2848946272710506e+00 +0.0000000000000000e+00 +1.9499999962038388e+00 -1.0808343398004736e-04 +0.0000000000000000e+00 +9.9999999415898566e-01
2.0000000000000009e+00 +8.2848891537917311e+00 +0.0000000000000000e+00 +1.9999999959042329e+00 -1.1085575063243859e-04 +0.0000000000000000e+00 +9.9999999385550131e-01
2.0500000000000007e+00 +8.2848835416947892e+00 +0.0000000000000000e+00 +2.0499999955892605e+00 -1.1362813917128684e-04 +0.0000000000000000e+00 +9.9999999354432301e-01
2.1000000000000005e+00 +8.2848777909765872e+00 +0.0000000000000000e+00 +2.0999999952585369e+00 -1.1640060134718395e-04 +0.0000000000000000e+00 +9.9999999322544997e-01
2.1500000000000004e+00 +8.2848719016333980e+00 +0.0000000000000000e+00 +2.1499999949116773e+00 -1.1917313890014748e-04 +0.0000000000000000e+00 +9.9999999289888142e-01
2.2000000000000002e+00 +8.2848658736614116e+00 +0.0000000000000000e+00 +2.1999999945482966e+00 -1.2194575355933808e-04 +0.0000000000000000e+00 +9.9999999256461658e-01
2.2500000000000000e+00 +8.2848597070567287e+00 +0.0000000000000000e+00 +2.2499999941680104e+00 -1.2471844704305953e-04 +0.0000000000000000e+00 +9.9999999222265445e-01
2.2999999999999998e+00 +8.2848534018153650e+00 +0.0000000000000000e+00 +2.2999999937704336e+00 -1.2749122105875873e-04 +0.0000000000000000e+00 +9.9999999187299426e-01
2.3499999999999996e+00 +8.2848469579332527e+00 +0.0000000000000000e+00 +2.3499999933551816e+00 -1.3026407730302585e-04 +0.0000000000000000e+00 +9.9999999151563512e-01
2.3999999999999995e+00 +8.2848403754062367e+00 +0.0000000000000000e+00 +2.3999999929218689e+00 -1.3303701746159434e-04 +0.0000000000000000e+00 +9.9999999115057603e-01
2.4499999999999993e+00 +8.2848336542300807e+00 +0.0000000000000000e+00 +2.4499999924701110e+00 -1.3581004320934099e-04 +0.0000000000000000e+00 +9.9999999077781609e-01
2.4999999999999991e+00 +8.2848267944004625e+00 +0.0000000000000000e+00 +2.4999999919995224e+00 -1.3858315621028596e-04 +0.0000000000000000e+00 +9.9999999039735443e-01
2.5499999999999989e+00 +8.2848197959129788e+00 +0.0000000000000000e+00 +2.5499999915097180e+00 -1.4135635811759285e-04 +0.0000000000000000e+00 +9.9999999000919004e-01
2.5999999999999988e+00 +8.2848126587631423e+00 +0.0000000000000000e+00 +2.5999999910003129e+00 -1.4412965057356879e-04 +0.0000000000000000e+00 +9.9999998961332193e-01
2.6499999999999986e+00 +8.2848053829463844e+00 +0.0000000000000000e+00 +2.6499999904709219e+00 -1.4690303520966443e-04 +0.0000000000000000e+00 +9.9999998920974909e-01
2.6999999999999984e+00 +8.2847979684580579e+00 +0.0000000000000000e+00 +2.6999999899211597e+00 -1.4967651364647402e-04 +0.0000000000000000e+00 +9.9999998879847063e-01
2.7499999999999982e+00 +8.2847904152934309e+00 +0.0000000000000000e+00 +2.7499999893506408e+00 -1.5245008749373542e-04 +0.0000000000000000e+00 +9.9999998837948545e-01
2.7999999999999980e+00 +8.2847827234476927e+00 +0.0000000000000000e+00 +2.7999999887589797e+00 -1.5522375835033022e-04 +0.0000000000000000e+00 +9.9999998795279244e-01
2.8499999999999979e+00 +8.2847748929159533e+00 +0.0000000000000000e+00 +2.8499999881457914e+00 -1.5799752780428370e-04 +0.0000000000000000e+00 +9.9999998751839059e-01
2.8999999999999977e+00 +8.2847669236932422e+00 +0.0000000000000000e+00 +2.8999999875106903e+00 -1.6077139743276490e-04 +0.0000000000000000e+00 +9.9999998707627891e-01
2.9499999999999975e+00 +8.2847588157745129e+00 +0.0000000000000000e+00 +2.9499999868532907e+00 -1.6354536880208674e-04 +0.0000000000000000e+00 +9.9999998662645617e-01
2.9999999999999973e+00 +8.2847505691546406e+00 +0.0000000000000000e+00 +2.9999999861732074e+00 -1.6631944346770589e-04 +0.0000000000000000e+00 +9.9999998616892138e-01
3.0499999999999972e+00 +8.2847421838284188e+00 +0.0000000000000000e+00 +3.0499999854700546e+00 -1.6909362297422300e-04 +0.0000000000000000e+00 +9.9999998570367332e-01
3.0999999999999970e+00 +8.2847336597905699e+00 +0.0000000000000000e+00 +3.0999999847434463e+00 -1.7186790885538264e-04 +0.0000000000000000e+00 +9.9999998523071099e-01
3.1499999999999968e+00 +8.2847249970357346e+00 +0.0000000000000000e+00 +3.1499999839929971e+00 -1.7464230263407326e-04 +0.0000000000000000e+00 +9.9999998475003304e-01
3.1999999999999966e+00 +8.2847161955584827e+00 +0.0000000000000000e+00 +3.1999999832183210e+00 -1.7741680582232744e-04 +0.0000000000000000e+00 +9.9999998426163850e-01
3.2499999999999964e+00 +8.2847072553533039e+00 +0.0000000000000000e+00 +3.2499999824190322e+00 -1.8019141992132171e-04 +0.0000000000000000e+00 +9.9999998376552612e-01
3.2999999999999963e+00 +8.2846981764146168e+00 +0.0000000000000000e+00 +3.2999999815947447e+00 -1.8296614642137669e-04 +0.0000000000000000e+00 +9.9999998326169470e-01
3.3499999999999961e+00 +8.2846889587367638e+00 +0.0000000000000000e+00 +3.3499999807450727e+00 -1.8574098680195712e-04 +0.0000000000000000e+00 +9.9999998275014301e-01
3.3999999999999959e+00 +8.2846796023140143e+00 +0.0000000000000000e+00 +3.3999999798696301e+00 -1.8851594253167184e-04 +0.0000000000000000e+00 +9.9999998223086983e-01
3.4499999999999957e+00 +8.2846701071405633e+00 +0.0000000000000000e+00 +3.4499999789680307e+00 -1.9129101506827389e-04 +0.0000000000000000e+00 +9.9999998170387394e-01
3.4999999999999956e+00 +8.2846604732105362e+00 +0.0000000000000000e+00 +3.4999999780398885e+00 -1.9406620585866050e-04 +0.0000000000000000e+00 +9.9999998116915401e-01
3.5499999999999954e+00 +8.2846507005179824e+00 +0.0000000000000000e+00 +3.5499999770848172e+00 -1.9684151633887309e-04 +0.0000000000000000e+00 +9.9999998062670881e-01
3.5999999999999952e+00 +8.2846407890568834e+00 +0.0000000000000000e+00 +3.5999999761024304e+00 -1.9961694793409733e-04 +0.0000000000000000e+00 +9.9999998007653712e-01
3.6499999999999950e+00 +8.2846307388211464e+00 +0.0000000000000000e+00 +3.6499999750923418e+00 -2.0239250205866317e-04 +0.0000000000000000e+00 +9.9999997951863762e-01
3.6999999999999948e+00 +8.2846205498046110e+00 +0.0000000000000000e+00 +3.6999999740541649e+00 -2.0516818011604484e-04 +0.0000000000000000e+00 +9.9999997895300896e-01
3.7499999999999947e+00 +8.2846102220010458e+00 +0.0000000000000000e+00 +3.7499999729875135e+00 -2.0794398349886092e-04 +0.0000000000000000e+00 +9.9999997837964982e-01
3.7999999999999945e+00 +8.2845997554041499e+00 +0.0000000000000000e+00 +3.7999999718920008e+00 -2.1071991358887428e-04 +0.0000000000000000e+00 +9.9999997779855898e-01
3.8499999999999943e+00 +8.2845891500075535e+00 +0.0000000000000000e+00 +3.8499999707672403e+00 -2.1349597175699216e-04 +0.0000000000000000e+00 +9.9999997720973499e-01
3.8999999999999941e+00 +8.2845784058048171e+00 +0.0000000000000000e+00 +3.8999999696128453e+00 -2.1627215936326620e-04 +0.0000000000000000e+00 +9.9999997661317652e-01
3.9499999999999940e+00 +8.2845675227894375e+00 +0.0000000000000000e+00 +3.9499999684284290e+00 -2.1904847775689240e-04 +0.0000000000000000e+00 +9.9999997600888213e-01
3.9999999999999938e+00 +8.2845565009548405e+00 +0.0000000000000000e+00 +3.9999999672136046e+00 -2.2182492827621118e-04 +0.0000000000000000e+00 +9.9999997539685048e-01
4.0499999999999936e+00 +8.2845453402943861e+00 +0.0000000000000000e+00 +4.0499999659679853e+00 -2.2460151224857307e-04 +0.0000000000000000e+00 +9.9999997477708025e-01
4.0999999999999934e+00 +8.2845340408013701e+00 +0.0000000000000000e+00 +4.0999999646911842e+00 -2.2737823098886142e-04 +0.0000000000000000e+00 +9.9999997414956987e-01
4.1499999999999932e+00 +8.2845226024690195e+00 +0.0000000000000000e+00 +4.1499999633828137e+00 -2.3015508579801510e-04 +0.0000000000000000e+00 +9.9999997351431802e-01
4.1999999999999931e+00 +8.2845110252905005e+00 +0.0000000000000000e+00 +4.1999999620424866e+00 -2.3293207796289418e-04 +0.0000000000000000e+00 +9.9999997287132325e-01
4.2499999999999929e+00 +8.2844993092589121e+00 +0.0000000000000000e+00 +4.2499999606698164e+00 -2.3570920875627994e-04 +0.0000000000000000e+00 +9.9999997222058412e-01
4.2999999999999927e+00 +8.2844874543672926e+00 +0.0000000000000000e+00 +4.2999999592644160e+00 -2.3848647943687493e-04 +0.0000000000000000e+00 +9.9999997156209919e-01
4.3499999999999925e+00 +8.2844754606086166e+00 +0.0000000000000000e+00 +4.3499999578258972e+00 -2.4126389124930295e-04 +0.0000000000000000e+00 +9.9999997089586701e-01
4.3999999999999924e+00 +8.2844633279757947e+00 +0.0000000000000000e+00 +4.3999999563538736e+00 -2.4404144542410907e-04 +0.0000000000000000e+00 +9.9999997022188603e-01
4.4499999999999922e+00 +8.2844510564616805e+00 +0.0000000000000000e+00 +4.4499999548479572e+00 -2.4681914317775964e-04 +0.0000000000000000e+00 +9.9999996954015480e-01
4.4999999999999920e+00 +8.2844386460590638e+00 +0.0000000000000000e+00 +4.4999999533077606e+00 -2.4959698571264225e-04 +0.0000000000000000e+00 +9.9999996885067188e-01
4.5499999999999918e+00 +8.2844260967606758e+00 +0.0000000000000000e+00 +4.5499999517328957e+00 -2.5237497421706583e-04 +0.0000000000000000e+00 +9.9999996815343573e-01
4.5999999999999917e+00 +8.2844134085591890e+00 +0.0000000000000000e+00 +4.5999999501229754e+00 -2.5515310986526059e-04 +0.0000000000000000e+00 +9.9999996744844477e-01
4.6499999999999915e+00 +8.2844005814472172e+00 +0.0000000000000000e+00 +4.6499999484776113e+00 -2.5793139381737799e-04 +0.0000000000000000e+00 +9.9999996673569758e-01
4.6999999999999913e+00 +8.2843876154173159e+00 +0.0000000000000000e+00 +4.6999999467964155e+00 -2.6070982721949085e-04 +0.0000000000000000e+00 +9.9999996601519248e-01
4.7499999999999911e+00 +8.2843745104619853e+00 +0.0000000000000000e+00 +4.7499999450790007e+00 -2.6348841120359329e-04 +0.0000000000000000e+00 +9.9999996528692803e-01
4.7999999999999909e+00 +8.2843612665736668e+00 +0.0000000000000000e+00 +4.7999999433249787e+00 -2.6626714688760071e-04 +0.0000000000000000e+00 +9.9999996455090268e-01
4.8499999999999908e+00 +8.2843478837447488e+00 +0.0000000000000000e+00 +4.8499999415339614e+00 -2.6904603537534984e-04 +0.0000000000000000e+00 +9.9999996380711487e-01
4.8999999999999906e+00 +8.2843343619675647e+00 +0.0000000000000000e+00 +4.8999999397055607e+00 -2.7182507775659869e-04 +0.0000000000000000e+00 +9.9999996305556293e-01
4.9499999999999904e+00 +8.2843207012343907e+00 +0.0000000000000000e+00 +4.9499999378393884e+00 -2.7460427510702658e-04 +0.0000000000000000e+00 +9.9999996229624544e-01
4.9999999999999902e+00 +8.2843069015374535e+00 +0.0000000000000000e+00 +4.9999999359350555e+00 -2.7738362848823419e-04 +0.0000000000000000e+00 +9.9999996152916071e-01
5.0499999999999901e+00 +8.2842929628689248e+00 +0.0000000000000000e+00 +5.0499999339921748e+00 -2.8016313894774339e-04 +0.0000000000000000e+00 +9.9999996075430719e-01
5.0999999999999899e+00 +8.2842788852209246e+00 +0.0000000000000000e+00 +5.0999999320103573e+00 -2.8294280751899742e-04 +0.0000000000000000e+00 +9.9999995997168323e-01
5.1499999999999897e+00 +8.2842646685855215e+00 +0.0000000000000000e+00 +5.1499999299892139e+00 -2.8572263522136078e-04 +0.0000000000000000e+00 +9.9999995918128726e-01
5.1999999999999895e+00 +8.2842503129547342e+00 +0.0000000000000000e+00 +5.1999999279283564e+00 -2.8850262306011923e-04 +0.0000000000000000e+00 +9.9999995838311762e-01
5.2499999999999893e+00 +8.2842358183205302e+00 +0.0000000000000000e+00 +5.2499999258273959e+00 -2.9128277202647977e-04 +0.0000000000000000e+00 +9.9999995757717275e-01
5.2999999999999892e+00 +8.2842211846748288e+00 +0.0000000000000000e+00 +5.2999999236859443e+00 -2.9406308309757077e-04 +0.0000000000000000e+00 +9.9999995676345088e-01
5.3499999999999890e+00 +8.2842064120095014e+00 +0.0000000000000000e+00 +5.3499999215036116e+00 -2.9684355723644170e-04 +0.0000000000000000e+00 +9.9999995594195057e-01
5.3999999999999888e+00 +8.2841915003163713e+00 +0.0000000000000000e+00 +5.3999999192800097e+00 -2.9962419539206339e-04 +0.0000000000000000e+00 +9.9999995511267004e-01
5.4499999999999886e+00 +8.2841764495872141e+00 +0.0000000000000000e+00 +5.4499999170147486e+00 -3.0240499849932780e-04 +0.0000000000000000e+00 +9.9999995427560762e-01
5.4999999999999885e+00 +8.2841612598137573e+00 +0.0000000000000000e+00 +5.4999999147074403e+00 -3.0518596747904818e-04 +0.0000000000000000e+00 +9.9999995343076176e-01
5.5499999999999883e+00 +8.2841459309876857e+00 +0.0000000000000000e+00 +5.5499999123576949e+00 -3.0796710323795890e-04 +0.0000000000000000e+00 +9.9999995257813079e-01
5.5999999999999881e+00 +8.2841304631006381e+00 +0.0000000000000000e+00 +5.5999999099651232e+00 -3.1074840666871553e-04 +0.0000000000000000e+00 +9.9999995171771294e-01
5.6499999999999879e+00 +8.2841148561442086e+00 +0.0000000000000000e+00 +5.6499999075293363e+00 -3.1352987864989476e-04 +0.0000000000000000e+00 +9.9999995084950666e-01
5.6999999999999877e+00 +8.2840991101099490e+00 +0.0000000000000000e+00 +5.6999999050499444e+00 -3.1631152004599450e-04 +0.0000000000000000e+00 +9.9999994997351016e-01
5.7499999999999876e+00 +8.2840832249893666e+00 +0.0000000000000000e+00 +5.7499999025265573e+00 -3.1909333170743366e-04 +0.0000000000000000e+00 +9.9999994908972178e-01
5.7999999999999874e+00 +8.2840672007739276e+00 +0.0000000000000000e+00 +5.7999998999587863e+00 -3.2187531447055236e-04 +0.0000000000000000e+00 +9.9999994819813987e-01
5.8499999999999872e+00 +8.2840510374550558e+00 +0.0000000000000000e+00 +5.8499998973462413e+00 -3.2465746915761169e-04 +0.0000000000000000e+00 +9.9999994729876274e-01
5.8999999999999870e+00 +8.2840347350241341e+00 +0.0000000000000000e+00 +5.8999998946885324e+00 -3.2743979657679390e-04 +0.0000000000000000e+00 +9.9999994639158862e-01
