# field on trajectory
# s[mm] rx[mm] ry[mm] rz[mm] bx[T] by[T] bz[T]
0.0000000000000000e+00 +8.5980000000000008e+00 +0.0000000000000000e+00 +0.0000000000000000e+00 -2.9024941742333735e-02 -5.5374839800848918e-01 +5.5923075323562402e-03
5.0000000000000003e-02 +8.5979999308494879e+00 +0.0000000000000000e+00 +4.9999999999936241e-02 -2.9024554865142931e-02 -5.5374867662857341e-01 +5.5921417660773970e-03
1.0000000000000001e-01 +8.5979997233978906e+00 +0.0000000000000000e+00 +9.9999999999489941e-02 -2.9024187876550069e-02 -5.5374930779070808e-01 +5.5919796276659578e-03
1.5000000000000002e-01 +8.5979993776450492e+00 +0.0000000000000000e+00 +1.4999999999827857e-01 -2.9023840732156490e-02 -5.5375029076400373e-01 +5.5918211115584997e-03
2.0000000000000001e-01 +8.5979988935907201e+00 +0.0000000000000000e+00 +1.9999999999591955e-01 -2.9023513387565106e-02 -5.5375162481758755e-01 +5.5916662121917029e-03
2.5000000000000000e-01 +8.5979982712345695e+00 +0.0000000000000000e+00 +2.4999999999203035e-01 -2.9023205798380237e-02 -5.5375330922060295e-01 +5.5915149240023483e-03
2.9999999999999999e-01 +8.5979975105761763e+00 +0.0000000000000000e+00 +2.9999999998622839e-01 -2.9022917920207600e-02 -5.5375534324221043e-01 +5.5913672414273320e-03
3.4999999999999998e-01 +8.5979966116150326e+00 +0.0000000000000000e+00 +3.4999999997813114e-01 -2.9022649708654192e-02 -5.5375772615158669e-01 +5.5912231589036613e-03
3.9999999999999997e-01 +8.5979955743505432e+00 +0.0000000000000000e+00 +3.9999999996735602e-01 -2.9022401119328276e-02 -5.5376045721792511e-01 +5.5910826708684752e-03
4.4999999999999996e-01 +8.5979943987820260e+00 +0.0000000000000000e+00 +4.4999999995352047e-01 -2.9022172107839261e-02 -5.5376353571043480e-01 +5.5909457717590368e-03
4.9999999999999994e-01 +8.5979930849087118e+00 +0.0000000000000000e+00 +4.9999999993624189e-01 -2.9021962629797716e-02 -5.5376696089834176e-01 +5.5908124560127533e-03
5.4999999999999993e-01 +8.5979916327297463e+00 +0.0000000000000000e+00 +5.4999999991513771e-01 -2.9021772640815204e-02 -5.5377073205088745e-01 +5.5906827180671661e-03
5.9999999999999998e-01 +8.5979900422441862e+00 +0.0000000000000000e+00 +5.9999999988982533e-01 -2.9021602096504302e-02 -5.5377484843733038e-01 +5.5905565523599772e-03
6.5000000000000002e-01 +8.5979883134510047e+00 +0.0000000000000000e+00 +6.4999999985992218e-01 -2.9021450952478479e-02 -5.5377930932694364e-01 +5.5904339533290352e-03
7.0000000000000007e-01 +8.5979864463490863e+00 +0.0000000000000000e+00 +6.9999999982504557e-01 -2.9021319164352018e-02 -5.5378411398901739e-01 +5.5903149154123595e-03
7.5000000000000011e-01 +8.5979844409372319e+00 +0.0000000000000000e+00 +7.4999999978481291e-01 -2.9021206687740046e-02 -5.5378926169285680e-01 +5.5901994330481318e-03
8.0000000000000016e-01 +8.5979822972141573e+00 +0.0000000000000000e+00 +7.9999999973884151e-01 -2.9021113478258358e-02 -5.5379475170778325e-01 +5.5900875006747149e-03
8.5000000000000020e-01 +8.5979800151784893e+00 +0.0000000000000000e+00 +8.4999999968674866e-01 -2.9021039491523397e-02 -5.5380058330313364e-01 +5.5899791127306522e-03
9.0000000000000024e-01 +8.5979775948287731e+00 +0.0000000000000000e+00 +8.9999999962815180e-01 -2.9020984683152205e-02 -5.5380675574825988e-01 +5.5898742636546735e-03
9.5000000000000029e-01 +8.5979750361634650e+00 +0.0000000000000000e+00 +9.4999999956266823e-01 -2.9020949008762301e-02 -5.5381326831253008e-01 +5.5897729478857029e-03
1.0000000000000002e+00 +8.5979723391809397e+00 +0.0000000000000000e+00 +9.9999999948991514e-01 -2.9020932423971711e-02 -5.5382012026532712e-01 +5.5896751598628709e-03
1.0500000000000003e+00 +8.5979695038794866e+00 +0.0000000000000000e+00 +1.0499999994095099e+00 -2.9020934884398761e-02 -5.5382731087604942e-01 +5.5895808940255153e-03
1.1000000000000003e+00 +8.5979665302573096e+00 +0.0000000000000000e+00 +1.0999999993210696e+00 -2.9020956345662173e-02 -5.5383483941411049e-01 +5.5894901448131839e-03
1.1500000000000004e+00 +8.5979634183125278e+00 +0.0000000000000000e+00 +1.1499999992242116e+00 -2.9020996763380855e-02 -5.5384270514893930e-01 +5.5894029066656499e-03
1.2000000000000004e+00 +8.5979601680431763e+00 +0.0000000000000000e+00 +1.1999999991185530e+00 -2.9021056093173930e-02 -5.5385090734997910e-01 +5.5893191740229052e-03
1.2500000000000004e+00 +8.5979567794472089e+00 +0.0000000000000000e+00 +1.2499999990037112e+00 -2.9021134290660607e-02 -5.5385944528668840e-01 +5.5892389413251869e-03
1.3000000000000005e+00 +8.5979532525224904e+00 +0.0000000000000000e+00 +1.2999999988793032e+00 -2.9021231311460179e-02 -5.5386831822854132e-01 +5.5891622030129692e-03
1.3500000000000005e+00 +8.5979495872668075e+00 +0.0000000000000000e+00 +1.3499999987449463e+00 -2.9021347111191913e-02 -5.5387752544502566e-01 +5.5890889535269665e-03
1.4000000000000006e+00 +8.5979457836778579e+00 +0.0000000000000000e+00 +1.3999999986002574e+00 -2.9021481645474960e-02 -5.5388706620564387e-01 +5.5890191873081514e-03
1.4500000000000006e+00 +8.5979418417532614e+00 +0.0000000000000000e+00 +1.4499999984448537e+00 -2.9021634869928363e-02 -5.5389693977991372e-01 +5.5889528987977553e-03
1.5000000000000007e+00 +8.5979377614905506e+00 +0.0000000000000000e+00 +1.4999999982783523e+00 -2.9021806740170918e-02 -5.5390714543736719e-01 +5.5888900824372766e-03
1.5500000000000007e+00 +8.5979335428871764e+00 +0.0000000000000000e+00 +1.5499999981003703e+00 -2.9021997211821172e-02 -5.5391768244755069e-01 +5.5888307326684861e-03
1.6000000000000008e+00 +8.5979291859405080e+00 +0.0000000000000000e+00 +1.5999999979105244e+00 -2.9022206240497280e-02 -5.5392855008002462e-01 +5.5887748439334278e-03
1.6500000000000008e+00 +8.5979246906478313e+00 +0.0000000000000000e+00 +1.6499999977084319e+00 -2.9022433781817004e-02 -5.5393974760436371e-01 +5.5887224106744415e-03
1.7000000000000008e+00 +8.5979200570063483e+00 +0.0000000000000000e+00 +1.6999999974937097e+00 -2.9022679791397634e-02 -5.5395127429015756e-01 +5.5886734273341478e-03
1.7500000000000009e+00 +8.5979152850131815e+00 +0.0000000000000000e+00 +1.7499999972659745e+00 -2.9022944224855914e-02 -5.5396312940700887e-01 +5.5886278883554748e-03
1.8000000000000009e+00 +8.5979103746653696e+00 +0.0000000000000000e+00 +1.7999999970248435e+00 -2.9023227037807929e-02 -5.5397531222453489e-01 +5.5885857881816459e-03
1.8500000000000010e+00 +8.5979053259598714e+00 +0.0000000000000000e+00 +1.8499999967699332e+00 -2.9023528185869153e-02 -5.5398782201236663e-01 +5.5885471212562083e-03
1.9000000000000010e+00 +8.5979001388935608e+00 +0.0000000000000000e+00 +1.8999999965008607e+00 -2.9023847624654264e-02 -5.5400065804014875e-01 +5.5885118820230154e-03
1.9500000000000011e+00 +8.5978948134632329e+00 +0.0000000000000000e+00 +1.9499999962172427e+00 -2.9024185309777122e-02 -5.5401381957753981e-01 +5.5884800649262448e-03
2.0000000000000009e+00 +8.5978893496655999e+00 +0.0000000000000000e+00 +1.9999999959186960e+00 -2.9024541196850752e-02 -5.5402730589421212e-01 +5.5884516644104159e-03
2.0500000000000007e+00 +8.5978837474972938e+00 +0.0000000000000000e+00 +2.0499999956048374e+00 -2.9024915238619154e-02 -5.5404111603896600e-01 +5.5884266699823782e-03
2.1000000000000005e+00 +8.5978780069548648e+00 +0.0000000000000000e+00 +2.0999999952752830e+00 -2.9025307376353598e-02 -5.5405524817707386e-01 +5.5884050513972747e-03
2.1500000000000004e+00 +8.5978721280347852e+00 +0.0000000000000000e+00 +2.1499999949296500e+00 -2.9025717548457383e-02 -5.5406970025293378e-01 +5.5883867734723980e-03
2.2000000000000002e+00 +8.5978661107334453e+00 +0.0000000000000000e+00 +2.1999999945675550e+00 -2.9026145693334015e-02 -5.5408447021095486e-01 +5.5883718010251680e-03
2.2500000000000000e+00 +8.5978599550471557e+00 +0.0000000000000000e+00 +2.2499999941886144e+00 -2.9026591749387192e-02 -5.5409955599555671e-01 +5.5883600988731203e-03
2.2999999999999998e+00 +8.5978536609721488e+00 +0.0000000000000000e+00 +2.2999999937924445e+00 -2.9027055655020829e-02 -5.5411495555116896e-01 +5.5883516318339099e-03
2.3499999999999996e+00 +8.5978472285045786e+00 +0.0000000000000000e+00 +2.3499999933786619e+00 -2.9027537348639058e-02 -5.5413066682223222e-01 +5.5883463647252926e-03
2.3999999999999995e+00 +8.5978406576405213e+00 +0.0000000000000000e+00 +2.3999999929468836e+00 -2.9028036768646234e-02 -5.5414668775319620e-01 +5.5883442623651308e-03
2.4499999999999993e+00 +8.5978339483759747e+00 +0.0000000000000000e+00 +2.4499999924967253e+00 -2.9028553853446958e-02 -5.5416301628852049e-01 +5.5883452895713753e-03
2.4999999999999991e+00 +8.5978271007068621e+00 +0.0000000000000000e+00 +2.4999999920278038e+00 -2.9029088541446042e-02 -5.5417965037267403e-01 +5.5883494111620665e-03
2.5499999999999989e+00 +8.5978201146290285e+00 +0.0000000000000000e+00 +2.5499999915397349e+00 -2.9029640771048616e-02 -5.5419658795013593e-01 +5.5883565919553303e-03
2.5999999999999988e+00 +8.5978129901382445e+00 +0.0000000000000000e+00 +2.5999999910321354e+00 -2.9030210480659967e-02 -5.5421382696539279e-01 +5.5883667967693588e-03
2.6499999999999986e+00 +8.5978057272302042e+00 +0.0000000000000000e+00 +2.6499999905046212e+00 -2.9030797608685741e-02 -5.5423136536294149e-01 +5.5883799904224195e-03
2.6999999999999984e+00 +8.5977983259005271e+00 +0.0000000000000000e+00 +2.6999999899568086e+00 -2.9031402093531805e-02 -5.5424920108728615e-01 +5.5883961377328432e-03
2.7499999999999982e+00 +8.5977907861447598e+00 +0.0000000000000000e+00 +2.7499999893883134e+00 -2.9032023873604325e-02 -5.5426733208294032e-01 +5.5884152035190118e-03
2.7999999999999980e+00 +8.5977831079583726e+00 +0.0000000000000000e+00 +2.7999999887987519e+00 -2.9032662887309754e-02 -5.5428575629442467e-01 +5.5884371525993575e-03
2.8499999999999979e+00 +8.5977752913367649e+00 +0.0000000000000000e+00 +2.8499999881877400e+00 -2.9033319073054838e-02 -5.5430447166626873e-01 +5.5884619497923579e-03
2.8999999999999977e+00 +8.5977673362752629e+00 +0.0000000000000000e+00 +2.8999999875548941e+00 -2.9033992369246631e-02 -5.5432347614300859e-01 +5.5884895599165258e-03
2.9499999999999975e+00 +8.5977592427691203e+00 +0.0000000000000000e+00 +2.9499999868998299e+00 -2.9034682714292520e-02 -5.5434276766918877e-01 +5.5885199477904070e-03
2.9999999999999973e+00 +8.5977510108135178e+00 +0.0000000000000000e+00 +2.9999999862221629e+00 -2.9035390046600197e-02 -5.5436234418936081e-01 +5.5885530782325667e-03
3.0499999999999972e+00 +8.5977426404035668e+00 +0.0000000000000000e+00 +3.0499999855215094e+00 -2.9036114304577663e-02 -5.5438220364808255e-01 +5.5885889160615931e-03
3.0999999999999970e+00 +8.5977341315343079e+00 +0.0000000000000000e+00 +3.0999999847974848e+00 -2.9036855426633281e-02 -5.5440234398991894e-01 +5.5886274260960782e-03
3.1499999999999968e+00 +8.5977254842007103e+00 +0.0000000000000000e+00 +3.1499999840497050e+00 -2.9037613351175780e-02 -5.5442276315944250e-01 +5.5886685731546294e-03
3.1999999999999966e+00 +8.5977166983976758e+00 +0.0000000000000000e+00 +3.1999999832777859e+00 -2.9038388016614194e-02 -5.5444345910122983e-01 +5.5887123220558421e-03
3.2499999999999964e+00 +8.5977077741200354e+00 +0.0000000000000000e+00 +3.2499999824813428e+00 -2.9039179361357956e-02 -5.5446442975986598e-01 +5.5887586376183115e-03
3.2999999999999963e+00 +8.5976987113625505e+00 +0.0000000000000000e+00 +3.2999999816599912e+00 -2.9039987323816852e-02 -5.5448567307994001e-01 +5.5888074846606158e-03
3.3499999999999961e+00 +8.5976895101199151e+00 +0.0000000000000000e+00 +3.3499999808133465e+00 -2.9040811842401041e-02 -5.5450718700604795e-01 +5.5888588280013094e-03
3.3999999999999959e+00 +8.5976801703867576e+00 +0.0000000000000000e+00 +3.3999999799410245e+00 -2.9041652855521089e-02 -5.5452896948279018e-01 +5.5889126324589278e-03
3.4499999999999957e+00 +8.5976706921576369e+00 +0.0000000000000000e+00 +3.4499999790426403e+00 -2.9042510301587922e-02 -5.5455101845477262e-01 +5.5889688628519641e-03
3.4999999999999956e+00 +8.5976610754270464e+00 +0.0000000000000000e+00 +3.4999999781178093e+00 -2.9043384119012902e-02 -5.5457333186660651e-01 +5.5890274839988782e-03
3.5499999999999954e+00 +8.5976513201894154e+00 +0.0000000000000000e+00 +3.5499999771661468e+00 -2.9044274246207782e-02 -5.5459590766290756e-01 +5.5890884607180825e-03
3.5999999999999952e+00 +8.5976414264391021e+00 +0.0000000000000000e+00 +3.5999999761872679e+00 -2.9045180621584732e-02 -5.5461874378829557e-01 +5.5891517578279355e-03
3.6499999999999950e+00 +8.5976313941704063e+00 +0.0000000000000000e+00 +3.6499999751807879e+00 -2.9046103183556351e-02 -5.5464183818739532e-01 +5.5892173401467394e-03
3.6999999999999948e+00 +8.5976212233775584e+00 +0.0000000000000000e+00 +3.6999999741463214e+00 -2.9047041870535664e-02 -5.5466518880483473e-01 +5.5892851724927261e-03
3.7499999999999947e+00 +8.5976109140547265e+00 +0.0000000000000000e+00 +3.7499999730834839e+00 -2.9047996620936139e-02 -5.5468879358524681e-01 +5.5893552196840642e-03
3.7999999999999945e+00 +8.5976004661960168e+00 +0.0000000000000000e+00 +3.7999999719918902e+00 -2.9048967373171711e-02 -5.5471265047326734e-01 +5.5894274465388373e-03
3.8499999999999943e+00 +8.5975898797954695e+00 +0.0000000000000000e+00 +3.8499999708711554e+00 -2.9049954065656764e-02 -5.5473675741353512e-01 +5.5895018178750491e-03
3.8999999999999941e+00 +8.5975791548470646e+00 +0.0000000000000000e+00 +3.8999999697208940e+00 -2.9050956636806114e-02 -5.5476111235069281e-01 +5.5895782985106073e-03
3.9499999999999940e+00 +8.5975682913447198e+00 +0.0000000000000000e+00 +3.9499999685407210e+00 -2.9051975025035079e-02 -5.5478571322938541e-01 +5.5896568532633299e-03
3.9999999999999938e+00 +8.5975572892822907e+00 +0.0000000000000000e+00 +3.9999999673302513e+00 -2.9053009168759476e-02 -5.5481055799426160e-01 +5.5897374469509277e-03
4.0499999999999936e+00 +8.5975461486535725e+00 +0.0000000000000000e+00 +4.0499999660890991e+00 -2.9054058975219423e-02 -5.5483564451425627e-01 +5.5898200477942387e-03
4.0999999999999934e+00 +8.5975348694522999e+00 +0.0000000000000000e+00 +4.0999999648168792e+00 -2.9055124226951147e-02 -5.5486097035544779e-01 +5.5899046376270255e-03
4.1499999999999932e+00 +8.5975234516721475e+00 +0.0000000000000000e+00 +4.1499999635132063e+00 -2.9056204675316298e-02 -5.5488653300820212e-01 +5.5899912016863368e-03
4.1999999999999931e+00 +8.5975118953067309e+00 +0.0000000000000000e+00 +4.1999999621776949e+00 -2.9057300071678265e-02 -5.5491232996288820e-01 +5.5900797252092620e-03
4.2499999999999929e+00 +8.5975002003496073e+00 +0.0000000000000000e+00 +4.2499999608099586e+00 -2.9058410167402356e-02 -5.5493835870987684e-01 +5.5901701934329374e-03
4.2999999999999927e+00 +8.5974883667942770e+00 +0.0000000000000000e+00 +4.2999999594096119e+00 -2.9059534713855712e-02 -5.5496461673954212e-01 +5.5902625915945463e-03
4.3499999999999925e+00 +8.5974763946341817e+00 +0.0000000000000000e+00 +4.3499999579762694e+00 -2.9060673462407496e-02 -5.5499110154226017e-01 +5.5903569049313030e-03
4.3999999999999924e+00 +8.5974642838627062e+00 +0.0000000000000000e+00 +4.3999999565095456e+00 -2.9061826164428806e-02 -5.5501781060840882e-01 +5.5904531186804747e-03
4.4499999999999922e+00 +8.5974520344731804e+00 +0.0000000000000000e+00 +4.4499999550090541e+00 -2.9062992571292780e-02 -5.5504474142836790e-01 +5.5905512180793593e-03
4.4999999999999920e+00 +8.5974396464588789e+00 +0.0000000000000000e+00 +4.4999999534744095e+00 -2.9064172434374678e-02 -5.5507189149251868e-01 +5.5906511883652950e-03
4.5499999999999918e+00 +8.5974271198130197e+00 +0.0000000000000000e+00 +4.5499999519052245e+00 -2.9065365505051840e-02 -5.5509925829124496e-01 +5.5907530147756637e-03
4.5999999999999917e+00 +8.5974144545287690e+00 +0.0000000000000000e+00 +4.5999999503011146e+00 -2.9066571534703815e-02 -5.5512683931492990e-01 +5.5908566825478680e-03
4.6499999999999915e+00 +8.5974016505992381e+00 +0.0000000000000000e+00 +4.6499999486616925e+00 -2.9067790274712357e-02 -5.5515463205395899e-01 +5.5909621769193608e-03
4.6999999999999913e+00 +8.5973887080174869e+00 +0.0000000000000000e+00 +4.6999999469865719e+00 -2.9069021476461496e-02 -5.5518263399871892e-01 +5.5910694831276114e-03
4.7499999999999911e+00 +8.5973756267765200e+00 +0.0000000000000000e+00 +4.7499999452753672e+00 -2.9070264891337575e-02 -5.5521084263959553e-01 +5.5911785864101362e-03
4.7999999999999909e+00 +8.5973624068692942e+00 +0.0000000000000000e+00 +4.7999999435276912e+00 -2.9071520270729304e-02 -5.5523925546697672e-01 +5.5912894720044721e-03
4.8499999999999908e+00 +8.5973490482887129e+00 +0.0000000000000000e+00 +4.8499999417431585e+00 -2.9072787366027773e-02 -5.5526786997124933e-01 +5.5914021251481892e-03
4.8999999999999906e+00 +8.5973355510276281e+00 +0.0000000000000000e+00 +4.8999999399213818e+00 -2.9074065928626543e-02 -5.5529668364280127e-01 +5.5915165310788861e-03
4.9499999999999904e+00 +8.5973219150788456e+00 +0.0000000000000000e+00 +4.9499999380619748e+00 -2.9075355709921695e-02 -5.5532569397201992e-01 +5.5916326750341840e-03
4.9999999999999902e+00 +8.5973081404351195e+00 +0.0000000000000000e+00 +4.9999999361645511e+00 -2.9076656461311794e-02 -5.5535489844929209e-01 +5.5917505422517335e-03
5.0499999999999901e+00 +8.5972942270891544e+00 +0.0000000000000000e+00 +5.0499999342287234e+00 -2.9077967934198059e-02 -5.5538429456500438e-01 +5.5918701179692052e-03
5.0999999999999899e+00 +8.5972801750336103e+00 +0.0000000000000000e+00 +5.0999999322541045e+00 -2.9079289879984309e-02 -5.5541387980954238e-01 +5.5919913874242959e-03
5.1499999999999897e+00 +8.5972659842610977e+00 +0.0000000000000000e+00 +5.1499999302403081e+00 -2.9080622050077057e-02 -5.5544365167329168e-01 +5.5921143358547256e-03
5.1999999999999895e+00 +8.5972516547641824e+00 +0.0000000000000000e+00 +5.1999999281869469e+00 -2.9081964195885553e-02 -5.5547360764663523e-01 +5.5922389484982255e-03
5.2499999999999893e+00 +8.5972371865353825e+00 +0.0000000000000000e+00 +5.2499999260936345e+00 -2.9083316068821804e-02 -5.5550374521995560e-01 +5.5923652105925566e-03
5.2999999999999892e+00 +8.5972225795671697e+00 +0.0000000000000000e+00 +5.2999999239599829e+00 -2.9084677420300634e-02 -5.5553406188363397e-01 +5.5924931073754926e-03
5.3499999999999890e+00 +8.5972078338519733e+00 +0.0000000000000000e+00 +5.3499999217856056e+00 -2.9086048001739792e-02 -5.5556455512804981e-01 +5.5926226240848222e-03
5.3999999999999888e+00 +8.5971929493821779e+00 +0.0000000000000000e+00 +5.3999999195701154e+00 -2.9087427564559856e-02 -5.5559522244357962e-01 +5.5927537459583496e-03
5.4499999999999886e+00 +8.5971779261501240e+00 +0.0000000000000000e+00 +5.4499999173131242e+00 -2.9088815860184421e-02 -5.5562606132059933e-01 +5.5928864582338988e-03
5.4999999999999885e+00 +8.5971627641481110e+00 +0.0000000000000000e+00 +5.4999999150142447e+00 -2.9090212640040063e-02 -5.5565706924948144e-01 +5.5930207461492966e-03
5.5499999999999883e+00 +8.5971474633683940e+00 +0.0000000000000000e+00 +5.5499999126730897e+00 -2.9091617655556457e-02 -5.5568824372059678e-01 +5.5931565949423889e-03
5.5999999999999881e+00 +8.5971320238031854e+00 +0.0000000000000000e+00 +5.5999999102892719e+00 -2.9093030658166298e-02 -5.5571958222431250e-01 +5.5932939898510293e-03
5.6499999999999879e+00 +8.5971164454446605e+00 +0.0000000000000000e+00 +5.6499999078624032e+00 -2.9094451399305488e-02 -5.5575108225099379e-01 +5.5934329161130766e-03
5.6999999999999877e+00 +8.5971007282849516e+00 +0.0000000000000000e+00 +5.6999999053920964e+00 -2.9095879630413105e-02 -5.5578274129100258e-01 +5.5935733589664019e-03
5.7499999999999876e+00 +8.5970848723161524e+00 +0.0000000000000000e+00 +5.7499999028779625e+00 -2.9097315102931443e-02 -5.5581455683469705e-01 +5.5937153036488777e-03
5.7999999999999874e+00 +8.5970688775303152e+00 +0.0000000000000000e+00 +5.7999999003196150e+00 -2.9098757568306127e-02 -5.5584652637243226e-01 +5.5938587353983890e-03
5.8499999999999872e+00 +8.5970527439194573e+00 +0.0000000000000000e+00 +5.8499998977166650e+00 -2.9100206777986064e-02 -5.5587864739455961e-01 +5.5940036394528155e-03
5.8999999999999870e+00 +8.5970364714755565e+00 +0.0000000000000000e+00 +5.8999998950687242e+00 -2.9101662483423569e-02 -5.5591091739142617e-01 +5.5941500010500455e-03
