# field on trajectory
# s[mm] rx[mm] ry[mm] rz[mm] bx[T] by[T] bz[T]
-0.0000000000000000e+00 +8.5270000000000206e+00 +0.0000000000000000e+00 -0.0000000000000000e+00 -2.9207537420910035e-02 -5.5107919294564001e-01 +5.5781675367833662e-03
-5.0000000000000003e-02 +8.5269999273587000e+00 +0.0000000000000000e+00 -5.1282051281982703e-02 -2.9207923898737935e-02 -5.5108072925133822e-01 +5.5772616364808498e-03
-1.0000000000000001e-01 +8.5269997094401297e+00 +0.0000000000000000e+00 -1.0256410256355400e-01 -2.9208334284872413e-02 -5.5108265789617550e-01 +5.5763514489698121e-03
-1.4999999999999999e-01 +8.5269993462388793e+00 +0.0000000000000000e+00 -1.5384615384430200e-01 -2.9208768160305432e-02 -5.5108497788159838e-01 +5.5754369840909672e-03
-2.0000000000000001e-01 +8.5269988377622195e+00 +0.0000000000000000e+00 -2.0512820512381499e-01 -2.9209225106025204e-02 -5.5108768820898035e-01 +5.5745182516837776e-03
-2.5000000000000000e-01 +8.5269981840028795e+00 +0.0000000000000000e+00 -2.5641025640168202e-01 -2.9209704703027223e-02 -5.5109078787981725e-01 +5.5735952615885865e-03
-2.9999999999999999e-01 +8.5269973849644902e+00 +0.0000000000000000e+00 -3.0769230767749101e-01 -2.9210206532303742e-02 -5.5109427589554272e-01 +5.5726680236446186e-03
-3.4999999999999998e-01 +8.5269964406470500e+00 +0.0000000000000000e+00 -3.5897435895083102e-01 -2.9210730174849694e-02 -5.5109815125763462e-01 +5.5717365476911345e-03
-4.0000000000000002e-01 +8.5269953510505694e+00 +0.0000000000000000e+00 -4.1025641022129000e-01 -2.9211275211661131e-02 -5.5110241296758844e-01 +5.5708008435671396e-03
-4.5000000000000001e-01 +8.5269941161714105e+00 +0.0000000000000000e+00 -4.6153846148845601e-01 -2.9211841223736556e-02 -5.5110706002694254e-01 +5.5698609211116672e-03
-5.0000000000000000e-01 +8.5269927360132005e+00 +0.0000000000000000e+00 -5.1282051275191798e-01 -2.9212427792072525e-02 -5.5111209143720086e-01 +5.5689167901629404e-03
-5.5000000000000004e-01 +8.5269912105795793e+00 +0.0000000000000000e+00 -5.6410256401126402e-01 -2.9213034497666452e-02 -5.5111750619988376e-01 +5.5679684605589299e-03
-5.9999999999999998e-01 +8.5269895398632798e+00 +0.0000000000000000e+00 -6.1538461526608301e-01 -2.9213660921520959e-02 -5.5112330331660886e-01 +5.5670159421382179e-03
-6.5000000000000002e-01 +8.5269877238679292e+00 +0.0000000000000000e+00 -6.6666666651596296e-01 -2.9214306644634997e-02 -5.5112948178893084e-01 +5.5660592447382808e-03
-6.9999999999999996e-01 +8.5269857625899004e+00 +0.0000000000000000e+00 -7.1794871776049296e-01 -2.9214971248011139e-02 -5.5113604061847532e-01 +5.5650983781969365e-03
-7.5000000000000000e-01 +8.5269836560364602e+00 +0.0000000000000000e+00 -7.6923076899926102e-01 -2.9215654312648037e-02 -5.5114297880680563e-01 +5.5641333523508982e-03
-8.0000000000000004e-01 +8.5269814042003400e+00 +0.0000000000000000e+00 -8.2051282023185501e-01 -2.9216355419550817e-02 -5.5115029535560756e-01 +5.5631641770377879e-03
-8.4999999999999998e-01 +8.5269790070851705e+00 +0.0000000000000000e+00 -8.7179487145786405e-01 -2.9217074149720607e-02 -5.5115798926650528e-01 +5.5621908620941329e-03
-9.0000000000000002e-01 +8.5269764646909607e+00 +0.0000000000000000e+00 -9.2307692267687602e-01 -2.9217810084160294e-02 -5.5116605954116660e-01 +5.5612134173565154e-03
-9.4999999999999996e-01 +8.5269737770140601e+00 +0.0000000000000000e+00 -9.7435897388848103e-01 -2.9218562803874588e-02 -5.5117450518130262e-01 +5.5602318526615695e-03
-1.0000000000000000e+00 +8.5269709440617607e+00 +0.0000000000000000e+00 -1.0256410250922601e+00 -2.9219331889863951e-02 -5.5118332518856172e-01 +5.5592461778448477e-03
-1.0500000000000000e+00 +8.5269679658304103e+00 +0.0000000000000000e+00 -1.0769230762878199e+00 -2.9220116923133397e-02 -5.5119251856469009e-01 +5.5582564027425313e-03
-1.1000000000000001e+00 +8.5269648423163709e+00 +0.0000000000000000e+00 -1.1282051274747300e+00 -2.9220917484688025e-02 -5.5120208431144979e-01 +5.5572625371905658e-03
-1.1499999999999999e+00 +8.5269615735232893e+00 +0.0000000000000000e+00 -1.1794871786525800e+00 -2.9221733155529922e-02 -5.5121202143056680e-01 +5.5562645910241194e-03
-1.2000000000000000e+00 +8.5269581594511692e+00 +0.0000000000000000e+00 -1.2307692298209700e+00 -2.9222563516662556e-02 -5.5122232892381196e-01 +5.5552625740784168e-03
-1.2500000000000000e+00 +8.5269546000999998e+00 +0.0000000000000000e+00 -1.2820512809794800e+00 -2.9223408149089247e-02 -5.5123300579297185e-01 +5.5542564961884588e-03
-1.3000000000000000e+00 +8.5269508954661397e+00 +0.0000000000000000e+00 -1.3333333321277101e+00 -2.9224266633814562e-02 -5.5124405103987706e-01 +5.5532463671893201e-03
-1.3500000000000001e+00 +8.5269470455568808e+00 +0.0000000000000000e+00 -1.3846153832652299e+00 -2.9225138551838285e-02 -5.5125546366629541e-01 +5.5522321969150102e-03
-1.3999999999999999e+00 +8.5269430503649293e+00 +0.0000000000000000e+00 -1.4358974343916400e+00 -2.9226023484165725e-02 -5.5126724267411797e-01 +5.5512139952004552e-03
-1.4500000000000000e+00 +8.5269389098939392e+00 +0.0000000000000000e+00 -1.4871794855065199e+00 -2.9226921011797285e-02 -5.5127938706517277e-01 +5.5501917718795207e-03
-1.5000000000000000e+00 +8.5269346241439106e+00 +0.0000000000000000e+00 -1.5384615366094700e+00 -2.9227830715734308e-02 -5.5129189584133165e-01 +5.5491655367861476e-03
-1.5500000000000000e+00 +8.5269301931148203e+00 +0.0000000000000000e+00 -1.5897435877000701e+00 -2.9228752176977520e-02 -5.5130476800448314e-01 +5.5481352997540723e-03
-1.6000000000000001e+00 +8.5269256168030605e+00 +0.0000000000000000e+00 -1.6410256387779201e+00 -2.9229684976528433e-02 -5.5131800255655861e-01 +5.5471010706171046e-03
-1.6499999999999999e+00 +8.5269208952158806e+00 +0.0000000000000000e+00 -1.6923076898425899e+00 -2.9230628695383353e-02 -5.5133159849942803e-01 +5.5460628592080103e-03
-1.7000000000000000e+00 +8.5269160283460206e+00 +0.0000000000000000e+00 -1.7435897408936800e+00 -2.9231582914543659e-02 -5.5134555483508296e-01 +5.5450206753604771e-03
-1.7500000000000000e+00 +8.5269110161934805e+00 +0.0000000000000000e+00 -1.7948717919307799e+00 -2.9232547215006847e-02 -5.5135987056547886e-01 +5.5439745289074336e-03
-1.8000000000000000e+00 +8.5269058587655309e+00 +0.0000000000000000e+00 -1.8461538429534701e+00 -2.9233521177766474e-02 -5.5137454469253588e-01 +5.5429244296810488e-03
-1.8500000000000001e+00 +8.5269005560585391e+00 +0.0000000000000000e+00 -1.8974358939613500e+00 -2.9234504383819457e-02 -5.5138957621826934e-01 +5.5418703875141388e-03
-1.8999999999999999e+00 +8.5268951080688602e+00 +0.0000000000000000e+00 -1.9487179449540000e+00 -2.9235496414161590e-02 -5.5140496414471185e-01 +5.5408124122393277e-03
-1.9500000000000000e+00 +8.5268895148037700e+00 +0.0000000000000000e+00 -1.9999999959310100e+00 -2.9236496849782998e-02 -5.5142070747383309e-01 +5.5397505136882130e-03
-2.0000000000000000e+00 +8.5268838253941794e+00 +0.0000000000000000e+00 -2.0508474532398102e+00 -2.9237496792992083e-02 -5.5143666705697891e-01 +5.5386937671169541e-03
-2.0499999999999998e+00 +8.5268779929429002e+00 +0.0000000000000000e+00 -2.1016949105324101e+00 -2.9238504776954440e-02 -5.5145297262929949e-01 +5.5376332829275591e-03
-2.1000000000000001e+00 +8.5268720174499304e+00 +0.0000000000000000e+00 -2.1525423678083899e+00 -2.9239520990851323e-02 -5.5146962175508718e-01 +5.5365691708807903e-03
-2.1499999999999999e+00 +8.5268658989189099e+00 +0.0000000000000000e+00 -2.2033898250673700e+00 -2.9240545623863506e-02 -5.5148661199861981e-01 +5.5355015407370228e-03
-2.2000000000000002e+00 +8.5268596373498404e+00 +0.0000000000000000e+00 -2.2542372823089400e+00 -2.9241578865174291e-02 -5.5150394092421218e-01 +5.5344305022567873e-03
-2.2500000000000000e+00 +8.5268532327390893e+00 +0.0000000000000000e+00 -2.3050847395326799e+00 -2.9242620903969604e-02 -5.5152160609621681e-01 +5.5333561652007937e-03
-2.2999999999999998e+00 +8.5268466850902804e+00 +0.0000000000000000e+00 -2.3559321967382099e+00 -2.9243671929433623e-02 -5.5153960507894484e-01 +5.5322786393290982e-03
-2.3500000000000001e+00 +8.5268399943961395e+00 +0.0000000000000000e+00 -2.4067796539251201e+00 -2.9244732130756120e-02 -5.5155793543679610e-01 +5.5311980344024811e-03
-2.3999999999999999e+00 +8.5268331606675893e+00 +0.0000000000000000e+00 -2.4576271110930099e+00 -2.9245801697120911e-02 -5.5157659473404819e-01 +5.5301144601802412e-03
-2.4500000000000002e+00 +8.5268261838973594e+00 +0.0000000000000000e+00 -2.5084745682414700e+00 -2.9246880817720509e-02 -5.5159558053512192e-01 +5.5290280264229906e-03
-2.5000000000000000e+00 +8.5268190640890698e+00 +0.0000000000000000e+00 -2.5593220253701001e+00 -2.9247969681744496e-02 -5.5161489040436751e-01 +5.5279388428904177e-03
-2.5499999999999998e+00 +8.5268118012427294e+00 +0.0000000000000000e+00 -2.6101694824785100e+00 -2.9249068478385435e-02 -5.5163452190617068e-01 +5.5268470193424206e-03
-2.6000000000000001e+00 +8.5268043953510606e+00 +0.0000000000000000e+00 -2.6610169395662799e+00 -2.9250177396840459e-02 -5.5165447260498024e-01 +5.5257526655393763e-03
-2.6499999999999999e+00 +8.5267968464213499e+00 +0.0000000000000000e+00 -2.7118643966330200e+00 -2.9251296626302398e-02 -5.5167474006514683e-01 +5.5246558912404814e-03
-2.7000000000000002e+00 +8.5267891544535797e+00 +0.0000000000000000e+00 -2.7627118536783102e+00 -2.9252426355968773e-02 -5.5169532185108283e-01 +5.5235568062054329e-03
-2.7500000000000000e+00 +8.5267813194441295e+00 +0.0000000000000000e+00 -2.8135593107017698e+00 -2.9253566775040429e-02 -5.5171621552723527e-01 +5.5224555201941524e-03
-2.7999999999999998e+00 +8.5267733413966198e+00 +0.0000000000000000e+00 -2.8644067677029899e+00 -2.9254718072717022e-02 -5.5173741865800663e-01 +5.5213521429659509e-03
-2.8500000000000001e+00 +8.5267652203074196e+00 +0.0000000000000000e+00 -2.9152542246815600e+00 -2.9255880438203166e-02 -5.5175892880785926e-01 +5.5202467842806521e-03
-2.8999999999999999e+00 +8.5267569561765395e+00 +0.0000000000000000e+00 -2.9661016816370900e+00 -2.9257054060703926e-02 -5.5178074354123641e-01 +5.5191395538977620e-03
-2.9500000000000002e+00 +8.5267485490112396e+00 +0.0000000000000000e+00 -3.0169491385691698e+00 -2.9258239129423498e-02 -5.5180286042253601e-01 +5.5180305615761963e-03
-3.0000000000000000e+00 +8.5267399988042598e+00 +0.0000000000000000e+00 -3.0677965954773900e+00 -2.9259435833574106e-02 -5.5182527701626860e-01 +5.5169199170759554e-03
-3.0499999999999998e+00 +8.5267313055555896e+00 +0.0000000000000000e+00 -3.1186440523613599e+00 -2.9260644362367215e-02 -5.5184799088689773e-01 +5.5158077301564589e-03
-3.1000000000000001e+00 +8.5267224692688597e+00 +0.0000000000000000e+00 -3.1694915092206801e+00 -2.9261864905015030e-02 -5.5187099959886721e-01 +5.5146941105768260e-03
-3.1499999999999999e+00 +8.5267134899368102e+00 +0.0000000000000000e+00 -3.2203389660549400e+00 -2.9263097650736588e-02 -5.5189430071670675e-01 +5.5135791680970044e-03
-3.2000000000000002e+00 +8.5267043675703498e+00 +0.0000000000000000e+00 -3.2711864228637300e+00 -2.9264342788745838e-02 -5.5191789180481765e-01 +5.5124630124755375e-03
-3.2500000000000000e+00 +8.5266951021658297e+00 +0.0000000000000000e+00 -3.3220338796466700e+00 -2.9265600508265138e-02 -5.5194177042771453e-01 +5.5113457534720790e-03
-3.2999999999999998e+00 +8.5266856937196298e+00 +0.0000000000000000e+00 -3.3728813364033301e+00 -2.9266870998519379e-02 -5.5196593414991602e-01 +5.5102275008462884e-03
-3.3500000000000001e+00 +8.5266761422317394e+00 +0.0000000000000000e+00 -3.4237287931333298e+00 -2.9268154448734561e-02 -5.5199038053591953e-01 +5.5091083643575480e-03
-3.3999999999999999e+00 +8.5266664477057894e+00 +0.0000000000000000e+00 -3.4745762498362600e+00 -2.9269451048137829e-02 -5.5201510715020019e-01 +5.5079884537649832e-03
-3.4500000000000002e+00 +8.5266566101381596e+00 +0.0000000000000000e+00 -3.5254237065117100e+00 -2.9270760985962038e-02 -5.5204011155729082e-01 +5.5068678788282865e-03
-3.5000000000000000e+00 +8.5266466295324808e+00 +0.0000000000000000e+00 -3.5762711631592898e+00 -2.9272084451439861e-02 -5.5206539132167509e-01 +5.5057467493066234e-03
-3.5499999999999998e+00 +8.5266365058887494e+00 +0.0000000000000000e+00 -3.6271186197785901e+00 -2.9273421633808288e-02 -5.5209094400786685e-01 +5.5046251749594627e-03
-3.6000000000000001e+00 +8.5266262391996896e+00 +0.0000000000000000e+00 -3.6779660763692101e+00 -2.9274772722310247e-02 -5.5211676718043656e-01 +5.5035032655468578e-03
-3.6499999999999999e+00 +8.5266158294762100e+00 +0.0000000000000000e+00 -3.7288135329307499e+00 -2.9276137906184198e-02 -5.5214285840382560e-01 +5.5023811308275283e-03
-3.6999999999999900e+00 +8.5266052767074108e+00 +0.0000000000000000e+00 -3.7796609894627999e+00 -2.9277517374680553e-02 -5.5216921524263674e-01 +5.5012588805618814e-03
-3.7499999999999898e+00 +8.5265945809042005e+00 +0.0000000000000000e+00 -3.8305084459649699e+00 -2.9278911317043969e-02 -5.5219583526131666e-01 +5.5001366245087313e-03
-3.7999999999999901e+00 +8.5265837420592998e+00 +0.0000000000000000e+00 -3.8813559024368498e+00 -2.9280319922529673e-02 -5.5222271602444706e-01 +5.4990144724283187e-03
-3.8499999999999899e+00 +8.5265727601727104e+00 +0.0000000000000000e+00 -3.9322033588780299e+00 -2.9281743380393233e-02 -5.5224985509655855e-01 +5.4978925340803926e-03
-3.8999999999999901e+00 +8.5265616352480702e+00 +0.0000000000000000e+00 -3.9830508152881201e+00 -2.9283181879892012e-02 -5.5227725004215711e-01 +5.4967709192244966e-03
-3.9499999999999900e+00 +8.5265503672853793e+00 +0.0000000000000000e+00 -4.0338982716667102e+00 -2.9284635584581397e-02 -5.5230489841285446e-01 +5.4956497348123750e-03
-3.9999999999999898e+00 +8.5265389562773599e+00 +0.0000000000000000e+00 -4.0847457280134103e+00 -2.9286104359179492e-02 -5.5233279761009946e-01 +5.4945290551517301e-03
-4.0499999999999901e+00 +8.5265274022313005e+00 +0.0000000000000000e+00 -4.1355931843278002e+00 -2.9287587875595995e-02 -5.5236094493831944e-01 +5.4934089334882823e-03
-4.0999999999999899e+00 +8.5265157051508105e+00 +0.0000000000000000e+00 -4.1864406406094901e+00 -2.9289085802527391e-02 -5.5238933770035425e-01 +5.4922894227173056e-03
-4.1499999999999897e+00 +8.5265038650250098e+00 +0.0000000000000000e+00 -4.2372880968580704e+00 -2.9290597808674719e-02 -5.5241797319914909e-01 +5.4911705757354663e-03
-4.1999999999999904e+00 +8.5264918818611495e+00 +0.0000000000000000e+00 -4.2881355530731398e+00 -2.9292123562730126e-02 -5.5244684873751748e-01 +5.4900524454384002e-03
-4.2499999999999902e+00 +8.5264797556556005e+00 +0.0000000000000000e+00 -4.3389830092543002e+00 -2.9293662733388643e-02 -5.5247596161835011e-01 +5.4889350847228766e-03
-4.2999999999999901e+00 +8.5264674864120007e+00 +0.0000000000000000e+00 -4.3898304654011504e+00 -2.9295214989340727e-02 -5.5250530914448559e-01 +5.4878185464854769e-03
-4.3499999999999899e+00 +8.5264550741303502e+00 +0.0000000000000000e+00 -4.4406779215132799e+00 -2.9296779999276594e-02 -5.5253488861878663e-01 +5.4867028836234084e-03
-4.3999999999999897e+00 +8.5264425188070199e+00 +0.0000000000000000e+00 -4.4915253775902899e+00 -2.9298357431886139e-02 -5.5256469734414160e-01 +5.4855881490345117e-03
-4.4499999999999904e+00 +8.5264298204419902e+00 +0.0000000000000000e+00 -4.5423728336317897e+00 -2.9299946955855926e-02 -5.5259473262341074e-01 +5.4844743956167404e-03
-4.4999999999999902e+00 +8.5264169790425495e+00 +0.0000000000000000e+00 -4.5932202896373502e+00 -2.9301548239867546e-02 -5.5262499175939850e-01 +5.4833616762678967e-03
-4.5499999999999901e+00 +8.5264039945941494e+00 +0.0000000000000000e+00 -4.6440677456066002e+00 -2.9303160952609521e-02 -5.5265547205506782e-01 +5.4822500438878067e-03
-4.5999999999999899e+00 +8.5263908671149693e+00 +0.0000000000000000e+00 -4.6949152015391098e+00 -2.9304784762754818e-02 -5.5268617081313809e-01 +5.4811395513742756e-03
-4.6499999999999897e+00 +8.5263775965941004e+00 +0.0000000000000000e+00 -4.7457626574344998e+00 -2.9306419338986138e-02 -5.5271708533653929e-01 +5.4800302516276921e-03
-4.6999999999999904e+00 +8.5263641830315500e+00 +0.0000000000000000e+00 -4.7966101132923500e+00 -2.9308064349979440e-02 -5.5274821292811904e-01 +5.4789221975480897e-03
-4.7499999999999902e+00 +8.5263506264309399e+00 +0.0000000000000000e+00 -4.8474575691122697e+00 -2.9309719464406827e-02 -5.5277955089069397e-01 +5.4778154420356577e-03
-4.7999999999999901e+00 +8.5263369267886393e+00 +0.0000000000000000e+00 -4.8983050248938502e+00 -2.9311384350940904e-02 -5.5281109652713101e-01 +5.4767100379916013e-03
-4.8499999999999899e+00 +8.5263230841010191e+00 +0.0000000000000000e+00 -4.9491524806366902e+00 -2.9313058678251805e-02 -5.5284284714029208e-01 +5.4756060383175922e-03
-4.8999999999999897e+00 +8.5263090983826295e+00 +0.0000000000000000e+00 -4.9999999363403900e+00 -2.9314742114999549e-02 -5.5287480003290257e-01 +5.4745034959144297e-03
-4.9499999999999904e+00 +8.5262950649157592e+00 +0.0000000000000000e+00 -5.0505049848957304e+00 -2.9316422905979855e-02 -5.5290673533381796e-01 +5.4734098729000893e-03
-4.9999999999999902e+00 +8.5262808896768494e+00 +0.0000000000000000e+00 -5.1010100334114901e+00 -2.9318112032815605e-02 -5.5293886489987809e-01 +5.4723177916788431e-03
-5.0499999999999901e+00 +8.5262665726659197e+00 +0.0000000000000000e+00 -5.1515150818872497e+00 -2.9319809170813491e-02 -5.5297118608802520e-01 +5.4712273040924131e-03
-5.0999999999999899e+00 +8.5262521138793108e+00 +0.0000000000000000e+00 -5.2020201303226203e+00 -2.9321513995278912e-02 -5.5300369625522294e-01 +5.4701384619833269e-03
-5.1499999999999897e+00 +8.5262375133206696e+00 +0.0000000000000000e+00 -5.2525251787172103e+00 -2.9323226181511321e-02 -5.5303639275837679e-01 +5.4690513171940947e-03
-5.1999999999999904e+00 +8.5262227709863492e+00 +0.0000000000000000e+00 -5.3030302270706198e+00 -2.9324945404810173e-02 -5.5306927295443886e-01 +5.4679659215683017e-03
-5.2499999999999902e+00 +8.5262078868836397e+00 +0.0000000000000000e+00 -5.3535352753824403e+00 -2.9326671340467309e-02 -5.5310233420027499e-01 +5.4668823269492742e-03
-5.2999999999999901e+00 +8.5261928610125306e+00 +0.0000000000000000e+00 -5.4040403236522803e+00 -2.9328403663774434e-02 -5.5313557385279843e-01 +5.4658005851814448e-03
-5.3499999999999899e+00 +8.5261776933584805e+00 +0.0000000000000000e+00 -5.4545453718797399e+00 -2.9330142050025963e-02 -5.5316898926902280e-01 +5.4647207481108911e-03
-5.3999999999999897e+00 +8.5261623839360308e+00 +0.0000000000000000e+00 -5.5050504200644301e+00 -2.9331886174501082e-02 -5.5320257780574067e-01 +5.4636428675821228e-03
-5.4499999999999904e+00 +8.5261469327415398e+00 +0.0000000000000000e+00 -5.5555554682059496e+00 -2.9333635712482962e-02 -5.5323633681987017e-01 +5.4625669954415906e-03
-5.4999999999999902e+00 +8.5261313397750200e+00 +0.0000000000000000e+00 -5.6060605163038897e+00 -2.9335390339249874e-02 -5.5327026366829668e-01 +5.4614931835360826e-03
-5.5499999999999901e+00 +8.5261156050328299e+00 +0.0000000000000000e+00 -5.6565655643578596e+00 -2.9337149730078008e-02 -5.5330435570792313e-01 +5.4604214837132743e-03
-5.5999999999999899e+00 +8.5260997285186004e+00 +0.0000000000000000e+00 -5.7070706123674597e+00 -2.9338913560236903e-02 -5.5333861029559195e-01 +5.4593519478209358e-03
-5.6499999999999897e+00 +8.5260837102287006e+00 +0.0000000000000000e+00 -5.7575756603323001e+00 -2.9340681504995400e-02 -5.5337302478818950e-01 +5.4582846277080078e-03
-5.6999999999999904e+00 +8.5260675501704100e+00 +0.0000000000000000e+00 -5.8080807082519703e+00 -2.9342453239614034e-02 -5.5340759654251404e-01 +5.4572195752232841e-03
-5.7499999999999902e+00 +8.5260512483400799e+00 +0.0000000000000000e+00 -5.8585857561260797e+00 -2.9344228439353991e-02 -5.5344232291543505e-01 +5.4561568422170246e-03
-5.7999999999999901e+00 +8.5260348047340795e+00 +0.0000000000000000e+00 -5.9090908039542303e+00 -2.9346006779472467e-02 -5.5347720126381228e-01 +5.4550964805401654e-03
-5.8499999999999899e+00 +8.5260182193524106e+00 +0.0000000000000000e+00 -5.9595958517360303e+00 -2.9347787935221154e-02 -5.5351222894447005e-01 +5.4540385420440585e-03
