# multipoles
# s[mm] polynom_b[n=0][T/m^n] polynom_b[n=1][T/m^n] polynom_b[n=2][T/m^n] polynom_b[n=3][T/m^n] polynom_b[n=4][T/m^n] polynom_b[n=5][T/m^n] polynom_b[n=6][T/m^n] 
-0.0000000000000000e+00 -5.2383601261652391e-01 +6.8761580855859625e+00 +4.4298899676544563e+00 -5.1197597715066081e+01 +1.3689322222249266e+04 +2.9169879424486680e+03 -7.0827383373586461e+07 
-5.0000000000000003e-02 -5.2383733786075104e-01 +6.8761583964539907e+00 +4.4305392560853720e+00 -5.0774057748679141e+01 +1.3689448758406377e+04 -4.2189589293062363e+02 -7.0835683876378015e+07 
-1.0000000000000001e-01 -5.2383901850053549e-01 +6.8761778425604492e+00 +4.4305768261466731e+00 -5.0327996806107294e+01 +1.3694194324041466e+04 -3.9295104709667976e+03 -7.0875038844822377e+07 
-1.4999999999999999e-01 -5.2384105394595637e-01 +6.8762163691079534e+00 +4.4300117899303073e+00 -4.9859777122511289e+01 +1.3703382885162553e+04 -7.6008308413312825e+03 -7.0944361770681024e+07 
-2.0000000000000001e-01 -5.2384344360715673e-01 +6.8762739213080915e+00 +4.4288532568410126e+00 -4.9369761280404084e+01 +1.3716838482553760e+04 -1.1430829156987047e+04 -7.1042566662228912e+07 
-2.5000000000000000e-01 -5.2384618689420492e-01 +6.8763504443684305e+00 +4.4271103376316896e+00 -4.8858311653315262e+01 +1.3734385119758499e+04 -1.5414479328040110e+04 -7.1168567269857526e+07 
-2.9999999999999999e-01 -5.2384928321725566e-01 +6.8764458834985138e+00 +4.4247921428017136e+00 -4.8325790685290279e+01 +1.3755846804927703e+04 -1.9546754606459119e+04 -7.1321277370622680e+07 
-3.4999999999999998e-01 -5.2385273198646976e-01 +6.8765601839086772e+00 +4.4219077804981683e+00 -4.7772560808431685e+01 +1.3781047611987022e+04 -2.3822628417088275e+04 -7.1499611189734757e+07 
-4.0000000000000002e-01 -5.2385653261197218e-01 +6.8766932908122502e+00 +4.4184663634454964e+00 -4.7198984560700502e+01 +1.3809811487815032e+04 -2.8237073232752569e+04 -7.1702482085253239e+07 
-4.5000000000000001e-01 -5.2386068450394074e-01 +6.8768451494180232e+00 +4.4144769975920921e+00 -4.6605424266964064e+01 +1.3841962562930881e+04 -3.2785063287510238e+04 -7.1928804658027291e+07 
-5.0000000000000000e-01 -5.2386518707258334e-01 +6.8770157049413996e+00 +4.4099487957233920e+00 -4.5992242493468723e+01 +1.3877324783715199e+04 -3.7461570823547816e+04 -7.2177492266467318e+07 
-5.5000000000000004e-01 -5.2387003972807067e-01 +6.8772049025925117e+00 +4.4048908658483823e+00 -4.5359801563011331e+01 +1.3915722222888744e+04 -4.2261570070762318e+04 -7.2447459112977773e+07 
-5.9999999999999998e-01 -5.2387524188067403e-01 +6.8774126875903336e+00 +4.3993123177479134e+00 -4.4708464130730626e+01 +1.3956978907101391e+04 -4.7180032544702699e+04 -7.2737619099426076e+07 
-6.5000000000000002e-01 -5.2388079294061762e-01 +6.8776390051456398e+00 +4.3932222632726443e+00 -4.4038592497112340e+01 +1.4000918805496269e+04 -5.2211932620710708e+04 -7.3046885729959890e+07 
-6.9999999999999996e-01 -5.2388669231810403e-01 +6.8778838004759404e+00 +4.3866298081720432e+00 -4.3350549211087163e+01 +1.4047366049252822e+04 -5.7352242622319078e+04 -7.3374173596581578e+07 
-7.5000000000000000e-01 -5.2389293942343429e-01 +6.8781470187971800e+00 +4.3795440632935794e+00 -4.2644696718686241e+01 +1.4096144637293239e+04 -6.2595935770894161e+04 -7.3718396419479296e+07 
-8.0000000000000004e-01 -5.2389953366689601e-01 +6.8784286053265964e+00 +4.3719741398610221e+00 -4.1921397512181031e+01 +1.4147078548730933e+04 -6.7937984814824827e+04 -7.4078467749150336e+07 
-8.4999999999999998e-01 -5.2390647445877236e-01 +6.8787285052812015e+00 +4.3639291447550379e+00 -4.1181014036461185e+01 +1.4199991888855800e+04 -7.3373362929522016e+04 -7.4453302024188504e+07 
-9.0000000000000002e-01 -5.2391376120937216e-01 +6.8790466638781922e+00 +4.3554181876433882e+00 -4.0423908720219941e+01 +1.4254708677254208e+04 -7.8897043408593934e+04 -7.4841813066257507e+07 
-9.4999999999999996e-01 -5.2392139332900378e-01 +6.8793830263388891e+00 +4.3464503789346081e+00 -3.9650444136528286e+01 +1.4311052923468331e+04 -8.4503998334957243e+04 -7.5242914670563027e+07 
-1.0000000000000000e+00 -5.2392937022804964e-01 +6.8797375378802492e+00 +4.3370348270263150e+00 -3.8860982653456219e+01 +1.4368848681732343e+04 -9.0189201491597560e+04 -7.5655520895856842e+07 
-1.0500000000000000e+00 -5.2393769131683532e-01 +6.8801101437238898e+00 +4.3271806406471018e+00 -3.8055886810651643e+01 +1.4427920000521171e+04 -9.5947625197392670e+04 -7.6078545779530808e+07 
-1.1000000000000001e+00 -5.2394635600570749e-01 +6.8805007890870353e+00 +4.3168969295341855e+00 -3.7235518933695126e+01 +1.4488090900661466e+04 -1.0177424355603999e+05 -7.6510903170463502e+07 
-1.1499999999999999e+00 -5.2395536370507212e-01 +6.8809094191950662e+00 +4.3061928027562297e+00 -3.6400241663254270e+01 +1.4549185419521371e+04 -1.0766402806306448e+05 -7.6951507028011963e+07 
-1.2000000000000000e+00 -5.2396471382532672e-01 +6.8813359792659483e+00 +4.2950773701836802e+00 -3.5550417310700034e+01 +1.4611027567126701e+04 -1.1361195290974899e+05 -7.7399271107378349e+07 
-1.2500000000000000e+00 -5.2397440577688281e-01 +6.8817804145226704e+00 +4.2835597404086077e+00 -3.4686408370167101e+01 +1.4673441398962734e+04 -1.1961299076338415e+05 -7.7853109514740229e+07 
-1.3000000000000000e+00 -5.2398443897015579e-01 +6.8822426701888730e+00 +4.2716490214453788e+00 -3.3808577331800365e+01 +1.4736250973034736e+04 -1.2566211434501808e+05 -7.8311936325241745e+07 
-1.3500000000000001e+00 -5.2399481281559379e-01 +6.8827226914853812e+00 +4.2593543239575222e+00 -3.2917286557339871e+01 +1.4799280281505473e+04 -1.3175429737631307e+05 -7.8774665195385829e+07 
-1.3999999999999999e+00 -5.2400552672362433e-01 +6.8832204236345245e+00 +4.2466847570328712e+00 -3.2012898435848022e+01 +1.4862353357961339e+04 -1.3788451337601306e+05 -7.9240210060190946e+07 
-1.4500000000000000e+00 -5.2401658010476304e-01 +6.8837358118632537e+00 +4.2336494295148137e+00 -3.1095775527072465e+01 +1.4925294239519924e+04 -1.4404773445544683e+05 -7.9707484867749050e+07 
-1.5000000000000000e+00 -5.2402797236943865e-01 +6.8842688013943505e+00 +4.2202574506890400e+00 -3.0166280196737333e+01 +1.4987926949431798e+04 -1.5023893428003322e+05 -8.0175403473321542e+07 
-1.5500000000000000e+00 -5.2403970292816582e-01 +6.8848193374513071e+00 +4.2065179284693714e+00 -2.9224774814645532e+01 +1.5050075551085607e+04 -1.5645308649785121e+05 -8.0642880012646392e+07 
-1.6000000000000001e+00 -5.2405177119146573e-01 +6.8853873652584507e+00 +4.1924399746068897e+00 -2.8271621764669177e+01 +1.5111564000660861e+04 -1.6268516461144720e+05 -8.1108827892749503e+07 
-1.6499999999999999e+00 -5.2406417656984872e-01 +6.8859728300427179e+00 +4.1780326962578709e+00 -2.7307183508494823e+01 +1.5172216376475964e+04 -1.6893014150132021e+05 -8.1572161337264955e+07 
-1.7000000000000000e+00 -5.2407691847386784e-01 +6.8865756770279116e+00 +4.1633052056505440e+00 -2.6331822364291718e+01 +1.5231856622119483e+04 -1.7518299118872374e+05 -8.2031793675319821e+07 
-1.7500000000000000e+00 -5.2408999631404440e-01 +6.8871958514410876e+00 +4.1482666074325749e+00 -2.5345900754296490e+01 +1.5290308881288998e+04 -1.8143868685379263e+05 -8.2486639574573532e+07 
-1.8000000000000000e+00 -5.2410340950093925e-01 +6.8878332985067621e+00 +4.1329260148523188e+00 -2.4349780975444695e+01 +1.5347397067126885e+04 -1.8769220268268944e+05 -8.2935612152974963e+07 
-1.8500000000000001e+00 -5.2411715744514487e-01 +6.8884879634521328e+00 +4.1172925358862624e+00 -2.3343825416563860e+01 +1.5402945232517359e+04 -1.9393851209730530e+05 -8.3377625469052583e+07 
-1.8999999999999999e+00 -5.2413123955729013e-01 +6.8891597915036842e+00 +4.1013752824954945e+00 -2.2328396417941114e+01 +1.5456777321732483e+04 -2.0017258889398453e+05 -8.3811592847410768e+07 
-1.9500000000000000e+00 -5.2414565524790524e-01 +6.8898487278875242e+00 +4.0851833602003289e+00 -2.1303856266438913e+01 +1.5508717452200863e+04 -2.0638940735314562e+05 -8.4236428784278467e+07 
-2.0000000000000000e+00 -5.2416040392765062e-01 +6.8905547178316437e+00 +4.0687258819059231e+00 -2.0270567317451576e+01 +1.5558589541504965e+04 -2.1258394112850263e+05 -8.4651046427808776e+07 
-2.0499999999999998e+00 -5.2417548476770137e-01 +6.8912776980914678e+00 +4.0520108303477782e+00 -1.9229035639140474e+01 +1.5606245887789357e+04 -2.1875093375036999e+05 -8.5054502034275100e+07 
-2.1000000000000001e+00 -5.2419089597855661e-01 +6.8920175730801718e+00 +4.0350415035288938e+00 -1.8180335044998593e+01 +1.5651656020380180e+04 -2.2488431919360004e+05 -8.5446430346909359e+07 
-2.1499999999999999e+00 -5.2420663552968294e-01 +6.8927742357898962e+00 +4.0178201685737696e+00 -1.7125683274359059e+01 +1.5694820127961142e+04 -2.3097786656098205e+05 -8.5826614635051191e+07 
-2.2000000000000002e+00 -5.2422270139063232e-01 +6.8935475792144913e+00 +4.0003490918905351e+00 -1.6066298130221426e+01 +1.5735738424488507e+04 -2.3702534444651005e+05 -8.6194838358338431e+07 
-2.2500000000000000e+00 -5.2423909153094761e-01 +6.8943374963449680e+00 +3.9826305414987302e+00 -1.5003397262262332e+01 +1.5774411076604505e+04 -2.4302052278928232e+05 -8.6550884646671340e+07 
-2.2999999999999998e+00 -5.2425580392021243e-01 +6.8951438801767244e+00 +3.9646667854349626e+00 -1.3938198504818148e+01 +1.5810838257241803e+04 -2.4895716993654575e+05 -8.6894536694906011e+07 
-2.3500000000000001e+00 -5.2427283652794943e-01 +6.8959666237016375e+00 +3.9464600929483895e+00 -1.2871919511634372e+01 +1.5845020103408238e+04 -2.5482905580591876e+05 -8.7225577445380479e+07 
-2.3999999999999999e+00 -5.2429018732374788e-01 +6.8968056199146988e+00 +3.9280127300366310e+00 -1.1805778052620912e+01 +1.5876956840406116e+04 -2.6062994936477003e+05 -8.7543790440558821e+07 
-2.4500000000000002e+00 -5.2430785427718107e-01 +6.8976607618093979e+00 +3.9093269666654513e+00 -1.0740991825940139e+01 +1.5906648588350350e+04 -2.6635362015539780e+05 -8.7848958518542781e+07 
-2.5000000000000000e+00 -5.2432583535788624e-01 +6.8985319423813829e+00 +3.8904050692001286e+00 -9.6787785875653451e+00 +1.5934095566456210e+04 -2.7199383734533726e+05 -8.8140865194807336e+07 
-2.5499999999999998e+00 -5.2434412853545598e-01 +6.8994190546254215e+00 +3.8712493073945233e+00 -8.6203560529525642e+00 +1.5959297904161043e+04 -2.7754437038643385e+05 -8.8419293384841666e+07 
-2.6000000000000001e+00 -5.2436273177948434e-01 +6.9003219915380276e+00 +3.8518619503441278e+00 -7.5669419861822114e+00 +1.5982255746182442e+04 -2.8299898839085031e+05 -8.8684026100768909e+07 
-2.6499999999999999e+00 -5.2438164305964841e-01 +6.9012406461131999e+00 +3.8322452661263444e+00 -6.5197540352385470e+00 +1.6002969268845514e+04 -2.8835146144914429e+05 -8.8934846579804316e+07 
-2.7000000000000002e+00 -5.2440086034554190e-01 +6.9021749113497632e+00 +3.8124015243435507e+00 -5.4800100319593268e+00 +1.6021438609055989e+04 -2.9359555815230979e+05 -8.9171537800940365e+07 
-2.7500000000000000e+00 -5.2442038160683935e-01 +6.9031246802428123e+00 +3.7923329940876087e+00 -4.4489276335915333e+00 +1.6037663920353803e+04 -2.9872504858728149e+05 -8.9393882869011790e+07 
-2.7999999999999998e+00 -5.2444020481322029e-01 +6.9040898457911704e+00 +3.7720419439571131e+00 -3.4277246418426612e+00 +1.6051645365297496e+04 -3.0373370166423847e+05 -8.9601664930307776e+07 
-2.8500000000000001e+00 -5.2446032793432007e-01 +6.9050703009891912e+00 +3.7515306462153060e+00 -2.4176186574991751e+00 +1.6063383014837471e+04 -3.0861528797692392e+05 -8.9794666539516896e+07 
-2.8999999999999999e+00 -5.2448074893983154e-01 +6.9060659388376209e+00 +3.7308013686448889e+00 -1.4198275289049938e+00 +1.6072877060580069e+04 -3.1336357612561103e+05 -8.9972671067588121e+07 
-2.9500000000000002e+00 -5.2450146579944701e-01 +6.9070766523335125e+00 +3.7098563819796504e+00 -4.3556893984945916e-01 +1.6080127614880874e+04 -3.1797233609736373e+05 -9.0135461348584682e+07 
-3.0000000000000000e+00 -5.2452247648285422e-01 +6.9081023344745027e+00 +3.6886979543980876e+00 +5.3393941568599113e-01 +1.6085134863992893e+04 -3.2243533783382556e+05 -9.0282820734326556e+07 
-3.0499999999999998e+00 -5.2454377895976045e-01 +6.9091428782621715e+00 +3.6673283607279901e+00 +1.4874796981865639e+00 +1.6087898816416851e+04 -3.2674635011769808e+05 -9.0414531383084849e+07 
-3.1000000000000001e+00 -5.2456537119991276e-01 +6.9101981766920426e+00 +3.6457498684297946e+00 +2.4238343255839916e+00 +1.6088419676865367e+04 -3.3089914389472717e+05 -9.0530376765581310e+07 
-3.1499999999999999e+00 -5.2458725117302429e-01 +6.9112681227661215e+00 +3.6239647505998427e+00 +3.3417854632606905e+00 +1.6086697504684491e+04 -3.3488748805227596e+05 -9.0630139397393048e+07 
-3.2000000000000002e+00 -5.2460941684882145e-01 +6.9123526094838148e+00 +3.6019752772125222e+00 +4.2401153986408913e+00 +1.6082732442739652e+04 -3.3870515255288192e+05 -9.0713602352928787e+07 
-3.2500000000000000e+00 -5.2463186619702418e-01 +6.9134515298468715e+00 +3.5797837199154139e+00 +5.1176063342426623e+00 +1.6076524595820882e+04 -3.4234590668786166e+05 -9.0780548477514163e+07 
-3.2999999999999998e+00 -5.2465459718741114e-01 +6.9145647768530800e+00 +3.5573923508141965e+00 +5.9730406491854122e+00 +1.6068074052891232e+04 -3.4580352126514813e+05 -9.0830760491126552e+07 
-3.3500000000000001e+00 -5.2467760778977335e-01 +6.9156922435050676e+00 +3.5348034430663713e+00 +6.8052005236056479e+00 +1.6057380881180889e+04 -3.4907176545958471e+05 -9.0864020995775312e+07 
-3.3999999999999999e+00 -5.2470089597382108e-01 +6.9168338228036834e+00 +3.5120192674864268e+00 +7.6128682394157803e+00 +1.6044445211086304e+04 -3.5214440938235167e+05 -9.0880113013603479e+07 
-3.4500000000000002e+00 -5.2472445970936421e-01 +6.9179894077499888e+00 +3.4890420983226718e+00 +8.3948260703853670e+00 +1.6029267083261660e+04 -3.5501522310416057e+05 -9.0878818973638222e+07 
-3.5000000000000000e+00 -5.2474829696618508e-01 +6.9191588913465507e+00 +3.4658742080367353e+00 +9.1498562456954158e+00 +1.6011846590427467e+04 -3.5767797639075719e+05 -9.0859921669158861e+07 
-3.5499999999999998e+00 -5.2477240571406980e-01 +6.9203421665964884e+00 +3.4425178687380531e+00 +9.8767409662279082e+00 +1.5992183836508335e+04 -3.6012643878304627e+05 -9.0823203971393347e+07 
-3.6000000000000001e+00 -5.2479678392285478e-01 +6.9215391265003996e+00 +3.4189753559286129e+00 +1.0574262568904153e+01 +1.5970278839348779e+04 -3.6235438107244519e+05 -9.0768448193778098e+07 
-3.6499999999999999e+00 -5.2482142956225608e-01 +6.9227496640617234e+00 +3.3952489405955539e+00 +1.1241203271481083e+01 +1.5946131737476595e+04 -3.6435557306248433e+05 -9.0695437453668922e+07 
-3.6999999999999900e+00 -5.2484634060218183e-01 +6.9239736722845109e+00 +3.3713409002786721e+00 +1.1876345272352093e+01 +1.5919742496553794e+04 -3.6612378447040787e+05 -9.0603953717164055e+07 
-3.7499999999999898e+00 -5.2487151501242046e-01 +6.9252110441710526e+00 +3.3472535077998842e+00 +1.2478470858634150e+01 +1.5891111213947926e+04 -3.6765278580963099e+05 -9.0493779852626085e+07 
-3.7999999999999901e+00 -5.2489695076278231e-01 +6.9264616727258899e+00 +3.3229890390012904e+00 +1.3046362235466320e+01 +1.5860237908999114e+04 -3.6893634698894632e+05 -9.0364698212987915e+07 
-3.8499999999999899e+00 -5.2492264582314518e-01 +6.9277254509522654e+00 +3.2985497675231925e+00 +1.3578801661451104e+01 +1.5827122663678252e+04 -3.6996823838549753e+05 -9.0216491584921628e+07 
-3.8999999999999901e+00 -5.2494859816330897e-01 +6.9290022718560671e+00 +3.2739379702488112e+00 +1.4074571301055615e+01 +1.5791765472698899e+04 -3.7074222968750657e+05 -9.0048942162655532e+07 
-3.9499999999999900e+00 -5.2497480575318334e-01 +6.9302920284403129e+00 +3.2491559245653661e+00 +1.4532453446821943e+01 +1.5754166326122118e+04 -3.7125209171956364e+05 -8.9861832142436281e+07 
-3.9999999999999898e+00 -5.2500126656255364e-01 +6.9315946137115230e+00 +3.2242059033122952e+00 +1.4951230244955033e+01 +1.5714325334554484e+04 -3.7149159405420511e+05 -8.9654944517614573e+07 
-4.0499999999999901e+00 -5.2502797847198601e-01 +6.9329099065263575e+00 +3.1990907212045236e+00 +1.5330092586177971e+01 +1.5672248572400700e+04 -3.7145721424221102e+05 -8.9428165517743468e+07 
-4.0999999999999899e+00 -5.2505493900370592e-01 +6.9342377248578737e+00 +3.1738159150513732e+00 +1.5669794597852267e+01 +1.5627951157421146e+04 -3.7115565671643650e+05 -8.9181699233058795e+07 
-4.1499999999999897e+00 -5.2508214559004285e-01 +6.9355778703487339e+00 +3.1483878684332871e+00 +1.5971464078581349e+01 +1.5581446642633558e+04 -3.7059603749449062e+05 -8.8915805062836915e+07 
-4.1999999999999904e+00 -5.2510959566346005e-01 +6.9369301446369622e+00 +3.1228129615343501e+00 +1.6236228998592157e+01 +1.5532748671820433e+04 -3.6978747403904621e+05 -8.8630743008034796e+07 
-4.2499999999999902e+00 -5.2513728665634363e-01 +6.9382943493668119e+00 +3.0970975780766223e+00 +1.6465217077562059e+01 +1.5481870797372922e+04 -3.6873908177920099e+05 -8.8326772463985905e+07 
-4.2999999999999901e+00 -5.2516521600106847e-01 +6.9396702861770736e+00 +3.0712480958022899e+00 +1.6659556230301177e+01 +1.5428826727226546e+04 -3.6745997766543104e+05 -8.8004153851508021e+07 
-4.3499999999999899e+00 -5.2519338113004643e-01 +6.9410577567083944e+00 +3.0452708980101568e+00 +1.6820374298800992e+01 +1.5373630025334158e+04 -3.6595927809026616e+05 -8.7663146637189299e+07 
-4.3999999999999897e+00 -5.2522177947565141e-01 +6.9424565626021026e+00 +3.0191723665625538e+00 +1.6948799087715191e+01 +1.5316294286934737e+04 -3.6424609912505076e+05 -8.7304010468062058e+07 
-4.4499999999999904e+00 -5.2525040847030902e-01 +6.9438665054948245e+00 +2.9929588780356968e+00 +1.7045958565489965e+01 +1.5256833257205657e+04 -3.6232955811742117e+05 -8.6927006026772261e+07 
-4.4999999999999902e+00 -5.2527926554641113e-01 +6.9452873870258438e+00 +2.9666368173241739e+00 +1.7112980599446775e+01 +1.5195260449119487e+04 -3.6021877163470082e+05 -8.6532392396157920e+07 
-4.5499999999999901e+00 -5.2530834813631466e-01 +6.9467190088338509e+00 +2.9402125622415682e+00 +1.7150993056054993e+01 +1.5131589573036543e+04 -3.5792285617096792e+05 -8.6120430009102643e+07 
-4.5999999999999899e+00 -5.2533765367244867e-01 +6.9481611725583754e+00 +2.9136924950843799e+00 +1.7161123760321669e+01 +1.5065834215543044e+04 -3.5545092790081870e+05 -8.5691378453004897e+07 
-4.6499999999999897e+00 -5.2536717958718571e-01 +6.9496136798335613e+00 +2.8870829928670441e+00 +1.7144500735365899e+01 +1.4998008100032052e+04 -3.5281210456613766e+05 -8.5245498209179386e+07 
-4.6999999999999904e+00 -5.2539692331296106e-01 +6.9510763322976947e+00 +2.8603904383879830e+00 +1.7102251825488672e+01 +1.4928124804479547e+04 -3.5001550245678605e+05 -8.4783048812798649e+07 
-4.7499999999999902e+00 -5.2542688228209811e-01 +6.9525489315864828e+00 +2.8336212093400781e+00 +1.7035504967994029e+01 +1.4856198033111636e+04 -3.4707023859335575e+05 -8.4304290606561705e+07 
-4.7999999999999901e+00 -5.2545705392701547e-01 +6.9540312793353989e+00 +2.8067816866051936e+00 +1.6945388084094805e+01 +1.4782241409570002e+04 -3.4398542983520258e+05 -8.3809483404797330e+07 
-4.8499999999999899e+00 -5.2548743568007317e-01 +6.9555231771795718e+00 +2.7798782498157730e+00 +1.6833029095078096e+01 +1.4706268589584593e+04 -3.4077019301105384e+05 -8.3298887225335032e+07 
-4.8999999999999897e+00 -5.2551802497371192e-01 +6.9570244267529491e+00 +2.7529172755566131e+00 +1.6699555953531416e+01 +1.4628293308877783e+04 -3.3743364521128190e+05 -8.2772762616310418e+07 
-4.9499999999999904e+00 -5.2554881924022279e-01 +6.9585348296888236e+00 +2.7259051451012049e+00 +1.6546096619249184e+01 +1.4548329179248698e+04 -3.3398490352825396e+05 -8.2231369290434703e+07 
-4.9999999999999902e+00 -5.2557981591203473e-01 +6.9600541876191135e+00 +2.6988482338750246e+00 +1.6373779089384680e+01 +1.4466389965818627e+04 -3.3043308536640817e+05 -8.1674967978639677e+07 
-5.0499999999999901e+00 -5.2561101242370678e-01 +6.9615822942224312e+00 +2.6717533123125339e+00 +1.6183723166376009e+01 +1.4382489270827340e+04 -3.2678730411124614e+05 -8.1103817730724156e+07 
