# multipoles
# s[mm] polynom_b[n=0][T/m^n] polynom_b[n=1][T/m^n] polynom_b[n=2][T/m^n] polynom_b[n=3][T/m^n] polynom_b[n=4][T/m^n] polynom_b[n=5][T/m^n] polynom_b[n=6][T/m^n] 
+0.0000000000000000e+00 -5.2249615427087248e-01 +6.8617852864871871e+00 +5.1722820428260405e+00 +3.7286447248048383e+01 -2.4100759077079565e+03 -6.2023590084334114e+05 +2.0111794049153436e+07 
-5.0000000000000003e-02 -5.2250429585049596e-01 +6.8621792747401740e+00 +5.1639670474332720e+00 +3.7272247635215116e+01 -2.4265174952676730e+03 -6.1958654189699260e+05 +2.0250710428642627e+07 
-1.0000000000000001e-01 -5.2251279781678683e-01 +6.8625940035414574e+00 +5.1553544573383254e+00 +3.7215993033846480e+01 -2.4456200296846905e+03 -6.1864655385994574e+05 +2.0405166320005484e+07 
-1.5000000000000002e-01 -5.2252165869775535e-01 +6.8630293311172945e+00 +5.1464429665843348e+00 +3.7118999840688616e+01 -2.4672995330939411e+03 -6.1742437902964745e+05 +2.0574769957701840e+07 
-2.0000000000000001e-01 -5.2253087702144518e-01 +6.8634851156911107e+00 +5.1372312716003155e+00 +3.6982584575882782e+01 -2.4914720849254286e+03 -6.1592846064585308e+05 +2.0759129937365893e+07 
-2.5000000000000000e-01 -5.2254045131590710e-01 +6.8639612154915781e+00 +5.1277180677030447e+00 +3.6808063585727652e+01 -2.5180537409953708e+03 -6.1416724056867207e+05 +2.0957854716952920e+07 
-2.9999999999999999e-01 -5.2255038010921262e-01 +6.8644574887428123e+00 +5.1179020504408044e+00 +3.6596753415592339e+01 -2.5469605576326785e+03 -6.1214916225487366e+05 +2.1170552738688596e+07 
-3.4999999999999998e-01 -5.2256066192945760e-01 +6.8649737936736006e+00 +5.1077819170160508e+00 +3.6349970460208453e+01 -2.5781086353234473e+03 -6.0988266798288515e+05 +2.1396832738419689e+07 
-3.9999999999999997e-01 -5.2257129530474244e-01 +6.8655099885127466e+00 +5.0973563625459652e+00 +3.6069031118531498e+01 -2.6114140192921177e+03 -6.0737619998887682e+05 +2.1636303082321163e+07 
-4.4999999999999996e-01 -5.2258227876318508e-01 +6.8660659314855979e+00 +5.0866240822396565e+00 +3.5755251973181316e+01 -2.6467927549134247e+03 -6.0463820208639221e+05 +2.1888572128975358e+07 
-4.9999999999999994e-01 -5.2259361083293432e-01 +6.8666414808240086e+00 +5.0755837743124843e+00 +3.5409949350344483e+01 -2.6841609680049746e+03 -6.0167711593295622e+05 +2.2153248774955895e+07 
-5.4999999999999993e-01 -5.2260529004214051e-01 +6.8672364947552085e+00 +5.0642341340511452e+00 +3.5034439801320183e+01 -2.7234347065224797e+03 -5.9850138508874364e+05 +2.2429941399559367e+07 
-5.9999999999999998e-01 -5.2261731491897423e-01 +6.8678508315102480e+00 +5.0525738576870625e+00 +3.4630039732089180e+01 -2.7645300394869091e+03 -5.9511945186641358e+05 +2.2718258501235634e+07 
-6.5000000000000002e-01 -5.2262968399162768e-01 +6.8684843493192913e+00 +5.0406016426198814e+00 +3.4198065622203274e+01 -2.8073630707140446e+03 -5.9153975925121247e+05 +2.3017808829521302e+07 
-7.0000000000000007e-01 -5.2264239578829474e-01 +6.8691369064127983e+00 +5.0283161838139545e+00 +3.3739833951314651e+01 -2.8518498349979122e+03 -5.8777075018699677e+05 +2.3328200652278479e+07 
-7.5000000000000011e-01 -5.2265544883720216e-01 +6.8698083610233889e+00 +5.0157161796724017e+00 +3.3256661140407878e+01 -2.8979064659142409e+03 -5.8382086717126518e+05 +2.3649042929310970e+07 
-8.0000000000000016e-01 -5.2266884166658956e-01 +6.8704985713820603e+00 +5.0028003273725172e+00 +3.2749863693334127e+01 -2.9454490510184487e+03 -5.7969855336448818e+05 +2.3979944255624443e+07 
-8.5000000000000020e-01 -5.2268257280469066e-01 +6.8712073957225730e+00 +4.9895673212124318e+00 +3.2220758027025646e+01 -2.9943936131055016e+03 -5.7541225123606622e+05 +2.4320512843812086e+07 
-9.0000000000000024e-01 -5.2269664077977840e-01 +6.8719346922757376e+00 +4.9760158598544662e+00 +3.1670660702810441e+01 -3.0446562868361170e+03 -5.7097040445864084e+05 +2.4670357632695470e+07 
-9.5000000000000029e-01 -5.2271104412012670e-01 +6.8726803192782020e+00 +4.9621446389724921e+00 +3.1100888059830556e+01 -3.0961531244288981e+03 -5.6638145486963249e+05 +2.5029087001370188e+07 
-1.0000000000000002e+00 -5.2272578135403702e-01 +6.8734441349613338e+00 +4.9479523571017072e+00 +3.0512756677582246e+01 -3.1488002603154541e+03 -5.6165384629627853e+05 +2.5396309902597114e+07 
-1.0500000000000003e+00 -5.2274085100980372e-01 +6.8742259975625277e+00 +4.9334377091332389e+00 +2.9907582913285200e+01 -3.2025137272925995e+03 -5.5679602076784428e+05 +2.5771634584484197e+07 
-1.1000000000000003e+00 -5.2275625161575945e-01 +6.8750257653158933e+00 +4.9185993933699361e+00 +2.9286683271672587e+01 -3.2572096479714660e+03 -5.5181642150562664e+05 +2.6154669900523528e+07 
-1.1500000000000004e+00 -5.2277198170023742e-01 +6.8758432964578882e+00 +4.9034361068287966e+00 +2.8651374193712751e+01 -3.3128041167975543e+03 -5.4672349126268970e+05 +2.6545024532374661e+07 
-1.2000000000000004e+00 -5.2278803979158128e-01 +6.8766784492251265e+00 +4.8879465453612365e+00 +2.8002972124468268e+01 -3.3692131938571083e+03 -5.4152567280280974e+05 +2.6942306922852896e+07 
-1.2500000000000004e+00 -5.2280442441815378e-01 +6.8775310818520659e+00 +4.8721294060734994e+00 +2.7342793615059563e+01 -3.4263529719642784e+03 -5.3623140975983499e+05 +2.7346125725259416e+07 
-1.3000000000000005e+00 -5.2282113410833109e-01 +6.8784010525805170e+00 +4.8559833858515917e+00 +2.6672154954766171e+01 -3.4841395406226034e+03 -5.3084914371719083e+05 +2.7756089585469306e+07 
-1.3500000000000005e+00 -5.2283816739050670e-01 +6.8792882196466012e+00 +4.8395071826416736e+00 +2.5992372660360264e+01 -3.5424890191389582e+03 -5.2538731802931312e+05 +2.8171807352544986e+07 
-1.4000000000000006e+00 -5.2285552279308234e-01 +6.8801924412891173e+00 +4.8226994930464038e+00 +2.5304763175664480e+01 -3.6013174872998834e+03 -5.1985437554649508e+05 +2.8592887595773846e+07 
-1.4500000000000006e+00 -5.2287319884446715e-01 +6.8811135757477393e+00 +4.8055590131031778e+00 +2.4610642921299661e+01 -3.6605410140913905e+03 -5.1425875891606428e+05 +2.9018938829338815e+07 
-1.5000000000000007e+00 -5.2289119407308626e-01 +6.8820514812619056e+00 +4.7880844392562150e+00 +2.3911328351135353e+01 -3.7200756780094821e+03 -5.0860891109333036e+05 +2.9449569623468578e+07 
-1.5500000000000007e+00 -5.2290950700737626e-01 +6.8830060160720787e+00 +4.7702744684707090e+00 +2.3208135890759841e+01 -3.7798375797240360e+03 -5.0291327480130951e+05 +2.9884388731213082e+07 
-1.6000000000000008e+00 -5.2292813617579137e-01 +6.8839770384209071e+00 +4.7521277971990310e+00 +2.2502381895010465e+01 -3.8397427931125239e+03 -4.9718029220173135e+05 +3.0323004672970098e+07 
-1.6500000000000008e+00 -5.2294708010679580e-01 +6.8849644065477422e+00 +4.7336431226713156e+00 +2.1795382873205902e+01 -3.8997074248755307e+03 -4.9141840674885910e+05 +3.0765026236754723e+07 
-1.7000000000000008e+00 -5.2296633732887177e-01 +6.8859679786966002e+00 +4.7148191428173449e+00 +2.1088455166880475e+01 -3.9596475978852268e+03 -4.8563606056773447e+05 +3.1210062308025893e+07 
-1.7500000000000009e+00 -5.2298590637048825e-01 +6.8869876131107857e+00 +4.6956545512347088e+00 +2.0382915156004881e+01 -4.0194793214308424e+03 -4.7984169607600645e+05 +3.1657721018802468e+07 
-1.8000000000000009e+00 -5.2300578576014467e-01 +6.8880231680321113e+00 +4.6761480446467765e+00 +1.9680079303263422e+01 -4.0791186887618305e+03 -4.7404375641720498e+05 +3.2107611066568393e+07 
-1.8500000000000010e+00 -5.2302597402635309e-01 +6.8890745017054975e+00 +4.6562983200238852e+00 +1.8981263961187842e+01 -4.1384817997813016e+03 -4.6825068385407154e+05 +3.2559341191136234e+07 
-1.9000000000000010e+00 -5.2304646969764257e-01 +6.8901414723762597e+00 +4.6361040754467888e+00 +1.8287785482271968e+01 -4.1974847875598280e+03 -4.6247092066507821e+05 +3.3012520370060936e+07 
-1.9500000000000011e+00 -5.2306727130251485e-01 +6.8912239382900724e+00 +4.6155640021704851e+00 +1.7600960221962733e+01 -4.2560436038476300e+03 -4.5671290918536735e+05 +3.3466756366903257e+07 
-2.0000000000000009e+00 -5.2308837736953651e-01 +6.8923217576912563e+00 +4.5946768008384673e+00 +1.6922104609385975e+01 -4.3140744523470530e+03 -4.5098509237796301e+05 +3.3921658641358547e+07 
-2.0500000000000007e+00 -5.2310978626630922e-01 +6.8934347805356886e+00 +4.5734428525463908e+00 +1.6252425495869801e+01 -4.3715134809812198e+03 -4.4529540504426061e+05 +3.4376881655610248e+07 
-2.1000000000000005e+00 -5.2313149571660722e-01 +6.8945628192478212e+00 +4.5518695016865394e+00 +1.5592655617703501e+01 -4.4283737354280647e+03 -4.3964942671327770e+05 +3.4832246099188477e+07 
-2.1500000000000004e+00 -5.2315350328322607e-01 +6.8957056757754049e+00 +4.5299658951506769e+00 +1.4943399701896384e+01 -4.4846865580958120e+03 -4.3405206893948297e+05 +3.5287609279174104e+07 
-2.2000000000000002e+00 -5.2317580652898332e-01 +6.8968631520725552e+00 +4.5077411811316450e+00 +1.4305262220963918e+01 -4.5404833228208217e+03 -4.2850824117096787e+05 +3.5742828709582269e+07 
-2.2500000000000000e+00 -5.2319840301668574e-01 +6.8980350500872429e+00 +4.4852045048716187e+00 +1.3678847896015849e+01 -4.5957953255722377e+03 -4.2302285484638170e+05 +3.6197761381964669e+07 
-2.2999999999999998e+00 -5.2322129030915565e-01 +6.8992211717706109e+00 +4.4623650126646313e+00 +1.3064761338007187e+01 -4.6506538897223427e+03 -4.1760082052441197e+05 +3.6652264469095729e+07 
-2.3499999999999996e+00 -5.2324446596921970e-01 +6.9004213190735726e+00 +4.4392318505151120e+00 +1.2463607160092495e+01 -4.7050903351499710e+03 -4.1224704870661063e+05 +3.7106195137560479e+07 
-2.3999999999999995e+00 -5.2326792755971419e-01 +6.9016352939456080e+00 +4.4158141644466529e+00 +1.1875990055135983e+01 -4.7591359799265847e+03 -4.0696645058442943e+05 +3.7559410532509930e+07 
-2.4499999999999993e+00 -5.2329167264348975e-01 +6.9028628983379727e+00 +4.3921211020763318e+00 +1.1302514620371456e+01 -4.8128221899339569e+03 -4.0176393642781966e+05 +3.8011768141981147e+07 
-2.4999999999999991e+00 -5.2331569878338224e-01 +6.9041039342011983e+00 +4.3681618065103329e+00 +1.0743785507438130e+01 -4.8661802039019722e+03 -3.9664441701107431e+05 +3.8463124573385015e+07 
-2.5499999999999989e+00 -5.2334000354225851e-01 +6.9053582034858527e+00 +4.3439454256303414e+00 +1.0200407364084089e+01 -4.9192413937340370e+03 -3.9161280301416904e+05 +3.8913337349662416e+07 
-2.5999999999999988e+00 -5.2336458448296563e-01 +6.9066255081412828e+00 +4.3194811026606219e+00 +9.6729848866469439e+00 -4.9720370098694129e+03 -3.8667400547082862e+05 +3.9362263191489093e+07 
-2.6499999999999986e+00 -5.2338943916837599e-01 +6.9079056501169598e+00 +4.2947779837267301e+00 +9.1621227614924354e+00 -5.0245983745310004e+03 -3.8183293527913926e+05 +3.9809759278928339e+07 
-2.6999999999999984e+00 -5.2341456516137752e-01 +6.9091984313627623e+00 +4.2698452170314098e+00 +8.6684256699521871e+00 -5.0769568725673971e+03 -3.7709450328881247e+05 +4.0255683240244493e+07 
-2.7499999999999982e+00 -5.2343996002481763e-01 +6.9105036538294558e+00 +4.2446919424883696e+00 +8.1924982440743879e+00 -5.1291436658612665e+03 -3.7246361985716544e+05 +4.0699891202582538e+07 
-2.7999999999999980e+00 -5.2346562132160046e-01 +6.9118211194647454e+00 +4.2193273089444761e+00 +7.7349452512452999e+00 -5.1811901542041087e+03 -3.6794519645669975e+05 +4.1142240884653054e+07 
-2.8499999999999979e+00 -5.2349154661459885e-01 +6.9131506302176833e+00 +4.1937604587462252e+00 +7.2963713943963233e+00 -5.2331275667236314e+03 -3.6354414395138214e+05 +4.1582588874543652e+07 
-2.8999999999999977e+00 -5.2351773346670605e-01 +6.9144919880358691e+00 +4.1680005370002515e+00 +6.8773814321408162e+00 -5.2849872051429693e+03 -3.5926537360810762e+05 +4.2020792241869070e+07 
-2.9499999999999975e+00 -5.2354417944081433e-01 +6.9158449948716019e+00 +4.1420566880559058e+00 +6.4785799272522198e+00 -5.3368003576879801e+03 -3.5511379503954918e+05 +4.2456707994389035e+07 
-2.9999999999999973e+00 -5.2357088209982239e-01 +6.9172094526681205e+00 +4.1159380558406484e+00 +6.1005718102853184e+00 -5.3885982914032838e+03 -3.5109432082687912e+05 +4.2890192956810474e+07 
-3.0499999999999972e+00 -5.2359783900662527e-01 +6.9185851633750177e+00 +4.0896537836028983e+00 +5.7439617462833459e+00 -5.4404122653337645e+03 -3.4721186131546844e+05 +4.3321103941556729e+07 
-3.0999999999999970e+00 -5.2362504772413598e-01 +6.9199719289382644e+00 +4.0632130169760226e+00 +5.4093545428425438e+00 -5.4922736026533175e+03 -3.4347132796455611e+05 +4.3749298193766437e+07 
-3.1499999999999968e+00 -5.2365250581525358e-01 +6.9213695513058218e+00 +4.0366248978201993e+00 +5.0973549188210248e+00 -5.5442135201919182e+03 -3.3987763144300011e+05 +4.4174632224364303e+07 
-3.1999999999999966e+00 -5.2368021084288452e-01 +6.9227778324218070e+00 +4.0098985694076248e+00 +4.8085677397199280e+00 -5.5962632799204139e+03 -3.3643568354589259e+05 +4.4596962874203250e+07 
-3.2499999999999964e+00 -5.2370816036993773e-01 +6.9241965742333234e+00 +3.9830431744075736e+00 +4.5435977458783592e+00 -5.6484541255123513e+03 -3.3315039500518434e+05 +4.5016146857232958e+07 
-3.2999999999999963e+00 -5.2373635195932655e-01 +6.9256255786831904e+00 +3.9560678560871620e+00 +4.3030498374695805e+00 -5.7008173183082654e+03 -3.3002667776210950e+05 +4.5432041007385917e+07 
-3.3499999999999961e+00 -5.2376478317397046e-01 +6.9270646477191242e+00 +3.9289817578021360e+00 +4.0875287117160140e+00 -5.7533841235415221e+03 -3.2706944206194783e+05 +4.5844502199142560e+07 
-3.3999999999999959e+00 -5.2379345157677271e-01 +6.9285135832816005e+00 +3.9017940201008638e+00 +3.8976393488563121e+00 -5.8061857308784101e+03 -3.2428360038931615e+05 +4.6253386791563846e+07 
-3.4499999999999957e+00 -5.2382235473065419e-01 +6.9299721873143509e+00 +3.8745137858918475e+00 +3.7339865718665184e+00 -5.8592533966746050e+03 -3.2167406380927400e+05 +4.6658551611003570e+07 
-3.4999999999999956e+00 -5.2385149019853827e-01 +6.9314402617624680e+00 +3.8471501982465952e+00 +3.5971751612150316e+00 -5.9126183791656713e+03 -3.1924574307361816e+05 +4.7059853483871959e+07 
-3.5499999999999954e+00 -5.2388085554332475e-01 +6.9329176085641686e+00 +3.8197123961099679e+00 +3.4878101452385804e+00 -5.9663118315065149e+03 -3.1700355079930363e+05 +4.7457148553318933e+07 
-3.5999999999999952e+00 -5.2391044832793876e-01 +6.9344040296629865e+00 +3.7922095220100123e+00 +3.4064963281399083e+00 -6.0203649995789729e+03 -3.1495239772173041e+05 +4.7850293575586334e+07 
-3.6499999999999950e+00 -5.2394026611529843e-01 +6.9358993269976530e+00 +3.7646507173491681e+00 +3.3538386951412007e+00 -6.0748091012489904e+03 -3.1309719597035600e+05 +4.8239145126011416e+07 
-3.6999999999999948e+00 -5.2397030646832321e-01 +6.9374033025077670e+00 +3.7370451239786453e+00 +3.3304421841525831e+00 -6.1296753732420548e+03 -3.1144285721863864e+05 +4.8623559934671201e+07 
-3.7499999999999947e+00 -5.2400056694991570e-01 +6.9389157581331320e+00 +3.7094018796970181e+00 +3.3369117050324877e+00 -6.1849949339218501e+03 -3.0999429281337955e+05 +4.9003393898803517e+07 
-3.7999999999999945e+00 -5.2403104512299359e-01 +6.9404364958112232e+00 +3.6817301255026709e+00 +3.3738522436403429e+00 -6.2407989961726607e+03 -3.0875641462163057e+05 +4.9378503587172568e+07 
-3.8499999999999943e+00 -5.2406173855047522e-01 +6.9419653174770142e+00 +3.6540390029642973e+00 +3.4418688798924242e+00 -6.2971187913230624e+03 -3.0773413523164770e+05 +4.9748745702327043e+07 
-3.8999999999999941e+00 -5.2409264479526918e-01 +6.9435020250692681e+00 +3.6263376508934630e+00 +3.5415665141846686e+00 -6.3539854715104384e+03 -3.0693236564432713e+05 +5.0113976400005296e+07 
-3.9499999999999940e+00 -5.2412376142027306e-01 +6.9450464205217264e+00 +3.5986352066232126e+00 +3.6735502349987095e+00 -6.4114301523497261e+03 -3.0635601831456303e+05 +5.0474051599822372e+07 
-3.9999999999999938e+00 -5.2415508598840588e-01 +6.9465983057689611e+00 +3.5709408115994550e+00 +3.8384250715255344e+00 -6.4694840626517935e+03 -3.0601000508327887e+05 +5.0828827996312290e+07 
-4.0499999999999936e+00 -5.2418661600984551e-01 +6.9481574950872895e+00 +3.5432617765262768e+00 +4.0363969371616042e+00 -6.5281693918783158e+03 -3.0589635398680926e+05 +5.1178237010255970e+07 
-4.0999999999999934e+00 -5.2421834878523654e-01 +6.9497238490328348e+00 +3.5155977418790862e+00 +4.2662011414802734e+00 -6.5874600586063980e+03 -3.0600668262763153e+05 +5.1522421103785001e+07 
-4.1499999999999932e+00 -5.2425028156315201e-01 +6.9512972389870047e+00 +3.4879463463669791e+00 +4.5262358389261328e+00 -6.6473150976907227e+03 -3.0633028024367819e+05 +5.1861555872244865e+07 
-4.1999999999999931e+00 -5.2428241159218369e-01 +6.9528775363288275e+00 +3.4603052312151275e+00 +4.8148992927990220e+00 -6.7076936047011623e+03 -3.0685643706335552e+05 +5.2195817299223185e+07 
-4.2499999999999929e+00 -5.2431473612091151e-01 +6.9544646124399039e+00 +3.4326720364829550e+00 +5.1305896582212114e+00 -6.7685546478313572e+03 -3.0757444246986206e+05 +5.2525381195371829e+07 
-4.2999999999999927e+00 -5.2434725239792668e-01 +6.9560583387041728e+00 +3.4050444033208453e+00 +5.4717050022640557e+00 -6.8298573134418984e+03 -3.0847358519713831e+05 +5.2850423452417761e+07 
-4.3499999999999925e+00 -5.2437995767180967e-01 +6.9576585865035891e+00 +3.3774199724427874e+00 +5.8366434716772178e+00 -6.8915606859378240e+03 -3.0954315468227590e+05 +5.3171119985354468e+07 
-4.3999999999999924e+00 -5.2441284919113573e-01 +6.9592652272196140e+00 +3.3497963830850974e+00 +6.2238032432967030e+00 -6.9536238007227039e+03 -3.1077244069976540e+05 +5.3487646344069913e+07 
-4.4499999999999922e+00 -5.2444592420450298e-01 +6.9608781322372160e+00 +3.3221712788434594e+00 +6.6315823403815575e+00 -7.0160058101383920e+03 -3.1215073178328684e+05 +5.3800178866878256e+07 
-4.4999999999999920e+00 -5.2447917996049265e-01 +6.9624971729394014e+00 +3.2945423013900288e+00 +7.0583788818547699e+00 -7.0786658172265788e+03 -3.1366731737478793e+05 +5.4108893565276191e+07 
-4.5499999999999918e+00 -5.2451261370769153e-01 +6.9641222207086786e+00 +3.2669070926972670e+00 +7.5025910036989254e+00 -7.1415629227835789e+03 -3.1531148710268410e+05 +5.4413966399128228e+07 
-4.5999999999999917e+00 -5.2454622269467222e-01 +6.9657531469300116e+00 +3.2392632933433170e+00 +7.9626167477437608e+00 -7.2046561944910854e+03 -3.1707252991392429e+05 +5.4715573120141372e+07 
-4.6499999999999915e+00 -5.2458000417002981e-01 +6.9673898229892366e+00 +3.2116085481088636e+00 +8.4368541183107766e+00 -7.2679048088636046e+03 -3.1893973450463719e+05 +5.5013890197980605e+07 
-4.6999999999999913e+00 -5.2461395538233568e-01 +6.9690321202702981e+00 +3.1839404979963088e+00 +8.9237012043043276e+00 -7.3312678368124589e+03 -3.2090239037544699e+05 +5.5309093375512116e+07 
-4.7499999999999911e+00 -5.2464807358018084e-01 +6.9706799101602082e+00 +3.1562567885871307e+00 +9.4215559692290984e+00 -7.3947044778966756e+03 -3.2294978606151079e+05 +5.5601359283291459e+07 
-4.7999999999999909e+00 -5.2468235601213742e-01 +6.9723330640435019e+00 +3.1285550618714923e+00 +9.9288164764156246e+00 -7.4581738224969477e+03 -3.2507121098881523e+05 +5.5890863767489985e+07 
-4.8499999999999908e+00 -5.2471679992679332e-01 +6.9739914533089129e+00 +3.1008329637480627e+00 +1.0443880628303191e+01 -7.5216350686193164e+03 -3.2725595338525163e+05 +5.6177783407982811e+07 
-4.8999999999999906e+00 -5.2475140257270747e-01 +6.9756549493430171e+00 +3.0730881351483714e+00 +1.0965146413005064e+01 -7.5850472756657718e+03 -3.2949330225794547e+05 +5.6462293833744667e+07 
-4.9499999999999904e+00 -5.2478616119846266e-01 +6.9773234235323569e+00 +3.0453182228260771e+00 +1.1491011826466604e+01 -7.6483696643524527e+03 -3.3177254678280337e+05 +5.6744571777897663e+07 
-4.9999999999999902e+00 -5.2482107305264414e-01 +6.9789967472657297e+00 +3.0175208737674852e+00 +1.2019874770503485e+01 -7.7115614490528651e+03 -3.3408297544432414e+05 +5.7024793880503409e+07 
-5.0499999999999901e+00 -5.2485613538379883e-01 +6.9806747919336756e+00 +2.9896937294087582e+00 +1.2550133077011488e+01 -7.7745816981095277e+03 -3.3641387624808034e+05 +5.7303135811716385e+07 
