# multipoles
# s[mm] polynom_b[n=0][T/m^n] polynom_b[n=1][T/m^n] polynom_b[n=2][T/m^n] polynom_b[n=3][T/m^n] polynom_b[n=4][T/m^n] polynom_b[n=5][T/m^n] polynom_b[n=6][T/m^n] 
+0.0000000000000000e+00 -5.8016926055345108e-01 +7.5894391140902293e+00 +6.5719977894604611e+00 -3.6989786332636285e+01 -1.6504537007870815e+04 -7.0718702189546442e+04 +1.2000821504547334e+08 
+5.0000000000000003e-02 -5.8017137432994392e-01 +7.5896248715191845e+00 +6.5718757002324262e+00 -3.7031424736628203e+01 -1.6608954814944605e+04 -7.0479165409399982e+04 +1.2062906052063210e+08 
+1.0000000000000001e-01 -5.8017388237882439e-01 +7.5898321797280861e+00 +6.5713623135764712e+00 -3.7065243645003825e+01 -1.6713792187429819e+04 -7.0324685106473844e+04 +1.2124964083937044e+08 
+1.5000000000000002e-01 -5.8017678344582235e-01 +7.5900609373724937e+00 +6.5704483315548377e+00 -3.7091786166858213e+01 -1.6818815527157421e+04 -7.0248587285349786e+04 +1.2186868916068883e+08 
+2.0000000000000001e-01 -5.8018007627669355e-01 +7.5903110431137808e+00 +6.5691244580451578e+00 -3.7111595634407180e+01 -1.6923791291603327e+04 -7.0244196076079883e+04 +1.2248493904898337e+08 
+2.5000000000000000e-01 -5.8018375961722013e-01 +7.5905823956114844e+00 +6.5673813979733815e+00 -3.7125215273805118e+01 -1.7028485960942784e+04 -7.0304836477129007e+04 +1.2309712420021038e+08 
+2.9999999999999999e-01 -5.8018783221318526e-01 +7.5908748935257471e+00 +6.5652098529621359e+00 -3.7133188315210440e+01 -1.7132665924894780e+04 -7.0423833438997579e+04 +1.2370397769548200e+08 
+3.4999999999999998e-01 -5.8019229281039641e-01 +7.5911884355198955e+00 +6.5626005263356761e+00 -3.7136058097810455e+01 -1.7236097625955477e+04 -7.0594510992894750e+04 +1.2430423300088559e+08 
+3.9999999999999997e-01 -5.8019714015468538e-01 +7.5915229202539871e+00 +6.5595441222256241e+00 -3.7134367781175861e+01 -1.7338547522078614e+04 -7.0810194717653867e+04 +1.2489662365871467e+08 
+4.4999999999999996e-01 -5.8020237299188615e-01 +7.5918782463915866e+00 +6.5560313416871816e+00 -3.7128660665061986e+01 -1.7439781989070143e+04 -7.1064208951571156e+04 +1.2547988266579010e+08 
+4.9999999999999994e-01 -5.8020799006787871e-01 +7.5922543125957525e+00 +6.5520528917354603e+00 -3.7119479992756027e+01 -1.7539567568452301e+04 -7.1349878536436707e+04 +1.2605274415181127e+08 
+5.4999999999999993e-01 -5.8021399012853181e-01 +7.5926510175312902e+00 +6.5475994731857288e+00 -3.7107369059992756e+01 -1.7637670626073595e+04 -7.1660527851892723e+04 +1.2661394102975142e+08 
+5.9999999999999998e-01 -5.8022037191974141e-01 +7.5930682598611092e+00 +6.5426617894174264e+00 -3.7092871058504173e+01 -1.7733857605649511e+04 -7.1989482145186688e+04 +1.2716220677263057e+08 
+6.5000000000000002e-01 -5.8022713418742666e-01 +7.5935059382548911e+00 +6.5372305443553778e+00 -3.7076529432495441e+01 -1.7827894956442549e+04 -7.2330064573725685e+04 +1.2769627485228218e+08 
+7.0000000000000007e-01 -5.8023427567751518e-01 +7.5939639513773880e+00 +6.5312964408547032e+00 -3.7058887393963104e+01 -1.7919549107979572e+04 -7.2675600245086447e+04 +1.2821487864429314e+08 
+7.5000000000000011e-01 -5.8024179513594887e-01 +7.5944421978949599e+00 +6.5248501812313213e+00 -3.7040488207289364e+01 -1.8008586470973529e+04 -7.3019413779033377e+04 +1.2871675137743275e+08 
+8.0000000000000016e-01 -5.8024969130870696e-01 +7.5949405764760938e+00 +6.5178824711589396e+00 -3.7021875193476738e+01 -1.8094773544894899e+04 -7.3354829354752874e+04 +1.2920062687338147e+08 
+8.5000000000000020e-01 -5.8025796294176790e-01 +7.5954589857918204e+00 +6.5103840133533488e+00 -3.7003591752358020e+01 -1.8177876750501706e+04 -7.3675170523181063e+04 +1.2966523842397481e+08 
+9.0000000000000024e-01 -5.8026660878112524e-01 +7.5959973245117922e+00 +6.5023455106937442e+00 -3.6986181206940117e+01 -1.8257662517484547e+04 -7.3973761440347007e+04 +1.3010931939877535e+08 
+9.5000000000000029e-01 -5.8027562757279416e-01 +7.5965554913050726e+00 +6.4937576665070598e+00 -3.6970186837779139e+01 -1.8333897280282563e+04 -7.4243926598715610e+04 +1.3053160316670819e+08 
+1.0000000000000002e+00 -5.8028501806280375e-01 +7.5971333848456863e+00 +6.4846111840881315e+00 -3.6956152086219738e+01 -1.8406347477766540e+04 -7.4478989250441387e+04 +1.3093082314675365e+08 
+1.0500000000000003e+00 -5.8029477899719584e-01 +7.5977309038061218e+00 +6.4748967660793539e+00 -3.6944620326753821e+01 -1.8474779530065029e+04 -7.4672273117122400e+04 +1.3130571262530980e+08 
+1.1000000000000003e+00 -5.8030490912204880e-01 +7.5983479468604944e+00 +6.4646051186813738e+00 -3.6936134963328833e+01 -1.8538959951164616e+04 -7.4817101747257562e+04 +1.3165500551042321e+08 
+1.1500000000000004e+00 -5.8031540718343622e-01 +7.5989844126836177e+00 +6.4537269446327787e+00 -3.6931239417957322e+01 -1.8598655164669042e+04 -7.4906798492538379e+04 +1.3197743511052692e+08 
+1.2000000000000004e+00 -5.8032627192743658e-01 +7.5996401999515237e+00 +6.4422529451066577e+00 -3.6930477128908777e+01 -1.8653631552466948e+04 -7.4934686611290730e+04 +1.3227173444917329e+08 
+1.2500000000000004e+00 -5.8033750210018231e-01 +7.6003152073408060e+00 +6.4301738273569358e+00 -3.6934391533501469e+01 -1.8703655654743110e+04 -7.4894089394530136e+04 +1.3253663759577782e+08 
+1.3000000000000005e+00 -5.8034909644778876e-01 +7.6010093335288298e+00 +6.4174802937462623e+00 -3.6943526092160759e+01 -1.8748493887932898e+04 -7.4778329891402755e+04 +1.3277087781251624e+08 
+1.3500000000000005e+00 -5.8036105371639501e-01 +7.6017224771967635e+00 +6.4041630476105205e+00 -3.6958424381627580e+01 -1.8787912687596043e+04 -7.4580730262884914e+04 +1.3297318845863004e+08 
+1.4000000000000006e+00 -5.8037337265215516e-01 +7.6024545370236938e+00 +6.3902127927567403e+00 -3.6979629872619476e+01 -1.8821678508114041e+04 -7.4294613554094962e+04 +1.3314230304170889e+08 
+1.4500000000000006e+00 -5.8038605200125049e-01 +7.6032054116917260e+00 +6.3756202349500244e+00 -3.7007686147893921e+01 -1.8849557851830919e+04 -7.3913301858197796e+04 +1.3327695536952394e+08 
+1.5000000000000007e+00 -5.8039909050985850e-01 +7.6039749998824719e+00 +6.3603760771936413e+00 -3.7043136740781812e+01 -1.8871317152537475e+04 -7.3430117701984040e+04 +1.3337587880520318e+08 
+1.5500000000000007e+00 -5.8041248692418446e-01 +7.6047632002805772e+00 +6.3444710240361832e+00 -3.7086525280674728e+01 -1.8886722877553311e+04 -7.2838382867887383e+04 +1.3343780690585636e+08 
+1.6000000000000008e+00 -5.8042623999044407e-01 +7.6055699115701634e+00 +6.3278957801107287e+00 -3.7138395369571597e+01 -1.8895541504601730e+04 -7.2131419312287398e+04 +1.3346147332255796e+08 
+1.6500000000000008e+00 -5.8044034845486081e-01 +7.6063950324378728e+00 +6.3106410486858762e+00 -3.7199290668297579e+01 -1.8897539469345786e+04 -7.1302548610601807e+04 +1.3344561139879631e+08 
+1.7000000000000008e+00 -5.8045481106368824e-01 +7.6072384615720710e+00 +6.2926975358584416e+00 -3.7269754906210714e+01 -1.8892483287024654e+04 -7.0345091712380163e+04 +1.3338895502400388e+08 
+1.7500000000000009e+00 -5.8046962656317835e-01 +7.6081000976602002e+00 +6.2740559450488398e+00 -3.7350331741108825e+01 -1.8880139397981515e+04 -6.9252370219081873e+04 +1.3329023756489801e+08 
+1.8000000000000009e+00 -5.8048479369961414e-01 +7.6089798393913881e+00 +6.2547069832626674e+00 -3.7441564885295598e+01 -1.8860274345409201e+04 -6.8017705269214130e+04 +1.3314819310221224e+08 
+1.8500000000000010e+00 -5.8050031121927170e-01 +7.6098775854595377e+00 +6.2346413530514058e+00 -3.7543998213857826e+01 -1.8832654543841170e+04 -6.6634416733675316e+04 +1.3296155480877487e+08 
+1.9000000000000010e+00 -5.8051617786845622e-01 +7.6107932345548397e+00 +6.2138497604465357e+00 -3.7658175441188007e+01 -1.8797046508854841e+04 -6.5095825762582004e+04 +1.3272905656450236e+08 
+1.9500000000000011e+00 -5.8053239239347521e-01 +7.6117266853728394e+00 +6.1923229094166903e+00 -3.7784640473711654e+01 -1.8753216697959215e+04 -6.3395251980914189e+04 +1.3244943183874767e+08 
+2.0000000000000009e+00 -5.8054895354067637e-01 +7.6126778366074497e+00 +6.1700515086323842e+00 -3.7923937128996222e+01 -1.8700931694186285e+04 -6.1526015754360335e+04 +1.3212141493914367e+08 
+2.0500000000000007e+00 -5.8056585988882048e-01 +7.6136465770762882e+00 +6.1470315680480061e+00 -3.8076425869774333e+01 -1.8640065607087508e+04 -5.9483588228563924e+04 +1.3174435133117737e+08 
+2.1000000000000005e+00 -5.8058310934623625e-01 +7.6146327501013618e+00 +6.1232805712614180e+00 -3.8241744208128779e+01 -1.8570927003068326e+04 -5.7271939253774479e+04 +1.3132008427053829e+08 
+2.1500000000000004e+00 -5.8060069965358452e-01 +7.6156361861292563e+00 +6.0988214379470529e+00 -3.8419351438452814e+01 -1.8493933890204749e+04 -5.4897143891389176e+04 +1.3085109298584373e+08 
+2.2000000000000002e+00 -5.8061862855156476e-01 +7.6166567156075118e+00 +6.0736770927620247e+00 -3.8608706902441668e+01 -1.8409504411434016e+04 -5.2365276742667316e+04 +1.3033985762001149e+08 
+2.2500000000000000e+00 -5.8063689378086203e-01 +7.6176941689842161e+00 +6.0478704557894307e+00 -3.8809269930891098e+01 -1.8318056585945971e+04 -4.9682412587134131e+04 +1.2978885747826536e+08 
+2.2999999999999998e+00 -5.8065549308216768e-01 +7.6187483767063195e+00 +6.0214244462713413e+00 -3.9020499810001191e+01 -1.8220008410549846e+04 -4.6854626505961722e+04 +1.2920057171871562e+08 
+2.3499999999999996e+00 -5.8067442419621207e-01 +7.6198191692229944e+00 +5.9943619887261139e+00 -3.9241855885752599e+01 -1.8115778025099025e+04 -4.3887993168334273e+04 +1.2857748046388277e+08 
+2.3999999999999995e+00 -5.8069368486371564e-01 +7.6209063769808418e+00 +5.9667060039688051e+00 -3.9472797394961134e+01 -1.8005783468942587e+04 -4.0788588106431860e+04 +1.2792206315835629e+08 
+2.4499999999999993e+00 -5.8071327282539775e-01 +7.6220098304279364e+00 +5.9384794109315786e+00 -3.9712783620911807e+01 -1.7890442731503270e+04 -3.7562486473826277e+04 +1.2723679891203156e+08 
+2.4999999999999991e+00 -5.8073318582201994e-01 +7.6231293600093615e+00 +5.9097051340050566e+00 -3.9961273713586237e+01 -1.7770173948118074e+04 -3.4215764528532010e+04 +1.2652416781817572e+08 
+2.5499999999999989e+00 -5.8075342159432575e-01 +7.6242647961761394e+00 +5.8804060932870588e+00 -4.0217727051255011e+01 -1.7645395142597983e+04 -3.0754496661124991e+04 +1.2578664923136955e+08 
+2.5999999999999988e+00 -5.8077397788307750e-01 +7.6254159693731278e+00 +5.8506052098963233e+00 -4.0481602748576577e+01 -1.7516524360861731e+04 -2.7184759431784725e+04 +1.2502672263723037e+08 
+2.6499999999999986e+00 -5.8079485242904494e-01 +7.6265827100483436e+00 +5.8203254051457876e+00 -4.0752360037407648e+01 -1.7383979658781300e+04 -2.3512628451688306e+04 +1.2424686760618103e+08 
+2.6999999999999984e+00 -5.8081604297300726e-01 +7.6277648486473844e+00 +5.7895895998374343e+00 -4.1029458045515447e+01 -1.7248179074082007e+04 -1.9744180164026013e+04 +1.2344956357414845e+08 
+2.7499999999999982e+00 -5.8083754725575620e-01 +7.6289622156170545e+00 +5.7584207165829362e+00 -4.1312355931066641e+01 -1.7109540702204500e+04 -1.5885490803727074e+04 +1.2263729039828637e+08 
+2.7999999999999980e+00 -5.8085936301807906e-01 +7.6301746414015659e+00 +5.7268416746218227e+00 -4.1600512745089652e+01 -1.6968482539605662e+04 -1.1942637454663731e+04 +1.2181252724195845e+08 
+2.8499999999999979e+00 -5.8088148800078221e-01 +7.6314019564480358e+00 +5.6948753953116036e+00 -4.1893387643711414e+01 -1.6825422639231307e+04 -7.9216963600155441e+03 +1.2097775364567854e+08 
+2.8999999999999977e+00 -5.8090391994468349e-01 +7.6326439912002106e+00 +5.6625448011590382e+00 -4.2190439631605003e+01 -1.6680779092006866e+04 -3.8287450294529303e+03 +1.2013544943686281e+08 
+2.9499999999999975e+00 -5.8092665659059994e-01 +7.6339005761034340e+00 +5.6298728127596531e+00 -4.2491127780011382e+01 -1.6534969935415884e+04 +3.3013961434702810e+02 +1.1928809407880297e+08 
+2.9999999999999973e+00 -5.8094969567934829e-01 +7.6351715416005037e+00 +5.5968823494130664e+00 -4.2794911038077977e+01 -1.6388413170530908e+04 +4.5488795942147917e+03 +1.1843816678319710e+08 
+3.0499999999999972e+00 -5.8097303495176555e-01 +7.6364567181343066e+00 +5.5635963323992659e+00 -4.3101248365916739e+01 -1.6241526849144040e+04 +8.8213970847642813e+03 +1.1758814709585047e+08 
+3.0999999999999970e+00 -5.8099667214869843e-01 +7.6377559361458474e+00 +5.5300376840520231e+00 -4.3409598620805717e+01 -1.6094729060470130e+04 +1.3141613335453078e+04 +1.1674051485630478e+08 
+3.1499999999999968e+00 -5.8102060501097863e-01 +7.6390690260781415e+00 +5.4962293223639227e+00 -4.3719420746791286e+01 -1.5948437767755200e+04 +1.7503450348893763e+04 +1.1589774901641524e+08 
+3.1999999999999966e+00 -5.8104483127946904e-01 +7.6403958183729959e+00 +5.4621941698216743e+00 -4.4030173626359478e+01 -1.5803071062261204e+04 +2.1900829599837572e+04 +1.1506232942794803e+08 
+3.2499999999999964e+00 -5.8106934869502480e-01 +7.6417361434675852e+00 +5.4279551463920281e+00 -4.4341315954068151e+01 -1.5659046962807397e+04 +2.6327671044477389e+04 +1.1423673543293688e+08 
+3.2999999999999963e+00 -5.8109415499850592e-01 +7.6430898318028175e+00 +5.3935351722425748e+00 -4.4652306570965315e+01 -1.5516783501790822e+04 +3.0777895828150849e+04 +1.1342344650581202e+08 
+3.3499999999999961e+00 -5.8111924793078107e-01 +7.6444567138136961e+00 +5.3589571668551512e+00 -4.4962604067615970e+01 -1.5376698680310228e+04 +3.5245423035305503e+04 +1.1262494186015496e+08 
+3.3999999999999959e+00 -5.8114462523273547e-01 +7.6458366199402894e+00 +5.3242440528655184e+00 -4.5271667229641402e+01 -1.5239210596746547e+04 +3.9724173303222240e+04 +1.1184370141650918e+08 
+3.4499999999999957e+00 -5.8117028464523457e-01 +7.6472293806163458e+00 +5.2894187476745538e+00 -4.5578954603040451e+01 -1.5104737203087772e+04 +4.4208065402279644e+04 +1.1108220409458870e+08 
+3.4999999999999956e+00 -5.8119622390916414e-01 +7.6486348262779860e+00 +5.2545041719733927e+00 -4.5883924801752748e+01 -1.4973696543026450e+04 +4.8691018548701657e+04 +1.1034292944320138e+08 
+3.5499999999999954e+00 -5.8122244076541862e-01 +7.6500527873579358e+00 +5.2195232462232104e+00 -4.6186036314307870e+01 -1.4846506651452259e+04 +5.3166950997381013e+04 +1.0962835695271733e+08 
+3.5999999999999952e+00 -5.8124893295488633e-01 +7.6514830942893344e+00 +5.1844988897434607e+00 -4.6484747640384093e+01 -1.4723585534695700e+04 +5.7629781078831402e+04 +1.0894096592601794e+08 
+3.6499999999999950e+00 -5.8127569821846647e-01 +7.6529255775026241e+00 +5.1494540222770020e+00 -4.6779517167545606e+01 -1.4605351209206745e+04 +6.2073426202242874e+04 +1.0828323574035107e+08 
+3.6999999999999948e+00 -5.8130273429705726e-01 +7.6543800674264757e+00 +5.1144115632477405e+00 -4.7069803198623482e+01 -1.4492221685743829e+04 +6.6491803034397308e+04 +1.0765764574567388e+08 
+3.7499999999999947e+00 -5.8133003893156399e-01 +7.6558463944905863e+00 +5.0793944322998579e+00 -4.7355064092848025e+01 -1.4384614979802644e+04 +7.0878828773710251e+04 +1.0706667532537179e+08 
+3.7999999999999945e+00 -5.8135760986288210e-01 +7.6573243891225715e+00 +5.0444255465872923e+00 -4.7634758110606903e+01 -1.4282949040967616e+04 +7.5228419747211126e+04 +1.0651280342898861e+08 
+3.8499999999999943e+00 -5.8138544483193810e-01 +7.6588138817451989e+00 +5.0095278280740470e+00 -4.7908343322307282e+01 -1.4187641946442718e+04 +7.9534490760082903e+04 +1.0599850986353871e+08 
+3.8999999999999941e+00 -5.8141354157963787e-01 +7.6603147027867182e+00 +4.9747241945650602e+00 -4.8175278025603596e+01 -1.4099111664387357e+04 +8.3790958489506782e+04 +1.0552627371665785e+08 
+3.9499999999999940e+00 -5.8144189784689759e-01 +7.6618266826658212e+00 +4.9400375649544017e+00 -4.8435020114254101e+01 -1.4017776190708231e+04 +8.7991736243922162e+04 +1.0509857426294613e+08 
+3.9999999999999938e+00 -5.8147051137463468e-01 +7.6633496518048290e+00 +4.9054908578875231e+00 -4.8687027640430614e+01 -1.3944053515856867e+04 +9.2130738701226262e+04 +1.0471789075448419e+08 
+4.0499999999999936e+00 -5.8149937977724764e-01 +7.6648834365513867e+00 +4.8711026263234771e+00 -4.8930835124279255e+01 -1.3878260225140015e+04 +9.6202737961011371e+04 +1.0438609676770982e+08 
+4.0999999999999934e+00 -5.8152850016307667e-01 +7.6664278432284814e+00 +4.8368742059409193e+00 -4.9166312025818968e+01 -1.3820303085516216e+04 +1.0020599307929480e+05 +1.0410259754770853e+08 
+4.1499999999999932e+00 -5.8155786951389510e-01 +7.6679826722290114e+00 +4.8028026907101076e+00 -4.9393420608125034e+01 -1.3769984948381862e+04 +1.0413965773654288e+05 +1.0386616748553988e+08 
+4.1999999999999931e+00 -5.8158748481146350e-01 +7.6695477239478924e+00 +4.7688851722152856e+00 -4.9612123254355190e+01 -1.3727108597948627e+04 +1.0800288664703436e+05 +1.0367558051639165e+08 
+4.2499999999999929e+00 -5.8161734303754453e-01 +7.6711227987784802e+00 +4.7351187424239480e+00 -4.9822382281098122e+01 -1.3691476829314750e+04 +1.1179483393888982e+05 +1.0352961065200591e+08 
+4.2999999999999927e+00 -5.8164744117390998e-01 +7.6727076971120676e+00 +4.7015004948979913e+00 -5.0024159930193321e+01 -1.3662892479926189e+04 +1.1551465312849382e+05 +1.0342703218980908e+08 
+4.3499999999999925e+00 -5.8167777620232508e-01 +7.6743022193464316e+00 +4.6680275222921512e+00 -5.0217418717189766e+01 -1.3641158365090172e+04 +1.1916149998615736e+05 +1.0336661928787489e+08 
+4.3999999999999924e+00 -5.8170834510454905e-01 +7.6759061658740153e+00 +4.6346969162148515e+00 -5.0402120948560686e+01 -1.3626077269238362e+04 +1.2273452856312743e+05 +1.0334714588703512e+08 
+4.4499999999999922e+00 -5.8173914486234268e-01 +7.6775193370861228e+00 +4.6015057688032046e+00 -5.0578228899408096e+01 -1.3617451994345513e+04 +1.2623289267797385e+05 +1.0336738606102663e+08 
+4.4999999999999920e+00 -5.8177017245747342e-01 +7.6791415333787807e+00 +4.5684511734436430e+00 -5.0745705038847454e+01 -1.3615085370228329e+04 +1.2965574770749547e+05 +1.0342611404981698e+08 
+4.5499999999999918e+00 -5.8180142487169695e-01 +7.6807725551455732e+00 +4.5355302219828300e+00 -5.0904511760105905e+01 -1.3618780191074680e+04 +1.3300224846188517e+05 +1.0352210387772000e+08 
+4.5999999999999917e+00 -5.8183289908677205e-01 +7.6824122027780239e+00 +4.5027400070932488e+00 -5.1054611375695252e+01 -1.3628339271589377e+04 +1.3627154905109500e+05 +1.0365412970122913e+08 
+4.6499999999999915e+00 -5.8186459208444630e-01 +7.6840602766719330e+00 +4.4700776197295804e+00 -5.1195966390966234e+01 -1.3643565380068560e+04 +1.3946280520249830e+05 +1.0382096536863592e+08 
+4.6999999999999913e+00 -5.8189650084647360e-01 +7.6857165772197833e+00 +4.4375401523608140e+00 -5.1328539188045731e+01 -1.3664261322952791e+04 +1.4257517163080198e+05 +1.0402138497251478e+08 
+4.7499999999999911e+00 -5.8192862235460563e-01 +7.6873809048152495e+00 +4.4051246978793692e+00 -5.1452292202659883e+01 -1.3690229922418550e+04 +1.4560780346276771e+05 +1.0425416273140889e+08 
+4.7999999999999909e+00 -5.8196095359058098e-01 +7.6890530598514646e+00 +4.3728283472602039e+00 -5.1567187879470211e+01 -1.3721273949282306e+04 +1.4855985596371093e+05 +1.0451807252128626e+08 
+4.8499999999999908e+00 -5.8199349153613800e-01 +7.6907328427228130e+00 +4.3406481916894037e+00 -5.1673188716775883e+01 -1.3757196172349952e+04 +1.5143048479527576e+05 +1.0481188817468826e+08 
+4.8999999999999906e+00 -5.8202623317302304e-01 +7.6924200538219489e+00 +4.3085813247620628e+00 -5.1770257163286978e+01 -1.3797799433159658e+04 +1.5421884525253341e+05 +1.0513438404860377e+08 
+4.9499999999999904e+00 -5.8205917548296326e-01 +7.6941144935415720e+00 +4.2766248372534061e+00 -5.1858355688919040e+01 -1.3842886494702996e+04 +1.5692409280705245e+05 +1.0548433396170676e+08 
+4.9999999999999902e+00 -5.8209231544768092e-01 +7.6958159622770994e+00 +4.2447758201748185e+00 -5.1937446876813340e+01 -1.3892260129489330e+04 +1.5954538381818851e+05 +1.0586051180989219e+08 
+5.0499999999999901e+00 -5.8212565004891026e-01 +7.6975242604211820e+00 +4.2130313665645591e+00 -5.2007493231164652e+01 -1.3945723155259173e+04 +1.6208187406506136e+05 +1.0626169175915787e+08 
