# field on trajectory
# s[mm] rx[mm] ry[mm] rz[mm] bx[T] by[T] bz[T]
0.0000000000000000e+00 +8.2850000000000001e+00 +0.0000000000000000e+00 +0.0000000000000000e+00 -3.0464104606399835e-02 -5.8088011732887901e-01 +5.6785483844846831e-03
-5.0000000000000003e-02 +8.2849999306156636e+00 +0.0000000000000000e+00 -4.9999999999935811e-02 -3.0464252539681113e-02 -5.8088326335937446e-01 +5.6812283094767159e-03
-1.0000000000000001e-01 +8.2849997224621355e+00 +0.0000000000000000e+00 -9.9999999999486486e-02 -3.0464425917088356e-02 -5.8088679008907484e-01 +5.6839157263541039e-03
-1.5000000000000002e-01 +8.2849993755385754e+00 +0.0000000000000000e+00 -1.4999999999826688e-01 -3.0464624732364089e-02 -5.8089069668978888e-01 +5.6866104326006818e-03
-2.0000000000000001e-01 +8.2849988898440490e+00 +0.0000000000000000e+00 -1.9999999999589185e-01 -3.0464848979252158e-02 -5.8089498233334236e-01 +5.6893122257004776e-03
-2.5000000000000000e-01 +8.2849982653775331e+00 +0.0000000000000000e+00 -2.4999999999197622e-01 -3.0465098651497852e-02 -5.8089964619157963e-01 +5.6920209031377129e-03
-2.9999999999999999e-01 +8.2849975021379123e+00 +0.0000000000000000e+00 -2.9999999998613480e-01 -3.0465373742847770e-02 -5.8090468743636181e-01 +5.6947362623967846e-03
-3.4999999999999998e-01 +8.2849966001239839e+00 +0.0000000000000000e+00 -3.4999999997798248e-01 -3.0465674247049893e-02 -5.8091010523956765e-01 +5.6974581009622575e-03
-3.9999999999999997e-01 +8.2849955593344529e+00 +0.0000000000000000e+00 -3.9999999996713398e-01 -3.0466000157853557e-02 -5.8091589877309224e-01 +5.7001862163188416e-03
-4.4999999999999996e-01 +8.2849943797679355e+00 +0.0000000000000000e+00 -4.4999999995320417e-01 -3.0466351469009407e-02 -5.8092206720884854e-01 +5.7029204059513856e-03
-4.9999999999999994e-01 +8.2849930614229574e+00 +0.0000000000000000e+00 -4.9999999993580779e-01 -3.0466728174269452e-02 -5.8092860971876703e-01 +5.7056604673448664e-03
-5.4999999999999993e-01 +8.2849916042979554e+00 +0.0000000000000000e+00 -5.4999999991455961e-01 -3.0467130267386996e-02 -5.8093552547479343e-01 +5.7084061979843694e-03
-5.9999999999999998e-01 +8.2849900083912793e+00 +0.0000000000000000e+00 -5.9999999988907438e-01 -3.0467557742116645e-02 -5.8094281364889222e-01 +5.7111573953550765e-03
-6.5000000000000002e-01 +8.2849882737011864e+00 +0.0000000000000000e+00 -6.4999999985896684e-01 -3.0468010592214347e-02 -5.8095047341304340e-01 +5.7139138569422612e-03
-7.0000000000000007e-01 +8.2849864002258471e+00 +0.0000000000000000e+00 -6.9999999982385164e-01 -3.0468488811437312e-02 -5.8095850393924464e-01 +5.7166753802312632e-03
-7.5000000000000011e-01 +8.2849843879633429e+00 +0.0000000000000000e+00 -7.4999999978334353e-01 -3.0468992393544052e-02 -5.8096690439950938e-01 +5.7194417627074853e-03
-8.0000000000000016e-01 +8.2849822369116684e+00 +0.0000000000000000e+00 -7.9999999973705727e-01 -3.0469521332294344e-02 -5.8097567396586791e-01 +5.7222128018563755e-03
-8.5000000000000020e-01 +8.2849799470687273e+00 +0.0000000000000000e+00 -8.4999999968460738e-01 -3.0470075621449232e-02 -5.8098481181036743e-01 +5.7249882951634122e-03
-9.0000000000000024e-01 +8.2849775184323367e+00 +0.0000000000000000e+00 -8.9999999962560862e-01 -3.0470655254771016e-02 -5.8099431710507055e-01 +5.7277680401140981e-03
-9.5000000000000029e-01 +8.2849749510002262e+00 +0.0000000000000000e+00 -9.4999999955967551e-01 -3.0471260226023280e-02 -5.8100418902205775e-01 +5.7305518341939435e-03
-1.0000000000000002e+00 +8.2849722447700369e+00 +0.0000000000000000e+00 -9.9999999948642260e-01 -3.0471890528970768e-02 -5.8101442673342374e-01 +5.7333394748884442e-03
-1.0500000000000003e+00 +8.2849693997393246e+00 +0.0000000000000000e+00 -1.0499999994054645e+00 -3.0472546157379585e-02 -5.8102502941128087e-01 +5.7361307596830941e-03
-1.1000000000000003e+00 +8.2849664159055560e+00 +0.0000000000000000e+00 -1.0999999993164158e+00 -3.0473227105016935e-02 -5.8103599622775703e-01 +5.7389254860633352e-03
-1.1500000000000004e+00 +8.2849632932661095e+00 +0.0000000000000000e+00 -1.1499999992188910e+00 -3.0473933365651296e-02 -5.8104732635499612e-01 +5.7417234515145738e-03
-1.2000000000000004e+00 +8.2849600318182812e+00 +0.0000000000000000e+00 -1.1999999991125045e+00 -3.0474664933052346e-02 -5.8105901896515799e-01 +5.7445244535221616e-03
-1.2500000000000004e+00 +8.2849566315592753e+00 +0.0000000000000000e+00 -1.2499999989968709e+00 -3.0475421800990957e-02 -5.8107107323041851e-01 +5.7473282895713759e-03
-1.3000000000000005e+00 +8.2849530924862140e+00 +0.0000000000000000e+00 -1.2999999988716044e+00 -3.0476203963239183e-02 -5.8108348832296852e-01 +5.7501347571474069e-03
-1.3500000000000005e+00 +8.2849494145961309e+00 +0.0000000000000000e+00 -1.3499999987363196e+00 -3.0477011413570284e-02 -5.8109626341501552e-01 +5.7529436537353531e-03
-1.4000000000000006e+00 +8.2849455978859741e+00 +0.0000000000000000e+00 -1.3999999985906308e+00 -3.0477844145758649e-02 -5.8110939767878167e-01 +5.7557547768201942e-03
-1.4500000000000006e+00 +8.2849416423526048e+00 +0.0000000000000000e+00 -1.4499999984341523e+00 -3.0478702153579843e-02 -5.8112289028650532e-01 +5.7585679238867944e-03
-1.5000000000000007e+00 +8.2849375479928007e+00 +0.0000000000000000e+00 -1.4999999982664984e+00 -3.0479585430810634e-02 -5.8113674041044028e-01 +5.7613828924198800e-03
-1.5500000000000007e+00 +8.2849333148032525e+00 +0.0000000000000000e+00 -1.5499999980872834e+00 -3.0480493971228841e-02 -5.8115094722285454e-01 +5.7641994799040230e-03
-1.6000000000000008e+00 +8.2849289427805672e+00 +0.0000000000000000e+00 -1.5999999978961215e+00 -3.0481427768613505e-02 -5.8116550989603277e-01 +5.7670174838236402e-03
-1.6500000000000008e+00 +8.2849244319212669e+00 +0.0000000000000000e+00 -1.6499999976926270e+00 -3.0482386816744759e-02 -5.8118042760227451e-01 +5.7698367016629712e-03
-1.7000000000000008e+00 +8.2849197822217864e+00 +0.0000000000000000e+00 -1.6999999974764137e+00 -3.0483371109403832e-02 -5.8119569951389327e-01 +5.7726569309060572e-03
-1.7500000000000009e+00 +8.2849149936784769e+00 +0.0000000000000000e+00 -1.7499999972470961e+00 -3.0484380640373100e-02 -5.8121132480321891e-01 +5.7754779690367469e-03
-1.8000000000000009e+00 +8.2849100662876065e+00 +0.0000000000000000e+00 -1.7999999970042881e+00 -3.0485415403436016e-02 -5.8122730264259581e-01 +5.7782996135386780e-03
-1.8500000000000010e+00 +8.2849050000453595e+00 +0.0000000000000000e+00 -1.8499999967476040e+00 -3.0486475392377151e-02 -5.8124363220438235e-01 +5.7811216618952497e-03
-1.9000000000000010e+00 +8.2848997949478331e+00 +0.0000000000000000e+00 -1.8999999964766574e+00 -3.0487560600982115e-02 -5.8126031266095302e-01 +5.7839439115896256e-03
-1.9500000000000011e+00 +8.2848944509910432e+00 +0.0000000000000000e+00 -1.9499999961910626e+00 -3.0488671023037640e-02 -5.8127734318469626e-01 +5.7867661601047182e-03
-2.0000000000000009e+00 +8.2848889681709217e+00 +0.0000000000000000e+00 -1.9999999958904333e+00 -3.0489806652331478e-02 -5.8129472294801476e-01 +5.7895882049231635e-03
-2.0500000000000007e+00 +8.2848833464833156e+00 +0.0000000000000000e+00 -2.0499999955743835e+00 -3.0490967442928282e-02 -5.8131245089656536e-01 +5.7924098507595384e-03
-2.1000000000000005e+00 +8.2848775859239918e+00 +0.0000000000000000e+00 -2.0999999952425270e+00 -3.0492153189996735e-02 -5.8133052506897209e-01 +5.7952309312569311e-03
-2.1500000000000004e+00 +8.2848716864886303e+00 +0.0000000000000000e+00 -2.1499999948944777e+00 -3.0493363648982127e-02 -5.8134894327711062e-01 +5.7980512872902925e-03
-2.2000000000000002e+00 +8.2848656481728327e+00 +0.0000000000000000e+00 -2.1999999945298492e+00 -3.0494598575330472e-02 -5.8136770333286980e-01 +5.8008707597341945e-03
-2.2500000000000000e+00 +8.2848594709721173e+00 +0.0000000000000000e+00 -2.2499999941482551e+00 -3.0495857724488540e-02 -5.8138680304815193e-01 +5.8036891894628186e-03
-2.2999999999999998e+00 +8.2848531548819206e+00 +0.0000000000000000e+00 -2.2999999937493092e+00 -3.0497140851903824e-02 -5.8140624023487164e-01 +5.8065064173499423e-03
-2.3499999999999996e+00 +8.2848466998975994e+00 +0.0000000000000000e+00 -2.3499999933326250e+00 -3.0498447713024467e-02 -5.8142601270495620e-01 +5.8093222842689153e-03
-2.3999999999999995e+00 +8.2848401060144319e+00 +0.0000000000000000e+00 -2.3999999928978157e+00 -3.0499778063299274e-02 -5.8144611827034520e-01 +5.8121366310926476e-03
-2.4499999999999993e+00 +8.2848333732276132e+00 +0.0000000000000000e+00 -2.4499999924444955e+00 -3.0501131658177718e-02 -5.8146655474299114e-01 +5.8149492986935966e-03
-2.4999999999999991e+00 +8.2848265015322617e+00 +0.0000000000000000e+00 -2.4999999919722775e+00 -3.0502508253109847e-02 -5.8148731993485780e-01 +5.8177601279437432e-03
-2.5499999999999989e+00 +8.2848194909234181e+00 +0.0000000000000000e+00 -2.5499999914807749e+00 -3.0503907603546310e-02 -5.8150841165792178e-01 +5.8205689597145812e-03
-2.5999999999999988e+00 +8.2848123413960426e+00 +0.0000000000000000e+00 -2.5999999909696014e+00 -3.0505329464938322e-02 -5.8152982772417139e-01 +5.8233756348770984e-03
-2.6499999999999986e+00 +8.2848050529450195e+00 +0.0000000000000000e+00 -2.6499999904383702e+00 -3.0506773592737645e-02 -5.8155156594560631e-01 +5.8261799943017667e-03
-2.6999999999999984e+00 +8.2847976255651545e+00 +0.0000000000000000e+00 -2.6999999898866944e+00 -3.0508239742396536e-02 -5.8157362413423808e-01 +5.8289818788585116e-03
-2.7499999999999982e+00 +8.2847900592511809e+00 +0.0000000000000000e+00 -2.7499999893141873e+00 -3.0509727669367760e-02 -5.8159600010208945e-01 +5.8317811294167172e-03
-2.7999999999999980e+00 +8.2847823539977501e+00 +0.0000000000000000e+00 -2.7999999887204621e+00 -3.0511237129104519e-02 -5.8161869166119495e-01 +5.8345775868451875e-03
-2.8499999999999979e+00 +8.2847745097994441e+00 +0.0000000000000000e+00 -2.8499999881051314e+00 -3.0512767877060511e-02 -5.8164169662359966e-01 +5.8373710920121462e-03
-2.8999999999999977e+00 +8.2847665266507651e+00 +0.0000000000000000e+00 -2.8999999874678086e+00 -3.0514319668689800e-02 -5.8166501280135974e-01 +5.8401614857852098e-03
-2.9499999999999975e+00 +8.2847584045461442e+00 +0.0000000000000000e+00 -2.9499999868081068e+00 -3.0515892259446866e-02 -5.8168863800654247e-01 +5.8429486090313832e-03
-2.9999999999999973e+00 +8.2847501434799380e+00 +0.0000000000000000e+00 -2.9999999861256388e+00 -3.0517485404786555e-02 -5.8171257005122534e-01 +5.8457323026170340e-03
-3.0499999999999972e+00 +8.2847417434464283e+00 +0.0000000000000000e+00 -3.0499999854200173e+00 -3.0519098860164063e-02 -5.8173680674749695e-01 +5.8485124074078776e-03
-3.0999999999999970e+00 +8.2847332044398261e+00 +0.0000000000000000e+00 -3.0999999846908550e+00 -3.0520732381034921e-02 -5.8176134590745598e-01 +5.8512887642689620e-03
-3.1499999999999968e+00 +8.2847245264542693e+00 +0.0000000000000000e+00 -3.1499999839377644e+00 -3.0522385722854931e-02 -5.8178618534321114e-01 +5.8540612140646564e-03
-3.1999999999999966e+00 +8.2847157094838249e+00 +0.0000000000000000e+00 -3.1999999831603585e+00 -3.0524058641080168e-02 -5.8181132286688120e-01 +5.8568295976586240e-03
-3.2499999999999964e+00 +8.2847067535224852e+00 +0.0000000000000000e+00 -3.2499999823582502e+00 -3.0525750891166992e-02 -5.8183675629059528e-01 +5.8595937559138183e-03
-3.2999999999999963e+00 +8.2846976585641769e+00 +0.0000000000000000e+00 -3.2999999815310512e+00 -3.0527462228571962e-02 -5.8186248342649227e-01 +5.8623535296924573e-03
-3.3499999999999961e+00 +8.2846884246027539e+00 +0.0000000000000000e+00 -3.3499999806783749e+00 -3.0529192408751831e-02 -5.8188850208671983e-01 +5.8651087598560114e-03
-3.3999999999999959e+00 +8.2846790516319988e+00 +0.0000000000000000e+00 -3.3999999797998330e+00 -3.0530941187163544e-02 -5.8191481008343637e-01 +5.8678592872651869e-03
-3.4499999999999957e+00 +8.2846695396456287e+00 +0.0000000000000000e+00 -3.4499999788950380e+00 -3.0532708319264180e-02 -5.8194140522880877e-01 +5.8706049527799094e-03
-3.4999999999999956e+00 +8.2846598886372895e+00 +0.0000000000000000e+00 -3.4999999779636024e+00 -3.0534493560510998e-02 -5.8196828533501299e-01 +5.8733455972593109e-03
-3.5499999999999954e+00 +8.2846500986005598e+00 +0.0000000000000000e+00 -3.5499999770051383e+00 -3.0536296666361304e-02 -5.8199544821423488e-01 +5.8760810615617019e-03
-3.5999999999999952e+00 +8.2846401695289504e+00 +0.0000000000000000e+00 -3.5999999760192574e+00 -3.0538117392272492e-02 -5.8202289167866783e-01 +5.8788111865445709e-03
-3.6499999999999950e+00 +8.2846301014159049e+00 +0.0000000000000000e+00 -3.6499999750055721e+00 -3.0539955493702056e-02 -5.8205061354051524e-01 +5.8815358130645534e-03
-3.6999999999999948e+00 +8.2846198942548028e+00 +0.0000000000000000e+00 -3.6999999739636946e+00 -3.0541810726107475e-02 -5.8207861161198859e-01 +5.8842547819774353e-03
-3.7499999999999947e+00 +8.2846095480389543e+00 +0.0000000000000000e+00 -3.7499999728932365e+00 -3.0543682844946258e-02 -5.8210688370530739e-01 +5.8869679341381096e-03
-3.7999999999999945e+00 +8.2845990627616057e+00 +0.0000000000000000e+00 -3.7999999717938100e+00 -3.0545571605675892e-02 -5.8213542763270010e-01 +5.8896751104005850e-03
-3.8499999999999943e+00 +8.2845884384159376e+00 +0.0000000000000000e+00 -3.8499999706650265e+00 -3.0547476763753852e-02 -5.8216424120640320e-01 +5.8923761516179564e-03
-3.8999999999999941e+00 +8.2845776749950684e+00 +0.0000000000000000e+00 -3.8999999695064980e+00 -3.0549398074637482e-02 -5.8219332223866049e-01 +5.8950708986423867e-03
-3.9499999999999940e+00 +8.2845667724920489e+00 +0.0000000000000000e+00 -3.9499999683178362e+00 -3.0551335293784114e-02 -5.8222266854172400e-01 +5.8977591923251036e-03
-3.9999999999999938e+00 +8.2845557308998696e+00 +0.0000000000000000e+00 -3.9999999670986526e+00 -3.0553288176650914e-02 -5.8225227792785361e-01 +5.9004408735163667e-03
-4.0499999999999936e+00 +8.2845445502114572e+00 +0.0000000000000000e+00 -4.0499999658485581e+00 -3.0555256497716593e-02 -5.8228214808584866e-01 +5.9031157922203609e-03
-4.0999999999999934e+00 +8.2845332304196759e+00 +0.0000000000000000e+00 -4.0999999645671652e+00 -3.0557240107546416e-02 -5.8231227621063864e-01 +5.9057838350599790e-03
-4.1499999999999932e+00 +8.2845217715173298e+00 +0.0000000000000000e+00 -4.1499999632540847e+00 -3.0559238875727028e-02 -5.8234265937368734e-01 +5.9084448978121967e-03
-4.1999999999999931e+00 +8.2845101734971589e+00 +0.0000000000000000e+00 -4.1999999619089277e+00 -3.0561252671844764e-02 -5.8237329464645937e-01 +5.9110988762531768e-03
-4.2499999999999929e+00 +8.2844984363518464e+00 +0.0000000000000000e+00 -4.2499999605313059e+00 -3.0563281365485525e-02 -5.8240417910042042e-01 +5.9137456661582238e-03
-4.2999999999999927e+00 +8.2844865600740132e+00 +0.0000000000000000e+00 -4.2999999591208304e+00 -3.0565324826234832e-02 -5.8243530980703706e-01 +5.9163851633018049e-03
-4.3499999999999925e+00 +8.2844745446562218e+00 +0.0000000000000000e+00 -4.3499999576771113e+00 -3.0567382923677749e-02 -5.8246668383777633e-01 +5.9190172634575209e-03
-4.3999999999999924e+00 +8.2844623900909777e+00 +0.0000000000000000e+00 -4.3999999561997605e+00 -3.0569455527398873e-02 -5.8249829826410526e-01 +5.9216418623980974e-03
-4.4499999999999922e+00 +8.2844500963707297e+00 +0.0000000000000000e+00 -4.4499999546883888e+00 -3.0571542506982307e-02 -5.8253015015749054e-01 +5.9242588558953754e-03
-4.4999999999999920e+00 +8.2844376634878678e+00 +0.0000000000000000e+00 -4.4999999531426065e+00 -3.0573643732011602e-02 -5.8256223658939865e-01 +5.9268681397203118e-03
-4.5499999999999918e+00 +8.2844250914347271e+00 +0.0000000000000000e+00 -4.5499999515620253e+00 -3.0575759072069778e-02 -5.8259455463129450e-01 +5.9294696096429443e-03
-4.5999999999999917e+00 +8.2844123802035874e+00 +0.0000000000000000e+00 -4.5999999499462554e+00 -3.0577888396739274e-02 -5.8262710135464246e-01 +5.9320631614324121e-03
-4.6499999999999915e+00 +8.2843995297866737e+00 +0.0000000000000000e+00 -4.6499999482949068e+00 -3.0580031575601879e-02 -5.8265987383090545e-01 +5.9346486908569192e-03
-4.6999999999999913e+00 +8.2843865401761576e+00 +0.0000000000000000e+00 -4.6999999466075906e+00 -3.0582188478238764e-02 -5.8269286913154439e-01 +5.9372260936837330e-03
-4.7499999999999911e+00 +8.2843734113641556e+00 +0.0000000000000000e+00 -4.7499999448839176e+00 -3.0584358974230428e-02 -5.8272608432801731e-01 +5.9397952656791760e-03
-4.7999999999999909e+00 +8.2843601433427327e+00 +0.0000000000000000e+00 -4.7999999431234972e+00 -3.0586542933156671e-02 -5.8275951649178104e-01 +5.9423561026086206e-03
-4.8499999999999908e+00 +8.2843467361039043e+00 +0.0000000000000000e+00 -4.8499999413259403e+00 -3.0588740224596546e-02 -5.8279316269428894e-01 +5.9449085002364621e-03
-4.8999999999999906e+00 +8.2843331896396322e+00 +0.0000000000000000e+00 -4.8999999394908569e+00 -3.0590950718128375e-02 -5.8282702000699149e-01 +5.9474523543261212e-03
-4.9499999999999904e+00 +8.2843195039418269e+00 +0.0000000000000000e+00 -4.9499999376178572e+00 -3.0593174283329656e-02 -5.8286108550133497e-01 +5.9499875606400252e-03
-4.9999999999999902e+00 +8.2843056790023510e+00 +0.0000000000000000e+00 -4.9999999357065512e+00 -3.0595410789777136e-02 -5.8289535624876321e-01 +5.9525140149396119e-03
-5.0499999999999901e+00 +8.2842917148130191e+00 +0.0000000000000000e+00 -5.0499999337565491e+00 -3.0597660107046641e-02 -5.8292982932071524e-01 +5.9550316129852983e-03
-5.0999999999999899e+00 +8.2842776113655940e+00 +0.0000000000000000e+00 -5.0999999317674609e+00 -3.0599922104713177e-02 -5.8296450178862558e-01 +5.9575402505364899e-03
-5.1499999999999897e+00 +8.2842633686517928e+00 +0.0000000000000000e+00 -5.1499999297388959e+00 -3.0602196652350817e-02 -5.8299937072392394e-01 +5.9600398233515522e-03
-5.1999999999999895e+00 +8.2842489866632878e+00 +0.0000000000000000e+00 -5.1999999276704640e+00 -3.0604483619532736e-02 -5.8303443319803594e-01 +5.9625302271878178e-03
-5.2499999999999893e+00 +8.2842344653917017e+00 +0.0000000000000000e+00 -5.2499999255617746e+00 -3.0606782875831122e-02 -5.8306968628238076e-01 +5.9650113578015584e-03
-5.2999999999999892e+00 +8.2842198048286129e+00 +0.0000000000000000e+00 -5.2999999234124378e+00 -3.0609094290817200e-02 -5.8310512704837270e-01 +5.9674831109479860e-03
-5.3499999999999890e+00 +8.2842050049655551e+00 +0.0000000000000000e+00 -5.3499999212220617e+00 -3.0611417734061154e-02 -5.8314075256741960e-01 +5.9699453823812429e-03
-5.3999999999999888e+00 +8.2841900657940180e+00 +0.0000000000000000e+00 -5.3999999189902574e+00 -3.0613753075132127e-02 -5.8317655991092288e-01 +5.9723980678543787e-03
-5.4499999999999886e+00 +8.2841749873054464e+00 +0.0000000000000000e+00 -5.4499999167166333e+00 -3.0616100183598210e-02 -5.8321254615027807e-01 +5.9748410631193594e-03
-5.4999999999999885e+00 +8.2841597694912448e+00 +0.0000000000000000e+00 -5.4999999144007985e+00 -3.0618458929026378e-02 -5.8324870835687304e-01 +5.9772742639270307e-03
-5.5499999999999883e+00 +8.2841444123427745e+00 +0.0000000000000000e+00 -5.5499999120423622e+00 -3.0620829180982457e-02 -5.8328504360208877e-01 +5.9796975660271357e-03
-5.5999999999999881e+00 +8.2841289158513547e+00 +0.0000000000000000e+00 -5.5999999096409336e+00 -3.0623210809031142e-02 -5.8332154895729860e-01 +5.9821108651682857e-03
-5.6499999999999879e+00 +8.2841132800082651e+00 +0.0000000000000000e+00 -5.6499999071961211e+00 -3.0625603682735932e-02 -5.8335822149386751e-01 +5.9845140570979529e-03
-5.6999999999999877e+00 +8.2840975048047447e+00 +0.0000000000000000e+00 -5.6999999047075347e+00 -3.0628007671659078e-02 -5.8339505828315275e-01 +5.9869070375624632e-03
-5.7499999999999876e+00 +8.2840815902319953e+00 +0.0000000000000000e+00 -5.7499999021747819e+00 -3.0630422645361626e-02 -5.8343205639650297e-01 +5.9892897023069852e-03
-5.7999999999999874e+00 +8.2840655362811759e+00 +0.0000000000000000e+00 -5.7999998995974726e+00 -3.0632848473403335e-02 -5.8346921290525833e-01 +5.9916619470755167e-03
-5.8499999999999872e+00 +8.2840493429434119e+00 +0.0000000000000000e+00 -5.8499998969752145e+00 -3.0635285025342629e-02 -5.8350652488074850e-01 +5.9940236676108731e-03
