# field on trajectory
# s[mm] rx[mm] ry[mm] rz[mm] bx[T] by[T] bz[T]
-0.0000000000000000e+00 +8.5269999999999904e+00 +0.0000000000000000e+00 -0.0000000000000000e+00 -2.8321364578908215e-02 -5.2335807318706906e-01 +5.3919939547225097e-03
-5.0000000000000003e-02 +8.5269999309457507e+00 +0.0000000000000000e+00 -4.9999999999936401e-02 -2.8322224505023134e-02 -5.2336590699255947e-01 +5.3943057292952538e-03
-1.0000000000000001e-01 +8.5269997237883199e+00 +0.0000000000000000e+00 -9.9999999999491399e-02 -2.8323110936142419e-02 -5.2337410040977672e-01 +5.3966123980166468e-03
-1.4999999999999999e-01 +8.5269993785295792e+00 +0.0000000000000000e+00 -1.4999999999828301e-01 -2.8324023684810695e-02 -5.2338265213490853e-01 +5.3989137588230218e-03
-2.0000000000000001e-01 +8.5269988951622508e+00 +0.0000000000000000e+00 -1.9999999999593099e-01 -2.8324962563576871e-02 -5.2339156086422167e-01 +5.4012096096510845e-03
-2.5000000000000000e-01 +8.5269982736936107e+00 +0.0000000000000000e+00 -2.4999999999205300e-01 -2.8325927384985749e-02 -5.2340082529389853e-01 +5.4034997484360926e-03
-2.9999999999999999e-01 +8.5269975141200103e+00 +0.0000000000000000e+00 -2.9999999998626797e-01 -2.8326917961587077e-02 -5.2341044412021176e-01 +5.4057839731137996e-03
-3.4999999999999998e-01 +8.5269966164378292e+00 +0.0000000000000000e+00 -3.4999999997819298e-01 -2.8327934105931596e-02 -5.2342041603944900e-01 +5.4080620816196051e-03
-4.0000000000000002e-01 +8.5269955806543294e+00 +0.0000000000000000e+00 -3.9999999996744900e-01 -2.8328975630567254e-02 -5.2343073974783949e-01 +5.4103338718876955e-03
-4.5000000000000001e-01 +8.5269944067658798e+00 +0.0000000000000000e+00 -4.4999999995365297e-01 -2.8330042348046876e-02 -5.2344141394170074e-01 +5.4125991418527324e-03
-5.0000000000000000e-01 +8.5269930947724806e+00 +0.0000000000000000e+00 -4.9999999993642402e-01 -2.8331134070922994e-02 -5.2345243731734192e-01 +5.4148576894487025e-03
-5.5000000000000004e-01 +8.5269916446777607e+00 +0.0000000000000000e+00 -5.4999999991537996e-01 -2.8332250611747899e-02 -5.2346380857106078e-01 +5.4171093126089177e-03
-5.9999999999999998e-01 +8.5269900564744603e+00 +0.0000000000000000e+00 -5.9999999989013997e-01 -2.8333391783078692e-02 -5.2347552639924511e-01 +5.4193538092671368e-03
-6.5000000000000002e-01 +8.5269883301661995e+00 +0.0000000000000000e+00 -6.4999999986032297e-01 -2.8334557397469665e-02 -5.2348758949822261e-01 +5.4215909773558417e-03
-6.9999999999999996e-01 +8.5269864657566394e+00 +0.0000000000000000e+00 -6.9999999982554695e-01 -2.8335747267476039e-02 -5.2349999656433488e-01 +5.4238206148070891e-03
-7.5000000000000000e-01 +8.5269844632421208e+00 +0.0000000000000000e+00 -7.4999999978543097e-01 -2.8336961205656628e-02 -5.2351274629398781e-01 +5.4260425195530653e-03
-8.0000000000000004e-01 +8.5269823226226400e+00 +0.0000000000000000e+00 -7.9999999973959202e-01 -2.8338199024569934e-02 -5.2352583738357761e-01 +5.4282564895252270e-03
-8.4999999999999998e-01 +8.5269800438982202e+00 +0.0000000000000000e+00 -8.4999999968765005e-01 -2.8339460536775350e-02 -5.2353926852951271e-01 +5.4304623226545667e-03
-9.0000000000000002e-01 +8.5269776270688507e+00 +0.0000000000000000e+00 -8.9999999962922395e-01 -2.8340745554833298e-02 -5.2355303842821621e-01 +5.4326598168716071e-03
-9.4999999999999996e-01 +8.5269750721381605e+00 +0.0000000000000000e+00 -9.4999999956393100e-01 -2.8342053891303825e-02 -5.2356714577610053e-01 +5.4348487701061099e-03
-1.0000000000000000e+00 +8.5269723790988792e+00 +0.0000000000000000e+00 -9.9999999949139096e-01 -2.8343385358751791e-02 -5.2358158926966625e-01 +5.4370289802882039e-03
-1.0500000000000000e+00 +8.5269695479546499e+00 +0.0000000000000000e+00 -1.0499999994112199e+00 -2.8344739769739120e-02 -5.2359636760535189e-01 +5.4392002453466466e-03
-1.1000000000000001e+00 +8.5269665787091107e+00 +0.0000000000000000e+00 -1.0999999993230400e+00 -2.8346116936828644e-02 -5.2361147947961006e-01 +5.4413623632096949e-03
-1.1499999999999999e+00 +8.5269634713586093e+00 +0.0000000000000000e+00 -1.1499999992264700e+00 -2.8347516672586698e-02 -5.2362692358895613e-01 +5.4435151318056518e-03
-1.2000000000000000e+00 +8.5269602259031707e+00 +0.0000000000000000e+00 -1.1999999991211201e+00 -2.8348938789579243e-02 -5.2364269862989399e-01 +5.4456583490620023e-03
-1.2500000000000000e+00 +8.5269568423427700e+00 +0.0000000000000000e+00 -1.2499999990066200e+00 -2.8350383100373126e-02 -5.2365880329894010e-01 +5.4477918129056894e-03
-1.3000000000000000e+00 +8.5269533206774195e+00 +0.0000000000000000e+00 -1.2999999988825901e+00 -2.8351849417536087e-02 -5.2367523629262380e-01 +5.4499153212630999e-03
-1.3500000000000001e+00 +8.5269496609071194e+00 +0.0000000000000000e+00 -1.3499999987486300e+00 -2.8353337553636764e-02 -5.2369199630748731e-01 +5.4520286720600589e-03
-1.3999999999999999e+00 +8.5269458630355093e+00 +0.0000000000000000e+00 -1.3999999986043801e+00 -2.8354847321243357e-02 -5.2370908204006017e-01 +5.4541316632215195e-03
-1.4500000000000000e+00 +8.5269419270553009e+00 +0.0000000000000000e+00 -1.4499999984494401e+00 -2.8356378532928831e-02 -5.2372649218695932e-01 +5.4562240926727340e-03
-1.5000000000000000e+00 +8.5269378529737896e+00 +0.0000000000000000e+00 -1.4999999982834400e+00 -2.8357931001261820e-02 -5.2374422544471411e-01 +5.4583057583371805e-03
-1.5500000000000000e+00 +8.5269336407873197e+00 +0.0000000000000000e+00 -1.5499999981060000e+00 -2.8359504538815701e-02 -5.2376228050994056e-01 +5.4603764581386150e-03
-1.6000000000000001e+00 +8.5269292904959002e+00 +0.0000000000000000e+00 -1.5999999979167401e+00 -2.8361098958163411e-02 -5.2378065607924296e-01 +5.4624359899998840e-03
-1.6499999999999999e+00 +8.5269248020995292e+00 +0.0000000000000000e+00 -1.6499999977152600e+00 -2.8362714071878712e-02 -5.2379935084923601e-01 +5.4644841518432016e-03
-1.7000000000000000e+00 +8.5269201755982102e+00 +0.0000000000000000e+00 -1.6999999975011999e+00 -2.8364349692536192e-02 -5.2381836351654709e-01 +5.4665207415901512e-03
-1.7500000000000000e+00 +8.5269154109919292e+00 +0.0000000000000000e+00 -1.7499999972741700e+00 -2.8366005632711275e-02 -5.2383769277781467e-01 +5.4685455571616640e-03
-1.8000000000000000e+00 +8.5269105082843506e+00 +0.0000000000000000e+00 -1.7999999970337901e+00 -2.8367681704978876e-02 -5.2385733732966333e-01 +5.4705583964777156e-03
-1.8500000000000001e+00 +8.5269054674718099e+00 +0.0000000000000000e+00 -1.8499999967796801e+00 -2.8369377721917357e-02 -5.2387729586878096e-01 +5.4725590574582119e-03
-1.8999999999999999e+00 +8.5269002885506797e+00 +0.0000000000000000e+00 -1.8999999965114500e+00 -2.8371093496105813e-02 -5.2389756709186353e-01 +5.4745473380223642e-03
-1.9500000000000000e+00 +8.5268949715282396e+00 +0.0000000000000000e+00 -1.9499999962287300e+00 -2.8372828840120313e-02 -5.2391814969554606e-01 +5.4765230360878251e-03
-2.0000000000000000e+00 +8.5268895164008391e+00 +0.0000000000000000e+00 -1.9999999959311201e+00 -2.8374583566541520e-02 -5.2393904237654754e-01 +5.4784859495724189e-03
-2.0499999999999998e+00 +8.5268839230666291e+00 +0.0000000000000000e+00 -2.0499999956182600e+00 -2.8376357490731790e-02 -5.2396024362501681e-01 +5.4804358884675093e-03
-2.1000000000000001e+00 +8.5268781914164702e+00 +0.0000000000000000e+00 -2.0999999952897199e+00 -2.8378150439040736e-02 -5.2398175110212453e-01 +5.4823727110290812e-03
-2.1499999999999999e+00 +8.5268723214576294e+00 +0.0000000000000000e+00 -2.1499999949451398e+00 -2.8379962240522926e-02 -5.2400356226098821e-01 +5.4842962875688867e-03
-2.2000000000000002e+00 +8.5268663131864706e+00 +0.0000000000000000e+00 -2.1999999945841302e+00 -2.8381792724236989e-02 -5.2402567455480908e-01 +5.4862064883986371e-03
-2.2500000000000000e+00 +8.5268601666030008e+00 +0.0000000000000000e+00 -2.2499999942063100e+00 -2.8383641719240387e-02 -5.2404808543677106e-01 +5.4881031838287962e-03
-2.2999999999999998e+00 +8.5268538817035697e+00 +0.0000000000000000e+00 -2.2999999938113000e+00 -2.8385509054591983e-02 -5.2407079236009146e-01 +5.4899862441691602e-03
-2.3500000000000001e+00 +8.5268474584954692e+00 +0.0000000000000000e+00 -2.3499999933987001e+00 -2.8387394559346801e-02 -5.2409379277792045e-01 +5.4918555397276223e-03
-2.3999999999999999e+00 +8.5268408969750507e+00 +0.0000000000000000e+00 -2.3999999929681501e+00 -2.8389298062563770e-02 -5.2411708414349067e-01 +5.4937109408119671e-03
-2.4500000000000002e+00 +8.5268341971459396e+00 +0.0000000000000000e+00 -2.4499999925192602e+00 -2.8391219393299211e-02 -5.2414066390999214e-01 +5.4955523177283496e-03
-2.5000000000000000e+00 +8.5268273590008903e+00 +0.0000000000000000e+00 -2.4999999920516398e+00 -2.8393158380613272e-02 -5.2416452953069703e-01 +5.4973795407827590e-03
-2.5499999999999998e+00 +8.5268203825435194e+00 +0.0000000000000000e+00 -2.5499999915649201e+00 -2.8395114853562074e-02 -5.2418867845880879e-01 +5.4991924802792113e-03
-2.6000000000000001e+00 +8.5268132677774702e+00 +0.0000000000000000e+00 -2.5999999910586999e+00 -2.8397088641201645e-02 -5.2421310814753819e-01 +5.5009910065206228e-03
-2.6499999999999999e+00 +8.5268060146954703e+00 +0.0000000000000000e+00 -2.6499999905326099e+00 -2.8399079572591697e-02 -5.2423781605017716e-01 +5.5027749898096971e-03
-2.7000000000000002e+00 +8.5267986233047797e+00 +0.0000000000000000e+00 -2.6999999899862699e+00 -2.8401087476786512e-02 -5.2426279961992339e-01 +5.5045443004467882e-03
-2.7500000000000000e+00 +8.5267910936017905e+00 +0.0000000000000000e+00 -2.7499999894192899e+00 -2.8403112182844033e-02 -5.2428805631005593e-01 +5.5062988087319987e-03
-2.7999999999999998e+00 +8.5267834255828294e+00 +0.0000000000000000e+00 -2.7999999888312899e+00 -2.8405153519821893e-02 -5.2431358357385915e-01 +5.5080383849642513e-03
-2.8500000000000001e+00 +8.5267756192552007e+00 +0.0000000000000000e+00 -2.8499999882218900e+00 -2.8407211316773460e-02 -5.2433937886454796e-01 +5.5097628994403474e-03
-2.8999999999999999e+00 +8.5267676746152592e+00 +0.0000000000000000e+00 -2.8999999875907001e+00 -2.8409285402755634e-02 -5.2436543963541715e-01 +5.5114722224567855e-03
-2.9500000000000002e+00 +8.5267595916629908e+00 +0.0000000000000000e+00 -2.9499999869373399e+00 -2.8411375606823629e-02 -5.2439176333974191e-01 +5.5131662243085135e-03
-3.0000000000000000e+00 +8.5267513703984203e+00 +0.0000000000000000e+00 -2.9999999862614302e+00 -2.8413481758032121e-02 -5.2441834743080162e-01 +5.5148447752892092e-03
-3.0499999999999998e+00 +8.5267430108251592e+00 +0.0000000000000000e+00 -3.0499999855625899e+00 -2.8415603685434047e-02 -5.2444518936185536e-01 +5.5165077456909668e-03
-3.1000000000000001e+00 +8.5267345129359509e+00 +0.0000000000000000e+00 -3.0999999848404300e+00 -2.8417741218085674e-02 -5.2447228658624157e-01 +5.5181550058054840e-03
-3.1499999999999999e+00 +8.5267258767344192e+00 +0.0000000000000000e+00 -3.1499999840945798e+00 -2.8419894185038794e-02 -5.2449963655722742e-01 +5.5197864259222129e-03
-3.2000000000000002e+00 +8.5267171022205694e+00 +0.0000000000000000e+00 -3.1999999833246400e+00 -2.8422062415345870e-02 -5.2452723672810864e-01 +5.5214018763295684e-03
-3.2500000000000000e+00 +8.5267081893980503e+00 +0.0000000000000000e+00 -3.2499999825302401e+00 -2.8424245738057421e-02 -5.2455508455215949e-01 +5.5230012273142842e-03
-3.2999999999999998e+00 +8.5266991382632096e+00 +0.0000000000000000e+00 -3.2999999817109900e+00 -2.8426443982225845e-02 -5.2458317748270777e-01 +5.5245843491623153e-03
-3.3500000000000001e+00 +8.5266899488124199e+00 +0.0000000000000000e+00 -3.3499999808665200e+00 -2.8428656976902798e-02 -5.2461151297308450e-01 +5.5261511121582098e-03
-3.3999999999999999e+00 +8.5266806210529502e+00 +0.0000000000000000e+00 -3.3999999799964300e+00 -2.8430884551135266e-02 -5.2464008847654742e-01 +5.5277013865841582e-03
-3.4500000000000002e+00 +8.5266711549811607e+00 +0.0000000000000000e+00 -3.4499999791003502e+00 -2.8433126533973306e-02 -5.2466890144643263e-01 +5.5292350427218213e-03
-3.5000000000000000e+00 +8.5266615505970496e+00 +0.0000000000000000e+00 -3.4999999781778901e+00 -2.8435382754464826e-02 -5.2469794933605340e-01 +5.5307519508510780e-03
-3.5499999999999998e+00 +8.5266518079006293e+00 +0.0000000000000000e+00 -3.5499999772286701e+00 -2.8437653041656800e-02 -5.2472722959872486e-01 +5.5322519812503086e-03
-3.6000000000000001e+00 +8.5266419268882601e+00 +0.0000000000000000e+00 -3.5999999762523198e+00 -2.8439937224596624e-02 -5.2475673968778935e-01 +5.5337350041966922e-03
-3.6499999999999999e+00 +8.5266319075708505e+00 +0.0000000000000000e+00 -3.6499999752484298e+00 -2.8442235132325439e-02 -5.2478647705648940e-01 +5.5352008899646260e-03
-3.6999999999999900e+00 +8.5266217499374797e+00 +0.0000000000000000e+00 -3.6999999742166398e+00 -2.8444546593891205e-02 -5.2481643915822118e-01 +5.5366495088288118e-03
-3.7499999999999898e+00 +8.5266114539917908e+00 +0.0000000000000000e+00 -3.7499999731565601e+00 -2.8446871438335627e-02 -5.2484662344627997e-01 +5.5380807310611326e-03
-3.7999999999999901e+00 +8.5266010197374307e+00 +0.0000000000000000e+00 -3.7999999720678099e+00 -2.8449209494699292e-02 -5.2487702737396225e-01 +5.5394944269318682e-03
-3.8499999999999899e+00 +8.5265904471671092e+00 +0.0000000000000000e+00 -3.8499999709499999e+00 -2.8451560592025537e-02 -5.2490764839464121e-01 +5.5408904667106108e-03
-3.8999999999999901e+00 +8.5265797362881095e+00 +0.0000000000000000e+00 -3.8999999698027499e+00 -2.8453924559351369e-02 -5.2493848396158893e-01 +5.5422687206640696e-03
-3.9499999999999900e+00 +8.5265688870931609e+00 +0.0000000000000000e+00 -3.9499999686256899e+00 -2.8456301225717715e-02 -5.2496953152817849e-01 +5.5436290590585293e-03
-3.9999999999999898e+00 +8.5265578995895304e+00 +0.0000000000000000e+00 -3.9999999674184199e+00 -2.8458690420159059e-02 -5.2500078854768251e-01 +5.5449713521573546e-03
-4.0499999999999901e+00 +8.5265467737735907e+00 +0.0000000000000000e+00 -4.0499999661805601e+00 -2.8461091964397011e-02 -5.2503225243087859e-01 +5.5462954871333785e-03
-4.0999999999999899e+00 +8.5265355096416897e+00 +0.0000000000000000e+00 -4.0999999649117402e+00 -2.8463505650890085e-02 -5.2506392041826100e-01 +5.5476014187991075e-03
-4.1499999999999897e+00 +8.5265241072047502e+00 +0.0000000000000000e+00 -4.1499999636115703e+00 -2.8465931264775667e-02 -5.2509578970765047e-01 +5.5488891188751272e-03
-4.1999999999999904e+00 +8.5265125664518600e+00 +0.0000000000000000e+00 -4.1999999622796604e+00 -2.8468368591198653e-02 -5.2512785749701751e-01 +5.5501585590829643e-03
-4.2499999999999902e+00 +8.5265008873866499e+00 +0.0000000000000000e+00 -4.2499999609156403e+00 -2.8470817415298357e-02 -5.2516012098422804e-01 +5.5514097111419962e-03
-4.2999999999999901e+00 +8.5264890700091200e+00 +0.0000000000000000e+00 -4.2999999595191198e+00 -2.8473277522215106e-02 -5.2519257736716962e-01 +5.5526425467709948e-03
-4.3499999999999899e+00 +8.5264771143192792e+00 +0.0000000000000000e+00 -4.3499999580897200e+00 -2.8475748697088830e-02 -5.2522522384372694e-01 +5.5538570376878257e-03
-4.3999999999999897e+00 +8.5264650203207601e+00 +0.0000000000000000e+00 -4.3999999566270596e+00 -2.8478230725057868e-02 -5.2525805761175526e-01 +5.5550531556091409e-03
-4.4499999999999904e+00 +8.5264527880062797e+00 +0.0000000000000000e+00 -4.4499999551307496e+00 -2.8480723391264055e-02 -5.2529107586918222e-01 +5.5562308722516300e-03
-4.4999999999999902e+00 +8.5264404173794901e+00 +0.0000000000000000e+00 -4.4999999536004101e+00 -2.8483226480844989e-02 -5.2532427581385466e-01 +5.5573901593301556e-03
-4.5499999999999901e+00 +8.5264279084440204e+00 +0.0000000000000000e+00 -4.5499999520356598e+00 -2.8485739778937858e-02 -5.2535765464361428e-01 +5.5585309885586793e-03
-4.5999999999999899e+00 +8.5264152611962292e+00 +0.0000000000000000e+00 -4.5999999504361098e+00 -2.8488263070682092e-02 -5.2539120955634977e-01 +5.5596533316509171e-03
-4.6499999999999897e+00 +8.5264024756361305e+00 +0.0000000000000000e+00 -4.6499999488013897e+00 -2.8490796141215437e-02 -5.2542493774991839e-01 +5.5607571603193719e-03
-4.6999999999999904e+00 +8.5263895517600794e+00 +0.0000000000000000e+00 -4.6999999471311096e+00 -2.8493338775676533e-02 -5.2545883642219759e-01 +5.5618424462759953e-03
-4.7499999999999902e+00 +8.5263764895753393e+00 +0.0000000000000000e+00 -4.7499999454248902e+00 -2.8495890759199699e-02 -5.2549290277098237e-01 +5.5629091612309214e-03
-4.7999999999999901e+00 +8.5263632890782901e+00 +0.0000000000000000e+00 -4.7999999436823400e+00 -2.8498451876922754e-02 -5.2552713399413886e-01 +5.5639572768943534e-03
-4.8499999999999899e+00 +8.5263499502725608e+00 +0.0000000000000000e+00 -4.8499999419030901e+00 -2.8501021913980504e-02 -5.2556152728947481e-01 +5.5649867649750027e-03
-4.8999999999999897e+00 +8.5263364731472393e+00 +0.0000000000000000e+00 -4.8999999400867402e+00 -2.8503600655512554e-02 -5.2559607985489376e-01 +5.5659975971819676e-03
-4.9499999999999904e+00 +8.5263228577168793e+00 +0.0000000000000000e+00 -4.9499999382329296e+00 -2.8506187886648885e-02 -5.2563078888811432e-01 +5.5669897452213018e-03
-4.9999999999999902e+00 +8.5263091039705596e+00 +0.0000000000000000e+00 -4.9999999363412497e+00 -2.8508783392528238e-02 -5.2566565158702583e-01 +5.5679631808003959e-03
-5.0499999999999901e+00 +8.5262952115954196e+00 +0.0000000000000000e+00 -5.0499999344112600e+00 -2.8511386958397871e-02 -5.2570066515161917e-01 +5.5689178756519325e-03
-5.0999999999999899e+00 +8.5262811802713294e+00 +0.0000000000000000e+00 -5.0999999324424596e+00 -2.8513998369507382e-02 -5.2573582678193198e-01 +5.5698538015084235e-03
-5.1499999999999897e+00 +8.5262670100019005e+00 +0.0000000000000000e+00 -5.1499999304344799e+00 -2.8516617410989060e-02 -5.2577113367573103e-01 +5.5707709300735417e-03
-5.1999999999999904e+00 +8.5262527007798798e+00 +0.0000000000000000e+00 -5.1999999283869203e+00 -2.8519243867978682e-02 -5.2580658303085226e-01 +5.5716692330510581e-03
-5.2499999999999902e+00 +8.5262382526088896e+00 +0.0000000000000000e+00 -5.2499999262994104e+00 -2.8521877525607559e-02 -5.2584217204504557e-01 +5.5725486821429663e-03
-5.2999999999999901e+00 +8.5262236654925800e+00 +0.0000000000000000e+00 -5.2999999241715603e+00 -2.8524518169006589e-02 -5.2587789791605322e-01 +5.5734092490504258e-03
-5.3499999999999899e+00 +8.5262089394273097e+00 +0.0000000000000000e+00 -5.3499999220029704e+00 -2.8527165583308724e-02 -5.2591375784165773e-01 +5.5742509054743849e-03
-5.3999999999999897e+00 +8.5261940744130698e+00 +0.0000000000000000e+00 -5.3999999197932702e+00 -2.8529819553645148e-02 -5.2594974901960756e-01 +5.5750736231146708e-03
-5.4499999999999904e+00 +8.5261790704498708e+00 +0.0000000000000000e+00 -5.4499999175420601e+00 -2.8532479865146516e-02 -5.2598586864764152e-01 +5.5758773736702761e-03
-5.4999999999999902e+00 +8.5261639275377092e+00 +0.0000000000000000e+00 -5.4999999152489698e+00 -2.8535146302942953e-02 -5.2602211392348774e-01 +5.5766621288393745e-03
-5.5499999999999901e+00 +8.5261486456802196e+00 +0.0000000000000000e+00 -5.5499999129136004e+00 -2.8537818652162761e-02 -5.2605848204483907e-01 +5.5774278603190168e-03
-5.5999999999999899e+00 +8.5261332248737691e+00 +0.0000000000000000e+00 -5.5999999105355700e+00 -2.8540496697936301e-02 -5.2609497020942797e-01 +5.5781745398060731e-03
-5.6499999999999897e+00 +8.5261176651147306e+00 +0.0000000000000000e+00 -5.6499999081144896e+00 -2.8543180225393445e-02 -5.2613157561497703e-01 +5.5789021389966095e-03
-5.6999999999999904e+00 +8.5261019664103497e+00 +0.0000000000000000e+00 -5.6999999056499897e+00 -2.8545869019659529e-02 -5.2616829545911981e-01 +5.5796106295849454e-03
-5.7499999999999902e+00 +8.5260861287570204e+00 +0.0000000000000000e+00 -5.7499999031416600e+00 -2.8548562865863280e-02 -5.2620512693955601e-01 +5.5802999832655423e-03
-5.7999999999999901e+00 +8.5260701521547198e+00 +0.0000000000000000e+00 -5.7999999005891203e+00 -2.8551261549131565e-02 -5.2624206725394751e-01 +5.5809701717317644e-03
-5.8499999999999899e+00 +8.5260540366070892e+00 +0.0000000000000000e+00 -5.8499998979920003e+00 -2.8553964854589331e-02 -5.2627911359991875e-01 +5.5816211666758634e-03
