# multipoles
# s[mm] polynom_b[n=0][T/m^n] polynom_b[n=1][T/m^n] polynom_b[n=2][T/m^n] polynom_b[n=3][T/m^n] polynom_b[n=4][T/m^n] polynom_b[n=5][T/m^n] polynom_b[n=6][T/m^n] 
-0.0000000000000000e+00 -5.4950140639366540e-01 +7.1853277636755104e+00 +6.0416417789481685e+00 -2.3989655962981896e+01 +2.2719764042081974e+03 -1.6088293434226801e+05 -5.7149432730337288e+06 
-5.0000000000000003e-02 -5.4950165673412787e-01 +7.1853014809087750e+00 +6.0391259613059507e+00 -2.4125460513595893e+01 +2.3391715903778049e+03 -1.5956969410191051e+05 -6.0610368381615430e+06 
-1.0000000000000001e-01 -5.4950234053262315e-01 +7.1852985518014627e+00 +6.0361536616233629e+00 -2.4262997343963228e+01 +2.4086967219559037e+03 -1.5820563842204798e+05 -6.4317815328805009e+06 
-1.4999999999999999e-01 -5.4950345681791213e-01 +7.1853189032648368e+00 +6.0327311805602655e+00 -2.4401487279699275e+01 +2.4802967119555738e+03 -1.5679706668565204e+05 -6.8253021199727869e+06 
-2.0000000000000001e-01 -5.4950500461867868e-01 +7.1853624622133614e+00 +6.0288648172861148e+00 -2.4540151254275781e+01 +2.5537165197884929e+03 -1.5535027729803845e+05 -7.2397237044950426e+06 
-2.5000000000000000e-01 -5.4950698296375422e-01 +7.1854291555616072e+00 +6.0245608755993301e+00 -2.4678210192926809e+01 +2.6287009742638343e+03 -1.5387156866608904e+05 -7.6731704895004993e+06 
-2.9999999999999999e-01 -5.4950939088186934e-01 +7.1855189102241921e+00 +6.0198256513716215e+00 -2.4814884974489313e+01 +2.7049951189632707e+03 -1.5236723960509620e+05 -8.1237681304566124e+06 
-3.4999999999999998e-01 -5.4951222740185179e-01 +7.1856316531169018e+00 +6.0146654493560003e+00 -2.4949396506905629e+01 +2.7823437631217835e+03 -1.5084358861322305e+05 -8.5896407261617705e+06 
-4.0000000000000002e-01 -5.4951549155250812e-01 +7.1857673111553266e+00 +6.0090865672686506e+00 -2.5080965660674554e+01 +2.8604918995524590e+03 -1.4930691446593884e+05 -9.0689135890435055e+06 
-4.5000000000000001e-01 -5.4951918236270791e-01 +7.1859258112576452e+00 +6.0030953061492527e+00 -2.5208813376023947e+01 +2.9391844308659470e+03 -1.4776351538114643e+05 -9.5597114235460367e+06 
-5.0000000000000000e-01 -5.4952329886129370e-01 +7.1861070803394949e+00 +5.9966979674623939e+00 -2.5332160469716190e+01 +3.0181662521543194e+03 -1.4621969049008496e+05 -1.0060158899748301e+07 
-5.5000000000000004e-01 -5.4952784007711308e-01 +7.1863110453208456e+00 +5.9899008499989010e+00 -2.5450227886938489e+01 +3.0971823302263138e+03 -1.4468173793165828e+05 -1.0568381169517260e+07 
-5.9999999999999998e-01 -5.4953280503911417e-01 +7.1865376331176858e+00 +5.9827102540015362e+00 -2.5562236397935465e+01 +3.1759775846784860e+03 -1.4315595719584980e+05 -1.1082503039940611e+07 
-6.5000000000000002e-01 -5.4953819277620419e-01 +7.1867867706536126e+00 +5.9751324813941240e+00 -2.5667407044634324e+01 +3.2542969016314751e+03 -1.4164864553277162e+05 -1.1600649133081092e+07 
-6.9999999999999996e-01 -5.4954400231733258e-01 +7.1870583848436294e+00 +5.9671738302924444e+00 -2.5764960479137109e+01 +3.3318852582450695e+03 -1.4016610341657474e+05 -1.2120944646754248e+07 
-7.5000000000000000e-01 -5.4955023269140635e-01 +7.1873524026108910e+00 +5.9588406010681894e+00 -2.5854117654444426e+01 +3.4084875750275132e+03 -1.3871462880993687e+05 -1.2641514410117757e+07 
-8.0000000000000004e-01 -5.4955688292746918e-01 +7.1876687508765915e+00 +5.9501390963201226e+00 -2.5934099422483019e+01 +3.4838487137492925e+03 -1.3730052047653761e+05 -1.3160482861600824e+07 
-8.4999999999999998e-01 -5.4956395205447350e-01 +7.1880073565617169e+00 +5.9410756130431936e+00 -2.6004126576664397e+01 +3.5577136832345604e+03 -1.3593007768932875e+05 -1.3675975416137807e+07 
-9.0000000000000002e-01 -5.4957143910143902e-01 +7.1883681465872433e+00 +5.9316564526588689e+00 -2.6063419883070733e+01 +3.6298273727112301e+03 -1.3460959992086052e+05 -1.4186116684896285e+07 
-9.4999999999999996e-01 -5.4957934309742462e-01 +7.1887510478791645e+00 +5.9218879149562653e+00 -2.6111200282462296e+01 +3.6999347155909963e+03 -1.3334538518417417e+05 -1.4689031573340070e+07 
-1.0000000000000000e+00 -5.4958766307142803e-01 +7.1891559873580198e+00 +5.9117762995745018e+00 -2.6146688435988953e+01 +3.7677806498142863e+03 -1.3214373386122377e+05 -1.5182845021420613e+07 
-1.0500000000000000e+00 -5.4959639805254090e-01 +7.1895828919472100e+00 +5.9013279055708905e+00 -2.6169105112662951e+01 +3.8331101262033712e+03 -1.3101094535879104e+05 -1.5665682045245329e+07 
-1.1000000000000001e+00 -5.4960554706988229e-01 +7.1900316885749422e+00 +5.8905490335719319e+00 -2.6177671229084702e+01 +3.8956680534547818e+03 -1.2995331792225114e+05 -1.6135667375255464e+07 
-1.1499999999999999e+00 -5.4961510915252454e-01 +7.1905023041616127e+00 +5.8794459820354801e+00 -2.6171607337274864e+01 +3.9551993973851736e+03 -1.2897715281145889e+05 -1.6590926124984425e+07 
-1.2000000000000000e+00 -5.4962508332960147e-01 +7.1909946656352135e+00 +5.8680250521363408e+00 -2.6150134273032297e+01 +4.0114490495706368e+03 -1.2808874893643401e+05 -1.7029582898969594e+07 
-1.2500000000000000e+00 -5.4963546863024060e-01 +7.1915086999208402e+00 +5.8562925409239890e+00 -2.6112472708592893e+01 +4.0641620121460719e+03 -1.2729440657785148e+05 -1.7449763047959469e+07 
-1.3000000000000000e+00 -5.4964626408364436e-01 +7.1920443339458799e+00 +5.8442547504829863e+00 -2.6057843377827027e+01 +4.1130831513977064e+03 -1.2660042551915484e+05 -1.7849591002046339e+07 
-1.3500000000000001e+00 -5.4965746871892363e-01 +7.1926014946385752e+00 +5.8319179778102193e+00 -2.5985467004513822e+01 +4.1579574675285694e+03 -1.2601310563059415e+05 -1.8227192083818544e+07 
-1.3999999999999999e+00 -5.4966908156533079e-01 +7.1931801089226513e+00 +5.8192885230253966e+00 -2.5894564085319569e+01 +4.1985298756456377e+03 -1.2553874870988110e+05 -1.8580691036659766e+07 
-1.4500000000000000e+00 -5.4968110165205142e-01 +7.1937801037290336e+00 +5.8063726848337947e+00 -2.5784355382446108e+01 +4.2345453307300522e+03 -1.2518365432886030e+05 -1.8908212877009448e+07 
-1.5000000000000000e+00 -5.4969352800831517e-01 +7.1944014059857704e+00 +5.7931767622079304e+00 -2.5654061479578591e+01 +4.2657487772168370e+03 -1.2495412363556736e+05 -1.9207882536956333e+07 
-1.5500000000000000e+00 -5.4970635966336456e-01 +7.1950439426206882e+00 +5.7797070532389627e+00 -2.5502902934969608e+01 +4.2918851812874864e+03 -1.2485645791061534e+05 -1.9477825087773133e+07 
-1.6000000000000001e+00 -5.4971959564649764e-01 +7.1957076405664715e+00 +5.7659698577893090e+00 -2.5330100438514506e+01 +4.3126994645688237e+03 -1.2489695749488256e+05 -1.9716165308872186e+07 
-1.6499999999999999e+00 -5.4973323498693816e-01 +7.1963924267487496e+00 +5.7519714737538123e+00 -2.5134874361821847e+01 +4.3279365922512816e+03 -1.2508192529226863e+05 -1.9921028236154772e+07 
-1.7000000000000000e+00 -5.4974727671403112e-01 +7.1970982281020914e+00 +5.7377181985317751e+00 -2.4916445402884285e+01 +4.3373415485451796e+03 -1.2541766158413838e+05 -2.0090539053717799e+07 
-1.7500000000000000e+00 -5.4976171985709665e-01 +7.1978249715550815e+00 +5.7232163314285875e+00 -2.4674033961856995e+01 +4.3406592620808378e+03 -1.2591046915136441e+05 -2.0222822553959016e+07 
-1.8000000000000000e+00 -5.4977656344542791e-01 +7.1985725840385353e+00 +5.7084721727851511e+00 -2.4406860488422314e+01 +4.3376346347632298e+03 -1.2656665038258197e+05 -2.0316003348906640e+07 
-1.8500000000000001e+00 -5.4979180650837367e-01 +7.1993409924854985e+00 +5.6934920162492979e+00 -2.4114145477891636e+01 +4.3280127432748450e+03 -1.2739250736603088e+05 -2.0368207208254799e+07 
-1.8999999999999999e+00 -5.4980744807533732e-01 +7.2001301238287700e+00 +5.6782821619741712e+00 -2.3795109376107938e+01 +4.3115384902377173e+03 -1.2839434260619014e+05 -2.0377558729672905e+07 
-1.9500000000000000e+00 -5.4982348717565099e-01 +7.2009399050007667e+00 +5.6628489081673177e+00 -2.3448972558360285e+01 +4.2879568275008678e+03 -1.2957845924994687e+05 -2.0342182825371083e+07 
-2.0000000000000000e+00 -5.4983978167096148e-01 +7.2017631285044095e+00 +5.6473301027114760e+00 -2.3078601348787192e+01 +4.2573968089276568e+03 -1.3093600500782381e+05 -2.0261692577394545e+07 
-2.0499999999999998e+00 -5.4985646377237074e-01 +7.2026064465171764e+00 +5.6315920213743151e+00 -2.2682266820116027e+01 +4.2199004277556196e+03 -1.3246855751803453e+05 -2.0137182596867658e+07 
-2.1000000000000001e+00 -5.4987353121457117e-01 +7.2034697220002739e+00 +5.6156289611939263e+00 -2.2261453013132499e+01 +4.1757745096405679e+03 -1.3416558974670700e+05 -1.9970486149103653e+07 
-2.1499999999999999e+00 -5.4989098173225037e-01 +7.2043528179166163e+00 +5.5994352205468676e+00 -2.1817644030224653e+01 +4.1253258469895891e+03 -1.3601657414949333e+05 -1.9763436283975076e+07 
-2.2000000000000002e+00 -5.4990881306013795e-01 +7.2052555972258645e+00 +5.5830050984472424e+00 -2.1352323826273075e+01 +4.0688612096799429e+03 -1.3801098437656066e+05 -1.9517865876223873e+07 
-2.2500000000000000e+00 -5.4992702293300599e-01 +7.2061779228924054e+00 +5.5663328943078385e+00 -2.0866976521936667e+01 +4.0066873632457150e+03 -1.4013829277118127e+05 -1.9235607800995559e+07 
-2.2999999999999998e+00 -5.4994560908557277e-01 +7.2071196578798276e+00 +5.5494129049045293e+00 -2.0363086188368626e+01 +3.9391111432597522e+03 -1.4238797207797554e+05 -1.8918495401040658e+07 
-2.3500000000000001e+00 -5.4996456925266590e-01 +7.2080806651516696e+00 +5.5322394301386746e+00 -1.9842136887602891e+01 +3.8664393027150045e+03 -1.4474949510395320e+05 -1.8568361468046531e+07 
-2.3999999999999999e+00 -5.4998390116897955e-01 +7.2090608076718112e+00 +5.5148067681052861e+00 -1.9305612662570024e+01 +3.7889786378886738e+03 -1.4721233485003118e+05 -1.8187039070663329e+07 
-2.4500000000000002e+00 -5.5000360256937808e-01 +7.2100599484074621e+00 +5.4971092204021286e+00 -1.8754997697539054e+01 +3.7070358607881494e+03 -1.4976596312750908e+05 -1.7776360743175123e+07 
-2.5000000000000000e+00 -5.5002367118862638e-01 +7.2110779503260023e+00 +5.4791410836720313e+00 -1.8191776153645698e+01 +3.6209178121927198e+03 -1.5239985197879528e+05 -1.7338159876198396e+07 
-2.5499999999999998e+00 -5.5004410476154875e-01 +7.2121146763903203e+00 +5.4608966581673632e+00 -1.7617432000127135e+01 +3.5309312382208127e+03 -1.5510347502689750e+05 -1.6874269232595112e+07 
-2.6000000000000001e+00 -5.5006490102302030e-01 +7.2131699895714574e+00 +5.4423702419189715e+00 -1.7033449534454292e+01 +3.4373829430856777e+03 -1.5786630318539179e+05 -1.6386521958949836e+07 
-2.6499999999999999e+00 -5.5008605770784835e-01 +7.2142437528363885e+00 +5.4235561370801149e+00 -1.6441312866279649e+01 +3.3405796263722050e+03 -1.6067780893194742e+05 -1.5876750525299123e+07 
-2.7000000000000002e+00 -5.5010757255087739e-01 +7.2153358291561203e+00 +5.4044486417060211e+00 -1.5842506268863298e+01 +3.2408280948655060e+03 -1.6352746339178606e+05 -1.5346788112882119e+07 
-2.7500000000000000e+00 -5.5012944328700286e-01 +7.2164460814993756e+00 +5.3850420558012750e+00 -1.5238513907453815e+01 +3.1384351084281466e+03 -1.6640473860404934e+05 -1.4798467610458944e+07 
-2.7999999999999998e+00 -5.5015166765108303e-01 +7.2175743728354602e+00 +5.3653306807212999e+00 -1.4630819964440709e+01 +3.0337073865550560e+03 -1.6929910645451455e+05 -1.4233621619619546e+07 
-2.8500000000000001e+00 -5.5017424337801990e-01 +7.2187205661384093e+00 +5.3453088142194032e+00 -1.4020908810121474e+01 +2.9269517508114736e+03 -1.7220003730212364e+05 -1.3654083454191552e+07 
-2.8999999999999999e+00 -5.5019716820273490e-01 +7.2198845243771625e+00 +5.3249707602319276e+00 -1.3410264596656365e+01 +2.8184748575642902e+03 -1.7509700331128217e+05 -1.3061685318490986e+07 
-2.9500000000000002e+00 -5.5022043986007152e-01 +7.2210661105300042e+00 +5.3043108166076269e+00 -1.2800371853917916e+01 +2.7085835278224968e+03 -1.7797947352486305e+05 -1.2458260533183126e+07 
-3.0000000000000000e+00 -5.5024405608500992e-01 +7.2222651875657551e+00 +5.2833232850495149e+00 -1.2192714719974658e+01 +2.5975844802791839e+03 -1.8083692024370222e+05 -1.1845641735018244e+07 
-3.0499999999999998e+00 -5.5026801461248531e-01 +7.2234816184618138e+00 +5.2620024670092658e+00 -1.1588777684322542e+01 +2.4857844421362529e+03 -1.8365881285292786e+05 -1.1225661629985927e+07 
-3.1000000000000001e+00 -5.5029231317741645e-01 +7.2247152661926997e+00 +5.2403426637998898e+00 -1.0990045114265909e+01 +2.3734901493193347e+03 -1.8643462175159570e+05 -1.0600153001876842e+07 
-3.1499999999999999e+00 -5.5031694951480503e-01 +7.2259659937341860e+00 +5.2183381762467755e+00 -1.0398001426646465e+01 +2.2610083473703953e+03 -1.8915381695066177e+05 -9.9709486890260298e+06 
-3.2000000000000002e+00 -5.5034192135954807e-01 +7.2272336640641850e+00 +5.1959833081242781e+00 -9.8141311191269054e+00 +2.1486457098617934e+03 -1.9180586780472094e+05 -9.3398810767462756e+06 
-3.2500000000000000e+00 -5.5036722644663960e-01 +7.2285181401620227e+00 +5.1732723603434279e+00 -9.2399187600025332e+00 +2.0367089857742374e+03 -1.9438024305824062e+05 -8.7087830526743662e+06 
-3.2999999999999998e+00 -5.5039286251108899e-01 +7.2298192850036784e+00 +5.1501996354045296e+00 -8.6768487702174948e+00 +1.9255048823994266e+03 -1.9686641271477434e+05 -8.0794872315208390e+06 
-3.3500000000000001e+00 -5.5041882728788605e-01 +7.2311369615694723e+00 +5.1267594346827829e+00 -8.1264057535286032e+00 +1.8153401475600226e+03 -1.9925384527374426e+05 -7.4538265437700571e+06 
-3.3999999999999999e+00 -5.5044511851202294e-01 +7.2324710328418860e+00 +5.1029460643592683e+00 -7.5900744135646541e+00 +1.7065213907802006e+03 -2.0153200836278268e+05 -6.8336329543475881e+06 
-3.4500000000000002e+00 -5.5047173391851367e-01 +7.2338213617993787e+00 +5.0787538232963652e+00 -7.0693392824310859e+00 +1.5993554285854113e+03 -2.0369037109597743e+05 -6.2207398673833562e+06 
-3.5000000000000000e+00 -5.5049867124237106e-01 +7.2351878114272701e+00 +5.0541770181803551e+00 -6.5656851840302570e+00 +1.4941488670583990e+03 -2.0571840014578612e+05 -5.6169792697174679e+06 
-3.5499999999999998e+00 -5.5052592821862811e-01 +7.2365702447066003e+00 +5.0292099531817964e+00 -6.0805967705985307e+00 +1.3912083841177212e+03 -2.0760556361234901e+05 -5.0241836511625154e+06 
-3.6000000000000001e+00 -5.5055350258236024e-01 +7.2379685246215351e+00 +5.0038469301037543e+00 -5.6155588367779385e+00 +1.2908407197308509e+03 -2.0934132842151562e+05 -4.4441859188429182e+06 
-3.6499999999999999e+00 -5.5058139206855017e-01 +7.2393825141574109e+00 +4.9780822557498938e+00 -5.1720562186746681e+00 +1.1933524878875223e+03 -2.1091516118048257e+05 -3.8788181648478736e+06 
-3.6999999999999900e+00 -5.5060959441232016e-01 +7.2408120763010126e+00 +4.9519102332288156e+00 -4.7515738361610147e+00 +1.0990503993377993e+03 -2.1231652778010324e+05 -3.3299131287230062e+06 
-3.7499999999999898e+00 -5.5063810734866026e-01 +7.2422570740374290e+00 +4.9253251685245125e+00 -4.3555965364595925e+00 +1.0082410934432377e+03 -2.1353489473870979e+05 -2.7993030908153574e+06 
-3.7999999999999901e+00 -5.5066692861269706e-01 +7.2437173703548403e+00 +4.8983213679237307e+00 -3.9856093122199114e+00 +9.2123120307454349e+02 -2.1455972737181929e+05 -2.2888203022659044e+06 
-3.8499999999999899e+00 -5.5069605593950055e-01 +7.2451928282432885e+00 +4.8708931356861935e+00 -3.6430972409451301e+00 +8.3832742039332675e+02 -2.1538049030220811e+05 -1.8002974337026540e+06 
-3.8999999999999901e+00 -5.5072548706413249e-01 +7.2466833106900328e+00 +4.8430347783698720e+00 -3.3295453031088993e+00 +7.5983637846255988e+02 -2.1598664892224444e+05 -1.3355667716964614e+06 
-3.9499999999999900e+00 -5.5075521968322727e-01 +7.2481886764123065e+00 +4.8147413794981304e+00 -3.0463024754664292e+00 +6.8604579456363126e+02 -2.1636869965214163e+05 -8.9635864739601454e+05 
-3.9999999999999898e+00 -5.5078525104558429e-01 +7.2497087255094703e+00 +4.7860177657488130e+00 -2.7931229888915192e+00 +6.1700316187888632e+02 -2.1652887433125454e+05 -4.8306498709094204e+05 
-4.0499999999999901e+00 -5.5081557811063597e-01 +7.2512432159413907e+00 +4.7568754516554836e+00 -2.5687241001642018e+00 +5.5259072017320693e+02 -2.1647687811554380e+05 -9.5138897717690386e+04 
-4.0999999999999899e+00 -5.5084619783301014e-01 +7.2527919047667790e+00 +4.7273260843998868e+00 -2.3718053343395851e+00 +4.9268748267449791e+02 -2.1622253747757213e+05 +2.6798551725522714e+05 
-4.1499999999999897e+00 -5.5087710716745186e-01 +7.2543545490482444e+00 +4.6973813127928441e+00 -2.2010663721852333e+00 +4.3717241879994833e+02 -2.1577567768058082e+05 +6.0687445376580709e+05 
-4.1999999999999904e+00 -5.5090830306856076e-01 +7.2559309058420771e+00 +4.6670527833284172e+00 -2.0552066568391649e+00 +3.8592455371359370e+02 -2.1514612582658447e+05 +9.2209375964039844e+05 
-4.2499999999999902e+00 -5.5093978249101250e-01 +7.2575207322079125e+00 +4.6363521415170501e+00 -1.9329257678784477e+00 +3.3882294412776992e+02 -2.1434370793181568e+05 +1.2142090511337360e+06 
-4.2999999999999901e+00 -5.5097154238944590e-01 +7.2591237852039630e+00 +4.6052910357704224e+00 -1.8329232353311462e+00 +2.9574656381543844e+02 -2.1337825039563631e+05 +1.4837865245020981e+06 
-4.3499999999999899e+00 -5.5100357971851788e-01 +7.2607398218879604e+00 +4.5738811128145711e+00 -1.7538985900736219e+00 +2.5657443174592726e+02 -2.1225957954250564e+05 +1.7313920751755785e+06 
-4.3999999999999897e+00 -5.5103589143290066e-01 +7.2623685993158409e+00 +4.5421340175017191e+00 -1.6945512913391483e+00 +2.2118561573824562e+02 -2.1099752231485749e+05 +1.9575912774852118e+06 
-4.4499999999999904e+00 -5.5106847448725538e-01 +7.2640098745421859e+00 +4.5100613972742245e+00 -1.6535807628309882e+00 +1.8945911373406258e+02 -2.0960190587202797e+05 +2.1629501798991729e+06 
-4.4999999999999902e+00 -5.5110132583617277e-01 +7.2656634046264568e+00 +4.4776748967157403e+00 -1.6296866312772187e+00 +1.6127399862036361e+02 -2.0808255570802986e+05 +2.3480343353485446e+06 
-4.5499999999999901e+00 -5.5113444243441767e-01 +7.2673289466199895e+00 +4.4449861632558374e+00 -1.6215682172665526e+00 +1.3650926431191968e+02 -2.0644929979145955e+05 +2.5134098411178850e+06 
-4.5999999999999899e+00 -5.5116782123649721e-01 +7.2690062575783267e+00 +4.4120068411595952e+00 -1.6279250110273291e+00 +1.1504398934981072e+02 -2.0471196467728168e+05 +2.6596422287464398e+06 
-4.6499999999999897e+00 -5.5120145919712782e-01 +7.2706950945566433e+00 +4.3787485742709977e+00 -1.6474565178241753e+00 +9.6757262096402627e+01 -2.0288037674886303e+05 +2.7872969733602791e+06 
-4.6999999999999904e+00 -5.5123535327095985e-01 +7.2723952146050745e+00 +4.3452230094484712e+00 -1.6788620489283208e+00 +8.1528088046982987e+01 -2.0096436395607708e+05 +2.8969401158481743e+06 
-4.7499999999999902e+00 -5.5126950041260703e-01 +7.2741063747740560e+00 +4.3114417915432508e+00 -1.7208409307884505e+00 +6.9235526709015346e+01 -1.9897375413514022e+05 +2.9891373397166044e+06 
-4.7999999999999901e+00 -5.5130389757671105e-01 +7.2758283321183201e+00 +4.2774165620781996e+00 -1.7720927017123218e+00 +5.9758722775434713e+01 -1.9691837327700804e+05 +3.0644537710202085e+06 
-4.8499999999999899e+00 -5.5133854171793439e-01 +7.2775608436853583e+00 +4.2431589667061482e+00 -1.8313166101833711e+00 +5.2976707017790133e+01 -1.9480804977786148e+05 +3.1234553175544082e+06 
-4.8999999999999897e+00 -5.5137342979079296e-01 +7.2793036665246964e+00 +4.2086806483542043e+00 -1.8972120005102353e+00 +4.8768588361433373e+01 -1.9265261119267708e+05 +3.1667073474971675e+06 
-4.9499999999999904e+00 -5.5140832139489049e-01 +7.2810447116068637e+00 +4.1742279566358480e+00 -1.9679921511096485e+00 +4.7017315985142943e+01 -1.9047673282943203e+05 +3.1946365096943653e+06 
-4.9999999999999902e+00 -5.5144344767244613e-01 +7.2827954516613644e+00 +4.1395804066464974e+00 -2.0427963946834917e+00 +4.7567609930717559e+01 -1.8827567192892593e+05 +3.2081397593131256e+06 
-5.0499999999999901e+00 -5.5147880563917739e-01 +7.2845556486136411e+00 +4.1047494069284953e+00 -2.1203501562380116e+00 +5.0301012063624256e+01 -1.8605905891069546e+05 +3.2077711138620670e+06 
