# multipoles
# s[mm] polynom_b[n=0][T/m^n] polynom_b[n=1][T/m^n] polynom_b[n=2][T/m^n] polynom_b[n=3][T/m^n] polynom_b[n=4][T/m^n] polynom_b[n=5][T/m^n] polynom_b[n=6][T/m^n] 
+0.0000000000000000e+00 -5.5670749632614891e-01 +7.3105438338323623e+00 +4.3774928133736397e+00 -3.6024100844524469e+01 +2.9481235065090918e+03 -2.2270950343283889e+05 -1.3373821337622153e+07 
+5.0000000000000003e-02 -5.5670825869668372e-01 +7.3106557542451718e+00 +4.3765155597444556e+00 -3.6394210038629495e+01 +2.9336075815179852e+03 -2.2058163393034821e+05 -1.3363934378928883e+07 
+1.0000000000000001e-01 -5.5670936045340869e-01 +7.3107854258826110e+00 +4.3751014096672911e+00 -3.6749901362297351e+01 +2.9204364027520733e+03 -2.1851205978044984e+05 -1.3362770932090171e+07 
+1.5000000000000002e-01 -5.5671080064113121e-01 +7.3109327689157180e+00 +4.3732528740811389e+00 -3.7090733964578341e+01 +2.9085371089842852e+03 -2.1650358084856800e+05 -1.3369731888288664e+07 
+2.0000000000000001e-01 -5.5671257830470311e-01 +7.3110977035209928e+00 +4.3709724681873929e+00 -3.7416267209529515e+01 +2.8978367339856736e+03 -2.1455899517849425e+05 -1.3384217470221082e+07 
+2.5000000000000000e-01 -5.5671469248895800e-01 +7.3112801498717026e+00 +4.3682627021705693e+00 -3.7726060287635569e+01 +2.8882624366811156e+03 -2.1268110230457989e+05 -1.3405628707893740e+07 
+2.9999999999999999e-01 -5.5671714223875579e-01 +7.3114800281436017e+00 +4.3651260870997151e+00 -3.8019672488172958e+01 +2.8797413622392528e+03 -2.1087270086910157e+05 -1.3433366577551324e+07 
+3.4999999999999998e-01 -5.5671992659897618e-01 +7.3116972585113418e+00 +4.3615651360918823e+00 -3.8296663013725237e+01 +2.8722005883818169e+03 -2.0913659029810928e+05 -1.3466831556540016e+07 
+3.9999999999999997e-01 -5.5672304461451061e-01 +7.3119317611534917e+00 +4.3575823605041579e+00 -3.8556591213235187e+01 +2.8655672499673396e+03 -2.0747556877470517e+05 -1.3505424543491883e+07 
+4.4999999999999996e-01 -5.5672649533026630e-01 +7.3121834562471166e+00 +4.3531802727873625e+00 -3.8799016342823464e+01 +2.8597684423860624e+03 -2.0589243528722218e+05 -1.3548546134270279e+07 
+4.9999999999999994e-01 -5.5673027779116246e-01 +7.3124522639687815e+00 +4.3483613842409072e+00 -3.9023497622158473e+01 +2.8547312992216525e+03 -2.0438998908516628e+05 -1.3595597212091703e+07 
+5.4999999999999993e-01 -5.5673439104213307e-01 +7.3127381044979352e+00 +4.3431282064917225e+00 -3.9229594358861512e+01 +2.8503829389179300e+03 -2.0297102872906526e+05 -1.3645978533280527e+07 
+5.9999999999999998e-01 -5.5673883412812541e-01 +7.3130408980135080e+00 +4.3374832507969368e+00 -3.9416865809109382e+01 +2.8466504918883825e+03 -2.0163835323043069e+05 -1.3699090944845591e+07 
+6.5000000000000002e-01 -5.5674360609411144e-01 +7.3133605646954543e+00 +4.3314290302610159e+00 -3.9584871262303885e+01 +2.8434610373639844e+03 -2.0039476128285538e+05 -1.3754334944306638e+07 
+7.0000000000000007e-01 -5.5674870598505954e-01 +7.3136970247235427e+00 +4.3249680548994345e+00 -3.9733169960502380e+01 +2.8407417354878439e+03 -1.9924305202268876e+05 -1.3811111566134728e+07 
+7.5000000000000011e-01 -5.5675413284596453e-01 +7.3140501982798645e+00 +4.3181028367971495e+00 -3.9861321225532201e+01 +2.8384196903040602e+03 -1.9818602392121393e+05 -1.3868821467311522e+07 
+8.0000000000000016e-01 -5.5675988572182877e-01 +7.3144200055456894e+00 +4.3108358864059175e+00 -3.9968884315641262e+01 +2.8364220529890349e+03 -1.9722647599409832e+05 -1.3926865633831922e+07 
+8.5000000000000020e-01 -5.5676596365767983e-01 +7.3148063667025349e+00 +4.3031697171208636e+00 -4.0055418477976289e+01 +2.8346758865942129e+03 -1.9636720735250367e+05 -1.3984644427639434e+07 
+9.0000000000000024e-01 -5.5677236569853683e-01 +7.3152092019347412e+00 +4.2951068374862089e+00 -4.0120483050611838e+01 +2.8331083896841988e+03 -1.9561101637020541e+05 -1.4041559140640274e+07 
+9.5000000000000029e-01 -5.5677909088945610e-01 +7.3156284314248099e+00 +4.2866497605252354e+00 -4.0163637262663300e+01 +2.8316466374912357e+03 -1.9496070236924797e+05 -1.4097010225895956e+07 
+1.0000000000000002e+00 -5.5678613827549228e-01 +7.3160639753558296e+00 +4.2778009963456682e+00 -4.0184440362283176e+01 +2.8302177843838208e+03 -1.9441906445045114e+05 -1.4150398673815368e+07 
+1.0500000000000003e+00 -5.5679350690171636e-01 +7.3165157539155530e+00 +4.2685630557498291e+00 -4.0182451740300941e+01 +2.8287489607748394e+03 -1.9398890065209437e+05 -1.4201125292341009e+07 
+1.1000000000000003e+00 -5.5680119581321996e-01 +7.3169836872865268e+00 +4.2589384508605672e+00 -4.0157230561234876e+01 +2.8271672632318323e+03 -1.9367301084598087e+05 -1.4248590672435164e+07 
+1.1500000000000004e+00 -5.5680920405510459e-01 +7.3174676956567453e+00 +4.2489296926497673e+00 -4.0108336188598351e+01 +2.8253998180633475e+03 -1.9347419327578999e+05 -1.4292195594567781e+07 
+1.2000000000000004e+00 -5.5681753067247153e-01 +7.3179676992103397e+00 +4.2385392898969414e+00 -4.0035327802146526e+01 +2.8233738116497543e+03 -1.9339524772450834e+05 -1.4331341256551135e+07 
+1.2500000000000004e+00 -5.5682617471044515e-01 +7.3184836181365451e+00 +4.2277697533698584e+00 -3.9937764759510756e+01 +2.8210163702215200e+03 -1.9343897255908934e+05 -1.4365428422608662e+07 
+1.3000000000000005e+00 -5.5683513521417372e-01 +7.3190153726233733e+00 +4.2166235956817903e+00 -3.9815206350611348e+01 +2.8182545719567152e+03 -1.9360816668669347e+05 -1.4393857542424195e+07 
+1.3500000000000005e+00 -5.5684441122879302e-01 +7.3195628828566734e+00 +4.2051033246385714e+00 -3.9667211739303312e+01 +2.8150156251427593e+03 -1.9390563013018158e+05 -1.4416029945469590e+07 
+1.4000000000000006e+00 -5.5685400179948852e-01 +7.3201260690274879e+00 +4.1932114545601031e+00 -3.9493340293348822e+01 +2.8112265572963402e+03 -1.9433416118626160e+05 -1.4431345718234701e+07 
+1.4500000000000006e+00 -5.5686390597140212e-01 +7.3207048513253481e+00 +4.1809504900276773e+00 -3.9293151280726946e+01 +2.8068146603034752e+03 -1.9489655905984994e+05 -1.4439206746843506e+07 
+1.5000000000000007e+00 -5.5687412278974591e-01 +7.3212991499407671e+00 +4.1683229455736814e+00 -3.9066203987587272e+01 +2.8017069551130257e+03 -1.9559562280209272e+05 -1.4439013074801246e+07 
+1.5500000000000007e+00 -5.5688465129971387e-01 +7.3219088850630545e+00 +4.1553313302655273e+00 -3.8812057626430537e+01 +2.7958306094125683e+03 -1.9643415210528008e+05 -1.4430165736222764e+07 
+1.6000000000000008e+00 -5.5689549054651122e-01 +7.3225339768840874e+00 +4.1419781531512463e+00 -3.8530271490608335e+01 +2.7891127877162762e+03 -1.9741494601691514e+05 -1.4412065729485769e+07 
+1.6500000000000008e+00 -5.5690663957536690e-01 +7.3231743455970513e+00 +4.1282659249862039e+00 -3.8220404893797593e+01 +2.7814806093720708e+03 -1.9854080346965964e+05 -1.4384113752840864e+07 
+1.7000000000000008e+00 -5.5691809743151222e-01 +7.3238299113925009e+00 +4.1141971548837208e+00 -3.7882017024454008e+01 +2.7728612364420392e+03 -1.9981452443531901e+05 -1.4345710789722964e+07 
+1.7500000000000009e+00 -5.5692986316019399e-01 +7.3245005944643822e+00 +4.0997743524167456e+00 -3.7514667181207436e+01 +2.7631818163368907e+03 -2.0123890801401998e+05 -1.4296257712231202e+07 
+1.8000000000000009e+00 -5.5694193580666795e-01 +7.3251863150064684e+00 +4.0850000269064513e+00 -3.7117914624446705e+01 +2.7523694994997695e+03 -2.0281675367878843e+05 -1.4235155404406317e+07 
+1.8500000000000010e+00 -5.5695431441621379e-01 +7.3258869932128974e+00 +4.0698766890179705e+00 -3.6691318614530005e+01 +2.7403514052276923e+03 -2.0455086089023744e+05 -1.4161804556540901e+07 
+1.9000000000000010e+00 -5.5696699803409511e-01 +7.3266025492794356e+00 +4.0544068454980131e+00 -3.6234438437296895e+01 +2.7270547490395315e+03 -2.0644402899626459e+05 -1.4075606477233732e+07 
+1.9500000000000011e+00 -5.5697998570562290e-01 +7.3273329033996806e+00 +4.0385930085090855e+00 -3.5746833284529849e+01 +2.7124066030233244e+03 -2.0849905806597325e+05 -1.3975961513003761e+07 
+2.0000000000000009e+00 -5.5699327647608832e-01 +7.3280779757696326e+00 +4.0224376848967802e+00 -3.5228062393809878e+01 +2.6963341817111491e+03 -2.1071874793759937e+05 -1.3862270972722307e+07 
+2.0500000000000007e+00 -5.5700686922412646e-01 +7.3288376895528025e+00 +4.0059446559814846e+00 -3.4678078138536101e+01 +2.6787633975293161e+03 -2.1310365826260982e+05 -1.3734001066268798e+07 
+2.1000000000000005e+00 -5.5702076216182916e-01 +7.3296119755101516e+00 +3.9891227594369898e+00 -3.4098453650357762e+01 +2.6596249256445840e+03 -2.1564507140866865e+05 -1.3590933761044245e+07 
+2.1500000000000004e+00 -5.5703495333468045e-01 +7.3304007652536693e+00 +3.9719820930122727e+00 -3.3491180478026848e+01 +2.6388532151509203e+03 -2.1833186806071721e+05 -1.3432944547213906e+07 
+2.2000000000000002e+00 -5.5704944078817109e-01 +7.3312039903906374e+00 +3.9545327532707728e+00 -3.2858249953268050e+01 +2.6163827520133595e+03 -2.2115293074186606e+05 -1.3259909181407532e+07 
+2.2500000000000000e+00 -5.5706422256782329e-01 +7.3320215825348480e+00 +3.9367848410699469e+00 -3.2201653678335958e+01 +2.5921479020694492e+03 -2.2409713968526968e+05 -1.3071702589355640e+07 
+2.2999999999999998e+00 -5.5707929671914114e-01 +7.3328534732908919e+00 +3.9187484516739457e+00 -3.1523382846581868e+01 +2.5660831880976566e+03 -2.2715337855195306e+05 -1.2868200780012632e+07 
+2.3499999999999996e+00 -5.5709466128767637e-01 +7.3336995942727778e+00 +3.9004336873829173e+00 -3.0825429047068518e+01 +2.5381229438330956e+03 -2.3031052765728167e+05 -1.2649278491482984e+07 
+2.3999999999999995e+00 -5.5711031431895841e-01 +7.3345598770892355e+00 +3.8818506446930865e+00 -3.0109783630565715e+01 +2.5082016579002579e+03 -2.3355746930729723e+05 -1.2414811495745605e+07 
+2.4499999999999993e+00 -5.5712625385855241e-01 +7.3354342533495132e+00 +3.8630094245249667e+00 -2.9378437965918678e+01 +2.4762537051859686e+03 -2.3688308561452644e+05 -1.2164674818902811e+07 
+2.4999999999999991e+00 -5.5714247795200877e-01 +7.3363226546640492e+00 +3.8439201235591427e+00 -2.8633383460335494e+01 +2.4422135740003432e+03 -2.4027625836909816e+05 -1.1898744248024693e+07 
+2.5499999999999989e+00 -5.5715898464491431e-01 +7.3372250126430858e+00 +3.8245928433845151e+00 -2.7876611506815262e+01 +2.4060156240919441e+03 -2.4372586944872144e+05 -1.1616894718933700e+07 
+2.5999999999999988e+00 -5.5717577198284496e-01 +7.3381412588952513e+00 +3.8050376816453526e+00 -2.7110113419585570e+01 +2.3675943230930925e+03 -2.4722080138335735e+05 -1.1319001895024685e+07 
+2.6499999999999986e+00 -5.5719283801140007e-01 +7.3390713250297956e+00 +3.7852647387893730e+00 -2.6335880537985020e+01 +2.3268840649124218e+03 -2.5074993643794439e+05 -1.1004940951105038e+07 
+2.6999999999999984e+00 -5.5721018077618301e-01 +7.3400151426572240e+00 +3.7652841145772462e+00 -2.5555904248781019e+01 +2.2838192608913423e+03 -2.5430215646943109e+05 -1.0674587173762823e+07 
+2.7499999999999982e+00 -5.5722779832280445e-01 +7.3409726433830400e+00 +3.7451059075870816e+00 -2.4772175722552952e+01 +2.2383343672375358e+03 -2.5786634509472991e+05 -1.0327816201505007e+07 
+2.7999999999999980e+00 -5.5724568869690505e-01 +7.3419437588192951e+00 +3.7247402215040570e+00 -2.3986686398457582e+01 +2.1903636871002764e+03 -2.6143138368463531e+05 -9.9645025748296157e+06 
+2.8499999999999979e+00 -5.5726384994410905e-01 +7.3429284205744327e+00 +3.7041971541863123e+00 -2.3201427572077982e+01 +2.1398417037671211e+03 -2.6498615472751978e+05 -9.5845221434846465e+06 
+2.8999999999999977e+00 -5.5728228011006820e-01 +7.3439265602550385e+00 +3.6834868077382876e+00 -2.2418390443125180e+01 +2.0867027750975044e+03 -2.6851954153392598e+05 -9.1877498625879698e+06 
+2.9499999999999975e+00 -5.5730097724042560e-01 +7.3449381094677939e+00 +3.6626192808347526e+00 -2.1639566230250534e+01 +2.0308813593999284e+03 -2.7202042715344101e+05 -8.7740613942940664e+06 
+2.9999999999999973e+00 -5.5731993938084945e-01 +7.3459629998231204e+00 +3.6416046756180509e+00 -2.0866946291529807e+01 +1.9723118210590208e+03 -2.7547769350644323e+05 -8.3433317654054156e+06 
+3.0499999999999972e+00 -5.5733916457703037e-01 +7.3470011629264125e+00 +3.6204530962608645e+00 -2.0102521783893177e+01 +1.9109284787968593e+03 -2.7888022410415887e+05 -7.8954357260497911e+06 
+3.0999999999999970e+00 -5.5735865087463765e-01 +7.3480525303854414e+00 +3.5991746416719899e+00 -1.9348283965158597e+01 +1.8466657929025910e+03 -2.8221690157982137e+05 -7.4302489764546873e+06 
+3.1499999999999968e+00 -5.5737839631936226e-01 +7.3491170338033136e+00 +3.5777794141687567e+00 -1.8606223903144798e+01 +1.7794581314030747e+03 -2.8547661008106644e+05 -6.9476465950736562e+06 
+3.1999999999999966e+00 -5.5739839895692533e-01 +7.3501946047881450e+00 +3.5562775188300275e+00 -1.7878332863615491e+01 +1.7092397994228686e+03 -2.8864823211953731e+05 -6.4475032731975811e+06 
+3.2499999999999964e+00 -5.5741865683301595e-01 +7.3512851749454091e+00 +3.5346790545216455e+00 -1.7166602025187029e+01 +1.6359452681286473e+03 -2.9172065080357459e+05 -5.9296948185072904e+06 
+3.2999999999999963e+00 -5.5743916799336768e-01 +7.3523886758781876e+00 +3.5129941264305975e+00 -1.6473022441434036e+01 +1.5595088433211756e+03 -2.9468275035432965e+05 -5.3940959376304848e+06 
+3.3499999999999961e+00 -5.5745993048370912e-01 +7.3535050391903800e+00 +3.4912328375108226e+00 -1.5799585234146903e+01 +1.4798648958371787e+03 -2.9752341423629230e+05 -4.8405817924420666e+06 
+3.3999999999999959e+00 -5.5748094234977563e-01 +7.3546341964870621e+00 +3.4694052907691488e+00 -1.5148281566567992e+01 +1.3969477984103712e+03 -3.0023152559033420e+05 -4.2690275670966543e+06 
+3.4499999999999957e+00 -5.5750220163732267e-01 +7.3557760793705356e+00 +3.4475215920329729e+00 -1.4521102481694189e+01 +1.3106918479525971e+03 -3.0279596852409089e+05 -3.6793079359906265e+06 
+3.4999999999999956e+00 -5.5752370639209803e-01 +7.3569306194426929e+00 +3.4255918437236104e+00 -1.3920039033329049e+01 +1.2210314445198692e+03 -3.0520562692885706e+05 -3.0712983037617318e+06 
+3.5499999999999954e+00 -5.5754545465987293e-01 +7.3580977483027068e+00 +3.4036261513675035e+00 -1.3347082161075772e+01 +1.1279009081104218e+03 -3.0744938560646510e+05 -2.4448735516712484e+06 
+3.5999999999999952e+00 -5.5756744448642348e-01 +7.3592773975556067e+00 +3.3816346211133936e+00 -1.2804223044865264e+01 +1.0312345380574691e+03 -3.0951612735817290e+05 -1.7999084007922166e+06 
+3.6499999999999950e+00 -5.5758967391753089e-01 +7.3604694987989197e+00 +3.3596273576517834e+00 -1.2293452576526427e+01 +9.3096669013849782e+02 -3.1139473725142248e+05 -1.1362780161119157e+06 
+3.6999999999999948e+00 -5.5761214099898015e-01 +7.3616739836321239e+00 +3.3376144665071683e+00 -1.1816761730601378e+01 +8.2703169017578966e+02 -3.1307409962777811e+05 -4.5385733090350271e+05 
+3.7499999999999947e+00 -5.5763484377657224e-01 +7.3628907836524435e+00 +3.3156060536063006e+00 -1.1376141401700835e+01 +7.1936387047237395e+02 -3.1454309942765348e+05 +2.4747861872777811e+05 
+3.7999999999999945e+00 -5.5765778029613222e-01 +7.3641198304608411e+00 +3.2936122295585282e+00 -1.0973582649866174e+01 +6.0789742896282883e+02 -3.1579062014136079e+05 +9.6785573396066786e+05 
+3.8499999999999943e+00 -5.5768094860344775e-01 +7.3653610556508378e+00 +3.2716430961741376e+00 -1.0611076236089303e+01 +4.9256681856929464e+02 -3.1680554768379335e+05 +1.7073981312290728e+06 
+3.8999999999999941e+00 -5.5770434674436631e-01 +7.3666143908204971e+00 +3.2497087656526373e+00 -1.0290613127158910e+01 +3.7330620658946037e+02 -3.1757676617335249e+05 +2.4662318816612335e+06 
+3.9499999999999940e+00 -5.5772797276470121e-01 +7.3678797675625463e+00 +3.2278193423644934e+00 -1.0014184075646018e+01 +2.5004998819570292e+02 -3.1809316145117208e+05 +3.2444814541151058e+06 
+3.9999999999999938e+00 -5.5775182471030782e-01 +7.3691571174727502e+00 +3.2059849381414893e+00 -9.7837799772834000e+00 +1.2273235077706968e+02 -3.1834361807111249e+05 +4.0422727550074542e+06 
+4.0499999999999936e+00 -5.5777590053412840e-01 +7.3704463398252740e+00 +3.1842112501570168e+00 -9.6006796574391586e+00 -8.6256425171559510e+00 -3.1832103919343872e+05 +4.8592933452409636e+06 
+4.0999999999999934e+00 -5.5780019781654688e-01 +7.3717472016902281e+00 +3.1624878787756425e+00 -9.4632651152850062e+00 -1.4368857559375371e+02 -3.1803508412499796e+05 +5.6936604228662746e+06 
+4.1499999999999932e+00 -5.5782471404455547e-01 +7.3730594363045832e+00 +3.1408007938432676e+00 -9.3691825971414016e+00 -2.8205068473051313e+02 -3.1749976277090161e+05 +6.5431450555639714e+06 
+4.1999999999999931e+00 -5.5784944670511838e-01 +7.3743827769075407e+00 +3.1191359599297610e+00 -9.3160784604977209e+00 -4.2330606316814755e+02 -3.1672908415011008e+05 +7.4055173466523513e+06 
+4.2499999999999929e+00 -5.5787439328521948e-01 +7.3757169567323420e+00 +3.0974793456258753e+00 -9.3015988255396529e+00 -5.6704891579298351e+02 -3.1573705925445526e+05 +8.2785481617848007e+06 
+4.2999999999999927e+00 -5.5789955127182189e-01 +7.3770617090214667e+00 +3.0758169162223918e+00 -9.3233902003654947e+00 -7.1287336585007017e+02 -3.1453769591297064e+05 +9.1600078444324415e+06 
+4.3499999999999925e+00 -5.5792491815190737e-01 +7.3784167670132490e+00 +3.0541346401775407e+00 -9.3790989265485400e+00 -8.6037361870275549e+02 -3.1314500337786722e+05 +1.0047667275726186e+07 
+4.3999999999999924e+00 -5.5795049141242004e-01 +7.3797818639477422e+00 +3.0324184802762053e+00 -9.4663714265013379e+00 -1.0091437381423715e+03 -3.1157299025244353e+05 +1.0939296424742656e+07 
+4.4499999999999922e+00 -5.5797626854033877e-01 +7.3811567330684333e+00 +3.0106544052518416e+00 -9.5828542692275054e+00 -1.1587779438417149e+03 -3.0983566399223899e+05 +1.1832666293210782e+07 
+4.4999999999999920e+00 -5.5800224702260082e-01 +7.3825411076141325e+00 +2.9888283776419935e+00 -9.7261938419674454e+00 -1.3088702999158902e+03 -3.0794703356479818e+05 +1.2725546873749344e+07 
+4.5499999999999918e+00 -5.5802842434615929e-01 +7.3839347208345432e+00 +2.9669263626389912e+00 -9.8940369996152384e+00 -1.4590149398931537e+03 -3.0592110409737378e+05 +1.3615708619201539e+07 
+4.5999999999999917e+00 -5.5805479799795876e-01 +7.3853373059708929e+00 +2.9449343248662077e+00 -1.0084030244786216e+01 -1.6088059888076980e+03 -3.0377188370616449e+05 +1.4500921949381191e+07 
+4.6499999999999915e+00 -5.5808136546494058e-01 +7.3867485962703459e+00 +2.9228382289254142e+00 -1.0293820340695959e+01 -1.7578375746248971e+03 -3.0151337837043550e+05 +1.5378957313552685e+07 
+4.6999999999999913e+00 -5.5810812423402634e-01 +7.3881683249815655e+00 +2.9006240369422325e+00 -1.0521054127415685e+01 -1.9057037639491571e+03 -2.9915959347677883e+05 +1.6247584764726892e+07 
+4.7499999999999911e+00 -5.5813507179214406e-01 +7.3895962253513696e+00 +2.8782777124401107e+00 -1.0763378367453441e+01 -2.0519986639464446e+03 -2.9672453513730643e+05 +1.7104574642415617e+07 
+4.7999999999999909e+00 -5.5816220562621577e-01 +7.3910320306293240e+00 +2.8557852190638418e+00 -1.1018439965644678e+01 -2.1963163911206057e+03 -2.9422220825755497e+05 +1.7947697365592416e+07 
+4.8499999999999908e+00 -5.5818952322314086e-01 +7.3924754740702916e+00 +2.8331325171123543e+00 -1.1283886046244490e+01 -2.3382509746820865e+03 -2.9166661604149570e+05 +1.8774722774542980e+07 
+4.8999999999999906e+00 -5.5821702206982071e-01 +7.3939262889229438e+00 +2.8103055684300098e+00 -1.1557363486197200e+01 -2.4773964941724998e+03 -2.8907176378754684e+05 +1.9583421081596721e+07 
+4.9499999999999904e+00 -5.5824469965315282e-01 +7.3953842084446659e+00 +2.7872903347690272e+00 -1.1836519553245031e+01 -2.6133470262067385e+03 -2.8645165354650858e+05 +2.0371562472124431e+07 
+4.9999999999999902e+00 -5.5827255346001892e-01 +7.3968489658866954e+00 +2.7640727763742281e+00 -1.2119001252901450e+01 -2.7456966157330426e+03 -2.8382028968406725e+05 +2.1136916951947827e+07 
+5.0499999999999901e+00 -5.5830058097730073e-01 +7.3983202945094231e+00 +2.7406388545570555e+00 -1.2402456000625625e+01 -2.8740393410701981e+03 -2.8119167314259318e+05 +2.1877254765993547e+07 
