# multipoles
# s[mm] polynom_b[n=0][T/m^n] polynom_b[n=1][T/m^n] polynom_b[n=2][T/m^n] polynom_b[n=3][T/m^n] polynom_b[n=4][T/m^n] polynom_b[n=5][T/m^n] polynom_b[n=6][T/m^n] 
+0.0000000000000000e+00 -5.5124050891399223e-01 +7.2057809797305374e+00 +5.2490101079052298e+00 -1.0302779664604699e+02 +2.9487819900379927e+03 +1.7845355702276746e+05 -1.6126475744003467e+07 
-5.0000000000000003e-02 -5.5124823530876144e-01 +7.2062499987424884e+00 +5.2358392444246986e+00 -1.0292927177052302e+02 +2.9698287899340335e+03 +1.7809385731549576e+05 -1.6186181598334309e+07 
-1.0000000000000001e-01 -5.5125634098819098e-01 +7.2067400124658816e+00 +5.2221476325935292e+00 -1.0284125399636874e+02 +2.9904174998151625e+03 +1.7782621016994529e+05 -1.6237127270998642e+07 
-1.5000000000000002e-01 -5.5126482447133796e-01 +7.2072508677885327e+00 +5.2079443084012880e+00 -1.0276290482120653e+02 +3.0105585673927317e+03 +1.7764530373870756e+05 -1.6279754062365197e+07 
-2.0000000000000001e-01 -5.5127368427729051e-01 +7.2077824116010412e+00 +5.1932383098891277e+00 -1.0269338582249711e+02 +3.0302623892968027e+03 +1.7754582681129640e+05 -1.6314502945360074e+07 
-2.5000000000000000e-01 -5.5128291892515191e-01 +7.2083344907955942e+00 +5.1780386743767961e+00 -1.0263185861009759e+02 +3.0495393837887295e+03 +1.7752246841196064e+05 -1.6341815047043892e+07 
-2.9999999999999999e-01 -5.5129252693404540e-01 +7.2089069522597846e+00 +5.1623544400543571e+00 -1.0257748457571932e+02 +3.0683999431807670e+03 +1.7756991576279278e+05 -1.6362131311928660e+07 
-3.4999999999999998e-01 -5.5130250682310389e-01 +7.2094996428880247e+00 +5.1461946439981530e+00 -1.0252942536358957e+02 +3.0868544877102177e+03 +1.7768285815834661e+05 -1.6375892865561742e+07 
-3.9999999999999997e-01 -5.5131285711148659e-01 +7.2101124095722948e+00 +5.1295683242810748e+00 -1.0248684248668405e+02 +3.1049134157044282e+03 +1.7785598379201809e+05 -1.6383540702301299e+07 
-4.4999999999999996e-01 -5.5132357631837303e-01 +7.2107450992063225e+00 +5.1124845203260829e+00 -1.0244889750142927e+02 +3.1225870851713903e+03 +1.7808398120646589e+05 -1.6385515535309467e+07 
-4.9999999999999994e-01 -5.5133466296294431e-01 +7.2113975586852481e+00 +5.0949522683349739e+00 -1.0241475199758042e+02 +3.1398859429044255e+03 +1.7836153921921647e+05 -1.6382258679442367e+07 
-5.4999999999999993e-01 -5.5134611556440971e-01 +7.2120696349012112e+00 +5.0769806071700190e+00 -1.0238356741540876e+02 +3.1568203627643697e+03 +1.7868334541853255e+05 -1.6374210959382970e+07 
-5.9999999999999998e-01 -5.5135793264197797e-01 +7.2127611747519129e+00 +5.0585785722885923e+00 -1.0235450539822689e+02 +3.1734008104385352e+03 +1.7904408905138171e+05 -1.6361813814987319e+07 
-6.5000000000000002e-01 -5.5137011271490943e-01 +7.2134720251314643e+00 +5.0397552054399846e+00 -1.0232672741862021e+02 +3.1896375841995550e+03 +1.7943845797470189e+05 -1.6345507568886504e+07 
-7.0000000000000007e-01 -5.5138265430243194e-01 +7.2142020329382657e+00 +5.0205195405505423e+00 -1.0229939509868792e+02 +3.2055411870939402e+03 +1.7986114126227578e+05 -1.6325733903399758e+07 
-7.5000000000000011e-01 -5.5139555592383516e-01 +7.2149510450663108e+00 +5.0008806188902133e+00 -1.0227166986451128e+02 +3.2211219288547227e+03 +1.8030682640649859e+05 -1.6302933210994348e+07 
-8.0000000000000016e-01 -5.5140881609838133e-01 +7.2157189084154432e+00 +4.9808474746764047e+00 -1.0224271336031204e+02 +3.2363903074685968e+03 +1.8077020270441214e+05 -1.6277547153138429e+07 
-8.5000000000000020e-01 -5.5142243334539087e-01 +7.2165054698823017e+00 +4.9604291493656030e+00 -1.0221168706676974e+02 +3.2513566264973470e+03 +1.8124595807328587e+05 -1.6250016079513796e+07 
-9.0000000000000024e-01 -5.5143640618415901e-01 +7.2173105763652972e+00 +4.9396346775851576e+00 -1.0217775253407946e+02 +3.2660313726237878e+03 +1.8172878107654102e+05 -1.6220781574691888e+07 
-9.5000000000000029e-01 -5.5145073313403237e-01 +7.2181340747648450e+00 +4.9184731005222266e+00 -1.0214007136601325e+02 +3.2804248517816350e+03 +1.8221336069875784e+05 -1.6190283987037031e+07 
-1.0000000000000002e+00 -5.5146541271432936e-01 +7.2189758119769882e+00 +4.8969534514806119e+00 -1.0209780498037085e+02 +3.2945475876891601e+03 +1.8269438444898062e+05 -1.6158965159102829e+07 
-1.0500000000000003e+00 -5.5148044344442482e-01 +7.2198356349024655e+00 +4.8750847714463657e+00 -1.0205011495162397e+02 +3.3084098914253491e+03 +1.8316654107495444e+05 -1.6127265473941166e+07 
-1.1000000000000003e+00 -5.5149582384367857e-01 +7.2207133904417447e+00 +4.8528760961646968e+00 -1.0199616285692763e+02 +3.3220222184265958e+03 +1.8362451949201446e+05 -1.6095626305484457e+07 
-1.1500000000000004e+00 -5.5151155243147920e-01 +7.2216089254934603e+00 +4.8303364639460007e+00 -1.0193511016250089e+02 +3.3353949517220085e+03 +1.8406300763332038e+05 -1.6064488524799608e+07 
-1.2000000000000004e+00 -5.5152762772722397e-01 +7.2225220869577109e+00 +4.8074749120889306e+00 -1.0186611837893150e+02 +3.3485385037829028e+03 +1.8447669382721931e+05 -1.6034293212318078e+07 
-1.2500000000000004e+00 -5.5154404825031700e-01 +7.2234527217364839e+00 +4.7843004774561502e+00 -1.0178834909539805e+02 +3.3614632903969136e+03 +1.8486026712881253e+05 -1.6005481439472131e+07 
-1.3000000000000005e+00 -5.5156081252019107e-01 +7.2244006767284388e+00 +4.7608221983433543e+00 -1.0170096374951423e+02 +3.3741796992134527e+03 +1.8520841537223454e+05 -1.5978494126678903e+07 
-1.3500000000000005e+00 -5.5157791905627718e-01 +7.2253657988348312e+00 +4.7370491111464297e+00 -1.0160312386676773e+02 +3.3866981615138657e+03 +1.8551582711372228e+05 -1.5953772464067467e+07 
-1.4000000000000006e+00 -5.5159536637802187e-01 +7.2263479349575226e+00 +4.7129902528331300e+00 -1.0149399100569730e+02 +3.3990290912829801e+03 +1.8577719129861129e+05 -1.5931757516162483e+07 
-1.4500000000000006e+00 -5.5161315300489566e-01 +7.2273469319959789e+00 +4.6886546618142457e+00 -1.0137272659468013e+02 +3.4111828676495161e+03 +1.8598719574665264e+05 -1.5912890131108139e+07 
-1.5000000000000007e+00 -5.5163127745636464e-01 +7.2283626368516138e+00 +4.6640513740791105e+00 -1.0123849214870998e+02 +3.4231699271265788e+03 +1.8614052909282691e+05 -1.5897611511947675e+07 
-1.5500000000000007e+00 -5.5164973825190289e-01 +7.2293948964258732e+00 +4.6391894241510725e+00 -1.0109044917560732e+02 +3.4350007524263806e+03 +1.8623187995688774e+05 -1.5886363204137757e+07 
-1.6000000000000008e+00 -5.5166853391103221e-01 +7.2304435576203927e+00 +4.6140778534601772e+00 -1.0092775919511176e+02 +3.4466856335453658e+03 +1.8625593714055605e+05 -1.5879585425769767e+07 
-1.6500000000000008e+00 -5.5168766295324778e-01 +7.2315084673342751e+00 +4.5887256961958700e+00 -1.0074958358873337e+02 +3.4582350551008913e+03 +1.8620738824887492e+05 -1.5877719707049526e+07 
-1.7000000000000008e+00 -5.5170712389806464e-01 +7.2325894724709681e+00 +4.5631419880499839e+00 -1.0055508394661292e+02 +3.4696594622859557e+03 +1.8608092278888507e+05 -1.5881207319435123e+07 
-1.7500000000000009e+00 -5.5172691526502049e-01 +7.2336864199292048e+00 +4.5373357667243974e+00 -1.0034342164679660e+02 +3.4809692430962464e+03 +1.8587122851921341e+05 -1.5890489136034574e+07 
-1.8000000000000009e+00 -5.5174703557365234e-01 +7.2347991566121159e+00 +4.5113160676125235e+00 -1.0011375823893822e+02 +3.4921748486591268e+03 +1.8557299465017466e+05 -1.5906006462379396e+07 
-1.8500000000000010e+00 -5.5176748334351500e-01 +7.2359275294181371e+00 +4.4850919273268319e+00 -9.9865255095662192e+01 +3.5032866919544672e+03 +1.8518090905178487e+05 -1.5928200324081093e+07 
-1.9000000000000010e+00 -5.5178825709418289e-01 +7.2370713852489832e+00 +4.4586723837196036e+00 -9.9597073711756352e+01 +3.5143151564645041e+03 +1.8468966061957667e+05 -1.5957511565505607e+07 
-1.9500000000000011e+00 -5.5180935534520503e-01 +7.2382305710046086e+00 +4.4320664690135976e+00 -9.9308375517131594e+01 +3.5252707702437474e+03 +1.8409393781438141e+05 -1.5994381984773330e+07 
-2.0000000000000009e+00 -5.5183077661617663e-01 +7.2394049335856403e+00 +4.4052832211322421e+00 -9.8998321968838212e+01 +3.5361639080015329e+03 +1.8338842937527638e+05 -1.6039252340995628e+07 
-2.0500000000000007e+00 -5.5185251921499123e-01 +7.2405943216557027e+00 +4.3783303534126654e+00 -9.8666400065646783e+01 +3.5470041051018720e+03 +1.8256974816278942e+05 -1.6092454168619141e+07 
-2.1000000000000005e+00 -5.5187458060304151e-01 +7.2417985850770563e+00 +4.3512103239415456e+00 -9.8313342194892741e+01 +3.5578039508056904e+03 +1.8164173908988066e+05 -1.6153917308855960e+07 
-2.1500000000000004e+00 -5.5189695803018202e-01 +7.2430175725516364e+00 +4.3239242946509391e+00 -9.7940178361872455e+01 +3.5685783986490133e+03 +1.8060993759333895e+05 -1.6223479886688851e+07 
-2.2000000000000002e+00 -5.5191964874627020e-01 +7.2442511327786674e+00 +4.2964734269435114e+00 -9.7547938433739674e+01 +3.5793424113173874e+03 +1.7947987787684076e+05 -1.6300980068206159e+07 
-2.2500000000000000e+00 -5.5194265000117770e-01 +7.2454991144641117e+00 +4.2688588826308127e+00 -9.7137652567277982e+01 +3.5901109487898289e+03 +1.7825709662958735e+05 -1.6386256034784934e+07 
-2.2999999999999998e+00 -5.5196595904477230e-01 +7.2467613663063979e+00 +4.2410818220682360e+00 -9.6710350586152387e+01 +3.6008989991662811e+03 +1.7694712772172174e+05 -1.6479146112563711e+07 
-2.3499999999999996e+00 -5.5198957312693642e-01 +7.2480377370114111e+00 +4.2131434060563082e+00 -9.6267062620966243e+01 +3.6117215489226828e+03 +1.7555550759357680e+05 -1.6579488657587398e+07 
-2.3999999999999995e+00 -5.5201348949757845e-01 +7.2493280752793625e+00 +4.1850447987364134e+00 -9.5808818552942540e+01 +3.6225934894571888e+03 +1.7408777059436167e+05 -1.6687121362190379e+07 
-2.4499999999999993e+00 -5.5203770540658414e-01 +7.2506322298136521e+00 +4.1567871590086707e+00 -9.5336648405559046e+01 +3.6335298565365156e+03 +1.7254945230965930e+05 -1.6801882909662668e+07 
-2.4999999999999991e+00 -5.5206221810388045e-01 +7.2519500493187632e+00 +4.1283716511557556e+00 -9.4851582220660688e+01 +3.6445455437386877e+03 +1.7094608839769723e+05 -1.6923611028794937e+07 
-2.5499999999999989e+00 -5.5208702483937466e-01 +7.2532813824972644e+00 +4.0997994353888236e+00 -9.4354649962259160e+01 +3.6556555485311437e+03 +1.6928321390294418e+05 -1.7052144130539361e+07 
-2.5999999999999988e+00 -5.5211212286299771e-01 +7.2546260780534491e+00 +4.0710716743899180e+00 -9.3846881653037158e+01 +3.6668748076562110e+03 +1.6756636431372125e+05 -1.7187320236554354e+07 
-2.6499999999999986e+00 -5.5213750942467688e-01 +7.2559839846888927e+00 +4.0421895289033243e+00 -9.3329307213521389e+01 +3.6782183117368322e+03 +1.6580107433930645e+05 -1.7328977738751493e+07 
-2.6999999999999984e+00 -5.5216318177435963e-01 +7.2573549511094475e+00 +4.0131541621303031e+00 -9.2802956715945015e+01 +3.6897009839578541e+03 +1.6399287985116217e+05 -1.7476954568283137e+07 
-2.7499999999999982e+00 -5.5218913716198992e-01 +7.2587388260201955e+00 +3.9839667355815438e+00 -9.2268860203198201e+01 +3.7013377933261395e+03 +1.6214731650129595e+05 -1.7631088964013919e+07 
-2.7999999999999980e+00 -5.5221537283751965e-01 +7.2601354581229911e+00 +3.9546284110346388e+00 -9.1728047587851435e+01 +3.7131437039814646e+03 +1.6026991888153134e+05 -1.7791219143774141e+07 
-2.8499999999999979e+00 -5.5224188605091307e-01 +7.2615446961252452e+00 +3.9251403514563004e+00 -9.1181548981689645e+01 +3.7251336484003737e+03 +1.5836622312074422e+05 -1.7957183109757911e+07 
-2.8999999999999977e+00 -5.5226867405214120e-01 +7.2629663887288949e+00 +3.8955037197289681e+00 -9.0630394289294387e+01 +3.7373225638417084e+03 +1.5644176370654293e+05 -1.8128818906489871e+07 
-2.9499999999999975e+00 -5.5229573409116861e-01 +7.2644003846416467e+00 +3.8657196768335935e+00 -9.0075613638573216e+01 +3.7497254397833817e+03 +1.5450207691663349e+05 -1.8305964934677318e+07 
-2.9999999999999973e+00 -5.5232306341797832e-01 +7.2658465325675810e+00 +3.8357893858432281e+00 -8.9518236999959342e+01 +3.7623572095819741e+03 +1.5255269769607601e+05 -1.8488459212235436e+07 
-3.0499999999999972e+00 -5.5235065928256122e-01 +7.2673046812118232e+00 +3.8057140104963962e+00 -8.8959294387325656e+01 +3.7752327918717574e+03 +1.5059916134332356e+05 -1.8676139673264176e+07 
-3.0999999999999970e+00 -5.5237851893490353e-01 +7.2687746792804999e+00 +3.7754947130064789e+00 -8.8399815852962192e+01 +3.7883671447110241e+03 +1.4864700345772179e+05 -1.8868844510118462e+07 
-3.1499999999999968e+00 -5.5240663962499492e-01 +7.2702563754815213e+00 +3.7451326549186277e+00 -8.7840831511913493e+01 +3.8017752496784683e+03 +1.4670176009900300e+05 -1.9066412091512889e+07 
-3.1999999999999966e+00 -5.5243501860284883e-01 +7.2717496185165640e+00 +3.7146290017955352e+00 -8.7283371223704478e+01 +3.8154719771081600e+03 +1.4476896521845946e+05 -1.9268680024547871e+07 
-3.2499999999999964e+00 -5.5246365311845913e-01 +7.2732542570960588e+00 +3.6839849143456784e+00 -8.6728465199454234e+01 +3.8294723360183903e+03 +1.4285415561438410e+05 -1.9475486881515622e+07 
-3.2999999999999963e+00 -5.5249254042185481e-01 +7.2747701399249936e+00 +3.6532015592853870e+00 -8.6177143423105974e+01 +3.8437911694642144e+03 +1.4096286618326322e+05 -1.9686670096493971e+07 
-3.3499999999999961e+00 -5.5252167776303363e-01 +7.2762971157113538e+00 +3.6222800970998428e+00 -8.5630436010874277e+01 +3.8584434915664560e+03 +1.3910063292728877e+05 -1.9902068270037144e+07 
-3.3999999999999959e+00 -5.5255106239201990e-01 +7.2778350331594623e+00 +3.5912216921570259e+00 -8.5089372903525728e+01 +3.8734442162250293e+03 +1.3727299028111270e+05 -2.0121519340916652e+07 
-3.4499999999999957e+00 -5.5258069155884337e-01 +7.2793837409789450e+00 +3.5600275093611002e+00 -8.4554984278046547e+01 +3.8888082416888637e+03 +1.3548547467504579e+05 -2.0344861136259615e+07 
-3.4999999999999956e+00 -5.5261056251352370e-01 +7.2809430878777119e+00 +3.5286987112688202e+00 -8.4028300221796229e+01 +3.9045505341272474e+03 +1.3374362169066982e+05 -2.0571931958974764e+07 
-3.5499999999999954e+00 -5.5264067250610027e-01 +7.2825129225612555e+00 +3.4972364634503310e+00 -8.3510350726190296e+01 +3.9206859797700790e+03 +1.3205296611719977e+05 -2.0802569575142205e+07 
-3.5999999999999952e+00 -5.5267101878660219e-01 +7.2840930937396919e+00 +3.4656419293071985e+00 -8.3002165980625932e+01 +3.9372295219392240e+03 +1.3041904436494682e+05 -2.1036612128101815e+07 
-3.6499999999999950e+00 -5.5270159860507451e-01 +7.2856834501196461e+00 +3.4339162746167506e+00 -8.2504776008157037e+01 +3.9541960465490301e+03 +1.2884739134570684e+05 -2.1273897399509009e+07 
-3.6999999999999948e+00 -5.5273240921155309e-01 +7.2872838404093017e+00 +3.4020606629711727e+00 -8.2019210905545194e+01 +3.9716005014319735e+03 +1.2734354258757322e+05 -2.1514263598026901e+07 
-3.7499999999999947e+00 -5.5276344785608100e-01 +7.2888941133195537e+00 +3.3700762592380205e+00 -8.1546500884761400e+01 +3.9894577977664808e+03 +1.2591303453785765e+05 -2.1757548673939075e+07 
-3.7999999999999945e+00 -5.5279471178870476e-01 +7.2905141175567625e+00 +3.3379642286625875e+00 -8.1087675960025123e+01 +4.0077828393848422e+03 +1.2456140192841683e+05 -2.2003590536707886e+07 
-3.8499999999999943e+00 -5.5282619825948642e-01 +7.2921437018301409e+00 +3.3057257387843935e+00 -8.0643766265822791e+01 +4.0265904743394149e+03 +1.2329418044876092e+05 -2.2252226741325065e+07 
-3.8999999999999941e+00 -5.5285790451845651e-01 +7.2937827148507495e+00 +3.2733619509594125e+00 -8.0215802009507073e+01 +4.0458957215371474e+03 +1.2211690632731857e+05 -2.2503296009808417e+07 
-3.9499999999999940e+00 -5.5288982781568408e-01 +7.2954310053260771e+00 +3.2408740343483364e+00 -7.9804813254093318e+01 +4.0657133833382009e+03 +1.2103511456442898e+05 -2.2756635576552700e+07 
-3.9999999999999938e+00 -5.5292196540121852e-01 +7.2970884219660475e+00 +3.2082631536412731e+00 -7.9411830158637386e+01 +4.0860583927883158e+03 +1.2005434091390946e+05 -2.3012083593251370e+07 
-4.0499999999999936e+00 -5.5295431450530708e-01 +7.2987548033253855e+00 +3.1755312341583086e+00 -7.9037632980607697e+01 +4.1069378429787930e+03 +1.1917881076664213e+05 -2.3269459686520088e+07 
-4.0999999999999934e+00 -5.5298687227875654e-01 +7.3004299461497828e+00 +3.1426837430209256e+00 -7.8682034618438038e+01 +4.1283157693276862e+03 +1.1840776760760302e+05 -2.3528450903593779e+07 
-4.1499999999999932e+00 -5.5301963585249025e-01 +7.3021136364219945e+00 +3.1097271691348065e+00 -7.8344614555075125e+01 +4.1501424178401076e+03 +1.1773928204376409e+05 -2.3788696012085296e+07 
-4.1999999999999931e+00 -5.5305260235741061e-01 +7.3038056601275567e+00 +3.0766679975389173e+00 -7.8024952413734141e+01 +4.1723681412140095e+03 +1.1717142588786237e+05 -2.4049834506575737e+07 
-4.2499999999999929e+00 -5.5308576892443184e-01 +7.3055058032463753e+00 +3.0435127164670033e+00 -7.7722627568478217e+01 +4.1949432010265464e+03 +1.1670226876798346e+05 -2.4311505251545232e+07 
-4.2999999999999927e+00 -5.5311913268444968e-01 +7.3072138517591201e+00 +3.0102678108309018e+00 -7.7437219457824654e+01 +4.2178179516035916e+03 +1.1632988092074131e+05 -2.4573347747805163e+07 
-4.3499999999999925e+00 -5.5315269076838269e-01 +7.3089295916522792e+00 +2.9769397698743481e+00 -7.7168307764777396e+01 +4.2409426309522141e+03 +1.1605233456755169e+05 -2.4835000714095119e+07 
-4.3999999999999924e+00 -5.5318644030712050e-01 +7.3106528089037290e+00 +2.9435350790201467e+00 -7.6915471816003333e+01 +4.2642675752518862e+03 +1.1586769891526901e+05 -2.5096103516734093e+07 
-4.4499999999999922e+00 -5.5322037843156613e-01 +7.3123832894963110e+00 +2.9100602264307280e+00 -7.6678291169334301e+01 +4.2877430464708177e+03 +1.1577404512630573e+05 -2.5356295019378647e+07 
-4.4999999999999920e+00 -5.5325450227260775e-01 +7.3141208194102267e+00 +2.8765216979952299e+00 -7.6456345278678270e+01 +4.3113193709762045e+03 +1.1576944346319027e+05 -2.5615214532981016e+07 
-4.5499999999999918e+00 -5.5328880896113297e-01 +7.3158651846272571e+00 +2.8429259806071117e+00 -7.6249213669757935e+01 +4.3349468438253252e+03 +1.1585196473522583e+05 -2.5872501143675346e+07 
-4.5999999999999917e+00 -5.5332329562802296e-01 +7.3176161711268177e+00 +2.8092795606288163e+00 -7.6056475792488797e+01 +4.3585757750935463e+03 +1.1601967915200564e+05 -2.6127794042301182e+07 
-4.6499999999999915e+00 -5.5335795940417154e-01 +7.3193735648875018e+00 +2.7755889275956305e+00 -7.5877711075654801e+01 +4.3821563864294567e+03 +1.1627065671599348e+05 -2.6380731811808355e+07 
-4.6999999999999913e+00 -5.5339279742043623e-01 +7.3211371518916994e+00 +2.7418605653415082e+00 -7.5712499101719104e+01 +4.4056390557434079e+03 +1.1660296862824463e+05 -2.6630954103013046e+07 
-4.7499999999999911e+00 -5.5342780680769543e-01 +7.3229067181139813e+00 +2.7081009627692780e+00 -7.5560419169185693e+01 +4.4289740181967209e+03 +1.1701468381447917e+05 -2.6878099580963213e+07 
-4.7999999999999909e+00 -5.5346298469680366e-01 +7.3246820495367242e+00 +2.6743166050825562e+00 -7.5421050896913172e+01 +4.4521116117772772e+03 +1.1750387376009954e+05 -2.7121807616463423e+07 
-4.8499999999999908e+00 -5.5349832821862843e-01 +7.3264629321357511e+00 +2.6405139807728717e+00 -7.5293973648283128e+01 +4.4750020859125589e+03 +1.1806860782553135e+05 -2.7361716986269243e+07 
-4.8999999999999906e+00 -5.5353383450401261e-01 +7.3282491518909332e+00 +2.6066995757309477e+00 -7.5178766973526493e+01 +4.4975957527692935e+03 +1.1870695690921228e+05 -2.7597466863280550e+07 
-4.9499999999999904e+00 -5.5356950068380173e-01 +7.3300404947774878e+00 +2.5728798766205143e+00 -7.5075010247201121e+01 +4.5198429104844590e+03 +1.1941699043559543e+05 -2.7828696352031276e+07 
-4.9999999999999902e+00 -5.5360532388882733e-01 +7.3318367467711658e+00 +2.5390613696172299e+00 -7.4982282882274433e+01 +4.5416938613360180e+03 +1.2019677813249730e+05 -2.8055044554310761e+07 
-5.0499999999999901e+00 -5.5364130124993072e-01 +7.3336376938498402e+00 +2.5052505431111056e+00 -7.4900164393814194e+01 +4.5630988532482861e+03 +1.2104439053080574e+05 -2.8276150224282689e+07 
