# field on trajectory
# s[mm] rx[mm] ry[mm] rz[mm] bx[T] by[T] bz[T]
0.0000000000000000e+00 +8.3650000000000002e+00 +0.0000000000000000e+00 +0.0000000000000000e+00 -2.7952260172044611e-02 -5.2483844459996964e-01 +6.0193820486974456e-03
5.0000000000000003e-02 +8.3649999309798346e+00 +0.0000000000000000e+00 +4.9999999999936477e-02 -2.7950666318795506e-02 -5.2483857055954120e-01 +6.0176480364165534e-03
1.0000000000000001e-01 +8.3649997239193006e+00 +0.0000000000000000e+00 +9.9999999999491856e-02 -2.7949093519007186e-02 -5.2483905615149817e-01 +6.0159057427149124e-03
1.5000000000000002e-01 +8.3649993788182719e+00 +0.0000000000000000e+00 +1.4999999999828503e-01 -2.7947541887557902e-02 -5.2483990070586861e-01 +6.0141553334404829e-03
2.0000000000000001e-01 +8.3649988956765249e+00 +0.0000000000000000e+00 +1.9999999999593487e-01 -2.7946011539326462e-02 -5.2484110355269598e-01 +6.0123969744407613e-03
2.5000000000000000e-01 +8.3649982744937432e+00 +0.0000000000000000e+00 +2.4999999999206032e-01 -2.7944502589192278e-02 -5.2484266402204083e-01 +6.0106308315628233e-03
2.9999999999999999e-01 +8.3649975152695166e+00 +0.0000000000000000e+00 +2.9999999998628024e-01 -2.7943015152035434e-02 -5.2484458144398050e-01 +6.0088570706533229e-03
3.4999999999999998e-01 +8.3649966180033424e+00 +0.0000000000000000e+00 +3.4999999997821352e-01 -2.7941549342736766e-02 -5.2484685514860741e-01 +6.0070758575585317e-03
3.9999999999999997e-01 +8.3649955826946201e+00 +0.0000000000000000e+00 +3.9999999996747898e-01 -2.7940105276177955e-02 -5.2484948446603130e-01 +6.0052873581243407e-03
4.4999999999999996e-01 +8.3649944093426605e+00 +0.0000000000000000e+00 +4.4999999995369555e-01 -2.7938683067241673e-02 -5.2485246872637770e-01 +6.0034917381963145e-03
4.9999999999999994e-01 +8.3649930979466767e+00 +0.0000000000000000e+00 +4.9999999993648209e-01 -2.7937282830811507e-02 -5.2485580725978853e-01 +6.0016891636196761e-03
5.4999999999999993e-01 +8.3649916485057911e+00 +0.0000000000000000e+00 +5.4999999991545745e-01 -2.7935904681772244e-02 -5.2485949939642196e-01 +5.9998798002393562e-03
5.9999999999999998e-01 +8.3649900610190340e+00 +0.0000000000000000e+00 +5.9999999989024044e-01 -2.7934548735009744e-02 -5.2486354446645211e-01 +5.9980638138999965e-03
6.5000000000000002e-01 +8.3649883354853394e+00 +0.0000000000000000e+00 +6.4999999986044987e-01 -2.7933215105411194e-02 -5.2486794180006857e-01 +5.9962413704459823e-03
7.0000000000000007e-01 +8.3649864719035527e+00 +0.0000000000000000e+00 +6.9999999982570460e-01 -2.7931903907865100e-02 -5.2487269072747833e-01 +5.9944126357214696e-03
7.5000000000000011e-01 +8.3649844702724234e+00 +0.0000000000000000e+00 +7.4999999978562348e-01 -2.7930615257261402e-02 -5.2487779057890294e-01 +5.9925777755703864e-03
8.0000000000000016e-01 +8.3649823305906121e+00 +0.0000000000000000e+00 +7.9999999973982516e-01 -2.7929349268491516e-02 -5.2488324068458103e-01 +5.9907369558364724e-03
8.5000000000000020e-01 +8.3649800528566836e+00 +0.0000000000000000e+00 +8.4999999968792861e-01 -2.7928106056448500e-02 -5.2488904037476647e-01 +5.9888903423633011e-03
9.0000000000000024e-01 +8.3649776370691136e+00 +0.0000000000000000e+00 +8.9999999962955246e-01 -2.7926885736027016e-02 -5.2489518897972909e-01 +5.9870381009942842e-03
9.5000000000000029e-01 +8.3649750832262839e+00 +0.0000000000000000e+00 +9.4999999956431547e-01 -2.7925688422123521e-02 -5.2490168582975505e-01 +5.9851803975727157e-03
1.0000000000000002e+00 +8.3649723913264857e+00 +0.0000000000000000e+00 +9.9999999949183638e-01 -2.7924514229636301e-02 -5.2490853025514528e-01 +5.9833173979417734e-03
1.0500000000000003e+00 +8.3649695613679196e+00 +0.0000000000000000e+00 +1.0499999994117339e+00 -2.7923363273465542e-02 -5.2491572158621724e-01 +5.9814492679445622e-03
1.1000000000000003e+00 +8.3649665933486936e+00 +0.0000000000000000e+00 +1.0999999993236267e+00 -2.7922235668513443e-02 -5.2492325915330396e-01 +5.9795761734241113e-03
1.1500000000000004e+00 +8.3649634872668273e+00 +0.0000000000000000e+00 +1.1499999992271333e+00 -2.7921131529684277e-02 -5.2493114228675386e-01 +5.9776982802234200e-03
1.2000000000000004e+00 +8.3649602431202457e+00 +0.0000000000000000e+00 +1.1999999991218726e+00 -2.7920050971884505e-02 -5.2493937031693139e-01 +5.9758157541854586e-03
1.2500000000000004e+00 +8.3649568609067835e+00 +0.0000000000000000e+00 +1.2499999990074631e+00 -2.7918994110022771e-02 -5.2494794257421595e-01 +5.9739287611532046e-03
1.3000000000000005e+00 +8.3649533406241883e+00 +0.0000000000000000e+00 +1.2999999988835234e+00 -2.7917961059010111e-02 -5.2495685838900263e-01 +5.9720374669696577e-03
1.3500000000000005e+00 +8.3649496822701135e+00 +0.0000000000000000e+00 +1.3499999987496720e+00 -2.7916951933759974e-02 -5.2496611709170271e-01 +5.9701420374778710e-03
1.4000000000000006e+00 +8.3649458858421255e+00 +0.0000000000000000e+00 +1.3999999986055276e+00 -2.7915966849188237e-02 -5.2497571801274212e-01 +5.9682426385209517e-03
1.4500000000000006e+00 +8.3649419513376984e+00 +0.0000000000000000e+00 +1.4499999984507084e+00 -2.7915005920213398e-02 -5.2498566048256257e-01 +5.9663394359421081e-03
1.5000000000000007e+00 +8.3649378787542172e+00 +0.0000000000000000e+00 +1.4999999982848331e+00 -2.7914069261756606e-02 -5.2499594383162063e-01 +5.9644325955846541e-03
1.5500000000000007e+00 +8.3649336680889768e+00 +0.0000000000000000e+00 +1.5499999981075203e+00 -2.7913156988741757e-02 -5.2500656739038909e-01 +5.9625222832920387e-03
1.6000000000000008e+00 +8.3649293193391845e+00 +0.0000000000000000e+00 +1.5999999979183881e+00 -2.7912269216095544e-02 -5.2501753048935484e-01 +5.9606086649078641e-03
1.6500000000000008e+00 +8.3649248325019556e+00 +0.0000000000000000e+00 +1.6499999977170552e+00 -2.7911406058747579e-02 -5.2502883245902121e-01 +5.9586919062759166e-03
1.7000000000000008e+00 +8.3649202075743183e+00 +0.0000000000000000e+00 +1.6999999975031397e+00 -2.7910567631630474e-02 -5.2504047262990572e-01 +5.9567721732401652e-03
1.7500000000000009e+00 +8.3649154445532101e+00 +0.0000000000000000e+00 +1.7499999972762601e+00 -2.7909754049679884e-02 -5.2505245033254166e-01 +5.9548496316448180e-03
1.8000000000000009e+00 +8.3649105434354816e+00 +0.0000000000000000e+00 +1.7999999970360347e+00 -2.7908965427834609e-02 -5.2506476489747722e-01 +5.9529244473343094e-03
1.8500000000000010e+00 +8.3649055042178926e+00 +0.0000000000000000e+00 +1.8499999967820817e+00 -2.7908201881036720e-02 -5.2507741565527555e-01 +5.9509967861533465e-03
1.9000000000000010e+00 +8.3649003268971178e+00 +0.0000000000000000e+00 +1.8999999965140193e+00 -2.7907463524231582e-02 -5.2509040193651491e-01 +5.9490668139469231e-03
1.9500000000000011e+00 +8.3648950114697413e+00 +0.0000000000000000e+00 +1.9499999962314658e+00 -2.7906750472367934e-02 -5.2510372307178832e-01 +5.9471346965603283e-03
2.0000000000000009e+00 +8.3648895579322584e+00 +0.0000000000000000e+00 +1.9999999959340391e+00 -2.7906062840398021e-02 -5.2511737839170403e-01 +5.9452005998391986e-03
2.0500000000000007e+00 +8.3648839662810790e+00 +0.0000000000000000e+00 +2.0499999956213575e+00 -2.7905400699969808e-02 -5.2513136700183494e-01 +5.9432646886079400e-03
2.1000000000000005e+00 +8.3648782365125225e+00 +0.0000000000000000e+00 +2.0999999952930390e+00 -2.7904763949502233e-02 -5.2514568710756637e-01 +5.9413271236049862e-03
2.1500000000000004e+00 +8.3648723686228230e+00 +0.0000000000000000e+00 +2.1499999949487019e+00 -2.7904152444107089e-02 -5.2516033668924500e-01 +5.9393880645473886e-03
2.2000000000000002e+00 +8.3648663626081277e+00 +0.0000000000000000e+00 +2.1999999945879640e+00 -2.7903566038896467e-02 -5.2517531372722870e-01 +5.9374476711523882e-03
2.2500000000000000e+00 +8.3648602184644982e+00 +0.0000000000000000e+00 +2.2499999942104432e+00 -2.7903004588982653e-02 -5.2519061620188656e-01 +5.9355061031374119e-03
2.2999999999999998e+00 +8.3648539361879095e+00 +0.0000000000000000e+00 +2.2999999938157574e+00 -2.7902467949478052e-02 -5.2520624209359934e-01 +5.9335635202200886e-03
2.3499999999999996e+00 +8.3648475157742510e+00 +0.0000000000000000e+00 +2.3499999934035243e+00 -2.7901955975495028e-02 -5.2522218938275755e-01 +5.9316200821182604e-03
2.3999999999999995e+00 +8.3648409572193287e+00 +0.0000000000000000e+00 +2.3999999929733620e+00 -2.7901468522145850e-02 -5.2523845604976249e-01 +5.9296759485499735e-03
2.4499999999999993e+00 +8.3648342605188652e+00 +0.0000000000000000e+00 +2.4499999925248881e+00 -2.7901005444542496e-02 -5.2525504007502577e-01 +5.9277312792335160e-03
2.4999999999999991e+00 +8.3648274256684978e+00 +0.0000000000000000e+00 +2.4999999920577203e+00 -2.7900566597796626e-02 -5.2527193943896910e-01 +5.9257862338874005e-03
2.5499999999999989e+00 +8.3648204526637819e+00 +0.0000000000000000e+00 +2.5499999915714766e+00 -2.7900151837019431e-02 -5.2528915212202343e-01 +5.9238409722303905e-03
2.5999999999999988e+00 +8.3648133415001915e+00 +0.0000000000000000e+00 +2.5999999910657743e+00 -2.7899761017321518e-02 -5.2530667610462989e-01 +5.9218956539814982e-03
2.6499999999999986e+00 +8.3648060921731169e+00 +0.0000000000000000e+00 +2.6499999905402309e+00 -2.7899393993812818e-02 -5.2532450936723885e-01 +5.9199504388599989e-03
2.6999999999999984e+00 +8.3647987046778667e+00 +0.0000000000000000e+00 +2.6999999899944642e+00 -2.7899050621602455e-02 -5.2534264989030921e-01 +5.9180054865854382e-03
2.7499999999999982e+00 +8.3647911790096714e+00 +0.0000000000000000e+00 +2.7499999894280913e+00 -2.7898730755798625e-02 -5.2536109565430922e-01 +5.9160609568776369e-03
2.7999999999999980e+00 +8.3647835151636780e+00 +0.0000000000000000e+00 +2.7999999888407299e+00 -2.7898434251508526e-02 -5.2537984463971543e-01 +5.9141170094567114e-03
2.8499999999999979e+00 +8.3647757131349572e+00 +0.0000000000000000e+00 +2.8499999882319975e+00 -2.7898160963838202e-02 -5.2539889482701319e-01 +5.9121738040430654e-03
2.8999999999999977e+00 +8.3647677729184977e+00 +0.0000000000000000e+00 +2.8999999876015110e+00 -2.7897910747892461e-02 -5.2541824419669525e-01 +5.9102315003574171e-03
2.9499999999999975e+00 +8.3647596945092104e+00 +0.0000000000000000e+00 +2.9499999869488880e+00 -2.7897683458774750e-02 -5.2543789072926317e-01 +5.9082902581207930e-03
2.9999999999999973e+00 +8.3647514779019279e+00 +0.0000000000000000e+00 +2.9999999862737456e+00 -2.7897478951587062e-02 -5.2545783240522592e-01 +5.9063502370545438e-03
3.0499999999999972e+00 +8.3647431230914062e+00 +0.0000000000000000e+00 +3.0499999855757012e+00 -2.7897297081429750e-02 -5.2547806720509915e-01 +5.9044115968803516e-03
3.0999999999999970e+00 +8.3647346300723218e+00 +0.0000000000000000e+00 +3.0999999848543713e+00 -2.7897137703401530e-02 -5.2549859310940672e-01 +5.9024744973202392e-03
3.1499999999999968e+00 +8.3647259988392779e+00 +0.0000000000000000e+00 +3.1499999841093738e+00 -2.7897000672599280e-02 -5.2551940809867903e-01 +5.9005390980965801e-03
3.1999999999999966e+00 +8.3647172293867982e+00 +0.0000000000000000e+00 +3.1999999833403248e+00 -2.7896885844117994e-02 -5.2554051015345316e-01 +5.8986055589321049e-03
3.2499999999999964e+00 +8.3647083217093332e+00 +0.0000000000000000e+00 +3.2499999825468415e+00 -2.7896793073050586e-02 -5.2556189725427327e-01 +5.8966740395499113e-03
3.2999999999999963e+00 +8.3646992758012590e+00 +0.0000000000000000e+00 +3.2999999817285413e+00 -2.7896722214487860e-02 -5.2558356738168899e-01 +5.8947446996734671e-03
3.3499999999999961e+00 +8.3646900916568754e+00 +0.0000000000000000e+00 +3.3499999808850403e+00 -2.7896673123518366e-02 -5.2560551851625692e-01 +5.8928176990266411e-03
3.3999999999999959e+00 +8.3646807692704090e+00 +0.0000000000000000e+00 +3.3999999800159553e+00 -2.7896645655228279e-02 -5.2562774863853845e-01 +5.8908931973336706e-03
3.4499999999999957e+00 +8.3646713086360140e+00 +0.0000000000000000e+00 +3.4499999791209035e+00 -2.7896639664701278e-02 -5.2565025572910140e-01 +5.8889713543192152e-03
3.4999999999999956e+00 +8.3646617097477698e+00 +0.0000000000000000e+00 +3.4999999781995008e+00 -2.7896655007018496e-02 -5.2567303776851859e-01 +5.8870523297083355e-03
3.5499999999999954e+00 +8.3646519725996846e+00 +0.0000000000000000e+00 +3.5499999772513644e+00 -2.7896691537258322e-02 -5.2569609273736795e-01 +5.8851362832265143e-03
3.5999999999999952e+00 +8.3646420971856941e+00 +0.0000000000000000e+00 +3.5999999762761106e+00 -2.7896749110496347e-02 -5.2571941861623284e-01 +5.8832233745996672e-03
3.6499999999999950e+00 +8.3646320834996644e+00 +0.0000000000000000e+00 +3.6499999752733556e+00 -2.7896827581805238e-02 -5.2574301338570029e-01 +5.8813137635541348e-03
3.6999999999999948e+00 +8.3646219315353889e+00 +0.0000000000000000e+00 +3.6999999742427159e+00 -2.7896926806254625e-02 -5.2576687502636277e-01 +5.8794076098167168e-03
3.7499999999999947e+00 +8.3646116412865936e+00 +0.0000000000000000e+00 +3.7499999731838076e+00 -2.7897046638910981e-02 -5.2579100151881630e-01 +5.8775050731146557e-03
3.7999999999999945e+00 +8.3646012127469316e+00 +0.0000000000000000e+00 +3.7999999720962472e+00 -2.7897186934837514e-02 -5.2581539084366102e-01 +5.8756063131756714e-03
3.8499999999999943e+00 +8.3645906459099884e+00 +0.0000000000000000e+00 +3.8499999709796509e+00 -2.7897347549094075e-02 -5.2584004098150128e-01 +5.8737114897279416e-03
3.8999999999999941e+00 +8.3645799407692802e+00 +0.0000000000000000e+00 +3.8999999698336345e+00 -2.7897528336737008e-02 -5.2586494991294430e-01 +5.8718207625001349e-03
3.9499999999999940e+00 +8.3645690973182560e+00 +0.0000000000000000e+00 +3.9499999686578144e+00 -2.7897729152819076e-02 -5.2589011561860100e-01 +5.8699342912214075e-03
3.9999999999999938e+00 +8.3645581155502970e+00 +0.0000000000000000e+00 +3.9999999674518061e+00 -2.7897949852389310e-02 -5.2591553607908470e-01 +5.8680522356214090e-03
4.0499999999999936e+00 +8.3645469954587188e+00 +0.0000000000000000e+00 +4.0499999662152257e+00 -2.7898190273404809e-02 -5.2594120915359510e-01 +5.8661747374673008e-03
4.0999999999999934e+00 +8.3645357370367677e+00 +0.0000000000000000e+00 +4.0999999649476893e+00 -2.7898450185467723e-02 -5.2596713221566205e-01 +5.8643018666745894e-03
4.1499999999999932e+00 +8.3645243402776259e+00 +0.0000000000000000e+00 +4.1499999636488125e+00 -2.7898729341092790e-02 -5.2599330251739851e-01 +5.8624336751961709e-03
4.1999999999999931e+00 +8.3645128051744102e+00 +0.0000000000000000e+00 +4.1999999623182109e+00 -2.7899027492795919e-02 -5.2601971731091879e-01 +5.8605702149854182e-03
4.2499999999999929e+00 +8.3645011317201732e+00 +0.0000000000000000e+00 +4.2499999609554999e+00 -2.7899344393094303e-02 -5.2604637384833797e-01 +5.8587115379961684e-03
4.2999999999999927e+00 +8.3644893199079053e+00 +0.0000000000000000e+00 +4.2999999595602949e+00 -2.7899679794506430e-02 -5.2607326938177068e-01 +5.8568576961827452e-03
4.3499999999999925e+00 +8.3644773697305315e+00 +0.0000000000000000e+00 +4.3499999581322113e+00 -2.7900033449552150e-02 -5.2610040116333323e-01 +5.8550087414999657e-03
4.3999999999999924e+00 +8.3644652811809159e+00 +0.0000000000000000e+00 +4.3999999566708654e+00 -2.7900405110752691e-02 -5.2612776644513992e-01 +5.8531647259031372e-03
4.4499999999999922e+00 +8.3644530542518609e+00 +0.0000000000000000e+00 +4.4499999551758718e+00 -2.7900794530630737e-02 -5.2615536247930661e-01 +5.8513257013480674e-03
4.4999999999999920e+00 +8.3644406889361100e+00 +0.0000000000000000e+00 +4.4999999536468458e+00 -2.7901201461710483e-02 -5.2618318651794693e-01 +5.8494917197910836e-03
4.5499999999999918e+00 +8.3644281852263429e+00 +0.0000000000000000e+00 +4.5499999520834020e+00 -2.7901625656517621e-02 -5.2621123581317408e-01 +5.8476628331890108e-03
4.5999999999999917e+00 +8.3644155431151841e+00 +0.0000000000000000e+00 +4.5999999504851559e+00 -2.7902066867579466e-02 -5.2623950761710081e-01 +5.8458390934992216e-03
4.6499999999999915e+00 +8.3644027625951978e+00 +0.0000000000000000e+00 +4.6499999488517227e+00 -2.7902524847424923e-02 -5.2626799918183720e-01 +5.8440205526795993e-03
4.6999999999999913e+00 +8.3643898436588895e+00 +0.0000000000000000e+00 +4.6999999471827172e+00 -2.7902999348584607e-02 -5.2629670775949211e-01 +5.8422072626885656e-03
4.7499999999999911e+00 +8.3643767862987097e+00 +0.0000000000000000e+00 +4.7499999454777546e+00 -2.7903490123590818e-02 -5.2632563060217252e-01 +5.8403992754850935e-03
4.7999999999999909e+00 +8.3643635905070504e+00 +0.0000000000000000e+00 +4.7999999437364496e+00 -2.7903996924977671e-02 -5.2635476496198319e-01 +5.8385966430287099e-03
4.8499999999999908e+00 +8.3643502562762500e+00 +0.0000000000000000e+00 +4.8499999419584165e+00 -2.7904519505281025e-02 -5.2638410809102598e-01 +5.8367994172794846e-03
4.8999999999999906e+00 +8.3643367835985902e+00 +0.0000000000000000e+00 +4.8999999401432701e+00 -2.7905057617038688e-02 -5.2641365724140043e-01 +5.8350076501980618e-03
4.9499999999999904e+00 +8.3643231724662996e+00 +0.0000000000000000e+00 +4.9499999382906248e+00 -2.7905611012790286e-02 -5.2644340966520242e-01 +5.8332213937456563e-03
4.9999999999999902e+00 +8.3643094228715533e+00 +0.0000000000000000e+00 +4.9999999364000951e+00 -2.7906179445077464e-02 -5.2647336261452504e-01 +5.8314406998840598e-03
5.0499999999999901e+00 +8.3642955348064731e+00 +0.0000000000000000e+00 +5.0499999344712956e+00 -2.7906762666443818e-02 -5.2650351334145740e-01 +5.8296656205756468e-03
5.0999999999999899e+00 +8.3642815082631294e+00 +0.0000000000000000e+00 +5.0999999325038408e+00 -2.7907360429435021e-02 -5.2653385909808481e-01 +5.8278962077833894e-03
5.1499999999999897e+00 +8.3642673432335393e+00 +0.0000000000000000e+00 +5.1499999304973443e+00 -2.7907972486598820e-02 -5.2656439713648862e-01 +5.8261325134708504e-03
5.1999999999999895e+00 +8.3642530397096735e+00 +0.0000000000000000e+00 +5.1999999284514207e+00 -2.7908598590485112e-02 -5.2659512470874559e-01 +5.8243745896022093e-03
5.2499999999999893e+00 +8.3642385976834497e+00 +0.0000000000000000e+00 +5.2499999263656836e+00 -2.7909238493645960e-02 -5.2662603906692784e-01 +5.8226224881422492e-03
5.2999999999999892e+00 +8.3642240171467357e+00 +0.0000000000000000e+00 +5.2999999242397466e+00 -2.7909891948635662e-02 -5.2665713746310217e-01 +5.8208762610563736e-03
5.3499999999999890e+00 +8.3642092980913532e+00 +0.0000000000000000e+00 +5.3499999220732244e+00 -2.7910558708010794e-02 -5.2668841714933112e-01 +5.8191359603106162e-03
5.3999999999999888e+00 +8.3641944405090758e+00 +0.0000000000000000e+00 +5.3999999198657305e+00 -2.7911238524330265e-02 -5.2671987537767062e-01 +5.8174016378716442e-03
5.4499999999999886e+00 +8.3641794443916293e+00 +0.0000000000000000e+00 +5.4499999176168794e+00 -2.7911931150155340e-02 -5.2675150940017157e-01 +5.8156733457067596e-03
5.4999999999999885e+00 +8.3641643097306932e+00 +0.0000000000000000e+00 +5.4999999153262840e+00 -2.7912636338049700e-02 -5.2678331646887866e-01 +5.8139511357839192e-03
5.5499999999999883e+00 +8.3641490365179028e+00 +0.0000000000000000e+00 +5.5499999129935578e+00 -2.7913353840579472e-02 -5.2681529383583026e-01 +5.8122350600717269e-03
5.5999999999999881e+00 +8.3641336247448468e+00 +0.0000000000000000e+00 +5.5999999106183145e+00 -2.7914083410313331e-02 -5.2684743875305817e-01 +5.8105251705394536e-03
5.6499999999999879e+00 +8.3641180744030716e+00 +0.0000000000000000e+00 +5.6499999082001668e+00 -2.7914824799822463e-02 -5.2687974847258712e-01 +5.8088215191570373e-03
5.6999999999999877e+00 +8.3641023854840792e+00 +0.0000000000000000e+00 +5.6999999057387294e+00 -2.7915577761680691e-02 -5.2691222024643536e-01 +5.8071241578950853e-03
5.7499999999999876e+00 +8.3640865579793289e+00 +0.0000000000000000e+00 +5.7499999032336140e+00 -2.7916342048464434e-02 -5.2694485132661306e-01 +5.8054331387248940e-03
5.7999999999999874e+00 +8.3640705918802389e+00 +0.0000000000000000e+00 +5.7999999006844352e+00 -2.7917117412752858e-02 -5.2697763896512340e-01 +5.8037485136184412e-03
5.8499999999999872e+00 +8.3640544871781852e+00 +0.0000000000000000e+00 +5.8499998980908048e+00 -2.7917903607127842e-02 -5.2701058041396120e-01 +5.8020703345484101e-03
5.8999999999999870e+00 +8.3640382438645045e+00 +0.0000000000000000e+00 +5.8999998954523365e+00 -2.7918700384174031e-02 -5.2704367292511289e-01 +5.8003986534881785e-03
