# field on trajectory
# s[mm] rx[mm] ry[mm] rz[mm] bx[T] by[T] bz[T]
0.0000000000000000e+00 +8.2850000000000001e+00 +0.0000000000000000e+00 +0.0000000000000000e+00 -2.9114835540462992e-02 -5.5368306159374936e-01 +5.3029331206726413e-03
-5.0000000000000003e-02 +8.2849999308430267e+00 +0.0000000000000000e+00 -4.9999999999936227e-02 -2.9114434514693737e-02 -5.5368162331998638e-01 +5.3005666392728868e-03
-1.0000000000000001e-01 +8.2849997233723318e+00 +0.0000000000000000e+00 -9.9999999999489844e-02 -2.9114046941917278e-02 -5.5368054790279564e-01 +5.2982087431306434e-03
-1.5000000000000002e-01 +8.2849993775881838e+00 +0.0000000000000000e+00 -1.4999999999827823e-01 -2.9113672783725598e-02 -5.5367983487528549e-01 +5.2958595661152406e-03
-2.0000000000000001e-01 +8.2849988934907621e+00 +0.0000000000000000e+00 -1.9999999999591880e-01 -2.9113312001710918e-02 -5.5367948377058196e-01 +5.2935192420964436e-03
-2.5000000000000000e-01 +8.2849982710801537e+00 +0.0000000000000000e+00 -2.4999999999202893e-01 -2.9112964557465718e-02 -5.5367949412182837e-01 +5.2911879049444806e-03
-2.9999999999999999e-01 +8.2849975103563551e+00 +0.0000000000000000e+00 -2.9999999998622601e-01 -2.9112630412582764e-02 -5.5367986546218573e-01 +5.2888656885300492e-03
-3.4999999999999998e-01 +8.2849966113192739e+00 +0.0000000000000000e+00 -3.4999999997812742e-01 -2.9112309528655077e-02 -5.5368059732483133e-01 +5.2865527267243299e-03
-3.9999999999999997e-01 +8.2849955739687289e+00 +0.0000000000000000e+00 -3.9999999996735053e-01 -2.9112001867275927e-02 -5.5368168924296035e-01 +5.2842491533990040e-03
-4.4999999999999996e-01 +8.2849943983044447e+00 +0.0000000000000000e+00 -4.4999999995351275e-01 -2.9111707390038884e-02 -5.5368314074978475e-01 +5.2819551024262668e-03
-4.9999999999999994e-01 +8.2849930843260609e+00 +0.0000000000000000e+00 -4.9999999993623140e-01 -2.9111426058537778e-02 -5.5368495137853291e-01 +5.2796707076788376e-03
-5.4999999999999993e-01 +8.2849916320331243e+00 +0.0000000000000000e+00 -5.4999999991512394e-01 -2.9111157834366744e-02 -5.5368712066245118e-01 +5.2773961030299832e-03
-5.9999999999999998e-01 +8.2849900414250932e+00 +0.0000000000000000e+00 -5.9999999988980768e-01 -2.9110902679120136e-02 -5.5368964813480093e-01 +5.2751314223535165e-03
-6.5000000000000002e-01 +8.2849883125013353e+00 +0.0000000000000000e+00 -6.4999999985989998e-01 -2.9110660554392657e-02 -5.5369253332886192e-01 +5.2728767995238283e-03
-7.0000000000000007e-01 +8.2849864452611310e+00 +0.0000000000000000e+00 -6.9999999982501815e-01 -2.9110431421779236e-02 -5.5369577577792983e-01 +5.2706323684158854e-03
-7.5000000000000011e-01 +8.2849844397036705e+00 +0.0000000000000000e+00 -7.4999999978477960e-01 -2.9110215242875142e-02 -5.5369937501531608e-01 +5.2683982629052615e-03
-8.0000000000000016e-01 +8.2849822958280548e+00 +0.0000000000000000e+00 -7.9999999973880165e-01 -2.9110011979275909e-02 -5.5370333057434962e-01 +5.2661746168681349e-03
-8.5000000000000020e-01 +8.2849800136332945e+00 +0.0000000000000000e+00 -8.4999999968670159e-01 -2.9109821592577332e-02 -5.5370764198837508e-01 +5.2639615641813077e-03
-9.0000000000000024e-01 +8.2849775931183132e+00 +0.0000000000000000e+00 -8.9999999962809674e-01 -2.9109644044375587e-02 -5.5371230879075417e-01 +5.2617592387222368e-03
-9.5000000000000029e-01 +8.2849750342819455e+00 +0.0000000000000000e+00 -9.4999999956260439e-01 -2.9109479296267039e-02 -5.5371733051486327e-01 +5.2595677743690131e-03
-1.0000000000000002e+00 +8.2849723371229373e+00 +0.0000000000000000e+00 -9.9999999948984175e-01 -2.9109327309848450e-02 -5.5372270669409585e-01 +5.2573873050004065e-03
-1.0500000000000003e+00 +8.2849695016399458e+00 +0.0000000000000000e+00 -1.0499999994094262e+00 -2.9109188046716823e-02 -5.5372843686186146e-01 +5.2552179644958716e-03
-1.1000000000000003e+00 +8.2849665278315374e+00 +0.0000000000000000e+00 -1.0999999993209748e+00 -2.9109061468469487e-02 -5.5373452055158545e-01 +5.2530598867355557e-03
-1.1500000000000004e+00 +8.2849634156961951e+00 +0.0000000000000000e+00 -1.1499999992241050e+00 -2.9108947536704101e-02 -5.5374095729670847e-01 +5.2509132056003105e-03
-1.2000000000000004e+00 +8.2849601652323095e+00 +0.0000000000000000e+00 -1.1999999991184338e+00 -2.9108846213018586e-02 -5.5374774663068749e-01 +5.2487780549717224e-03
-1.2500000000000004e+00 +8.2849567764381842e+00 +0.0000000000000000e+00 -1.2499999990035786e+00 -2.9108757459011217e-02 -5.5375488808699525e-01 +5.2466545687321134e-03
-1.3000000000000005e+00 +8.2849532493120357e+00 +0.0000000000000000e+00 -1.2999999988791564e+00 -2.9108681236280572e-02 -5.5376238119911936e-01 +5.2445428807645555e-03
-1.3500000000000005e+00 +8.2849495838519935e+00 +0.0000000000000000e+00 -1.3499999987447844e+00 -2.9108617506425554e-02 -5.5377022550056354e-01 +5.2424431249528921e-03
-1.4000000000000006e+00 +8.2849457800560966e+00 +0.0000000000000000e+00 -1.3999999986000797e+00 -2.9108566231045359e-02 -5.5377842052484605e-01 +5.2403554351817400e-03
-1.4500000000000006e+00 +8.2849418379222985e+00 +0.0000000000000000e+00 -1.4499999984446597e+00 -2.9108527371739558e-02 -5.5378696580550246e-01 +5.2382799453365245e-03
-1.5000000000000007e+00 +8.2849377574484642e+00 +0.0000000000000000e+00 -1.4999999982781411e+00 -2.9108500890108007e-02 -5.5379586087608124e-01 +5.2362167893034665e-03
-1.5500000000000007e+00 +8.2849335386323713e+00 +0.0000000000000000e+00 -1.5499999981001411e+00 -2.9108486747750906e-02 -5.5380510527014737e-01 +5.2341661009696156e-03
-1.6000000000000008e+00 +8.2849291814717123e+00 +0.0000000000000000e+00 -1.5999999979102766e+00 -2.9108484906268783e-02 -5.5381469852128062e-01 +5.2321280142228581e-03
-1.6500000000000008e+00 +8.2849246859640893e+00 +0.0000000000000000e+00 -1.6499999977081647e+00 -2.9108495327262490e-02 -5.5382464016307564e-01 +5.2301026629519402e-03
-1.7000000000000008e+00 +8.2849200521070188e+00 +0.0000000000000000e+00 -1.6999999974934226e+00 -2.9108517972333273e-02 -5.5383492972914239e-01 +5.2280901810464603e-03
-1.7500000000000009e+00 +8.2849152798979304e+00 +0.0000000000000000e+00 -1.7499999972656668e+00 -2.9108552803082631e-02 -5.5384556675310481e-01 +5.2260907023969046e-03
-1.8000000000000009e+00 +8.2849103693341668e+00 +0.0000000000000000e+00 -1.7999999970245144e+00 -2.9108599781112462e-02 -5.5385655076860274e-01 +5.2241043608946556e-03
-1.8500000000000010e+00 +8.2849053204129852e+00 +0.0000000000000000e+00 -1.8499999967695824e+00 -2.9108658868025009e-02 -5.5386788130928932e-01 +5.2221312904319958e-03
-1.9000000000000010e+00 +8.2849001331315542e+00 +0.0000000000000000e+00 -1.8999999965004875e+00 -2.9108730025422826e-02 -5.5387955790883370e-01 +5.2201716249021379e-03
-1.9500000000000011e+00 +8.2848948074869568e+00 +0.0000000000000000e+00 -1.9499999962168466e+00 -2.9108813214908859e-02 -5.5389158010091866e-01 +5.2182254981992301e-03
-2.0000000000000009e+00 +8.2848893434761912e+00 +0.0000000000000000e+00 -1.9999999959182766e+00 -2.9108908398086396e-02 -5.5390394741924165e-01 +5.2162930442183663e-03
-2.0500000000000007e+00 +8.2848837410961682e+00 +0.0000000000000000e+00 -2.0499999956043942e+00 -2.9109015552252690e-02 -5.5391665916829802e-01 +5.2143743874064272e-03
-2.1000000000000005e+00 +8.2848780003437099e+00 +0.0000000000000000e+00 -2.0999999952748158e+00 -2.9109134717480264e-02 -5.5392971373573396e-01 +5.2124696144144854e-03
-2.1500000000000004e+00 +8.2848721212155567e+00 +0.0000000000000000e+00 -2.1499999949291584e+00 -2.9109265949536261e-02 -5.5394310927999024e-01 +5.2105788024452079e-03
-2.2000000000000002e+00 +8.2848661037083637e+00 +0.0000000000000000e+00 -2.1999999945670385e+00 -2.9109409304188955e-02 -5.5395684395952183e-01 +5.2087020287020511e-03
-2.2500000000000000e+00 +8.2848599478186973e+00 +0.0000000000000000e+00 -2.2499999941880726e+00 -2.9109564837207773e-02 -5.5397091593279413e-01 +5.2068393703892319e-03
-2.2999999999999998e+00 +8.2848536535430437e+00 +0.0000000000000000e+00 -2.2999999937918778e+00 -2.9109732604363368e-02 -5.5398532335828510e-01 +5.2049909047117504e-03
-2.3499999999999996e+00 +8.2848472208778041e+00 +0.0000000000000000e+00 -2.3499999933780700e+00 -2.9109912661427612e-02 -5.5400006439448413e-01 +5.2031567088753807e-03
-2.3999999999999995e+00 +8.2848406498192961e+00 +0.0000000000000000e+00 -2.3999999929462659e+00 -2.9110105064173677e-02 -5.5401513719989226e-01 +5.2013368600866789e-03
-2.4499999999999993e+00 +8.2848339403637539e+00 +0.0000000000000000e+00 -2.4499999924960818e+00 -2.9110309868376094e-02 -5.5403053993302165e-01 +5.1995314355529794e-03
-2.4999999999999991e+00 +8.2848270925073315e+00 +0.0000000000000000e+00 -2.4999999920271345e+00 -2.9110527129810736e-02 -5.5404627075239521e-01 +5.1977405124823961e-03
-2.5499999999999989e+00 +8.2848201062460980e+00 +0.0000000000000000e+00 -2.5499999915390399e+00 -2.9110756904254933e-02 -5.5406232781654707e-01 +5.1959641680838263e-03
-2.5999999999999988e+00 +8.2848129815760423e+00 +0.0000000000000000e+00 -2.5999999910314147e+00 -2.9110999247487480e-02 -5.5407870928402170e-01 +5.1942024795669497e-03
-2.6499999999999986e+00 +8.2848057184930717e+00 +0.0000000000000000e+00 -2.6499999905038751e+00 -2.9111254215288665e-02 -5.5409541331337464e-01 +5.1924555241422308e-03
-2.6999999999999984e+00 +8.2847983169930153e+00 +0.0000000000000000e+00 -2.6999999899560372e+00 -2.9111521863440369e-02 -5.5411243806317156e-01 +5.1907233790209201e-03
-2.7499999999999982e+00 +8.2847907770716187e+00 +0.0000000000000000e+00 -2.7499999893875171e+00 -2.9111802247726030e-02 -5.5412978169198723e-01 +5.1890061214150502e-03
-2.7999999999999980e+00 +8.2847830987245494e+00 +0.0000000000000000e+00 -2.7999999887979312e+00 -2.9112095423930780e-02 -5.5414744235840785e-01 +5.1873038285374486e-03
-2.8499999999999979e+00 +8.2847752819473968e+00 +0.0000000000000000e+00 -2.8499999881868954e+00 -2.9112401447841399e-02 -5.5416541822102827e-01 +5.1856165776017239e-03
-2.8999999999999977e+00 +8.2847673267356701e+00 +0.0000000000000000e+00 -2.8999999875540254e+00 -2.9112720375246426e-02 -5.5418370743845313e-01 +5.1839444458222838e-03
-2.9499999999999975e+00 +8.2847592330848006e+00 +0.0000000000000000e+00 -2.9499999868989377e+00 -2.9113052261936192e-02 -5.5420230816929672e-01 +5.1822875104143191e-03
-2.9999999999999973e+00 +8.2847510009901413e+00 +0.0000000000000000e+00 -2.9999999862212481e+00 -2.9113397163702825e-02 -5.5422121857218198e-01 +5.1806458485938222e-03
-3.0499999999999972e+00 +8.2847426304469689e+00 +0.0000000000000000e+00 -3.0499999855205724e+00 -2.9113755136340319e-02 -5.5424043680574164e-01 +5.1790195375775632e-03
-3.0999999999999970e+00 +8.2847341214504819e+00 +0.0000000000000000e+00 -3.0999999847965261e+00 -2.9114126235644619e-02 -5.5425996102861619e-01 +5.1774086545831261e-03
-3.1499999999999968e+00 +8.2847254739958043e+00 +0.0000000000000000e+00 -3.1499999840487254e+00 -2.9114510517413601e-02 -5.5427978939945521e-01 +5.1758132768288797e-03
-3.1999999999999966e+00 +8.2847166880779834e+00 +0.0000000000000000e+00 -3.1999999832767858e+00 -2.9114908037447117e-02 -5.5429992007691675e-01 +5.1742334815339909e-03
-3.2499999999999964e+00 +8.2847077636919888e+00 +0.0000000000000000e+00 -3.2499999824803232e+00 -2.9115318851547105e-02 -5.5432035121966672e-01 +5.1726693459184288e-03
-3.2999999999999963e+00 +8.2846987008327169e+00 +0.0000000000000000e+00 -3.2999999816589529e+00 -2.9115743015517583e-02 -5.5434108098637969e-01 +5.1711209472029597e-03
-3.3499999999999961e+00 +8.2846894994949896e+00 +0.0000000000000000e+00 -3.3499999808122909e+00 -2.9116180585164689e-02 -5.5436210753573711e-01 +5.1695883626091477e-03
-3.3999999999999959e+00 +8.2846801596735560e+00 +0.0000000000000000e+00 -3.3999999799399521e+00 -2.9116631616296757e-02 -5.5438342902642845e-01 +5.1680716693593655e-03
-3.4499999999999957e+00 +8.2846706813630888e+00 +0.0000000000000000e+00 -3.4499999790415523e+00 -2.9117096164724330e-02 -5.5440504361715126e-01 +5.1665709446767835e-03
-3.4999999999999956e+00 +8.2846610645581880e+00 +0.0000000000000000e+00 -3.4999999781167070e+00 -2.9117574286260221e-02 -5.5442694946660953e-01 +5.1650862657853782e-03
-3.5499999999999954e+00 +8.2846513092533822e+00 +0.0000000000000000e+00 -3.5499999771650312e+00 -2.9118066036719563e-02 -5.5444914473351437e-01 +5.1636177099099352e-03
-3.5999999999999952e+00 +8.2846414154431258e+00 +0.0000000000000000e+00 -3.5999999761861403e+00 -2.9118571471919829e-02 -5.5447162757658408e-01 +5.1621653542760345e-03
-3.6499999999999950e+00 +8.2846313831218037e+00 +0.0000000000000000e+00 -3.6499999751796497e+00 -2.9119090647680923e-02 -5.5449439615454399e-01 +5.1607292761100846e-03
-3.6999999999999948e+00 +8.2846212122837279e+00 +0.0000000000000000e+00 -3.6999999741451743e+00 -2.9119623619825154e-02 -5.5451744862612495e-01 +5.1593095526392815e-03
-3.7499999999999947e+00 +8.2846109029231396e+00 +0.0000000000000000e+00 -3.7499999730823292e+00 -2.9120170444177335e-02 -5.5454078315006472e-01 +5.1579062610916495e-03
-3.7999999999999945e+00 +8.2846004550342105e+00 +0.0000000000000000e+00 -3.7999999719907294e+00 -2.9120731176564826e-02 -5.5456439788510714e-01 +5.1565194786960065e-03
-3.8499999999999943e+00 +8.2845898686110413e+00 +0.0000000000000000e+00 -3.8499999708699897e+00 -2.9121305872817551e-02 -5.5458829099000184e-01 +5.1551492826820023e-03
-3.8999999999999941e+00 +8.2845791436476635e+00 +0.0000000000000000e+00 -3.8999999697197252e+00 -2.9121894588768071e-02 -5.5461246062350400e-01 +5.1537957502800890e-03
-3.9499999999999940e+00 +8.2845682801380391e+00 +0.0000000000000000e+00 -3.9499999685395508e+00 -2.9122497380251567e-02 -5.5463690494437468e-01 +5.1524589587215288e-03
-3.9999999999999938e+00 +8.2845572780760630e+00 +0.0000000000000000e+00 -3.9999999673290811e+00 -2.9123114303105997e-02 -5.5466162211138048e-01 +5.1511389852384173e-03
-4.0499999999999936e+00 +8.2845461374555587e+00 +0.0000000000000000e+00 -4.0499999660879311e+00 -2.9123745376078709e-02 -5.5468661012790343e-01 +5.1498358941686083e-03
-4.0999999999999934e+00 +8.2845348582702858e+00 +0.0000000000000000e+00 -4.0999999648157148e+00 -2.9124390469545215e-02 -5.5471186637577363e-01 +5.1485496982704385e-03
-4.1499999999999932e+00 +8.2845234405139347e+00 +0.0000000000000000e+00 -4.1499999635120473e+00 -2.9125049416787667e-02 -5.5473738808143414e-01 +5.1472803974077774e-03
-4.1999999999999931e+00 +8.2845118841801302e+00 +0.0000000000000000e+00 -4.1999999621765429e+00 -2.9125722051087960e-02 -5.5476317247133322e-01 +5.1460279914451144e-03
-4.2499999999999929e+00 +8.2845001892624310e+00 +0.0000000000000000e+00 -4.2499999608088155e+00 -2.9126408205727719e-02 -5.5478921677192106e-01 +5.1447924802475427e-03
-4.2999999999999927e+00 +8.2844883557543323e+00 +0.0000000000000000e+00 -4.2999999594084803e+00 -2.9127107713988267e-02 -5.5481551820965147e-01 +5.1435738636807548e-03
-4.3499999999999925e+00 +8.2844763836492632e+00 +0.0000000000000000e+00 -4.3499999579751512e+00 -2.9127820409150563e-02 -5.5484207401098096e-01 +5.1423721416110450e-03
-4.3999999999999924e+00 +8.2844642729405891e+00 +0.0000000000000000e+00 -4.3999999565084424e+00 -2.9128546124495138e-02 -5.5486888140236856e-01 +5.1411873139053021e-03
-4.4499999999999922e+00 +8.2844520236216148e+00 +0.0000000000000000e+00 -4.4499999550079679e+00 -2.9129284693302081e-02 -5.5489593761027645e-01 +5.1400193804309949e-03
-4.4999999999999920e+00 +8.2844396356855814e+00 +0.0000000000000000e+00 -4.4999999534733419e+00 -2.9130035948850955e-02 -5.5492323986116798e-01 +5.1388683410561837e-03
-4.5499999999999918e+00 +8.2844271091256676e+00 +0.0000000000000000e+00 -4.5499999519041792e+00 -2.9130799724420797e-02 -5.5495078538150933e-01 +5.1377341956494972e-03
-4.5999999999999917e+00 +8.2844144439349936e+00 +0.0000000000000000e+00 -4.5999999503000923e+00 -2.9131575853290015e-02 -5.5497857139776741e-01 +5.1366169440801484e-03
-4.6499999999999915e+00 +8.2844016401066192e+00 +0.0000000000000000e+00 -4.6499999486606960e+00 -2.9132364168736366e-02 -5.5500659513641148e-01 +5.1355165862179046e-03
-4.6999999999999913e+00 +8.2843886976335419e+00 +0.0000000000000000e+00 -4.6999999469856037e+00 -2.9133164504036944e-02 -5.5503485382391160e-01 +5.1344331219331050e-03
-4.7499999999999911e+00 +8.2843756165087044e+00 +0.0000000000000000e+00 -4.7499999452744293e+00 -2.9133976692468064e-02 -5.5506334468673957e-01 +5.1333665510966435e-03
-4.7999999999999909e+00 +8.2843623967249886e+00 +0.0000000000000000e+00 -4.7999999435267862e+00 -2.9134800567305285e-02 -5.5509206495136743e-01 +5.1323168735799710e-03
-4.8499999999999908e+00 +8.2843490382752201e+00 +0.0000000000000000e+00 -4.8499999417422881e+00 -2.9135635961823291e-02 -5.5512101184426754e-01 +5.1312840892550797e-03
-4.8999999999999906e+00 +8.2843355411521689e+00 +0.0000000000000000e+00 -4.8999999399205487e+00 -2.9136482709295915e-02 -5.5515018259191340e-01 +5.1302681979945126e-03
-4.9499999999999904e+00 +8.2843219053485466e+00 +0.0000000000000000e+00 -4.9499999380611817e+00 -2.9137340642996026e-02 -5.5517957442077881e-01 +5.1292691996713408e-03
-4.9999999999999902e+00 +8.2843081308570117e+00 +0.0000000000000000e+00 -4.9999999361637997e+00 -2.9138209596195546e-02 -5.5520918455733637e-01 +5.1282870941591766e-03
-5.0499999999999901e+00 +8.2842942176701690e+00 +0.0000000000000000e+00 -5.0499999342280155e+00 -2.9139089402165329e-02 -5.5523901022805955e-01 +5.1273218813321572e-03
-5.0999999999999899e+00 +8.2842801657805669e+00 +0.0000000000000000e+00 -5.0999999322534437e+00 -2.9139979894175189e-02 -5.5526904865942062e-01 +5.1263735610649437e-03
-5.1499999999999897e+00 +8.2842659751807002e+00 +0.0000000000000000e+00 -5.1499999302396962e+00 -2.9140880905493809e-02 -5.5529929707789116e-01 +5.1254421332327157e-03
-5.1999999999999895e+00 +8.2842516458630140e+00 +0.0000000000000000e+00 -5.1999999281863865e+00 -2.9141792269388678e-02 -5.5532975270994278e-01 +5.1245275977111603e-03
-5.2499999999999893e+00 +8.2842371778199020e+00 +0.0000000000000000e+00 -5.2499999260931274e+00 -2.9142713819126122e-02 -5.5536041278204451e-01 +5.1236299543764852e-03
-5.2999999999999892e+00 +8.2842225710437027e+00 +0.0000000000000000e+00 -5.2999999239595326e+00 -2.9143645387971141e-02 -5.5539127452066506e-01 +5.1227492031053895e-03
-5.3499999999999890e+00 +8.2842078255267086e+00 +0.0000000000000000e+00 -5.3499999217852139e+00 -2.9144586809187460e-02 -5.5542233515227057e-01 +5.1218853437750766e-03
-5.3999999999999888e+00 +8.2841929412611606e+00 +0.0000000000000000e+00 -5.3999999195697841e+00 -2.9145537916037453e-02 -5.5545359190332644e-01 +5.1210383762632398e-03
-5.4499999999999886e+00 +8.2841779182392496e+00 +0.0000000000000000e+00 -5.4499999173128559e+00 -2.9146498541782032e-02 -5.5548504200029525e-01 +5.1202083004480651e-03
-5.4999999999999885e+00 +8.2841627564531208e+00 +0.0000000000000000e+00 -5.4999999150140422e+00 -2.9147468519680735e-02 -5.5551668266963727e-01 +5.1193951162082215e-03
-5.5499999999999883e+00 +8.2841474558948693e+00 +0.0000000000000000e+00 -5.5499999126729556e+00 -2.9148447682991539e-02 -5.5554851113781034e-01 +5.1185988234228458e-03
-5.5999999999999881e+00 +8.2841320165565442e+00 +0.0000000000000000e+00 -5.5999999102892080e+00 -2.9149435864970891e-02 -5.5558052463127039e-01 +5.1178194219715688e-03
-5.6499999999999879e+00 +8.2841164384301482e+00 +0.0000000000000000e+00 -5.6499999078624112e+00 -2.9150432898873639e-02 -5.5561272037646925e-01 +5.1170569117344675e-03
-5.6999999999999877e+00 +8.2841007215076399e+00 +0.0000000000000000e+00 -5.6999999053921782e+00 -2.9151438617952993e-02 -5.5564509559985586e-01 +5.1163112925921017e-03
-5.7499999999999876e+00 +8.2840848657809296e+00 +0.0000000000000000e+00 -5.7499999028781215e+00 -2.9152452855460469e-02 -5.5567764752787596e-01 +5.1155825644254730e-03
-5.7999999999999874e+00 +8.2840688712418888e+00 +0.0000000000000000e+00 -5.7999999003198521e+00 -2.9153475444645836e-02 -5.5571037338697193e-01 +5.1148707271160528e-03
-5.8499999999999872e+00 +8.2840527378823410e+00 +0.0000000000000000e+00 -5.8499998977169829e+00 -2.9154506218757086e-02 -5.5574327040358162e-01 +5.1141757805457447e-03
