# trajectory
# s[mm] rx[mm] ry[mm] rz[mm] px[rad] py[rad] pz[rad]
0.0000000000000000e+00 +8.2850000000000001e+00 +0.0000000000000000e+00 +0.0000000000000000e+00 +0.0000000000000000e+00 +0.0000000000000000e+00 +1.0000000000000000e+00
-5.0000000000000003e-02 +8.2849999308430267e+00 +0.0000000000000000e+00 -4.9999999999936227e-02 +2.7662777198115218e-06 +0.0000000000000000e+00 +9.9999999999617384e-01
-1.0000000000000001e-01 +8.2849997233723318e+00 +0.0000000000000000e+00 -9.9999999999489844e-02 +5.5325491604126520e-06 +0.0000000000000000e+00 +9.9999999998469546e-01
-1.5000000000000002e-01 +8.2849993775881838e+00 +0.0000000000000000e+00 -1.4999999999827823e-01 +8.2988161335003272e-06 +0.0000000000000000e+00 +9.9999999996556488e-01
-2.0000000000000001e-01 +8.2849988934907621e+00 +0.0000000000000000e+00 -1.9999999999591880e-01 +1.1065080448438877e-05 +0.0000000000000000e+00 +9.9999999993878208e-01
-2.5000000000000000e-01 +8.2849982710801537e+00 +0.0000000000000000e+00 -2.4999999999202893e-01 +1.3831343912260097e-05 +0.0000000000000000e+00 +9.9999999990434707e-01
-2.9999999999999999e-01 +8.2849975103563551e+00 +0.0000000000000000e+00 -2.9999999998622601e-01 +1.6597608329663346e-05 +0.0000000000000000e+00 +9.9999999986225985e-01
-3.4999999999999998e-01 +8.2849966113192739e+00 +0.0000000000000000e+00 -3.4999999997812742e-01 +1.9363875503015629e-05 +0.0000000000000000e+00 +9.9999999981252030e-01
-3.9999999999999997e-01 +8.2849955739687289e+00 +0.0000000000000000e+00 -3.9999999996735053e-01 +2.2130147232351677e-05 +0.0000000000000000e+00 +9.9999999975512843e-01
-4.4999999999999996e-01 +8.2849943983044447e+00 +0.0000000000000000e+00 -4.4999999995351275e-01 +2.4896425315374039e-05 +0.0000000000000000e+00 +9.9999999969008413e-01
-4.9999999999999994e-01 +8.2849930843260609e+00 +0.0000000000000000e+00 -4.9999999993623140e-01 +2.7662711547453161e-05 +0.0000000000000000e+00 +9.9999999961738728e-01
-5.4999999999999993e-01 +8.2849916320331243e+00 +0.0000000000000000e+00 -5.4999999991512394e-01 +3.0429007721627479e-05 +0.0000000000000000e+00 +9.9999999953703778e-01
-5.9999999999999998e-01 +8.2849900414250932e+00 +0.0000000000000000e+00 -5.9999999988980768e-01 +3.3195315628603491e-05 +0.0000000000000000e+00 +9.9999999944903550e-01
-6.5000000000000002e-01 +8.2849883125013353e+00 +0.0000000000000000e+00 -6.4999999985989998e-01 +3.5961637056755848e-05 +0.0000000000000000e+00 +9.9999999935338035e-01
-7.0000000000000007e-01 +8.2849864452611310e+00 +0.0000000000000000e+00 -6.9999999982501815e-01 +3.8727973792127430e-05 +0.0000000000000000e+00 +9.9999999925007199e-01
-7.5000000000000011e-01 +8.2849844397036705e+00 +0.0000000000000000e+00 -7.4999999978477960e-01 +4.1494327618429448e-05 +0.0000000000000000e+00 +9.9999999913911031e-01
-8.0000000000000016e-01 +8.2849822958280548e+00 +0.0000000000000000e+00 -7.9999999973880165e-01 +4.4260700317041499e-05 +0.0000000000000000e+00 +9.9999999902049508e-01
-8.5000000000000020e-01 +8.2849800136332945e+00 +0.0000000000000000e+00 -8.4999999968670159e-01 +4.7027093667011663e-05 +0.0000000000000000e+00 +9.9999999889422608e-01
-9.0000000000000024e-01 +8.2849775931183132e+00 +0.0000000000000000e+00 -8.9999999962809674e-01 +4.9793509445056577e-05 +0.0000000000000000e+00 +9.9999999876030310e-01
-9.5000000000000029e-01 +8.2849750342819455e+00 +0.0000000000000000e+00 -9.4999999956260439e-01 +5.2559949425561528e-05 +0.0000000000000000e+00 +9.9999999861872579e-01
-1.0000000000000002e+00 +8.2849723371229373e+00 +0.0000000000000000e+00 -9.9999999948984175e-01 +5.5326415380580523e-05 +0.0000000000000000e+00 +9.9999999846949383e-01
-1.0500000000000003e+00 +8.2849695016399458e+00 +0.0000000000000000e+00 -1.0499999994094262e+00 +5.8092909079836371e-05 +0.0000000000000000e+00 +9.9999999831260689e-01
-1.1000000000000003e+00 +8.2849665278315374e+00 +0.0000000000000000e+00 -1.0999999993209748e+00 +6.0859432290720765e-05 +0.0000000000000000e+00 +9.9999999814806473e-01
-1.1500000000000004e+00 +8.2849634156961951e+00 +0.0000000000000000e+00 -1.1499999992241050e+00 +6.3625986778294359e-05 +0.0000000000000000e+00 +9.9999999797586692e-01
-1.2000000000000004e+00 +8.2849601652323095e+00 +0.0000000000000000e+00 -1.1999999991184338e+00 +6.6392574305286836e-05 +0.0000000000000000e+00 +9.9999999779601301e-01
-1.2500000000000004e+00 +8.2849567764381842e+00 +0.0000000000000000e+00 -1.2499999990035786e+00 +6.9159196632097018e-05 +0.0000000000000000e+00 +9.9999999760850278e-01
-1.3000000000000005e+00 +8.2849532493120357e+00 +0.0000000000000000e+00 -1.2999999988791564e+00 +7.1925855516792906e-05 +0.0000000000000000e+00 +9.9999999741333567e-01
-1.3500000000000005e+00 +8.2849495838519935e+00 +0.0000000000000000e+00 -1.3499999987447844e+00 +7.4692552715111780e-05 +0.0000000000000000e+00 +9.9999999721051125e-01
-1.4000000000000006e+00 +8.2849457800560966e+00 +0.0000000000000000e+00 -1.3999999986000797e+00 +7.7459289980460263e-05 +0.0000000000000000e+00 +9.9999999700002917e-01
-1.4500000000000006e+00 +8.2849418379222985e+00 +0.0000000000000000e+00 -1.4499999984446597e+00 +8.0226069063914432e-05 +0.0000000000000000e+00 +9.9999999678188889e-01
-1.5000000000000007e+00 +8.2849377574484642e+00 +0.0000000000000000e+00 -1.4999999982781411e+00 +8.2992891714219846e-05 +0.0000000000000000e+00 +9.9999999655608995e-01
-1.5500000000000007e+00 +8.2849335386323713e+00 +0.0000000000000000e+00 -1.5499999981001411e+00 +8.5759759677791637e-05 +0.0000000000000000e+00 +9.9999999632263181e-01
-1.6000000000000008e+00 +8.2849291814717123e+00 +0.0000000000000000e+00 -1.5999999979102766e+00 +8.8526674698714608e-05 +0.0000000000000000e+00 +9.9999999608151391e-01
-1.6500000000000008e+00 +8.2849246859640893e+00 +0.0000000000000000e+00 -1.6499999977081647e+00 +9.1293638518743286e-05 +0.0000000000000000e+00 +9.9999999583273580e-01
-1.7000000000000008e+00 +8.2849200521070188e+00 +0.0000000000000000e+00 -1.6999999974934226e+00 +9.4060652877302003e-05 +0.0000000000000000e+00 +9.9999999557629682e-01
-1.7500000000000009e+00 +8.2849152798979304e+00 +0.0000000000000000e+00 -1.7499999972656668e+00 +9.6827719511484965e-05 +0.0000000000000000e+00 +9.9999999531219641e-01
-1.8000000000000009e+00 +8.2849103693341668e+00 +0.0000000000000000e+00 -1.7999999970245144e+00 +9.9594840156056347e-05 +0.0000000000000000e+00 +9.9999999504043391e-01
-1.8500000000000010e+00 +8.2849053204129852e+00 +0.0000000000000000e+00 -1.8499999967695824e+00 +1.0236201654345033e-04 +0.0000000000000000e+00 +9.9999999476100876e-01
-1.9000000000000010e+00 +8.2849001331315542e+00 +0.0000000000000000e+00 -1.8999999965004875e+00 +1.0512925040377119e-04 +0.0000000000000000e+00 +9.9999999447392030e-01
-1.9500000000000011e+00 +8.2848948074869568e+00 +0.0000000000000000e+00 -1.9499999962168466e+00 +1.0789654346479340e-04 +0.0000000000000000e+00 +9.9999999417916785e-01
-2.0000000000000009e+00 +8.2848893434761912e+00 +0.0000000000000000e+00 -1.9999999959182766e+00 +1.1066389745196167e-04 +0.0000000000000000e+00 +9.9999999387675076e-01
-2.0500000000000007e+00 +8.2848837410961682e+00 +0.0000000000000000e+00 -2.0499999956043942e+00 +1.1343131408810471e-04 +0.0000000000000000e+00 +9.9999999356666835e-01
-2.1000000000000005e+00 +8.2848780003437099e+00 +0.0000000000000000e+00 -2.0999999952748158e+00 +1.1619879509028601e-04 +0.0000000000000000e+00 +9.9999999324891986e-01
-2.1500000000000004e+00 +8.2848721212155567e+00 +0.0000000000000000e+00 -2.1499999949291584e+00 +1.1896634216665468e-04 +0.0000000000000000e+00 +9.9999999292350461e-01
-2.2000000000000002e+00 +8.2848661037083637e+00 +0.0000000000000000e+00 -2.1999999945670385e+00 +1.2173395701615913e-04 +0.0000000000000000e+00 +9.9999999259042172e-01
-2.2500000000000000e+00 +8.2848599478186973e+00 +0.0000000000000000e+00 -2.2499999941880726e+00 +1.2450164132854716e-04 +0.0000000000000000e+00 +9.9999999224967051e-01
-2.2999999999999998e+00 +8.2848536535430437e+00 +0.0000000000000000e+00 -2.2999999937918778e+00 +1.2726939678436603e-04 +0.0000000000000000e+00 +9.9999999190125022e-01
-2.3499999999999996e+00 +8.2848472208778041e+00 +0.0000000000000000e+00 -2.3499999933780700e+00 +1.3003722505496252e-04 +0.0000000000000000e+00 +9.9999999154515995e-01
-2.3999999999999995e+00 +8.2848406498192961e+00 +0.0000000000000000e+00 -2.3999999929462659e+00 +1.3280512780248295e-04 +0.0000000000000000e+00 +9.9999999118139893e-01
-2.4499999999999993e+00 +8.2848339403637539e+00 +0.0000000000000000e+00 -2.4499999924960818e+00 +1.3557310667987329e-04 +0.0000000000000000e+00 +9.9999999080996627e-01
-2.4999999999999991e+00 +8.2848270925073315e+00 +0.0000000000000000e+00 -2.4999999920271345e+00 +1.3834116333087917e-04 +0.0000000000000000e+00 +9.9999999043086119e-01
-2.5499999999999989e+00 +8.2848201062460980e+00 +0.0000000000000000e+00 -2.5499999915390399e+00 +1.4110929939004598e-04 +0.0000000000000000e+00 +9.9999999004408269e-01
-2.5999999999999988e+00 +8.2848129815760423e+00 +0.0000000000000000e+00 -2.5999999910314147e+00 +1.4387751648271886e-04 +0.0000000000000000e+00 +9.9999998964962999e-01
-2.6499999999999986e+00 +8.2848057184930717e+00 +0.0000000000000000e+00 -2.6499999905038751e+00 +1.4664581622504281e-04 +0.0000000000000000e+00 +9.9999998924750211e-01
-2.6999999999999984e+00 +8.2847983169930153e+00 +0.0000000000000000e+00 -2.6999999899560372e+00 +1.4941420022396271e-04 +0.0000000000000000e+00 +9.9999998883769825e-01
-2.7499999999999982e+00 +8.2847907770716187e+00 +0.0000000000000000e+00 -2.7499999893875171e+00 +1.5218267007722342e-04 +0.0000000000000000e+00 +9.9999998842021731e-01
-2.7999999999999980e+00 +8.2847830987245494e+00 +0.0000000000000000e+00 -2.7999999887979312e+00 +1.5495122737336977e-04 +0.0000000000000000e+00 +9.9999998799505840e-01
-2.8499999999999979e+00 +8.2847752819473968e+00 +0.0000000000000000e+00 -2.8499999881868954e+00 +1.5771987369174659e-04 +0.0000000000000000e+00 +9.9999998756222053e-01
-2.8999999999999977e+00 +8.2847673267356701e+00 +0.0000000000000000e+00 -2.8999999875540254e+00 +1.6048861060249890e-04 +0.0000000000000000e+00 +9.9999998712170268e-01
-2.9499999999999975e+00 +8.2847592330848006e+00 +0.0000000000000000e+00 -2.9499999868989377e+00 +1.6325743966657174e-04 +0.0000000000000000e+00 +9.9999998667350398e-01
-2.9999999999999973e+00 +8.2847510009901413e+00 +0.0000000000000000e+00 -2.9999999862212481e+00 +1.6602636243571043e-04 +0.0000000000000000e+00 +9.9999998621762332e-01
-3.0499999999999972e+00 +8.2847426304469689e+00 +0.0000000000000000e+00 -3.0499999855205724e+00 +1.6879538045246046e-04 +0.0000000000000000e+00 +9.9999998575405957e-01
-3.0999999999999970e+00 +8.2847341214504819e+00 +0.0000000000000000e+00 -3.0999999847965261e+00 +1.7156449525016759e-04 +0.0000000000000000e+00 +9.9999998528281175e-01
-3.1499999999999968e+00 +8.2847254739958043e+00 +0.0000000000000000e+00 -3.1499999840487254e+00 +1.7433370835297796e-04 +0.0000000000000000e+00 +9.9999998480387886e-01
-3.1999999999999966e+00 +8.2847166880779834e+00 +0.0000000000000000e+00 -3.1999999832767858e+00 +1.7710302127583799e-04 +0.0000000000000000e+00 +9.9999998431725967e-01
-3.2499999999999964e+00 +8.2847077636919888e+00 +0.0000000000000000e+00 -3.2499999824803232e+00 +1.7987243552449454e-04 +0.0000000000000000e+00 +9.9999998382295319e-01
-3.2999999999999963e+00 +8.2846987008327169e+00 +0.0000000000000000e+00 -3.2999999816589529e+00 +1.8264195259549491e-04 +0.0000000000000000e+00 +9.9999998332095830e-01
-3.3499999999999961e+00 +8.2846894994949896e+00 +0.0000000000000000e+00 -3.3499999808122909e+00 +1.8541157397618686e-04 +0.0000000000000000e+00 +9.9999998281127378e-01
-3.3999999999999959e+00 +8.2846801596735560e+00 +0.0000000000000000e+00 -3.3999999799399521e+00 +1.8818130114471867e-04 +0.0000000000000000e+00 +9.9999998229389864e-01
-3.4499999999999957e+00 +8.2846706813630888e+00 +0.0000000000000000e+00 -3.4499999790415523e+00 +1.9095113557003919e-04 +0.0000000000000000e+00 +9.9999998176883154e-01
-3.4999999999999956e+00 +8.2846610645581880e+00 +0.0000000000000000e+00 -3.4999999781167070e+00 +1.9372107871189786e-04 +0.0000000000000000e+00 +9.9999998123607148e-01
-3.5499999999999954e+00 +8.2846513092533822e+00 +0.0000000000000000e+00 -3.5499999771650312e+00 +1.9649113202084475e-04 +0.0000000000000000e+00 +9.9999998069561713e-01
-3.5999999999999952e+00 +8.2846414154431258e+00 +0.0000000000000000e+00 -3.5999999761861403e+00 +1.9926129693823057e-04 +0.0000000000000000e+00 +9.9999998014746738e-01
-3.6499999999999950e+00 +8.2846313831218037e+00 +0.0000000000000000e+00 -3.6499999751796497e+00 +2.0203157489620673e-04 +0.0000000000000000e+00 +9.9999997959162101e-01
-3.6999999999999948e+00 +8.2846212122837279e+00 +0.0000000000000000e+00 -3.6999999741451743e+00 +2.0480196731772538e-04 +0.0000000000000000e+00 +9.9999997902807669e-01
-3.7499999999999947e+00 +8.2846109029231396e+00 +0.0000000000000000e+00 -3.7499999730823292e+00 +2.0757247561653945e-04 +0.0000000000000000e+00 +9.9999997845683330e-01
-3.7999999999999945e+00 +8.2846004550342105e+00 +0.0000000000000000e+00 -3.7999999719907294e+00 +2.1034310119720262e-04 +0.0000000000000000e+00 +9.9999997787788952e-01
-3.8499999999999943e+00 +8.2845898686110413e+00 +0.0000000000000000e+00 -3.8499999708699897e+00 +2.1311384545506944e-04 +0.0000000000000000e+00 +9.9999997729124401e-01
-3.8999999999999941e+00 +8.2845791436476635e+00 +0.0000000000000000e+00 -3.8999999697197252e+00 +2.1588470977629526e-04 +0.0000000000000000e+00 +9.9999997669689555e-01
-3.9499999999999940e+00 +8.2845682801380391e+00 +0.0000000000000000e+00 -3.9499999685395508e+00 +2.1865569553783631e-04 +0.0000000000000000e+00 +9.9999997609484292e-01
-3.9999999999999938e+00 +8.2845572780760630e+00 +0.0000000000000000e+00 -3.9999999673290811e+00 +2.2142680410744978e-04 +0.0000000000000000e+00 +9.9999997548508468e-01
-4.0499999999999936e+00 +8.2845461374555587e+00 +0.0000000000000000e+00 -4.0499999660879311e+00 +2.2419803684349963e-04 +0.0000000000000000e+00 +9.9999997486761960e-01
-4.0999999999999934e+00 +8.2845348582702858e+00 +0.0000000000000000e+00 -4.0999999648157148e+00 +2.2696939509282181e-04 +0.0000000000000000e+00 +9.9999997424244624e-01
-4.1499999999999932e+00 +8.2845234405139347e+00 +0.0000000000000000e+00 -4.1499999635120473e+00 +2.2974088018858920e-04 +0.0000000000000000e+00 +9.9999997360956339e-01
-4.1999999999999931e+00 +8.2845118841801302e+00 +0.0000000000000000e+00 -4.1999999621765429e+00 +2.3251249345011761e-04 +0.0000000000000000e+00 +9.9999997296896959e-01
-4.2499999999999929e+00 +8.2845001892624310e+00 +0.0000000000000000e+00 -4.2499999608088155e+00 +2.3528423618286576e-04 +0.0000000000000000e+00 +9.9999997232066351e-01
-4.2999999999999927e+00 +8.2844883557543323e+00 +0.0000000000000000e+00 -4.2999999594084803e+00 +2.3805610967843531e-04 +0.0000000000000000e+00 +9.9999997166464372e-01
-4.3499999999999925e+00 +8.2844763836492632e+00 +0.0000000000000000e+00 -4.3499999579751512e+00 +2.4082811521457088e-04 +0.0000000000000000e+00 +9.9999997100090887e-01
-4.3999999999999924e+00 +8.2844642729405891e+00 +0.0000000000000000e+00 -4.3999999565084424e+00 +2.4360025405516009e-04 +0.0000000000000000e+00 +9.9999997032945753e-01
-4.4499999999999922e+00 +8.2844520236216148e+00 +0.0000000000000000e+00 -4.4499999550079679e+00 +2.4637252745023347e-04 +0.0000000000000000e+00 +9.9999996965028826e-01
-4.4999999999999920e+00 +8.2844396356855814e+00 +0.0000000000000000e+00 -4.4999999534733419e+00 +2.4914493663596461e-04 +0.0000000000000000e+00 +9.9999996896339960e-01
-4.5499999999999918e+00 +8.2844271091256676e+00 +0.0000000000000000e+00 -4.5499999519041792e+00 +2.5191748283467008e-04 +0.0000000000000000e+00 +9.9999996826879023e-01
-4.5999999999999917e+00 +8.2844144439349936e+00 +0.0000000000000000e+00 -4.5999999503000923e+00 +2.5469016725480947e-04 +0.0000000000000000e+00 +9.9999996756645859e-01
-4.6499999999999915e+00 +8.2844016401066192e+00 +0.0000000000000000e+00 -4.6499999486606960e+00 +2.5746299109098540e-04 +0.0000000000000000e+00 +9.9999996685640336e-01
-4.6999999999999913e+00 +8.2843886976335419e+00 +0.0000000000000000e+00 -4.6999999469856037e+00 +2.6023595552394349e-04 +0.0000000000000000e+00 +9.9999996613862296e-01
-4.7499999999999911e+00 +8.2843756165087044e+00 +0.0000000000000000e+00 -4.7499999452744293e+00 +2.6300906172057242e-04 +0.0000000000000000e+00 +9.9999996541311598e-01
-4.7999999999999909e+00 +8.2843623967249886e+00 +0.0000000000000000e+00 -4.7999999435267862e+00 +2.6578231083390386e-04 +0.0000000000000000e+00 +9.9999996467988084e-01
-4.8499999999999908e+00 +8.2843490382752201e+00 +0.0000000000000000e+00 -4.8499999417422881e+00 +2.6855570400311261e-04 +0.0000000000000000e+00 +9.9999996393891610e-01
-4.8999999999999906e+00 +8.2843355411521689e+00 +0.0000000000000000e+00 -4.8999999399205487e+00 +2.7132924235351638e-04 +0.0000000000000000e+00 +9.9999996319022022e-01
-4.9499999999999904e+00 +8.2843219053485466e+00 +0.0000000000000000e+00 -4.9499999380611817e+00 +2.7410292699657610e-04 +0.0000000000000000e+00 +9.9999996243379174e-01
-4.9999999999999902e+00 +8.2843081308570117e+00 +0.0000000000000000e+00 -4.9999999361637997e+00 +2.7687675902989559e-04 +0.0000000000000000e+00 +9.9999996166962912e-01
-5.0499999999999901e+00 +8.2842942176701690e+00 +0.0000000000000000e+00 -5.0499999342280155e+00 +2.7965073953722177e-04 +0.0000000000000000e+00 +9.9999996089773091e-01
-5.0999999999999899e+00 +8.2842801657805669e+00 +0.0000000000000000e+00 -5.0999999322534437e+00 +2.8242486958844469e-04 +0.0000000000000000e+00 +9.9999996011809544e-01
-5.1499999999999897e+00 +8.2842659751807002e+00 +0.0000000000000000e+00 -5.1499999302396962e+00 +2.8519915023959727e-04 +0.0000000000000000e+00 +9.9999995933072128e-01
-5.1999999999999895e+00 +8.2842516458630140e+00 +0.0000000000000000e+00 -5.1999999281863865e+00 +2.8797358253285563e-04 +0.0000000000000000e+00 +9.9999995853560675e-01
-5.2499999999999893e+00 +8.2842371778199020e+00 +0.0000000000000000e+00 -5.2499999260931274e+00 +2.9074816749653879e-04 +0.0000000000000000e+00 +9.9999995773275041e-01
-5.2999999999999892e+00 +8.2842225710437027e+00 +0.0000000000000000e+00 -5.2999999239595326e+00 +2.9352290614510893e-04 +0.0000000000000000e+00 +9.9999995692215060e-01
-5.3499999999999890e+00 +8.2842078255267086e+00 +0.0000000000000000e+00 -5.3499999217852139e+00 +2.9629779947917107e-04 +0.0000000000000000e+00 +9.9999995610380576e-01
-5.3999999999999888e+00 +8.2841929412611606e+00 +0.0000000000000000e+00 -5.3999999195697841e+00 +2.9907284848547340e-04 +0.0000000000000000e+00 +9.9999995527771435e-01
-5.4499999999999886e+00 +8.2841779182392496e+00 +0.0000000000000000e+00 -5.4499999173128559e+00 +3.0184805413690705e-04 +0.0000000000000000e+00 +9.9999995444387479e-01
-5.4999999999999885e+00 +8.2841627564531208e+00 +0.0000000000000000e+00 -5.4999999150140422e+00 +3.0462341739250610e-04 +0.0000000000000000e+00 +9.9999995360228544e-01
-5.5499999999999883e+00 +8.2841474558948693e+00 +0.0000000000000000e+00 -5.5499999126729556e+00 +3.0739893919744769e-04 +0.0000000000000000e+00 +9.9999995275294473e-01
-5.5999999999999881e+00 +8.2841320165565442e+00 +0.0000000000000000e+00 -5.5999999102892080e+00 +3.1017462048305185e-04 +0.0000000000000000e+00 +9.9999995189585100e-01
-5.6499999999999879e+00 +8.2841164384301482e+00 +0.0000000000000000e+00 -5.6499999078624112e+00 +3.1295046216678156e-04 +0.0000000000000000e+00 +9.9999995103100270e-01
-5.6999999999999877e+00 +8.2841007215076399e+00 +0.0000000000000000e+00 -5.6999999053921782e+00 +3.1572646515224274e-04 +0.0000000000000000e+00 +9.9999995015839815e-01
-5.7499999999999876e+00 +8.2840848657809296e+00 +0.0000000000000000e+00 -5.7499999028781215e+00 +3.1850263032918427e-04 +0.0000000000000000e+00 +9.9999994927803570e-01
-5.7999999999999874e+00 +8.2840688712418888e+00 +0.0000000000000000e+00 -5.7999999003198521e+00 +3.2127895857349785e-04 +0.0000000000000000e+00 +9.9999994838991380e-01
-5.8499999999999872e+00 +8.2840527378823410e+00 +0.0000000000000000e+00 -5.8499998977169829e+00 +3.2405545074721816e-04 +0.0000000000000000e+00 +9.9999994749403076e-01
