# field on trajectory
# s[mm] rx[mm] ry[mm] rz[mm] bx[T] by[T] bz[T]
-0.0000000000000000e+00 +8.5270000000000206e+00 +0.0000000000000000e+00 -0.0000000000000000e+00 -3.0652845789362334e-02 -5.4971715721619108e-01 +5.4465010296098713e-03
-5.0000000000000003e-02 +8.5269999273587000e+00 +0.0000000000000000e+00 -5.1282051281982703e-02 -3.0653116566638404e-02 -5.4971848226360753e-01 +5.4492863912259945e-03
-1.0000000000000001e-01 +8.5269997094401297e+00 +0.0000000000000000e+00 -1.0256410256355400e-01 -3.0653419368259723e-02 -5.4972023777269330e-01 +5.4520724630386947e-03
-1.4999999999999999e-01 +8.5269993462388793e+00 +0.0000000000000000e+00 -1.5384615384430200e-01 -3.0653754030391674e-02 -5.4972242264343896e-01 +5.4548589856844272e-03
-2.0000000000000001e-01 +8.5269988377622195e+00 +0.0000000000000000e+00 -2.0512820512381499e-01 -3.0654120389196793e-02 -5.4972503577576481e-01 +5.4576456997987325e-03
-2.5000000000000000e-01 +8.5269981840028795e+00 +0.0000000000000000e+00 -2.5641025640168202e-01 -3.0654518280844662e-02 -5.4972807606971597e-01 +5.4604323460182734e-03
-2.9999999999999999e-01 +8.5269973849644902e+00 +0.0000000000000000e+00 -3.0769230767749101e-01 -3.0654947541502556e-02 -5.4973154242527955e-01 +5.4632186649788703e-03
-3.4999999999999998e-01 +8.5269964406470500e+00 +0.0000000000000000e+00 -3.5897435895083102e-01 -3.0655408007340672e-02 -5.4973543374248968e-01 +5.4660043973165590e-03
-4.0000000000000002e-01 +8.5269953510505694e+00 +0.0000000000000000e+00 -4.1025641022129000e-01 -3.0655899514530807e-02 -5.4973974892140021e-01 +5.4687892836673075e-03
-4.5000000000000001e-01 +8.5269941161714105e+00 +0.0000000000000000e+00 -4.6153846148845601e-01 -3.0656421899247582e-02 -5.4974448686211186e-01 +5.4715730646672442e-03
-5.0000000000000000e-01 +8.5269927360132005e+00 +0.0000000000000000e+00 -5.1282051275191798e-01 -3.0656974997664409e-02 -5.4974964646469315e-01 +5.4743554809517907e-03
-5.5000000000000004e-01 +8.5269912105795793e+00 +0.0000000000000000e+00 -5.6410256401126402e-01 -3.0657558645956075e-02 -5.4975522662923193e-01 +5.4771362731561900e-03
-5.9999999999999998e-01 +8.5269895398632798e+00 +0.0000000000000000e+00 -6.1538461526608301e-01 -3.0658172680302756e-02 -5.4976122625591528e-01 +5.4799151819163172e-03
-6.5000000000000002e-01 +8.5269877238679292e+00 +0.0000000000000000e+00 -6.6666666651596296e-01 -3.0658816936881880e-02 -5.4976764424487112e-01 +5.4826919478669521e-03
-6.9999999999999996e-01 +8.5269857625899004e+00 +0.0000000000000000e+00 -7.1794871776049296e-01 -3.0659491251874817e-02 -5.4977447949630009e-01 +5.4854663116431788e-03
-7.5000000000000000e-01 +8.5269836560364602e+00 +0.0000000000000000e+00 -7.6923076899926102e-01 -3.0660195461460066e-02 -5.4978173091034344e-01 +5.4882380138789131e-03
-8.0000000000000004e-01 +8.5269814042003400e+00 +0.0000000000000000e+00 -8.2051282023185501e-01 -3.0660929401822610e-02 -5.4978939738726629e-01 +5.4910067952088542e-03
-8.4999999999999998e-01 +8.5269790070851705e+00 +0.0000000000000000e+00 -8.7179487145786405e-01 -3.0661692909144497e-02 -5.4979747782727595e-01 +5.4937723962664928e-03
-9.0000000000000002e-01 +8.5269764646909607e+00 +0.0000000000000000e+00 -9.2307692267687602e-01 -3.0662485819610126e-02 -5.4980597113062391e-01 +5.4965345576851879e-03
-9.4999999999999996e-01 +8.5269737770140601e+00 +0.0000000000000000e+00 -9.7435897388848103e-01 -3.0663307969406198e-02 -5.4981487619760772e-01 +5.4992930200981451e-03
-1.0000000000000000e+00 +8.5269709440617607e+00 +0.0000000000000000e+00 -1.0256410250922601e+00 -3.0664159194716288e-02 -5.4982419192846566e-01 +5.5020475241372400e-03
-1.0500000000000000e+00 +8.5269679658304103e+00 +0.0000000000000000e+00 -1.0769230762878199e+00 -3.0665039331728823e-02 -5.4983391722353370e-01 +5.5047978104347086e-03
-1.1000000000000001e+00 +8.5269648423163709e+00 +0.0000000000000000e+00 -1.1282051274747300e+00 -3.0665948216633074e-02 -5.4984405098316669e-01 +5.5075436196222426e-03
-1.1499999999999999e+00 +8.5269615735232893e+00 +0.0000000000000000e+00 -1.1794871786525800e+00 -3.0666885685616346e-02 -5.4985459210768584e-01 +5.5102846923303968e-03
-1.2000000000000000e+00 +8.5269581594511692e+00 +0.0000000000000000e+00 -1.2307692298209700e+00 -3.0667851574867930e-02 -5.4986553949745720e-01 +5.5130207691894079e-03
-1.2500000000000000e+00 +8.5269546000999998e+00 +0.0000000000000000e+00 -1.2820512809794800e+00 -3.0668845720577799e-02 -5.4987689205286616e-01 +5.5157515908288756e-03
-1.3000000000000000e+00 +8.5269508954661397e+00 +0.0000000000000000e+00 -1.3333333321277101e+00 -3.0669867958937811e-02 -5.4988864867434284e-01 +5.5184768978780319e-03
-1.3500000000000001e+00 +8.5269470455568808e+00 +0.0000000000000000e+00 -1.3846153832652299e+00 -3.0670918126136364e-02 -5.4990080826225618e-01 +5.5211964309645348e-03
-1.3999999999999999e+00 +8.5269430503649293e+00 +0.0000000000000000e+00 -1.4358974343916400e+00 -3.0671996058367609e-02 -5.4991336971710014e-01 +5.5239099307164644e-03
-1.4500000000000000e+00 +8.5269389098939392e+00 +0.0000000000000000e+00 -1.4871794855065199e+00 -3.0673101591822141e-02 -5.4992633193930684e-01 +5.5266171377602756e-03
-1.5000000000000000e+00 +8.5269346241439106e+00 +0.0000000000000000e+00 -1.5384615366094700e+00 -3.0674234562692217e-02 -5.4993969382935370e-01 +5.5293177927219096e-03
-1.5500000000000000e+00 +8.5269301931148203e+00 +0.0000000000000000e+00 -1.5897435877000701e+00 -3.0675394807170433e-02 -5.4995345428773579e-01 +5.5320116362264828e-03
-1.6000000000000001e+00 +8.5269256168030605e+00 +0.0000000000000000e+00 -1.6410256387779201e+00 -3.0676582161450919e-02 -5.4996761221499313e-01 +5.5346984088985394e-03
-1.6499999999999999e+00 +8.5269208952158806e+00 +0.0000000000000000e+00 -1.6923076898425899e+00 -3.0677796461724006e-02 -5.4998216651160436e-01 +5.5373778513608573e-03
-1.7000000000000000e+00 +8.5269160283460206e+00 +0.0000000000000000e+00 -1.7435897408936800e+00 -3.0679037544185519e-02 -5.4999711607817081e-01 +5.5400497042364478e-03
-1.7500000000000000e+00 +8.5269110161934805e+00 +0.0000000000000000e+00 -1.7948717919307799e+00 -3.0680305245028662e-02 -5.5001245981526015e-01 +5.5427137081467846e-03
-1.8000000000000000e+00 +8.5269058587655309e+00 +0.0000000000000000e+00 -1.8461538429534701e+00 -3.0681599400443994e-02 -5.5002819662340408e-01 +5.5453696037117625e-03
-1.8500000000000001e+00 +8.5269005560585391e+00 +0.0000000000000000e+00 -1.8974358939613500e+00 -3.0682919846626050e-02 -5.5004432540323134e-01 +5.5480171315511317e-03
-1.8999999999999999e+00 +8.5268951080688602e+00 +0.0000000000000000e+00 -1.9487179449540000e+00 -3.0684266419769315e-02 -5.5006084505538777e-01 +5.5506560322835814e-03
-1.9500000000000000e+00 +8.5268895148037700e+00 +0.0000000000000000e+00 -1.9999999959310100e+00 -3.0685638956064062e-02 -5.5007775448045793e-01 +5.5532860465258372e-03
-2.0000000000000000e+00 +8.5268838253941794e+00 +0.0000000000000000e+00 -2.0508474532398102e+00 -3.0687025324456496e-02 -5.5009490414964879e-01 +5.5558847601542855e-03
-2.0499999999999998e+00 +8.5268779929429002e+00 +0.0000000000000000e+00 -2.1016949105324101e+00 -3.0688436842874266e-02 -5.5011243362482942e-01 +5.5584743305465761e-03
-2.1000000000000001e+00 +8.5268720174499304e+00 +0.0000000000000000e+00 -2.1525423678083899e+00 -3.0689873297342744e-02 -5.5013034059663291e-01 +5.5610546059640820e-03
-2.1499999999999999e+00 +8.5268658989189099e+00 +0.0000000000000000e+00 -2.2033898250673700e+00 -3.0691334473886830e-02 -5.5014862275568033e-01 +5.5636254346670506e-03
-2.2000000000000002e+00 +8.5268596373498404e+00 +0.0000000000000000e+00 -2.2542372823089400e+00 -3.0692820158533536e-02 -5.5016727779263042e-01 +5.5661866649151619e-03
-2.2500000000000000e+00 +8.5268532327390893e+00 +0.0000000000000000e+00 -2.3050847395326799e+00 -3.0694330137312025e-02 -5.5018630339817975e-01 +5.5687381449675295e-03
-2.2999999999999998e+00 +8.5268466850902804e+00 +0.0000000000000000e+00 -2.3559321967382099e+00 -3.0695864196249655e-02 -5.5020569726298485e-01 +5.5712797230818107e-03
-2.3500000000000001e+00 +8.5268399943961395e+00 +0.0000000000000000e+00 -2.4067796539251201e+00 -3.0697422121378583e-02 -5.5022545707779114e-01 +5.5738112475156483e-03
-2.3999999999999999e+00 +8.5268331606675893e+00 +0.0000000000000000e+00 -2.4576271110930099e+00 -3.0699003698725122e-02 -5.5024558053322425e-01 +5.5763325665243064e-03
-2.4500000000000002e+00 +8.5268261838973594e+00 +0.0000000000000000e+00 -2.5084745682414700e+00 -3.0700608714323192e-02 -5.5026606532005118e-01 +5.5788435283636185e-03
-2.5000000000000000e+00 +8.5268190640890698e+00 +0.0000000000000000e+00 -2.5593220253701001e+00 -3.0702236954203516e-02 -5.5028690912897094e-01 +5.5813439812876040e-03
-2.5499999999999998e+00 +8.5268118012427294e+00 +0.0000000000000000e+00 -2.6101694824785100e+00 -3.0703888204399080e-02 -5.5030810965071819e-01 +5.5838337735496461e-03
-2.6000000000000001e+00 +8.5268043953510606e+00 +0.0000000000000000e+00 -2.6610169395662799e+00 -3.0705562250946453e-02 -5.5032966457609034e-01 +5.5863127534027737e-03
-2.6499999999999999e+00 +8.5267968464213499e+00 +0.0000000000000000e+00 -2.7118643966330200e+00 -3.0707258879877714e-02 -5.5035157159578840e-01 +5.5887807690978546e-03
-2.7000000000000002e+00 +8.5267891544535797e+00 +0.0000000000000000e+00 -2.7627118536783102e+00 -3.0708977877228549e-02 -5.5037382840057503e-01 +5.5912376688853896e-03
-2.7500000000000000e+00 +8.5267813194441295e+00 +0.0000000000000000e+00 -2.8135593107017698e+00 -3.0710719029036954e-02 -5.5039643268124838e-01 +5.5936833010151853e-03
-2.7999999999999998e+00 +8.5267733413966198e+00 +0.0000000000000000e+00 -2.8644067677029899e+00 -3.0712482121339143e-02 -5.5041938212856112e-01 +5.5961175137354590e-03
-2.8500000000000001e+00 +8.5267652203074196e+00 +0.0000000000000000e+00 -2.9152542246815600e+00 -3.0714266940175001e-02 -5.5044267443332806e-01 +5.5985401552940198e-03
-2.8999999999999999e+00 +8.5267569561765395e+00 +0.0000000000000000e+00 -2.9661016816370900e+00 -3.0716073271584023e-02 -5.5046630728634460e-01 +5.6009510739373457e-03
-2.9500000000000002e+00 +8.5267485490112396e+00 +0.0000000000000000e+00 -3.0169491385691698e+00 -3.0717900901603982e-02 -5.5049027837836029e-01 +5.6033501179102848e-03
-3.0000000000000000e+00 +8.5267399988042598e+00 +0.0000000000000000e+00 -3.0677965954773900e+00 -3.0719749616279050e-02 -5.5051458540023823e-01 +5.6057371354578467e-03
-3.0499999999999998e+00 +8.5267313055555896e+00 +0.0000000000000000e+00 -3.1186440523613599e+00 -3.0721619201651673e-02 -5.5053922604279482e-01 +5.6081119748233772e-03
-3.1000000000000001e+00 +8.5267224692688597e+00 +0.0000000000000000e+00 -3.1694915092206801e+00 -3.0723509443764001e-02 -5.5056419799682677e-01 +5.6104744842488527e-03
-3.1499999999999999e+00 +8.5267134899368102e+00 +0.0000000000000000e+00 -3.2203389660549400e+00 -3.0725420128663236e-02 -5.5058949895321618e-01 +5.6128245119760750e-03
-3.2000000000000002e+00 +8.5267043675703498e+00 +0.0000000000000000e+00 -3.2711864228637300e+00 -3.0727351042390872e-02 -5.5061512660271872e-01 +5.6151619062442329e-03
-3.2500000000000000e+00 +8.5266951021658297e+00 +0.0000000000000000e+00 -3.3220338796466700e+00 -3.0729301970994837e-02 -5.5064107863620115e-01 +5.6174865152926268e-03
-3.2999999999999998e+00 +8.5266856937196298e+00 +0.0000000000000000e+00 -3.3728813364033301e+00 -3.0731272700524125e-02 -5.5066735274453538e-01 +5.6197981873594375e-03
-3.3500000000000001e+00 +8.5266761422317394e+00 +0.0000000000000000e+00 -3.4237287931333298e+00 -3.0733263017027473e-02 -5.5069394661857218e-01 +5.6220967706814137e-03
-3.3999999999999999e+00 +8.5266664477057894e+00 +0.0000000000000000e+00 -3.4745762498362600e+00 -3.0735272706553334e-02 -5.5072085794913994e-01 +5.6243821134938556e-03
-3.4500000000000002e+00 +8.5266566101381596e+00 +0.0000000000000000e+00 -3.5254237065117100e+00 -3.0737301555153959e-02 -5.5074808442712397e-01 +5.6266540640315188e-03
-3.5000000000000000e+00 +8.5266466295324808e+00 +0.0000000000000000e+00 -3.5762711631592898e+00 -3.0739349348879987e-02 -5.5077562374336120e-01 +5.6289124705273834e-03
-3.5499999999999998e+00 +8.5266365058887494e+00 +0.0000000000000000e+00 -3.6271186197785901e+00 -3.0741415873784546e-02 -5.5080347358871817e-01 +5.6311571812135506e-03
-3.6000000000000001e+00 +8.5266262391996896e+00 +0.0000000000000000e+00 -3.6779660763692101e+00 -3.0743500915924614e-02 -5.5083163165411742e-01 +5.6333880443215599e-03
-3.6499999999999999e+00 +8.5266158294762100e+00 +0.0000000000000000e+00 -3.7288135329307499e+00 -3.0745604261351509e-02 -5.5086009563035265e-01 +5.6356049080801942e-03
-3.6999999999999900e+00 +8.5266052767074108e+00 +0.0000000000000000e+00 -3.7796609894627999e+00 -3.0747725696125834e-02 -5.5088886320837838e-01 +5.6378076207188772e-03
-3.7499999999999898e+00 +8.5265945809042005e+00 +0.0000000000000000e+00 -3.8305084459649699e+00 -3.0749865006301259e-02 -5.5091793207899320e-01 +5.6399960304639573e-03
-3.7999999999999901e+00 +8.5265837420592998e+00 +0.0000000000000000e+00 -3.8813559024368498e+00 -3.0752021977939366e-02 -5.5094729993312963e-01 +5.6421699855420827e-03
-3.8499999999999899e+00 +8.5265727601727104e+00 +0.0000000000000000e+00 -3.9322033588780299e+00 -3.0754196397100250e-02 -5.5097696446166899e-01 +5.6443293341780351e-03
-3.8999999999999901e+00 +8.5265616352480702e+00 +0.0000000000000000e+00 -3.9830508152881201e+00 -3.0756388049843823e-02 -5.5100692335546808e-01 +5.6464739245950298e-03
-3.9499999999999900e+00 +8.5265503672853793e+00 +0.0000000000000000e+00 -4.0338982716667102e+00 -3.0758596723153498e-02 -5.5103717426713938e-01 +5.6486036085187912e-03
-3.9999999999999898e+00 +8.5265389562773599e+00 +0.0000000000000000e+00 -4.0847457280134103e+00 -3.0760822214721997e-02 -5.5106771440445701e-01 +5.6507182784026168e-03
-4.0499999999999901e+00 +8.5265274022313005e+00 +0.0000000000000000e+00 -4.1355931843278002e+00 -3.0763064329143039e-02 -5.5109854068806263e-01 +5.6528178529737976e-03
-4.0999999999999899e+00 +8.5265157051508105e+00 +0.0000000000000000e+00 -4.1864406406094901e+00 -3.0765322871125801e-02 -5.5112965003384495e-01 +5.6549022513969135e-03
-4.1499999999999897e+00 +8.5265038650250098e+00 +0.0000000000000000e+00 -4.2372880968580704e+00 -3.0767597645383810e-02 -5.5116103935780014e-01 +5.6569713928368058e-03
-4.1999999999999904e+00 +8.5264918818611495e+00 +0.0000000000000000e+00 -4.2881355530731398e+00 -3.0769888456622669e-02 -5.5119270557579658e-01 +5.6590251964557907e-03
-4.2499999999999902e+00 +8.5264797556556005e+00 +0.0000000000000000e+00 -4.3389830092543002e+00 -3.0772195109550878e-02 -5.5122464560378392e-01 +5.6610635814161410e-03
-4.2999999999999901e+00 +8.5264674864120007e+00 +0.0000000000000000e+00 -4.3898304654011504e+00 -3.0774517408872982e-02 -5.5125685635766164e-01 +5.6630864668785301e-03
-4.3499999999999899e+00 +8.5264550741303502e+00 +0.0000000000000000e+00 -4.4406779215132799e+00 -3.0776855159293560e-02 -5.5128933475335851e-01 +5.6650937720029611e-03
-4.3999999999999897e+00 +8.5264425188070199e+00 +0.0000000000000000e+00 -4.4915253775902899e+00 -3.0779208165517206e-02 -5.5132207770683095e-01 +5.6670854159487638e-03
-4.4499999999999904e+00 +8.5264298204419902e+00 +0.0000000000000000e+00 -4.5423728336317897e+00 -3.0781576232245731e-02 -5.5135508213401141e-01 +5.6690613178739802e-03
-4.4999999999999902e+00 +8.5264169790425495e+00 +0.0000000000000000e+00 -4.5932202896373502e+00 -3.0783959164176755e-02 -5.5138834495078137e-01 +5.6710213969350309e-03
-4.5499999999999901e+00 +8.5264039945941494e+00 +0.0000000000000000e+00 -4.6440677456066002e+00 -3.0786356766014558e-02 -5.5142186307318197e-01 +5.6729655722892406e-03
-4.5999999999999899e+00 +8.5263908671149693e+00 +0.0000000000000000e+00 -4.6949152015391098e+00 -3.0788768842449549e-02 -5.5145563341701764e-01 +5.6748937630901148e-03
-4.6499999999999897e+00 +8.5263775965941004e+00 +0.0000000000000000e+00 -4.7457626574344998e+00 -3.0791195198181392e-02 -5.5148965289830576e-01 +5.6768058884926779e-03
-4.6999999999999904e+00 +8.5263641830315500e+00 +0.0000000000000000e+00 -4.7966101132923500e+00 -3.0793635637903979e-02 -5.5152391843298487e-01 +5.6787018676500234e-03
-4.7499999999999902e+00 +8.5263506264309399e+00 +0.0000000000000000e+00 -4.8474575691122697e+00 -3.0796089966308102e-02 -5.5155842693696810e-01 +5.6805816197139369e-03
-4.7999999999999901e+00 +8.5263369267886393e+00 +0.0000000000000000e+00 -4.8983050248938502e+00 -3.0798557988085430e-02 -5.5159317532622121e-01 +5.6824450638358363e-03
-4.8499999999999899e+00 +8.5263230841010191e+00 +0.0000000000000000e+00 -4.9491524806366902e+00 -3.0801039507925773e-02 -5.5162816051671093e-01 +5.6842921191661349e-03
-4.8999999999999897e+00 +8.5263090983826295e+00 +0.0000000000000000e+00 -4.9999999363403900e+00 -3.0803534330510193e-02 -5.5166337942427091e-01 +5.6861227048526823e-03
-4.9499999999999904e+00 +8.5262950649157592e+00 +0.0000000000000000e+00 -5.0505049848957304e+00 -3.0806025328831050e-02 -5.5169858948540951e-01 +5.6879245798777860e-03
-4.9999999999999902e+00 +8.5262808896768494e+00 +0.0000000000000000e+00 -5.1010100334114901e+00 -3.0808529067493332e-02 -5.5173402406649774e-01 +5.6897100473859942e-03
-5.0499999999999901e+00 +8.5262665726659197e+00 +0.0000000000000000e+00 -5.1515150818872497e+00 -3.0811045355096992e-02 -5.5176968014536265e-01 +5.6914790281459649e-03
-5.0999999999999899e+00 +8.5262521138793108e+00 +0.0000000000000000e+00 -5.2020201303226203e+00 -3.0813574000241310e-02 -5.5180555469985748e-01 +5.6932314429257030e-03
-5.1499999999999897e+00 +8.5262375133206696e+00 +0.0000000000000000e+00 -5.2525251787172103e+00 -3.0816114811520665e-02 -5.5184164470778174e-01 +5.6949672124915907e-03
-5.1999999999999904e+00 +8.5262227709863492e+00 +0.0000000000000000e+00 -5.3030302270706198e+00 -3.0818667597529957e-02 -5.5187794714698601e-01 +5.6966862576096535e-03
-5.2499999999999902e+00 +8.5262078868836397e+00 +0.0000000000000000e+00 -5.3535352753824403e+00 -3.0821232166857726e-02 -5.5191445899524028e-01 +5.6983884990439758e-03
-5.2999999999999901e+00 +8.5261928610125306e+00 +0.0000000000000000e+00 -5.4040403236522803e+00 -3.0823808328092929e-02 -5.5195117723036546e-01 +5.7000738575582821e-03
-5.3499999999999899e+00 +8.5261776933584805e+00 +0.0000000000000000e+00 -5.4545453718797399e+00 -3.0826395889827614e-02 -5.5198809883028732e-01 +5.7017422539165806e-03
-5.3999999999999897e+00 +8.5261623839360308e+00 +0.0000000000000000e+00 -5.5050504200644301e+00 -3.0828994660640499e-02 -5.5202522077271676e-01 +5.7033936088793447e-03
-5.4499999999999904e+00 +8.5261469327415398e+00 +0.0000000000000000e+00 -5.5555554682059496e+00 -3.0831604449114619e-02 -5.5206254003549515e-01 +5.7050278432076345e-03
-5.4999999999999902e+00 +8.5261313397750200e+00 +0.0000000000000000e+00 -5.6060605163038897e+00 -3.0834225063829140e-02 -5.5210005359643510e-01 +5.7066448776611966e-03
-5.5499999999999901e+00 +8.5261156050328299e+00 +0.0000000000000000e+00 -5.6565655643578596e+00 -3.0836856313361961e-02 -5.5213775843337265e-01 +5.7082446329990936e-03
-5.5999999999999899e+00 +8.5260997285186004e+00 +0.0000000000000000e+00 -5.7070706123674597e+00 -3.0839498006285649e-02 -5.5217565152408787e-01 +5.7098270299787545e-03
-5.6499999999999897e+00 +8.5260837102287006e+00 +0.0000000000000000e+00 -5.7575756603323001e+00 -3.0842149951172775e-02 -5.5221372984641082e-01 +5.7113919893572382e-03
-5.6999999999999904e+00 +8.5260675501704100e+00 +0.0000000000000000e+00 -5.8080807082519703e+00 -3.0844811956589037e-02 -5.5225199037808836e-01 +5.7129394318896441e-03
-5.7499999999999902e+00 +8.5260512483400799e+00 +0.0000000000000000e+00 -5.8585857561260797e+00 -3.0847483831101488e-02 -5.5229043009694401e-01 +5.7144692783310204e-03
-5.7999999999999901e+00 +8.5260348047340795e+00 +0.0000000000000000e+00 -5.9090908039542303e+00 -3.0850165383274227e-02 -5.5232904598079724e-01 +5.7159814494354092e-03
-5.8499999999999899e+00 +8.5260182193524106e+00 +0.0000000000000000e+00 -5.9595958517360303e+00 -3.0852856421667137e-02 -5.5236783500743669e-01 +5.7174758659555196e-03
