# multipoles
# s[mm] polynom_b[n=0][T/m^n] polynom_b[n=1][T/m^n] polynom_b[n=2][T/m^n] polynom_b[n=3][T/m^n] polynom_b[n=4][T/m^n] polynom_b[n=5][T/m^n] polynom_b[n=6][T/m^n] 
-0.0000000000000000e+00 -5.4971851799981153e-01 +7.1960027524654553e+00 +5.0167456680404143e+00 -7.7968905416591198e+01 +2.0494170472932175e+04 +1.4191689307431641e+05 -1.1435007737815195e+08 
-5.0000000000000003e-02 -5.4971983607356045e-01 +7.1960046118563525e+00 +5.0212525643709496e+00 -7.7070538229062080e+01 +2.0370906802143087e+04 +1.3666817721288514e+05 -1.1363749211287244e+08 
-1.0000000000000001e-01 -5.4972158366112678e-01 +7.1960296783298112e+00 +5.0256634762766490e+00 -7.6172102726785411e+01 +2.0237877072743850e+04 +1.3148616488516500e+05 -1.1286588249523427e+08 
-1.4999999999999999e-01 -5.4972375970484666e-01 +7.1960779143904556e+00 +5.0299601074036540e+00 -7.5274643875256686e+01 +2.0095575396375047e+04 +1.2637623512572763e+05 -1.1203825911755070e+08 
-2.0000000000000001e-01 -5.4972636314696677e-01 +7.1961492825485953e+00 +5.0341241568783568e+00 -7.4379206825839418e+01 +1.9944496018541824e+04 +1.2134376848772755e+05 -1.1115763352373222e+08 
-2.5000000000000000e-01 -5.4972939292988310e-01 +7.1962437453124801e+00 +5.0381373297338685e+00 -7.3486836616757245e+01 +1.9785133011630063e+04 +1.1639414460093238e+05 -1.1022701603939068e+08 
-2.9999999999999999e-01 -5.4973284799591937e-01 +7.1963612651928015e+00 +5.0419813274061251e+00 -7.2598578346819181e+01 +1.9617980555111648e+04 +1.1153274360021760e+05 -1.0924941775289966e+08 
-3.4999999999999998e-01 -5.4973672728743805e-01 +7.1965018046997331e+00 +5.0456378507202038e+00 -7.1715477060288251e+01 +1.9443532839259893e+04 +1.0676494517406326e+05 -1.0822784980675888e+08 
-4.0000000000000002e-01 -5.4974102974684425e-01 +7.1966653263411287e+00 +5.0490886043363652e+00 -7.0838577671116269e+01 +1.9262283951594331e+04 +1.0209612794661192e+05 -1.0716532265244564e+08 
-4.5000000000000001e-01 -5.4974575431656392e-01 +7.1968517926313798e+00 +5.0523152885552935e+00 -6.9968925326596278e+01 +1.9074728096579227e+04 +9.7531672450369864e+04 -1.0606484752990991e+08 
-5.0000000000000000e-01 -5.4975089993901816e-01 +7.1970611660812063e+00 +5.0552996082384665e+00 -6.9107564985147590e+01 +1.8881359359355869e+04 +9.3076957664108369e+04 -1.0492943489042667e+08 
-5.5000000000000004e-01 -5.4975646555662150e-01 +7.1972934092028211e+00 +5.0580232640550991e+00 -6.8255541640436675e+01 +1.8682671935405429e+04 +8.8737362900223205e+04 -1.0376209592388071e+08 
-5.9999999999999998e-01 -5.4976245011189451e-01 +7.1975484845107376e+00 +5.0604679580585712e+00 -6.7413900338794804e+01 +1.8479159981313791e+04 +8.4518267843858732e+04 -1.0256584154825009e+08 
-6.5000000000000002e-01 -5.4976885254731644e-01 +7.1978263545184236e+00 +5.0626153955646576e+00 -6.6583686055721557e+01 +1.8271317568261777e+04 +8.0425051651981063e+04 -1.0134368212209328e+08 
-6.9999999999999996e-01 -5.4977567180541920e-01 +7.1981269817397733e+00 +5.0644472779457272e+00 -6.5765943754606184e+01 +1.8059638875126133e+04 +7.6463093378226898e+04 -1.0009862873126924e+08 
-7.5000000000000000e-01 -5.4978290682867315e-01 +7.1984503286925534e+00 +5.0659453067224733e+00 -6.4961718507023363e+01 +1.7844618076508847e+04 +7.2637772918127259e+04 -9.8833692439159438e+07 
-8.0000000000000004e-01 -5.4979055655969489e-01 +7.1987963578913101e+00 +5.0670911876317293e+00 -6.4172055241979990e+01 +1.7626749228101704e+04 +6.8954469059979368e+04 -9.7551883484674498e+07 
-8.4999999999999998e-01 -5.4979861994101653e-01 +7.1991650318539895e+00 +5.0678666208532182e+00 -6.3397998992497527e+01 +1.7406526549290469e+04 +6.5418561454716102e+04 -9.6256213267820835e+07 
-9.0000000000000002e-01 -5.4980709591524168e-01 +7.1995563131011924e+00 +5.0682533128017306e+00 -6.2640594862368211e+01 +1.7184444076666805e+04 +6.2035430306276881e+04 -9.4949691900633559e+07 
-9.4999999999999996e-01 -5.4981598342499716e-01 +7.1999701641498612e+00 +5.0682329644771125e+00 -6.1900887771580955e+01 +1.6960996007002821e+04 +5.8810454298342047e+04 -9.3635330629288256e+07 
-1.0000000000000000e+00 -5.4982528141285814e-01 +7.2004065475200436e+00 +5.0677872795708909e+00 -6.1179922754055930e+01 +1.6736676454693610e+04 +5.5749013136054426e+04 -9.2316140110704005e+07 
-1.0500000000000000e+00 -5.4983498882150761e-01 +7.2008654257344027e+00 +5.0668979626840187e+00 -6.0478744895493811e+01 +1.6511979520164939e+04 +5.2856486837304503e+04 -9.0995130948082492e+07 
-1.1000000000000001e+00 -5.4984510459362923e-01 +7.2013467613159454e+00 +5.0655467159081589e+00 -5.9798399296438149e+01 +1.6287399363699125e+04 +5.0138255671043604e+04 -8.9675314119754925e+07 
-1.1499999999999999e+00 -5.4985562767189766e-01 +7.2018505167859033e+00 +5.0637152454444845e+00 -5.9139930931360034e+01 +1.6063430042595699e+04 +4.7599698793841555e+04 -8.8359699941957697e+07 
-1.2000000000000000e+00 -5.4986655699900111e-01 +7.2023766546718893e+00 +5.0613852519268780e+00 -5.8504385014063281e+01 +1.5840565762283497e+04 +4.5246197348368070e+04 -8.7051299722004801e+07 
-1.2500000000000000e+00 -5.4987789151768141e-01 +7.2029251374981111e+00 +5.0585384424337265e+00 -5.7892806598648299e+01 +1.5619300556021877e+04 +4.3083131214204492e+04 -8.5753123614961609e+07 
-1.3000000000000000e+00 -5.4988963017070103e-01 +7.2034959277930168e+00 +5.0551565193600894e+00 -5.7306240878686296e+01 +1.5400128588714873e+04 +4.1115881381103260e+04 -8.4468182684628204e+07 
-1.3500000000000001e+00 -5.4990177190076339e-01 +7.2040889880828152e+00 +5.0512211861897898e+00 -5.6745732922477572e+01 +1.5183543989169824e+04 +3.9349827820373190e+04 -8.3199487727626696e+07 
-1.3999999999999999e+00 -5.4991431565071669e-01 +7.2047042808994766e+00 +5.0467141490827760e+00 -5.6212328024454337e+01 +1.4970040825388029e+04 +3.7790352410515006e+04 -8.1950049173096254e+07 
-1.4500000000000000e+00 -5.4992726036332096e-01 +7.2053417687739394e+00 +5.0416171103367606e+00 -5.5707071384282898e+01 +1.4760113265834141e+04 +3.6442836176810779e+04 -8.0722878118741274e+07 
-1.5000000000000000e+00 -5.4994060498141650e-01 +7.2060014142375950e+00 +5.0359117781428715e+00 -5.5231008218581152e+01 +1.4554255321538843e+04 +3.5312660375715073e+04 -7.9520984602024347e+07 
-1.5500000000000000e+00 -5.4995434844783386e-01 +7.2066831798251494e+00 +5.0295798559091027e+00 -5.4785183845011112e+01 +1.4352961136216582e+04 +3.4405207077104351e+04 -7.8347379574870944e+07 
-1.6000000000000001e+00 -5.4996848970543821e-01 +7.2073870280703414e+00 +5.0226030453692205e+00 -5.4370643514587009e+01 +1.4156724900253206e+04 +3.3725857796977507e+04 -7.7205074310461596e+07 
-1.6499999999999999e+00 -5.4998302769707441e-01 +7.2081129215124005e+00 +5.0149630551430251e+00 -5.3988432676248053e+01 +1.3966040622236429e+04 +3.3279995695603953e+04 -7.6097078868473560e+07 
-1.7000000000000000e+00 -5.4999796136568513e-01 +7.2088608226872264e+00 +5.0066415901534373e+00 -5.3639596622366227e+01 +1.3781402407719013e+04 +3.3073002651508767e+04 -7.5026403956429869e+07 
-1.7500000000000000e+00 -5.5001328965417562e-01 +7.2096306941359662e+00 +4.9976203539997162e+00 -5.3325180836160349e+01 +1.3603304407679212e+04 +3.3110262132515709e+04 -7.3996060625972137e+07 
-1.8000000000000000e+00 -5.5002901150543893e-01 +7.2104224983990859e+00 +4.9878810548298818e+00 -5.3046230747278067e+01 +1.3432240646826669e+04 +3.3397157182804578e+04 -7.3009059062380955e+07 
-1.8500000000000001e+00 -5.5004512586243259e-01 +7.2112361980207123e+00 +4.9774053953468540e+00 -5.2803791905648140e+01 +1.3268705299769739e+04 +3.3939071798414407e+04 -7.2068410477191925e+07 
-1.8999999999999999e+00 -5.5006163166817457e-01 +7.2120717555457707e+00 +4.9661750853183753e+00 -5.2598909886262632e+01 +1.3113192356904516e+04 +3.4741390260278211e+04 -7.1177124861857951e+07 
-1.9500000000000000e+00 -5.5007852786557199e-01 +7.2129291335180712e+00 +4.9541718260743650e+00 -5.2432630178344915e+01 +1.2966196035933748e+04 +3.5809496108998792e+04 -7.0338213743162185e+07 
-2.0000000000000000e+00 -5.5009566506433327e-01 +7.2138007222296796e+00 +4.9414941828344707e+00 -5.2306396615253909e+01 +1.2829235430975410e+04 +3.7132809244626987e+04 -6.9560453819567367e+07 
-2.0499999999999998e+00 -5.5011318271544818e-01 +7.2146935091454498e+00 +4.9280514694954087e+00 -5.2217117215439956e+01 +1.2700971825699138e+04 +3.8707159258146530e+04 -6.8836197197313935e+07 
-2.1000000000000001e+00 -5.5013107850597143e-01 +7.2156072736067731e+00 +4.9138568995451397e+00 -5.2162766772085028e+01 +1.2581237037820612e+04 +4.0516963345432305e+04 -6.8164451973733783e+07 
-2.1499999999999999e+00 -5.5014935012292832e-01 +7.2165417949554138e+00 +4.8989236839098593e+00 -5.2141320089404729e+01 +1.2469862951363404e+04 +4.2546638825159433e+04 -6.7544226679214358e+07 
-2.2000000000000002e+00 -5.5016799525338744e-01 +7.2174968525318981e+00 +4.8832650336123296e+00 -5.2150751895973471e+01 +1.2366681452481138e+04 +4.4780602347579828e+04 -6.6974529873632982e+07 
-2.2500000000000000e+00 -5.5018701158446304e-01 +7.2184722256802658e+00 +4.8668941615069263e+00 -5.2189037061641564e+01 +1.2271524372534333e+04 +4.7203271778221846e+04 -6.6454369725028135e+07 
-2.2999999999999998e+00 -5.5020639680322625e-01 +7.2194676937421223e+00 +4.8498242795586100e+00 -5.2254150334096195e+01 +1.2184223568395573e+04 +4.9799063957100348e+04 -6.5982754576886281e+07 
-2.3500000000000001e+00 -5.5022614859681662e-01 +7.2204830360628760e+00 +4.8320685955807017e+00 -5.2344066609476890e+01 +1.2104611013545520e+04 +5.2552396953915639e+04 -6.5558693576596424e+07 
-2.3999999999999999e+00 -5.5024626465228743e-01 +7.2215180319853465e+00 +4.8136403237542043e+00 -5.2456760654660016e+01 +1.2032518499117637e+04 +5.5447687766990210e+04 -6.5181194593202531e+07 
-2.4500000000000002e+00 -5.5026674265681152e-01 +7.2225724608512811e+00 +4.7945526735379511e+00 -5.2590207192020856e+01 +1.1967777952702954e+04 +5.8469353054095132e+04 -6.4849266453649253e+07 
-2.5000000000000000e+00 -5.5028758029750202e-01 +7.2236461020068647e+00 +4.7748188562773199e+00 -5.2742381112596924e+01 +1.1910221243116319e+04 +6.1601810864704355e+04 -6.4561917551645115e+07 
-2.5499999999999998e+00 -5.5030877526150346e-01 +7.2247387347985716e+00 +4.7544520819721878e+00 -5.2911257305419447e+01 +1.1859680278902622e+04 +6.4829479225963129e+04 -6.4318156561097346e+07 
-2.6000000000000001e+00 -5.5033032523601733e-01 +7.2258501385681946e+00 +4.7334655591984358e+00 -5.3094810462554065e+01 +1.1815987006800042e+04 +6.8136774550125701e+04 -6.4116992408140324e+07 
-2.6499999999999999e+00 -5.5035222790817384e-01 +7.2269800926638803e+00 +4.7118725012414515e+00 -5.3291015516472221e+01 +1.1778973241472486e+04 +7.1508115217734739e+04 -6.3957433104106918e+07 
-2.7000000000000002e+00 -5.5037448096512742e-01 +7.2281283764280744e+00 +4.6896861143815913e+00 -5.3497847170285503e+01 +1.1748470985602058e+04 +7.4927917758880372e+04 -6.3838487924072102e+07 
-2.7500000000000000e+00 -5.5039708209410332e-01 +7.2292947692082477e+00 +4.6669196104918083e+00 -5.3713280326053244e+01 +1.1724312096234495e+04 +7.8380600350805456e+04 -6.3759165174864948e+07 
-2.7999999999999998e+00 -5.5042002898224951e-01 +7.2304790503494649e+00 +4.6435861961304719e+00 -5.3935289760759183e+01 +1.1706328564201558e+04 +8.1850580072017314e+04 -6.3718474027429163e+07 
-2.8500000000000001e+00 -5.5044331931679980e-01 +7.2316809991971267e+00 +4.6196990810370995e+00 -5.4161850282466418e+01 +1.1694352302137839e+04 +8.5322274353724555e+04 -6.3715423146213494e+07 
-2.8999999999999999e+00 -5.5046695078497099e-01 +7.2329003950974915e+00 +4.5952714759663724e+00 -5.4390936718511689e+01 +1.1688215184419281e+04 +8.8780100750676764e+04 -6.3749020893632054e+07 
-2.9500000000000002e+00 -5.5049092107390807e-01 +7.2341370173956125e+00 +4.5703165859344947e+00 -5.4620523827654694e+01 +1.1687749246241270e+04 +9.2208476209967208e+04 -6.3818276737110414e+07 
-3.0000000000000000e+00 -5.5051522787088991e-01 +7.2353906454385859e+00 +4.5448476199853527e+00 -5.4848586474478672e+01 +1.1692786407523756e+04 +9.5591818644774001e+04 -6.3922199334110051e+07 
-3.0499999999999998e+00 -5.5053986886314688e-01 +7.2366610585699673e+00 +4.5188777860086375e+00 -5.5073099353055554e+01 +1.1703158621096782e+04 +9.8914544489680091e+04 -6.4059797566816151e+07 
-3.1000000000000001e+00 -5.5056484173787901e-01 +7.2379480361366486e+00 +4.4924202896435359e+00 -5.5292037301757723e+01 +1.1718697898674305e+04 +1.0216107142140770e+05 -6.4230080701998569e+07 
-3.1499999999999999e+00 -5.5059014418238472e-01 +7.2392513574846928e+00 +4.4654883389021744e+00 -5.5503375124630118e+01 +1.1739236183638332e+04 +1.0531581682899507e+05 -6.4432057524702325e+07 
-3.2000000000000002e+00 -5.5061577388382987e-01 +7.2405708019588868e+00 +4.4380951403030622e+00 -5.5705087554084500e+01 +1.1764605457727333e+04 +1.0836319747936539e+05 -6.4664737065186821e+07 
-3.2500000000000000e+00 -5.5064172852948035e-01 +7.2419061489034187e+00 +4.4102538976646368e+00 -5.5895149315362417e+01 +1.1794637777701462e+04 +1.1128763012255135e+05 -6.4927128864499860e+07 
-3.2999999999999998e+00 -5.5066800580663611e-01 +7.2432571776641037e+00 +4.3819778196790100e+00 -5.6071535191297343e+01 +1.1829165062010343e+04 +1.1407353197357747e+05 -6.5218241493881568e+07 
-3.3500000000000001e+00 -5.5069460340253251e-01 +7.2446236675849223e+00 +4.3532801072269365e+00 -5.6232219897001166e+01 +1.1868019440809469e+04 +1.1670531971139598e+05 -6.5537084956213720e+07 
-3.3999999999999999e+00 -5.5072151900442678e-01 +7.2460053980111976e+00 +4.3241739682669600e+00 -5.6375178183094043e+01 +1.1911032850109230e+04 +1.1916741024097004e+05 -6.5882667922114693e+07 
-3.4500000000000002e+00 -5.5074875029960524e-01 +7.2474021482876712e+00 +4.2946726057870732e+00 -5.6498384804990486e+01 +1.1958037356540532e+04 +1.2144422061413812e+05 -6.6253999927726813e+07 
-3.5000000000000000e+00 -5.5077629497530756e-01 +7.2488136977558364e+00 +4.2647892225315269e+00 -5.6599814369782983e+01 +1.2008865031564721e+04 +1.2352016659924478e+05 -6.6650090524829209e+07 
-3.5499999999999998e+00 -5.5080415071882038e-01 +7.2502398257597997e+00 +4.2345370236118072e+00 -5.6677441591647280e+01 +1.2063347881856922e+04 +1.2537966483676682e+05 -6.7069948819245189e+07 
-3.6000000000000001e+00 -5.5083231521746356e-01 +7.2516803116424118e+00 +4.2039292101204868e+00 -5.6729241153297160e+01 +1.2121318017116420e+04 +1.2700713177175209e+05 -6.7512584586787298e+07 
-3.6499999999999999e+00 -5.5086078615845091e-01 +7.2531349347472815e+00 +4.1729789863434714e+00 -5.6753187747726592e+01 +1.2182607461704780e+04 +1.2838698385824269e+05 -6.7977007019254223e+07 
-3.6999999999999900e+00 -5.5088956122911992e-01 +7.2546034744144174e+00 +4.1416995498826843e+00 -5.6747255953586418e+01 +1.2247048413685021e+04 +1.2950363669851588e+05 -6.8462226452522933e+07 
-3.7499999999999898e+00 -5.5091863811670649e-01 +7.2560857099853804e+00 +4.1101041069897670e+00 -5.6709420393110172e+01 +1.2314472840106888e+04 +1.3034150618947146e+05 -6.8967251661349624e+07 
-3.7999999999999901e+00 -5.5094801450851594e-01 +7.2575814208011771e+00 +4.0782058528255662e+00 -5.6637655684446472e+01 +1.2384712996095925e+04 +1.3088500821315205e+05 -6.9491093317902371e+07 
-3.8499999999999899e+00 -5.5097768809185776e-01 +7.2590903862032548e+00 +4.0460179910441818e+00 -5.6529936467926483e+01 +1.2457600913860222e+04 +1.3111855885002363e+05 -7.0032760603632048e+07 
-3.8999999999999901e+00 -5.5100765655399109e-01 +7.2606123855299574e+00 +4.0135537208608829e+00 -5.6384237266693745e+01 +1.2532968735521870e+04 +1.3102657322741616e+05 -7.0591263397430524e+07 
-3.9499999999999900e+00 -5.5103791754259490e-01 +7.2621472012959112e+00 +3.9808259975317970e+00 -5.6198735044319903e+01 +1.2610648083296226e+04 +1.3059507124443399e+05 -7.1165594516914859e+07 
-3.9999999999999898e+00 -5.5106846824698830e-01 +7.2636946456071909e+00 +3.9478448490272169e+00 -5.5973906862962885e+01 +1.2690489234247321e+04 +1.2982840577987643e+05 -7.1754756324730814e+07 
-4.0499999999999901e+00 -5.5109930556148790e-01 +7.2652545462802722e+00 +3.9146183828007173e+00 -5.5711696172626866e+01 +1.2772366697020161e+04 +1.2874265360016619e+05 -7.2357859438001156e+07 
-4.0999999999999899e+00 -5.5113042637556575e-01 +7.2668267312529826e+00 +3.8811546764524034e+00 -5.5414070803514676e+01 +1.2856155879903908e+04 +1.2735408718851328e+05 -7.2974020501880974e+07 
-4.1499999999999897e+00 -5.5116182757881205e-01 +7.2684110284620829e+00 +3.8474618089322274e+00 -5.5082998544530632e+01 +1.2941732162159231e+04 +1.2567897864160388e+05 -7.3602355995212018e+07 
-4.1999999999999904e+00 -5.5119350606067052e-01 +7.2700072658407882e+00 +3.8135478570428076e+00 -5.4720447033088931e+01 +1.3028970977490453e+04 +1.2373359880453287e+05 -7.4241982757838249e+07 
-4.2499999999999902e+00 -5.5122545871068196e-01 +7.2716152713263389e+00 +3.7794209005880215e+00 -5.4328384080354660e+01 +1.3117747681158880e+04 +1.2153421994012484e+05 -7.4892017112859771e+07 
-4.2999999999999901e+00 -5.5125768241833506e-01 +7.2732348728532576e+00 +3.7450890188015942e+00 -5.3908777381430070e+01 +1.3207937648264522e+04 +1.1909711331873029e+05 -7.5551575537299857e+07 
-4.3499999999999899e+00 -5.5129017407313341e-01 +7.2748658983558574e+00 +3.7105602895092074e+00 -5.3463594626406731e+01 +1.3299416290088602e+04 +1.1643855015323035e+05 -7.6219774751111597e+07 
-4.3999999999999897e+00 -5.5132293056462833e-01 +7.2765081757700889e+00 +3.6758427942386600e+00 -5.2994803574130046e+01 +1.3392058920366148e+04 +1.1357480219131769e+05 -7.6895730831102088e+07 
-4.4499999999999904e+00 -5.5135594878232863e-01 +7.2781615330308380e+00 +3.6409446115330213e+00 -5.2504371947081864e+01 +1.3485740937633547e+04 +1.1052214088309115e+05 -7.7578560447524175e+07 
-4.4999999999999902e+00 -5.5138922561571513e-01 +7.2798257980710588e+00 +3.6058738248354727e+00 -5.1994267387022077e+01 +1.3580337604504273e+04 +1.0729683698088714e+05 -7.8267379340871170e+07 
-4.5499999999999901e+00 -5.5142275795439111e-01 +7.2815007988262668e+00 +3.5706385111900287e+00 -5.1466457650905141e+01 +1.3675724361335711e+04 +1.0391516216289246e+05 -7.8961304479761943e+07 
-4.5999999999999899e+00 -5.5145654268776545e-01 +7.2831863632292624e+00 +3.5352467558001770e+00 -5.0922910372583090e+01 +1.3771776430294067e+04 +1.0039338704412304e+05 -7.9659451372990534e+07 
-4.6499999999999897e+00 -5.5149057670543400e-01 +7.2848823192133834e+00 +3.4997066397197769e+00 -5.0365593225300231e+01 +1.3868369144301123e+04 +9.6747782563241824e+04 -8.0360936275405556e+07 
-4.6999999999999904e+00 -5.5152485689691755e-01 +7.2865884947107116e+00 +3.4640262449736898e+00 -4.9796473838888410e+01 +1.3965377817397151e+04 +9.2994619293921918e+04 -8.1064875351081878e+07 
-4.7499999999999902e+00 -5.5155938015171346e-01 +7.2883047176563807e+00 +3.4282136548704787e+00 -4.9217519961494851e+01 +1.4062677725965756e+04 +8.9150168722814415e+04 -8.1770384503910780e+07 
-4.7999999999999901e+00 -5.5159414335938017e-01 +7.2900308159814715e+00 +3.3922769543890428e+00 -4.8630699187779534e+01 +1.4160144105831452e+04 +8.5230701059348547e+04 -8.2476579386425644e+07 
-4.8499999999999899e+00 -5.5162914340945868e-01 +7.2917666176157958e+00 +3.3562242261492874e+00 -4.8037979063988899e+01 +1.4257652256577874e+04 +8.1252486086352219e+04 -8.3182576089499995e+07 
-4.8999999999999897e+00 -5.5166437719136785e-01 +7.2935119504932153e+00 +3.3200635553114761e+00 -4.7441327301092144e+01 +1.4355077411288590e+04 +7.7231794903905000e+04 -8.3887490270156771e+07 
-4.9499999999999904e+00 -5.5169960201522716e-01 +7.2952547864545974e+00 +3.2840479725978491e+00 -4.6846752703730033e+01 +1.4451641183000582e+04 +7.3212196398311891e+04 -8.4585712952103570e+07 
-4.9999999999999902e+00 -5.5173505132165623e-01 +7.2970066872283352e+00 +3.2479418021552000e+00 -4.6252168576206991e+01 +1.4547877679189633e+04 +6.9182687122205243e+04 -8.5281128376876086e+07 
-5.0499999999999901e+00 -5.5177072206258104e-01 +7.2987674842015826e+00 +3.2117529656187993e+00 -4.5659503083476949e+01 +1.4643664673175017e+04 +6.5159211088408832e+04 -8.5972870239676386e+07 
