# field on trajectory
# s[mm] rx[mm] ry[mm] rz[mm] bx[T] by[T] bz[T]
0.0000000000000000e+00 +8.5980000000000008e+00 +0.0000000000000000e+00 +0.0000000000000000e+00 -2.9125161473653304e-02 -5.4956109070099302e-01 +5.3335107255889488e-03
-5.0000000000000003e-02 +8.5979999310691273e+00 +0.0000000000000000e+00 -4.9999999999936644e-02 -2.9125651393820874e-02 -5.4956870774588351e-01 +5.3350569797219706e-03
-1.0000000000000001e-01 +8.5979997242752173e+00 +0.0000000000000000e+00 -9.9999999999493161e-02 -2.9126164575579615e-02 -5.4957669940699827e-01 +5.3366052477585735e-03
-1.5000000000000002e-01 +8.5979993796162670e+00 +0.0000000000000000e+00 -1.4999999999828942e-01 -2.9126700864313539e-02 -5.4958506422774522e-01 +5.3381554214671691e-03
-2.0000000000000001e-01 +8.5979988970901768e+00 +0.0000000000000000e+00 -1.9999999999594525e-01 -2.9127260105406498e-02 -5.4959380075155073e-01 +5.3397073926163500e-03
-2.5000000000000000e-01 +8.5979982766947565e+00 +0.0000000000000000e+00 -2.4999999999208050e-01 -2.9127842144242161e-02 -5.4960290752185781e-01 +5.3412610529748666e-03
-2.9999999999999999e-01 +8.5979975184277198e+00 +0.0000000000000000e+00 -2.9999999998631499e-01 -2.9128446826204114e-02 -5.4961238308212723e-01 +5.3428162943115996e-03
-3.4999999999999998e-01 +8.5979966222866917e+00 +0.0000000000000000e+00 -3.4999999997826847e-01 -2.9129073996675858e-02 -5.4962222597583665e-01 +5.3443730083955442e-03
-3.9999999999999997e-01 +8.5979955882692014e+00 +0.0000000000000000e+00 -3.9999999996756069e-01 -2.9129723501040865e-02 -5.4963243474648005e-01 +5.3459310869957890e-03
-4.4999999999999996e-01 +8.5979944163726891e+00 +0.0000000000000000e+00 -4.4999999995381146e-01 -2.9130395184682658e-02 -5.4964300793756893e-01 +5.3474904218814888e-03
-4.9999999999999994e-01 +8.5979931065945010e+00 +0.0000000000000000e+00 -4.9999999993664040e-01 -2.9131088892984772e-02 -5.4965394409263069e-01 +5.3490509048218469e-03
-5.4999999999999993e-01 +8.5979916589318961e+00 +0.0000000000000000e+00 -5.4999999991566728e-01 -2.9131804471330867e-02 -5.4966524175520881e-01 +5.3506124275860979e-03
-5.9999999999999998e-01 +8.5979900733820376e+00 +0.0000000000000000e+00 -5.9999999989051178e-01 -2.9132541765104748e-02 -5.4967689946886289e-01 +5.3521748819434778e-03
-6.5000000000000002e-01 +8.5979883499420033e+00 +0.0000000000000000e+00 -6.4999999986079349e-01 -2.9133300619690387e-02 -5.4968891577716794e-01 +5.3537381596632074e-03
-7.0000000000000007e-01 +8.5979864886087789e+00 +0.0000000000000000e+00 -6.9999999982613204e-01 -2.9134080880472004e-02 -5.4970128922371508e-01 +5.3553021525144682e-03
-7.5000000000000011e-01 +8.5979844893792592e+00 +0.0000000000000000e+00 -7.4999999978614706e-01 -2.9134882392834072e-02 -5.4971401835211009e-01 +5.3568667522663881e-03
-8.0000000000000016e-01 +8.5979823522502521e+00 +0.0000000000000000e+00 -7.9999999974045799e-01 -2.9135705002161390e-02 -5.4972710170597439e-01 +5.3584318506880091e-03
-8.5000000000000020e-01 +8.5979800772184749e+00 +0.0000000000000000e+00 -8.4999999968868445e-01 -2.9136548553839077e-02 -5.4974053782894350e-01 +5.3599973395482689e-03
-9.0000000000000024e-01 +8.5979776642805561e+00 +0.0000000000000000e+00 -8.9999999963044586e-01 -2.9137412893252675e-02 -5.4975432526466872e-01 +5.3615631106159849e-03
-9.5000000000000029e-01 +8.5979751134330389e+00 +0.0000000000000000e+00 -9.4999999956536174e-01 -2.9138297865788157e-02 -5.4976846255681455e-01 +5.3631290556598338e-03
-1.0000000000000002e+00 +8.5979724246723759e+00 +0.0000000000000000e+00 -9.9999999949305152e-01 -2.9139203316831949e-02 -5.4978294824905993e-01 +5.3646950664483096e-03
-1.0500000000000003e+00 +8.5979695979949344e+00 +0.0000000000000000e+00 -1.0499999994131346e+00 -2.9140129091771050e-02 -5.4979778088509890e-01 +5.3662610347497385e-03
-1.1000000000000003e+00 +8.5979666333969931e+00 +0.0000000000000000e+00 -1.0999999993252303e+00 -2.9141075035992958e-02 -5.4981295900863802e-01 +5.3678268523322187e-03
-1.1500000000000004e+00 +8.5979635308747433e+00 +0.0000000000000000e+00 -1.1499999992289580e+00 -2.9142040994885831e-02 -5.4982848116339766e-01 +5.3693924109636309e-03
-1.2000000000000004e+00 +8.5979602904242931e+00 +0.0000000000000000e+00 -1.1999999991239370e+00 -2.9143026813838433e-02 -5.4984434589311193e-01 +5.3709576024115928e-03
-1.2500000000000004e+00 +8.5979569120416617e+00 +0.0000000000000000e+00 -1.2499999990097863e+00 -2.9144032338240221e-02 -5.4986055174152759e-01 +5.3725223184434489e-03
-1.3000000000000005e+00 +8.5979533957227829e+00 +0.0000000000000000e+00 -1.2999999988861255e+00 -2.9145057413481387e-02 -5.4987709725240441e-01 +5.3740864508262541e-03
-1.3500000000000005e+00 +8.5979497414635091e+00 +0.0000000000000000e+00 -1.3499999987525735e+00 -2.9146101884952917e-02 -5.4989398096951547e-01 +5.3756498913267361e-03
-1.4000000000000006e+00 +8.5979459492596018e+00 +0.0000000000000000e+00 -1.3999999986087495e+00 -2.9147165598046570e-02 -5.4991120143664518e-01 +5.3772125317112923e-03
-1.4500000000000006e+00 +8.5979420191067426e+00 +0.0000000000000000e+00 -1.4499999984542726e+00 -2.9148248398154983e-02 -5.4992875719759116e-01 +5.3787742637459507e-03
-1.5000000000000007e+00 +8.5979379510005280e+00 +0.0000000000000000e+00 -1.4999999982887620e+00 -2.9149350130671683e-02 -5.4994664679616256e-01 +5.3803349791963634e-03
-1.5500000000000007e+00 +8.5979337449364692e+00 +0.0000000000000000e+00 -1.5499999981118364e+00 -2.9150470640991161e-02 -5.4996486877617989e-01 +5.3818945698277795e-03
-1.6000000000000008e+00 +8.5979294009099974e+00 +0.0000000000000000e+00 -1.5999999979231150e+00 -2.9151609774508837e-02 -5.4998342168147640e-01 +5.3834529274050125e-03
-1.6500000000000008e+00 +8.5979249189164566e+00 +0.0000000000000000e+00 -1.6499999977222164e+00 -2.9152767376621220e-02 -5.5000230405589623e-01 +5.3850099436924415e-03
-1.7000000000000008e+00 +8.5979202989511094e+00 +0.0000000000000000e+00 -1.6999999975087596e+00 -2.9153943292725804e-02 -5.5002151444329384e-01 +5.3865655104539650e-03
-1.7500000000000009e+00 +8.5979155410091384e+00 +0.0000000000000000e+00 -1.7499999972823637e+00 -2.9155137368221267e-02 -5.5004105138753545e-01 +5.3881195194530026e-03
-1.8000000000000009e+00 +8.5979106450856424e+00 +0.0000000000000000e+00 -1.7999999970426470e+00 -2.9156349448507406e-02 -5.5006091343249830e-01 +5.3896718624524588e-03
-1.8500000000000010e+00 +8.5979056111756389e+00 +0.0000000000000000e+00 -1.8499999967892287e+00 -2.9157579378985200e-02 -5.5008109912206971e-01 +5.3912224312146970e-03
-1.9000000000000010e+00 +8.5979004392740634e+00 +0.0000000000000000e+00 -1.8999999965217271e+00 -2.9158827005056863e-02 -5.5010160700014699e-01 +5.3927711175015356e-03
-1.9500000000000011e+00 +8.5978951293757717e+00 +0.0000000000000000e+00 -1.9499999962397609e+00 -2.9160092172125899e-02 -5.5012243561063756e-01 +5.3943178130742113e-03
-2.0000000000000009e+00 +8.5978896814755394e+00 +0.0000000000000000e+00 -1.9999999959429489e+00 -2.9161374725597100e-02 -5.5014358349745907e-01 +5.3958624096933630e-03
-2.0500000000000007e+00 +8.5978840955680624e+00 +0.0000000000000000e+00 -2.0499999956309094e+00 -2.9162674525061265e-02 -5.5016504899568830e-01 +5.3974048054016999e-03
-2.1000000000000005e+00 +8.5978783716479548e+00 +0.0000000000000000e+00 -2.0999999953032611e+00 -2.9163991486849006e-02 -5.5018682960501153e-01 +5.3989449233721549e-03
-2.1500000000000004e+00 +8.5978725097097524e+00 +0.0000000000000000e+00 -2.1499999949596220e+00 -2.9165325541476717e-02 -5.5020892261627319e-01 +5.4004826930600059e-03
-2.2000000000000002e+00 +8.5978665097479148e+00 +0.0000000000000000e+00 -2.1999999945996107e+00 -2.9166676619462002e-02 -5.5023132532032748e-01 +5.4020180439202136e-03
-2.2500000000000000e+00 +8.5978603717568198e+00 +0.0000000000000000e+00 -2.2499999942228457e+00 -2.9168044651323711e-02 -5.5025403500803793e-01 +5.4035509054073984e-03
-2.2999999999999998e+00 +8.5978540957307725e+00 +0.0000000000000000e+00 -2.2999999938289446e+00 -2.9169429567581888e-02 -5.5027704897027585e-01 +5.4050812069758834e-03
-2.3499999999999996e+00 +8.5978476816639997e+00 +0.0000000000000000e+00 -2.3499999934175264e+00 -2.9170831298757902e-02 -5.5030036449792230e-01 +5.4066088780796370e-03
-2.3999999999999995e+00 +8.5978411295506518e+00 +0.0000000000000000e+00 -2.3999999929882088e+00 -2.9172249775374363e-02 -5.5032397888186591e-01 +5.4081338481723204e-03
-2.4499999999999993e+00 +8.5978344393848065e+00 +0.0000000000000000e+00 -2.4499999925406097e+00 -2.9173684927955246e-02 -5.5034788941300417e-01 +5.4096560467072549e-03
-2.4999999999999991e+00 +8.5978276111604650e+00 +0.0000000000000000e+00 -2.4999999920743474e+00 -2.9175136687025843e-02 -5.5037209338224191e-01 +5.4111754031374365e-03
-2.5499999999999989e+00 +8.5978206448715557e+00 +0.0000000000000000e+00 -2.5499999915890399e+00 -2.9176604983112874e-02 -5.5039658808049241e-01 +5.4126918469155280e-03
-2.5999999999999988e+00 +8.5978135405119325e+00 +0.0000000000000000e+00 -2.5999999910843048e+00 -2.9178089746744389e-02 -5.5042137079867537e-01 +5.4142053074938594e-03
-2.6499999999999986e+00 +8.5978062980753798e+00 +0.0000000000000000e+00 -2.6499999905597602e+00 -2.9179590908449897e-02 -5.5044643882771938e-01 +5.4157157143244206e-03
-2.6999999999999984e+00 +8.5977989175556093e+00 +0.0000000000000000e+00 -2.6999999900150238e+00 -2.9181108398760376e-02 -5.5047178945855879e-01 +5.4172229968588734e-03
-2.7499999999999982e+00 +8.5977913989462635e+00 +0.0000000000000000e+00 -2.7499999894497131e+00 -2.9182642148208229e-02 -5.5049741998213586e-01 +5.4187270845485348e-03
-2.7999999999999980e+00 +8.5977837422409102e+00 +0.0000000000000000e+00 -2.7999999888634459e+00 -2.9184192087327417e-02 -5.5052332768939916e-01 +5.4202279068443883e-03
-2.8499999999999979e+00 +8.5977759474330515e+00 +0.0000000000000000e+00 -2.8499999882558398e+00 -2.9185758146653407e-02 -5.5054950987130358e-01 +5.4217253931970726e-03
-2.8999999999999977e+00 +8.5977680145161202e+00 +0.0000000000000000e+00 -2.8999999876265123e+00 -2.9187340256723197e-02 -5.5057596381881124e-01 +5.4232194730568827e-03
-2.9499999999999975e+00 +8.5977599434834797e+00 +0.0000000000000000e+00 -2.9499999869750808e+00 -2.9188938348075396e-02 -5.5060268682288938e-01 +5.4247100758737761e-03
-2.9999999999999973e+00 +8.5977517343284262e+00 +0.0000000000000000e+00 -2.9999999863011628e+00 -2.9190552351250214e-02 -5.5062967617451164e-01 +5.4261971310973645e-03
-3.0499999999999972e+00 +8.5977433870441899e+00 +0.0000000000000000e+00 -3.0499999856043756e+00 -2.9192182196789481e-02 -5.5065692916465736e-01 +5.4276805681769064e-03
-3.0999999999999970e+00 +8.5977349016239337e+00 +0.0000000000000000e+00 -3.0999999848843363e+00 -2.9193827815236679e-02 -5.5068444308431097e-01 +5.4291603165613168e-03
-3.1499999999999968e+00 +8.5977262780607546e+00 +0.0000000000000000e+00 -3.1499999841406621e+00 -2.9195489137137001e-02 -5.5071221522446279e-01 +5.4306363056991613e-03
-3.1999999999999966e+00 +8.5977175163476875e+00 +0.0000000000000000e+00 -3.1999999833729702e+00 -2.9197166093037318e-02 -5.5074024287610812e-01 +5.4321084650386549e-03
-3.2499999999999964e+00 +8.5977086164777017e+00 +0.0000000000000000e+00 -3.2499999825808774e+00 -2.9198858613486242e-02 -5.5076852333024651e-01 +5.4335767240276554e-03
-3.2999999999999963e+00 +8.5976995784437023e+00 +0.0000000000000000e+00 -3.2999999817640009e+00 -2.9200566629034159e-02 -5.5079705387788314e-01 +5.4350410121136762e-03
-3.3499999999999961e+00 +8.5976904022385323e+00 +0.0000000000000000e+00 -3.3499999809219574e+00 -2.9202290070233231e-02 -5.5082583181002676e-01 +5.4365012587438664e-03
-3.3999999999999959e+00 +8.5976810878549728e+00 +0.0000000000000000e+00 -3.3999999800543641e+00 -2.9204028867637431e-02 -5.5085485441769144e-01 +5.4379573933650231e-03
-3.4499999999999957e+00 +8.5976716352857441e+00 +0.0000000000000000e+00 -3.4499999791608373e+00 -2.9205782951802567e-02 -5.5088411899189416e-01 +5.4394093454235857e-03
-3.4999999999999956e+00 +8.5976620445235046e+00 +0.0000000000000000e+00 -3.4999999782409943e+00 -2.9207552253286317e-02 -5.5091362282365641e-01 +5.4408570443656261e-03
-3.5499999999999954e+00 +8.5976523155608540e+00 +0.0000000000000000e+00 -3.5499999772944513e+00 -2.9209336702648237e-02 -5.5094336320400306e-01 +5.4423004196368649e-03
-3.5999999999999952e+00 +8.5976424483903298e+00 +0.0000000000000000e+00 -3.5999999763208246e+00 -2.9211136230449811e-02 -5.5097333742396271e-01 +5.4437394006826567e-03
-3.6499999999999950e+00 +8.5976324430044144e+00 +0.0000000000000000e+00 -3.6499999753197310e+00 -2.9212950767254456e-02 -5.5100354277456687e-01 +5.4451739169479856e-03
-3.6999999999999948e+00 +8.5976222993955318e+00 +0.0000000000000000e+00 -3.6999999742907872e+00 -2.9214780243627562e-02 -5.5103397654685049e-01 +5.4466038978774811e-03
-3.7499999999999947e+00 +8.5976120175560453e+00 +0.0000000000000000e+00 -3.7499999732336091e+00 -2.9216624590136499e-02 -5.5106463603185096e-01 +5.4480292729153961e-03
-3.7999999999999945e+00 +8.5976015974782651e+00 +0.0000000000000000e+00 -3.7999999721478130e+00 -2.9218483737350656e-02 -5.5109551852060812e-01 +5.4494499715056245e-03
-3.8499999999999943e+00 +8.5975910391544446e+00 +0.0000000000000000e+00 -3.8499999710330153e+00 -2.9220357615841481e-02 -5.5112662130416501e-01 +5.4508659230916778e-03
-3.8999999999999941e+00 +8.5975803425767801e+00 +0.0000000000000000e+00 -3.8999999698888317e+00 -2.9222246156182470e-02 -5.5115794167356558e-01 +5.4522770571167039e-03
-3.9499999999999940e+00 +8.5975695077374166e+00 +0.0000000000000000e+00 -3.9499999687148781e+00 -2.9224149288949241e-02 -5.5118947691985742e-01 +5.4536833030234795e-03
-3.9999999999999938e+00 +8.5975585346284422e+00 +0.0000000000000000e+00 -3.9999999675107709e+00 -2.9226066944719506e-02 -5.5122122433408849e-01 +5.4550845902544033e-03
-4.0499999999999936e+00 +8.5975474232418936e+00 +0.0000000000000000e+00 -4.0499999662761255e+00 -2.9227999024576738e-02 -5.5125318118988598e-01 +5.4564808575045852e-03
-4.0999999999999934e+00 +8.5975361735697540e+00 +0.0000000000000000e+00 -4.0999999650105581e+00 -2.9229945311619678e-02 -5.5128534469118440e-01 +5.4578720804812448e-03
-4.1499999999999932e+00 +8.5975247856039552e+00 +0.0000000000000000e+00 -4.1499999637136842e+00 -2.9231905559449697e-02 -5.5131771202449387e-01 +5.4592582441445004e-03
-4.1999999999999931e+00 +8.5975132593363774e+00 +0.0000000000000000e+00 -4.1999999623851201e+00 -2.9233879521667019e-02 -5.5135028037632317e-01 +5.4606393334542544e-03
-4.2499999999999929e+00 +8.5975015947588513e+00 +0.0000000000000000e+00 -4.2499999610244803e+00 -2.9235866951870599e-02 -5.5138304693317775e-01 +5.4620153333701932e-03
-4.2999999999999927e+00 +8.5974897918631576e+00 +0.0000000000000000e+00 -4.2999999596313812e+00 -2.9237867603658027e-02 -5.5141600888156184e-01 +5.4633862288518036e-03
-4.3499999999999925e+00 +8.5974778506410274e+00 +0.0000000000000000e+00 -4.3499999582054372e+00 -2.9239881230625566e-02 -5.5144916340797634e-01 +5.4647520048583661e-03
-4.3999999999999924e+00 +8.5974657710841438e+00 +0.0000000000000000e+00 -4.3999999567462647e+00 -2.9241907586367952e-02 -5.5148250769891893e-01 +5.4661126463489609e-03
-4.4499999999999922e+00 +8.5974535531841418e+00 +0.0000000000000000e+00 -4.4499999552534781e+00 -2.9243946424478379e-02 -5.5151603894088463e-01 +5.4674681382824693e-03
-4.4999999999999920e+00 +8.5974411969326106e+00 +0.0000000000000000e+00 -4.4999999537266930e+00 -2.9245997498548417e-02 -5.5154975432036402e-01 +5.4688184656175812e-03
-4.5499999999999918e+00 +8.5974287023210927e+00 +0.0000000000000000e+00 -4.5499999521655239e+00 -2.9248060562167930e-02 -5.5158365102384432e-01 +5.4701636133127956e-03
-4.5999999999999917e+00 +8.5974160693410848e+00 +0.0000000000000000e+00 -4.5999999505695861e+00 -2.9250135368925033e-02 -5.5161772623780869e-01 +5.4715035663264267e-03
-4.6499999999999915e+00 +8.5974032979840391e+00 +0.0000000000000000e+00 -4.6499999489384942e+00 -2.9252221672405970e-02 -5.5165197714873526e-01 +5.4728383096166039e-03
-4.6999999999999913e+00 +8.5973903882413634e+00 +0.0000000000000000e+00 -4.6999999472718637e+00 -2.9254319226195053e-02 -5.5168640094309795e-01 +5.4741678281412772e-03
-4.7499999999999911e+00 +8.5973773401044227e+00 +0.0000000000000000e+00 -4.7499999455693089e+00 -2.9256427783874630e-02 -5.5172099480736514e-01 +5.4754921068582213e-03
-4.7999999999999909e+00 +8.5973641535645378e+00 +0.0000000000000000e+00 -4.7999999438304446e+00 -2.9258547099024944e-02 -5.5175575592800030e-01 +5.4768111307250331e-03
-4.8499999999999908e+00 +8.5973508286129903e+00 +0.0000000000000000e+00 -4.8499999420548852e+00 -2.9260676925224108e-02 -5.5179068149146093e-01 +5.4781248846991490e-03
-4.8999999999999906e+00 +8.5973373652410192e+00 +0.0000000000000000e+00 -4.8999999402422452e+00 -2.9262817016048017e-02 -5.5182576868419864e-01 +5.4794333537378321e-03
-4.9499999999999904e+00 +8.5973237634398227e+00 +0.0000000000000000e+00 -4.9499999383921391e+00 -2.9264967125070249e-02 -5.5186101469265902e-01 +5.4807365227981840e-03
-4.9999999999999902e+00 +8.5973100232005581e+00 +0.0000000000000000e+00 -4.9999999365041816e+00 -2.9267127005862034e-02 -5.5189641670328093e-01 +5.4820343768371494e-03
-5.0499999999999901e+00 +8.5972961445143454e+00 +0.0000000000000000e+00 -5.0499999345779862e+00 -2.9269296411992152e-02 -5.5193197190249677e-01 +5.4833269008115158e-03
-5.0999999999999899e+00 +8.5972821273722673e+00 +0.0000000000000000e+00 -5.0999999326131675e+00 -2.9271475097026871e-02 -5.5196767747673092e-01 +5.4846140796779210e-03
-5.1499999999999897e+00 +8.5972679717653637e+00 +0.0000000000000000e+00 -5.1499999306093391e+00 -2.9273662814529845e-02 -5.5200353061240182e-01 +5.4858958983928507e-03
-5.1999999999999895e+00 +8.5972536776846429e+00 +0.0000000000000000e+00 -5.1999999285661156e+00 -2.9275859318062075e-02 -5.5203952849591886e-01 +5.4871723419126443e-03
-5.2499999999999893e+00 +8.5972392451210737e+00 +0.0000000000000000e+00 -5.2499999264831105e+00 -2.9278064361181817e-02 -5.5207566831368415e-01 +5.4884433951935020e-03
-5.2999999999999892e+00 +8.5972246740655915e+00 +0.0000000000000000e+00 -5.2999999243599376e+00 -2.9280277697444509e-02 -5.5211194725209145e-01 +5.4897090431914857e-03
-5.3499999999999890e+00 +8.5972099645090960e+00 +0.0000000000000000e+00 -5.3499999221962113e+00 -2.9282499080402705e-02 -5.5214836249752608e-01 +5.4909692708625200e-03
-5.3999999999999888e+00 +8.5971951164424514e+00 +0.0000000000000000e+00 -5.3999999199915445e+00 -2.9284728263605959e-02 -5.5218491123636426e-01 +5.4922240631623976e-03
-5.4499999999999886e+00 +8.5971801298564881e+00 +0.0000000000000000e+00 -5.4499999177455507e+00 -2.9286965000600847e-02 -5.5222159065497312e-01 +5.4934734050467874e-03
-5.4999999999999885e+00 +8.5971650047420063e+00 +0.0000000000000000e+00 -5.4999999154578436e+00 -2.9289209044930768e-02 -5.5225839793971065e-01 +5.4947172814712288e-03
-5.5499999999999883e+00 +8.5971497410897726e+00 +0.0000000000000000e+00 -5.5499999131280369e+00 -2.9291460150135961e-02 -5.5229533027692490e-01 +5.4959556773911417e-03
-5.5999999999999881e+00 +8.5971343388905233e+00 +0.0000000000000000e+00 -5.5999999107557432e+00 -2.9293718069753394e-02 -5.5233238485295366e-01 +5.4971885777618237e-03
-5.6499999999999879e+00 +8.5971187981349626e+00 +0.0000000000000000e+00 -5.6499999083405763e+00 -2.9295982557316698e-02 -5.5236955885412464e-01 +5.4984159675384638e-03
-5.6999999999999877e+00 +8.5971031188137648e+00 +0.0000000000000000e+00 -5.6999999058821489e+00 -2.9298253366356098e-02 -5.5240684946675533e-01 +5.4996378316761385e-03
-5.7499999999999876e+00 +8.5970873009175772e+00 +0.0000000000000000e+00 -5.7499999033800746e+00 -2.9300530250398304e-02 -5.5244425387715212e-01 +5.5008541551298164e-03
-5.7999999999999874e+00 +8.5970713444370155e+00 +0.0000000000000000e+00 -5.7999999008339662e+00 -2.9302812962966496e-02 -5.5248176927160897e-01 +5.5020649228543581e-03
-5.8499999999999872e+00 +8.5970552493626684e+00 +0.0000000000000000e+00 -5.8499998982434356e+00 -2.9305101257580197e-02 -5.5251939283641127e-01 +5.5032701198045311e-03
