# field on trajectory
# s[mm] rx[mm] ry[mm] rz[mm] bx[T] by[T] bz[T]
0.0000000000000000e+00 +8.3650000000000002e+00 +0.0000000000000000e+00 +0.0000000000000000e+00 -2.8058327320458730e-02 -5.2478088632712361e-01 +5.0699965866418456e-03
5.0000000000000003e-02 +8.3649999309873344e+00 +0.0000000000000000e+00 +4.9999999999936498e-02 -2.8058465156174699e-02 -5.2478262391049790e-01 +5.0704750360000455e-03
1.0000000000000001e-01 +8.3649997239490155e+00 +0.0000000000000000e+00 +9.9999999999491967e-02 -2.8058625422751830e-02 -5.2478472783000796e-01 +5.0709624511384443e-03
1.5000000000000002e-01 +8.3649993788844892e+00 +0.0000000000000000e+00 +1.4999999999828539e-01 -2.8058807990162950e-02 -5.2478719719789735e-01 +5.0714588138549245e-03
2.0000000000000001e-01 +8.3649988957931072e+00 +0.0000000000000000e+00 +1.9999999999593576e-01 -2.8059012728382415e-02 -5.2479003112642775e-01 +5.0719641059478590e-03
2.5000000000000000e-01 +8.3649982746741234e+00 +0.0000000000000000e+00 +2.4999999999206202e-01 -2.8059239507386136e-02 -5.2479322872787748e-01 +5.0724783092161050e-03
2.9999999999999999e-01 +8.3649975155266958e+00 +0.0000000000000000e+00 +2.9999999998628313e-01 -2.8059488197151400e-02 -5.2479678911454086e-01 +5.0730014054590029e-03
3.4999999999999998e-01 +8.3649966183498901e+00 +0.0000000000000000e+00 +3.4999999997821801e-01 -2.8059758667656885e-02 -5.2480071139872986e-01 +5.0735333764763933e-03
3.9999999999999997e-01 +8.3649955831426741e+00 +0.0000000000000000e+00 +3.9999999996748559e-01 -2.8060050788882535e-02 -5.2480499469277331e-01 +5.0740742040685871e-03
4.4999999999999996e-01 +8.3649944099039200e+00 +0.0000000000000000e+00 +4.4999999995370482e-01 -2.8060364430809500e-02 -5.2480963810901549e-01 +5.0746238700363861e-03
4.9999999999999994e-01 +8.3649930986324073e+00 +0.0000000000000000e+00 +4.9999999993649463e-01 -2.8060699463420109e-02 -5.2481464075981843e-01 +5.0751823561810934e-03
5.4999999999999993e-01 +8.3649916493268215e+00 +0.0000000000000000e+00 +5.4999999991547388e-01 -2.8061055756697696e-02 -5.2482000175756016e-01 +5.0757496443044796e-03
5.9999999999999998e-01 +8.3649900619857505e+00 +0.0000000000000000e+00 +5.9999999989026154e-01 -2.8061433180626691e-02 -5.2482572021463503e-01 +5.0763257162088167e-03
6.5000000000000002e-01 +8.3649883366076914e+00 +0.0000000000000000e+00 +6.4999999986047641e-01 -2.8061831605192395e-02 -5.2483179524345380e-01 +5.0769105536968588e-03
7.0000000000000007e-01 +8.3649864731910473e+00 +0.0000000000000000e+00 +6.9999999982573735e-01 -2.8062250900380972e-02 -5.2483822595644358e-01 +5.0775041385718528e-03
7.5000000000000011e-01 +8.3649844717341253e+00 +0.0000000000000000e+00 +7.4999999978566323e-01 -2.8062690936179392e-02 -5.2484501146604690e-01 +5.0781064526375218e-03
8.0000000000000016e-01 +8.3649823322351420e+00 +0.0000000000000000e+00 +7.9999999973987279e-01 -2.8063151582575347e-02 -5.2485215088472303e-01 +5.0787174776980902e-03
8.5000000000000020e-01 +8.3649800546922179e+00 +0.0000000000000000e+00 +8.4999999968798490e-01 -2.8063632709557172e-02 -5.2485964332494728e-01 +5.0793371955582594e-03
9.0000000000000024e-01 +8.3649776391033850e+00 +0.0000000000000000e+00 +8.9999999962961830e-01 -2.8064134187113794e-02 -5.2486748789921023e-01 +5.0799655880232305e-03
9.5000000000000029e-01 +8.3649750854665790e+00 +0.0000000000000000e+00 +9.4999999956439185e-01 -2.8064655885234630e-02 -5.2487568372001925e-01 +5.0806026368986857e-03
1.0000000000000002e+00 +8.3649723937796434e+00 +0.0000000000000000e+00 +9.9999999949192420e-01 -2.8065197673909553e-02 -5.2488422989989614e-01 +5.0812483239907891e-03
1.0500000000000003e+00 +8.3649695640403312e+00 +0.0000000000000000e+00 +1.0499999994118341e+00 -2.8065759423128799e-02 -5.2489312555137912e-01 +5.0819026311062082e-03
1.1000000000000003e+00 +8.3649665962463029e+00 +0.0000000000000000e+00 +1.0999999993237402e+00 -2.8066341002882897e-02 -5.2490236978702243e-01 +5.0825655400520905e-03
1.1500000000000004e+00 +8.3649634903951267e+00 +0.0000000000000000e+00 +1.1499999992272611e+00 -2.8066942283162623e-02 -5.2491196171939469e-01 +5.0832370326360718e-03
1.2000000000000004e+00 +8.3649602464842800e+00 +0.0000000000000000e+00 +1.1999999991220156e+00 -2.8067563133958882e-02 -5.2492190046108078e-01 +5.0839170906662795e-03
1.2500000000000004e+00 +8.3649568645111483e+00 +0.0000000000000000e+00 +1.2499999990076223e+00 -2.8068203425262690e-02 -5.2493218512468076e-01 +5.0846056959513285e-03
1.3000000000000005e+00 +8.3649533444730277e+00 +0.0000000000000000e+00 +1.2999999988836997e+00 -2.8068863027065061e-02 -5.2494281482280936e-01 +5.0853028303003240e-03
1.3500000000000005e+00 +8.3649496863671207e+00 +0.0000000000000000e+00 +1.3499999987498663e+00 -2.8069541809356977e-02 -5.2495378866809750e-01 +5.0860084755228619e-03
1.4000000000000006e+00 +8.3649458901905422e+00 +0.0000000000000000e+00 +1.3999999986057408e+00 -2.8070239642129256e-02 -5.2496510577319011e-01 +5.0867226134290247e-03
1.4500000000000006e+00 +8.3649419559403171e+00 +0.0000000000000000e+00 +1.4499999984509415e+00 -2.8070956395372576e-02 -5.2497676525074799e-01 +5.0874452258293816e-03
1.5000000000000007e+00 +8.3649378836133774e+00 +0.0000000000000000e+00 +1.4999999982850871e+00 -2.8071691939077294e-02 -5.2498876621344592e-01 +5.0881762945350012e-03
1.5500000000000007e+00 +8.3649336732065667e+00 +0.0000000000000000e+00 +1.5499999981077959e+00 -2.8072446143233478e-02 -5.2500110777397468e-01 +5.0889158013574321e-03
1.6000000000000008e+00 +8.3649293247166376e+00 +0.0000000000000000e+00 +1.5999999979186863e+00 -2.8073218877830753e-02 -5.2501378904503937e-01 +5.0896637281087178e-03
1.6500000000000008e+00 +8.3649248381402579e+00 +0.0000000000000000e+00 +1.6499999977173767e+00 -2.8074010012858298e-02 -5.2502680913935929e-01 +5.0904200566013920e-03
1.7000000000000008e+00 +8.3649202134740008e+00 +0.0000000000000000e+00 +1.6999999975034854e+00 -2.8074819418304708e-02 -5.2504016716966850e-01 +5.0911847686484742e-03
1.7500000000000009e+00 +8.3649154507143546e+00 +0.0000000000000000e+00 +1.7499999972766307e+00 -2.8075646964157992e-02 -5.2505386224871631e-01 +5.0919578460634825e-03
1.8000000000000009e+00 +8.3649105498577168e+00 +0.0000000000000000e+00 +1.7999999970364309e+00 -2.8076492520405460e-02 -5.2506789348926552e-01 +5.0927392706604183e-03
1.8500000000000010e+00 +8.3649055109003960e+00 +0.0000000000000000e+00 +1.8499999967825040e+00 -2.8077355957033673e-02 -5.2508226000409408e-01 +5.0935290242537746e-03
1.9000000000000010e+00 +8.3649003338386141e+00 +0.0000000000000000e+00 +1.8999999965144685e+00 -2.8078237144028326e-02 -5.2509696090599356e-01 +5.0943270886585363e-03
1.9500000000000011e+00 +8.3648950186685056e+00 +0.0000000000000000e+00 +1.9499999962319423e+00 -2.8079135951374252e-02 -5.2511199530777053e-01 +5.0951334456901818e-03
2.0000000000000009e+00 +8.3648895653861146e+00 +0.0000000000000000e+00 +1.9999999959345436e+00 -2.8080052249055309e-02 -5.2512736232224488e-01 +5.0959480771646777e-03
2.0500000000000007e+00 +8.3648839739874017e+00 +0.0000000000000000e+00 +2.0499999956218904e+00 -2.8080985906753911e-02 -5.2514306088042007e-01 +5.0967709592832601e-03
2.1000000000000005e+00 +8.3648782444682368e+00 +0.0000000000000000e+00 +2.0999999952936004e+00 -2.8081936792950388e-02 -5.2515908918599008e-01 +5.0976020457867031e-03
2.1500000000000004e+00 +8.3648723768244029e+00 +0.0000000000000000e+00 +2.1499999949492921e+00 -2.8082904775825018e-02 -5.2517544526082927e-01 +5.0984412848007685e-03
2.2000000000000002e+00 +8.3648663710515994e+00 +0.0000000000000000e+00 +2.1999999945885831e+00 -2.8083889723558585e-02 -5.2519212712682417e-01 +5.0992886244514164e-03
2.2500000000000000e+00 +8.3648602271454404e+00 +0.0000000000000000e+00 +2.2499999942110915e+00 -2.8084891504332399e-02 -5.2520913280587145e-01 +5.1001440128647700e-03
2.2999999999999998e+00 +8.3648539451014514e+00 +0.0000000000000000e+00 +2.2999999938164351e+00 -2.8085909986328313e-02 -5.2522646031987874e-01 +5.1010073981671046e-03
2.3499999999999996e+00 +8.3648475249150760e+00 +0.0000000000000000e+00 +2.3499999934042313e+00 -2.8086945037728739e-02 -5.2524410769076502e-01 +5.1018787284848278e-03
2.3999999999999995e+00 +8.3648409665816708e+00 +0.0000000000000000e+00 +2.3999999929740978e+00 -2.8087996526716737e-02 -5.2526207294045901e-01 +5.1027579519444680e-03
2.4499999999999993e+00 +8.3648342700965124e+00 +0.0000000000000000e+00 +2.4499999925256528e+00 -2.8089064321475954e-02 -5.2528035409089979e-01 +5.1036450166726506e-03
2.4999999999999991e+00 +8.3648274354547922e+00 +0.0000000000000000e+00 +2.4999999920585134e+00 -2.8090148290190738e-02 -5.2529894916403708e-01 +5.1045398707960862e-03
2.5499999999999989e+00 +8.3648204626516200e+00 +0.0000000000000000e+00 +2.5499999915722977e+00 -2.8091248301046087e-02 -5.2531785618182913e-01 +5.1054424624415555e-03
2.5999999999999988e+00 +8.3648133516820238e+00 +0.0000000000000000e+00 +2.5999999910666229e+00 -2.8092364222227714e-02 -5.2533707316624445e-01 +5.1063527397358808e-03
2.6499999999999986e+00 +8.3648061025409479e+00 +0.0000000000000000e+00 +2.6499999905411067e+00 -2.8093495921922083e-02 -5.2535659813926094e-01 +5.1072706508059262e-03
2.6999999999999984e+00 +8.3647987152232570e+00 +0.0000000000000000e+00 +2.6999999899953662e+00 -2.8094643268316399e-02 -5.2537642912286497e-01 +5.1081961437785635e-03
2.7499999999999982e+00 +8.3647911897237375e+00 +0.0000000000000000e+00 +2.7499999894290190e+00 -2.8095806129598708e-02 -5.2539656413905289e-01 +5.1091291667806713e-03
2.7999999999999980e+00 +8.3647835260370922e+00 +0.0000000000000000e+00 +2.7999999888416820e+00 -2.8096984373957811e-02 -5.2541700120982893e-01 +5.1100696679391025e-03
2.8499999999999979e+00 +8.3647757241579459e+00 +0.0000000000000000e+00 +2.8499999882329727e+00 -2.8098177869583397e-02 -5.2543773835720542e-01 +5.1110175953806847e-03
2.8999999999999977e+00 +8.3647677840808434e+00 +0.0000000000000000e+00 +2.8999999876025084e+00 -2.8099386484665978e-02 -5.2545877360320381e-01 +5.1119728972321811e-03
2.9499999999999975e+00 +8.3647597058002532e+00 +0.0000000000000000e+00 +2.9499999869499063e+00 -2.8100610087397046e-02 -5.2548010496985276e-01 +5.1129355216202989e-03
2.9999999999999973e+00 +8.3647514893105654e+00 +0.0000000000000000e+00 +2.9999999862747835e+00 -2.8101848545968942e-02 -5.2550173047918902e-01 +5.1139054166716522e-03
3.0499999999999972e+00 +8.3647431346060923e+00 +0.0000000000000000e+00 +3.0499999855767568e+00 -2.8103101728574977e-02 -5.2552364815325714e-01 +5.1148825305127521e-03
3.0999999999999970e+00 +8.3647346416810695e+00 +0.0000000000000000e+00 +3.0999999848554429e+00 -2.8104369503409450e-02 -5.2554585601410864e-01 +5.1158668112699949e-03
3.1499999999999968e+00 +8.3647260105296546e+00 +0.0000000000000000e+00 +3.1499999841104591e+00 -2.8105651738667671e-02 -5.2556835208380204e-01 +5.1168582070696385e-03
3.1999999999999966e+00 +8.3647172411459323e+00 +0.0000000000000000e+00 +3.1999999833414221e+00 -2.8106948302545960e-02 -5.2559113438440319e-01 +5.1178566660377810e-03
3.2499999999999964e+00 +8.3647083335239092e+00 +0.0000000000000000e+00 +3.2499999825479491e+00 -2.8108259063241700e-02 -5.2561420093798417e-01 +5.1188621363003652e-03
3.2999999999999963e+00 +8.3646992876575208e+00 +0.0000000000000000e+00 +3.2999999817296564e+00 -2.8109583888953391e-02 -5.2563754976662380e-01 +5.1198745659831301e-03
3.3499999999999961e+00 +8.3646901035406245e+00 +0.0000000000000000e+00 +3.3499999808861602e+00 -2.8110922647880569e-02 -5.2566117889240671e-01 +5.1208939032116188e-03
3.3999999999999959e+00 +8.3646807811670065e+00 +0.0000000000000000e+00 +3.3999999800170779e+00 -2.8112275208223993e-02 -5.2568508633742417e-01 +5.1219200961111549e-03
3.4499999999999957e+00 +8.3646713205303787e+00 +0.0000000000000000e+00 +3.4499999791220257e+00 -2.8113641438185545e-02 -5.2570927012377289e-01 +5.1229530928068182e-03
3.4999999999999956e+00 +8.3646617216243797e+00 +0.0000000000000000e+00 +3.4999999782006199e+00 -2.8115021205968288e-02 -5.2573372827355491e-01 +5.1239928414234396e-03
3.5499999999999954e+00 +8.3646519844425775e+00 +0.0000000000000000e+00 +3.5499999772524768e+00 -2.8116414379776536e-02 -5.2575845880887817e-01 +5.1250392900855733e-03
3.5999999999999952e+00 +8.3646421089784670e+00 +0.0000000000000000e+00 +3.5999999762772128e+00 -2.8117820827815811e-02 -5.2578345975185514e-01 +5.1260923869174864e-03
3.6499999999999950e+00 +8.3646320952254740e+00 +0.0000000000000000e+00 +3.6499999752744445e+00 -2.8119240418292932e-02 -5.2580872912460308e-01 +5.1271520800431417e-03
3.6999999999999948e+00 +8.3646219431769513e+00 +0.0000000000000000e+00 +3.6999999742437879e+00 -2.8120673019416020e-02 -5.2583426494924490e-01 +5.1282183175861765e-03
3.7499999999999947e+00 +8.3646116528261825e+00 +0.0000000000000000e+00 +3.7499999731848588e+00 -2.8122118499394489e-02 -5.2586006524790718e-01 +5.1292910476698874e-03
3.7999999999999945e+00 +8.3646012241663819e+00 +0.0000000000000000e+00 +3.7999999720972735e+00 -2.8123576726439146e-02 -5.2588612804272084e-01 +5.1303702184172214e-03
3.8499999999999943e+00 +8.3645906571906963e+00 +0.0000000000000000e+00 +3.8499999709806478e+00 -2.8125047568762131e-02 -5.2591245135582054e-01 +5.1314557779507421e-03
3.8999999999999941e+00 +8.3645799518922015e+00 +0.0000000000000000e+00 +3.8999999698345977e+00 -2.8126530894577055e-02 -5.2593903320934565e-01 +5.1325476743926289e-03
3.9499999999999940e+00 +8.3645691082639058e+00 +0.0000000000000000e+00 +3.9499999686587390e+00 -2.8128026572098879e-02 -5.2596587162543795e-01 +5.1336458558646526e-03
3.9999999999999938e+00 +8.3645581262987498e+00 +0.0000000000000000e+00 +3.9999999674526876e+00 -2.8129534469544092e-02 -5.2599296462624345e-01 +5.1347502704881583e-03
4.0499999999999936e+00 +8.3645470059896088e+00 +0.0000000000000000e+00 +4.0499999662160588e+00 -2.8131054445998963e-02 -5.2602031014774431e-01 +5.1358608565620443e-03
4.0999999999999934e+00 +8.3645357473292901e+00 +0.0000000000000000e+00 +4.0999999649484682e+00 -2.8132586324024152e-02 -5.2604790578125848e-01 +5.1369775130969252e-03
4.1499999999999932e+00 +8.3645243503105373e+00 +0.0000000000000000e+00 +4.1499999636495319e+00 -2.8134129917049024e-02 -5.2607574903193988e-01 +5.1381001292816605e-03
4.1999999999999931e+00 +8.3645128149260248e+00 +0.0000000000000000e+00 +4.1999999623188646e+00 -2.8135685038503260e-02 -5.2610383740494504e-01 +5.1392285943054868e-03
4.2499999999999929e+00 +8.3645011411683665e+00 +0.0000000000000000e+00 +4.2499999609560826e+00 -2.8137251501816795e-02 -5.2613216840543164e-01 +5.1403627973580033e-03
4.2999999999999927e+00 +8.3644893290301123e+00 +0.0000000000000000e+00 +4.2999999595608003e+00 -2.8138829120419890e-02 -5.2616073953856080e-01 +5.1415026276292013e-03
4.3499999999999925e+00 +8.3644773785037465e+00 +0.0000000000000000e+00 +4.3499999581326332e+00 -2.8140417707743032e-02 -5.2618954830949438e-01 +5.1426479743094701e-03
4.3999999999999924e+00 +8.3644652895816911e+00 +0.0000000000000000e+00 +4.3999999566711967e+00 -2.8142017077216992e-02 -5.2621859222339629e-01 +5.1437987265895851e-03
4.4499999999999922e+00 +8.3644530622563078e+00 +0.0000000000000000e+00 +4.4499999551761062e+00 -2.8143627042272776e-02 -5.2624786878543173e-01 +5.1449547736607476e-03
4.4999999999999920e+00 +8.3644406965198979e+00 +0.0000000000000000e+00 +4.4999999536469755e+00 -2.8145247416341647e-02 -5.2627737550076703e-01 +5.1461160047145699e-03
4.5499999999999918e+00 +8.3644281923647004e+00 +0.0000000000000000e+00 +4.5499999520834207e+00 -2.8146878012855075e-02 -5.2630710987456941e-01 +5.1472823089430885e-03
4.5999999999999917e+00 +8.3644155497828940e+00 +0.0000000000000000e+00 +4.5999999504850555e+00 -2.8148518645244740e-02 -5.2633706941200675e-01 +5.1484535755387771e-03
4.6499999999999915e+00 +8.3644027687665989e+00 +0.0000000000000000e+00 +4.6499999488514954e+00 -2.8150169126942542e-02 -5.2636725161824727e-01 +5.1496296936945525e-03
4.6999999999999913e+00 +8.3643898493078783e+00 +0.0000000000000000e+00 +4.6999999471823548e+00 -2.8151829271380591e-02 -5.2639765399845961e-01 +5.1508105526037844e-03
4.7499999999999911e+00 +8.3643767913987350e+00 +0.0000000000000000e+00 +4.7499999454772492e+00 -2.8153498891991150e-02 -5.2642827405781223e-01 +5.1519960414602968e-03
4.7999999999999909e+00 +8.3643635950311150e+00 +0.0000000000000000e+00 +4.7999999437357923e+00 -2.8155177802206676e-02 -5.2645910930147355e-01 +5.1531860494583911e-03
4.8499999999999908e+00 +8.3643502601969093e+00 +0.0000000000000000e+00 +4.8499999419575985e+00 -2.8156865815459776e-02 -5.2649015723461146e-01 +5.1543804657928375e-03
4.8999999999999906e+00 +8.3643367868879519e+00 +0.0000000000000000e+00 +4.8999999401422816e+00 -2.8158562745183215e-02 -5.2652141536239305e-01 +5.1555791796588941e-03
4.9499999999999904e+00 +8.3643231750960219e+00 +0.0000000000000000e+00 +4.9499999382894568e+00 -2.8160268404809900e-02 -5.2655288118998489e-01 +5.1567820802523130e-03
4.9999999999999902e+00 +8.3643094248128431e+00 +0.0000000000000000e+00 +4.9999999363987380e+00 -2.8161982607772883e-02 -5.2658455222255196e-01 +5.1579890567693444e-03
5.0499999999999901e+00 +8.3642955360300864e+00 +0.0000000000000000e+00 +5.0499999344697395e+00 -2.8163705167505323e-02 -5.2661642596525848e-01 +5.1591999984067554e-03
5.0999999999999899e+00 +8.3642815087393672e+00 +0.0000000000000000e+00 +5.0999999325020742e+00 -2.8165435897440475e-02 -5.2664849992326668e-01 +5.1604147943618275e-03
5.1499999999999897e+00 +8.3642673429322514e+00 +0.0000000000000000e+00 +5.1499999304953574e+00 -2.8167174611011720e-02 -5.2668077160173721e-01 +5.1616333338323685e-03
5.1999999999999895e+00 +8.3642530386002498e+00 +0.0000000000000000e+00 +5.1999999284492020e+00 -2.8168921121652535e-02 -5.2671323850582863e-01 +5.1628555060167216e-03
5.2499999999999893e+00 +8.3642385957348235e+00 +0.0000000000000000e+00 +5.2499999263632224e+00 -2.8170675242796435e-02 -5.2674589814069761e-01 +5.1640812001137737e-03
5.2999999999999892e+00 +8.3642240143273838e+00 +0.0000000000000000e+00 +5.2999999242370324e+00 -2.8172436787877030e-02 -5.2677874801149738e-01 +5.1653103053229642e-03
5.3499999999999890e+00 +8.3642092943692905e+00 +0.0000000000000000e+00 +5.3499999220702446e+00 -2.8174205570327997e-02 -5.2681178562337960e-01 +5.1665427108442971e-03
5.3999999999999888e+00 +8.3641944358518536e+00 +0.0000000000000000e+00 +5.3999999198624735e+00 -2.8175981403583052e-02 -5.2684500848149296e-01 +5.1677783058783422e-03
5.4499999999999886e+00 +8.3641794387663353e+00 +0.0000000000000000e+00 +5.4499999176133320e+00 -2.8177764101075909e-02 -5.2687841409098224e-01 +5.1690169796262389e-03
5.4999999999999885e+00 +8.3641643031039496e+00 +0.0000000000000000e+00 +5.4999999153224328e+00 -2.8179553476240390e-02 -5.2691199995699001e-01 +5.1702586212897250e-03
5.5499999999999883e+00 +8.3641490288558629e+00 +0.0000000000000000e+00 +5.5499999129893904e+00 -2.8181349342510251e-02 -5.2694576358465395e-01 +5.1715031200711241e-03
5.5999999999999881e+00 +8.3641336160131967e+00 +0.0000000000000000e+00 +5.5999999106138167e+00 -2.8183151513319304e-02 -5.2697970247910897e-01 +5.1727503651733658e-03
5.6499999999999879e+00 +8.3641180645670232e+00 +0.0000000000000000e+00 +5.6499999081953263e+00 -2.8184959802101325e-02 -5.2701381414548587e-01 +5.1740002457999886e-03
5.6999999999999877e+00 +8.3641023745083718e+00 +0.0000000000000000e+00 +5.6999999057335309e+00 -2.8186774022290077e-02 -5.2704809608891057e-01 +5.1752526511551506e-03
5.7499999999999876e+00 +8.3640865458282239e+00 +0.0000000000000000e+00 +5.7499999032280433e+00 -2.8188593987319332e-02 -5.2708254581450520e-01 +5.1765074704436366e-03
5.7999999999999874e+00 +8.3640705785175200e+00 +0.0000000000000000e+00 +5.7999999006784773e+00 -2.8190419510622771e-02 -5.2711716082738680e-01 +5.1777645928708718e-03
5.8499999999999872e+00 +8.3640544725671564e+00 +0.0000000000000000e+00 +5.8499998980844445e+00 -2.8192250405634070e-02 -5.2715193863266818e-01 +5.1790239076429214e-03
5.8999999999999870e+00 +8.3640382279679866e+00 +0.0000000000000000e+00 +5.8999998954455588e+00 -2.8194086485786817e-02 -5.2718687673545628e-01 +5.1802853039665028e-03
