# field on trajectory
# s[mm] rx[mm] ry[mm] rz[mm] bx[T] by[T] bz[T]
0.0000000000000000e+00 +8.3650000000000002e+00 +0.0000000000000000e+00 +0.0000000000000000e+00 -2.8358290449854801e-02 -5.5068314476154834e-01 +5.2528342384088088e-03
-5.0000000000000003e-02 +8.3649999311440020e+00 +0.0000000000000000e+00 -4.9999999999936789e-02 -2.8357859352005830e-02 -5.5068392020604984e-01 +5.2537792765133704e-03
-1.0000000000000001e-01 +8.3649997245758598e+00 +0.0000000000000000e+00 -9.9999999999494271e-02 -2.8357451519610961e-02 -5.5068509606545524e-01 +5.2547320551816499e-03
-1.5000000000000002e-01 +8.3649993802952789e+00 +0.0000000000000000e+00 -1.4999999999829317e-01 -2.8357066917292777e-02 -5.5068667179097630e-01 +5.2556925157953398e-03
-2.0000000000000001e-01 +8.3649988983018666e+00 +0.0000000000000000e+00 -1.9999999999595419e-01 -2.8356705509674587e-02 -5.5068864683384322e-01 +5.2566605997365441e-03
-2.5000000000000000e-01 +8.3649982785951273e+00 +0.0000000000000000e+00 -2.4999999999209802e-01 -2.8356367261380515e-02 -5.5069102064530484e-01 +5.2576362483877613e-03
-2.9999999999999999e-01 +8.3649975211744696e+00 +0.0000000000000000e+00 -2.9999999998634536e-01 -2.8356052137035497e-02 -5.5069379267662832e-01 +5.2586194031319002e-03
-3.4999999999999998e-01 +8.3649966260391988e+00 +0.0000000000000000e+00 -3.4999999997831688e-01 -2.8355760101265257e-02 -5.5069696237909793e-01 +5.2596100053522417e-03
-3.9999999999999997e-01 +8.3649955931885227e+00 +0.0000000000000000e+00 -3.9999999996763325e-01 -2.8355491118696362e-02 -5.5070052920401735e-01 +5.2606079964324553e-03
-4.4999999999999996e-01 +8.3649944226215496e+00 +0.0000000000000000e+00 -4.4999999995391515e-01 -2.8355245153956200e-02 -5.5070449260270771e-01 +5.2616133177565702e-03
-4.9999999999999994e-01 +8.3649931143372882e+00 +0.0000000000000000e+00 -4.9999999993678329e-01 -2.8355022171673065e-02 -5.5070885202650832e-01 +5.2626259107089865e-03
-5.4999999999999993e-01 +8.3649916683346479e+00 +0.0000000000000000e+00 -5.4999999991585824e-01 -2.8354822136476072e-02 -5.5071360692677618e-01 +5.2636457166744428e-03
-5.9999999999999998e-01 +8.3649900846124403e+00 +0.0000000000000000e+00 -5.9999999989076069e-01 -2.8354645012995238e-02 -5.5071875675488713e-01 +5.2646726770380296e-03
-6.5000000000000002e-01 +8.3649883631693758e+00 +0.0000000000000000e+00 -6.4999999986111123e-01 -2.8354490765861502e-02 -5.5072430096223357e-01 +5.2657067331851699e-03
-7.0000000000000007e-01 +8.3649865040040705e+00 +0.0000000000000000e+00 -6.9999999982653049e-01 -2.8354359359706687e-02 -5.5073023900022644e-01 +5.2667478265016098e-03
-7.5000000000000011e-01 +8.3649845071150377e+00 +0.0000000000000000e+00 -7.4999999978663900e-01 -2.8354250759163584e-02 -5.5073657032029444e-01 +5.2677958983734135e-03
-8.0000000000000016e-01 +8.3649823725006947e+00 +0.0000000000000000e+00 -7.9999999974105740e-01 -2.8354164928865874e-02 -5.5074329437388403e-01 +5.2688508901869487e-03
-8.5000000000000020e-01 +8.3649801001593609e+00 +0.0000000000000000e+00 -8.4999999968940620e-01 -2.8354101833448251e-02 -5.5075041061245855e-01 +5.2699127433288896e-03
-9.0000000000000024e-01 +8.3649776900892547e+00 +0.0000000000000000e+00 -8.9999999963130606e-01 -2.8354061437546350e-02 -5.5075791848750055e-01 +5.2709813991861938e-03
-9.5000000000000029e-01 +8.3649751422885004e+00 +0.0000000000000000e+00 -9.4999999956637737e-01 -2.8354043705796798e-02 -5.5076581745050801e-01 +5.2720567991461050e-03
-1.0000000000000002e+00 +8.3649724567551225e+00 +0.0000000000000000e+00 -9.9999999949424068e-01 -2.8354048602837214e-02 -5.5077410695299789e-01 +5.2731388845961326e-03
-1.0500000000000003e+00 +8.3649696334870480e+00 +0.0000000000000000e+00 -1.0499999994145164e+00 -2.8354076093306278e-02 -5.5078278644650414e-01 +5.2742275969240625e-03
-1.1000000000000003e+00 +8.3649666724821063e+00 +0.0000000000000000e+00 -1.0999999993268250e+00 -2.8354126141843638e-02 -5.5079185538257802e-01 +5.2753228775179227e-03
-1.1500000000000004e+00 +8.3649635737380290e+00 +0.0000000000000000e+00 -1.1499999992307870e+00 -2.8354198713090046e-02 -5.5080131321278836e-01 +5.2764246677659979e-03
-1.2000000000000004e+00 +8.3649603372524517e+00 +0.0000000000000000e+00 -1.1999999991260228e+00 -2.8354293771687258e-02 -5.5081115938872094e-01 +5.2775329090568000e-03
-1.2500000000000004e+00 +8.3649569630229106e+00 +0.0000000000000000e+00 -1.2499999990121529e+00 -2.8354411282278145e-02 -5.5082139336197866e-01 +5.2786475427790787e-03
-1.3000000000000005e+00 +8.3649534510468477e+00 +0.0000000000000000e+00 -1.2999999988887974e+00 -2.8354551209506661e-02 -5.5083201458418196e-01 +5.2797685103218063e-03
-1.3500000000000005e+00 +8.3649498013216075e+00 +0.0000000000000000e+00 -1.3499999987555766e+00 -2.8354713518017823e-02 -5.5084302250696826e-01 +5.2808957530741550e-03
-1.4000000000000006e+00 +8.3649460138444365e+00 +0.0000000000000000e+00 -1.3999999986121110e+00 -2.8354898172457829e-02 -5.5085441658199141e-01 +5.2820292124255101e-03
-1.4500000000000006e+00 +8.3649420886124854e+00 +0.0000000000000000e+00 -1.4499999984580207e+00 -2.8355105137473958e-02 -5.5086619626092348e-01 +5.2831688297654443e-03
-1.5000000000000007e+00 +8.3649380256228074e+00 +0.0000000000000000e+00 -1.4999999982929260e+00 -2.8355334377714661e-02 -5.5087836099545251e-01 +5.2843145464837246e-03
-1.5500000000000007e+00 +8.3649338248723630e+00 +0.0000000000000000e+00 -1.5499999981164472e+00 -2.8355585857829536e-02 -5.5089091023728365e-01 +5.2854663039702821e-03
-1.6000000000000008e+00 +8.3649294863580117e+00 +0.0000000000000000e+00 -1.5999999979282042e+00 -2.8355859542469358e-02 -5.5090384343813847e-01 +5.2866240436152262e-03
-1.6500000000000008e+00 +8.3649250100765205e+00 +0.0000000000000000e+00 -1.6499999977278175e+00 -2.8356155396286109e-02 -5.5091716004975644e-01 +5.2877877068088219e-03
-1.7000000000000008e+00 +8.3649203960245586e+00 +0.0000000000000000e+00 -1.6999999975149069e+00 -2.8356473383932941e-02 -5.5093085952389242e-01 +5.2889572349414833e-03
-1.7500000000000009e+00 +8.3649156441987014e+00 +0.0000000000000000e+00 -1.7499999972890927e+00 -2.8356813470064260e-02 -5.5094494131231897e-01 +5.2901325694037649e-03
-1.8000000000000009e+00 +8.3649107545954262e+00 +0.0000000000000000e+00 -1.7999999970499947e+00 -2.8357175619335689e-02 -5.5095940486682471e-01 +5.2913136515863627e-03
-1.8500000000000010e+00 +8.3649057272111165e+00 +0.0000000000000000e+00 -1.8499999967972329e+00 -2.8357559796404093e-02 -5.5097424963921493e-01 +5.2925004228800854e-03
-1.9000000000000010e+00 +8.3649005620420596e+00 +0.0000000000000000e+00 -1.8999999965304273e+00 -2.8357965965927583e-02 -5.5098947508131135e-01 +5.2936928246758658e-03
-1.9500000000000011e+00 +8.3648952590844488e+00 +0.0000000000000000e+00 -1.9499999962491978e+00 -2.8358394092565596e-02 -5.5100508064495191e-01 +5.2948907983647354e-03
-2.0000000000000009e+00 +8.3648898183343814e+00 +0.0000000000000000e+00 -1.9999999959531645e+00 -2.8358844140978830e-02 -5.5102106578199161e-01 +5.2960942853378344e-03
-2.0500000000000007e+00 +8.3648842397878589e+00 +0.0000000000000000e+00 -2.0499999956419468e+00 -2.8359316077350028e-02 -5.5103742964414526e-01 +5.2973032218244986e-03
-2.1000000000000005e+00 +8.3648785234407903e+00 +0.0000000000000000e+00 -2.0999999953151649e+00 -2.8359809873946047e-02 -5.5105417018251701e-01 +5.2985175234065976e-03
-2.1500000000000004e+00 +8.3648726692889888e+00 +0.0000000000000000e+00 -2.1499999949724380e+00 -2.8360325504555400e-02 -5.5107128504806924e-01 +5.2997371005041021e-03
-2.2000000000000002e+00 +8.3648666773281750e+00 +0.0000000000000000e+00 -2.1999999946133864e+00 -2.8360862942967375e-02 -5.5108877189177596e-01 +5.3009618635369814e-03
-2.2500000000000000e+00 +8.3648605475539757e+00 +0.0000000000000000e+00 -2.2499999942376290e+00 -2.8361422162972067e-02 -5.5110662836462621e-01 +5.3021917229251724e-03
-2.2999999999999998e+00 +8.3648542799619250e+00 +0.0000000000000000e+00 -2.2999999938447862e+00 -2.8362003138360372e-02 -5.5112485211761975e-01 +5.3034265890885652e-03
-2.3499999999999996e+00 +8.3648478745474666e+00 +0.0000000000000000e+00 -2.3499999934344769e+00 -2.8362605842923931e-02 -5.5114344080176969e-01 +5.3046663724469999e-03
-2.3999999999999995e+00 +8.3648413313059518e+00 +0.0000000000000000e+00 -2.3999999930063209e+00 -2.8363230250455160e-02 -5.5116239206810180e-01 +5.3059109834202407e-03
-2.4499999999999993e+00 +8.3648346502326412e+00 +0.0000000000000000e+00 -2.4499999925599378e+00 -2.8363876334747191e-02 -5.5118170356765295e-01 +5.3071603324279801e-03
-2.4999999999999991e+00 +8.3648278313227067e+00 +0.0000000000000000e+00 -2.4999999920949465e+00 -2.8364544069593885e-02 -5.5120137295147220e-01 +5.3084143298898065e-03
-2.5499999999999989e+00 +8.3648208745712278e+00 +0.0000000000000000e+00 -2.5499999916109668e+00 -2.8365233428789813e-02 -5.5122139787062063e-01 +5.3096728862252083e-03
-2.5999999999999988e+00 +8.3648137799731987e+00 +0.0000000000000000e+00 -2.5999999911076177e+00 -2.8365944386130219e-02 -5.5124177597616975e-01 +5.3109359118535399e-03
-2.6499999999999986e+00 +8.3648065475235214e+00 +0.0000000000000000e+00 -2.6499999905845186e+00 -2.8366676915411063e-02 -5.5126250491920314e-01 +5.3122033171940381e-03
-2.6999999999999984e+00 +8.3647991772170140e+00 +0.0000000000000000e+00 -2.6999999900412885e+00 -2.8367430990428932e-02 -5.5128358235081498e-01 +5.3134750126657814e-03
-2.7499999999999982e+00 +8.3647916690484045e+00 +0.0000000000000000e+00 -2.7499999894775469e+00 -2.8368206584981032e-02 -5.5130500592210907e-01 +5.3147509086876824e-03
-2.7999999999999980e+00 +8.3647840230123354e+00 +0.0000000000000000e+00 -2.7999999888929121e+00 -2.8369003672865274e-02 -5.5132677328420165e-01 +5.3160309156784959e-03
-2.8499999999999979e+00 +8.3647762391033638e+00 +0.0000000000000000e+00 -2.8499999882870037e+00 -2.8369822227880117e-02 -5.5134888208821742e-01 +5.3173149440567781e-03
-2.8999999999999977e+00 +8.3647683173159617e+00 +0.0000000000000000e+00 -2.8999999876594407e+00 -2.8370662223824648e-02 -5.5137132998529237e-01 +5.3186029042408840e-03
-2.9499999999999975e+00 +8.3647602576445159e+00 +0.0000000000000000e+00 -2.9499999870098419e+00 -2.8371523634498515e-02 -5.5139411462657117e-01 +5.3198947066489628e-03
-2.9999999999999973e+00 +8.3647520600833278e+00 +0.0000000000000000e+00 -2.9999999863378259e+00 -2.8372406433701963e-02 -5.5141723366320849e-01 +5.3211902616989290e-03
-3.0499999999999972e+00 +8.3647437246266154e+00 +0.0000000000000000e+00 -3.0499999856430118e+00 -2.8373310595235766e-02 -5.5144068474636831e-01 +5.3224894798084652e-03
-3.0999999999999970e+00 +8.3647352512685149e+00 +0.0000000000000000e+00 -3.0999999849250179e+00 -2.8374236092901243e-02 -5.5146446552722439e-01 +5.3237922713949932e-03
-3.1499999999999968e+00 +8.3647266400030791e+00 +0.0000000000000000e+00 -3.1499999841834629e+00 -2.8375182900500236e-02 -5.5148857365695814e-01 +5.3250985468756735e-03
-3.1999999999999966e+00 +8.3647178908242790e+00 +0.0000000000000000e+00 -3.1999999834179658e+00 -2.8376150991835082e-02 -5.5151300678676052e-01 +5.3264082166673892e-03
-3.2499999999999964e+00 +8.3647090037260057e+00 +0.0000000000000000e+00 -3.2499999826281449e+00 -2.8377140340708623e-02 -5.5153776256783005e-01 +5.3277211911867250e-03
-3.2999999999999963e+00 +8.3646999787020668e+00 +0.0000000000000000e+00 -3.2999999818136185e+00 -2.8378150920924165e-02 -5.5156283865137479e-01 +5.3290373808499610e-03
-3.3499999999999961e+00 +8.3646908157461937e+00 +0.0000000000000000e+00 -3.3499999809740051e+00 -2.8379182706285470e-02 -5.5158823268860924e-01 +5.3303566960730643e-03
-3.3999999999999959e+00 +8.3646815148520357e+00 +0.0000000000000000e+00 -3.3999999801089227e+00 -2.8380235670596766e-02 -5.5161394233075700e-01 +5.3316790472716646e-03
-3.4499999999999957e+00 +8.3646720760131625e+00 +0.0000000000000000e+00 -3.4499999792179898e+00 -2.8381309787662682e-02 -5.5163996522904801e-01 +5.3330043448610431e-03
-3.4999999999999956e+00 +8.3646624992230674e+00 +0.0000000000000000e+00 -3.4999999783008251e+00 -2.8382405031288280e-02 -5.5166629903472053e-01 +5.3343324992561371e-03
-3.5499999999999954e+00 +8.3646527844751635e+00 +0.0000000000000000e+00 -3.5499999773570461e+00 -2.8383521375279011e-02 -5.5169294139901937e-01 +5.3356634208714948e-03
-3.5999999999999952e+00 +8.3646429317627895e+00 +0.0000000000000000e+00 -3.5999999763862709e+00 -2.8384658793440699e-02 -5.5171988997319599e-01 +5.3369970201212879e-03
-3.6499999999999950e+00 +8.3646329410792077e+00 +0.0000000000000000e+00 -3.6499999753881176e+00 -2.8385817259579556e-02 -5.5174714240850886e-01 +5.3383332074192916e-03
-3.6999999999999948e+00 +8.3646228124176005e+00 +0.0000000000000000e+00 -3.6999999743622038e+00 -2.8386996747502134e-02 -5.5177469635622278e-01 +5.3396718931788675e-03
-3.7499999999999947e+00 +8.3646125457710792e+00 +0.0000000000000000e+00 -3.7499999733081477e+00 -2.8388197231015308e-02 -5.5180254946760854e-01 +5.3410129878129530e-03
-3.7999999999999945e+00 +8.3646021411326785e+00 +0.0000000000000000e+00 -3.7999999722255668e+00 -2.8389418683926304e-02 -5.5183069939394325e-01 +5.3423564017340509e-03
-3.8499999999999943e+00 +8.3645915984953589e+00 +0.0000000000000000e+00 -3.8499999711140789e+00 -2.8390661080042623e-02 -5.5185914378650902e-01 +5.3437020453542079e-03
-3.8999999999999941e+00 +8.3645809178520061e+00 +0.0000000000000000e+00 -3.8999999699733015e+00 -2.8391924393172063e-02 -5.5188788029659464e-01 +5.3450498290850091e-03
-3.9499999999999940e+00 +8.3645700991954346e+00 +0.0000000000000000e+00 -3.9499999688028522e+00 -2.8393208597122715e-02 -5.5191690657549297e-01 +5.3463996633375628e-03
-3.9999999999999938e+00 +8.3645591425183863e+00 +0.0000000000000000e+00 -3.9999999676023488e+00 -2.8394513665702899e-02 -5.5194622027450235e-01 +5.3477514585224930e-03
-4.0499999999999936e+00 +8.3645480478135319e+00 +0.0000000000000000e+00 -4.0499999663714084e+00 -2.8395839522698529e-02 -5.5197581892813097e-01 +5.3491051284163997e-03
-4.0999999999999934e+00 +8.3645368150734676e+00 +0.0000000000000000e+00 -4.0999999651096477e+00 -2.8397185891804920e-02 -5.5200569960370793e-01 +5.3504606002615059e-03
-4.1499999999999932e+00 +8.3645254442907220e+00 +0.0000000000000000e+00 -4.1499999638166845e+00 -2.8398552446695220e-02 -5.5203585925176957e-01 +5.3518178046663657e-03
-4.1999999999999931e+00 +8.3645139354577527e+00 +0.0000000000000000e+00 -4.1999999624921358e+00 -2.8399938861043385e-02 -5.5206629482285419e-01 +5.3531766722394111e-03
-4.2499999999999929e+00 +8.3645022885669480e+00 +0.0000000000000000e+00 -4.2499999611356190e+00 -2.8401344808524104e-02 -5.5209700326750255e-01 +5.3545371335889311e-03
-4.2999999999999927e+00 +8.3644905036106305e+00 +0.0000000000000000e+00 -4.2999999597467511e+00 -2.8402769962812883e-02 -5.5212798153625686e-01 +5.3558991193230826e-03
-4.3499999999999925e+00 +8.3644785805810518e+00 +0.0000000000000000e+00 -4.3499999583251485e+00 -2.8404213997585987e-02 -5.5215922657966010e-01 +5.3572625600498934e-03
-4.3999999999999924e+00 +8.3644665194703993e+00 +0.0000000000000000e+00 -4.3999999568704284e+00 -2.8405676586520448e-02 -5.5219073534825758e-01 +5.3586273863772439e-03
-4.4499999999999922e+00 +8.3644543202707933e+00 +0.0000000000000000e+00 -4.4499999553822081e+00 -2.8407157403294112e-02 -5.5222250479259472e-01 +5.3599935289128826e-03
-4.4999999999999920e+00 +8.3644419829742898e+00 +0.0000000000000000e+00 -4.4999999538601037e+00 -2.8408656121585541e-02 -5.5225453186321738e-01 +5.3613609182644158e-03
-4.5499999999999918e+00 +8.3644295075728792e+00 +0.0000000000000000e+00 -4.5499999523037316e+00 -2.8410172415074174e-02 -5.5228681351067244e-01 +5.3627294850393135e-03
-4.5999999999999917e+00 +8.3644168940584898e+00 +0.0000000000000000e+00 -4.5999999507127081e+00 -2.8411705957440133e-02 -5.5231934668550586e-01 +5.3640991598448966e-03
-4.6499999999999915e+00 +8.3644041424229840e+00 +0.0000000000000000e+00 -4.6499999490866504e+00 -2.8413256422364402e-02 -5.5235212833826375e-01 +5.3654698732883534e-03
-4.6999999999999913e+00 +8.3643912526581659e+00 +0.0000000000000000e+00 -4.6999999474251739e+00 -2.8414823483528719e-02 -5.5238515541949185e-01 +5.3668415559767228e-03
-4.7499999999999911e+00 +8.3643782247557752e+00 +0.0000000000000000e+00 -4.7499999457278959e+00 -2.8416406814615623e-02 -5.5241842487973492e-01 +5.3682141385168946e-03
-4.7999999999999909e+00 +8.3643650587074934e+00 +0.0000000000000000e+00 -4.7999999439944316e+00 -2.8418006089308445e-02 -5.5245193366953671e-01 +5.3695875515156199e-03
-4.8499999999999908e+00 +8.3643517545049413e+00 +0.0000000000000000e+00 -4.8499999422243976e+00 -2.8419620981291284e-02 -5.5248567873943899e-01 +5.3709617255795006e-03
-4.8999999999999906e+00 +8.3643383121396795e+00 +0.0000000000000000e+00 -4.8999999404174099e+00 -2.8421251164249057e-02 -5.5251965703998240e-01 +5.3723365913149876e-03
-4.9499999999999904e+00 +8.3643247316032099e+00 +0.0000000000000000e+00 -4.9499999385730842e+00 -2.8422896311867469e-02 -5.5255386552170549e-01 +5.3737120793283877e-03
-4.9999999999999902e+00 +8.3643110128869793e+00 +0.0000000000000000e+00 -4.9999999366910366e+00 -2.8424556097833027e-02 -5.5258830113514468e-01 +5.3750881202258502e-03
-5.0499999999999901e+00 +8.3642971559823760e+00 +0.0000000000000000e+00 -5.0499999347708826e+00 -2.8426230195833024e-02 -5.5262296083083351e-01 +5.3764646446133749e-03
-5.0999999999999899e+00 +8.3642831608807331e+00 +0.0000000000000000e+00 -5.0999999328122376e+00 -2.8427918279555570e-02 -5.5265784155930298e-01 +5.3778415830968186e-03
-5.1499999999999897e+00 +8.3642690275733269e+00 +0.0000000000000000e+00 -5.1499999308147180e+00 -2.8429620022689565e-02 -5.5269294027108073e-01 +5.3792188662818664e-03
-5.1999999999999895e+00 +8.3642547560513822e+00 +0.0000000000000000e+00 -5.1999999287779382e+00 -2.8431335098924707e-02 -5.5272825391669134e-01 +5.3805964247740602e-03
-5.2499999999999893e+00 +8.3642403463060671e+00 +0.0000000000000000e+00 -5.2499999267015145e+00 -2.8433063181951518e-02 -5.5276377944665533e-01 +5.3819741891787858e-03
-5.2999999999999892e+00 +8.3642257983284978e+00 +0.0000000000000000e+00 -5.2999999245850624e+00 -2.8434803945461311e-02 -5.5279951381148984e-01 +5.3833520901012703e-03
-5.3499999999999890e+00 +8.3642111121097376e+00 +0.0000000000000000e+00 -5.3499999224281964e+00 -2.8436557063146212e-02 -5.5283545396170741e-01 +5.3847300581465777e-03
-5.3999999999999888e+00 +8.3641962876407980e+00 +0.0000000000000000e+00 -5.3999999202305320e+00 -2.8438322208699154e-02 -5.5287159684781562e-01 +5.3861080239196160e-03
-5.4499999999999886e+00 +8.3641813249126429e+00 +0.0000000000000000e+00 -5.4499999179916836e+00 -2.8440099055813878e-02 -5.5290793942031791e-01 +5.3874859180251377e-03
-5.4999999999999885e+00 +8.3641662239161843e+00 +0.0000000000000000e+00 -5.4999999157112667e+00 -2.8441887278184957e-02 -5.5294447862971274e-01 +5.3888636710677220e-03
-5.5499999999999883e+00 +8.3641509846422828e+00 +0.0000000000000000e+00 -5.5499999133888958e+00 -2.8443686549507765e-02 -5.5298121142649281e-01 +5.3902412136517938e-03
-5.5999999999999881e+00 +8.3641356070817547e+00 +0.0000000000000000e+00 -5.5999999110241863e+00 -2.8445496543478471e-02 -5.5301813476114492e-01 +5.3916184763816120e-03
-5.6499999999999879e+00 +8.3641200912253648e+00 +0.0000000000000000e+00 -5.6499999086167518e+00 -2.8447316933794119e-02 -5.5305524558415087e-01 +5.3929953898612703e-03
-5.6999999999999877e+00 +8.3641044370638333e+00 +0.0000000000000000e+00 -5.6999999061662079e+00 -2.8449147394152514e-02 -5.5309254084598491e-01 +5.3943718846946945e-03
-5.7499999999999876e+00 +8.3640886445878344e+00 +0.0000000000000000e+00 -5.7499999036721690e+00 -2.8450987598252302e-02 -5.5313001749711621e-01 +5.3957478914856442e-03
-5.7999999999999874e+00 +8.3640727137879960e+00 +0.0000000000000000e+00 -5.7999999011342487e+00 -2.8452837219792988e-02 -5.5316767248800658e-01 +5.3971233408377133e-03
-5.8499999999999872e+00 +8.3640566446549016e+00 +0.0000000000000000e+00 -5.8499998985520625e+00 -2.8454695932474818e-02 -5.5320550276910985e-01 +5.3984981633543160e-03
