# multipoles
# s[mm] polynom_b[n=0][T/m^n] polynom_b[n=1][T/m^n] polynom_b[n=2][T/m^n] polynom_b[n=3][T/m^n] polynom_b[n=4][T/m^n] polynom_b[n=5][T/m^n] polynom_b[n=6][T/m^n] 
+0.0000000000000000e+00 -5.5232669964245396e-01 +7.2610722137491752e+00 +5.3719722661314311e+00 -5.0383934935505819e+00 +8.2743029071173783e+02 -2.5468640994915651e+05 +1.4431747902242750e+07 
-5.0000000000000003e-02 -5.5232756036428421e-01 +7.2610986198258498e+00 +5.3730427403942773e+00 -4.8018435706558362e+00 +7.9969536778943473e+02 -2.5701113386632645e+05 +1.4507065960713519e+07 
-1.0000000000000001e-01 -5.5232879759840403e-01 +7.2611463526549045e+00 +5.3734688856671511e+00 -4.5626666629919246e+00 +7.7515062419458297e+02 -2.5938311476753815e+05 +1.4567046588982167e+07 
-1.5000000000000002e-01 -5.5233041053324983e-01 +7.2612153264403911e+00 +5.3732578012973482e+00 -4.3211904120508260e+00 +7.5367233296283473e+02 -2.6179696896102437e+05 +1.4612415919260826e+07 
-2.0000000000000001e-01 -5.5233239835727566e-01 +7.2613054553911347e+00 +5.3724165875200329e+00 -4.0777426300173349e+00 +7.3513673340221192e+02 -2.6424731135091803e+05 +1.4643900350801025e+07 
-2.5000000000000000e-01 -5.5233476025894612e-01 +7.2614166537165410e+00 +5.3709523422978984e+00 -3.8326511050103291e+00 +7.1942013468473158e+02 -2.6672875711259589e+05 +1.4662225778341161e+07 
-2.9999999999999999e-01 -5.5233749542675292e-01 +7.2615488356293127e+00 +5.3688721660601564e+00 -3.5862437492657144e+00 +7.0639877181226723e+02 -2.6923592035207135e+05 +1.4668118628483450e+07 
-3.4999999999999998e-01 -5.5234060304918298e-01 +7.2617019153389641e+00 +5.3661831548121635e+00 -3.3388482924120604e+00 +6.9594900466987679e+02 -2.7176341676391999e+05 +1.4662304461409325e+07 
-3.9999999999999997e-01 -5.5234408231478327e-01 +7.2618758070592815e+00 +5.3628924120278549e+00 -3.0907926265731942e+00 +6.8794699002873165e+02 -2.7430586065673974e+05 +1.4645510219039081e+07 
-4.4999999999999996e-01 -5.5234793241207836e-01 +7.2620704250037731e+00 +5.3590070341469467e+00 -2.8424046004893042e+00 +6.8226907627049945e+02 -2.7685786671570136e+05 +1.4618461538312027e+07 
-4.9999999999999994e-01 -5.5235215252962866e-01 +7.2622856833854721e+00 +5.3545341209723150e+00 -2.5940119994309785e+00 +6.7879151671193301e+02 -2.7941405021589447e+05 +1.4581884719298456e+07 
-5.4999999999999993e-01 -5.5235674185600325e-01 +7.2625214964205353e+00 +5.3494807708092393e+00 -2.3459427277037475e+00 +6.7739060916785297e+02 -2.8196902539155062e+05 +1.4536505741114466e+07 
-5.9999999999999998e-01 -5.5236169957980041e-01 +7.2627777783240886e+00 +5.3438540837284147e+00 -2.0985245978945537e+00 +6.7794260480625223e+02 -2.8451740731235739e+05 +1.4483050896354126e+07 
-6.5000000000000002e-01 -5.5236702488962142e-01 +7.2630544433129023e+00 +5.3376611578898778e+00 -1.8520854700327980e+00 +6.8032379968003340e+02 -2.8705381064581068e+05 +1.4422246199753005e+07 
-7.0000000000000007e-01 -5.5237271697409929e-01 +7.2633514056048556e+00 +5.3309090934959551e+00 -1.6069532263160962e+00 +6.8441044274167939e+02 -2.8957284985519102e+05 +1.4354817951121196e+07 
-7.5000000000000011e-01 -5.5237877502187427e-01 +7.2636685794175797e+00 +5.3236049897385005e+00 -1.3634556966030396e+00 +6.9007880378297250e+02 -2.9206913991062681e+05 +1.4281492333127104e+07 
-8.0000000000000016e-01 -5.5238519822160237e-01 +7.2640058789715445e+00 +5.3157559448983012e+00 -1.1219208036304684e+00 +6.9720518082047909e+02 -2.9453729500019492e+05 +1.4202995325009162e+07 
-8.5000000000000020e-01 -5.5239198576196558e-01 +7.2643632184847515e+00 +5.3073690591824016e+00 -8.8267634188183230e-01 +7.0566582221280419e+02 -2.9697193037466420e+05 +1.4120053227608563e+07 
-9.0000000000000024e-01 -5.5239913683165787e-01 +7.2647405121800697e+00 +5.2984514326089425e+00 -6.4605027757839972e-01 +7.1533697157938377e+02 -2.9936765988692531e+05 +1.4033392413283125e+07 
-9.5000000000000029e-01 -5.5240665061938166e-01 +7.2651376742776330e+00 +5.2890101629706479e+00 -4.1237043855662703e-01 +7.2609494223460774e+02 -3.0171909852281114e+05 +1.3943738743396508e+07 
-1.0000000000000002e+00 -5.5241452631386379e-01 +7.2655546189976707e+00 +5.2790523501840996e+00 -1.8196461745006562e-01 +7.3781598470896358e+02 -3.0402086161998939e+05 +1.3851818520957064e+07 
-1.0500000000000003e+00 -5.5242276310385541e-01 +7.2659912605662464e+00 +5.2685850950699349e+00 +4.4839176980074995e-02 +7.5037632778878026e+02 -3.0626756273133133e+05 +1.3758358187649291e+07 
-1.1000000000000003e+00 -5.5243136017810346e-01 +7.2664475132061472e+00 +5.2576154954159380e+00 +2.6771308956914147e-01 +7.6365227979938061e+02 -3.0845381664223649e+05 +1.3664083649537336e+07 
-1.1500000000000004e+00 -5.5244031672538463e-01 +7.2669232911396708e+00 +5.2461506512423934e+00 +4.8632932659170619e-01 +7.7752008968786834e+02 -3.1057423871562793e+05 +1.3569721210405566e+07 
-1.2000000000000004e+00 -5.5244963193449970e-01 +7.2674185085927050e+00 +5.2341976641109573e+00 +7.0035996311557380e-01 +7.9185596216042791e+02 -3.1262344319506414e+05 +1.3475997481976990e+07 
-1.2500000000000004e+00 -5.5245930499423856e-01 +7.2679330797904207e+00 +5.2217636305589439e+00 +9.0947713373009109e-01 +8.0653624475427819e+02 -3.1459604484287754e+05 +1.3383638077376880e+07 
-1.3000000000000005e+00 -5.5246933509343510e-01 +7.2684669189606828e+00 +5.2088556532055081e+00 +1.1133528981915259e+00 +8.2143710713896985e+02 -3.1648665784443548e+05 +1.3293369862517927e+07 
-1.3500000000000005e+00 -5.5247972142092971e-01 +7.2690199403270457e+00 +5.1954808319377070e+00 +1.3116595092437595e+00 +8.3643480624399717e+02 -3.1828989794127038e+05 +1.3205919058769030e+07 
-1.4000000000000006e+00 -5.5249046316556105e-01 +7.2695920581188469e+00 +5.1816462645398955e+00 +1.5040690185178898e+00 +8.5140564523582748e+02 -3.2000037927082757e+05 +1.3122011611405384e+07 
-1.4500000000000006e+00 -5.5250155951620605e-01 +7.2701831865647648e+00 +5.1673590525313626e+00 +1.6902535201642339e+00 +8.6622583122118738e+02 -3.2161271627884440e+05 +1.3042374093488999e+07 
-1.5000000000000007e+00 -5.5251300966175554e-01 +7.2707932398907760e+00 +5.1526262971612873e+00 +1.8698852536658959e+00 +8.8077157936894389e+02 -3.2312152465278190e+05 +1.2967733016011694e+07 
-1.5500000000000007e+00 -5.5252481279109789e-01 +7.2714221323277304e+00 +5.1374550970888748e+00 +2.0426362897606505e+00 +8.9491916907876544e+02 -3.2452141872233129e+05 +1.2898814473275671e+07 
-1.6000000000000008e+00 -5.5253696809315034e-01 +7.2720697781060180e+00 +5.1218525532455530e+00 +2.2081787326215272e+00 +9.0854482104998363e+02 -3.2580701304817921e+05 +1.2836344943431430e+07 
-1.6500000000000008e+00 -5.5254947475684468e-01 +7.2727360914533037e+00 +5.1058257665538251e+00 +2.3661848267491030e+00 +9.2152475431021742e+02 -3.2697292337277881e+05 +1.2781050919752929e+07 
-1.7000000000000008e+00 -5.5256233197112414e-01 +7.2734209866022734e+00 +5.0893818373201185e+00 +2.5163266458418501e+00 +9.3373520773574239e+02 -3.2801376407917700e+05 +1.2733658742508134e+07 
-1.7500000000000009e+00 -5.5257553892494793e-01 +7.2741243777830435e+00 +5.0725278667665439e+00 +2.6582763848854047e+00 +9.4505238864346620e+02 -3.2892415051262424e+05 +1.2694894985087447e+07 
-1.8000000000000009e+00 -5.5258909480728591e-01 +7.2748461792281116e+00 +5.0552709548767467e+00 +2.7917061741291298e+00 +9.5535254206901334e+02 -3.2969869752572547e+05 +1.2665485948007103e+07 
-1.8500000000000010e+00 -5.5260299880713659e-01 +7.2755863051692113e+00 +5.0376182043801965e+00 +2.9162881873487176e+00 +9.6451183804799871e+02 -3.3033202028888563e+05 +1.2646158435796615e+07 
-1.9000000000000010e+00 -5.5261725011349827e-01 +7.2763446698370160e+00 +5.0195767157059326e+00 +3.0316946849993283e+00 +9.7240650598297145e+02 -3.3081873476208339e+05 +1.2637638856819233e+07 
-1.9500000000000011e+00 -5.5263184791537712e-01 +7.2771211874686736e+00 +5.0011535884320724e+00 +3.1375976691249932e+00 +9.7891279603880321e+02 -3.3115345471536356e+05 +1.2640653481441006e+07 
-2.0000000000000009e+00 -5.5264679140181361e-01 +7.2779157722930972e+00 +4.9823559255014960e+00 +3.2336695213525819e+00 +9.8390687155677722e+02 -3.3133079711808433e+05 +1.2655929145746777e+07 
-2.0500000000000007e+00 -5.5266207956772584e-01 +7.2787283258572897e+00 +4.9631902557072252e+00 +3.3197825153215468e+00 +9.8730175208172602e+02 -3.3134766059513332e+05 +1.2683934199634023e+07 
-2.1000000000000005e+00 -5.5267771063082505e-01 +7.2795586944236401e+00 +4.9436610272547741e+00 +3.3965706558375284e+00 +9.8915662018183468e+02 -3.3120991975155694e+05 +1.2724135499961991e+07 
-2.1500000000000004e+00 -5.5269368261434537e-01 +7.2804067092960159e+00 +4.9237722259190670e+00 +3.4648486207197413e+00 +9.8956705132614559e+02 -3.3092565945024742e+05 +1.2775756693076469e+07 
-2.2000000000000002e+00 -5.5270999354155637e-01 +7.2812722017793021e+00 +4.9035278420468931e+00 +3.5254310694458804e+00 +9.8862849747704036e+02 -3.3050296447068657e+05 +1.2838022256739119e+07 
-2.2500000000000000e+00 -5.5272664143570771e-01 +7.2821550031778202e+00 +4.8829318600440326e+00 +3.5791326988674412e+00 +9.8643657111324796e+02 -3.2994991989864019e+05 +1.2910155586115913e+07 
-2.2999999999999998e+00 -5.5274362432008728e-01 +7.2830549447995452e+00 +4.8619882696442565e+00 +3.6267680605013242e+00 +9.8308673811109281e+02 -3.2927460957897949e+05 +1.2991381075655580e+07 
-2.3499999999999996e+00 -5.5276094021797839e-01 +7.2839718579488943e+00 +4.8407010571936055e+00 +3.6691518654470410e+00 +9.7867455958899984e+02 -3.2848511866932956e+05 +1.3080922462608118e+07 
-2.3999999999999995e+00 -5.5277858715266825e-01 +7.2849055739315309e+00 +4.8190742083949534e+00 +3.7070987824194077e+00 +9.7329560868349597e+02 -3.2758953196356102e+05 +1.3178003422691075e+07 
-2.4499999999999993e+00 -5.5279656314747838e-01 +7.2858559240520337e+00 +4.7971117127193112e+00 +3.7414235327016194e+00 +9.6704536120285479e+02 -3.2659593466802721e+05 +1.3281848272813534e+07 
-2.4999999999999991e+00 -5.5281486622571530e-01 +7.2868227396212886e+00 +4.7748175555321009e+00 +3.7729405861284864e+00 +9.6001939826498506e+02 -3.2551240990129585e+05 +1.3391680639934005e+07 
-2.5499999999999989e+00 -5.5283349441069740e-01 +7.2878058519429647e+00 +4.7521957224083033e+00 +3.8024647205920696e+00 +9.5231329755385502e+02 -3.2434704331526998e+05 +1.3506724164661840e+07 
-2.5999999999999988e+00 -5.5285244572577685e-01 +7.2888050923251422e+00 +4.7292502027377443e+00 +3.8308105232780800e+00 +9.4402253649510294e+02 -3.2310791891460709e+05 +1.3626203156764055e+07 
-2.6499999999999986e+00 -5.5287171819429726e-01 +7.2898202920731503e+00 +4.7059849836153944e+00 +3.8587927236191484e+00 +9.3524264556810112e+02 -3.2180312194365053e+05 +1.3749341600102095e+07 
-2.6999999999999984e+00 -5.5289130983959567e-01 +7.2908512824979024e+00 +4.6824040477986530e+00 +3.8872258118655325e+00 +9.2606928350264036e+02 -3.2044073559855676e+05 +1.3875362574589558e+07 
-2.7499999999999982e+00 -5.5291121868503712e-01 +7.2918978949030970e+00 +4.6585113831951848e+00 +3.9169245682793865e+00 +9.1659795627029416e+02 -3.1902884540372912e+05 +1.4003490239194928e+07 
-2.7999999999999980e+00 -5.5293144275401007e-01 +7.2929599605997524e+00 +4.6343109784807233e+00 +3.9487034952526043e+00 +9.0692416205461257e+02 -3.1757553464624716e+05 +1.4132948762766438e+07 
-2.8499999999999979e+00 -5.5295198006986113e-01 +7.2940373108914729e+00 +4.6098068146677322e+00 +3.9833773912636556e+00 +8.9714359532006733e+02 -3.1608888898524205e+05 +1.4262961025560804e+07 
-2.8999999999999977e+00 -5.5297282865599728e-01 +7.2951297770901729e+00 +4.5850028813887942e+00 +4.0217607174896104e+00 +8.8735172037699431e+02 -3.1457699128649640e+05 +1.4392751456333112e+07 
-2.9499999999999975e+00 -5.5299398653581733e-01 +7.2962371905015182e+00 +4.5599031648807147e+00 +4.0646681877196684e+00 +8.7764409779937944e+02 -3.1304792644851888e+05 +1.4521543819063712e+07 
-2.9999999999999973e+00 -5.5301545173269750e-01 +7.2973593824340037e+00 +4.5345116470262159e+00 +4.1129144036532663e+00 +8.6811639607711948e+02 -3.1150977843856282e+05 +1.4648561182375079e+07 
-3.0499999999999972e+00 -5.5303722227006236e-01 +7.2984961841947555e+00 +4.5088323160531703e+00 +4.1673140226213583e+00 +8.5886411814612211e+02 -3.0997063164750271e+05 +1.4773027715725297e+07 
-3.0999999999999970e+00 -5.5305929617131810e-01 +7.2996474270949339e+00 +4.4828691555741749e+00 +4.2286815243532709e+00 +8.4998289020852167e+02 -3.0843856893761200e+05 +1.4894166764416499e+07 
-3.1499999999999968e+00 -5.5308167145988796e-01 +7.3008129424389061e+00 +4.4566261510117400e+00 +4.2978316773875571e+00 +8.4156828913178276e+02 -3.0692167557019257e+05 +1.5011202008906273e+07 
-3.1999999999999966e+00 -5.5310434615919868e-01 +7.3019925615359611e+00 +4.4301072873832235e+00 +4.3755790343268801e+00 +8.3371589972032200e+02 -3.0542803494311747e+05 +1.5123357088315753e+07 
-3.2499999999999964e+00 -5.5312731829268025e-01 +7.3031861156947038e+00 +4.4033165482998866e+00 +4.4627381820653085e+00 +8.2652134834087349e+02 -3.0396573075684556e+05 +1.5229855353473760e+07 
-3.2999999999999963e+00 -5.5315058588377108e-01 +7.3043934362232292e+00 +4.3762579182065311e+00 +4.5601237127579708e+00 +8.2008023708665326e+02 -3.0254284666666947e+05 +1.5329920323591819e+07 
-3.3499999999999961e+00 -5.5317414695591849e-01 +7.3056143544290499e+00 +4.3489353819802528e+00 +4.6685502408143362e+00 +8.1448815124482621e+02 -3.0116746649650013e+05 +1.5422775657398140e+07 
-3.3999999999999959e+00 -5.5319799953255910e-01 +7.3068487016200345e+00 +4.3213529209896260e+00 +4.7888323515106324e+00 +8.0984077779491224e+02 -2.9984767376471031e+05 +1.5507644299980905e+07 
-3.4499999999999957e+00 -5.5322214163716787e-01 +7.3080963091038669e+00 +4.2935145224848039e+00 +4.9217846442425603e+00 +8.0623363933109545e+02 -2.9859155211451091e+05 +1.5583750334396390e+07 
-3.4999999999999956e+00 -5.5324657129318622e-01 +7.3093570081895995e+00 +4.2654241670566089e+00 +5.0682216398374855e+00 +8.0376243745722240e+02 -2.9740718445325625e+05 +1.5650316636331581e+07 
-3.5499999999999954e+00 -5.5327128652407642e-01 +7.3106306301829216e+00 +4.2370858370969762e+00 +5.2289579935079429e+00 +8.0252283112705038e+02 -2.9630265477162600e+05 +1.5706566351491943e+07 
-3.5999999999999952e+00 -5.5329628535332220e-01 +7.3119170063918855e+00 +4.2085035185559549e+00 +5.4048082575087610e+00 +8.0261037425598215e+02 -2.9528604618647316e+05 +1.5751723373655489e+07 
-3.6499999999999950e+00 -5.5332156580437231e-01 +7.3132159681246298e+00 +4.1796811896947998e+00 +5.5965869570393378e+00 +8.0412083419734404e+02 -2.9436544150163414e+05 +1.5785010135677835e+07 
-3.6999999999999948e+00 -5.5334712590071766e-01 +7.3145273466869947e+00 +4.1506228357302373e+00 +5.8051087122349871e+00 +8.0714978519095894e+02 -2.9354892430464056e+05 +1.5805650397494774e+07 
-3.7499999999999947e+00 -5.5337296366583388e-01 +7.3158509733875032e+00 +4.1213324379790821e+00 +6.0311880041313666e+00 +8.1179290941101033e+02 -2.9284457691970741e+05 +1.5812867184494935e+07 
-3.7999999999999945e+00 -5.5339907712319936e-01 +7.3171866795310248e+00 +4.0918139773520439e+00 +6.2756394682169816e+00 +8.1814589989333876e+02 -2.9226048297516932e+05 +1.5805883451817356e+07 
-3.8499999999999943e+00 -5.5342546429629835e-01 +7.3185342964268987e+00 +4.0620714352296909e+00 +6.5392775331444843e+00 +8.2630443375946777e+02 -2.9180472430660651e+05 +1.5783922279794786e+07 
-3.8999999999999941e+00 -5.5345212320861670e-01 +7.3198936553778902e+00 +4.0321087923788763e+00 +6.8229168851936910e+00 +8.3636420496264600e+02 -2.9148538483814133e+05 +1.5746206636580937e+07 
-3.9499999999999940e+00 -5.5347905188364632e-01 +7.3212645876933609e+00 +4.0019300295116995e+00 +7.1273719129483251e+00 +8.4842091138082799e+02 -2.9131054593644972e+05 +1.5691959460614651e+07 
-3.9999999999999938e+00 -5.5350624834488260e-01 +7.3226469246767074e+00 +3.9715391277744434e+00 +7.4534572494686335e+00 +8.6257023662282040e+02 -2.9128829095714702e+05 +1.5620403801570589e+07 
-4.0499999999999936e+00 -5.5353371046877320e-01 +7.3240405019855475e+00 +3.9409401249209757e+00 +7.8017511083254201e+00 +8.7888316229561769e+02 -2.9142487202036660e+05 +1.5530980165461145e+07 
-4.0999999999999934e+00 -5.5356143554482484e-01 +7.3254451638674523e+00 +3.9101373653139531e+00 +8.1719724083306815e+00 +8.9733663500241369e+02 -2.9171983337883861e+05 +1.5423956177297723e+07 
-4.1499999999999932e+00 -5.5358942071606576e-01 +7.3268607545240911e+00 +3.8791353099657084e+00 +8.5636454694099147e+00 +9.1788522735388597e+02 -2.9217118972031580e+05 +1.5299796151363706e+07 
-4.1999999999999931e+00 -5.5361766312557159e-01 +7.3282871181586238e+00 +3.8479384264621026e+00 +8.9762945416163689e+00 +9.4048334626273436e+02 -2.9277695523375284e+05 +1.5158965492189424e+07 
-4.2499999999999929e+00 -5.5364615991635846e-01 +7.3297240989756887e+00 +3.8165511723821974e+00 +9.4094438223487042e+00 +9.6508566239962238e+02 -2.9353514373121789e+05 +1.5001927846587272e+07 
-4.2999999999999927e+00 -5.5367490823150334e-01 +7.3311715411785654e+00 +3.7849780154307564e+00 +9.8626175404688325e+00 +9.9164657643313842e+02 -2.9444376921937458e+05 +1.4829148675131558e+07 
-4.3499999999999925e+00 -5.5370390521404012e-01 +7.3326292889709928e+00 +3.7532234151992050e+00 +1.0335339917563896e+01 +1.0201207099776927e+03 -2.9550084573104000e+05 +1.4641091943185095e+07 
-4.3999999999999924e+00 -5.5373314800704443e-01 +7.3340971865559945e+00 +3.7212918387971108e+00 +1.0827135208435237e+01 +1.0504624782162311e+03 -2.9670438762108312e+05 +1.4438223026442267e+07 
-4.4499999999999922e+00 -5.5376263375355828e-01 +7.3355750781359532e+00 +3.6891877465627672e+00 +1.1337527681027053e+01 +1.0826264863645490e+03 -2.9805240934728872e+05 +1.4221005992908852e+07 
-4.4999999999999920e+00 -5.5379235959665107e-01 +7.3370628079161166e+00 +3.6569156044049316e+00 +1.1866041488041231e+01 +1.1165671799286154e+03 -2.9954292446146201e+05 +1.3989906028806908e+07 
-4.5499999999999918e+00 -5.5382232267937226e-01 +7.3385602200987883e+00 +3.6244798735587742e+00 +1.2412200893260529e+01 +1.1522391404522825e+03 -3.0117394743798487e+05 +1.3745387367965858e+07 
-4.5999999999999917e+00 -5.5385252014478570e-01 +7.3400671588867796e+00 +3.5918850181681212e+00 +1.2975530149140718e+01 +1.1895968684347160e+03 -3.0294349274929560e+05 +1.3487914802935459e+07 
-4.6499999999999915e+00 -5.5388294913595182e-01 +7.3415834684849877e+00 +3.5591355017451072e+00 +1.3555553400178074e+01 +1.2285948805571022e+03 -3.0484957393238822e+05 +1.3217953027274450e+07 
-4.6999999999999913e+00 -5.5391360679593649e-01 +7.3431089930957896e+00 +3.5262357889390805e+00 +1.4151794907771455e+01 +1.2691876626575845e+03 -3.0689020559494063e+05 +1.2935966943951374e+07 
-4.7499999999999911e+00 -5.5394449026779802e-01 +7.3446435769213778e+00 +3.4931903423661201e+00 +1.4763778927278983e+01 +1.3113297633996810e+03 -3.0906340228675207e+05 +1.2642421006395526e+07 
-4.7999999999999909e+00 -5.5397559669459506e-01 +7.3461870641650000e+00 +3.4600036255924347e+00 +1.5391029663444405e+01 +1.3549756956330496e+03 -3.1136717818898981e+05 +1.2337779955179302e+07 
-4.8499999999999908e+00 -5.5400692321939093e-01 +7.3477392990319004e+00 +3.4266801025477860e+00 +1.6033071243120599e+01 +1.4000799722115119e+03 -3.1379954689222883e+05 +1.2022508493753582e+07 
-4.8999999999999906e+00 -5.5403846698525028e-01 +7.3493001257225172e+00 +3.3932242377727113e+00 +1.6689427984934550e+01 +1.4465970867769033e+03 -3.1635852361896710e+05 +1.1697071471610937e+07 
-4.9499999999999904e+00 -5.5407022513521875e-01 +7.3508693884393477e+00 +3.3596404926652719e+00 +1.7359624101531718e+01 +1.4944816176183929e+03 -3.1904212269017473e+05 +1.1361933171862999e+07 
-4.9999999999999902e+00 -5.5410219481236866e-01 +7.3524469313858125e+00 +3.3259333332745014e+00 +1.8043183781013688e+01 +1.5436880209849360e+03 -3.2184835835259291e+05 +1.1017558692829881e+07 
-5.0499999999999901e+00 -5.5413437315975045e-01 +7.3540325987656123e+00 +3.2921072223615093e+00 +1.8739631186229573e+01 +1.5941708416861586e+03 -3.2477524464587832e+05 +1.0664412538781190e+07 
