# trajectory
# s[mm] rx[mm] ry[mm] rz[mm] px[rad] py[rad] pz[rad]
0.0000000000000000e+00 +8.5980000000000008e+00 +0.0000000000000000e+00 +0.0000000000000000e+00 +0.0000000000000000e+00 +0.0000000000000000e+00 +1.0000000000000000e+00
5.0000000000000003e-02 +8.5979999306484274e+00 +0.0000000000000000e+00 +4.9999999999935874e-02 -2.7740627752161768e-06 +0.0000000000000000e+00 +9.9999999999615230e-01
1.0000000000000001e-01 +8.5979997225937232e+00 +0.0000000000000000e+00 +9.9999999999486971e-02 -5.5481255397661056e-06 +0.0000000000000000e+00 +9.9999999998460920e-01
1.5000000000000002e-01 +8.5979993758358475e+00 +0.0000000000000000e+00 +1.4999999999826852e-01 -8.3221899267454896e-06 +0.0000000000000000e+00 +9.9999999996537059e-01
2.0000000000000001e-01 +8.5979988903746776e+00 +0.0000000000000000e+00 +1.9999999999589577e-01 -1.1096257566633068e-05 +0.0000000000000000e+00 +9.9999999993843658e-01
2.5000000000000000e-01 +8.5979982662100092e+00 +0.0000000000000000e+00 +2.4999999999198391e-01 -1.3870330087290689e-05 +0.0000000000000000e+00 +9.9999999990380706e-01
2.9999999999999999e-01 +8.5979975033415599e+00 +0.0000000000000000e+00 +2.9999999998614818e-01 -1.6644409113963398e-05 +0.0000000000000000e+00 +9.9999999986148191e-01
3.4999999999999998e-01 +8.5979966017689620e+00 +0.0000000000000000e+00 +3.4999999997800380e-01 -1.9418496269279509e-05 +0.0000000000000000e+00 +9.9999999981146104e-01
3.9999999999999997e-01 +8.5979955614917696e+00 +0.0000000000000000e+00 +3.9999999996716601e-01 -2.2192593173250685e-05 +0.0000000000000000e+00 +9.9999999975374443e-01
4.4999999999999996e-01 +8.5979943825094551e+00 +0.0000000000000000e+00 +4.4999999995324996e-01 -2.4966701443272015e-05 +0.0000000000000000e+00 +9.9999999968833198e-01
4.9999999999999994e-01 +8.5979930648214093e+00 +0.0000000000000000e+00 +4.9999999993587091e-01 -2.7740822694122091e-05 +0.0000000000000000e+00 +9.9999999961522346e-01
5.4999999999999993e-01 +8.5979916084269430e+00 +0.0000000000000000e+00 +5.4999999991464399e-01 -3.0514958537963083e-05 +0.0000000000000000e+00 +9.9999999953441876e-01
5.9999999999999998e-01 +8.5979900133252851e+00 +0.0000000000000000e+00 +5.9999999988918451e-01 -3.3289110584340810e-05 +0.0000000000000000e+00 +9.9999999944591766e-01
6.5000000000000002e-01 +8.5979882795155866e+00 +0.0000000000000000e+00 +6.4999999985910750e-01 -3.6063280440184824e-05 +0.0000000000000000e+00 +9.9999999934972006e-01
7.0000000000000007e-01 +8.5979864069969167e+00 +0.0000000000000000e+00 +6.9999999982402816e-01 -3.8837469709808477e-05 +0.0000000000000000e+00 +9.9999999924582561e-01
7.5000000000000011e-01 +8.5979843957682647e+00 +0.0000000000000000e+00 +7.4999999978356169e-01 -4.1611679994908985e-05 +0.0000000000000000e+00 +9.9999999913423421e-01
8.0000000000000016e-01 +8.5979822458285398e+00 +0.0000000000000000e+00 +7.9999999973732328e-01 -4.4385912894567512e-05 +0.0000000000000000e+00 +9.9999999901494552e-01
8.5000000000000020e-01 +8.5979799571765714e+00 +0.0000000000000000e+00 +8.4999999968492801e-01 -4.7160170005249240e-05 +0.0000000000000000e+00 +9.9999999888795932e-01
9.0000000000000024e-01 +8.5979775298111090e+00 +0.0000000000000000e+00 +8.9999999962599098e-01 -4.9934452920803442e-05 +0.0000000000000000e+00 +9.9999999875327539e-01
9.5000000000000029e-01 +8.5979749637308220e+00 +0.0000000000000000e+00 +9.4999999956012726e-01 -5.2708763232463535e-05 +0.0000000000000000e+00 +9.9999999861089328e-01
1.0000000000000002e+00 +8.5979722589343019e+00 +0.0000000000000000e+00 +9.9999999948695195e-01 -5.5483102528847172e-05 +0.0000000000000000e+00 +9.9999999846081278e-01
1.0500000000000003e+00 +8.5979694154200601e+00 +0.0000000000000000e+00 +1.0499999994060802e+00 -5.8257472395956291e-05 +0.0000000000000000e+00 +9.9999999830303354e-01
1.1000000000000003e+00 +8.5979664331865262e+00 +0.0000000000000000e+00 +1.0999999993171270e+00 -6.1031874417177194e-05 +0.0000000000000000e+00 +9.9999999813755525e-01
1.1500000000000004e+00 +8.5979633122320553e+00 +0.0000000000000000e+00 +1.1499999992197074e+00 -6.3806310173280606e-05 +0.0000000000000000e+00 +9.9999999796437744e-01
1.2000000000000004e+00 +8.5979600525549209e+00 +0.0000000000000000e+00 +1.1999999991134365e+00 -6.6580781242421750e-05 +0.0000000000000000e+00 +9.9999999778349979e-01
1.2500000000000004e+00 +8.5979566541533163e+00 +0.0000000000000000e+00 +1.2499999989979291e+00 -6.9355289200140400e-05 +0.0000000000000000e+00 +9.9999999759492197e-01
1.3000000000000005e+00 +8.5979531170253587e+00 +0.0000000000000000e+00 +1.2999999988728004e+00 -7.2129835619360951e-05 +0.0000000000000000e+00 +9.9999999739864343e-01
1.3500000000000005e+00 +8.5979494411690869e+00 +0.0000000000000000e+00 +1.3499999987376652e+00 -7.4904422070392498e-05 +0.0000000000000000e+00 +9.9999999719466381e-01
1.4000000000000006e+00 +8.5979456265824581e+00 +0.0000000000000000e+00 +1.3999999985921385e+00 -7.7679050120928878e-05 +0.0000000000000000e+00 +9.9999999698298259e-01
1.4500000000000006e+00 +8.5979416732633549e+00 +0.0000000000000000e+00 +1.4499999984358352e+00 -8.0453721336048724e-05 +0.0000000000000000e+00 +9.9999999676359941e-01
1.5000000000000007e+00 +8.5979375812095800e+00 +0.0000000000000000e+00 +1.4999999982683700e+00 -8.3228437278215573e-05 +0.0000000000000000e+00 +9.9999999653651361e-01
1.5500000000000007e+00 +8.5979333504188560e+00 +0.0000000000000000e+00 +1.5499999980893582e+00 -8.6003199507277868e-05 +0.0000000000000000e+00 +9.9999999630172487e-01
1.6000000000000008e+00 +8.5979289808888311e+00 +0.0000000000000000e+00 +1.5999999978984143e+00 -8.8778009580469050e-05 +0.0000000000000000e+00 +9.9999999605923251e-01
1.6500000000000008e+00 +8.5979244726170752e+00 +0.0000000000000000e+00 +1.6499999976951532e+00 -9.1552869052407613e-05 +0.0000000000000000e+00 +9.9999999580903609e-01
1.7000000000000008e+00 +8.5979198256010783e+00 +0.0000000000000000e+00 +1.6999999974791895e+00 -9.4327779475097186e-05 +0.0000000000000000e+00 +9.9999999555113506e-01
1.7500000000000009e+00 +8.5979150398382540e+00 +0.0000000000000000e+00 +1.7499999972501381e+00 -9.7102742397926534e-05 +0.0000000000000000e+00 +9.9999999528552874e-01
1.8000000000000009e+00 +8.5979101153259379e+00 +0.0000000000000000e+00 +1.7999999970076139e+00 -9.9877759367669649e-05 +0.0000000000000000e+00 +9.9999999501221659e-01
1.8500000000000010e+00 +8.5979050520613907e+00 +0.0000000000000000e+00 +1.8499999967512315e+00 -1.0265283192848584e-04 +0.0000000000000000e+00 +9.9999999473119805e-01
1.9000000000000010e+00 +8.5978998500417934e+00 +0.0000000000000000e+00 +1.8999999964806054e+00 -1.0542796162191971e-04 +0.0000000000000000e+00 +9.9999999444247245e-01
1.9500000000000011e+00 +8.5978945092642505e+00 +0.0000000000000000e+00 +1.9499999961953502e+00 -1.0820314998690128e-04 +0.0000000000000000e+00 +9.9999999414603913e-01
2.0000000000000009e+00 +8.5978890297257902e+00 +0.0000000000000000e+00 +1.9999999958950807e+00 -1.1097839855974602e-04 +0.0000000000000000e+00 +9.9999999384189753e-01
2.0500000000000007e+00 +8.5978834114233642e+00 +0.0000000000000000e+00 +2.0499999955794115e+00 -1.1375370887384635e-04 +0.0000000000000000e+00 +9.9999999353004687e-01
2.1000000000000005e+00 +8.5978776543538480e+00 +0.0000000000000000e+00 +2.0999999952479569e+00 -1.1652908245627788e-04 +0.0000000000000000e+00 +9.9999999321048649e-01
2.1500000000000004e+00 +8.5978717585140387e+00 +0.0000000000000000e+00 +2.1499999949003317e+00 -1.1930452082440560e-04 +0.0000000000000000e+00 +9.9999999288321573e-01
2.2000000000000002e+00 +8.5978657239006608e+00 +0.0000000000000000e+00 +2.1999999945361499e+00 -1.2208002548557537e-04 +0.0000000000000000e+00 +9.9999999254823380e-01
2.2500000000000000e+00 +8.5978595505103605e+00 +0.0000000000000000e+00 +2.2499999941550266e+00 -1.2485559793711407e-04 +0.0000000000000000e+00 +9.9999999220553992e-01
2.2999999999999998e+00 +8.5978532383397130e+00 +0.0000000000000000e+00 +2.2999999937565754e+00 -1.2763123966632952e-04 +0.0000000000000000e+00 +9.9999999185513344e-01
2.3499999999999996e+00 +8.5978467873852154e+00 +0.0000000000000000e+00 +2.3499999933404112e+00 -1.3040695215051060e-04 +0.0000000000000000e+00 +9.9999999149701357e-01
2.3999999999999995e+00 +8.5978401976432934e+00 +0.0000000000000000e+00 +2.3999999929061482e+00 -1.3318273685692736e-04 +0.0000000000000000e+00 +9.9999999113117943e-01
2.4499999999999993e+00 +8.5978334691103004e+00 +0.0000000000000000e+00 +2.4499999924534004e+00 -1.3595859524283095e-04 +0.0000000000000000e+00 +9.9999999075763035e-01
2.4999999999999991e+00 +8.5978266017825167e+00 +0.0000000000000000e+00 +2.4999999919817824e+00 -1.3873452875545376e-04 +0.0000000000000000e+00 +9.9999999037636544e-01
2.5499999999999989e+00 +8.5978195956561496e+00 +0.0000000000000000e+00 +2.5499999914909082e+00 -1.4151053883200944e-04 +0.0000000000000000e+00 +9.9999998998738382e-01
2.5999999999999988e+00 +8.5978124507273339e+00 +0.0000000000000000e+00 +2.5999999909803919e+00 -1.4428662689969292e-04 +0.0000000000000000e+00 +9.9999998959068481e-01
2.6499999999999986e+00 +8.5978051669921367e+00 +0.0000000000000000e+00 +2.6499999904498477e+00 -1.4706279437568052e-04 +0.0000000000000000e+00 +9.9999998918626742e-01
2.6999999999999984e+00 +8.5977977444465505e+00 +0.0000000000000000e+00 +2.6999999898988900e+00 -1.4983904266712995e-04 +0.0000000000000000e+00 +9.9999998877413077e-01
2.7499999999999982e+00 +8.5977901830865004e+00 +0.0000000000000000e+00 +2.7499999893271321e+00 -1.5261537317118033e-04 +0.0000000000000000e+00 +9.9999998835427406e-01
2.7999999999999980e+00 +8.5977824829078404e+00 +0.0000000000000000e+00 +2.7999999887341884e+00 -1.5539178727495235e-04 +0.0000000000000000e+00 +9.9999998792669631e-01
2.8499999999999979e+00 +8.5977746439063569e+00 +0.0000000000000000e+00 +2.8499999881196731e+00 -1.5816828635554820e-04 +0.0000000000000000e+00 +9.9999998749139662e-01
2.8999999999999977e+00 +8.5977666660777654e+00 +0.0000000000000000e+00 +2.8999999874831994e+00 -1.6094487178005165e-04 +0.0000000000000000e+00 +9.9999998704837412e-01
2.9499999999999975e+00 +8.5977585494177173e+00 +0.0000000000000000e+00 +2.9499999868243818e+00 -1.6372154490552814e-04 +0.0000000000000000e+00 +9.9999998659762790e-01
2.9999999999999973e+00 +8.5977502939217914e+00 +0.0000000000000000e+00 +2.9999999861428335e+00 -1.6649830707902476e-04 +0.0000000000000000e+00 +9.9999998613915686e-01
3.0499999999999972e+00 +8.5977418995855022e+00 +0.0000000000000000e+00 +3.0499999854381685e+00 -1.6927515963757032e-04 +0.0000000000000000e+00 +9.9999998567296011e-01
3.0999999999999970e+00 +8.5977333664042987e+00 +0.0000000000000000e+00 +3.0999999847100006e+00 -1.7205210390817537e-04 +0.0000000000000000e+00 +9.9999998519903666e-01
3.1499999999999968e+00 +8.5977246943735608e+00 +0.0000000000000000e+00 +3.1499999839579433e+00 -1.7482914120783231e-04 +0.0000000000000000e+00 +9.9999998471738560e-01
3.1999999999999966e+00 +8.5977158834886058e+00 +0.0000000000000000e+00 +3.1999999831816104e+00 -1.7760627284351535e-04 +0.0000000000000000e+00 +9.9999998422800584e-01
3.2499999999999964e+00 +8.5977069337446839e+00 +0.0000000000000000e+00 +3.2499999823806149e+00 -1.8038350011218062e-04 +0.0000000000000000e+00 +9.9999998373089638e-01
3.2999999999999963e+00 +8.5976978451369792e+00 +0.0000000000000000e+00 +3.2999999815545711e+00 -1.8316082430076610e-04 +0.0000000000000000e+00 +9.9999998322605610e-01
3.3499999999999961e+00 +8.5976886176606158e+00 +0.0000000000000000e+00 +3.3499999807030920e+00 -1.8593824668619184e-04 +0.0000000000000000e+00 +9.9999998271348411e-01
3.3999999999999959e+00 +8.5976792513106517e+00 +0.0000000000000000e+00 +3.3999999798257909e+00 -1.8871576853535981e-04 +0.0000000000000000e+00 +9.9999998219317920e-01
3.4499999999999957e+00 +8.5976697460820830e+00 +0.0000000000000000e+00 +3.4499999789222811e+00 -1.9149339110515406e-04 +0.0000000000000000e+00 +9.9999998166514037e-01
3.4999999999999956e+00 +8.5976601019698418e+00 +0.0000000000000000e+00 +3.4999999779921760e+00 -1.9427111564244073e-04 +0.0000000000000000e+00 +9.9999998112936661e-01
3.5499999999999954e+00 +8.5976503189687978e+00 +0.0000000000000000e+00 +3.5499999770350890e+00 -1.9704894338406804e-04 +0.0000000000000000e+00 +9.9999998058585671e-01
3.5999999999999952e+00 +8.5976403970737625e+00 +0.0000000000000000e+00 +3.5999999760506327e+00 -1.9982687555686638e-04 +0.0000000000000000e+00 +9.9999998003460966e-01
3.6499999999999950e+00 +8.5976303362794813e+00 +0.0000000000000000e+00 +3.6499999750384209e+00 -2.0260491337764839e-04 +0.0000000000000000e+00 +9.9999997947562425e-01
3.6999999999999948e+00 +8.5976201365806428e+00 +0.0000000000000000e+00 +3.6999999739980662e+00 -2.0538305805320884e-04 +0.0000000000000000e+00 +9.9999997890889947e-01
3.7499999999999947e+00 +8.5976097979718755e+00 +0.0000000000000000e+00 +3.7499999729291820e+00 -2.0816131078032482e-04 +0.0000000000000000e+00 +9.9999997833443410e-01
3.7999999999999945e+00 +8.5975993204477454e+00 +0.0000000000000000e+00 +3.7999999718313808e+00 -2.1093967274575566e-04 +0.0000000000000000e+00 +9.9999997775222693e-01
3.8499999999999943e+00 +8.5975887040027619e+00 +0.0000000000000000e+00 +3.8499999707042756e+00 -2.1371814512624311e-04 +0.0000000000000000e+00 +9.9999997716227695e-01
3.8999999999999941e+00 +8.5975779486313737e+00 +0.0000000000000000e+00 +3.8999999695474794e+00 -2.1649672908851119e-04 +0.0000000000000000e+00 +9.9999997656458284e-01
3.9499999999999940e+00 +8.5975670543279747e+00 +0.0000000000000000e+00 +3.9499999683606046e+00 -2.1927542578926634e-04 +0.0000000000000000e+00 +9.9999997595914347e-01
3.9999999999999938e+00 +8.5975560210868966e+00 +0.0000000000000000e+00 +3.9999999671432644e+00 -2.2205423637519748e-04 +0.0000000000000000e+00 +9.9999997534595764e-01
4.0499999999999936e+00 +8.5975448489024195e+00 +0.0000000000000000e+00 +4.0499999658950712e+00 -2.2483316198292343e-04 +0.0000000000000000e+00 +9.9999997472502422e-01
4.0999999999999934e+00 +8.5975335377687632e+00 +0.0000000000000000e+00 +4.0999999646156375e+00 -2.2761220373841592e-04 +0.0000000000000000e+00 +9.9999997409634189e-01
4.1499999999999932e+00 +8.5975220876800922e+00 +0.0000000000000000e+00 +4.1499999633045759e+00 -2.3039136275642240e-04 +0.0000000000000000e+00 +9.9999997345990954e-01
4.1999999999999931e+00 +8.5975104986305144e+00 +0.0000000000000000e+00 +4.1999999619614989e+00 -2.3317064014041357e-04 +0.0000000000000000e+00 +9.9999997281572583e-01
4.2499999999999929e+00 +8.5974987706140862e+00 +0.0000000000000000e+00 +4.2499999605860195e+00 -2.3595003698258341e-04 +0.0000000000000000e+00 +9.9999997216378955e-01
4.2999999999999927e+00 +8.5974869036248069e+00 +0.0000000000000000e+00 +4.2999999591777494e+00 -2.3872955436384918e-04 +0.0000000000000000e+00 +9.9999997150409947e-01
4.3499999999999925e+00 +8.5974748976566229e+00 +0.0000000000000000e+00 +4.3499999577363004e+00 -2.4150919335385140e-04 +0.0000000000000000e+00 +9.9999997083665426e-01
4.3999999999999924e+00 +8.5974627527034269e+00 +0.0000000000000000e+00 +4.3999999562612855e+00 -2.4428895501095389e-04 +0.0000000000000000e+00 +9.9999997016145270e-01
4.4499999999999922e+00 +8.5974504687590603e+00 +0.0000000000000000e+00 +4.4499999547523164e+00 -2.4706884038224375e-04 +0.0000000000000000e+00 +9.9999996947849346e-01
4.4999999999999920e+00 +8.5974380458173094e+00 +0.0000000000000000e+00 +4.4999999532090058e+00 -2.4984885050353137e-04 +0.0000000000000000e+00 +9.9999996878777531e-01
4.5499999999999918e+00 +8.5974254838719126e+00 +0.0000000000000000e+00 +4.5499999516309648e+00 -2.5262898639935040e-04 +0.0000000000000000e+00 +9.9999996808929692e-01
4.5999999999999917e+00 +8.5974127829165568e+00 +0.0000000000000000e+00 +4.5999999500178061e+00 -2.5540924908295783e-04 +0.0000000000000000e+00 +9.9999996738305708e-01
4.6499999999999915e+00 +8.5973999429448753e+00 +0.0000000000000000e+00 +4.6499999483691417e+00 -2.5818963955633381e-04 +0.0000000000000000e+00 +9.9999996666905433e-01
4.6999999999999913e+00 +8.5973869639504557e+00 +0.0000000000000000e+00 +4.6999999466845823e+00 -2.6097015881018193e-04 +0.0000000000000000e+00 +9.9999996594728735e-01
4.7499999999999911e+00 +8.5973738459268318e+00 +0.0000000000000000e+00 +4.7499999449637409e+00 -2.6375080782392889e-04 +0.0000000000000000e+00 +9.9999996521775492e-01
4.7999999999999909e+00 +8.5973605888674935e+00 +0.0000000000000000e+00 +4.7999999432062284e+00 -2.6653158756572473e-04 +0.0000000000000000e+00 +9.9999996448045558e-01
4.8499999999999908e+00 +8.5973471927658807e+00 +0.0000000000000000e+00 +4.8499999414116566e+00 -2.6931249899244270e-04 +0.0000000000000000e+00 +9.9999996373538813e-01
4.8999999999999906e+00 +8.5973336576153834e+00 +0.0000000000000000e+00 +4.8999999395796374e+00 -2.7209354304967939e-04 +0.0000000000000000e+00 +9.9999996298255112e-01
4.9499999999999904e+00 +8.5973199834093492e+00 +0.0000000000000000e+00 +4.9499999377097819e+00 -2.7487472067175452e-04 +0.0000000000000000e+00 +9.9999996222194310e-01
4.9999999999999902e+00 +8.5973061701410760e+00 +0.0000000000000000e+00 +4.9999999358017018e+00 -2.7765603278171109e-04 +0.0000000000000000e+00 +9.9999996145356285e-01
5.0499999999999901e+00 +8.5972922178038154e+00 +0.0000000000000000e+00 +5.0499999338550081e+00 -2.8043748029131526e-04 +0.0000000000000000e+00 +9.9999996067740893e-01
5.0999999999999899e+00 +8.5972781263907745e+00 +0.0000000000000000e+00 +5.0999999318693128e+00 -2.8321906410105647e-04 +0.0000000000000000e+00 +9.9999995989347990e-01
5.1499999999999897e+00 +8.5972638958951180e+00 +0.0000000000000000e+00 +5.1499999298442267e+00 -2.8600078510014718e-04 +0.0000000000000000e+00 +9.9999995910177442e-01
5.1999999999999895e+00 +8.5972495263099642e+00 +0.0000000000000000e+00 +5.1999999277793609e+00 -2.8878264416652320e-04 +0.0000000000000000e+00 +9.9999995830229116e-01
5.2499999999999893e+00 +8.5972350176283872e+00 +0.0000000000000000e+00 +5.2499999256743264e+00 -2.9156464216684332e-04 +0.0000000000000000e+00 +9.9999995749502868e-01
5.2999999999999892e+00 +8.5972203698434182e+00 +0.0000000000000000e+00 +5.2999999235287341e+00 -2.9434677995648955e-04 +0.0000000000000000e+00 +9.9999995667998554e-01
5.3499999999999890e+00 +8.5972055829480478e+00 +0.0000000000000000e+00 +5.3499999213421949e+00 -2.9712905837956695e-04 +0.0000000000000000e+00 +9.9999995585716028e-01
5.3999999999999888e+00 +8.5971906569352221e+00 +0.0000000000000000e+00 +5.3999999191143200e+00 -2.9991147826890368e-04 +0.0000000000000000e+00 +9.9999995502655148e-01
5.4499999999999886e+00 +8.5971755917978481e+00 +0.0000000000000000e+00 +5.4499999168447202e+00 -3.0269404044605097e-04 +0.0000000000000000e+00 +9.9999995418815779e-01
5.4999999999999885e+00 +8.5971603875287919e+00 +0.0000000000000000e+00 +5.4999999145330056e+00 -3.0547674572128306e-04 +0.0000000000000000e+00 +9.9999995334197778e-01
5.5499999999999883e+00 +8.5971450441208770e+00 +0.0000000000000000e+00 +5.5499999121787882e+00 -3.0825959489359718e-04 +0.0000000000000000e+00 +9.9999995248800988e-01
5.5999999999999881e+00 +8.5971295615668897e+00 +0.0000000000000000e+00 +5.5999999097816771e+00 -3.1104258875071358e-04 +0.0000000000000000e+00 +9.9999995162625277e-01
5.6499999999999879e+00 +8.5971139398595771e+00 +0.0000000000000000e+00 +5.6499999073412832e+00 -3.1382572806907546e-04 +0.0000000000000000e+00 +9.9999995075670489e-01
5.6999999999999877e+00 +8.5970981789916454e+00 +0.0000000000000000e+00 +5.6999999048572176e+00 -3.1660901361384890e-04 +0.0000000000000000e+00 +9.9999994987936491e-01
5.7499999999999876e+00 +8.5970822789557655e+00 +0.0000000000000000e+00 +5.7499999023290904e+00 -3.1939244613892295e-04 +0.0000000000000000e+00 +9.9999994899423128e-01
5.7999999999999874e+00 +8.5970662397445690e+00 +0.0000000000000000e+00 +5.7999998997565116e+00 -3.2217602638690939e-04 +0.0000000000000000e+00 +9.9999994810130255e-01
5.8499999999999872e+00 +8.5970500613506520e+00 +0.0000000000000000e+00 +5.8499998971390914e+00 -3.2495975508914295e-04 +0.0000000000000000e+00 +9.9999994720057728e-01
5.8999999999999870e+00 +8.5970337437665734e+00 +0.0000000000000000e+00 +5.8999998944764398e+00 -3.2774363296568109e-04 +0.0000000000000000e+00 +9.9999994629205402e-01
