# multipoles
# s[mm] polynom_b[n=0][T/m^n] polynom_b[n=1][T/m^n] polynom_b[n=2][T/m^n] polynom_b[n=3][T/m^n] polynom_b[n=4][T/m^n] polynom_b[n=5][T/m^n] polynom_b[n=6][T/m^n] 
-0.0000000000000000e+00 -5.5089355664883877e-01 +7.2255495642214660e+00 +5.9781996144445015e+00 -2.1470603299611739e+01 -1.1956178295085645e+04 -2.3455066208645800e+05 +7.7079742910735711e+07 
-5.0000000000000003e-02 -5.5089494887351276e-01 +7.2255717037055822e+00 +5.9815684920830074e+00 -2.1932338311211105e+01 -1.2037150057926387e+04 -2.3135420431989839e+05 +7.7604836339195013e+07 
-1.0000000000000001e-01 -5.5089672107421828e-01 +7.2256151949831002e+00 +5.9844878105795676e+00 -2.2421185547150589e+01 -1.2115524807938813e+04 -2.2795247468166277e+05 +7.8107792799675465e+07 
-1.4999999999999999e-01 -5.5089887235142421e-01 +7.2256799336917013e+00 +5.9869513003941517e+00 -2.2935119860624098e+01 -1.2191238944772949e+04 -2.2435992350475545e+05 +7.8588512066174284e+07 
-2.0000000000000001e-01 -5.5090140180560421e-01 +7.2257658154702886e+00 +5.9889526879186956e+00 -2.3472116130031011e+01 -1.2264228764621408e+04 -2.2059100089606358e+05 +7.9046893237102509e+07 
-2.5000000000000000e-01 -5.5090430853729755e-01 +7.2258727359594186e+00 +5.9904857031368000e+00 -2.4030149277148727e+01 -1.2334430656064824e+04 -2.1666015658341470e+05 +7.9482836017273590e+07 
-2.9999999999999999e-01 -5.5090759164701475e-01 +7.2260005907992229e+00 +5.9915440730272911e+00 -2.4607194181295466e+01 -1.2401780928781553e+04 -2.1258184062776389e+05 +7.9896239582354426e+07 
-3.4999999999999998e-01 -5.5091125023525278e-01 +7.2261492756322339e+00 +5.9921215279683322e+00 -2.5201225789432080e+01 -1.2466215980760608e+04 -2.0837050252171516e+05 +8.0287003693260208e+07 
-4.0000000000000002e-01 -5.5091528340263896e-01 +7.2263186860993622e+00 +5.9922117956360639e+00 -2.5810218976647327e+01 -1.2527672140377168e+04 -2.0404059228147936e+05 +8.0655027651304603e+07 
-4.5000000000000001e-01 -5.5091969024967136e-01 +7.2265087178441556e+00 +5.9918086052617348e+00 -2.6432148672702880e+01 -1.2586085773529107e+04 -1.9960655952901888e+05 +8.1000210994236887e+07 
-5.0000000000000000e-01 -5.5092446987698773e-01 +7.2267192665100017e+00 +5.9909056849958766e+00 -2.7064989799124767e+01 -1.2641393219425219e+04 -1.9508285388868977e+05 +8.1322453086310461e+07 
-5.5000000000000004e-01 -5.5092962138516455e-01 +7.2269502277420470e+00 +5.9894967632949063e+00 -2.7706717303780476e+01 -1.2693530826958173e+04 -1.9048392480219848e+05 +8.1621653362007245e+07 
-5.9999999999999998e-01 -5.5093514387489140e-01 +7.2272014971861065e+00 +5.9875755714521732e+00 -2.8355306152597159e+01 -1.2742435020020426e+04 -1.8582422151195596e+05 +8.1897711757852167e+07 
-6.5000000000000002e-01 -5.5094103644670733e-01 +7.2274729704881064e+00 +5.9851358342273278e+00 -2.9008731275181749e+01 -1.2788042042156037e+04 -1.8111819357618527e+05 +8.2150526974389598e+07 
-6.9999999999999996e-01 -5.5094729820132327e-01 +7.2277645432939588e+00 +5.9821712814222874e+00 -2.9664967577913519e+01 -1.2830288281987714e+04 -1.7638029074531168e+05 +8.2379998726299956e+07 
-7.5000000000000000e-01 -5.5095392823939482e-01 +7.2280761112535643e+00 +5.9786756435881063e+00 -3.0321990110498028e+01 -1.2869110141983077e+04 -1.7162496155036750e+05 +8.2586026796867564e+07 
-8.0000000000000004e-01 -5.5096092566159094e-01 +7.2284075700136965e+00 +5.9746426461428541e+00 -3.0977773756068714e+01 -1.2904443887982297e+04 -1.6686665592653089e+05 +8.2768510055046201e+07 
-8.4999999999999998e-01 -5.5096828956865151e-01 +7.2287588152259170e+00 +5.9700660196990043e+00 -3.1630293564467937e+01 -1.2936225927233239e+04 -1.6211982246112204e+05 +8.2927348326927856e+07 
-9.0000000000000002e-01 -5.5097601906128113e-01 +7.2291297425395200e+00 +5.9649394906654996e+00 -3.2277524468311690e+01 -1.2964392555225309e+04 -1.5739891067887406e+05 +8.3062440691727936e+07 
-9.4999999999999996e-01 -5.5098411324019403e-01 +7.2295202476072387e+00 +5.9592567886129659e+00 -3.2917441523332222e+01 -1.2988880151688156e+04 -1.5271836904714565e+05 +8.3173686793788731e+07 
-1.0000000000000000e+00 -5.5099257120612932e-01 +7.2299302260818079e+00 +5.9530116403672686e+00 -3.3548019727991438e+01 -1.3009625024252155e+04 -1.4809264663073234e+05 +8.3260985796545774e+07 
-1.0500000000000000e+00 -5.5100139205987597e-01 +7.2303595736147361e+00 +5.9461977739395939e+00 -3.4167234021010572e+01 -1.3026563511770169e+04 -1.4353619292297578e+05 +8.3324237072434068e+07 
-1.1000000000000001e+00 -5.5101057490215710e-01 +7.2308081858640048e+00 +5.9388089169188731e+00 -3.4773059576412891e+01 -1.3039631943060764e+04 -1.3906345546832556e+05 +8.3363339931388021e+07 
-1.1499999999999999e+00 -5.5102011883384483e-01 +7.2312759584817892e+00 +5.9308387976127976e+00 -3.5363471293685102e+01 -1.3048766671090585e+04 -1.3468888414832862e+05 +8.3378193865621790e+07 
-1.2000000000000000e+00 -5.5103002295569004e-01 +7.2317627871270114e+00 +5.9222811429540174e+00 -3.5936444317680646e+01 -1.3053904008264743e+04 -1.3042692679807618e+05 +8.3368698080355942e+07 
-1.2500000000000000e+00 -5.5104028636851166e-01 +7.2322685674553684e+00 +5.9131296802048929e+00 -3.6489953629730735e+01 -1.3054980279599649e+04 -1.2629203263986518e+05 +8.3334751879479468e+07 
-1.3000000000000000e+00 -5.5105090817316460e-01 +7.2327931951269662e+00 +5.9033781353823267e+00 -3.7021974356699978e+01 -1.3051931777069538e+04 -1.2229864973705060e+05 +8.3276254349873304e+07 
-1.3500000000000001e+00 -5.5106188747049334e-01 +7.2333365658025013e+00 +5.8930202347377350e+00 -3.7530481629406871e+01 -1.3044694799195962e+04 -1.1846122608432721e+05 +8.3193104620772257e+07 
-1.3999999999999999e+00 -5.5107322336132325e-01 +7.2338985751410201e+00 +5.8820497081284726e+00 -3.8013450465729946e+01 -1.3033205746984917e+04 -1.1479421068171931e+05 +8.3085202534457982e+07 
-1.4500000000000000e+00 -5.5108491494655709e-01 +7.2344791188055693e+00 +5.8704602774271235e+00 -3.8468856017936467e+01 -1.3017400805217143e+04 -1.1131205144758544e+05 +8.2952446473281473e+07 
-1.5000000000000000e+00 -5.5109696132710051e-01 +7.2350780924587088e+00 +5.8582456718889420e+00 -3.8894673397828562e+01 -1.2997216359522588e+04 -1.0802919660611758e+05 +8.2794736181510851e+07 
-1.5500000000000000e+00 -5.5110936160381907e-01 +7.2356953917647715e+00 +5.8453996154571808e+00 -3.9288877730656665e+01 -1.2972588653738889e+04 -1.0496009440441499e+05 +8.2611970453768536e+07 
-1.6000000000000001e+00 -5.5112211487762763e-01 +7.2363309123895529e+00 +5.8319158341654527e+00 -3.9649444188004082e+01 -1.2943453993084013e+04 -1.0211919265467647e+05 +8.2404048518648788e+07 
-1.6499999999999999e+00 -5.5113522024948525e-01 +7.2369845499990113e+00 +5.8177880539103581e+00 -3.9974347913303497e+01 -1.2909748677177362e+04 -9.9520939455200642e+04 +8.2170869561860174e+07 
-1.7000000000000000e+00 -5.5114867682028468e-01 +7.2376562002619549e+00 +5.8030099958920500e+00 -4.0261564116838024e+01 -1.2871408880728646e+04 -9.7179782434017179e+04 +8.1912331931992635e+07 
-1.7500000000000000e+00 -5.5116248369104226e-01 +7.2383457588457816e+00 +5.7875753914654231e+00 -4.0509067932118164e+01 -1.2828371060424301e+04 -9.5110169845762488e+04 +8.1628335918719649e+07 
-1.8000000000000000e+00 -5.5117663996265576e-01 +7.2390531214232530e+00 +5.7714779578096609e+00 -4.0714834670517533e+01 -1.2780571287712311e+04 -9.3326548524081780e+04 +8.1318779194387749e+07 
-1.8500000000000001e+00 -5.5119114473612696e-01 +7.2397781836625352e+00 +5.7547114229624050e+00 -4.0876839415335880e+01 -1.2727945929893051e+04 -9.1843367258630693e+04 +8.0983561447867468e+07 
-1.8999999999999999e+00 -5.5120599711246954e-01 +7.2405208412396869e+00 +5.7372695102636060e+00 -4.0993057539838667e+01 -1.2670431232066716e+04 -9.0675072491778192e+04 +8.0622581559363246e+07 
-1.9500000000000000e+00 -5.5122119619264154e-01 +7.2412809898264818e+00 +5.7191459398177651e+00 -4.1061464214268454e+01 -1.2607963351581788e+04 -8.9836112332045246e+04 +8.0235737815534696e+07 
-2.0000000000000000e+00 -5.5123674107769860e-01 +7.2420585250987211e+00 +5.7003344375733400e+00 -4.1080034721275091e+01 -1.2540478611217397e+04 -8.9340934087487156e+04 +7.9822929655374542e+07 
-2.0499999999999998e+00 -5.5125263068595387e-01 +7.2428533405815010e+00 +5.6808324183417174e+00 -4.1047382019781509e+01 -1.2467957857679627e+04 -8.9199340540805701e+04 +7.9384254299789846e+07 
-2.1000000000000001e+00 -5.5126886320267099e-01 +7.2436653237431372e+00 +5.6606518685966050e+00 -4.0964718867372547e+01 -1.2390547847721136e+04 -8.9402250798501351e+04 +7.8920509936004922e+07 
-2.1499999999999999e+00 -5.5128543662938290e-01 +7.2444943573205833e+00 +5.6398085762617667e+00 -4.0833926035928101e+01 -1.2308433718289696e+04 -8.9935779440189508e+04 +7.8432647327812061e+07 
-2.2000000000000002e+00 -5.5130234896764663e-01 +7.2453403240481604e+00 +5.6183183227074753e+00 -4.0656884184203207e+01 -1.2221800429146693e+04 -9.0786041974658903e+04 +7.7921616038681686e+07 
-2.2500000000000000e+00 -5.5131959821898069e-01 +7.2462031066598449e+00 +5.5961968941055433e+00 -4.0435473934585943e+01 -1.2130833072280744e+04 -9.1939154207476255e+04 +7.7388366539310306e+07 
-2.2999999999999998e+00 -5.5133718238493423e-01 +7.2470825878906053e+00 +5.5734600757907744e+00 -4.0171575940757307e+01 -1.2035716714949151e+04 -9.3381231679246921e+04 +7.6833849119619504e+07 
-2.3500000000000001e+00 -5.5135509946703554e-01 +7.2479786504777755e+00 +5.5501236519903570e+00 -3.9867070929159226e+01 -1.1936636394398796e+04 -9.5098389348619545e+04 +7.6259013866922244e+07 
-2.3999999999999999e+00 -5.5137334746688260e-01 +7.2488911771574944e+00 +5.5262034078645099e+00 -3.9523839577648857e+01 -1.1833777170409518e+04 -9.7076742530486285e+04 +7.5664811008066088e+07 
-2.4500000000000002e+00 -5.5139192438602591e-01 +7.2498200506662416e+00 +5.5017151283210444e+00 -3.9143762556049062e+01 -1.1727324102481847e+04 -9.9302406624907642e+04 +7.5052190792349398e+07 
-2.5000000000000000e+00 -5.5141082822611698e-01 +7.2507651537377553e+00 +5.4766745995747659e+00 -3.8728720415971495e+01 -1.1617462276656461e+04 -1.0176149798796981e+05 +7.4422103614058271e+07 
-2.5499999999999998e+00 -5.5143005698867298e-01 +7.2517263691113145e+00 +5.4510976063414871e+00 -3.8280593922089722e+01 -1.1504376745594880e+04 -1.0444013120127816e+05 +7.3775499666886300e+07 
-2.6000000000000001e+00 -5.5144960867538073e-01 +7.2527035795221391e+00 +5.4249999331946865e+00 -3.7801263670364122e+01 -1.1388252552797925e+04 -1.0732442221745255e+05 +7.3113329060116574e+07 
-2.6499999999999999e+00 -5.5146948128783890e-01 +7.2536966677070680e+00 +5.3983973664035902e+00 -3.7292610305268809e+01 -1.1269274788221901e+04 -1.1040048660390302e+05 +7.2436542217688605e+07 
-2.7000000000000002e+00 -5.5148967282768113e-01 +7.2547055164025283e+00 +5.3713056920119611e+00 -3.6756514451976713e+01 -1.1147628536479557e+04 -1.1365444003998706e+05 +7.1746089529000297e+07 
-2.7500000000000000e+00 -5.5151018129654583e-01 +7.2557300083451368e+00 +5.3437406953094415e+00 -3.6194856736654856e+01 -1.1023498859297608e+04 -1.1707239819059498e+05 +7.1042921216006100e+07 
-2.7999999999999998e+00 -5.5153100469606109e-01 +7.2567700262719788e+00 +5.3157181626022254e+00 -3.5609517795533947e+01 -1.0897070842798794e+04 -1.2064047662221703e+05 +7.0327987653649375e+07 
-2.8500000000000001e+00 -5.5155214102792294e-01 +7.2578254529196142e+00 +5.2872538820588009e+00 -3.5002378241554453e+01 -1.0768529628889009e+04 -1.2434479106788663e+05 +6.9602239609936506e+07 
-2.8999999999999999e+00 -5.5157358829378444e-01 +7.2588961710231992e+00 +5.2583636367733773e+00 -3.4375318625001420e+01 -1.0638060216086042e+04 -1.2817145776158055e+05 +6.8866626860125646e+07 
-2.9500000000000002e+00 -5.5159534449533976e-01 +7.2599820633185566e+00 +5.2290632161609469e+00 -3.3730219520316041e+01 -1.0505847776622639e+04 -1.3210659270328342e+05 +6.8122100360737666e+07 
-3.0000000000000000e+00 -5.5161740763426892e-01 +7.2610830125422599e+00 +5.1993684051696611e+00 -3.3068961526180871e+01 -1.0372077355357049e+04 -1.3613631169374791e+05 +6.7369610180530116e+07 
-3.0499999999999998e+00 -5.5163977571224687e-01 +7.2621989014302351e+00 +5.1692949919751765e+00 -3.2393425218924627e+01 -1.0236934089496419e+04 -1.4024673066179233e+05 +6.6610107025846593e+07 
-3.1000000000000001e+00 -5.5166244673101728e-01 +7.2633296127175466e+00 +5.1388587653931923e+00 -3.1705491133476322e+01 -1.0100603127870876e+04 -1.4442396588137574e+05 +6.5844541663883403e+07 
-3.1499999999999999e+00 -5.5168541869228127e-01 +7.2644750291390956e+00 +5.1080755105361089e+00 -3.1007039804622526e+01 -9.9632695187526715e+03 -1.4865413356768221e+05 +6.5073864172254615e+07 
-3.2000000000000002e+00 -5.5170868959776709e-01 +7.2656350334285014e+00 +5.0769610162548897e+00 -3.0299951712573161e+01 -9.8251184125523778e+03 -1.5292335036987977e+05 +6.4299025320388265e+07 
-3.2500000000000000e+00 -5.5173225744919796e-01 +7.2668095083223871e+00 +5.0455310732232705e+00 -2.9586107454675499e+01 -9.6863350021186216e+03 -1.5721773196330576e+05 +6.3520976141156301e+07 
-3.2999999999999998e+00 -5.5175612024831788e-01 +7.2679983365510363e+00 +5.0138014664483599e+00 -2.8867387383705847e+01 -9.5471043340163560e+03 -1.6152339597333132e+05 +6.2740666693624541e+07 
-3.3500000000000001e+00 -5.5178027599691060e-01 +7.2692014008491102e+00 +4.9817879857871246e+00 -2.8145672027153267e+01 -9.4076115761113360e+03 -1.6582645857988665e+05 +6.1959047823045917e+07 
-3.3999999999999999e+00 -5.5180472269668979e-01 +7.2704185839501694e+00 +4.9495064221009875e+00 -2.7422841871979962e+01 -9.2680419248123344e+03 -1.7011303624306963e+05 +6.1177070565005004e+07 
-3.4500000000000002e+00 -5.5182945834941688e-01 +7.2716497685859105e+00 +4.9169725643253450e+00 -2.6700777341414998e+01 -9.1285805241058060e+03 -1.7436924590445944e+05 +6.0395685599015526e+07 
-3.5000000000000000e+00 -5.5185448095689404e-01 +7.2728948374865219e+00 +4.8842022026301688e+00 -2.5981358799025056e+01 -8.9894125468411548e+03 -1.7858120496646591e+05 +5.9615843778885663e+07 
-3.5499999999999998e+00 -5.5187978852089459e-01 +7.2741536733851628e+00 +4.8512111259239177e+00 -2.5266466727557063e+01 -8.8507231308852333e+03 -1.8273502985023597e+05 +5.8838495714673653e+07 
-3.6000000000000001e+00 -5.5190537904321257e-01 +7.2754261590108040e+00 +4.8180151260811064e+00 -2.4557981462062610e+01 -8.7126974938140411e+03 -1.8681683809445621e+05 +5.8064592548045024e+07 
-3.6499999999999999e+00 -5.5193125052564740e-01 +7.2767121770922634e+00 +4.7846299948310431e+00 -2.3857783331493582e+01 -8.5755208465532287e+03 -1.9081274727084747e+05 +5.7295085364355616e+07 
-3.6999999999999900e+00 -5.5195740096996859e-01 +7.2780116103598669e+00 +4.7510715223565159e+00 -2.3167752730405443e+01 -8.4393783551285360e+03 -1.9470887439186900e+05 +5.6530924928264804e+07 
-3.7499999999999898e+00 -5.5198382837805238e-01 +7.2793243415405442e+00 +4.7173555026359910e+00 -2.2489769939016497e+01 -8.3044552834888291e+03 -1.9849133732422974e+05 +5.5773062646167748e+07 
-3.7999999999999901e+00 -5.5201053075164341e-01 +7.2806502533617792e+00 +4.6834977250559264e+00 -2.1825715258724607e+01 -8.1709367751750460e+03 -2.0214625374737851e+05 +5.5022449116986275e+07 
-3.8499999999999899e+00 -5.5203750609263968e-01 +7.2819892285487677e+00 +4.6495139856444192e+00 -2.1177468916049669e+01 -8.0390081449824311e+03 -2.0565974189952342e+05 +5.4280036068320930e+07 
-3.8999999999999901e+00 -5.5206475240277164e-01 +7.2833411498285399e+00 +4.6154200746238159e+00 -2.0546911220215144e+01 -7.9088545554300208e+03 -2.0901791928885266e+05 +5.3546774204764329e+07 
-3.9499999999999900e+00 -5.5209226768397368e-01 +7.2847058999237255e+00 +4.5812317885680915e+00 -1.9935922320766924e+01 -7.7806613297452996e+03 -2.1220690469740657e+05 +5.2823615275731288e+07 
-3.9999999999999898e+00 -5.5212004993802766e-01 +7.2860833615603875e+00 +4.5469649202556077e+00 -1.9346382517506701e+01 -7.6546136904636905e+03 -2.1521281557160386e+05 +5.2111510354399115e+07 
-4.0499999999999901e+00 -5.5214809704554513e-01 +7.2874734040310916e+00 +4.5126329640441645e+00 -1.8779735017547793e+01 -7.5308582247834402e+03 -2.1802505284090014e+05 +5.1411211622739784e+07 
-4.0999999999999899e+00 -5.5217640640067345e-01 +7.2888758373800417e+00 +4.4782407207044947e+00 -1.8235634764731092e+01 -7.4094032623893490e+03 -2.2064644606863474e+05 +5.0722801572739445e+07 
-4.1499999999999897e+00 -5.5220497527571655e-01 +7.2902904554008829e+00 +4.4437909565258034e+00 -1.7713277366139362e+01 -7.2902266573706866e+03 -2.2308327793816206e+05 +5.0046226949312881e+07 
-4.1999999999999904e+00 -5.5223380094292374e-01 +7.2917170518910099e+00 +4.4092864376811853e+00 -1.7211858598530636e+01 -7.1733062635000224e+03 -2.2534182973410943e+05 +4.9381434510974690e+07 
-4.2499999999999902e+00 -5.5226288067464147e-01 +7.2931554206456983e+00 +4.3747299329328371e+00 -1.6730574155898228e+01 -7.0586200014737969e+03 -2.2742838344545313e+05 +4.8728371455625609e+07 
-4.2999999999999901e+00 -5.5229221174310217e-01 +7.2946053554589634e+00 +4.3401242098380504e+00 -1.6268619679764857e+01 -6.9461457639604951e+03 -2.2934922151421956e+05 +4.8086984813690677e+07 
-4.3499999999999899e+00 -5.5232179142061177e-01 +7.2960666501265843e+00 +4.3054720348429019e+00 -1.5825190890476845e+01 -6.8358614131832528e+03 -2.3111062575170631e+05 +4.7457221406390540e+07 
-4.3999999999999897e+00 -5.5235161697944779e-01 +7.2975390984444557e+00 +4.2707761738368744e+00 -1.5399483520483948e+01 -6.7277447959610372e+03 -2.3271887786256048e+05 +4.6839027950114600e+07 
-4.4499999999999904e+00 -5.5238168569187140e-01 +7.2990224942080184e+00 +4.2360393946486008e+00 -1.4990693288144790e+01 -6.6217738132131399e+03 -2.3418025968785438e+05 +4.6232351537638672e+07 
-4.4999999999999902e+00 -5.5241199483019343e-01 +7.3005166312119938e+00 +4.2012644644718407e+00 -1.4598015889645097e+01 -6.5179263492265773e+03 -2.3550105327122586e+05 +4.5637139150405779e+07 
-4.5499999999999901e+00 -5.5244254166669016e-01 +7.3020213032502062e+00 +4.1664541495324210e+00 -1.4220646981878001e+01 -6.4161802642857292e+03 -2.3668754102051092e+05 +4.5053337616554484e+07 
-4.5999999999999899e+00 -5.5247332347366374e-01 +7.3035363041165571e+00 +4.1316112159993255e+00 -1.3857782241912401e+01 -6.3165134172555836e+03 -2.3774600516745518e+05 +4.4480893756933652e+07 
-4.6499999999999897e+00 -5.5250433752331651e-01 +7.3050614276072405e+00 +4.0967384309984638e+00 -1.3508617447787032e+01 -6.2189036924899192e+03 -2.3868272709975363e+05 +4.3919754566202357e+07 
-4.6999999999999904e+00 -5.5253558108799916e-01 +7.3065964675136748e+00 +4.0618385604823759e+00 -1.3172348182798130e+01 -6.1233289445847840e+03 -2.3950398988706616e+05 +4.3369866844247110e+07 
-4.7499999999999902e+00 -5.5256705143992735e-01 +7.3081412176319756e+00 +4.0269143699827188e+00 -1.2848170226228664e+01 -6.0297670183210530e+03 -2.4021607500525797e+05 +4.2831177334583767e+07 
-4.7999999999999901e+00 -5.5259874585142954e-01 +7.3096954717556821e+00 +3.9919686268671644e+00 -1.2535279283465263e+01 -5.9381958082152150e+03 -2.4082526446867848e+05 +4.2303633116113462e+07 
-4.8499999999999899e+00 -5.5263066159468588e-01 +7.3112590236770068e+00 +3.9570040958123598e+00 -1.2232870987455561e+01 -5.8485931377360184e+03 -2.4133784100607591e+05 +4.1787180799267948e+07 
-4.8999999999999897e+00 -5.5266279594204115e-01 +7.3128316671888580e+00 +3.9220235434272421e+00 -1.1940141018629713e+01 -5.7609368863360460e+03 -2.4176008696056373e+05 +4.1281767386428222e+07 
-4.9499999999999904e+00 -5.5269514616573090e-01 +7.3144131960846215e+00 +3.8870297353671455e+00 -1.1656285095703904e+01 -5.6752049000199167e+03 -2.4209828432056092e+05 +4.0787339626597576e+07 
-4.9999999999999902e+00 -5.5272770953796968e-01 +7.3160034041575912e+00 +3.8520254353242236e+00 -1.1380498932535778e+01 -5.5913749845850425e+03 -2.4235871519487194e+05 +4.0303844047781035e+07 
-5.0499999999999901e+00 -5.5276048333338923e-01 +7.3176020767666996e+00 +3.8170138214359777e+00 -1.1111986140707897e+01 -5.5094249704952663e+03 -2.4254766221826055e+05 +3.9831227757237688e+07 
