# trajectory
# s[mm] rx[mm] ry[mm] rz[mm] px[rad] py[rad] pz[rad]
0.0000000000000000e+00 +8.5269999999999992e+00 +0.0000000000000000e+00 +0.0000000000000000e+00 +0.0000000000000000e+00 +0.0000000000000000e+00 +1.0000000000000000e+00
-5.0000000000000003e-02 +8.5269999311009528e+00 +0.0000000000000000e+00 -4.9999999999936699e-02 +2.7559628466093255e-06 +0.0000000000000000e+00 +9.9999999999620237e-01
-1.0000000000000001e-01 +8.5269997244035967e+00 +0.0000000000000000e+00 -9.9999999999493633e-02 +5.5119327702223976e-06 +0.0000000000000000e+00 +9.9999999998480937e-01
-1.5000000000000002e-01 +8.5269993799075241e+00 +0.0000000000000000e+00 -1.4999999999829106e-01 +8.2679117872735101e-06 +0.0000000000000000e+00 +9.9999999996582090e-01
-2.0000000000000001e-01 +8.5269988976122324e+00 +0.0000000000000000e+00 -1.9999999999594914e-01 +1.1023901910170501e-05 +0.0000000000000000e+00 +9.9999999993923683e-01
-2.5000000000000000e-01 +8.5269982775171140e+00 +0.0000000000000000e+00 -2.4999999999208813e-01 +1.3779905147294844e-05 +0.0000000000000000e+00 +9.9999999990505717e-01
-2.9999999999999999e-01 +8.5269975196214656e+00 +0.0000000000000000e+00 -2.9999999998632826e-01 +1.6535923503001745e-05 +0.0000000000000000e+00 +9.9999999986328170e-01
-3.4999999999999998e-01 +8.5269966239244788e+00 +0.0000000000000000e+00 -3.4999999997828973e-01 +1.9291958977620233e-05 +0.0000000000000000e+00 +9.9999999981391019e-01
-3.9999999999999997e-01 +8.5269955904252495e+00 +0.0000000000000000e+00 -3.9999999996759272e-01 +2.2048013567453245e-05 +0.0000000000000000e+00 +9.9999999975694254e-01
-4.4999999999999996e-01 +8.5269944191227705e+00 +0.0000000000000000e+00 -4.4999999995385742e-01 +2.4804089264777727e-05 +0.0000000000000000e+00 +9.9999999969237852e-01
-4.9999999999999994e-01 +8.5269931100159386e+00 +0.0000000000000000e+00 -4.9999999993670396e-01 +2.7560188057844722e-05 +0.0000000000000000e+00 +9.9999999962021791e-01
-5.4999999999999993e-01 +8.5269916631035478e+00 +0.0000000000000000e+00 -5.4999999991575255e-01 +3.0316311930879458e-05 +0.0000000000000000e+00 +9.9999999954046048e-01
-5.9999999999999998e-01 +8.5269900783842942e+00 +0.0000000000000000e+00 -5.9999999989062336e-01 +3.3072462864081445e-05 +0.0000000000000000e+00 +9.9999999945310591e-01
-6.5000000000000002e-01 +8.5269883558567763e+00 +0.0000000000000000e+00 -6.4999999986093648e-01 +3.5828642833624557e-05 +0.0000000000000000e+00 +9.9999999935815398e-01
-7.0000000000000007e-01 +8.5269864955194929e+00 +0.0000000000000000e+00 -6.9999999982631211e-01 +3.8584853811657126e-05 +0.0000000000000000e+00 +9.9999999925560434e-01
-7.5000000000000011e-01 +8.5269844973708455e+00 +0.0000000000000000e+00 -7.4999999978637033e-01 +4.1341097766302042e-05 +0.0000000000000000e+00 +9.9999999914545668e-01
-8.0000000000000016e-01 +8.5269823614091340e+00 +0.0000000000000000e+00 -7.9999999974073122e-01 +4.4097376661656822e-05 +0.0000000000000000e+00 +9.9999999902771053e-01
-8.5000000000000020e-01 +8.5269800876325643e+00 +0.0000000000000000e+00 -8.4999999968901474e-01 +4.6853692457793708e-05 +0.0000000000000000e+00 +9.9999999890236557e-01
-9.0000000000000024e-01 +8.5269776760392411e+00 +0.0000000000000000e+00 -8.9999999963084110e-01 +4.9610047110759766e-05 +0.0000000000000000e+00 +9.9999999876942147e-01
-9.5000000000000029e-01 +8.5269751266271729e+00 +0.0000000000000000e+00 -9.4999999956583026e-01 +5.2366442572576968e-05 +0.0000000000000000e+00 +9.9999999862887767e-01
-1.0000000000000002e+00 +8.5269724393942710e+00 +0.0000000000000000e+00 -9.9999999949360219e-01 +5.5122880791242267e-05 +0.0000000000000000e+00 +9.9999999848073384e-01
-1.0500000000000003e+00 +8.5269696143383484e+00 +0.0000000000000000e+00 -1.0499999994137770e+00 +5.7879363710727700e-05 +0.0000000000000000e+00 +9.9999999832498943e-01
-1.1000000000000003e+00 +8.5269666514571227e+00 +0.0000000000000000e+00 -1.0999999993259746e+00 +6.0635893270980477e-05 +0.0000000000000000e+00 +9.9999999816164398e-01
-1.1500000000000004e+00 +8.5269635507482118e+00 +0.0000000000000000e+00 -1.1499999992298149e+00 +6.3392471407923065e-05 +0.0000000000000000e+00 +9.9999999799069705e-01
-1.2000000000000004e+00 +8.5269603122091393e+00 +0.0000000000000000e+00 -1.1999999991249177e+00 +6.6149100053453254e-05 +0.0000000000000000e+00 +9.9999999781214810e-01
-1.2500000000000004e+00 +8.5269569358373314e+00 +0.0000000000000000e+00 -1.2499999990109030e+00 +6.8905781135444297e-05 +0.0000000000000000e+00 +9.9999999762599645e-01
-1.3000000000000005e+00 +8.5269534216301199e+00 +0.0000000000000000e+00 -1.2999999988873907e+00 +7.1662516577744915e-05 +0.0000000000000000e+00 +9.9999999743224166e-01
-1.3500000000000005e+00 +8.5269497695847356e+00 +0.0000000000000000e+00 -1.3499999987540006e+00 +7.4419308300179474e-05 +0.0000000000000000e+00 +9.9999999723088306e-01
-1.4000000000000006e+00 +8.5269459796983185e+00 +0.0000000000000000e+00 -1.3999999986103524e+00 +7.7176158218548012e-05 +0.0000000000000000e+00 +9.9999999702192011e-01
-1.4500000000000006e+00 +8.5269420519679109e+00 +0.0000000000000000e+00 -1.4499999984560659e+00 +7.9933068244626322e-05 +0.0000000000000000e+00 +9.9999999680535212e-01
-1.5000000000000007e+00 +8.5269379863904593e+00 +0.0000000000000000e+00 -1.4999999982907608e+00 +8.2690040286166082e-05 +0.0000000000000000e+00 +9.9999999658117844e-01
-1.5500000000000007e+00 +8.5269337829628160e+00 +0.0000000000000000e+00 -1.5499999981140569e+00 +8.5447076246894890e-05 +0.0000000000000000e+00 +9.9999999634939840e-01
-1.6000000000000008e+00 +8.5269294416817374e+00 +0.0000000000000000e+00 -1.5999999979255739e+00 +8.8204178026516378e-05 +0.0000000000000000e+00 +9.9999999611001134e-01
-1.6500000000000008e+00 +8.5269249625438857e+00 +0.0000000000000000e+00 -1.6499999977249313e+00 +9.0961347520710287e-05 +0.0000000000000000e+00 +9.9999999586301647e-01
-1.7000000000000008e+00 +8.5269203455458253e+00 +0.0000000000000000e+00 -1.6999999975117488e+00 +9.3718586621132570e-05 +0.0000000000000000e+00 +9.9999999560841313e-01
-1.7500000000000009e+00 +8.5269155906840304e+00 +0.0000000000000000e+00 -1.7499999972856459e+00 +9.6475897215415435e-05 +0.0000000000000000e+00 +9.9999999534620054e-01
-1.8000000000000009e+00 +8.5269106979548805e+00 +0.0000000000000000e+00 -1.7999999970462421e+00 +9.9233281187167466e-05 +0.0000000000000000e+00 +9.9999999507637782e-01
-1.8500000000000010e+00 +8.5269056673546579e+00 +0.0000000000000000e+00 -1.8499999967931569e+00 +1.0199074041597368e-04 +0.0000000000000000e+00 +9.9999999479894430e-01
-1.9000000000000010e+00 +8.5269004988795540e+00 +0.0000000000000000e+00 -1.8999999965260097e+00 +1.0474827677739563e-04 +0.0000000000000000e+00 +9.9999999451389909e-01
-1.9500000000000011e+00 +8.5268951925256644e+00 +0.0000000000000000e+00 -1.9499999962444199e+00 +1.0750589214297147e-04 +0.0000000000000000e+00 +9.9999999422124142e-01
-2.0000000000000009e+00 +8.5268897482889923e+00 +0.0000000000000000e+00 -1.9999999959480068e+00 +1.1026358838021606e-04 +0.0000000000000000e+00 +9.9999999392097039e-01
-2.0500000000000007e+00 +8.5268841661654484e+00 +0.0000000000000000e+00 -2.0499999956363899e+00 +1.1302136735233436e-04 +0.0000000000000000e+00 +9.9999999361308511e-01
-2.1000000000000005e+00 +8.5268784461508478e+00 +0.0000000000000000e+00 -2.0999999953091883e+00 +1.1577923091506801e-04 +0.0000000000000000e+00 +9.9999999329758471e-01
-2.1500000000000004e+00 +8.5268725882409164e+00 +0.0000000000000000e+00 -2.1499999949660213e+00 +1.1853718091354201e-04 +0.0000000000000000e+00 +9.9999999297446829e-01
-2.2000000000000002e+00 +8.5268665924312863e+00 +0.0000000000000000e+00 -2.1999999946065083e+00 +1.2129521918197804e-04 +0.0000000000000000e+00 +9.9999999264373485e-01
-2.2500000000000000e+00 +8.5268604587174970e+00 +0.0000000000000000e+00 -2.2499999942302682e+00 +1.2405334754369459e-04 +0.0000000000000000e+00 +9.9999999230538339e-01
-2.2999999999999998e+00 +8.5268541870949992e+00 +0.0000000000000000e+00 -2.2999999938369200e+00 +1.2681156781110697e-04 +0.0000000000000000e+00 +9.9999999195941303e-01
-2.3499999999999996e+00 +8.5268477775591531e+00 +0.0000000000000000e+00 -2.3499999934260827e+00 +1.2956988178572742e-04 +0.0000000000000000e+00 +9.9999999160582276e-01
-2.3999999999999995e+00 +8.5268412301052283e+00 +0.0000000000000000e+00 -2.3999999929973752e+00 +1.3232829125816515e-04 +0.0000000000000000e+00 +9.9999999124461159e-01
-2.4499999999999993e+00 +8.5268345447284055e+00 +0.0000000000000000e+00 -2.4499999925504166e+00 +1.3508679800812638e-04 +0.0000000000000000e+00 +9.9999999087577840e-01
-2.4999999999999991e+00 +8.5268277214237767e+00 +0.0000000000000000e+00 -2.4999999920848257e+00 +1.3784540380441440e-04 +0.0000000000000000e+00 +9.9999999049932220e-01
-2.5499999999999989e+00 +8.5268207601863448e+00 +0.0000000000000000e+00 -2.5499999916002216e+00 +1.4060411040492973e-04 +0.0000000000000000e+00 +9.9999999011524199e-01
-2.5999999999999988e+00 +8.5268136610110261e+00 +0.0000000000000000e+00 -2.5999999910962228e+00 +1.4336291955667003e-04 +0.0000000000000000e+00 +9.9999998972353654e-01
-2.6499999999999986e+00 +8.5268064238926513e+00 +0.0000000000000000e+00 -2.6499999905724483e+00 +1.4612183299573023e-04 +0.0000000000000000e+00 +9.9999998932420486e-01
-2.6999999999999984e+00 +8.5267990488259606e+00 +0.0000000000000000e+00 -2.6999999900285165e+00 +1.4888085244730266e-04 +0.0000000000000000e+00 +9.9999998891724573e-01
-2.7499999999999982e+00 +8.5267915358056108e+00 +0.0000000000000000e+00 -2.7499999894640461e+00 +1.5163997962567693e-04 +0.0000000000000000e+00 +9.9999998850265814e-01
-2.7999999999999980e+00 +8.5267838848261732e+00 +0.0000000000000000e+00 -2.7999999888786555e+00 +1.5439921623424012e-04 +0.0000000000000000e+00 +9.9999998808044088e-01
-2.8499999999999979e+00 +8.5267760958821341e+00 +0.0000000000000000e+00 -2.8499999882719633e+00 +1.5715856396547679e-04 +0.0000000000000000e+00 +9.9999998765059273e-01
-2.8999999999999977e+00 +8.5267681689678962e+00 +0.0000000000000000e+00 -2.8999999876435876e+00 +1.5991802450096907e-04 +0.0000000000000000e+00 +9.9999998721311256e-01
-2.9499999999999975e+00 +8.5267601040777770e+00 +0.0000000000000000e+00 -2.9499999869931472e+00 +1.6267759951139662e-04 +0.0000000000000000e+00 +9.9999998676799917e-01
-2.9999999999999973e+00 +8.5267519012060102e+00 +0.0000000000000000e+00 -2.9999999863202604e+00 +1.6543729065653678e-04 +0.0000000000000000e+00 +9.9999998631525133e-01
-3.0499999999999972e+00 +8.5267435603467483e+00 +0.0000000000000000e+00 -3.0499999856245452e+00 +1.6819709958526457e-04 +0.0000000000000000e+00 +9.9999998585486771e-01
-3.0999999999999970e+00 +8.5267350814940617e+00 +0.0000000000000000e+00 -3.0999999849056201e+00 +1.7095702793555273e-04 +0.0000000000000000e+00 +9.9999998538684720e-01
-3.1499999999999968e+00 +8.5267264646419374e+00 +0.0000000000000000e+00 -3.1499999841631028e+00 +1.7371707733447177e-04 +0.0000000000000000e+00 +9.9999998491118847e-01
-3.1999999999999966e+00 +8.5267177097842843e+00 +0.0000000000000000e+00 -3.1999999833966117e+00 +1.7647724939819003e-04 +0.0000000000000000e+00 +9.9999998442789018e-01
-3.2499999999999964e+00 +8.5267088169149279e+00 +0.0000000000000000e+00 -3.2499999826057646e+00 +1.7923754573197372e-04 +0.0000000000000000e+00 +9.9999998393695100e-01
-3.2999999999999963e+00 +8.5266997860276135e+00 +0.0000000000000000e+00 -3.2999999817901795e+00 +1.8199796793018697e-04 +0.0000000000000000e+00 +9.9999998343836971e-01
-3.3499999999999961e+00 +8.5266906171160102e+00 +0.0000000000000000e+00 -3.3499999809494740e+00 +1.8475851757629184e-04 +0.0000000000000000e+00 +9.9999998293214498e-01
-3.3999999999999959e+00 +8.5266813101737053e+00 +0.0000000000000000e+00 -3.3999999800832663e+00 +1.8751919624284839e-04 +0.0000000000000000e+00 +9.9999998241827537e-01
-3.4499999999999957e+00 +8.5266718651942099e+00 +0.0000000000000000e+00 -3.4499999791911740e+00 +1.9028000549151471e-04 +0.0000000000000000e+00 +9.9999998189675965e-01
-3.4999999999999956e+00 +8.5266622821709550e+00 +0.0000000000000000e+00 -3.4999999782728146e+00 +1.9304094687304699e-04 +0.0000000000000000e+00 +9.9999998136759627e-01
-3.5499999999999954e+00 +8.5266525610972952e+00 +0.0000000000000000e+00 -3.5499999773278059e+00 +1.9580202192729949e-04 +0.0000000000000000e+00 +9.9999998083078390e-01
-3.5999999999999952e+00 +8.5266427019665088e+00 +0.0000000000000000e+00 -3.5999999763557655e+00 +1.9856323218322459e-04 +0.0000000000000000e+00 +9.9999998028632120e-01
-3.6499999999999950e+00 +8.5266327047717976e+00 +0.0000000000000000e+00 -3.6499999753563106e+00 +2.0132457915887292e-04 +0.0000000000000000e+00 +9.9999997973420673e-01
-3.6999999999999948e+00 +8.5266225695062889e+00 +0.0000000000000000e+00 -3.6999999743290588e+00 +2.0408606436139327e-04 +0.0000000000000000e+00 +9.9999997917443895e-01
-3.7499999999999947e+00 +8.5266122961630337e+00 +0.0000000000000000e+00 -3.7499999732736269e+00 +2.0684768928703269e-04 +0.0000000000000000e+00 +9.9999997860701650e-01
-3.7999999999999945e+00 +8.5266018847350082e+00 +0.0000000000000000e+00 -3.7999999721896325e+00 +2.0960945542113652e-04 +0.0000000000000000e+00 +9.9999997803193785e-01
-3.8499999999999943e+00 +8.5265913352151141e+00 +0.0000000000000000e+00 -3.8499999710766928e+00 +2.1237136423814837e-04 +0.0000000000000000e+00 +9.9999997744920155e-01
-3.8999999999999941e+00 +8.5265806475961821e+00 +0.0000000000000000e+00 -3.8999999699344250e+00 +2.1513341720161023e-04 +0.0000000000000000e+00 +9.9999997685880615e-01
-3.9499999999999940e+00 +8.5265698218709680e+00 +0.0000000000000000e+00 -3.9499999687624459e+00 +2.1789561576416244e-04 +0.0000000000000000e+00 +9.9999997626075010e-01
-3.9999999999999938e+00 +8.5265588580321552e+00 +0.0000000000000000e+00 -3.9999999675603721e+00 +2.2065796136754370e-04 +0.0000000000000000e+00 +9.9999997565503185e-01
-4.0499999999999936e+00 +8.5265477560723557e+00 +0.0000000000000000e+00 -4.0499999663278210e+00 +2.2342045544241750e-04 +0.0000000000000000e+00 +9.9999997504164984e-01
-4.0999999999999934e+00 +8.5265365159841124e+00 +0.0000000000000000e+00 -4.0999999650644092e+00 +2.2618309940646133e-04 +0.0000000000000000e+00 +9.9999997442060251e-01
-4.1499999999999932e+00 +8.5265251377598936e+00 +0.0000000000000000e+00 -4.1499999637697531e+00 +2.2894589466245606e-04 +0.0000000000000000e+00 +9.9999997379188843e-01
-4.1999999999999931e+00 +8.5265136213921018e+00 +0.0000000000000000e+00 -4.1999999624434698e+00 +2.3170884259811217e-04 +0.0000000000000000e+00 +9.9999997315550593e-01
-4.2499999999999929e+00 +8.5265019668730666e+00 +0.0000000000000000e+00 -4.2499999610851757e+00 +2.3447194458606988e-04 +0.0000000000000000e+00 +9.9999997251145334e-01
-4.2999999999999927e+00 +8.5264901741950521e+00 +0.0000000000000000e+00 -4.2999999596944871e+00 +2.3723520198389906e-04 +0.0000000000000000e+00 +9.9999997185972922e-01
-4.3499999999999925e+00 +8.5264782433502546e+00 +0.0000000000000000e+00 -4.3499999582710203e+00 +2.3999861613409923e-04 +0.0000000000000000e+00 +9.9999997120033191e-01
-4.3999999999999924e+00 +8.5264661743308032e+00 +0.0000000000000000e+00 -4.3999999568143924e+00 +2.4276218836409956e-04 +0.0000000000000000e+00 +9.9999997053325973e-01
-4.4499999999999922e+00 +8.5264539671287611e+00 +0.0000000000000000e+00 -4.4499999553242189e+00 +2.4552591998625896e-04 +0.0000000000000000e+00 +9.9999996985851103e-01
-4.4999999999999920e+00 +8.5264416217361259e+00 +0.0000000000000000e+00 -4.4999999538001161e+00 +2.4828981229786597e-04 +0.0000000000000000e+00 +9.9999996917608425e-01
-4.5499999999999918e+00 +8.5264291381448309e+00 +0.0000000000000000e+00 -4.5499999522416994e+00 +2.5105386658113871e-04 +0.0000000000000000e+00 +9.9999996848597772e-01
-4.5999999999999917e+00 +8.5264165163467460e+00 +0.0000000000000000e+00 -4.5999999506485860e+00 +2.5381808410322509e-04 +0.0000000000000000e+00 +9.9999996778818978e-01
-4.6499999999999915e+00 +8.5264037563336785e+00 +0.0000000000000000e+00 -4.6499999490203905e+00 +2.5658246611620254e-04 +0.0000000000000000e+00 +9.9999996708271865e-01
-4.6999999999999913e+00 +8.5263908580973720e+00 +0.0000000000000000e+00 -4.6999999473567300e+00 +2.5934701385707819e-04 +0.0000000000000000e+00 +9.9999996636956279e-01
-4.7499999999999911e+00 +8.5263778216295094e+00 +0.0000000000000000e+00 -4.7499999456572191e+00 +2.6211172854778876e-04 +0.0000000000000000e+00 +9.9999996564872040e-01
-4.7999999999999909e+00 +8.5263646469217136e+00 +0.0000000000000000e+00 -4.7999999439214740e+00 +2.6487661139520052e-04 +0.0000000000000000e+00 +9.9999996492018983e-01
-4.8499999999999908e+00 +8.5263513339655468e+00 +0.0000000000000000e+00 -4.8499999421491102e+00 +2.6764166359110941e-04 +0.0000000000000000e+00 +9.9999996418396941e-01
-4.8999999999999906e+00 +8.5263378827525127e+00 +0.0000000000000000e+00 -4.8999999403397432e+00 +2.7040688631224088e-04 +0.0000000000000000e+00 +9.9999996344005737e-01
-4.9499999999999904e+00 +8.5263242932740546e+00 +0.0000000000000000e+00 -4.9499999384929882e+00 +2.7317228072025002e-04 +0.0000000000000000e+00 +9.9999996268845193e-01
-4.9999999999999902e+00 +8.5263105655215607e+00 +0.0000000000000000e+00 -4.9999999366084600e+00 +2.7593784796172126e-04 +0.0000000000000000e+00 +9.9999996192915142e-01
-5.0499999999999901e+00 +8.5262966994863589e+00 +0.0000000000000000e+00 -5.0499999346857747e+00 +2.7870358916816872e-04 +0.0000000000000000e+00 +9.9999996116215406e-01
-5.0999999999999899e+00 +8.5262826951597255e+00 +0.0000000000000000e+00 -5.0999999327245469e+00 +2.8146950545603598e-04 +0.0000000000000000e+00 +9.9999996038745809e-01
-5.1499999999999897e+00 +8.5262685525328781e+00 +0.0000000000000000e+00 -5.1499999307243920e+00 +2.8423559792669593e-04 +0.0000000000000000e+00 +9.9999995960506172e-01
-5.1999999999999895e+00 +8.5262542715969794e+00 +0.0000000000000000e+00 -5.1999999286849246e+00 +2.8700186766645106e-04 +0.0000000000000000e+00 +9.9999995881496317e-01
-5.2499999999999893e+00 +8.5262398523431386e+00 +0.0000000000000000e+00 -5.2499999266057600e+00 +2.8976831574653312e-04 +0.0000000000000000e+00 +9.9999995801716079e-01
-5.2999999999999892e+00 +8.5262252947624138e+00 +0.0000000000000000e+00 -5.2999999244865128e+00 +2.9253494322310336e-04 +0.0000000000000000e+00 +9.9999995721165269e-01
-5.3499999999999890e+00 +8.5262105988458092e+00 +0.0000000000000000e+00 -5.3499999223267976e+00 +2.9530175113725221e-04 +0.0000000000000000e+00 +9.9999995639843708e-01
-5.3999999999999888e+00 +8.5261957645842763e+00 +0.0000000000000000e+00 -5.3999999201262288e+00 +2.9806874051499955e-04 +0.0000000000000000e+00 +9.9999995557751209e-01
-5.4499999999999886e+00 +8.5261807919687165e+00 +0.0000000000000000e+00 -5.4499999178844210e+00 +3.0083591236729446e-04 +0.0000000000000000e+00 +9.9999995474887604e-01
-5.4999999999999885e+00 +8.5261656809899815e+00 +0.0000000000000000e+00 -5.4999999156009878e+00 +3.0360326769001523e-04 +0.0000000000000000e+00 +9.9999995391252705e-01
-5.5499999999999883e+00 +8.5261504316388734e+00 +0.0000000000000000e+00 -5.5499999132755446e+00 +3.0637080746396937e-04 +0.0000000000000000e+00 +9.9999995306846323e-01
-5.5999999999999881e+00 +8.5261350439061445e+00 +0.0000000000000000e+00 -5.5999999109077052e+00 +3.0913853265489353e-04 +0.0000000000000000e+00 +9.9999995221668281e-01
-5.6499999999999879e+00 +8.5261195177825009e+00 +0.0000000000000000e+00 -5.6499999084970840e+00 +3.1190644421345343e-04 +0.0000000000000000e+00 +9.9999995135718400e-01
-5.6999999999999877e+00 +8.5261038532586007e+00 +0.0000000000000000e+00 -5.6999999060432947e+00 +3.1467454307524393e-04 +0.0000000000000000e+00 +9.9999995048996493e-01
-5.7499999999999876e+00 +8.5260880503250558e+00 +0.0000000000000000e+00 -5.7499999035459517e+00 +3.1744283016078888e-04 +0.0000000000000000e+00 +9.9999994961502370e-01
-5.7999999999999874e+00 +8.5260721089724321e+00 +0.0000000000000000e+00 -5.7999999010046688e+00 +3.2021130637554103e-04 +0.0000000000000000e+00 +9.9999994873235853e-01
-5.8499999999999872e+00 +8.5260560291912508e+00 +0.0000000000000000e+00 -5.8499998984190595e+00 +3.2297997260988216e-04 +0.0000000000000000e+00 +9.9999994784196755e-01
