# multipoles
# s[mm] polynom_b[n=0][T/m^n] polynom_b[n=1][T/m^n] polynom_b[n=2][T/m^n] polynom_b[n=3][T/m^n] polynom_b[n=4][T/m^n] polynom_b[n=5][T/m^n] polynom_b[n=6][T/m^n] 
+0.0000000000000000e+00 -5.5402599898514593e-01 +7.2573677354766231e+00 +4.9823208649529542e+00 -6.6376968646364432e+01 -3.5785030681110038e+02 +2.1482163756190610e+04 +6.1795305173705304e+06 
-5.0000000000000003e-02 -5.5402683893743820e-01 +7.2573697368986902e+00 +4.9856838319490819e+00 -6.6070391211772076e+01 -4.5324834089994988e+02 +1.9449075461210370e+04 +6.8193165257693371e+06 
-1.0000000000000001e-01 -5.5402802945016683e-01 +7.2573913573080198e+00 +4.9883739202272608e+00 -6.5775779682535230e+01 -5.4273303287409533e+02 +1.7523854291438111e+04 +7.4236201371406848e+06 
-1.5000000000000002e-01 -5.5402956977267592e-01 +7.2574325456092321e+00 +4.9903975215932395e+00 -6.5493317508026308e+01 -6.2639623188223788e+02 +1.5708185368804428e+04 +7.9928656604501326e+06 
-2.0000000000000001e-01 -5.5403145915434360e-01 +7.2574932507047860e+00 +4.9917610303716318e+00 -6.5223188023484781e+01 -7.0432984814734812e+02 +1.4003752876549897e+04 +8.5274777876980733e+06 
-2.5000000000000000e-01 -5.5403369684454629e-01 +7.2575734215028227e+00 +4.9924708382784058e+00 -6.4965574774186436e+01 -7.7662572813784311e+02 +1.2412242745523510e+04 +9.0278808072087746e+06 
-2.9999999999999999e-01 -5.5403628209268074e-01 +7.2576730069082007e+00 +4.9925333371289158e+00 -6.4720661148846048e+01 -8.4337571380796783e+02 +1.0935339622349336e+04 +9.4944989439261034e+06 
-3.4999999999999998e-01 -5.5403921414817781e-01 +7.2577919558277841e+00 +4.9919549223403035e+00 -6.4488630579708882e+01 -9.0467175191720526e+02 +9.5747284697962568e+03 +9.9277571636579484e+06 
-3.9999999999999997e-01 -5.5404249226045943e-01 +7.2579302171700233e+00 +4.9907419841883973e+00 -6.4269666547415483e+01 -9.6060564038449820e+02 +8.3320946846837742e+03 +1.0328079383805940e+07 
-4.4999999999999996e-01 -5.5404611567898499e-01 +7.2580877398418586e+00 +4.9889009175832735e+00 -6.4063952454755935e+01 -1.0112693111111918e+03 +7.2091230566848290e+03 +1.0695890459420871e+07 
-4.9999999999999994e-01 -5.5405008365322084e-01 +7.2582644727555277e+00 +4.9864381153932671e+00 -6.3871671880397109e+01 -1.0567546377562478e+03 +6.2074997658559714e+03 +1.1031614839960955e+07 
-5.4999999999999993e-01 -5.5405439543263868e-01 +7.2584603648205901e+00 +4.9833599680278899e+00 -6.3693008283657619e+01 -1.0971534206652543e+03 +5.3289100805314793e+03 +1.1335676450477432e+07 
-5.9999999999999998e-01 -5.5405905026676061e-01 +7.2586753649469218e+00 +4.9796728728089716e+00 -6.3528145102750749e+01 -1.1325576564434978e+03 +4.5750390511567211e+03 +1.1608500579145700e+07 
-6.5000000000000002e-01 -5.5406404740508752e-01 +7.2589094220476351e+00 +4.9753832200929970e+00 -6.3377265890927113e+01 -1.1630591473297577e+03 +3.9475727185900901e+03 +1.1850511173271228e+07 
-7.0000000000000007e-01 -5.5406938609715062e-01 +7.2591624850345999e+00 +4.9704974026816728e+00 -6.3240554125699227e+01 -1.1887497615420111e+03 +3.4481964949967560e+03 +1.2062132626732979e+07 
-7.5000000000000011e-01 -5.5407506559251574e-01 +7.2594345028256821e+00 +4.9650218171048293e+00 -6.3118193500741107e+01 -1.2097214709121040e+03 +3.0785975632631225e+03 +1.2243790040016487e+07 
-8.0000000000000016e-01 -5.5408108514073129e-01 +7.2597254243295506e+00 +4.9589628534956631e+00 -6.3010367320747385e+01 -1.2260660698058912e+03 +2.8404599579626870e+03 +1.2395907297655137e+07 
-8.5000000000000020e-01 -5.5408744399138254e-01 +7.2600351984632780e+00 +4.9523269061681940e+00 -6.2917259204575352e+01 -1.2378754670934632e+03 +2.7354702783973767e+03 +1.2518909060251398e+07 
-9.0000000000000024e-01 -5.5409414139406932e-01 +7.2603637741433511e+00 +4.9451203689150178e+00 -6.2839052728582139e+01 -1.2452415578719203e+03 +2.7653148072898475e+03 +1.2613219897437369e+07 
-9.5000000000000029e-01 -5.5410117659840785e-01 +7.2607111002867422e+00 +4.9373496357957825e+00 -6.2775931468065728e+01 -1.2482562421100820e+03 +2.9316798393790427e+03 +1.2679264399913628e+07 
-1.0000000000000002e+00 -5.5410854885402339e-01 +7.2610771258093427e+00 +4.9290211000281694e+00 -6.2728078917649832e+01 -1.2470114000872550e+03 +3.2362509526145773e+03 +1.2717467033950642e+07 
-1.0500000000000003e+00 -5.5411625741055182e-01 +7.2614617996287212e+00 +4.9201411537854725e+00 -6.2695678635360800e+01 -1.2415988814145219e+03 +3.6807143421761393e+03 +1.2728252048983116e+07 
-1.1000000000000003e+00 -5.5412430151767367e-01 +7.2618650706640819e+00 +4.9107161939204733e+00 -6.2678914224657589e+01 -1.2321106585196680e+03 +4.2667565847657161e+03 +1.2712044510431027e+07 
-1.1500000000000004e+00 -5.5413268042504782e-01 +7.2622868878354510e+00 +4.9007526117005611e+00 -6.2677969283066659e+01 -1.2186385590376199e+03 +4.9960641545039589e+03 +1.2669268522836197e+07 
-1.2000000000000004e+00 -5.5414139338237745e-01 +7.2627272000607963e+00 +4.8902568027829609e+00 -6.2693027324029011e+01 -1.2012745229107743e+03 +5.8703229407868703e+03 +1.2600348928761495e+07 
-1.2500000000000004e+00 -5.5415043963936217e-01 +7.2631859562617684e+00 +4.8792351599440646e+00 -6.2724271980241319e+01 -1.1801104152817836e+03 +6.8912197828097123e+03 +1.2505710070067106e+07 
-1.3000000000000005e+00 -5.5415981844571938e-01 +7.2636631053590150e+00 +4.8676940764850700e+00 -6.2771886813714481e+01 -1.1552381154953857e+03 +8.0604409319998267e+03 +1.2385776386138504e+07 
-1.3500000000000005e+00 -5.5416952905120276e-01 +7.2641585962734325e+00 +4.8556399492082143e+00 -6.2836055399340395e+01 -1.1267495953247239e+03 +9.3796728503068716e+03 +1.2240972930650048e+07 
-1.4000000000000006e+00 -5.5417957070556190e-01 +7.2646723779268729e+00 +4.8430791717020325e+00 -6.2916961315120801e+01 -1.0947367387361769e+03 +1.0850601991784091e+04 +1.2071724157221990e+07 
-1.4500000000000006e+00 -5.5418994265854771e-01 +7.2652043992435447e+00 +4.8300181352445275e+00 -6.3014788209771915e+01 -1.0592913690964513e+03 +1.2474915386668707e+04 +1.1878454115298346e+07 
-1.5000000000000007e+00 -5.5420064415996551e-01 +7.2657546091451524e+00 +4.8164632379290140e+00 -6.3129719622748034e+01 -1.0205054911957139e+03 +1.4254299241929924e+04 +1.1661588068762619e+07 
-1.5500000000000007e+00 -5.5421167445960173e-01 +7.2663229565553031e+00 +4.8024208721153370e+00 -6.3261939148022115e+01 -9.7847095524877943e+02 +1.6190440222529018e+04 +1.1421550234990448e+07 
-1.6000000000000008e+00 -5.5422303280727214e-01 +7.2669093903998183e+00 +4.7878974331835407e+00 -6.3411630445205418e+01 -9.3327969788474502e+02 +1.8285025538621092e+04 +1.1158765432899671e+07 
-1.6500000000000008e+00 -5.5423471845281125e-01 +7.2675138595996494e+00 +4.7728993159646063e+00 -6.3578976962692593e+01 -8.8502362727987395e+02 +2.0539740714430041e+04 +1.0873658234695662e+07 
-1.7000000000000008e+00 -5.5424673064605567e-01 +7.2681363130830068e+00 +4.7574329148513588e+00 -6.3764162422573833e+01 -8.3379465646623487e+02 +2.2956273533902291e+04 +1.0566653307237480e+07 
-1.7500000000000009e+00 -5.5425906863686636e-01 +7.2687766997754091e+00 +4.7415046246722943e+00 -6.3967370412588274e+01 -7.7968469611430464e+02 +2.5536310683586042e+04 +1.0238175245078901e+07 
-1.8000000000000009e+00 -5.5427173167511234e-01 +7.2694349685998940e+00 +4.7251208398115550e+00 -6.4188784420228913e+01 -7.2278564977745305e+02 +2.8281538132203830e+04 +9.8886486096266489e+06 
-1.8500000000000010e+00 -5.5428471901069465e-01 +7.2701110684851811e+00 +4.7082879577743899e+00 -6.4428588124036622e+01 -6.6318950864733472e+02 +3.1193643355000149e+04 +9.5184985698112305e+06 
-1.9000000000000010e+00 -5.5429802989350230e-01 +7.2708049483570960e+00 +4.6910123709217597e+00 -6.4686965071137323e+01 -6.0098811465739573e+02 +3.4274312793950499e+04 +9.1281492396806236e+06 
-1.9500000000000011e+00 -5.5431166357345041e-01 +7.2715165571436762e+00 +4.6733004747351785e+00 -6.4964098898293827e+01 -5.3627340575066489e+02 +3.7525233734776950e+04 +8.7180254268130306e+06 
-2.0000000000000009e+00 -5.5432561930048208e-01 +7.2722458437703406e+00 +4.6551586661818378e+00 -6.5260173087940132e+01 -4.6913734882175947e+02 +4.0948092108599747e+04 +8.2885520903364541e+06 
-2.0500000000000007e+00 -5.5433989612948353e-01 +7.2729927400503955e+00 +4.6365934034105951e+00 -6.5575165173967420e+01 -3.9967552629172172e+02 +4.4542748196313187e+04 +7.8402274073382532e+06 
-2.1000000000000005e+00 -5.5435449233486411e-01 +7.2737571039271289e+00 +4.6176118188505013e+00 -6.5908214146213481e+01 -3.2800219426874105e+02 +4.8301508373264005e+04 +7.3738825257266676e+06 
-2.1500000000000004e+00 -5.5436940599586526e-01 +7.2745387735279854e+00 +4.5982213298055914e+00 -6.6258246464329630e+01 -2.5423735839386478e+02 +5.2214728540962496e+04 +6.8904423337283209e+06 
-2.2000000000000002e+00 -5.5438463519175007e-01 +7.2753375869767840e+00 +4.5784293548836201e+00 -6.6624188421445325e+01 -1.7850105611821766e+02 +5.6272763176078057e+04 +6.3908319270952288e+06 
-2.2500000000000000e+00 -5.5440017800177821e-01 +7.2761533824016036e+00 +4.5582433104616085e+00 -6.7004966468214292e+01 -1.0091326571817000e+02 +6.0465968067229383e+04 +5.8759760042413017e+06 
-2.2999999999999998e+00 -5.5441603250522242e-01 +7.2769859979255660e+00 +4.5376706132052327e+00 -6.7399506833190841e+01 -2.1593975823820887e+01 +6.4784697132220615e+04 +5.3467993471328728e+06 
-2.3499999999999996e+00 -5.5443219678138655e-01 +7.2778352716779029e+00 +4.5167186834005824e+00 -6.7806735991248814e+01 +5.9336728993071944e+01 +6.9219306367170677e+04 +4.8042273794717398e+06 
-2.3999999999999995e+00 -5.5444866890954858e-01 +7.2787010417839886e+00 +4.4953949346095934e+00 -6.8225580221565679e+01 +1.4175894560965813e+02 +7.3760150055210528e+04 +4.2491843027362144e+06 
-2.4499999999999993e+00 -5.5446544696902866e-01 +7.2795831463722758e+00 +4.4737067865139544e+00 -6.8654965935453319e+01 +2.2555260230436991e+02 +7.8397583640619210e+04 +3.6825954708210365e+06 
-2.4999999999999991e+00 -5.5448252903912687e-01 +7.2804814235687774e+00 +4.4516616528629287e+00 -6.9093819416120837e+01 +3.1059779247853999e+02 +8.3121961442898653e+04 +3.1053851052760677e+06 
-2.5499999999999989e+00 -5.5449991319918768e-01 +7.2813957115017223e+00 +4.4292669535376916e+00 -6.9541067031547385e+01 +3.9677443943756680e+02 +8.7923638509065757e+04 +2.5184786001590798e+06 
-2.5999999999999988e+00 -5.5451759752854368e-01 +7.2823258482973516e+00 +4.4065301049984305e+00 -6.9995635043800831e+01 +4.8396256025454574e+02 +9.2792968955636272e+04 +1.9228007076060742e+06 
-2.6499999999999986e+00 -5.5453558010653170e-01 +7.2832716720860926e+00 +4.3834585223887679e+00 -7.0456449879563039e+01 +5.7204220540332517e+02 +9.7720308261075261e+04 +1.3192759694334017e+06 
-2.6999999999999984e+00 -5.5455385901250431e-01 +7.2842330209954911e+00 +4.3600596221601018e+00 -7.0922437830233434e+01 +6.6089339022808849e+02 +1.0269601076632537e+05 +7.0882916457631963e+05 
-2.7499999999999982e+00 -5.5457243232582953e-01 +7.2852097331525094e+00 +4.3363408215675410e+00 -7.1392525152900092e+01 +7.5039610951072837e+02 +1.0771043051717790e+05 +9.2385210594010772e+04 
-2.7999999999999980e+00 -5.5459129812587327e-01 +7.2862016466879673e+00 +4.3123095361491419e+00 -7.1865638240122777e+01 +8.4043040152259232e+02 +1.1275392261998307e+05 -5.2913125428006472e+05 
-2.8499999999999979e+00 -5.5461045449201907e-01 +7.2872085997278306e+00 +4.2879731826637482e+00 -7.2340703282406992e+01 +9.3087627457167662e+02 +1.1781684054017330e+05 -1.1547953976289404e+06 
-2.8999999999999977e+00 -5.5462989950365060e-01 +7.2882304304043242e+00 +4.2633391768617042e+00 -7.2816646699754642e+01 +1.0216137575696857e+03 +1.2288953953734349e+05 -1.7836824979361580e+06 
-2.9499999999999975e+00 -5.5464963124014810e-01 +7.2892669768439680e+00 +4.2384149318179203e+00 -7.3292394688744395e+01 +1.1125229569881403e+03 +1.2796237312156217e+05 -2.4148683732563644e+06 
-2.9999999999999973e+00 -5.5466964778093364e-01 +7.2903180771776981e+00 +4.2132078669330308e+00 -7.3766873583710662e+01 +1.2034838049298442e+03 +1.3302569577071100e+05 -3.0474276476573832e+06 
-3.0499999999999972e+00 -5.5468994720540232e-01 +7.2913835695324822e+00 +4.1877253952297364e+00 -7.4239009573313126e+01 +1.2943764058969846e+03 +1.3806986086166851e+05 -3.6804361051347838e+06 
-3.0999999999999970e+00 -5.5471052759296902e-01 +7.2924632920401935e+00 +4.1619749317601968e+00 -7.4707729010171107e+01 +1.3850808075965131e+03 +1.4308522297890094e+05 -4.3129691325557241e+06 
-3.1499999999999968e+00 -5.5473138702305858e-01 +7.2935570828295004e+00 +4.1359638921517172e+00 -7.5171958122532914e+01 +1.4754770429378384e+03 +1.4806213574180601e+05 -4.9441020192053923e+06 
-3.1999999999999966e+00 -5.5475252357509819e-01 +7.2946647800288620e+00 +4.1096996910517891e+00 -7.5630623106530862e+01 +1.5654451702687447e+03 +1.5299095241999303e+05 -5.5729102160590887e+06 
-3.2499999999999964e+00 -5.5477393532852015e-01 +7.2957862217693101e+00 +4.0831897427738992e+00 -7.6082650256317777e+01 +1.6548652527171382e+03 +1.5786202706879430e+05 -6.1984691817740873e+06 
-3.2999999999999963e+00 -5.5479562036276719e-01 +7.2969212461785311e+00 +4.0564414618385740e+00 -7.6526965718663220e+01 +1.7436173558701532e+03 +1.6266571249770041e+05 -6.8198544251238592e+06 
-3.3499999999999961e+00 -5.5481757675728227e-01 +7.2980696913893679e+00 +4.0294622621731033e+00 -7.6962495833385461e+01 +1.8315815484365896e+03 +1.6739236304754065e+05 -7.4361414128970476e+06 
-3.3999999999999959e+00 -5.5483980259151700e-01 +7.2992313955283992e+00 +4.0022595571706709e+00 -7.7388166681768610e+01 +1.9186379256947939e+03 +1.7203233091970114e+05 -8.0464058378847679e+06 
-3.4499999999999957e+00 -5.5486229594492709e-01 +7.3004061967270006e+00 +3.9748407611365439e+00 -7.7802904530025671e+01 +2.0046665433321416e+03 +1.7657596979649545e+05 -8.6497230627671704e+06 
-3.4999999999999956e+00 -5.5488505489697137e-01 +7.3015939331133728e+00 +3.9472132864378380e+00 -7.8205635495069316e+01 +2.0895475194417395e+03 +1.8101363205565131e+05 -9.2451689008823987e+06 
-3.5499999999999954e+00 -5.5490807752711313e-01 +7.3027944428194260e+00 +3.9193845459955172e+00 -7.8595285850337447e+01 +2.1731609514549068e+03 +1.8533567137402628e+05 -9.8318190039263796e+06 
-3.5999999999999952e+00 -5.5493136191483716e-01 +7.3040075639720339e+00 +3.8913619550051282e+00 -7.8970781632210773e+01 +2.2553868750587308e+03 +1.8953243935378277e+05 -1.0408748593092194e+07 
-3.6499999999999950e+00 -5.5495490613959686e-01 +7.3052331347031645e+00 +3.8631529222405239e+00 -7.9331049101160787e+01 +2.3361055008798694e+03 +1.9359428949601424e+05 -1.0975034076822663e+07 
-3.6999999999999948e+00 -5.5497870828088580e-01 +7.3064709931405947e+00 +3.8347648628414359e+00 -7.9675014315964077e+01 +2.4151968603008891e+03 +1.9751157351356430e+05 -1.1529750614339143e+07 
-3.7499999999999947e+00 -5.5500276641818558e-01 +7.3077209774152001e+00 +3.8062051886464650e+00 -8.0001603465714922e+01 +2.4925410776627332e+03 +2.0127464418028909e+05 -1.2071974002110204e+07 
-3.7999999999999945e+00 -5.5502707863096812e-01 +7.3089829256542806e+00 +3.7774813087726593e+00 -8.0309742577038293e+01 +2.5680183493672193e+03 +2.0487385287330431e+05 -1.2600780512099536e+07 
-3.8499999999999943e+00 -5.5505164299873599e-01 +7.3102566759892644e+00 +3.7486006369380100e+00 -8.0598357837292113e+01 +2.6415087446932021e+03 +2.0829955223321976e+05 -1.3115245537809292e+07 
-3.8999999999999941e+00 -5.5507645760097613e-01 +7.3115420665471671e+00 +3.7195705835416830e+00 -8.0866375247107641e+01 +2.7128924225035921e+03 +2.1154209331129587e+05 -1.3614445073887877e+07 
-3.9499999999999940e+00 -5.5510152051717765e-01 +7.3128389354568952e+00 +3.6903985580971255e+00 -8.1112720881891349e+01 +2.7820495639648625e+03 +2.1459182775976724e+05 -1.4097455249303751e+07 
-3.9999999999999938e+00 -5.5512682982684902e-01 +7.3141471208493503e+00 +3.6610919731534484e+00 -8.1336320873841231e+01 +2.8488602675471361e+03 +2.1743910760108748e+05 -1.4563351622269377e+07 
-4.0499999999999936e+00 -5.5515238349993068e-01 +7.3154664602277153e+00 +3.6316576559920462e+00 -8.1536399925283646e+01 +2.9132350863923657e+03 +2.2007701622543033e+05 -1.5011443838976169e+07 
-4.0999999999999934e+00 -5.5517817906887834e-01 +7.3167967839844064e+00 +3.6021003188786862e+00 -8.1713453728257534e+01 +2.9752182324211135e+03 +2.2251009873933895e+05 -1.5442095019025419e+07 
-4.1499999999999932e+00 -5.5520421395695141e-01 +7.3181379196109857e+00 +3.5724242112270472e+00 -8.1868318435488973e+01 +3.0348907175231066e+03 +2.2474592229836600e+05 -1.5855963878336728e+07 
-4.1999999999999931e+00 -5.5523048558740729e-01 +7.3194896946047088e+00 +3.5426335815952266e+00 -8.2001830444326473e+01 +3.0923335862273525e+03 +2.2679205598741307e+05 -1.6253709386686815e+07 
-4.2499999999999929e+00 -5.5525699138350371e-01 +7.3208519364629812e+00 +3.5127326792653664e+00 -8.2114826179257975e+01 +3.1476278526367028e+03 +2.2865606916962861e+05 -1.6635990267195752e+07 
-4.2999999999999927e+00 -5.5528372876850052e-01 +7.3222244726790535e+00 +3.4827257529523790e+00 -8.2208141904130997e+01 +3.2008545559451372e+03 +2.3034552990658878e+05 -1.7003465453680534e+07 
-4.3499999999999925e+00 -5.5531069516566078e-01 +7.3236071307464057e+00 +3.4526170521367399e+00 -8.2282613913963445e+01 +3.2520947110368211e+03 +2.3186800657532693e+05 -1.7356793704210814e+07 
-4.3999999999999924e+00 -5.5533788799823702e-01 +7.3249997381616785e+00 +3.4224108244922151e+00 -8.2339078641149172e+01 +3.3014293817331391e+03 +2.3323106867713958e+05 -1.7696634111314867e+07 
-4.4499999999999922e+00 -5.5536530468949630e-01 +7.3264021224168543e+00 +3.3921113201603226e+00 -8.2378372340250792e+01 +3.3489395659099528e+03 +2.3444228427908549e+05 -1.8023645327311784e+07 
-4.4999999999999920e+00 -5.5539294266271177e-01 +7.3278141110080579e+00 +3.3617227907130305e+00 -8.2401331470612561e+01 +3.3947062224267970e+03 +2.3550922323851829e+05 -1.8338485745065402e+07 
-4.5499999999999918e+00 -5.5542079934113786e-01 +7.3292355314273667e+00 +3.3312494839420941e+00 -8.2408792328030273e+01 +3.4388104145821876e+03 +2.3643945403634530e+05 -1.8641814470304295e+07 
-4.5999999999999917e+00 -5.5544887214802996e-01 +7.3306662111674497e+00 +3.3006956483845320e+00 -8.2401591251633235e+01 +3.4813331866561757e+03 +2.3724054555074256e+05 -1.8934290495199870e+07 
-4.6499999999999915e+00 -5.5547715850667267e-01 +7.3321059777213531e+00 +3.2700655380260590e+00 -8.2380564628802929e+01 +3.5223554326218778e+03 +2.3792006715270516e+05 -1.9216571784896888e+07 
-4.6999999999999913e+00 -5.5550565584030687e-01 +7.3335546585808897e+00 +3.2393633994250597e+00 -8.2346548799534830e+01 +3.5619582472767797e+03 +2.3848558778786007e+05 -1.9489317665303249e+07 
-4.7499999999999911e+00 -5.5553436157220182e-01 +7.3350120812391664e+00 +3.2085934837992367e+00 -8.2300380200470599e+01 +3.6002226051193347e+03 +2.3894467732953714e+05 -1.9753186674001012e+07 
-4.7999999999999909e+00 -5.5556327312561904e-01 +7.3364780731862371e+00 +3.1777600424287309e+00 -8.2242895144118080e+01 +3.6372294729678865e+03 +2.3930490458831907e+05 -2.0008837282662917e+07 
-4.8499999999999908e+00 -5.5559238792381993e-01 +7.3379524619142842e+00 +3.1468673258492372e+00 -8.2174930067981308e+01 +3.6730598449221548e+03 +2.3957383950664412e+05 -2.0256928174079072e+07 
-4.8999999999999906e+00 -5.5562170339005568e-01 +7.3394350749135890e+00 +3.1159195840084717e+00 -8.2097321342917908e+01 +3.7077947259067455e+03 +2.3975905147224007e+05 -2.0498118091458198e+07 
-4.9499999999999904e+00 -5.5565121694758257e-01 +7.3409257396743373e+00 +3.0849210679810062e+00 -8.2010905373882821e+01 +3.7415150940405679e+03 +2.3986811025572187e+05 -2.0733065616995823e+07 
-4.9999999999999902e+00 -5.5568092601966734e-01 +7.3424242836859026e+00 +3.0538760313624738e+00 -8.1916518548653528e+01 +3.7743018577395464e+03 +2.3990858548923736e+05 -2.0962428857453696e+07 
-5.0499999999999901e+00 -5.5571082802954763e-01 +7.3439305344348922e+00 +3.0227887229689725e+00 -8.1814997177008593e+01 +3.8062360576951255e+03 +2.3988804625904659e+05 -2.1186866833284657e+07 
