# trajectory
# s[mm] rx[mm] ry[mm] rz[mm] px[rad] py[rad] pz[rad]
0.0000000000000000e+00 +8.5269999999999992e+00 +0.0000000000000000e+00 +0.0000000000000000e+00 +0.0000000000000000e+00 +0.0000000000000000e+00 +1.0000000000000000e+00
-5.0000000000000003e-02 +8.5269999308406774e+00 +0.0000000000000000e+00 -4.9999999999936227e-02 +2.7663717779490482e-06 +0.0000000000000000e+00 +9.9999999999617362e-01
-1.0000000000000001e-01 +8.5269997233629198e+00 +0.0000000000000000e+00 -9.9999999999489816e-02 +5.5327377136626105e-06 +0.0000000000000000e+00 +9.9999999998469447e-01
-1.5000000000000002e-01 +8.5269993775669732e+00 +0.0000000000000000e+00 -1.4999999999827812e-01 +8.2990996301566719e-06 +0.0000000000000000e+00 +9.9999999996556255e-01
-2.0000000000000001e-01 +8.5269988934529941e+00 +0.0000000000000000e+00 -1.9999999999591853e-01 +1.1065459348476396e-05 +0.0000000000000000e+00 +9.9999999993877786e-01
-2.5000000000000000e-01 +8.5269982710210446e+00 +0.0000000000000000e+00 -2.4999999999202838e-01 +1.3831818687696205e-05 +0.0000000000000000e+00 +9.9999999990434041e-01
-2.9999999999999999e-01 +8.5269975102710998e+00 +0.0000000000000000e+00 -2.9999999998622506e-01 +1.6598179464919873e-05 +0.0000000000000000e+00 +9.9999999986225019e-01
-3.4999999999999998e-01 +8.5269966112030424e+00 +0.0000000000000000e+00 -3.4999999997812586e-01 +1.9364543495280613e-05 +0.0000000000000000e+00 +9.9999999981250720e-01
-3.9999999999999997e-01 +8.5269955738166647e+00 +0.0000000000000000e+00 -3.9999999996734820e-01 +2.2130912591941153e-05 +0.0000000000000000e+00 +9.9999999975511134e-01
-4.4999999999999996e-01 +8.5269943981116683e+00 +0.0000000000000000e+00 -4.4999999995350942e-01 +2.4897288566093830e-05 +0.0000000000000000e+00 +9.9999999969006248e-01
-4.9999999999999994e-01 +8.5269930840876640e+00 +0.0000000000000000e+00 -4.9999999993622690e-01 +2.7663673226960673e-05 +0.0000000000000000e+00 +9.9999999961736052e-01
-5.4999999999999993e-01 +8.5269916317441705e+00 +0.0000000000000000e+00 -5.4999999991511794e-01 +3.0430068381793485e-05 +0.0000000000000000e+00 +9.9999999953700536e-01
-5.9999999999999998e-01 +8.5269900410806194e+00 +0.0000000000000000e+00 -5.9999999988979991e-01 +3.3196475835873930e-05 +0.0000000000000000e+00 +9.9999999944899687e-01
-6.5000000000000002e-01 +8.5269883120963517e+00 +0.0000000000000000e+00 -6.4999999985989010e-01 +3.5962897392513617e-05 +0.0000000000000000e+00 +9.9999999935333483e-01
-7.0000000000000007e-01 +8.5269864447906158e+00 +0.0000000000000000e+00 -6.9999999982500583e-01 +3.8729334853054188e-05 +0.0000000000000000e+00 +9.9999999925001914e-01
-7.5000000000000011e-01 +8.5269844391625718e+00 +0.0000000000000000e+00 -7.4999999978476439e-01 +4.1495790016867383e-05 +0.0000000000000000e+00 +9.9999999913904958e-01
-8.0000000000000016e-01 +8.5269822952112886e+00 +0.0000000000000000e+00 -7.9999999973878322e-01 +4.4262264681355145e-05 +0.0000000000000000e+00 +9.9999999902042580e-01
-8.5000000000000020e-01 +8.5269800129357485e+00 +0.0000000000000000e+00 -8.4999999968667950e-01 +4.7028760641949693e-05 +0.0000000000000000e+00 +9.9999999889414770e-01
-9.0000000000000024e-01 +8.5269775923348394e+00 +0.0000000000000000e+00 -8.9999999962807042e-01 +4.9795279692113599e-05 +0.0000000000000000e+00 +9.9999999876021495e-01
-9.5000000000000029e-01 +8.5269750334073642e+00 +0.0000000000000000e+00 -9.4999999956257342e-01 +5.2561823623339879e-05 +0.0000000000000000e+00 +9.9999999861862721e-01
-1.0000000000000002e+00 +8.5269723361520331e+00 +0.0000000000000000e+00 -9.9999999948980556e-01 +5.5328394225152065e-05 +0.0000000000000000e+00 +9.9999999846938425e-01
-1.0500000000000003e+00 +8.5269695005674677e+00 +0.0000000000000000e+00 -1.0499999994093843e+00 +5.8094993285104290e-05 +0.0000000000000000e+00 +9.9999999831248576e-01
-1.1000000000000003e+00 +8.5269665266522008e+00 +0.0000000000000000e+00 -1.0999999993209266e+00 +6.0861622588781370e-05 +0.0000000000000000e+00 +9.9999999814793128e-01
-1.1500000000000004e+00 +8.5269634144046744e+00 +0.0000000000000000e+00 -1.1499999992240497e+00 +6.3628283919798894e-05 +0.0000000000000000e+00 +9.9999999797572059e-01
-1.2000000000000004e+00 +8.5269601638232437e+00 +0.0000000000000000e+00 -1.1999999991183710e+00 +6.6394979059803270e-05 +0.0000000000000000e+00 +9.9999999779585325e-01
-1.2500000000000004e+00 +8.5269567749061750e+00 +0.0000000000000000e+00 -1.2499999990035073e+00 +6.9161709788471851e-05 +0.0000000000000000e+00 +9.9999999760832881e-01
-1.3000000000000005e+00 +8.5269532476516421e+00 +0.0000000000000000e+00 -1.2999999988790760e+00 +7.1928477883512974e-05 +0.0000000000000000e+00 +9.9999999741314693e-01
-1.3500000000000005e+00 +8.5269495820577337e+00 +0.0000000000000000e+00 -1.3499999987446942e+00 +7.4695285120666066e-05 +0.0000000000000000e+00 +9.9999999721030708e-01
-1.4000000000000006e+00 +8.5269457781224478e+00 +0.0000000000000000e+00 -1.3999999985999789e+00 +7.7462133273701697e-05 +0.0000000000000000e+00 +9.9999999699980879e-01
-1.4500000000000006e+00 +8.5269418358436955e+00 +0.0000000000000000e+00 -1.4499999984445473e+00 +8.0229024114421689e-05 +0.0000000000000000e+00 +9.9999999678165163e-01
-1.5000000000000007e+00 +8.5269377552192971e+00 +0.0000000000000000e+00 -1.4999999982780163e+00 +8.2995959412659155e-05 +0.0000000000000000e+00 +9.9999999655583516e-01
-1.5500000000000007e+00 +8.5269335362469842e+00 +0.0000000000000000e+00 -1.5499999981000030e+00 +8.5762940936278623e-05 +0.0000000000000000e+00 +9.9999999632235881e-01
-1.6000000000000008e+00 +8.5269291789244033e+00 +0.0000000000000000e+00 -1.5999999979101245e+00 +8.8529970451176062e-05 +0.0000000000000000e+00 +9.9999999608122203e-01
-1.6500000000000008e+00 +8.5269246832491099e+00 +0.0000000000000000e+00 -1.6499999977079975e+00 +9.1297049721279005e-05 +0.0000000000000000e+00 +9.9999999583242427e-01
-1.7000000000000008e+00 +8.5269200492185728e+00 +0.0000000000000000e+00 -1.6999999974932392e+00 +9.4064180508546572e-05 +0.0000000000000000e+00 +9.9999999557596486e-01
-1.7500000000000009e+00 +8.5269152768301719e+00 +0.0000000000000000e+00 -1.7499999972654663e+00 +9.6831364572969614e-05 +0.0000000000000000e+00 +9.9999999531184336e-01
-1.8000000000000009e+00 +8.5269103660811982e+00 +0.0000000000000000e+00 -1.7999999970242957e+00 +9.9598603672570730e-05 +0.0000000000000000e+00 +9.9999999504005899e-01
-1.8500000000000010e+00 +8.5269053169688576e+00 +0.0000000000000000e+00 -1.8499999967693443e+00 +1.0236589956340437e-04 +0.0000000000000000e+00 +9.9999999476061119e-01
-1.9000000000000010e+00 +8.5269001294902669e+00 +0.0000000000000000e+00 -1.8999999965002290e+00 +1.0513325399955691e-04 +0.0000000000000000e+00 +9.9999999447349930e-01
-1.9500000000000011e+00 +8.5268948036424543e+00 +0.0000000000000000e+00 -1.9499999962165664e+00 +1.0790066873314671e-04 +0.0000000000000000e+00 +9.9999999417872265e-01
-2.0000000000000009e+00 +8.5268893394223610e+00 +0.0000000000000000e+00 -1.9999999959179735e+00 +1.1066814551432416e-04 +0.0000000000000000e+00 +9.9999999387628058e-01
-2.0500000000000007e+00 +8.5268837368268411e+00 +0.0000000000000000e+00 -2.0499999956040669e+00 +1.1343568609099105e-04 +0.0000000000000000e+00 +9.9999999356617231e-01
-2.1000000000000005e+00 +8.5268779958526597e+00 +0.0000000000000000e+00 -2.0999999952744632e+00 +1.1620329220571157e-04 +0.0000000000000000e+00 +9.9999999324839717e-01
-2.1500000000000004e+00 +8.5268721164964987e+00 +0.0000000000000000e+00 -2.1499999949287791e+00 +1.1897096559262347e-04 +0.0000000000000000e+00 +9.9999999292295438e-01
-2.2000000000000002e+00 +8.5268660987549509e+00 +0.0000000000000000e+00 -2.1999999945666309e+00 +1.2173870797715732e-04 +0.0000000000000000e+00 +9.9999999258984318e-01
-2.2500000000000000e+00 +8.5268599426245224e+00 +0.0000000000000000e+00 -2.2499999941876356e+00 +1.2450652107603660e-04 +0.0000000000000000e+00 +9.9999999224906277e-01
-2.2999999999999998e+00 +8.5268536481016355e+00 +0.0000000000000000e+00 -2.2999999937914093e+00 +1.2727440659727769e-04 +0.0000000000000000e+00 +9.9999999190061239e-01
-2.3499999999999996e+00 +8.5268472151826273e+00 +0.0000000000000000e+00 -2.3499999933775690e+00 +1.3004236624019003e-04 +0.0000000000000000e+00 +9.9999999154449115e-01
-2.3999999999999995e+00 +8.5268406438637481e+00 +0.0000000000000000e+00 -2.3999999929457307e+00 +1.3281040169537615e-04 +0.0000000000000000e+00 +9.9999999118069827e-01
-2.4499999999999993e+00 +8.5268339341411661e+00 +0.0000000000000000e+00 -2.4499999924955111e+00 +1.3557851464473172e-04 +0.0000000000000000e+00 +9.9999999080923285e-01
-2.4999999999999991e+00 +8.5268270860109645e+00 +0.0000000000000000e+00 -2.4999999920265261e+00 +1.3834670676144561e-04 +0.0000000000000000e+00 +9.9999999043009402e-01
-2.5499999999999989e+00 +8.5268200994691430e+00 +0.0000000000000000e+00 -2.5499999915383924e+00 +1.4111497970999999e-04 +0.0000000000000000e+00 +9.9999999004328088e-01
-2.5999999999999988e+00 +8.5268129745116195e+00 +0.0000000000000000e+00 -2.5999999910307263e+00 +1.4388333514617037e-04 +0.0000000000000000e+00 +9.9999998964879255e-01
-2.6499999999999986e+00 +8.5268057111342266e+00 +0.0000000000000000e+00 -2.6499999905031437e+00 +1.4665177471702564e-04 +0.0000000000000000e+00 +9.9999998924662814e-01
-2.6999999999999984e+00 +8.5267983093327171e+00 +0.0000000000000000e+00 -2.6999999899552609e+00 +1.4942030006092821e-04 +0.0000000000000000e+00 +9.9999998883678665e-01
-2.7499999999999982e+00 +8.5267907691027638e+00 +0.0000000000000000e+00 -2.7499999893866942e+00 +1.5218891280753400e-04 +0.0000000000000000e+00 +9.9999998841926707e-01
-2.7999999999999980e+00 +8.5267830904399542e+00 +0.0000000000000000e+00 -2.7999999887970595e+00 +1.5495761457779249e-04 +0.0000000000000000e+00 +9.9999998799406853e-01
-2.8499999999999979e+00 +8.5267752733397959e+00 +0.0000000000000000e+00 -2.8499999881859730e+00 +1.5772640698394688e-04 +0.0000000000000000e+00 +9.9999998756118991e-01
-2.8999999999999977e+00 +8.5267673177977183e+00 +0.0000000000000000e+00 -2.8999999875530507e+00 +1.6049529162953405e-04 +0.0000000000000000e+00 +9.9999998712063032e-01
-2.9499999999999975e+00 +8.5267592238090693e+00 +0.0000000000000000e+00 -2.9499999868979083e+00 +1.6326427010938466e-04 +0.0000000000000000e+00 +9.9999998667238865e-01
-2.9999999999999973e+00 +8.5267509913691164e+00 +0.0000000000000000e+00 -2.9999999862201618e+00 +1.6603334400962320e-04 +0.0000000000000000e+00 +9.9999998621646391e-01
-3.0499999999999972e+00 +8.5267426204730512e+00 +0.0000000000000000e+00 -3.0499999855194266e+00 +1.6880251490766806e-04 +0.0000000000000000e+00 +9.9999998575285509e-01
-3.0999999999999970e+00 +8.5267341111159833e+00 +0.0000000000000000e+00 -3.0999999847953190e+00 +1.7157178437223156e-04 +0.0000000000000000e+00 +9.9999998528156098e-01
-3.1499999999999968e+00 +8.5267254632929461e+00 +0.0000000000000000e+00 -3.1499999840474544e+00 +1.7434115396332007e-04 +0.0000000000000000e+00 +9.9999998480258057e-01
-3.1999999999999966e+00 +8.5267166769988929e+00 +0.0000000000000000e+00 -3.1999999832754487e+00 +1.7711062523223400e-04 +0.0000000000000000e+00 +9.9999998431591275e-01
-3.2499999999999964e+00 +8.5267077522287025e+00 +0.0000000000000000e+00 -3.2499999824789176e+00 +1.7988019972156789e-04 +0.0000000000000000e+00 +9.9999998382155642e-01
-3.2999999999999963e+00 +8.5266986889771754e+00 +0.0000000000000000e+00 -3.2999999816574763e+00 +1.8264987896521044e-04 +0.0000000000000000e+00 +9.9999998331951034e-01
-3.3499999999999961e+00 +8.5266894872390342e+00 +0.0000000000000000e+00 -3.3499999808107406e+00 +1.8541966448834459e-04 +0.0000000000000000e+00 +9.9999998280977354e-01
-3.3999999999999959e+00 +8.5266801470089284e+00 +0.0000000000000000e+00 -3.3999999799383254e+00 +1.8818955780744759e-04 +0.0000000000000000e+00 +9.9999998229234466e-01
-3.4499999999999957e+00 +8.5266706682814313e+00 +0.0000000000000000e+00 -3.4499999790398466e+00 +1.9095956043029103e-04 +0.0000000000000000e+00 +9.9999998176722260e-01
-3.4999999999999956e+00 +8.5266610510510397e+00 +0.0000000000000000e+00 -3.4999999781149191e+00 +1.9372967385594084e-04 +0.0000000000000000e+00 +9.9999998123440614e-01
-3.5499999999999954e+00 +8.5266512953121740e+00 +0.0000000000000000e+00 -3.5499999771631585e+00 +1.9649989957475748e-04 +0.0000000000000000e+00 +9.9999998069389417e-01
-3.5999999999999952e+00 +8.5266414010591856e+00 +0.0000000000000000e+00 -3.5999999761841801e+00 +1.9927023906839584e-04 +0.0000000000000000e+00 +9.9999998014568536e-01
-3.6499999999999950e+00 +8.5266313682863473e+00 +0.0000000000000000e+00 -3.6499999751775989e+00 +2.0204069380980541e-04 +0.0000000000000000e+00 +9.9999997958977849e-01
-3.6999999999999948e+00 +8.5266211969878594e+00 +0.0000000000000000e+00 -3.6999999741430298e+00 +2.0481126526323025e-04 +0.0000000000000000e+00 +9.9999997902617221e-01
-3.7499999999999947e+00 +8.5266108871578510e+00 +0.0000000000000000e+00 -3.7499999730800879e+00 +2.0758195488420906e-04 +0.0000000000000000e+00 +9.9999997845486543e-01
-3.7999999999999945e+00 +8.5266004387903767e+00 +0.0000000000000000e+00 -3.7999999719883881e+00 +2.1035276411957531e-04 +0.0000000000000000e+00 +9.9999997787585670e-01
-3.8499999999999943e+00 +8.5265898518794216e+00 +0.0000000000000000e+00 -3.8499999708675454e+00 +2.1312369440745714e-04 +0.0000000000000000e+00 +9.9999997728914480e-01
-3.8999999999999941e+00 +8.5265791264188948e+00 +0.0000000000000000e+00 -3.8999999697171743e+00 +2.1589474717727754e-04 +0.0000000000000000e+00 +9.9999997669472840e-01
-3.9499999999999940e+00 +8.5265682624026375e+00 +0.0000000000000000e+00 -3.9499999685368898e+00 +2.1866592384975437e-04 +0.0000000000000000e+00 +9.9999997609260616e-01
-3.9999999999999938e+00 +8.5265572598244201e+00 +0.0000000000000000e+00 -3.9999999673263065e+00 +2.2143722583690032e-04 +0.0000000000000000e+00 +9.9999997548277675e-01
-4.0499999999999936e+00 +8.5265461186779419e+00 +0.0000000000000000e+00 -4.0499999660850392e+00 +2.2420865454176946e-04 +0.0000000000000000e+00 +9.9999997486523884e-01
-4.0999999999999934e+00 +8.5265348389568310e+00 +0.0000000000000000e+00 -4.0999999648127021e+00 +2.2698021135566783e-04 +0.0000000000000000e+00 +9.9999997423999099e-01
-4.1499999999999932e+00 +8.5265234206546481e+00 +0.0000000000000000e+00 -4.1499999635089102e+00 +2.2975189765536396e-04 +0.0000000000000000e+00 +9.9999997360703186e-01
-4.1999999999999931e+00 +8.5265118637648847e+00 +0.0000000000000000e+00 -4.1999999621732771e+00 +2.3252371480283533e-04 +0.0000000000000000e+00 +9.9999997296636012e-01
-4.2499999999999929e+00 +8.5265001682809647e+00 +0.0000000000000000e+00 -4.2499999608054173e+00 +2.3529566414526832e-04 +0.0000000000000000e+00 +9.9999997231797433e-01
-4.2999999999999927e+00 +8.5264883341962445e+00 +0.0000000000000000e+00 -4.2999999594049454e+00 +2.3806774701505830e-04 +0.0000000000000000e+00 +9.9999997166187304e-01
-4.3499999999999925e+00 +8.5264763615040149e+00 +0.0000000000000000e+00 -4.3499999579714759e+00 +2.4083996472980956e-04 +0.0000000000000000e+00 +9.9999997099805482e-01
-4.3999999999999924e+00 +8.5264642501975025e+00 +0.0000000000000000e+00 -4.3999999565046224e+00 +2.4361231859233539e-04 +0.0000000000000000e+00 +9.9999997032651822e-01
-4.4499999999999922e+00 +8.5264520002698649e+00 +0.0000000000000000e+00 -4.4499999550039995e+00 +2.4638480989065795e-04 +0.0000000000000000e+00 +9.9999996964726179e-01
-4.4999999999999920e+00 +8.5264396117142010e+00 +0.0000000000000000e+00 -4.4999999534692199e+00 +2.4915743989800844e-04 +0.0000000000000000e+00 +9.9999996896028409e-01
-4.5499999999999918e+00 +8.5264270845235419e+00 +0.0000000000000000e+00 -4.5499999518998990e+00 +2.5193020987282705e-04 +0.0000000000000000e+00 +9.9999996826558368e-01
-4.5999999999999917e+00 +8.5264144186908588e+00 +0.0000000000000000e+00 -4.5999999502956497e+00 +2.5470312105876279e-04 +0.0000000000000000e+00 +9.9999996756315901e-01
-4.6499999999999915e+00 +8.5264016142090604e+00 +0.0000000000000000e+00 -4.6499999486560863e+00 +2.5747617468467371e-04 +0.0000000000000000e+00 +9.9999996685300863e-01
-4.6999999999999913e+00 +8.5263886710709951e+00 +0.0000000000000000e+00 -4.6999999469808218e+00 +2.6024937196462674e-04 +0.0000000000000000e+00 +9.9999996613513109e-01
-4.7499999999999911e+00 +8.5263755892694491e+00 +0.0000000000000000e+00 -4.7499999452694706e+00 +2.6302271409789780e-04 +0.0000000000000000e+00 +9.9999996540952485e-01
-4.7999999999999909e+00 +8.5263623687971517e+00 +0.0000000000000000e+00 -4.7999999435216454e+00 +2.6579620226897170e-04 +0.0000000000000000e+00 +9.9999996467618835e-01
-4.8499999999999908e+00 +8.5263490096467702e+00 +0.0000000000000000e+00 -4.8499999417369599e+00 +2.6856983764754217e-04 +0.0000000000000000e+00 +9.9999996393512003e-01
-4.8999999999999906e+00 +8.5263355118109150e+00 +0.0000000000000000e+00 -4.8999999399150278e+00 +2.7134362138851189e-04 +0.0000000000000000e+00 +9.9999996318631845e-01
-4.9499999999999904e+00 +8.5263218752821395e+00 +0.0000000000000000e+00 -4.9499999380554627e+00 +2.7411755463199229e-04 +0.0000000000000000e+00 +9.9999996242978195e-01
-4.9999999999999902e+00 +8.5263081000529404e+00 +0.0000000000000000e+00 -4.9999999361578773e+00 +2.7689163850330381e-04 +0.0000000000000000e+00 +9.9999996166550909e-01
-5.0499999999999901e+00 +8.5262941861157593e+00 +0.0000000000000000e+00 -5.0499999342218844e+00 +2.7966587411297559e-04 +0.0000000000000000e+00 +9.9999996089349819e-01
-5.0999999999999899e+00 +8.5262801334629810e+00 +0.0000000000000000e+00 -5.0999999322470977e+00 +2.8244026255674578e-04 +0.0000000000000000e+00 +9.9999996011374781e-01
-5.1499999999999897e+00 +8.5262659420869369e+00 +0.0000000000000000e+00 -5.1499999302331299e+00 +2.8521480491556118e-04 +0.0000000000000000e+00 +9.9999995932625629e-01
-5.1999999999999895e+00 +8.5262516119799052e+00 +0.0000000000000000e+00 -5.1999999281795937e+00 +2.8798950225557740e-04 +0.0000000000000000e+00 +9.9999995853102208e-01
-5.2499999999999893e+00 +8.5262371431341109e+00 +0.0000000000000000e+00 -5.2499999260861028e+00 +2.9076435562815886e-04 +0.0000000000000000e+00 +9.9999995772804351e-01
-5.2999999999999892e+00 +8.5262225355417254e+00 +0.0000000000000000e+00 -5.2999999239522690e+00 +2.9353936606987867e-04 +0.0000000000000000e+00 +9.9999995691731902e-01
-5.3499999999999890e+00 +8.5262077891948689e+00 +0.0000000000000000e+00 -5.3499999217777052e+00 +2.9631453460251866e-04 +0.0000000000000000e+00 +9.9999995609884695e-01
-5.3999999999999888e+00 +8.5261929040856135e+00 +0.0000000000000000e+00 -5.3999999195620241e+00 +2.9908986223306934e-04 +0.0000000000000000e+00 +9.9999995527262575e-01
-5.4499999999999886e+00 +8.5261778802059780e+00 +0.0000000000000000e+00 -5.4499999173048383e+00 +3.0186534995372985e-04 +0.0000000000000000e+00 +9.9999995443865386e-01
-5.4999999999999885e+00 +8.5261627175479333e+00 +0.0000000000000000e+00 -5.4999999150057599e+00 +3.0464099874190798e-04 +0.0000000000000000e+00 +9.9999995359692950e-01
-5.5499999999999883e+00 +8.5261474161034023e+00 +0.0000000000000000e+00 -5.5499999126644015e+00 +3.0741680956021999e-04 +0.0000000000000000e+00 +9.9999995274745113e-01
-5.5999999999999881e+00 +8.5261319758642600e+00 +0.0000000000000000e+00 -5.5999999102803759e+00 +3.1019278335649077e-04 +0.0000000000000000e+00 +9.9999995189021706e-01
-5.6499999999999879e+00 +8.5261163968223350e+00 +0.0000000000000000e+00 -5.6499999078532941e+00 +3.1296892106375370e-04 +0.0000000000000000e+00 +9.9999995102522565e-01
-5.6999999999999877e+00 +8.5261006789694065e+00 +0.0000000000000000e+00 -5.6999999053827688e+00 +3.1574522360025060e-04 +0.0000000000000000e+00 +9.9999995015247523e-01
-5.7499999999999876e+00 +8.5260848222972125e+00 +0.0000000000000000e+00 -5.7499999028684119e+00 +3.1852169186943170e-04 +0.0000000000000000e+00 +9.9999994927196423e-01
-5.7999999999999874e+00 +8.5260688267974434e+00 +0.0000000000000000e+00 -5.7999999003098353e+00 +3.2129832675995560e-04 +0.0000000000000000e+00 +9.9999994838369088e-01
-5.8499999999999872e+00 +8.5260526924617448e+00 +0.0000000000000000e+00 -5.8499998977066516e+00 +3.2407512914568926e-04 +0.0000000000000000e+00 +9.9999994748765353e-01
