# multipoles
# s[mm] polynom_b[n=0][T/m^n] polynom_b[n=1][T/m^n] polynom_b[n=2][T/m^n] polynom_b[n=3][T/m^n] polynom_b[n=4][T/m^n] polynom_b[n=5][T/m^n] polynom_b[n=6][T/m^n] 
+0.0000000000000000e+00 -5.4945220370096404e-01 +7.2008856424121186e+00 +5.5459745893949881e+00 -5.7938447862986884e+01 -2.4722232555463793e+03 +5.1311595960747336e+03 +3.3965105442835987e+07 
+5.0000000000000003e-02 -5.4945182129509262e-01 +7.2008981995821228e+00 +5.5484988110019247e+00 -5.7394819829616580e+01 -2.5124510910178155e+03 +7.7137359790359062e+02 +3.4105949321012080e+07 
+1.0000000000000001e-01 -5.4945183136964160e-01 +7.2009322656775634e+00 +5.5505564368361577e+00 -5.6856369895953378e+01 -2.5527529685580043e+03 -3.5135734583119902e+03 +3.4247381601643898e+07 
+1.5000000000000002e-01 -5.4945223316459912e-01 +7.2009877794963026e+00 +5.5521518838172890e+00 -5.6323424826854470e+01 -2.5932172777909259e+03 -7.7203687853376796e+03 +3.4389980703196086e+07 
+2.0000000000000001e-01 -5.4945302591996037e-01 +7.2010646798406945e+00 +5.5532895672633247e+00 -5.5796311547735797e+01 -2.6339323706374057e+03 -1.1845698261267014e+04 +3.4534324808457091e+07 
+2.5000000000000000e-01 -5.4945420887575847e-01 +7.2011629055101301e+00 +5.5539739055250097e+00 -5.5275356834503803e+01 -2.6749866730127242e+03 -1.5886248982691304e+04 +3.4680992566788383e+07 
+2.9999999999999999e-01 -5.4945578127202355e-01 +7.2012823953050722e+00 +5.5542093136226471e+00 -5.4760887478236349e+01 -2.7164685281789316e+03 -1.9838707930061406e+04 +3.4830562098350115e+07 
+3.4999999999999998e-01 -5.4945774234881362e-01 +7.2014230880286281e+00 +5.5540002082741005e+00 -5.4253230345790655e+01 -2.7584663233142737e+03 -2.3699761472525719e+04 +3.4983611809660502e+07 
+3.9999999999999997e-01 -5.4946009134620166e-01 +7.2015849224844724e+00 +5.5533510054365447e+00 -5.3752712310967496e+01 -2.8010684218849947e+03 -2.7466095868799377e+04 +3.5140719932545952e+07 
+4.4999999999999996e-01 -5.4946282750428821e-01 +7.2017678374738807e+00 +5.5522661230648955e+00 -5.3259660099330517e+01 -2.8443632458240222e+03 -3.1134398695853772e+04 +3.5302465111576051e+07 
+4.9999999999999994e-01 -5.4946595006318033e-01 +7.2019717718015883e+00 +5.5507499767942381e+00 -5.2774400571557933e+01 -2.8884391497399129e+03 -3.4701356323595995e+04 +3.5469425516091146e+07 
+5.4999999999999993e-01 -5.4946945826301397e-01 +7.2021966642736039e+00 +5.5488069847556876e+00 -5.2297260595562271e+01 -2.9333845604712692e+03 -3.8163655131533458e+04 +3.5642179819571435e+07 
+5.9999999999999998e-01 -5.4947335134393516e-01 +7.2024424536921163e+00 +5.5464415634144588e+00 -5.1828566865429863e+01 -2.9792878564702169e+03 -4.1517982885438352e+04 +3.5821306353178255e+07 
+6.5000000000000002e-01 -5.4947762854610260e-01 +7.2027090788658654e+00 +5.5436581283669186e+00 -5.1368646309638223e+01 -3.0262373931788266e+03 -4.4761025451434558e+04 +3.6007383294536568e+07 
+7.0000000000000007e-01 -5.4948228910970609e-01 +7.2029964786004488e+00 +5.5404610982381932e+00 -5.0917825700114172e+01 -3.0743216134891309e+03 -4.7889469984008792e+04 +3.6200989430485599e+07 
+7.5000000000000011e-01 -5.4948733227495039e-01 +7.2033045917025778e+00 +5.5368548902281196e+00 -5.0476431824949920e+01 -3.1236289107255834e+03 -5.0900003507041096e+04 +3.6402703168898553e+07 
+8.0000000000000016e-01 -5.4949275728204128e-01 +7.2036333569812951e+00 +5.5328439194749599e+00 -5.0044791544934050e+01 -3.1742476315176191e+03 -5.3789312435968015e+04 +3.6613102633816727e+07 
+8.5000000000000020e-01 -5.4949856337122582e-01 +7.2039827132443319e+00 +5.5284326050325268e+00 -4.9623231631030173e+01 -3.2262662239445403e+03 -5.6554083952998481e+04 +3.6832766618556045e+07 
+9.0000000000000024e-01 -5.4950474978275321e-01 +7.2043525992995852e+00 +5.5236253637883239e+00 -4.9212078841011312e+01 -3.2797730820827433e+03 -5.9191005323386176e+04 +3.7062273562557764e+07 
+9.5000000000000029e-01 -5.4951131575689338e-01 +7.2047429539588990e+00 +5.5184266130077679e+00 -4.8811660056979889e+01 -3.3348566073591419e+03 -6.1696762830772132e+04 +3.7302201946113132e+07 
+1.0000000000000002e+00 -5.4951826053393460e-01 +7.2051537160308881e+00 +5.5128407697253392e+00 -4.8422302009464886e+01 -3.3916051895468418e+03 -6.4068043975612381e+04 +3.7553130144731678e+07 
+1.0500000000000003e+00 -5.4952558335418444e-01 +7.2055848243272438e+00 +5.5068722527708642e+00 -4.8044331524973146e+01 -3.4501072799364883e+03 -6.6301535480071267e+04 +3.7815636997796789e+07 
+1.1000000000000003e+00 -5.4953328345796437e-01 +7.2060362176570232e+00 +5.5005254792178313e+00 -4.7678075293672805e+01 -3.5104512703473351e+03 -6.8393925193485033e+04 +3.8090300895496711e+07 
+1.1500000000000004e+00 -5.4954136008560961e-01 +7.2065078348361506e+00 +5.4938048662637273e+00 -4.7323860250279402e+01 -3.5727255621909944e+03 -7.0341899005218584e+04 +3.8377700313853286e+07 
+1.2000000000000004e+00 -5.4954981247747048e-01 +7.2069996146732773e+00 +5.4867148310479328e+00 -4.6982013013257706e+01 -3.6370185553976708e+03 -7.2142145357749483e+04 +3.8678413715530835e+07 
+1.2500000000000004e+00 -5.4955863987393883e-01 +7.2075114959833106e+00 +5.4792597945857748e+00 -4.6652860436376997e+01 -3.7034187492581937e+03 -7.3791350745486881e+04 +3.8993020211852685e+07 
+1.3000000000000005e+00 -5.4956784151538318e-01 +7.2080434175787627e+00 +5.4714441714448601e+00 -4.6336729230160493e+01 -3.7720144761117062e+03 -7.5286202915345668e+04 +3.9322097812790178e+07 
+1.3500000000000005e+00 -5.4957741664222159e-01 +7.2085953182750560e+00 +5.4632723816915334e+00 -4.6033946210071477e+01 -3.8428942107783896e+03 -7.6623388708150509e+04 +3.9666225463407300e+07 
+1.4000000000000006e+00 -5.4958736449486945e-01 +7.2091671368854229e+00 +5.4547488426585069e+00 -4.5744838067405347e+01 -3.9161463601653659e+03 -7.7799596013399932e+04 +4.0025981670622364e+07 
+1.4500000000000006e+00 -5.4959768431378264e-01 +7.2097588122262630e+00 +5.4458779755000268e+00 -4.5469731599491695e+01 -3.9918594294965792e+03 -7.8811511840583116e+04 +4.0401945583268248e+07 
+1.5000000000000007e+00 -5.4960837533939710e-01 +7.2103702831113559e+00 +5.4366641954532895e+00 -4.5208953463358682e+01 -4.0701217663838820e+03 -7.9655824391717411e+04 +4.0794695290221848e+07 
+1.5500000000000007e+00 -5.4961943681218850e-01 +7.2110014883580122e+00 +5.4271119214483248e+00 -4.4962830441192722e+01 -4.1510218177009310e+03 -8.0329220804020617e+04 +4.1204809550215892e+07 
+1.6000000000000008e+00 -5.4963086797265304e-01 +7.2116523667827881e+00 +5.4172255741242203e+00 -4.4731689253624332e+01 -4.2346480784068535e+03 -8.0828388744223819e+04 +4.1632867445343383e+07 
+1.6500000000000008e+00 -5.4964266806128981e-01 +7.2123228572006628e+00 +5.4070095711941413e+00 -4.4515856522397115e+01 -4.3210889630849815e+03 -8.1150016732233344e+04 +4.2079447512295410e+07 
+1.7000000000000008e+00 -5.4965483631862333e-01 +7.2130128984328925e+00 +5.3964683322955072e+00 -4.4315659103557728e+01 -4.4104329357400793e+03 -8.1290791351882173e+04 +4.2545128603115626e+07 
+1.7500000000000009e+00 -5.4966737198518290e-01 +7.2137224292946369e+00 +5.3856062754851939e+00 -4.4131423585418311e+01 -4.5027684224717186e+03 -8.1247401355729453e+04 +4.3030489333308712e+07 
+1.8000000000000009e+00 -5.4968027430153110e-01 +7.2144513886047124e+00 +5.3744278218289558e+00 -4.3963476663528148e+01 -4.5981839288318060e+03 -8.1016534687948923e+04 +4.3536108842614077e+07 
+1.8500000000000010e+00 -5.4969354250823022e-01 +7.2151997151818996e+00 +5.3629373896191028e+00 -4.3812145022181653e+01 -4.6967678847217203e+03 -8.0594879324460024e+04 +4.4062565754548900e+07 
+1.9000000000000010e+00 -5.4970717584586437e-01 +7.2159673478463162e+00 +5.3511393982966489e+00 -4.3677755349961181e+01 -4.7986087495670909e+03 -7.9979123309930364e+04 +4.4610438881666481e+07 
+1.9500000000000011e+00 -5.4972117355503525e-01 +7.2167542254159676e+00 +5.3390382681683137e+00 -4.3560634246363222e+01 -4.9037950137944190e+03 -7.9165955336202911e+04 +4.5180307275482155e+07 
+2.0000000000000009e+00 -5.4973553487636095e-01 +7.2175602867128825e+00 +5.3266384193517284e+00 -4.3461108427226343e+01 -5.0124151529674928e+03 -7.8152063217708434e+04 +4.5772749840615645e+07 
+2.0500000000000007e+00 -5.4975025880158768e-01 +7.2183854569188997e+00 +5.3139427635283631e+00 -4.3379361875990654e+01 -5.1245099133249578e+03 -7.6935840482889776e+04 +4.6388056986693867e+07 
+2.1000000000000005e+00 -5.4976534332633575e-01 +7.2192296007739847e+00 +5.3009484392290203e+00 -4.3315029360342194e+01 -5.2399293508110522e+03 -7.5522488414174048e+04 +4.7025385742487259e+07 
+2.1500000000000004e+00 -5.4978078619708171e-01 +7.2200925664284537e+00 +5.2876512210972688e+00 -4.3267613730102219e+01 -5.3584759916213443e+03 -7.3918913819186942e+04 +4.7683615752459526e+07 
+2.2000000000000002e+00 -5.4979658516029550e-01 +7.2209742020328598e+00 +5.2740468806937315e+00 -4.3236617837067612e+01 -5.4799522846210248e+03 -7.2132023470812856e+04 +4.8361626165781051e+07 
+2.2500000000000000e+00 -5.4981273796246577e-01 +7.2218743557423339e+00 +5.2601311906443291e+00 -4.3221544692788633e+01 -5.6041607034682083e+03 -7.0168722899544708e+04 +4.9058296284319289e+07 
+2.2999999999999998e+00 -5.4982924235010067e-01 +7.2227928757076318e+00 +5.2458999247477403e+00 -4.3221897117850588e+01 -5.7309037543060658e+03 -6.8035919176331139e+04 +4.9772505633289635e+07 
+2.3499999999999996e+00 -5.4984609606970714e-01 +7.2237296100827688e+00 +5.2313488545518370e+00 -4.3237178044049671e+01 -5.8599838816143774e+03 -6.5740518503355168e+04 +5.0503133318749309e+07 
+2.3999999999999995e+00 -5.4986329686781388e-01 +7.2246844070227834e+00 +5.2164737530810470e+00 -4.3266890424446089e+01 -5.9912035689311542e+03 -6.3289426930306377e+04 +5.1249058711155422e+07 
+2.4499999999999993e+00 -5.4988084249094304e-01 +7.2256571146815123e+00 +5.2012703905522333e+00 -4.3310537150493623e+01 -6.1243652256208843e+03 -6.0689551015695106e+04 +5.2009160685679436e+07 
+2.4999999999999991e+00 -5.4989873068566142e-01 +7.2266475812163806e+00 +5.1857345425757231e+00 -4.3367621242989706e+01 -6.2592714017479784e+03 -5.7947796279764363e+04 +5.2782319051467627e+07 
+2.5499999999999989e+00 -5.4991695919852135e-01 +7.2276556547818958e+00 +5.1698619805303414e+00 -4.3437645582420757e+01 -6.3957245377555464e+03 -5.5071069431142198e+04 +5.3567412898851588e+07 
+2.5999999999999988e+00 -5.4993552577609273e-01 +7.2286811835377662e+00 +5.1536484767487396e+00 -4.3520113250273816e+01 -6.5335270964105375e+03 -5.2066275528010556e+04 +5.4363321456786521e+07 
+2.6499999999999986e+00 -5.4995442816495554e-01 +7.2297240156378191e+00 +5.1370898037019703e+00 -4.3614527066538571e+01 -6.6724815462978786e+03 -4.8940321820526020e+04 +5.5168924003244713e+07 
+2.6999999999999984e+00 -5.4997366411169057e-01 +7.2307839992440321e+00 +5.1201817314365305e+00 -4.3720390174429014e+01 -6.8123902841679119e+03 -4.5700112907717121e+04 +5.5983099311265983e+07 
+2.7499999999999982e+00 -5.4999323136291367e-01 +7.2318609825139584e+00 +5.1029200352613611e+00 -4.3837205518266870e+01 -6.9530558565570409e+03 -4.2352555058949984e+04 +5.6804727195606552e+07 
+2.7999999999999980e+00 -5.5001312766523391e-01 +7.2329548136086919e+00 +5.0853004867510183e+00 -4.3964476176710825e+01 -7.0942807028262923e+03 -3.8904553440398406e+04 +5.7632686728537753e+07 
+2.8499999999999979e+00 -5.5003335076526583e-01 +7.2340653406859934e+00 +5.0673188567446816e+00 -4.4101705075002030e+01 -7.2358672417744365e+03 -3.5363014524435872e+04 +5.8465856842230938e+07 
+2.8999999999999977e+00 -5.5005389840964558e-01 +7.2351924119111120e+00 +5.0489709184744216e+00 -4.4248395428343038e+01 -7.3776179601183130e+03 -3.1734842434496160e+04 +5.9303116943638638e+07 
+2.9499999999999975e+00 -5.5007476834500757e-01 +7.2363358754420961e+00 +5.0302524426681696e+00 -4.4404050145937894e+01 -7.5193352713219583e+03 -2.8026943826540170e+04 +6.0143345927990660e+07 
+2.9999999999999973e+00 -5.5009595831799984e-01 +7.2374955794450679e+00 +5.0111592013432080e+00 -4.4568172460208309e+01 -7.6608216301039201e+03 -2.4246222702922263e+04 +6.0985422998110324e+07 
+3.0499999999999972e+00 -5.5011746607528289e-01 +7.2386713720825124e+00 +4.9916869663172641e+00 -4.4740265436045462e+01 -7.8018794749496383e+03 -2.0399584499513985e+04 +6.1828227207626566e+07 
+3.0999999999999970e+00 -5.5013928936352463e-01 +7.2398631015180568e+00 +4.9718315096970098e+00 -4.4919832176750575e+01 -7.9423112603756072e+03 -1.6493934348820228e+04 +6.2670637757023498e+07 
+3.1499999999999968e+00 -5.5016142592939921e-01 +7.2410706159170397e+00 +4.9515886029345690e+00 -4.5106375844260484e+01 -8.0819194190447542e+03 -1.2536176923742121e+04 +6.3511533685022809e+07 
+3.1999999999999966e+00 -5.5018387351958353e-01 +7.2422937634456090e+00 +4.9309540161847005e+00 -4.5299399618824729e+01 -8.2205063470409041e+03 -8.5332168021875077e+03 +6.4349793784255460e+07 
+3.2499999999999964e+00 -5.5020662988077051e-01 +7.2435323922705193e+00 +4.9099235211772525e+00 -4.5498406698884871e+01 -8.3578744832269822e+03 -4.4919584174047104e+03 +6.5184297140099317e+07 
+3.2999999999999963e+00 -5.5022969275966360e-01 +7.2447863505586216e+00 +4.8884928900261766e+00 -4.5702900275911482e+01 -8.4938262774025625e+03 -4.1930630148075386e+02 +6.6013922920470946e+07 
+3.3499999999999961e+00 -5.5025305990296058e-01 +7.2460554864779656e+00 +4.8666578921936523e+00 -4.5912383585819860e+01 -8.6281641047307166e+03 +3.6778353772262149e+03 +6.6837549782128453e+07 
+3.3999999999999959e+00 -5.5027672905737901e-01 +7.2473396481982446e+00 +4.8444142993453401e+00 -4.6126359912201231e+01 -8.7606903989620296e+03 +7.7925627565295617e+03 +6.7654056778675020e+07 
+3.4499999999999957e+00 -5.5030069796963921e-01 +7.2486386838889159e+00 +4.8217578821605960e+00 -4.6344332529510730e+01 -8.8912075675850519e+03 +1.1917971918469719e+04 +6.8462322794792354e+07 
+3.4999999999999956e+00 -5.5032496438646905e-01 +7.2499524417198096e+00 +4.7986844112761817e+00 -4.6565804710369655e+01 -9.0195180156339484e+03 +1.6047158851565679e+04 +6.9261226699711606e+07 
+3.5499999999999954e+00 -5.5034952605459442e-01 +7.2512807698625981e+00 +4.7751896557771536e+00 -4.6790279809148160e+01 -9.1454241054071244e+03 +2.0173220243327032e+04 +7.0049647075362459e+07 
+3.5999999999999952e+00 -5.5037438072075784e-01 +7.2526235164898631e+00 +4.7512693863738455e+00 -4.7017261199590088e+01 -9.2687282426001329e+03 +2.4289252863411733e+04 +7.0826462802275136e+07 
+3.6499999999999950e+00 -5.5039952613171494e-01 +7.2539805297743767e+00 +4.7269193748246607e+00 -4.7246252257528077e+01 -9.3892328583715407e+03 +2.8388353469868351e+04 +7.1590552927004144e+07 
+3.6999999999999948e+00 -5.5042496003420383e-01 +7.2553516578898281e+00 +4.7021353884390278e+00 -4.7476756386185890e+01 -9.5067402643191235e+03 +3.2463618995523040e+04 +7.2340795698713526e+07 
+3.7499999999999947e+00 -5.5045068017498389e-01 +7.2567367490097299e+00 +4.6769131974735538e+00 -4.7708276991745613e+01 -9.6210528522468194e+03 +3.6508146427382257e+04 +7.3076069916970670e+07 
+3.7999999999999945e+00 -5.5047668430082841e-01 +7.2581356513116759e+00 +4.6512485729790640e+00 -4.7940317623066974e+01 -9.7319730305610665e+03 +4.0515033814998147e+04 +7.3795254483385056e+07 
+3.8499999999999943e+00 -5.5050297015849703e-01 +7.2595482129707722e+00 +4.6251372828346904e+00 -4.8172381733057044e+01 -9.8393031221985002e+03 +4.4477378418862056e+04 +7.4497227726453245e+07 
+3.8999999999999941e+00 -5.5052953549475514e-01 +7.2609742821638559e+00 +4.5985750948881563e+00 -4.8403972835344831e+01 -9.9428454518557028e+03 +4.8388277948283067e+04 +7.5180868007816434e+07 
+3.9499999999999940e+00 -5.5055637805638713e-01 +7.2624137070694870e+00 +4.5715577790085202e+00 -4.8634594518322231e+01 -1.0042402391588221e+04 +5.2240830718508834e+04 +7.5845053986724928e+07 
+3.9999999999999938e+00 -5.5058349559018194e-01 +7.2638663358669735e+00 +4.5440811051721219e+00 -4.8863750385652345e+01 -1.0137776321037443e+04 +5.6028135119532715e+04 +7.6488664404645517e+07 
+4.0499999999999936e+00 -5.5061088574932271e-01 +7.2653320037902969e+00 +4.5161417828076713e+00 -4.9090890972607404e+01 -1.0228778829715051e+04 +5.9743780722970674e+04 +7.7110606399945140e+07 
+4.0999999999999934e+00 -5.5063854581302818e-01 +7.2668104892180265e+00 +4.4877410960964115e+00 -4.9315298744327244e+01 -1.0315263680736638e+04 +6.3383606535445135e+04 +7.7709892682542831e+07 
+4.1499999999999932e+00 -5.5066647296716698e-01 +7.2683015550396677e+00 +4.4588816966929006e+00 -4.9536227770348553e+01 -1.0397096423483059e+04 +6.6944103249026040e+04 +7.8285559717254385e+07 
+4.1999999999999931e+00 -5.5069466439760106e-01 +7.2698049641501585e+00 +4.4295662351683109e+00 -4.9752932363730899e+01 -1.0474142580290236e+04 +7.0421763513702186e+04 +7.8836643800629333e+07 
+4.2499999999999929e+00 -5.5072311729017132e-01 +7.2713204794398569e+00 +4.3997973582384713e+00 -4.9964666685797937e+01 -1.0546267568223262e+04 +7.3813078828855520e+04 +7.9362180510540932e+07 
+4.2999999999999927e+00 -5.5075182883075813e-01 +7.2728478638039249e+00 +4.3695777194518231e+00 -5.0170685083892536e+01 -1.0613336993542171e+04 +7.7114542150370835e+04 +7.9861206723744810e+07 
+4.3499999999999925e+00 -5.5078079620520237e-01 +7.2743868801363636e+00 +4.3389099653437144e+00 -5.0370241891006536e+01 -1.0675216270669827e+04 +8.0322646404486382e+04 +8.0332758005342305e+07 
+4.3999999999999924e+00 -5.5081001659936135e-01 +7.2759372913278346e+00 +4.3077967456200179e+00 -5.0562591304866466e+01 -1.0731770904981437e+04 +8.3433883372459211e+04 +8.0775870556529284e+07 
+4.4499999999999922e+00 -5.5083948719908427e-01 +7.2774988602750552e+00 +4.2762407082480065e+00 -5.0746987805805176e+01 -1.0782866352881932e+04 +8.6444747243751612e+04 +8.1189580236698717e+07 
+4.4999999999999920e+00 -5.5086920519023175e-01 +7.2790713498713204e+00 +4.2442445038221033e+00 -5.0922685740867479e+01 -1.0828368147978414e+04 +8.9351731096755087e+04 +8.1572923451015562e+07 
+4.5499999999999918e+00 -5.5089916775864978e-01 +7.2806545230110595e+00 +4.2118107802582436e+00 -5.1088939519681901e+01 -1.0868141748770217e+04 +9.2151328540610062e+04 +8.1924936081492484e+07 
+4.5999999999999917e+00 -5.5092937209017301e-01 +7.2822481425884957e+00 +4.1789421840765035e+00 -5.1245003577948765e+01 -1.0902052581816835e+04 +9.4840033478026162e+04 +8.2244653815990627e+07 
+4.6499999999999915e+00 -5.5095981537066308e-01 +7.2838519714992218e+00 +4.1456413661984675e+00 -5.1390132418060539e+01 -1.0929966187415954e+04 +9.7414340347380785e+04 +8.2531113088745341e+07 
+4.6999999999999913e+00 -5.5099049478593642e-01 +7.2854657726362522e+00 +4.1119109706748533e+00 -5.1523580457501225e+01 -1.0951747931598497e+04 +9.9870742916655989e+04 +8.2783349198657081e+07 
+4.7499999999999911e+00 -5.5102140752184392e-01 +7.2870893088971522e+00 +4.0777536477505736e+00 -5.1644602334766851e+01 -1.0967263344111643e+04 +1.0220573684825185e+05 +8.3000398533659086e+07 
+4.7999999999999909e+00 -5.5105255076421089e-01 +7.2887223431765209e+00 +4.0431720435807907e+00 -5.1752452570299354e+01 -1.0976377845785819e+04 +1.0441581678397907e+05 +8.3181296749407947e+07 
+4.8499999999999908e+00 -5.5108392169887266e-01 +7.2903646383675680e+00 +4.0081688068669958e+00 -5.1846385676161994e+01 -1.0978956930276016e+04 +1.0649747742202423e+05 +8.3325080005751386e+07 
+4.8999999999999906e+00 -5.5111551751163912e-01 +7.2920159573682843e+00 +3.9727465822573165e+00 -5.1925656367513263e+01 -1.0974865983985525e+04 +1.0844721509692571e+05 +8.3430783744354859e+07 
+4.9499999999999904e+00 -5.5114733538833816e-01 +7.2936760630732840e+00 +3.9369080181566098e+00 -5.1989519260329033e+01 -1.0963970494838552e+04 +1.1026152541172803e+05 +8.3497444091373578e+07 
+4.9999999999999902e+00 -5.5117937251477467e-01 +7.2953447183782192e+00 +3.9006557598779237e+00 -5.2037229032197295e+01 -1.0946135872332010e+04 +1.1193690447581050e+05 +8.3524096658294812e+07 
+5.0499999999999901e+00 -5.5121162607675522e-01 +7.2970216861794048e+00 +3.8639924533759284e+00 -5.2068040417148609e+01 -1.0921227543426021e+04 +1.1346984891281226e+05 +8.3509777175221145e+07 
