# field on trajectory
# s[mm] rx[mm] ry[mm] rz[mm] bx[T] by[T] bz[T]
0.0000000000000000e+00 +8.5389999999999997e+00 +0.0000000000000000e+00 +0.0000000000000000e+00 -2.9035704539168164e-02 -5.5246117252209193e-01 +5.6634022458918274e-03
5.0000000000000003e-02 +8.5389999307623334e+00 +0.0000000000000000e+00 +4.9999999999936082e-02 -2.9035598215538784e-02 -5.5246191896988039e-01 +5.6633750033118864e-03
1.0000000000000001e-01 +8.5389997230491979e+00 +0.0000000000000000e+00 +9.9999999999488651e-02 -2.9035507740659761e-02 -5.5246299835470103e-01 +5.6633488996956898e-03
1.5000000000000002e-01 +8.5389993768603230e+00 +0.0000000000000000e+00 +1.4999999999827421e-01 -2.9035433107382939e-02 -5.5246440975987210e-01 +5.6633239214060752e-03
2.0000000000000001e-01 +8.5389988921953535e+00 +0.0000000000000000e+00 +1.9999999999590923e-01 -2.9035374308561509e-02 -5.5246615226872786e-01 +5.6633000548060048e-03
2.5000000000000000e-01 +8.5389982690538542e+00 +0.0000000000000000e+00 +2.4999999999201020e-01 -2.9035331337050007e-02 -5.5246822496461778e-01 +5.6632772862585711e-03
2.9999999999999999e-01 +8.5389975074353046e+00 +0.0000000000000000e+00 +2.9999999998619359e-01 -2.9035304185704259e-02 -5.5247062693090676e-01 +5.6632556021269827e-03
3.4999999999999998e-01 +8.5389966073391026e+00 +0.0000000000000000e+00 +3.4999999997807585e-01 -2.9035292847381444e-02 -5.5247335725097457e-01 +5.6632349887745749e-03
3.9999999999999997e-01 +8.5389955687645642e+00 +0.0000000000000000e+00 +3.9999999996727348e-01 -2.9035297314940037e-02 -5.5247641500821654e-01 +5.6632154325648104e-03
4.4999999999999996e-01 +8.5389943917109239e+00 +0.0000000000000000e+00 +4.4999999995340295e-01 -2.9035317581239797e-02 -5.5247979928604207e-01 +5.6631969198612650e-03
4.9999999999999994e-01 +8.5389930761773325e+00 +0.0000000000000000e+00 +4.9999999993608069e-01 -2.9035353639141805e-02 -5.5248350916787614e-01 +5.6631794370276432e-03
5.4999999999999993e-01 +8.5389916221628592e+00 +0.0000000000000000e+00 +5.4999999991492310e-01 -2.9035405481508396e-02 -5.5248754373715747e-01 +5.6631629704277688e-03
5.9999999999999998e-01 +8.5389900296664951e+00 +0.0000000000000000e+00 +5.9999999988954666e-01 -2.9035473101203201e-02 -5.5249190207734000e-01 +5.6631475064255789e-03
6.5000000000000002e-01 +8.5389882986871459e+00 +0.0000000000000000e+00 +6.4999999985956780e-01 -2.9035556491091099e-02 -5.5249658327189222e-01 +5.6631330313851426e-03
7.0000000000000007e-01 +8.5389864292236393e+00 +0.0000000000000000e+00 +6.9999999982460293e-01 -2.9035655644038243e-02 -5.5250158640429625e-01 +5.6631195316706393e-03
7.5000000000000011e-01 +8.5389844212747210e+00 +0.0000000000000000e+00 +7.4999999978426835e-01 -2.9035770552912010e-02 -5.5250691055804835e-01 +5.6631069936463659e-03
8.0000000000000016e-01 +8.5389822748390554e+00 +0.0000000000000000e+00 +7.9999999973818048e-01 -2.9035901210581038e-02 -5.5251255481665895e-01 +5.6630954036767473e-03
8.5000000000000020e-01 +8.5389799899152301e+00 +0.0000000000000000e+00 +8.4999999968595574e-01 -2.9036047609915201e-02 -5.5251851826365284e-01 +5.6630847481263140e-03
9.0000000000000024e-01 +8.5389775665017478e+00 +0.0000000000000000e+00 +8.9999999962721045e-01 -2.9036209743785592e-02 -5.5252479998256765e-01 +5.6630750133597222e-03
9.5000000000000029e-01 +8.5389750045970363e+00 +0.0000000000000000e+00 +9.4999999956156089e-01 -2.9036387605064499e-02 -5.5253139905695559e-01 +5.6630661857417358e-03
1.0000000000000002e+00 +8.5389723041994401e+00 +0.0000000000000000e+00 +9.9999999948862339e-01 -2.9036581186625433e-02 -5.5253831457038127e-01 +5.6630582516372409e-03
1.0500000000000003e+00 +8.5389694653072254e+00 +0.0000000000000000e+00 +1.0499999994080143e+00 -2.9036790481343114e-02 -5.5254554560642366e-01 +5.6630511974112381e-03
1.1000000000000003e+00 +8.5389664879185823e+00 +0.0000000000000000e+00 +1.0999999993193499e+00 -2.9037015482093437e-02 -5.5255309124867447e-01 +5.6630450094288399e-03
1.1500000000000004e+00 +8.5389633720316169e+00 +0.0000000000000000e+00 +1.1499999992222465e+00 -2.9037256181753488e-02 -5.5256095058073851e-01 +5.6630396740552716e-03
1.2000000000000004e+00 +8.5389601176443612e+00 +0.0000000000000000e+00 +1.1999999991163202e+00 -2.9037512573201522e-02 -5.5256912268623370e-01 +5.6630351776558773e-03
1.2500000000000004e+00 +8.5389567247547653e+00 +0.0000000000000000e+00 +1.2499999990011872e+00 -2.9037784649316944e-02 -5.5257760664879074e-01 +5.6630315065961069e-03
1.3000000000000005e+00 +8.5389531933607028e+00 +0.0000000000000000e+00 +1.2999999988764637e+00 -2.9038072402980331e-02 -5.5258640155205307e-01 +5.6630286472415256e-03
1.3500000000000005e+00 +8.5389495234599710e+00 +0.0000000000000000e+00 +1.3499999987417659e+00 -2.9038375827073408e-02 -5.5259550647967681e-01 +5.6630265859578099e-03
1.4000000000000006e+00 +8.5389457150502857e+00 +0.0000000000000000e+00 +1.3999999985967100e+00 -2.9038694914479052e-02 -5.5260492051533061e-01 +5.6630253091107486e-03
1.4500000000000006e+00 +8.5389417681292894e+00 +0.0000000000000000e+00 +1.4499999984409122e+00 -2.9039029658081240e-02 -5.5261464274269489e-01 +5.6630248030662385e-03
1.5000000000000007e+00 +8.5389376826945433e+00 +0.0000000000000000e+00 +1.4999999982739884e+00 -2.9039380050765066e-02 -5.5262467224546330e-01 +5.6630250541902854e-03
1.5500000000000007e+00 +8.5389334587435339e+00 +0.0000000000000000e+00 +1.5499999980955548e+00 -2.9039746085416807e-02 -5.5263500810734068e-01 +5.6630260488490063e-03
1.6000000000000008e+00 +8.5389290962736712e+00 +0.0000000000000000e+00 +1.5999999979052273e+00 -2.9040127754923758e-02 -5.5264564941204442e-01 +5.6630277734086246e-03
1.6500000000000008e+00 +8.5389245952822890e+00 +0.0000000000000000e+00 +1.6499999977026221e+00 -2.9040525052174363e-02 -5.5265659524330302e-01 +5.6630302142354769e-03
1.7000000000000008e+00 +8.5389199557666409e+00 +0.0000000000000000e+00 +1.6999999974873550e+00 -2.9040937970058155e-02 -5.5266784468485763e-01 +5.6630333576959974e-03
1.7500000000000009e+00 +8.5389151777239096e+00 +0.0000000000000000e+00 +1.7499999972590421e+00 -2.9041366501465701e-02 -5.5267939682046041e-01 +5.6630371901567368e-03
1.8000000000000009e+00 +8.5389102611511998e+00 +0.0000000000000000e+00 +1.7999999970172993e+00 -2.9041810639288720e-02 -5.5269125073387526e-01 +5.6630416979843471e-03
1.8500000000000010e+00 +8.5389052060455395e+00 +0.0000000000000000e+00 +1.8499999967617424e+00 -2.9042270376419928e-02 -5.5270340550887698e-01 +5.6630468675455872e-03
1.9000000000000010e+00 +8.5389000124038805e+00 +0.0000000000000000e+00 +1.8999999964919874e+00 -2.9042745705753104e-02 -5.5271586022925201e-01 +5.6630526852073154e-03
1.9500000000000011e+00 +8.5388946802231036e+00 +0.0000000000000000e+00 +1.9499999962076497e+00 -2.9043236620183103e-02 -5.5272861397879758e-01 +5.6630591373365057e-03
2.0000000000000009e+00 +8.5388892095000113e+00 +0.0000000000000000e+00 +1.9999999959083457e+00 -2.9043743112605790e-02 -5.5274166584132223e-01 +5.6630662103002221e-03
2.0500000000000007e+00 +8.5388836002313315e+00 +0.0000000000000000e+00 +2.0499999955936907e+00 -2.9044265167891010e-02 -5.5275501472743938e-01 +5.6630738936273356e-03
2.1000000000000005e+00 +8.5388778524137194e+00 +0.0000000000000000e+00 +2.0999999952633006e+00 -2.9044802738801029e-02 -5.5276865885495063e-01 +5.6630821894935604e-03
2.1500000000000004e+00 +8.5388719660437555e+00 +0.0000000000000000e+00 +2.1499999949167909e+00 -2.9045355770071526e-02 -5.5278259626846327e-01 +5.6630911032363521e-03
2.2000000000000002e+00 +8.5388659411179457e+00 +0.0000000000000000e+00 +2.1999999945537776e+00 -2.9045924206438586e-02 -5.5279682501259331e-01 +5.6631006401932143e-03
2.2500000000000000e+00 +8.5388597776327231e+00 +0.0000000000000000e+00 +2.2499999941738760e+00 -2.9046507992638675e-02 -5.5281134313196845e-01 +5.6631108057017005e-03
2.2999999999999998e+00 +8.5388534755844496e+00 +0.0000000000000000e+00 +2.2999999937767019e+00 -2.9047107073408560e-02 -5.5282614867122637e-01 +5.6631216050994021e-03
2.3499999999999996e+00 +8.5388470349694128e+00 +0.0000000000000000e+00 +2.3499999933618709e+00 -2.9047721393485271e-02 -5.5284123967501420e-01 +5.6631330437239419e-03
2.3999999999999995e+00 +8.5388404557838324e+00 +0.0000000000000000e+00 +2.3999999929289979e+00 -2.9048350897606115e-02 -5.5285661418798893e-01 +5.6631451269129789e-03
2.4499999999999993e+00 +8.5388337380238539e+00 +0.0000000000000000e+00 +2.4499999924776987e+00 -2.9048995530508537e-02 -5.5287227025481744e-01 +5.6631578600041992e-03
2.4999999999999991e+00 +8.5388268816855533e+00 +0.0000000000000000e+00 +2.4999999920075888e+00 -2.9049655236930209e-02 -5.5288820592017685e-01 +5.6631712483353148e-03
2.5499999999999989e+00 +8.5388198867649354e+00 +0.0000000000000000e+00 +2.5499999915182836e+00 -2.9050329961608841e-02 -5.5290441922875266e-01 +5.6631852972440638e-03
2.5999999999999988e+00 +8.5388127532579379e+00 +0.0000000000000000e+00 +2.5999999910093985e+00 -2.9051019649282243e-02 -5.5292090822524009e-01 +5.6632000120681895e-03
2.6499999999999986e+00 +8.5388054811604270e+00 +0.0000000000000000e+00 +2.6499999904805485e+00 -2.9051724244688264e-02 -5.5293767095434410e-01 +5.6632153981454663e-03
2.6999999999999984e+00 +8.5387980704682001e+00 +0.0000000000000000e+00 +2.6999999899313489e+00 -2.9052443692564725e-02 -5.5295470546077752e-01 +5.6632314608136688e-03
2.7499999999999982e+00 +8.5387905211769901e+00 +0.0000000000000000e+00 +2.7499999893614149e+00 -2.9053177937649385e-02 -5.5297200978926364e-01 +5.6632482054105801e-03
2.7999999999999980e+00 +8.5387828332824576e+00 +0.0000000000000000e+00 +2.7999999887703617e+00 -2.9053926924679889e-02 -5.5298958198453341e-01 +5.6632656372739825e-03
2.8499999999999979e+00 +8.5387750067801989e+00 +0.0000000000000000e+00 +2.8499999881578044e+00 -2.9054690598393794e-02 -5.5300742009132708e-01 +5.6632837617416731e-03
2.8999999999999977e+00 +8.5387670416657429e+00 +0.0000000000000000e+00 +2.8999999875233580e+00 -2.9055468903528420e-02 -5.5302552215439227e-01 +5.6633025841514263e-03
2.9499999999999975e+00 +8.5387589379345528e+00 +0.0000000000000000e+00 +2.9499999868666373e+00 -2.9056261784820889e-02 -5.5304388621848655e-01 +5.6633221098410244e-03
2.9999999999999973e+00 +8.5387506955820260e+00 +0.0000000000000000e+00 +2.9999999861872575e+00 -2.9057069187008053e-02 -5.5306251032837517e-01 +5.6633423441482299e-03
3.0499999999999972e+00 +8.5387423146034944e+00 +0.0000000000000000e+00 +3.0499999854848334e+00 -2.9057891054826430e-02 -5.5308139252883126e-01 +5.6633632924107920e-03
3.0999999999999970e+00 +8.5387337949942239e+00 +0.0000000000000000e+00 +3.0999999847589801e+00 -2.9058727333012242e-02 -5.5310053086463640e-01 +5.6633849599664471e-03
3.1499999999999968e+00 +8.5387251367494201e+00 +0.0000000000000000e+00 +3.1499999840093120e+00 -2.9059577966301275e-02 -5.5311992338057925e-01 +5.6634073521528994e-03
3.1999999999999966e+00 +8.5387163398642194e+00 +0.0000000000000000e+00 +3.1999999832354442e+00 -2.9060442899428888e-02 -5.5313956812145693e-01 +5.6634304743078349e-03
3.2499999999999964e+00 +8.5387074043336995e+00 +0.0000000000000000e+00 +3.2499999824369912e+00 -2.9061322077129959e-02 -5.5315946313207431e-01 +5.6634543317689075e-03
3.2999999999999963e+00 +8.5386983301528740e+00 +0.0000000000000000e+00 +3.2999999816135674e+00 -2.9062215444138867e-02 -5.5317960645724307e-01 +5.6634789298737470e-03
3.3499999999999961e+00 +8.5386891173166930e+00 +0.0000000000000000e+00 +3.3499999807647880e+00 -2.9063122945189434e-02 -5.5319999614178317e-01 +5.6635042739599335e-03
3.3999999999999959e+00 +8.5386797658200475e+00 +0.0000000000000000e+00 +3.3999999798902669e+00 -2.9064044525014827e-02 -5.5322063023052048e-01 +5.6635303693650134e-03
3.4499999999999957e+00 +8.5386702756577648e+00 +0.0000000000000000e+00 +3.4499999789896192e+00 -2.9064980128347639e-02 -5.5324150676828909e-01 +5.6635572214264896e-03
3.4999999999999956e+00 +8.5386606468246118e+00 +0.0000000000000000e+00 +3.4999999780624589e+00 -2.9065929699919738e-02 -5.5326262379992930e-01 +5.6635848354818132e-03
3.5499999999999954e+00 +8.5386508793152949e+00 +0.0000000000000000e+00 +3.5499999771084005e+00 -2.9066893184462293e-02 -5.5328397937028906e-01 +5.6636132168684013e-03
3.5999999999999952e+00 +8.5386409731244637e+00 +0.0000000000000000e+00 +3.5999999761270582e+00 -2.9067870526705640e-02 -5.5330557152422222e-01 +5.6636423709235904e-03
3.6499999999999950e+00 +8.5386309282467039e+00 +0.0000000000000000e+00 +3.6499999751180465e+00 -2.9068861671379356e-02 -5.5332739830658983e-01 +5.6636723029846719e-03
3.6999999999999948e+00 +8.5386207446765461e+00 +0.0000000000000000e+00 +3.6999999740809795e+00 -2.9069866563212178e-02 -5.5334945776225852e-01 +5.6637030183888815e-03
3.7499999999999947e+00 +8.5386104224084605e+00 +0.0000000000000000e+00 +3.7499999730154712e+00 -2.9070885146931884e-02 -5.5337174793610211e-01 +5.6637345224733824e-03
3.7999999999999945e+00 +8.5385999614368604e+00 +0.0000000000000000e+00 +3.7999999719211357e+00 -2.9071917367265394e-02 -5.5339426687300008e-01 +5.6637668205752664e-03
3.8499999999999943e+00 +8.5385893617561024e+00 +0.0000000000000000e+00 +3.8499999707975872e+00 -2.9072963168938568e-02 -5.5341701261783816e-01 +5.6637999180315602e-03
3.8999999999999941e+00 +8.5385786233604843e+00 +0.0000000000000000e+00 +3.8999999696444396e+00 -2.9074022496676306e-02 -5.5343998321550769e-01 +5.6638338201792041e-03
3.9499999999999940e+00 +8.5385677462442491e+00 +0.0000000000000000e+00 +3.9499999684613072e+00 -2.9075095295202417e-02 -5.5346317671090617e-01 +5.6638685323550713e-03
3.9999999999999938e+00 +8.5385567304015826e+00 +0.0000000000000000e+00 +3.9999999672478030e+00 -2.9076181509239598e-02 -5.5348659114893639e-01 +5.6639040598959372e-03
4.0499999999999936e+00 +8.5385455758266176e+00 +0.0000000000000000e+00 +4.0499999660035417e+00 -2.9077281070469120e-02 -5.5351022450972720e-01 +5.6639404040221188e-03
4.0999999999999934e+00 +8.5385342825134298e+00 +0.0000000000000000e+00 +4.0999999647281360e+00 -2.9078393858410372e-02 -5.5353407451429171e-01 +5.6639775494883348e-03
4.1499999999999932e+00 +8.5385228504560402e+00 +0.0000000000000000e+00 +4.1499999634212008e+00 -2.9079519739542720e-02 -5.5355813881886506e-01 +5.6640154769329407e-03
4.1999999999999931e+00 +8.5385112796484179e+00 +0.0000000000000000e+00 +4.1999999620823489e+00 -2.9080658580346003e-02 -5.5358241507968298e-01 +5.6640541669943567e-03
4.2499999999999929e+00 +8.5384995700844790e+00 +0.0000000000000000e+00 +4.2499999607111940e+00 -2.9081810247300562e-02 -5.5360690095298104e-01 +5.6640936003110468e-03
4.2999999999999927e+00 +8.5384877217580843e+00 +0.0000000000000000e+00 +4.2999999593073497e+00 -2.9082974606887194e-02 -5.5363159409499663e-01 +5.6641337575215403e-03
4.3499999999999925e+00 +8.5384757346630469e+00 +0.0000000000000000e+00 +4.3499999578704287e+00 -2.9084151525587243e-02 -5.5365649216196644e-01 +5.6641746192644159e-03
4.3999999999999924e+00 +8.5384636087931245e+00 +0.0000000000000000e+00 +4.3999999564000456e+00 -2.9085340869882532e-02 -5.5368159281012685e-01 +5.6642161661783173e-03
4.4499999999999922e+00 +8.5384513441420271e+00 +0.0000000000000000e+00 +4.4499999548958131e+00 -2.9086542506255416e-02 -5.5370689369571402e-01 +5.6642583789019369e-03
4.4999999999999920e+00 +8.5384389407034114e+00 +0.0000000000000000e+00 +4.4999999533573440e+00 -2.9087756301188789e-02 -5.5373239247496420e-01 +5.6643012380740371e-03
4.5499999999999918e+00 +8.5384263984708877e+00 +0.0000000000000000e+00 +4.5499999517842520e+00 -2.9088982121166066e-02 -5.5375808680411076e-01 +5.6643447243334318e-03
4.5999999999999917e+00 +8.5384137174380150e+00 +0.0000000000000000e+00 +4.5999999501761497e+00 -2.9090219832671238e-02 -5.5378397433938809e-01 +5.6643888183190013e-03
4.6499999999999915e+00 +8.5384008975983043e+00 +0.0000000000000000e+00 +4.6499999485326509e+00 -2.9091469302188807e-02 -5.5381005273702799e-01 +5.6644335006696810e-03
4.6999999999999913e+00 +8.5383879389452204e+00 +0.0000000000000000e+00 +4.6999999468533682e+00 -2.9092730396203921e-02 -5.5383631965326074e-01 +5.6644787520244780e-03
4.7499999999999911e+00 +8.5383748414721801e+00 +0.0000000000000000e+00 +4.7499999451379145e+00 -2.9094002981202221e-02 -5.5386277274431450e-01 +5.6645245530224575e-03
4.7999999999999909e+00 +8.5383616051725504e+00 +0.0000000000000000e+00 +4.7999999433859024e+00 -2.9095286923670010e-02 -5.5388940966641542e-01 +5.6645708843027455e-03
4.8499999999999908e+00 +8.5383482300396576e+00 +0.0000000000000000e+00 +4.8499999415969448e+00 -2.9096582090094119e-02 -5.5391622807578733e-01 +5.6646177265045400e-03
4.8999999999999906e+00 +8.5383347160667782e+00 +0.0000000000000000e+00 +4.8999999397706544e+00 -2.9097888346962034e-02 -5.5394322562865117e-01 +5.6646650602670988e-03
4.9499999999999904e+00 +8.5383210632471460e+00 +0.0000000000000000e+00 +4.9499999379066431e+00 -2.9099205560761836e-02 -5.5397039998122433e-01 +5.6647128662297552e-03
4.9999999999999902e+00 +8.5383072715739488e+00 +0.0000000000000000e+00 +4.9999999360045244e+00 -2.9100533597982255e-02 -5.5399774878972219e-01 +5.6647611250318954e-03
5.0499999999999901e+00 +8.5382933410403332e+00 +0.0000000000000000e+00 +5.0499999340639103e+00 -2.9101872325112608e-02 -5.5402526971035571e-01 +5.6648098173129888e-03
5.0999999999999899e+00 +8.5382792716394000e+00 +0.0000000000000000e+00 +5.0999999320844136e+00 -2.9103221608642888e-02 -5.5405296039933238e-01 +5.6648589237125674e-03
5.1499999999999897e+00 +8.5382650633642108e+00 +0.0000000000000000e+00 +5.1499999300656469e+00 -2.9104581315063764e-02 -5.5408081851285562e-01 +5.6649084248702325e-03
5.1999999999999895e+00 +8.5382507162077808e+00 +0.0000000000000000e+00 +5.1999999280072222e+00 -2.9105951310866494e-02 -5.5410884170712416e-01 +5.6649583014256547e-03
5.2499999999999893e+00 +8.5382362301630863e+00 +0.0000000000000000e+00 +5.2499999259087513e+00 -2.9107331462543073e-02 -5.5413702763833328e-01 +5.6650085340185828e-03
5.2999999999999892e+00 +8.5382216052230628e+00 +0.0000000000000000e+00 +5.2999999237698461e+00 -2.9108721636586170e-02 -5.5416537396267229e-01 +5.6650591032888307e-03
5.3499999999999890e+00 +8.5382068413806067e+00 +0.0000000000000000e+00 +5.3499999215901193e+00 -2.9110121699489115e-02 -5.5419387833632616e-01 +5.6651099898762936e-03
5.3999999999999888e+00 +8.5381919386285716e+00 +0.0000000000000000e+00 +5.3999999193691828e+00 -2.9111531517745950e-02 -5.5422253841547431e-01 +5.6651611744209318e-03
5.4499999999999886e+00 +8.5381768969597758e+00 +0.0000000000000000e+00 +5.4499999171066484e+00 -2.9112950957851453e-02 -5.5425135185629071e-01 +5.6652126375627866e-03
5.4999999999999885e+00 +8.5381617163669965e+00 +0.0000000000000000e+00 +5.4999999148021281e+00 -2.9114379886301073e-02 -5.5428031631494334e-01 +5.6652643599419744e-03
5.5499999999999883e+00 +8.5381463968429738e+00 +0.0000000000000000e+00 +5.5499999124552337e+00 -2.9115818169591034e-02 -5.5430942944759409e-01 +5.6653163221986836e-03
5.5999999999999881e+00 +8.5381309383804105e+00 +0.0000000000000000e+00 +5.5999999100655771e+00 -2.9117265674218257e-02 -5.5433868891039895e-01 +5.6653685049731905e-03
5.6499999999999879e+00 +8.5381153409719737e+00 +0.0000000000000000e+00 +5.6499999076327692e+00 -2.9118722266680438e-02 -5.5436809235950668e-01 +5.6654208889058352e-03
5.6999999999999877e+00 +8.5380996046102915e+00 +0.0000000000000000e+00 +5.6999999051564219e+00 -2.9120187813476011e-02 -5.5439763745105974e-01 +5.6654734546370510e-03
5.7499999999999876e+00 +8.5380837292879601e+00 +0.0000000000000000e+00 +5.7499999026361470e+00 -2.9121662181104187e-02 -5.5442732184119292e-01 +5.6655261828073393e-03
5.7999999999999874e+00 +8.5380677149975401e+00 +0.0000000000000000e+00 +5.7999999000715556e+00 -2.9123145236064955e-02 -5.5445714318603423e-01 +5.6655790540572877e-03
5.8499999999999872e+00 +8.5380515617315549e+00 +0.0000000000000000e+00 +5.8499998974622596e+00 -2.9124636844859081e-02 -5.5448709914170347e-01 +5.6656320490275714e-03
5.8999999999999870e+00 +8.5380352694824975e+00 +0.0000000000000000e+00 +5.8999998948078698e+00 -2.9126136873988104e-02 -5.5451718736431299e-01 +5.6656851483589329e-03
