# field on trajectory
# s[mm] rx[mm] ry[mm] rz[mm] bx[T] by[T] bz[T]
-0.0000000000000000e+00 +8.5270000000000206e+00 +0.0000000000000000e+00 -0.0000000000000000e+00 -3.0155221708251304e-02 -5.7641516202830034e-01 +5.7003445492938374e-03
-5.0000000000000003e-02 +8.5269999273587000e+00 +0.0000000000000000e+00 -5.1282051281982703e-02 -3.0155322582794648e-02 -5.7641538003109760e-01 +5.7013741039151303e-03
-1.0000000000000001e-01 +8.5269997094401297e+00 +0.0000000000000000e+00 -1.0256410256355400e-01 -3.0155452575793842e-02 -5.7641604530920598e-01 +5.7024052646095147e-03
-1.4999999999999999e-01 +8.5269993462388793e+00 +0.0000000000000000e+00 -1.5384615384430200e-01 -3.0155611490849277e-02 -5.7641715718639375e-01 +5.7034379491451171e-03
-2.0000000000000001e-01 +8.5269988377622195e+00 +0.0000000000000000e+00 -2.0512820512381499e-01 -3.0155799131556707e-02 -5.7641871498635322e-01 +5.7044720752889178e-03
-2.5000000000000000e-01 +8.5269981840028795e+00 +0.0000000000000000e+00 -2.5641025640168202e-01 -3.0156015301518513e-02 -5.7642071803290662e-01 +5.7055075608088432e-03
-2.9999999999999999e-01 +8.5269973849644902e+00 +0.0000000000000000e+00 -3.0769230767749101e-01 -3.0156259804333098e-02 -5.7642316564981211e-01 +5.7065443234717954e-03
-3.4999999999999998e-01 +8.5269964406470500e+00 +0.0000000000000000e+00 -3.5897435895083102e-01 -3.0156532443601024e-02 -5.7642605716087614e-01 +5.7075822810447735e-03
-4.0000000000000002e-01 +8.5269953510505694e+00 +0.0000000000000000e+00 -4.1025641022129000e-01 -3.0156833022923456e-02 -5.7642939188992492e-01 +5.7086213512946016e-03
-4.5000000000000001e-01 +8.5269941161714105e+00 +0.0000000000000000e+00 -4.6153846148845601e-01 -3.0157161345903703e-02 -5.7643316916083109e-01 +5.7096614519881912e-03
-5.0000000000000000e-01 +8.5269927360132005e+00 +0.0000000000000000e+00 -5.1282051275191798e-01 -3.0157517216142685e-02 -5.7643738829743374e-01 +5.7107025008917064e-03
-5.5000000000000004e-01 +8.5269912105795793e+00 +0.0000000000000000e+00 -5.6410256401126402e-01 -3.0157900437241921e-02 -5.7644204862359127e-01 +5.7117444157711210e-03
-5.9999999999999998e-01 +8.5269895398632798e+00 +0.0000000000000000e+00 -6.1538461526608301e-01 -3.0158310812808183e-02 -5.7644714946326481e-01 +5.7127871143930553e-03
-6.5000000000000002e-01 +8.5269877238679292e+00 +0.0000000000000000e+00 -6.6666666651596296e-01 -3.0158748146444300e-02 -5.7645269014035294e-01 +5.7138305145230939e-03
-6.9999999999999996e-01 +8.5269857625899004e+00 +0.0000000000000000e+00 -7.1794871776049296e-01 -3.0159212241756869e-02 -5.7645866997883100e-01 +5.7148745339271889e-03
-7.5000000000000000e-01 +8.5269836560364602e+00 +0.0000000000000000e+00 -7.6923076899926102e-01 -3.0159702902348529e-02 -5.7646508830261090e-01 +5.7159190903702415e-03
-8.0000000000000004e-01 +8.5269814042003400e+00 +0.0000000000000000e+00 -8.2051282023185501e-01 -3.0160219931828717e-02 -5.7647194443573535e-01 +5.7169641016180800e-03
-8.4999999999999998e-01 +8.5269790070851705e+00 +0.0000000000000000e+00 -8.7179487145786405e-01 -3.0160763133803021e-02 -5.7647923770218590e-01 +5.7180094854354839e-03
-9.0000000000000002e-01 +8.5269764646909607e+00 +0.0000000000000000e+00 -9.2307692267687602e-01 -3.0161332311879188e-02 -5.7648696742599204e-01 +5.7190551595873024e-03
-9.4999999999999996e-01 +8.5269737770140601e+00 +0.0000000000000000e+00 -9.7435897388848103e-01 -3.0161927269667255e-02 -5.7649513293123122e-01 +5.7201010418384667e-03
-1.0000000000000000e+00 +8.5269709440617607e+00 +0.0000000000000000e+00 -1.0256410250922601e+00 -3.0162547810773384e-02 -5.7650373354191964e-01 +5.7211470499528346e-03
-1.0500000000000000e+00 +8.5269679658304103e+00 +0.0000000000000000e+00 -1.0769230762878199e+00 -3.0163193738809026e-02 -5.7651276858217715e-01 +5.7221931016949099e-03
-1.1000000000000001e+00 +8.5269648423163709e+00 +0.0000000000000000e+00 -1.1282051274747300e+00 -3.0163864857386365e-02 -5.7652223737614483e-01 +5.7232391148289742e-03
-1.1499999999999999e+00 +8.5269615735232893e+00 +0.0000000000000000e+00 -1.1794871786525800e+00 -3.0164560970115290e-02 -5.7653213924792979e-01 +5.7242850071185280e-03
-1.2000000000000000e+00 +8.5269581594511692e+00 +0.0000000000000000e+00 -1.2307692298209700e+00 -3.0165281880607932e-02 -5.7654247352168775e-01 +5.7253306963271243e-03
-1.2500000000000000e+00 +8.5269546000999998e+00 +0.0000000000000000e+00 -1.2820512809794800e+00 -3.0166027392477233e-02 -5.7655323952159576e-01 +5.7263761002181038e-03
-1.3000000000000000e+00 +8.5269508954661397e+00 +0.0000000000000000e+00 -1.3333333321277101e+00 -3.0166797309338359e-02 -5.7656443657188072e-01 +5.7274211365548541e-03
-1.3500000000000001e+00 +8.5269470455568808e+00 +0.0000000000000000e+00 -1.3846153832652299e+00 -3.0167591434802760e-02 -5.7657606399670835e-01 +5.7284657230996967e-03
-1.3999999999999999e+00 +8.5269430503649293e+00 +0.0000000000000000e+00 -1.4358974343916400e+00 -3.0168409572488675e-02 -5.7658812112037505e-01 +5.7295097776158396e-03
-1.4500000000000000e+00 +8.5269389098939392e+00 +0.0000000000000000e+00 -1.4871794855065199e+00 -3.0169251526010611e-02 -5.7660060726711748e-01 +5.7305532178654186e-03
-1.5000000000000000e+00 +8.5269346241439106e+00 +0.0000000000000000e+00 -1.5384615366094700e+00 -3.0170117098985400e-02 -5.7661352176122127e-01 +5.7315959616106157e-03
-1.5500000000000000e+00 +8.5269301931148203e+00 +0.0000000000000000e+00 -1.5897435877000701e+00 -3.0171006095030685e-02 -5.7662686392699480e-01 +5.7326379266133716e-03
-1.6000000000000001e+00 +8.5269256168030605e+00 +0.0000000000000000e+00 -1.6410256387779201e+00 -3.0171918317766409e-02 -5.7664063308879454e-01 +5.7336790306356739e-03
-1.6499999999999999e+00 +8.5269208952158806e+00 +0.0000000000000000e+00 -1.6923076898425899e+00 -3.0172853570808816e-02 -5.7665482857091832e-01 +5.7347191914384156e-03
-1.7000000000000000e+00 +8.5269160283460206e+00 +0.0000000000000000e+00 -1.7435897408936800e+00 -3.0173811657781036e-02 -5.7666944969779488e-01 +5.7357583267833761e-03
-1.7500000000000000e+00 +8.5269110161934805e+00 +0.0000000000000000e+00 -1.7948717919307799e+00 -3.0174792382304035e-02 -5.7668449579382053e-01 +5.7367963544315221e-03
-1.8000000000000000e+00 +8.5269058587655309e+00 +0.0000000000000000e+00 -1.8461538429534701e+00 -3.0175795547996539e-02 -5.7669996618335984e-01 +5.7378331921430058e-03
-1.8500000000000001e+00 +8.5269005560585391e+00 +0.0000000000000000e+00 -1.8974358939613500e+00 -3.0176820958482741e-02 -5.7671586019088161e-01 +5.7388687576785738e-03
-1.8999999999999999e+00 +8.5268951080688602e+00 +0.0000000000000000e+00 -1.9487179449540000e+00 -3.0177868417387649e-02 -5.7673217714087710e-01 +5.7399029687987199e-03
-1.9500000000000000e+00 +8.5268895148037700e+00 +0.0000000000000000e+00 -1.9999999959310100e+00 -3.0178937728332658e-02 -5.7674891635777881e-01 +5.7409357432628323e-03
-2.0000000000000000e+00 +8.5268838253941794e+00 +0.0000000000000000e+00 -2.0508474532398102e+00 -3.0180019385926488e-02 -5.7676592965122198e-01 +5.7419582678883974e-03
-2.0499999999999998e+00 +8.5268779929429002e+00 +0.0000000000000000e+00 -2.1016949105324101e+00 -3.0181122303479826e-02 -5.7678335486943111e-01 +5.7429792304553714e-03
-2.1000000000000001e+00 +8.5268720174499304e+00 +0.0000000000000000e+00 -2.1525423678083899e+00 -3.0182246450686283e-02 -5.7680118945946446e-01 +5.7439985621490939e-03
-2.1499999999999999e+00 +8.5268658989189099e+00 +0.0000000000000000e+00 -2.2033898250673700e+00 -3.0183391797238786e-02 -5.7681943086836729e-01 +5.7450161941543388e-03
-2.2000000000000002e+00 +8.5268596373498404e+00 +0.0000000000000000e+00 -2.2542372823089400e+00 -3.0184558312832559e-02 -5.7683807654322539e-01 +5.7460320576558713e-03
-2.2500000000000000e+00 +8.5268532327390893e+00 +0.0000000000000000e+00 -2.3050847395326799e+00 -3.0185745967165212e-02 -5.7685712393116595e-01 +5.7470460838384462e-03
-2.2999999999999998e+00 +8.5268466850902804e+00 +0.0000000000000000e+00 -2.3559321967382099e+00 -3.0186954729932124e-02 -5.7687657047927476e-01 +5.7480582038859605e-03
-2.3500000000000001e+00 +8.5268399943961395e+00 +0.0000000000000000e+00 -2.4067796539251201e+00 -3.0188184570834047e-02 -5.7689641363473110e-01 +5.7490683489828508e-03
-2.3999999999999999e+00 +8.5268331606675893e+00 +0.0000000000000000e+00 -2.4576271110930099e+00 -3.0189435459564949e-02 -5.7691665084459010e-01 +5.7500764503118258e-03
-2.4500000000000002e+00 +8.5268261838973594e+00 +0.0000000000000000e+00 -2.5084745682414700e+00 -3.0190707365827279e-02 -5.7693727955605656e-01 +5.7510824390567105e-03
-2.5000000000000000e+00 +8.5268190640890698e+00 +0.0000000000000000e+00 -2.5593220253701001e+00 -3.0192000259319753e-02 -5.7695829721626324e-01 +5.7520862464001616e-03
-2.5499999999999998e+00 +8.5268118012427294e+00 +0.0000000000000000e+00 -2.6101694824785100e+00 -3.0193314109743422e-02 -5.7697970127238207e-01 +5.7530878035248027e-03
-2.6000000000000001e+00 +8.5268043953510606e+00 +0.0000000000000000e+00 -2.6610169395662799e+00 -3.0194648886803292e-02 -5.7700148917165117e-01 +5.7540870416135119e-03
-2.6499999999999999e+00 +8.5267968464213499e+00 +0.0000000000000000e+00 -2.7118643966330200e+00 -3.0196004560199049e-02 -5.7702365836120773e-01 +5.7550838918476880e-03
-2.7000000000000002e+00 +8.5267891544535797e+00 +0.0000000000000000e+00 -2.7627118536783102e+00 -3.0197381099634348e-02 -5.7704620628825543e-01 +5.7560782854089764e-03
-2.7500000000000000e+00 +8.5267813194441295e+00 +0.0000000000000000e+00 -2.8135593107017698e+00 -3.0198778474815204e-02 -5.7706913040003360e-01 +5.7570701534789817e-03
-2.7999999999999998e+00 +8.5267733413966198e+00 +0.0000000000000000e+00 -2.8644067677029899e+00 -3.0200196655445443e-02 -5.7709242814373740e-01 +5.7580594272383856e-03
-2.8500000000000001e+00 +8.5267652203074196e+00 +0.0000000000000000e+00 -2.9152542246815600e+00 -3.0201635611232836e-02 -5.7711609696662447e-01 +5.7590460378681161e-03
-2.8999999999999999e+00 +8.5267569561765395e+00 +0.0000000000000000e+00 -2.9661016816370900e+00 -3.0203095311884483e-02 -5.7714013431593381e-01 +5.7600299165484646e-03
-2.9500000000000002e+00 +8.5267485490112396e+00 +0.0000000000000000e+00 -3.0169491385691698e+00 -3.0204575727105294e-02 -5.7716453763885778e-01 +5.7610109944587857e-03
-3.0000000000000000e+00 +8.5267399988042598e+00 +0.0000000000000000e+00 -3.0677965954773900e+00 -3.0206076826607215e-02 -5.7718930438270677e-01 +5.7619892027792486e-03
-3.0499999999999998e+00 +8.5267313055555896e+00 +0.0000000000000000e+00 -3.1186440523613599e+00 -3.0207598580099981e-02 -5.7721443199474254e-01 +5.7629644726890838e-03
-3.1000000000000001e+00 +8.5267224692688597e+00 +0.0000000000000000e+00 -3.1694915092206801e+00 -3.0209140957292702e-02 -5.7723991792220708e-01 +5.7639367353668714e-03
-3.1499999999999999e+00 +8.5267134899368102e+00 +0.0000000000000000e+00 -3.2203389660549400e+00 -3.0210703927899988e-02 -5.7726575961243143e-01 +5.7649059219916990e-03
-3.2000000000000002e+00 +8.5267043675703498e+00 +0.0000000000000000e+00 -3.2711864228637300e+00 -3.0212287461629669e-02 -5.7729195451261517e-01 +5.7658719637408290e-03
-3.2500000000000000e+00 +8.5266951021658297e+00 +0.0000000000000000e+00 -3.3220338796466700e+00 -3.0213891528196625e-02 -5.7731850007007346e-01 +5.7668347917923125e-03
-3.2999999999999998e+00 +8.5266856937196298e+00 +0.0000000000000000e+00 -3.3728813364033301e+00 -3.0215516097316635e-02 -5.7734539373212768e-01 +5.7677943373238344e-03
-3.3500000000000001e+00 +8.5266761422317394e+00 +0.0000000000000000e+00 -3.4237287931333298e+00 -3.0217161138704852e-02 -5.7737263294607633e-01 +5.7687505315123996e-03
-3.3999999999999999e+00 +8.5266664477057894e+00 +0.0000000000000000e+00 -3.4745762498362600e+00 -3.0218826622075833e-02 -5.7740021515919515e-01 +5.7697033055343393e-03
-3.4500000000000002e+00 +8.5266566101381596e+00 +0.0000000000000000e+00 -3.5254237065117100e+00 -3.0220512517148086e-02 -5.7742813781881897e-01 +5.7706525905661804e-03
-3.5000000000000000e+00 +8.5266466295324808e+00 +0.0000000000000000e+00 -3.5762711631592898e+00 -3.0222218793638005e-02 -5.7745639837223228e-01 +5.7715983177834777e-03
-3.5499999999999998e+00 +8.5266365058887494e+00 +0.0000000000000000e+00 -3.6271186197785901e+00 -3.0223945421264439e-02 -5.7748499426675004e-01 +5.7725404183616739e-03
-3.6000000000000001e+00 +8.5266262391996896e+00 +0.0000000000000000e+00 -3.6779660763692101e+00 -3.0225692369750243e-02 -5.7751392294974624e-01 +5.7734788234764054e-03
-3.6499999999999999e+00 +8.5266158294762100e+00 +0.0000000000000000e+00 -3.7288135329307499e+00 -3.0227459608811520e-02 -5.7754318186845910e-01 +5.7744134643014375e-03
-3.6999999999999900e+00 +8.5266052767074108e+00 +0.0000000000000000e+00 -3.7796609894627999e+00 -3.0229247108174533e-02 -5.7757276847029482e-01 +5.7753442720118843e-03
-3.7499999999999898e+00 +8.5265945809042005e+00 +0.0000000000000000e+00 -3.8305084459649699e+00 -3.0231054837557288e-02 -5.7760268020249717e-01 +5.7762711777806924e-03
-3.7999999999999901e+00 +8.5265837420592998e+00 +0.0000000000000000e+00 -3.8813559024368498e+00 -3.0232882766686404e-02 -5.7763291451244847e-01 +5.7771941127818588e-03
-3.8499999999999899e+00 +8.5265727601727104e+00 +0.0000000000000000e+00 -3.9322033588780299e+00 -3.0234730865286379e-02 -5.7766346884747777e-01 +5.7781130081883750e-03
-3.8999999999999901e+00 +8.5265616352480702e+00 +0.0000000000000000e+00 -3.9830508152881201e+00 -3.0236599103081171e-02 -5.7769434065488734e-01 +5.7790277951725172e-03
-3.9499999999999900e+00 +8.5265503672853793e+00 +0.0000000000000000e+00 -4.0338982716667102e+00 -3.0238487437228685e-02 -5.7772552735491445e-01 +5.7799384081701844e-03
-3.9999999999999898e+00 +8.5265389562773599e+00 +0.0000000000000000e+00 -4.0847457280134103e+00 -3.0240395678781628e-02 -5.7775702605289014e-01 +5.7808448195587519e-03
-4.0499999999999901e+00 +8.5265274022313005e+00 +0.0000000000000000e+00 -4.1355931843278002e+00 -3.0242323544522741e-02 -5.7778883365083511e-01 +5.7817470261922552e-03
-4.0999999999999899e+00 +8.5265157051508105e+00 +0.0000000000000000e+00 -4.1864406406094901e+00 -3.0244270749665254e-02 -5.7782094704741349e-01 +5.7826450253325298e-03
-4.1499999999999897e+00 +8.5265038650250098e+00 +0.0000000000000000e+00 -4.2372880968580704e+00 -3.0246237009428533e-02 -5.7785336314140145e-01 +5.7835388142420899e-03
-4.1999999999999904e+00 +8.5264918818611495e+00 +0.0000000000000000e+00 -4.2881355530731398e+00 -3.0248222039024313e-02 -5.7788607883143794e-01 +5.7844283901814899e-03
-4.2499999999999902e+00 +8.5264797556556005e+00 +0.0000000000000000e+00 -4.3389830092543002e+00 -3.0250225553668846e-02 -5.7791909101624583e-01 +5.7853137504116732e-03
-4.2999999999999901e+00 +8.5264674864120007e+00 +0.0000000000000000e+00 -4.3898304654011504e+00 -3.0252247268575321e-02 -5.7795239659449327e-01 +5.7861948921924897e-03
-4.3499999999999899e+00 +8.5264550741303502e+00 +0.0000000000000000e+00 -4.4406779215132799e+00 -3.0254286898958330e-02 -5.7798599246487714e-01 +5.7870718127835752e-03
-4.3999999999999897e+00 +8.5264425188070199e+00 +0.0000000000000000e+00 -4.4915253775902899e+00 -3.0256344160033938e-02 -5.7801987552612122e-01 +5.7879445094443501e-03
-4.4499999999999904e+00 +8.5264298204419902e+00 +0.0000000000000000e+00 -4.5423728336317897e+00 -3.0258418767016532e-02 -5.7805404267692184e-01 +5.7888129794334258e-03
-4.4999999999999902e+00 +8.5264169790425495e+00 +0.0000000000000000e+00 -4.5932202896373502e+00 -3.0260510435117280e-02 -5.7808849081591951e-01 +5.7896772200082876e-03
-4.5499999999999901e+00 +8.5264039945941494e+00 +0.0000000000000000e+00 -4.6440677456066002e+00 -3.0262618879556401e-02 -5.7812321684191992e-01 +5.7905372284276814e-03
-4.5999999999999899e+00 +8.5263908671149693e+00 +0.0000000000000000e+00 -4.6949152015391098e+00 -3.0264743815540094e-02 -5.7815821765347830e-01 +5.7913930019471505e-03
-4.6499999999999897e+00 +8.5263775965941004e+00 +0.0000000000000000e+00 -4.7457626574344998e+00 -3.0266884958286618e-02 -5.7819349014937027e-01 +5.7922445378240650e-03
-4.6999999999999904e+00 +8.5263641830315500e+00 +0.0000000000000000e+00 -4.7966101132923500e+00 -3.0269042023009365e-02 -5.7822903122828617e-01 +5.7930918333143674e-03
-4.7499999999999902e+00 +8.5263506264309399e+00 +0.0000000000000000e+00 -4.8474575691122697e+00 -3.0271214724919976e-02 -5.7826483778888704e-01 +5.7939348856731552e-03
-4.7999999999999901e+00 +8.5263369267886393e+00 +0.0000000000000000e+00 -4.8983050248938502e+00 -3.0273402779232801e-02 -5.7830090672988732e-01 +5.7947736921555625e-03
-4.8499999999999899e+00 +8.5263230841010191e+00 +0.0000000000000000e+00 -4.9491524806366902e+00 -3.0275605901161916e-02 -5.7833723494999811e-01 +5.7956082500161691e-03
-4.8999999999999897e+00 +8.5263090983826295e+00 +0.0000000000000000e+00 -4.9999999363403900e+00 -3.0277823805913370e-02 -5.7837381934778853e-01 +5.7964385565074956e-03
-4.9499999999999904e+00 +8.5262950649157592e+00 +0.0000000000000000e+00 -5.0505049848957304e+00 -3.0280041127973625e-02 -5.7841040792124654e-01 +5.7972590605013599e-03
-4.9999999999999902e+00 +8.5262808896768494e+00 +0.0000000000000000e+00 -5.1010100334114901e+00 -3.0282272474671586e-02 -5.7844724314005613e-01 +5.7980753648423236e-03
-5.0499999999999901e+00 +8.5262665726659197e+00 +0.0000000000000000e+00 -5.1515150818872497e+00 -3.0284517566933129e-02 -5.7848432196512334e-01 +5.7988874668375876e-03
-5.0999999999999899e+00 +8.5262521138793108e+00 +0.0000000000000000e+00 -5.2020201303226203e+00 -3.0286776125685255e-02 -5.7852164135737771e-01 +5.7996953637940770e-03
-5.1499999999999897e+00 +8.5262375133206696e+00 +0.0000000000000000e+00 -5.2525251787172103e+00 -3.0289047871851486e-02 -5.7855919827768931e-01 +5.8004990530175545e-03
-5.1999999999999904e+00 +8.5262227709863492e+00 +0.0000000000000000e+00 -5.3030302270706198e+00 -3.0291332526357895e-02 -5.7859698968697915e-01 +5.8012985318137891e-03
-5.2499999999999902e+00 +8.5262078868836397e+00 +0.0000000000000000e+00 -5.3535352753824403e+00 -3.0293629810125455e-02 -5.7863501254607974e-01 +5.8020937974870750e-03
-5.2999999999999901e+00 +8.5261928610125306e+00 +0.0000000000000000e+00 -5.4040403236522803e+00 -3.0295939444077720e-02 -5.7867326381587370e-01 +5.8028848473417024e-03
-5.3499999999999899e+00 +8.5261776933584805e+00 +0.0000000000000000e+00 -5.4545453718797399e+00 -3.0298261149143853e-02 -5.7871174045734997e-01 +5.8036716786825648e-03
-5.3999999999999897e+00 +8.5261623839360308e+00 +0.0000000000000000e+00 -5.5050504200644301e+00 -3.0300594646240166e-02 -5.7875043943126936e-01 +5.8044542888115724e-03
-5.4499999999999904e+00 +8.5261469327415398e+00 +0.0000000000000000e+00 -5.5555554682059496e+00 -3.0302939656290055e-02 -5.7878935769852491e-01 +5.8052326750315103e-03
-5.4999999999999902e+00 +8.5261313397750200e+00 +0.0000000000000000e+00 -5.6060605163038897e+00 -3.0305295900214777e-02 -5.7882849221997645e-01 +5.8060068346442589e-03
-5.5499999999999901e+00 +8.5261156050328299e+00 +0.0000000000000000e+00 -5.6565655643578596e+00 -3.0307663098936493e-02 -5.7886783995650415e-01 +5.8067767649513840e-03
-5.5999999999999899e+00 +8.5260997285186004e+00 +0.0000000000000000e+00 -5.7070706123674597e+00 -3.0310040973373652e-02 -5.7890739786892653e-01 +5.8075424632532254e-03
-5.6499999999999897e+00 +8.5260837102287006e+00 +0.0000000000000000e+00 -5.7575756603323001e+00 -3.0312429244447093e-02 -5.7894716291810955e-01 +5.8083039268501009e-03
-5.6999999999999904e+00 +8.5260675501704100e+00 +0.0000000000000000e+00 -5.8080807082519703e+00 -3.0314827633072298e-02 -5.7898713206482855e-01 +5.8090611530407918e-03
-5.7499999999999902e+00 +8.5260512483400799e+00 +0.0000000000000000e+00 -5.8585857561260797e+00 -3.0317235860168722e-02 -5.7902730226993482e-01 +5.8098141391243491e-03
-5.7999999999999901e+00 +8.5260348047340795e+00 +0.0000000000000000e+00 -5.9090908039542303e+00 -3.0319653646655016e-02 -5.7906767049427144e-01 +5.8105628823991772e-03
-5.8499999999999899e+00 +8.5260182193524106e+00 +0.0000000000000000e+00 -5.9595958517360303e+00 -3.0322080713447538e-02 -5.7910823369864495e-01 +5.8113073801627276e-03
