# field on trajectory
# s[mm] rx[mm] ry[mm] rz[mm] bx[T] by[T] bz[T]
0.0000000000000000e+00 +8.5269999999999992e+00 +0.0000000000000000e+00 +0.0000000000000000e+00 -2.9116402754522520e-02 -5.2272432176884698e-01 +5.1641502844311854e-03
5.0000000000000003e-02 +8.5269999311010380e+00 +0.0000000000000000e+00 +4.9999999999936699e-02 -2.9116183720809933e-02 -5.2272355432406270e-01 +5.1615814226339107e-03
1.0000000000000001e-01 +8.5269997244042717e+00 +0.0000000000000000e+00 +9.9999999999493633e-02 -2.9115989801041589e-02 -5.2272316983939926e-01 +5.1590141292417587e-03
1.5000000000000002e-01 +8.5269993799098014e+00 +0.0000000000000000e+00 +1.4999999999829106e-01 -2.9115821085565773e-02 -5.2272316766733318e-01 +5.1564486345088449e-03
2.0000000000000001e-01 +8.5269988976176272e+00 +0.0000000000000000e+00 +1.9999999999594920e-01 -2.9115677664731658e-02 -5.2272354716035740e-01 +5.1538851686892028e-03
2.5000000000000000e-01 +8.5269982775276496e+00 +0.0000000000000000e+00 +2.4999999999208825e-01 -2.9115559628889360e-02 -5.2272430767098288e-01 +5.1513239620368332e-03
2.9999999999999999e-01 +8.5269975196396697e+00 +0.0000000000000000e+00 +2.9999999998632848e-01 -2.9115467068389793e-02 -5.2272544855173786e-01 +5.1487652448057291e-03
3.4999999999999998e-01 +8.5269966239533854e+00 +0.0000000000000000e+00 +3.4999999997829012e-01 -2.9115400073584700e-02 -5.2272696915516859e-01 +5.1462092472498808e-03
3.9999999999999997e-01 +8.5269955904683954e+00 +0.0000000000000000e+00 +3.9999999996759339e-01 -2.9115358734826641e-02 -5.2272886883383818e-01 +5.1436561996233369e-03
4.4999999999999996e-01 +8.5269944191841986e+00 +0.0000000000000000e+00 +4.4999999995385848e-01 -2.9115343142468900e-02 -5.2273114694032730e-01 +5.1411063321802047e-03
4.9999999999999994e-01 +8.5269931101001966e+00 +0.0000000000000000e+00 +4.9999999993670563e-01 -2.9115353386865498e-02 -5.2273380282723436e-01 +5.1385598751746897e-03
5.4999999999999993e-01 +8.5269916632156875e+00 +0.0000000000000000e+00 +5.4999999991575510e-01 -2.9115389558371164e-02 -5.2273683584717423e-01 +5.1360170588611136e-03
5.9999999999999998e-01 +8.5269900785298720e+00 +0.0000000000000000e+00 +5.9999999989062702e-01 -2.9115451747341280e-02 -5.2274024535277996e-01 +5.1334781134939568e-03
6.5000000000000002e-01 +8.5269883560418513e+00 +0.0000000000000000e+00 +6.4999999986094159e-01 -2.9115540044131867e-02 -5.2274403069670128e-01 +5.1309432693278636e-03
7.0000000000000007e-01 +8.5269864957506272e+00 +0.0000000000000000e+00 +6.9999999982631889e-01 -2.9115654539099530e-02 -5.2274819123160399e-01 +5.1284127566176927e-03
7.5000000000000011e-01 +8.5269844976551035e+00 +0.0000000000000000e+00 +7.4999999978637921e-01 -2.9115795322601470e-02 -5.2275272631017333e-01 +5.1258868056185290e-03
8.0000000000000016e-01 +8.5269823617540847e+00 +0.0000000000000000e+00 +7.9999999974074265e-01 -2.9115962484995431e-02 -5.2275763528510921e-01 +5.1233656465857133e-03
8.5000000000000020e-01 +8.5269800880462778e+00 +0.0000000000000000e+00 +8.4999999968902940e-01 -2.9116156116639653e-02 -5.2276291750912973e-01 +5.1208495097748684e-03
9.0000000000000024e-01 +8.5269776765302900e+00 +0.0000000000000000e+00 +8.9999999963085942e-01 -2.9116376307892832e-02 -5.2276857233496932e-01 +5.1183386254419292e-03
9.5000000000000029e-01 +8.5269751272046292e+00 +0.0000000000000000e+00 +9.4999999956585301e-01 -2.9116623149114153e-02 -5.2277459911537960e-01 +5.1158332238431760e-03
1.0000000000000002e+00 +8.5269724400677074e+00 +0.0000000000000000e+00 +9.9999999949363017e-01 -2.9116896730663214e-02 -5.2278099720312876e-01 +5.1133335352352444e-03
1.0500000000000003e+00 +8.5269696151178387e+00 +0.0000000000000000e+00 +1.0499999994138109e+00 -2.9117197142899967e-02 -5.2278776595100140e-01 +5.1108397898751738e-03
1.1000000000000003e+00 +8.5269666523532379e+00 +0.0000000000000000e+00 +1.0999999993260154e+00 -2.9117524476184761e-02 -5.2279490471179946e-01 +5.1083522180204108e-03
1.1500000000000004e+00 +8.5269635517720239e+00 +0.0000000000000000e+00 +1.1499999992298635e+00 -2.9117878820878212e-02 -5.2280241283834084e-01 +5.1058710499288550e-03
1.2000000000000004e+00 +8.5269603133722160e+00 +0.0000000000000000e+00 +1.1999999991249755e+00 -2.9118260267341302e-02 -5.2281028968346055e-01 +5.1033965158588813e-03
1.2500000000000004e+00 +8.5269569371517395e+00 +0.0000000000000000e+00 +1.2499999990109709e+00 -2.9118668905935223e-02 -5.2281853460000938e-01 +5.1009288460693632e-03
1.3000000000000005e+00 +8.5269534231084201e+00 +0.0000000000000000e+00 +1.2999999988874702e+00 -2.9119104827021403e-02 -5.2282714694085497e-01 +5.0984682708196975e-03
1.3500000000000005e+00 +8.5269497712399875e+00 +0.0000000000000000e+00 +1.3499999987540929e+00 -2.9119568120961479e-02 -5.2283612605888163e-01 +5.0960150203698453e-03
1.4000000000000006e+00 +8.5269459815440758e+00 +0.0000000000000000e+00 +1.3999999986104592e+00 -2.9120058878117271e-02 -5.2284547130698900e-01 +5.0935693249803413e-03
1.4500000000000006e+00 +8.5269420540182193e+00 +0.0000000000000000e+00 +1.4499999984561889e+00 -2.9120577188850715e-02 -5.2285518203809433e-01 +5.0911314149123333e-03
1.5000000000000007e+00 +8.5269379886598600e+00 +0.0000000000000000e+00 +1.4999999982909016e+00 -2.9121123143523865e-02 -5.2286525760512959e-01 +5.0887015204276031e-03
1.5500000000000007e+00 +8.5269337854663405e+00 +0.0000000000000000e+00 +1.5499999981142174e+00 -2.9121696832498819e-02 -5.2287569736104356e-01 +5.0862798717885935e-03
1.6000000000000008e+00 +8.5269294444349111e+00 +0.0000000000000000e+00 +1.5999999979257560e+00 -2.9122298346137800e-02 -5.2288650065880216e-01 +5.0838666992584483e-03
1.6500000000000008e+00 +8.5269249655627206e+00 +0.0000000000000000e+00 +1.6499999977251372e+00 -2.9122927774802975e-02 -5.2289766685138539e-01 +5.0814622331010117e-03
1.7000000000000008e+00 +8.5269203488468275e+00 +0.0000000000000000e+00 +1.6999999975119806e+00 -2.9123585208856499e-02 -5.2290919529179070e-01 +5.0790667035808873e-03
1.7500000000000009e+00 +8.5269155942841941e+00 +0.0000000000000000e+00 +1.7499999972859062e+00 -2.9124270738660502e-02 -5.2292108533303028e-01 +5.0766803409634416e-03
1.8000000000000009e+00 +8.5269107018716834e+00 +0.0000000000000000e+00 +1.7999999970465332e+00 -2.9124984454577039e-02 -5.2293333632813388e-01 +5.0743033755148419e-03
1.8500000000000010e+00 +8.5269056716060678e+00 +0.0000000000000000e+00 +1.8499999967934817e+00 -2.9125726446968040e-02 -5.2294594763014512e-01 +5.0719360375020804e-03
1.9000000000000010e+00 +8.5269005034840220e+00 +0.0000000000000000e+00 +1.8999999965263710e+00 -2.9126496806195300e-02 -5.2295891859212451e-01 +5.0695785571930026e-03
1.9500000000000011e+00 +8.5268951975021263e+00 +0.0000000000000000e+00 +1.9499999962448207e+00 -2.9127295622620435e-02 -5.2297224856714830e-01 +5.0672311648563388e-03
2.0000000000000009e+00 +8.5268897536568673e+00 +0.0000000000000000e+00 +1.9999999959484502e+00 -2.9128122986604870e-02 -5.2298593690830764e-01 +5.0648940907617127e-03
2.0500000000000007e+00 +8.5268841719446371e+00 +0.0000000000000000e+00 +2.0499999956368793e+00 -2.9128978922544603e-02 -5.2299998272633652e-01 +5.0625675534188425e-03
2.1000000000000005e+00 +8.5268784523617320e+00 +0.0000000000000000e+00 +2.0999999953097270e+00 -2.9129863190975078e-02 -5.2301438416249169e-01 +5.0602517242949539e-03
2.1500000000000004e+00 +8.5268725949043560e+00 +0.0000000000000000e+00 +2.1499999949666133e+00 -2.9130775486467465e-02 -5.2302913911566840e-01 +5.0579467630973056e-03
2.2000000000000002e+00 +8.5268665995686206e+00 +0.0000000000000000e+00 +2.1999999946071571e+00 -2.9131715503594117e-02 -5.2304424548477413e-01 +5.0556528295340646e-03
2.2500000000000000e+00 +8.5268604663505414e+00 +0.0000000000000000e+00 +2.2499999942309774e+00 -2.9132682936928601e-02 -5.2305970116872902e-01 +5.0533700833143300e-03
2.2999999999999998e+00 +8.5268541952460453e+00 +0.0000000000000000e+00 +2.2999999938376940e+00 -2.9133677481045721e-02 -5.2307550406646541e-01 +5.0510986841481526e-03
2.3499999999999996e+00 +8.5268477862509666e+00 +0.0000000000000000e+00 +2.3499999934269260e+00 -2.9134698830521572e-02 -5.2309165207692609e-01 +5.0488387917465485e-03
2.3999999999999995e+00 +8.5268412393610493e+00 +0.0000000000000000e+00 +2.3999999929982927e+00 -2.9135746679933648e-02 -5.2310814309906550e-01 +5.0465905658215347e-03
2.4499999999999993e+00 +8.5268345545719466e+00 +0.0000000000000000e+00 +2.4499999925514127e+00 -2.9136820723860819e-02 -5.2312497503184996e-01 +5.0443541660861310e-03
2.4999999999999991e+00 +8.5268277318792194e+00 +0.0000000000000000e+00 +2.4999999920859053e+00 -2.9137920656883417e-02 -5.2314214577425555e-01 +5.0421297522543988e-03
2.5499999999999989e+00 +8.5268207712783433e+00 +0.0000000000000000e+00 +2.5499999916013896e+00 -2.9139046173583264e-02 -5.2315965322527003e-01 +5.0399174840414541e-03
2.5999999999999988e+00 +8.5268136727647015e+00 +0.0000000000000000e+00 +2.5999999910974849e+00 -2.9140196968543801e-02 -5.2317749528389079e-01 +5.0377175211634888e-03
2.6499999999999986e+00 +8.5268064363335920e+00 +0.0000000000000000e+00 +2.6499999905738099e+00 -2.9141372736350032e-02 -5.2319566984912624e-01 +5.0355300233377986e-03
2.6999999999999984e+00 +8.5267990619802223e+00 +0.0000000000000000e+00 +2.6999999900299829e+00 -2.9142573171588630e-02 -5.2321417481999322e-01 +5.0333551502827860e-03
2.7499999999999982e+00 +8.5267915496997162e+00 +0.0000000000000000e+00 +2.7499999894656235e+00 -2.9143797968847994e-02 -5.2323300809552054e-01 +5.0311930617180107e-03
2.7999999999999980e+00 +8.5267838994871070e+00 +0.0000000000000000e+00 +2.7999999888803502e+00 -2.9145046822718297e-02 -5.2325216757474458e-01 +5.0290439173641798e-03
2.8499999999999979e+00 +8.5267761113373464e+00 +0.0000000000000000e+00 +2.8499999882737814e+00 -2.9146319427791504e-02 -5.2327165115671193e-01 +5.0269078769431862e-03
2.8999999999999977e+00 +8.5267681852452970e+00 +0.0000000000000000e+00 +2.8999999876455362e+00 -2.9147615478661452e-02 -5.2329145674047739e-01 +5.0247851001781318e-03
2.9499999999999975e+00 +8.5267601212057365e+00 +0.0000000000000000e+00 +2.9499999869952331e+00 -2.9148934669923913e-02 -5.2331158222510554e-01 +5.0226757467933389e-03
2.9999999999999973e+00 +8.5267519192133623e+00 +0.0000000000000000e+00 +2.9999999863224907e+00 -2.9150276696176616e-02 -5.2333202550966929e-01 +5.0205799765143761e-03
3.0499999999999972e+00 +8.5267435792627833e+00 +0.0000000000000000e+00 +3.0499999856269269e+00 -2.9151641252019321e-02 -5.2335278449324907e-01 +5.0184979490680839e-03
3.0999999999999970e+00 +8.5267351013485282e+00 +0.0000000000000000e+00 +3.0999999849081608e+00 -2.9153028032053843e-02 -5.2337385707493422e-01 +5.0164298241825818e-03
3.1499999999999968e+00 +8.5267264854650424e+00 +0.0000000000000000e+00 +3.1499999841658104e+00 -2.9154436730884123e-02 -5.2339524115382186e-01 +5.0143757615873094e-03
3.1999999999999966e+00 +8.5267177316066878e+00 +0.0000000000000000e+00 +3.1999999833994943e+00 -2.9155867043116301e-02 -5.2341693462901628e-01 +5.0123359210130312e-03
3.2499999999999964e+00 +8.5267088397677462e+00 +0.0000000000000000e+00 +3.2499999826088306e+00 -2.9157318663358713e-02 -5.2343893539962949e-01 +5.0103104621918616e-03
3.2999999999999963e+00 +8.5266998099424178e+00 +0.0000000000000000e+00 +3.2999999817934373e+00 -2.9158791286222001e-02 -5.2346124136478100e-01 +5.0082995448572946e-03
3.3499999999999961e+00 +8.5266906421248230e+00 +0.0000000000000000e+00 +3.3499999809529326e+00 -2.9160284606319083e-02 -5.2348385042359680e-01 +5.0063033287442143e-03
3.3999999999999959e+00 +8.5266813363090019e+00 +0.0000000000000000e+00 +3.3999999800869345e+00 -2.9161798318265323e-02 -5.2350676047520917e-01 +5.0043219735889212e-03
3.4499999999999957e+00 +8.5266718924889151e+00 +0.0000000000000000e+00 +3.4499999791950611e+00 -2.9163332116678466e-02 -5.2352996941875762e-01 +5.0023556391291480e-03
3.4999999999999956e+00 +8.5266623106584447e+00 +0.0000000000000000e+00 +3.4999999782769304e+00 -2.9164885696178748e-02 -5.2355347515338779e-01 +5.0004044851040957e-03
3.5499999999999954e+00 +8.5266525908113948e+00 +0.0000000000000000e+00 +3.5499999773321602e+00 -2.9166458751388964e-02 -5.2357727557825118e-01 +4.9984686712544329e-03
3.5999999999999952e+00 +8.5266427329414896e+00 +0.0000000000000000e+00 +3.5999999763603685e+00 -2.9168050976934441e-02 -5.2360136859250450e-01 +4.9965483573223349e-03
3.6499999999999950e+00 +8.5266327370423785e+00 +0.0000000000000000e+00 +3.6499999753611725e+00 -2.9169662067443203e-02 -5.2362575209531104e-01 +4.9946437030514955e-03
3.6999999999999948e+00 +8.5266226031076346e+00 +0.0000000000000000e+00 +3.6999999743341903e+00 -2.9171291717545924e-02 -5.2365042398583883e-01 +4.9927548681871527e-03
3.7499999999999947e+00 +8.5266123311307549e+00 +0.0000000000000000e+00 +3.7499999732790394e+00 -2.9172939621876011e-02 -5.2367538216326048e-01 +4.9908820124761107e-03
3.7999999999999945e+00 +8.5266019211051578e+00 +0.0000000000000000e+00 +3.7999999721953373e+00 -2.9174605475069695e-02 -5.2370062452675470e-01 +4.9890252956667526e-03
3.8499999999999943e+00 +8.5265913730241909e+00 +0.0000000000000000e+00 +3.8499999710827013e+00 -2.9176288971765982e-02 -5.2372614897550351e-01 +4.9871848775090684e-03
3.8999999999999941e+00 +8.5265806868811254e+00 +0.0000000000000000e+00 +3.8999999699407488e+00 -2.9177989806606821e-02 -5.2375195340869407e-01 +4.9853609177546781e-03
3.9499999999999940e+00 +8.5265698626691577e+00 +0.0000000000000000e+00 +3.9499999687690974e+00 -2.9179707674237099e-02 -5.2377803572551740e-01 +4.9835535761568539e-03
3.9999999999999938e+00 +8.5265589003814135e+00 +0.0000000000000000e+00 +3.9999999675673639e+00 -2.9181442269304702e-02 -5.2380439382516852e-01 +4.9817630124705308e-03
4.0499999999999936e+00 +8.5265478000109454e+00 +0.0000000000000000e+00 +4.0499999663351653e+00 -2.9183193323521903e-02 -5.2383102547063820e-01 +4.9799893704793119e-03
4.0999999999999934e+00 +8.5265365615507314e+00 +0.0000000000000000e+00 +4.0999999650721195e+00 -2.9184960716848733e-02 -5.2385792788008634e-01 +4.9782327300760213e-03
4.1499999999999932e+00 +8.5265251849936803e+00 +0.0000000000000000e+00 +4.1499999637778435e+00 -2.9186744366306475e-02 -5.2388509813546491e-01 +4.9764931551813732e-03
4.1999999999999931e+00 +8.5265136703326299e+00 +0.0000000000000000e+00 +4.1999999624519537e+00 -2.9188544188915790e-02 -5.2391253331872589e-01 +4.9747707097169708e-03
4.2499999999999929e+00 +8.5265020175603485e+00 +0.0000000000000000e+00 +4.2499999610940664e+00 -2.9190360101696646e-02 -5.2394023051182081e-01 +4.9730654576053222e-03
4.2999999999999927e+00 +8.5264902266695337e+00 +0.0000000000000000e+00 +4.2999999597037997e+00 -2.9192192021668267e-02 -5.2396818679670054e-01 +4.9713774627698276e-03
4.3499999999999925e+00 +8.5264782976528171e+00 +0.0000000000000000e+00 +4.3499999582807689e+00 -2.9194039865849061e-02 -5.2399639925531483e-01 +4.9697067891347696e-03
4.3999999999999924e+00 +8.5264662305027610e+00 +0.0000000000000000e+00 +4.3999999568245922e+00 -2.9195903551256605e-02 -5.2402486496961254e-01 +4.9680535006253225e-03
4.4499999999999922e+00 +8.5264540252118604e+00 +0.0000000000000000e+00 +4.4499999553348850e+00 -2.9197782994907464e-02 -5.2405358102154054e-01 +4.9664176611675416e-03
4.4999999999999920e+00 +8.5264416817725479e+00 +0.0000000000000000e+00 +4.4999999538112645e+00 -2.9199678113817296e-02 -5.2408254449304326e-01 +4.9647993346883506e-03
4.5499999999999918e+00 +8.5264292001771871e+00 +0.0000000000000000e+00 +4.5499999522533461e+00 -2.9201588825000659e-02 -5.2411175246606323e-01 +4.9631985851155526e-03
4.5999999999999917e+00 +8.5264165804180791e+00 +0.0000000000000000e+00 +4.5999999506607470e+00 -2.9203515045470991e-02 -5.2414120202254100e-01 +4.9616154763778208e-03
4.6499999999999915e+00 +8.5264038224874596e+00 +0.0000000000000000e+00 +4.6499999490330834e+00 -2.9205456692240582e-02 -5.2417089024441332e-01 +4.9600500724046887e-03
4.6999999999999913e+00 +8.5263909263775037e+00 +0.0000000000000000e+00 +4.6999999473699710e+00 -2.9207413682320434e-02 -5.2420081421361364e-01 +4.9585024371265520e-03
4.7499999999999911e+00 +8.5263778920803226e+00 +0.0000000000000000e+00 +4.7499999456710258e+00 -2.9209385932720315e-02 -5.2423097101207272e-01 +4.9569726344746686e-03
4.7999999999999909e+00 +8.5263647195879670e+00 +0.0000000000000000e+00 +4.7999999439358643e+00 -2.9211373360448576e-02 -5.2426135772171623e-01 +4.9554607283811411e-03
4.8499999999999908e+00 +8.5263514088924257e+00 +0.0000000000000000e+00 +4.8499999421641018e+00 -2.9213375882512157e-02 -5.2429197142446571e-01 +4.9539667827789300e-03
4.8999999999999906e+00 +8.5263379599856286e+00 +0.0000000000000000e+00 +4.8999999403553547e+00 -2.9215393415916530e-02 -5.2432280920223939e-01 +4.9524908616018354e-03
4.9499999999999904e+00 +8.5263243728594471e+00 +0.0000000000000000e+00 +4.9499999385092384e+00 -2.9217425877665612e-02 -5.2435386813694951e-01 +4.9510330287845022e-03
4.9999999999999902e+00 +8.5263106475056940e+00 +0.0000000000000000e+00 +4.9999999366253691e+00 -2.9219473184761698e-02 -5.2438514531050306e-01 +4.9495933482624115e-03
5.0499999999999901e+00 +8.5262967839161252e+00 +0.0000000000000000e+00 +5.0499999347033624e+00 -2.9221535254205424e-02 -5.2441663780480230e-01 +4.9481718839718778e-03
5.0999999999999899e+00 +8.5262827820824381e+00 +0.0000000000000000e+00 +5.0999999327428327e+00 -2.9223612002995690e-02 -5.2444834270174245e-01 +4.9467686998500475e-03
5.1499999999999897e+00 +8.5262686419962748e+00 +0.0000000000000000e+00 +5.1499999307433963e+00 -2.9225703348129631e-02 -5.2448025708321366e-01 +4.9453838598348928e-03
5.1999999999999895e+00 +8.5262543636492225e+00 +0.0000000000000000e+00 +5.1999999287046688e+00 -2.9227809206602482e-02 -5.2451237803109863e-01 +4.9440174278652018e-03
5.2499999999999893e+00 +8.5262399470328134e+00 +0.0000000000000000e+00 +5.2499999266262645e+00 -2.9229929495407595e-02 -5.2454470262727437e-01 +4.9426694678805904e-03
5.2999999999999892e+00 +8.5262253921385280e+00 +0.0000000000000000e+00 +5.2999999245077989e+00 -2.9232064131536322e-02 -5.2457722795360950e-01 +4.9413400438214836e-03
5.3499999999999890e+00 +8.5262106989577902e+00 +0.0000000000000000e+00 +5.3499999223488874e+00 -2.9234213031978012e-02 -5.2460995109196629e-01 +4.9400292196291190e-03
5.3999999999999888e+00 +8.5261958674819756e+00 +0.0000000000000000e+00 +5.3999999201491446e+00 -2.9236376113719854e-02 -5.2464286912419777e-01 +4.9387370592455376e-03
5.4499999999999886e+00 +8.5261808977024049e+00 +0.0000000000000000e+00 +5.4499999179081859e+00 -2.9238553293746933e-02 -5.2467597913215047e-01 +4.9374636266135852e-03
5.4999999999999885e+00 +8.5261657896103511e+00 +0.0000000000000000e+00 +5.4999999156256258e+00 -2.9240744489042087e-02 -5.2470927819766111e-01 +4.9362089856769065e-03
5.5499999999999883e+00 +8.5261505431970370e+00 +0.0000000000000000e+00 +5.5499999133010789e+00 -2.9242949616585842e-02 -5.2474276340255865e-01 +4.9349732003799414e-03
5.5999999999999881e+00 +8.5261351584536342e+00 +0.0000000000000000e+00 +5.5999999109341596e+00 -2.9245168593356428e-02 -5.2477643182866240e-01 +4.9337563346679202e-03
5.6499999999999879e+00 +8.5261196353712680e+00 +0.0000000000000000e+00 +5.6499999085244825e+00 -2.9247401336329630e-02 -5.2481028055778245e-01 +4.9325584524868571e-03
5.6999999999999877e+00 +8.5261039739410158e+00 +0.0000000000000000e+00 +5.6999999060716622e+00 -2.9249647762478782e-02 -5.2484430667171889e-01 +4.9313796177835609e-03
5.7499999999999876e+00 +8.5260881741539070e+00 +0.0000000000000000e+00 +5.7499999035753131e+00 -2.9251907788774657e-02 -5.2487850725226193e-01 +4.9302198945056063e-03
5.7999999999999874e+00 +8.5260722360009265e+00 +0.0000000000000000e+00 +5.7999999010350498e+00 -2.9254181332185464e-02 -5.2491287938119124e-01 +4.9290793466013495e-03
5.8499999999999872e+00 +8.5260561594730131e+00 +0.0000000000000000e+00 +5.8499998984504860e+00 -2.9256468309676750e-02 -5.2494742014027629e-01 +4.9279580380199228e-03
5.8999999999999870e+00 +8.5260399445610631e+00 +0.0000000000000000e+00 +5.8999998958212361e+00 -2.9258768638211318e-02 -5.2498212661127464e-01 +4.9268560327112151e-03
