# field on trajectory
# s[mm] rx[mm] ry[mm] rz[mm] bx[T] by[T] bz[T]
0.0000000000000000e+00 +8.2850000000000001e+00 +0.0000000000000000e+00 +0.0000000000000000e+00 -3.1218442615975263e-02 -5.8083178243387112e-01 +5.2235977176424732e-03
-5.0000000000000003e-02 +8.2849999308509474e+00 +0.0000000000000000e+00 -4.9999999999936241e-02 -3.1217745008739976e-02 -5.8083297548271351e-01 +5.2255368700324604e-03
-1.0000000000000001e-01 +8.2849997234035868e+00 +0.0000000000000000e+00 -9.9999999999489969e-02 -3.1217070539433251e-02 -5.8083454260329948e-01 +5.2274886491816787e-03
-1.5000000000000002e-01 +8.2849993776575435e+00 +0.0000000000000000e+00 -1.4999999999827862e-01 -3.1216419249490639e-02 -5.8083648300990487e-01 +5.2294528875826201e-03
-2.0000000000000001e-01 +8.2849988936123555e+00 +0.0000000000000000e+00 -1.9999999999591969e-01 -3.1215791180349468e-02 -5.8083879591682230e-01 +5.2314294177283269e-03
-2.5000000000000000e-01 +8.2849982712674741e+00 +0.0000000000000000e+00 -2.4999999999203062e-01 -3.1215186373448885e-02 -5.8084148053836226e-01 +5.2334180721123752e-03
-2.9999999999999999e-01 +8.2849975106222580e+00 +0.0000000000000000e+00 -2.9999999998622889e-01 -3.1214604870229749e-02 -5.8084453608885245e-01 +5.2354186832288671e-03
-3.4999999999999998e-01 +8.2849966116759806e+00 +0.0000000000000000e+00 -3.4999999997813191e-01 -3.1214046712134548e-02 -5.8084796178263731e-01 +5.2374310835724049e-03
-3.9999999999999997e-01 +8.2849955744278265e+00 +0.0000000000000000e+00 -3.9999999996735713e-01 -3.1213511940607331e-02 -5.8085175683407864e-01 +5.2394551056380726e-03
-4.4999999999999996e-01 +8.2849943988768917e+00 +0.0000000000000000e+00 -4.4999999995352202e-01 -3.1213000597093692e-02 -5.8085592045755496e-01 +5.2414905819214205e-03
-4.9999999999999994e-01 +8.2849930850221849e+00 +0.0000000000000000e+00 -4.9999999993624394e-01 -3.1212512723040653e-02 -5.8086045186746127e-01 +5.2435373449184483e-03
-5.4999999999999993e-01 +8.2849916328626261e+00 +0.0000000000000000e+00 -5.4999999991514037e-01 -3.1212048359896650e-02 -5.8086535027821040e-01 +5.2455952271255870e-03
-5.9999999999999998e-01 +8.2849900423970499e+00 +0.0000000000000000e+00 -5.9999999988982866e-01 -3.1211607549111377e-02 -5.8087061490422986e-01 +5.2476640610396768e-03
-6.5000000000000002e-01 +8.2849883136242042e+00 +0.0000000000000000e+00 -6.4999999985992618e-01 -3.1211190332135853e-02 -5.8087624495996493e-01 +5.2497436791579602e-03
-7.0000000000000007e-01 +8.2849864465427476e+00 +0.0000000000000000e+00 -6.9999999982505035e-01 -3.1210796750422248e-02 -5.8088223965987629e-01 +5.2518339139780504e-03
-7.5000000000000011e-01 +8.2849844411512521e+00 +0.0000000000000000e+00 -7.4999999978481846e-01 -3.1210426845423848e-02 -5.8088859821844097e-01 +5.2539345979979220e-03
-8.0000000000000016e-01 +8.2849822974482041e+00 +0.0000000000000000e+00 -7.9999999973884794e-01 -3.1210080658595016e-02 -5.8089531985015175e-01 +5.2560455637158969e-03
-8.5000000000000020e-01 +8.2849800154320032e+00 +0.0000000000000000e+00 -8.4999999968675599e-01 -3.1209758231391122e-02 -5.8090240376951807e-01 +5.2581666436306131e-03
-9.0000000000000024e-01 +8.2849775951009619e+00 +0.0000000000000000e+00 -8.9999999962816002e-01 -3.1209459605268459e-02 -5.8090984919106381e-01 +5.2602976702410221e-03
-9.5000000000000029e-01 +8.2849750364533090e+00 +0.0000000000000000e+00 -9.4999999956267733e-01 -3.1209184821684180e-02 -5.8091765532932904e-01 +5.2624384760463633e-03
-1.0000000000000002e+00 +8.2849723394871848e+00 +0.0000000000000000e+00 -9.9999999948992513e-01 -3.1208933922096230e-02 -5.8092582139886983e-01 +5.2645888935461431e-03
-1.0500000000000003e+00 +8.2849695042006442e+00 +0.0000000000000000e+00 -1.0499999994095206e+00 -3.1208706947963329e-02 -5.8093434661425669e-01 +5.2667487552401273e-03
-1.1000000000000003e+00 +8.2849665305916584e+00 +0.0000000000000000e+00 -1.0999999993210812e+00 -3.1208503940744817e-02 -5.8094323019007521e-01 +5.2689178936283151e-03
-1.1500000000000004e+00 +8.2849634186581138e+00 +0.0000000000000000e+00 -1.1499999992242240e+00 -3.1208324941900671e-02 -5.8095247134092676e-01 +5.2710961412109208e-03
-1.2000000000000004e+00 +8.2849601683978076e+00 +0.0000000000000000e+00 -1.1999999991185661e+00 -3.1208169992891416e-02 -5.8096206928142657e-01 +5.2732833304883608e-03
-1.2500000000000004e+00 +8.2849567798084554e+00 +0.0000000000000000e+00 -1.2499999990037249e+00 -3.1208039135178042e-02 -5.8097202322620600e-01 +5.2754792939612412e-03
-1.3000000000000005e+00 +8.2849532528876875e+00 +0.0000000000000000e+00 -1.2999999988793174e+00 -3.1207932410221972e-02 -5.8098233238991015e-01 +5.2776838641303246e-03
-1.3500000000000005e+00 +8.2849495876330490e+00 +0.0000000000000000e+00 -1.3499999987449605e+00 -3.1207849859484934e-02 -5.8099299598719834e-01 +5.2798968734965191e-03
-1.4000000000000006e+00 +8.2849457840420015e+00 +0.0000000000000000e+00 -1.3999999986002716e+00 -3.1207791524429002e-02 -5.8100401323274520e-01 +5.2821181545608742e-03
-1.4500000000000006e+00 +8.2849418421119214e+00 +0.0000000000000000e+00 -1.4499999984448675e+00 -3.1207757446516406e-02 -5.8101538334123914e-01 +5.2843475398245410e-03
-1.5000000000000007e+00 +8.2849377618401014e+00 +0.0000000000000000e+00 -1.4999999982783654e+00 -3.1207747667209587e-02 -5.8102710552738246e-01 +5.2865848617887675e-03
-1.5500000000000007e+00 +8.2849335432237492e+00 +0.0000000000000000e+00 -1.5499999981003822e+00 -3.1207762227971038e-02 -5.8103917900589142e-01 +5.2888299529548800e-03
-1.6000000000000008e+00 +8.2849291862599923e+00 +0.0000000000000000e+00 -1.5999999979105350e+00 -3.1207801170263279e-02 -5.8105160299149672e-01 +5.2910826458242586e-03
-1.6500000000000008e+00 +8.2849246909458714e+00 +0.0000000000000000e+00 -1.6499999977084405e+00 -3.1207864535548812e-02 -5.8106437669894240e-01 +5.2933427728983316e-03
-1.7000000000000008e+00 +8.2849200572783452e+00 +0.0000000000000000e+00 -1.6999999974937159e+00 -3.1207952365290014e-02 -5.8107749934298591e-01 +5.2956101666785478e-03
-1.7500000000000009e+00 +8.2849152852542893e+00 +0.0000000000000000e+00 -1.7499999972659779e+00 -3.1208064700949108e-02 -5.8109097013839861e-01 +5.2978846596663590e-03
-1.8000000000000009e+00 +8.2849103748704955e+00 +0.0000000000000000e+00 -1.7999999970248433e+00 -3.1208201583988085e-02 -5.8110478829996504e-01 +5.3001660843632076e-03
-1.8500000000000010e+00 +8.2849053261236740e+00 +0.0000000000000000e+00 -1.8499999967699288e+00 -3.1208363055868611e-02 -5.8111895304248229e-01 +5.3024542732705042e-03
-1.9000000000000010e+00 +8.2849001390104533e+00 +0.0000000000000000e+00 -1.8999999965008514e+00 -3.1208549158052025e-02 -5.8113346358076134e-01 +5.3047490588896172e-03
-1.9500000000000011e+00 +8.2848948135273783e+00 +0.0000000000000000e+00 -1.9499999962172276e+00 -3.1208759931999203e-02 -5.8114831912962595e-01 +5.3070502737218393e-03
-2.0000000000000009e+00 +8.2848893496709106e+00 +0.0000000000000000e+00 -1.9999999959186745e+00 -3.1208995419170559e-02 -5.8116351890391260e-01 +5.3093577502683923e-03
-2.0500000000000007e+00 +8.2848837474374317e+00 +0.0000000000000000e+00 -2.0499999956048085e+00 -3.1209255603381864e-02 -5.8117906189418223e-01 +5.3116713246504190e-03
-2.1000000000000005e+00 +8.2848780068232415e+00 +0.0000000000000000e+00 -2.0999999952752462e+00 -3.1209540237872341e-02 -5.8119494619385847e-01 +5.3139908474691151e-03
-2.1500000000000004e+00 +8.2848721278245581e+00 +0.0000000000000000e+00 -2.1499999949296038e+00 -3.1209849018237479e-02 -5.8121116967208841e-01 +5.3163161729456974e-03
-2.2000000000000002e+00 +8.2848661104375179e+00 +0.0000000000000000e+00 -2.1999999945674982e+00 -3.1210181640073165e-02 -5.8122773019803209e-01 +5.3186471553013700e-03
-2.2500000000000000e+00 +8.2848599546581774e+00 +0.0000000000000000e+00 -2.2499999941885460e+00 -3.1210537798975785e-02 -5.8124462564086088e-01 +5.3209836487573192e-03
-2.2999999999999998e+00 +8.2848536604825149e+00 +0.0000000000000000e+00 -2.2999999937923636e+00 -3.1210917190542063e-02 -5.8126185386975793e-01 +5.3233255075346951e-03
-2.3499999999999996e+00 +8.2848472279064289e+00 +0.0000000000000000e+00 -2.3499999933785674e+00 -3.1211319510369241e-02 -5.8127941275391859e-01 +5.3256725858546149e-03
-2.3999999999999995e+00 +8.2848406569257378e+00 +0.0000000000000000e+00 -2.3999999929467735e+00 -3.1211744454054956e-02 -5.8129730016254932e-01 +5.3280247379381409e-03
-2.4499999999999993e+00 +8.2848339475361819e+00 +0.0000000000000000e+00 -2.4499999924965983e+00 -3.1212191717197298e-02 -5.8131551396486847e-01 +5.3303818180062777e-03
-2.4999999999999991e+00 +8.2848270997334250e+00 +0.0000000000000000e+00 -2.4999999920276581e+00 -3.1212660995394815e-02 -5.8133405203010469e-01 +5.3327436802799583e-03
-2.5499999999999989e+00 +8.2848201135130548e+00 +0.0000000000000000e+00 -2.5499999915395692e+00 -3.1213151984246425e-02 -5.8135291222749896e-01 +5.3351101789800379e-03
-2.5999999999999988e+00 +8.2848129888705788e+00 +0.0000000000000000e+00 -2.5999999910319480e+00 -3.1213664379351566e-02 -5.8137209242630183e-01 +5.3374811683272868e-03
-2.6499999999999986e+00 +8.2848057258014300e+00 +0.0000000000000000e+00 -2.6499999905044103e+00 -3.1214197876310065e-02 -5.8139159049577593e-01 +5.3398565025423624e-03
-2.6999999999999984e+00 +8.2847983243009669e+00 +0.0000000000000000e+00 -2.6999999899565723e+00 -3.1214752170722209e-02 -5.8141140430519378e-01 +5.3422360358458317e-03
-2.7499999999999982e+00 +8.2847907843644730e+00 +0.0000000000000000e+00 -2.7499999893880500e+00 -3.1215326958188728e-02 -5.8143153172383866e-01 +5.3446196224581294e-03
-2.7999999999999980e+00 +8.2847831059871542e+00 +0.0000000000000000e+00 -2.7999999887984592e+00 -3.1215921934310793e-02 -5.8145197062100440e-01 +5.3470071165995676e-03
-2.8499999999999979e+00 +8.2847752891641449e+00 +0.0000000000000000e+00 -2.8499999881874158e+00 -3.1216536794690022e-02 -5.8147271886599483e-01 +5.3493983724903181e-03
-2.8999999999999977e+00 +8.2847673338905050e+00 +0.0000000000000000e+00 -2.8999999875545361e+00 -3.1217171234928488e-02 -5.8149377432812421e-01 +5.3517932443504094e-03
-2.9499999999999975e+00 +8.2847592401612200e+00 +0.0000000000000000e+00 -2.9499999868994355e+00 -3.1217824950628685e-02 -5.8151513487671580e-01 +5.3541915863997026e-03
-2.9999999999999973e+00 +8.2847510079712059e+00 +0.0000000000000000e+00 -2.9999999862217299e+00 -3.1218497637393577e-02 -5.8153679838110428e-01 +5.3565932528579037e-03
-3.0499999999999972e+00 +8.2847426373153024e+00 +0.0000000000000000e+00 -3.0499999855210351e+00 -3.1219188990826562e-02 -5.8155876271063256e-01 +5.3589980979445303e-03
-3.0999999999999970e+00 +8.2847341281882816e+00 +0.0000000000000000e+00 -3.0999999847969666e+00 -3.1219898706531510e-02 -5.8158102573465387e-01 +5.3614059758789172e-03
-3.1499999999999968e+00 +8.2847254805848429e+00 +0.0000000000000000e+00 -3.1499999840491402e+00 -3.1220626480112718e-02 -5.8160358532253031e-01 +5.3638167408802057e-03
-3.1999999999999966e+00 +8.2847166944996129e+00 +0.0000000000000000e+00 -3.1999999832771713e+00 -3.1221372007174942e-02 -5.8162643934363345e-01 +5.3662302471673253e-03
-3.2499999999999964e+00 +8.2847077699271523e+00 +0.0000000000000000e+00 -3.2499999824806753e+00 -3.1222134983323404e-02 -5.8164958566734437e-01 +5.3686463489589879e-03
-3.2999999999999963e+00 +8.2846987068619491e+00 +0.0000000000000000e+00 -3.2999999816592678e+00 -3.1222915104163751e-02 -5.8167302216305250e-01 +5.3710649004736835e-03
-3.3499999999999961e+00 +8.2846895052984220e+00 +0.0000000000000000e+00 -3.3499999808125640e+00 -3.1223712065302108e-02 -5.8169674670015659e-01 +5.3734857559296668e-03
-3.3999999999999959e+00 +8.2846801652309239e+00 +0.0000000000000000e+00 -3.3999999799401794e+00 -3.1224525562345055e-02 -5.8172075714806326e-01 +5.3759087695449377e-03
-3.4499999999999957e+00 +8.2846706866537367e+00 +0.0000000000000000e+00 -3.4499999790417291e+00 -3.1225355290899610e-02 -5.8174505137618837e-01 +5.3783337955372462e-03
-3.4999999999999956e+00 +8.2846610695610767e+00 +0.0000000000000000e+00 -3.4999999781168283e+00 -3.1226200946573267e-02 -5.8176962725395598e-01 +5.3807606881240821e-03
-3.5499999999999954e+00 +8.2846513139470925e+00 +0.0000000000000000e+00 -3.5499999771650921e+00 -3.1227062224973987e-02 -5.8179448265079881e-01 +5.3831893015226524e-03
-3.5999999999999952e+00 +8.2846414198058653e+00 +0.0000000000000000e+00 -3.5999999761861359e+00 -3.1227938821710148e-02 -5.8181961543615646e-01 +5.3856194899498736e-03
-3.6499999999999950e+00 +8.2846313871314123e+00 +0.0000000000000000e+00 -3.6499999751795742e+00 -3.1228830432390633e-02 -5.8184502347947797e-01 +5.3880511076223811e-03
-3.6999999999999948e+00 +8.2846212159176833e+00 +0.0000000000000000e+00 -3.6999999741450225e+00 -3.1229736752624766e-02 -5.8187070465021884e-01 +5.3904840087564947e-03
-3.7499999999999947e+00 +8.2846109061585640e+00 +0.0000000000000000e+00 -3.7499999730820952e+00 -3.1230657478022332e-02 -5.8189665681784364e-01 +5.3929180475682219e-03
-3.7999999999999945e+00 +8.2846004578478745e+00 +0.0000000000000000e+00 -3.7999999719904074e+00 -3.1231592304193589e-02 -5.8192287785182306e-01 +5.3953530782732476e-03
-3.8499999999999943e+00 +8.2845898709793708e+00 +0.0000000000000000e+00 -3.8499999708695736e+00 -3.1232540926749250e-02 -5.8194936562163624e-01 +5.3977889550869225e-03
-3.8999999999999941e+00 +8.2845791455467470e+00 +0.0000000000000000e+00 -3.8999999697192087e+00 -3.1233503041300504e-02 -5.8197611799676852e-01 +5.4002255322242463e-03
-3.9499999999999940e+00 +8.2845682815436348e+00 +0.0000000000000000e+00 -3.9499999685389269e+00 -3.1234478343459004e-02 -5.8200313284671401e-01 +5.4026626638998760e-03
-3.9999999999999938e+00 +8.2845572789636002e+00 +0.0000000000000000e+00 -3.9999999673283431e+00 -3.1235466528836856e-02 -5.8203040804097195e-01 +5.4051002043280939e-03
-4.0499999999999936e+00 +8.2845461378001506e+00 +0.0000000000000000e+00 -4.0499999660870714e+00 -3.1236467341321360e-02 -5.8205794131510258e-01 +5.4075380112592964e-03
-4.0999999999999934e+00 +8.2845348580467277e+00 +0.0000000000000000e+00 -4.0999999648147272e+00 -3.1237480717899672e-02 -5.8208572986888452e-01 +5.4099759565895003e-03
-4.1499999999999932e+00 +8.2845234396967182e+00 +0.0000000000000000e+00 -4.1499999635109237e+00 -3.1238506643834728e-02 -5.8211377076814941e-01 +5.4124139157509564e-03
-4.1999999999999931e+00 +8.2845118827434430e+00 +0.0000000000000000e+00 -4.1999999621752764e+00 -3.1239545104390459e-02 -5.8214206107872901e-01 +5.4148517641756681e-03
-4.2499999999999929e+00 +8.2845001871801678e+00 +0.0000000000000000e+00 -4.2499999608073979e+00 -3.1240596084831755e-02 -5.8217059786645442e-01 +5.4172893772953777e-03
-4.2999999999999927e+00 +8.2844883530000981e+00 +0.0000000000000000e+00 -4.2999999594069038e+00 -3.1241659570424494e-02 -5.8219937819715528e-01 +5.4197266305415622e-03
-4.3499999999999925e+00 +8.2844763801963808e+00 +0.0000000000000000e+00 -4.3499999579734077e+00 -3.1242735546435557e-02 -5.8222839913666091e-01 +5.4221633993454255e-03
-4.3999999999999924e+00 +8.2844642687621057e+00 +0.0000000000000000e+00 -4.3999999565065231e+00 -3.1243823998132879e-02 -5.8225765775079885e-01 +5.4245995591379100e-03
-4.4499999999999922e+00 +8.2844520186903079e+00 +0.0000000000000000e+00 -4.4499999550058646e+00 -3.1244924910785378e-02 -5.8228715110539453e-01 +5.4270349853496672e-03
-4.4999999999999920e+00 +8.2844396299739635e+00 +0.0000000000000000e+00 -4.4999999534710460e+00 -3.1246038269663077e-02 -5.8231687626627104e-01 +5.4294695534110645e-03
-4.5499999999999918e+00 +8.2844271026059957e+00 +0.0000000000000000e+00 -4.5499999519016807e+00 -3.1247164060037042e-02 -5.8234683029924916e-01 +5.4319031387521800e-03
-4.5999999999999917e+00 +8.2844144365792722e+00 +0.0000000000000000e+00 -4.5999999502973825e+00 -3.1248302267179416e-02 -5.8237701027014632e-01 +5.4343356168027965e-03
-4.6499999999999915e+00 +8.2844016318866078e+00 +0.0000000000000000e+00 -4.6499999486577650e+00 -3.1249452876363451e-02 -5.8240741324477752e-01 +5.4367668629923946e-03
-4.6999999999999913e+00 +8.2843886885207620e+00 +0.0000000000000000e+00 -4.6999999469824418e+00 -3.1250615872863520e-02 -5.8243803628895341e-01 +5.4391967527501464e-03
-4.7499999999999911e+00 +8.2843756064744447e+00 +0.0000000000000000e+00 -4.7499999452710266e+00 -3.1251791241955089e-02 -5.8246887646848067e-01 +5.4416251615049122e-03
-4.7999999999999909e+00 +8.2843623857403141e+00 +0.0000000000000000e+00 -4.7999999435231322e+00 -3.1252978968914824e-02 -5.8249993084916241e-01 +5.4440519646852354e-03
-4.8499999999999908e+00 +8.2843490263109754e+00 +0.0000000000000000e+00 -4.8499999417383730e+00 -3.1254179039020516e-02 -5.8253119649679641e-01 +5.4464770377193336e-03
-4.8999999999999906e+00 +8.2843355281789837e+00 +0.0000000000000000e+00 -4.8999999399163610e+00 -3.1255391437551142e-02 -5.8256267047717614e-01 +5.4489002560351024e-03
-4.9499999999999904e+00 +8.2843218913368446e+00 +0.0000000000000000e+00 -4.9499999380567106e+00 -3.1256616149786823e-02 -5.8259434985608871e-01 +5.4513214950600887e-03
-4.9999999999999902e+00 +8.2843081157770158e+00 +0.0000000000000000e+00 -4.9999999361590337e+00 -3.1257853161008972e-02 -5.8262623169931693e-01 +5.4537406302215177e-03
-5.0499999999999901e+00 +8.2842942014919068e+00 +0.0000000000000000e+00 -5.0499999342229440e+00 -3.1259102456500161e-02 -5.8265831307263660e-01 +5.4561575369462536e-03
-5.0999999999999899e+00 +8.2842801484738793e+00 +0.0000000000000000e+00 -5.0999999322480551e+00 -3.1260364021544210e-02 -5.8269059104181831e-01 +5.4585720906608235e-03
-5.1499999999999897e+00 +8.2842659567152470e+00 +0.0000000000000000e+00 -5.1499999302339790e+00 -3.1261637841426181e-02 -5.8272306267262453e-01 +5.4609841667913883e-03
-5.1999999999999895e+00 +8.2842516262082793e+00 +0.0000000000000000e+00 -5.1999999281803282e+00 -3.1262923901432448e-02 -5.8275572503081186e-01 +5.4633936407637532e-03
-5.2499999999999893e+00 +8.2842371569451974e+00 +0.0000000000000000e+00 -5.2499999260867165e+00 -3.1264222186850620e-02 -5.8278857518212934e-01 +5.4658003880033558e-03
-5.2999999999999892e+00 +8.2842225489181818e+00 +0.0000000000000000e+00 -5.2999999239527558e+00 -3.1265532682969610e-02 -5.8282161019231793e-01 +5.4682042839352563e-03
-5.3499999999999890e+00 +8.2842078021193668e+00 +0.0000000000000000e+00 -5.3499999217780587e+00 -3.1266855375079651e-02 -5.8285482712711134e-01 +5.4706052039841455e-03
-5.3999999999999888e+00 +8.2841929165408423e+00 +0.0000000000000000e+00 -5.3999999195622381e+00 -3.1268190248472320e-02 -5.8288822305223420e-01 +5.4730030235743280e-03
-5.4499999999999886e+00 +8.2841778921746592e+00 +0.0000000000000000e+00 -5.4499999173049058e+00 -3.1269537288440494e-02 -5.8292179503340302e-01 +5.4753976181297149e-03
-5.4999999999999885e+00 +8.2841627290128219e+00 +0.0000000000000000e+00 -5.4999999150056746e+00 -3.1270896480278462e-02 -5.8295554013632456e-01 +5.4777888630738293e-03
-5.5499999999999883e+00 +8.2841474270472961e+00 +0.0000000000000000e+00 -5.5499999126641573e+00 -3.1272267809281842e-02 -5.8298945542669722e-01 +5.4801766338297975e-03
-5.5999999999999881e+00 +8.2841319862700065e+00 +0.0000000000000000e+00 -5.5999999102799647e+00 -3.1273651260747673e-02 -5.8302353797020878e-01 +5.4825608058203280e-03
-5.6499999999999879e+00 +8.2841164066728386e+00 +0.0000000000000000e+00 -5.6499999078527097e+00 -3.1275046819974381e-02 -5.8305778483253734e-01 +5.4849412544677361e-03
-5.6999999999999877e+00 +8.2841006882476389e+00 +0.0000000000000000e+00 -5.6999999053820050e+00 -3.1276454472261808e-02 -5.8309219307935112e-01 +5.4873178551939055e-03
-5.7499999999999876e+00 +8.2840848309862132e+00 +0.0000000000000000e+00 -5.7499999028674615e+00 -3.1277874202911220e-02 -5.8312675977630690e-01 +5.4896904834203127e-03
-5.7999999999999874e+00 +8.2840688348803333e+00 +0.0000000000000000e+00 -5.7999999003086913e+00 -3.1279305997225386e-02 -5.8316148198905027e-01 +5.4920590145679949e-03
-5.8499999999999872e+00 +8.2840526999217303e+00 +0.0000000000000000e+00 -5.8499998977053060e+00 -3.1280749840508486e-02 -5.8319635678321613e-01 +5.4944233240575655e-03
