# trajectory
# s[mm] rx[mm] ry[mm] rz[mm] px[rad] py[rad] pz[rad]
0.0000000000000000e+00 +8.5980000000000008e+00 +0.0000000000000000e+00 +0.0000000000000000e+00 +0.0000000000000000e+00 +0.0000000000000000e+00 +1.0000000000000000e+00
-5.0000000000000003e-02 +8.5979999311239688e+00 +0.0000000000000000e+00 -4.9999999999936748e-02 +2.7550411392043286e-06 +0.0000000000000000e+00 +9.9999999999620492e-01
-1.0000000000000001e-01 +8.5979997244958888e+00 +0.0000000000000000e+00 -9.9999999999493980e-02 +5.5100822169838024e-06 +0.0000000000000000e+00 +9.9999999998481959e-01
-1.5000000000000002e-01 +8.5979993801157146e+00 +0.0000000000000000e+00 -1.4999999999829219e-01 +8.2651252095963715e-06 +0.0000000000000000e+00 +9.9999999996584399e-01
-2.0000000000000001e-01 +8.5979988979833024e+00 +0.0000000000000000e+00 -1.9999999999595186e-01 +1.1020172088768948e-05 +0.0000000000000000e+00 +9.9999999993927802e-01
-2.5000000000000000e-01 +8.5979982780984088e+00 +0.0000000000000000e+00 -2.4999999999209349e-01 +1.3775224821697493e-05 +0.0000000000000000e+00 +9.9999999990512167e-01
-2.9999999999999999e-01 +8.5979975204606909e+00 +0.0000000000000000e+00 -2.9999999998633753e-01 +1.6530285371047108e-05 +0.0000000000000000e+00 +9.9999999986337496e-01
-3.4999999999999998e-01 +8.5979966250697082e+00 +0.0000000000000000e+00 -3.4999999997830444e-01 +1.9285355694952136e-05 +0.0000000000000000e+00 +9.9999999981403764e-01
-3.9999999999999997e-01 +8.5979955919249242e+00 +0.0000000000000000e+00 -3.9999999996761476e-01 +2.2040437747016237e-05 +0.0000000000000000e+00 +9.9999999975710963e-01
-4.4999999999999996e-01 +8.5979944210257049e+00 +0.0000000000000000e+00 -4.4999999995388890e-01 +2.4795533476312495e-05 +0.0000000000000000e+00 +9.9999999969259079e-01
-4.9999999999999994e-01 +8.5979931123713165e+00 +0.0000000000000000e+00 -4.9999999993674732e-01 +2.7550644827383498e-05 +0.0000000000000000e+00 +9.9999999962048103e-01
-5.4999999999999993e-01 +8.5979916659609295e+00 +0.0000000000000000e+00 -5.4999999991581050e-01 +3.0305773740241432e-05 +0.0000000000000000e+00 +9.9999999954078012e-01
-5.9999999999999998e-01 +8.5979900817936166e+00 +0.0000000000000000e+00 -5.9999999989069885e-01 +3.3060922150368169e-05 +0.0000000000000000e+00 +9.9999999945348783e-01
-6.5000000000000002e-01 +8.5979883598683564e+00 +0.0000000000000000e+00 -6.4999999986103274e-01 +3.5816091988715355e-05 +0.0000000000000000e+00 +9.9999999935860384e-01
-7.0000000000000007e-01 +8.5979865001840281e+00 +0.0000000000000000e+00 -6.9999999982643268e-01 +3.8571285181704498e-05 +0.0000000000000000e+00 +9.9999999925612804e-01
-7.5000000000000011e-01 +8.5979845027394166e+00 +0.0000000000000000e+00 -7.4999999978651899e-01 +4.1326503651227058e-05 +0.0000000000000000e+00 +9.9999999914606008e-01
-8.0000000000000016e-01 +8.5979823675332092e+00 +0.0000000000000000e+00 -7.9999999974091207e-01 +4.4081749314644533e-05 +0.0000000000000000e+00 +9.9999999902839976e-01
-8.5000000000000020e-01 +8.5979800945639990e+00 +0.0000000000000000e+00 -8.4999999968923234e-01 +4.6837024084788545e-05 +0.0000000000000000e+00 +9.9999999890314661e-01
-9.0000000000000024e-01 +8.5979776838302833e+00 +0.0000000000000000e+00 -8.9999999963110011e-01 +4.9592329869960932e-05 +0.0000000000000000e+00 +9.9999999877030044e-01
-9.5000000000000029e-01 +8.5979751353304632e+00 +0.0000000000000000e+00 -9.4999999956613579e-01 +5.2347668573933824e-05 +0.0000000000000000e+00 +9.9999999862986078e-01
-1.0000000000000002e+00 +8.5979724490628460e+00 +0.0000000000000000e+00 -9.9999999949395968e-01 +5.5103042095949730e-05 +0.0000000000000000e+00 +9.9999999848182730e-01
-1.0500000000000003e+00 +8.5979696250256428e+00 +0.0000000000000000e+00 -1.0499999994141920e+00 +5.7858452330721640e-05 +0.0000000000000000e+00 +9.9999999832619968e-01
-1.1000000000000003e+00 +8.5979666632169707e+00 +0.0000000000000000e+00 -1.0999999993264531e+00 +6.0613901168433079e-05 +0.0000000000000000e+00 +9.9999999816297747e-01
-1.1500000000000004e+00 +8.5979635636348526e+00 +0.0000000000000000e+00 -1.1499999992303631e+00 +6.3369390494738225e-05 +0.0000000000000000e+00 +9.9999999799216011e-01
-1.2000000000000004e+00 +8.5979603262772155e+00 +0.0000000000000000e+00 -1.1999999991255423e+00 +6.6124922190761965e-05 +0.0000000000000000e+00 +9.9999999781374727e-01
-1.2500000000000004e+00 +8.5979569511418958e+00 +0.0000000000000000e+00 -1.2499999990116111e+00 +6.8880498133099986e-05 +0.0000000000000000e+00 +9.9999999762773839e-01
-1.3000000000000005e+00 +8.5979534382266340e+00 +0.0000000000000000e+00 -1.2999999988881896e+00 +7.1636120193818863e-05 +0.0000000000000000e+00 +9.9999999743413304e-01
-1.3500000000000005e+00 +8.5979497875290765e+00 +0.0000000000000000e+00 -1.3499999987548978e+00 +7.4391790240456134e-05 +0.0000000000000000e+00 +9.9999999723293065e-01
-1.4000000000000006e+00 +8.5979459990467788e+00 +0.0000000000000000e+00 -1.3999999986113560e+00 +7.7147510136020380e-05 +0.0000000000000000e+00 +9.9999999702413067e-01
-1.4500000000000006e+00 +8.5979420727772009e+00 +0.0000000000000000e+00 -1.4499999984571843e+00 +7.9903281738991333e-05 +0.0000000000000000e+00 +9.9999999680773266e-01
-1.5000000000000007e+00 +8.5979380087177120e+00 +0.0000000000000000e+00 -1.4999999982920027e+00 +8.2659106903319905e-05 +0.0000000000000000e+00 +9.9999999658373595e-01
-1.5500000000000007e+00 +8.5979338068655871e+00 +0.0000000000000000e+00 -1.5499999981154313e+00 +8.5414987478428311e-05 +0.0000000000000000e+00 +9.9999999635213987e-01
-1.6000000000000008e+00 +8.5979294672180107e+00 +0.0000000000000000e+00 -1.5999999979270900e+00 +8.8170925309210145e-05 +0.0000000000000000e+00 +9.9999999611294388e-01
-1.6500000000000008e+00 +8.5979249897720713e+00 +0.0000000000000000e+00 -1.6499999977265989e+00 +9.0926922236030425e-05 +0.0000000000000000e+00 +9.9999999586614730e-01
-1.7000000000000008e+00 +8.5979203745247705e+00 +0.0000000000000000e+00 -1.6999999975135780e+00 +9.3682980094725717e-05 +0.0000000000000000e+00 +9.9999999561174946e-01
-1.7500000000000009e+00 +8.5979156214730157e+00 +0.0000000000000000e+00 -1.7499999972876472e+00 +9.6439100716604168e-05 +0.0000000000000000e+00 +9.9999999534974982e-01
-1.8000000000000009e+00 +8.5979107306136218e+00 +0.0000000000000000e+00 -1.7999999970484264e+00 +9.9195285928445622e-05 +0.0000000000000000e+00 +9.9999999508014747e-01
-1.8500000000000010e+00 +8.5979057019433149e+00 +0.0000000000000000e+00 -1.8499999967955354e+00 +1.0195153755250168e-04 +0.0000000000000000e+00 +9.9999999480294188e-01
-1.9000000000000010e+00 +8.5979005354587290e+00 +0.0000000000000000e+00 -1.8999999965285939e+00 +1.0470785740649579e-04 +0.0000000000000000e+00 +9.9999999451813215e-01
-1.9500000000000011e+00 +8.5978952311564072e+00 +0.0000000000000000e+00 -1.9499999962472219e+00 +1.0746424730362327e-04 +0.0000000000000000e+00 +9.9999999422571761e-01
-2.0000000000000009e+00 +8.5978897890328021e+00 +0.0000000000000000e+00 -1.9999999959510388e+00 +1.1022070905255147e-04 +0.0000000000000000e+00 +9.9999999392569749e-01
-2.0500000000000007e+00 +8.5978842090842758e+00 +0.0000000000000000e+00 -2.0499999956396646e+00 +1.1297724445714334e-04 +0.0000000000000000e+00 +9.9999999361807101e-01
-2.1000000000000005e+00 +8.5978784913070996e+00 +0.0000000000000000e+00 -2.0999999953127189e+00 +1.1573385531341688e-04 +0.0000000000000000e+00 +9.9999999330283729e-01
-2.1500000000000004e+00 +8.5978726356974580e+00 +0.0000000000000000e+00 -2.1499999949698214e+00 +1.1849054340650447e-04 +0.0000000000000000e+00 +9.9999999297999553e-01
-2.2000000000000002e+00 +8.5978666422514429e+00 +0.0000000000000000e+00 -2.1999999946105917e+00 +1.2124731051037654e-04 +0.0000000000000000e+00 +9.9999999264954487e-01
-2.2500000000000000e+00 +8.5978605109650612e+00 +0.0000000000000000e+00 -2.2499999942346491e+00 +1.2400415838784159e-04 +0.0000000000000000e+00 +9.9999999231148440e-01
-2.2999999999999998e+00 +8.5978542418342290e+00 +0.0000000000000000e+00 -2.2999999938416131e+00 +1.2676108879054631e-04 +0.0000000000000000e+00 +9.9999999196581324e-01
-2.3499999999999996e+00 +8.5978478348547771e+00 +0.0000000000000000e+00 -2.3499999934311036e+00 +1.2951810345897556e-04 +0.0000000000000000e+00 +9.9999999161253050e-01
-2.3999999999999995e+00 +8.5978412900224495e+00 +0.0000000000000000e+00 -2.3999999930027394e+00 +1.3227520412245248e-04 +0.0000000000000000e+00 +9.9999999125163530e-01
-2.4499999999999993e+00 +8.5978346073329028e+00 +0.0000000000000000e+00 -2.4499999925561400e+00 +1.3503239249913854e-04 +0.0000000000000000e+00 +9.9999999088312663e-01
-2.4999999999999991e+00 +8.5978277867817088e+00 +0.0000000000000000e+00 -2.4999999920909248e+00 +1.3778967029603358e-04 +0.0000000000000000e+00 +9.9999999050700350e-01
-2.5499999999999989e+00 +8.5978208283643536e+00 +0.0000000000000000e+00 -2.5499999916067133e+00 +1.4054703920897584e-04 +0.0000000000000000e+00 +9.9999999012326501e-01
-2.5999999999999988e+00 +8.5978137320762400e+00 +0.0000000000000000e+00 -2.5999999911031244e+00 +1.4330450092264207e-04 +0.0000000000000000e+00 +9.9999998973191018e-01
-2.6499999999999986e+00 +8.5978064979126856e+00 +0.0000000000000000e+00 -2.6499999905797775e+00 +1.4606205711054752e-04 +0.0000000000000000e+00 +9.9999998933293788e-01
-2.6999999999999984e+00 +8.5977991258689261e+00 +0.0000000000000000e+00 -2.6999999900362912e+00 +1.4881970943504601e-04 +0.0000000000000000e+00 +9.9999998892634723e-01
-2.7499999999999982e+00 +8.5977916159401122e+00 +0.0000000000000000e+00 -2.7499999894722849e+00 +1.5157745954733003e-04 +0.0000000000000000e+00 +9.9999998851213701e-01
-2.7999999999999980e+00 +8.5977839681213144e+00 +0.0000000000000000e+00 -2.7999999888873779e+00 +1.5433530908743066e-04 +0.0000000000000000e+00 +9.9999998809030632e-01
-2.8499999999999979e+00 +8.5977761824075198e+00 +0.0000000000000000e+00 -2.8499999882811888e+00 +1.5709325968421778e-04 +0.0000000000000000e+00 +9.9999998766085396e-01
-2.8999999999999977e+00 +8.5977682587936357e+00 +0.0000000000000000e+00 -2.8999999876533362e+00 +1.5985131295539993e-04 +0.0000000000000000e+00 +9.9999998722377892e-01
-2.9499999999999975e+00 +8.5977601972744875e+00 +0.0000000000000000e+00 -2.9499999870034395e+00 +1.6260947050752452e-04 +0.0000000000000000e+00 +9.9999998677908009e-01
-2.9999999999999973e+00 +8.5977519978448207e+00 +0.0000000000000000e+00 -2.9999999863311171e+00 +1.6536773393597775e-04 +0.0000000000000000e+00 +9.9999998632675635e-01
-3.0499999999999972e+00 +8.5977436604993027e+00 +0.0000000000000000e+00 -3.0499999856359881e+00 +1.6812610482498473e-04 +0.0000000000000000e+00 +9.9999998586680650e-01
-3.0999999999999970e+00 +8.5977351852325210e+00 +0.0000000000000000e+00 -3.0999999849176709e+00 +1.7088458474760949e-04 +0.0000000000000000e+00 +9.9999998539922941e-01
-3.1499999999999968e+00 +8.5977265720389848e+00 +0.0000000000000000e+00 -3.1499999841757842e+00 +1.7364317526575497e-04 +0.0000000000000000e+00 +9.9999998492402387e-01
-3.1999999999999966e+00 +8.5977178209131253e+00 +0.0000000000000000e+00 -3.1999999834099464e+00 +1.7640187793016313e-04 +0.0000000000000000e+00 +9.9999998444118876e-01
-3.2499999999999964e+00 +8.5977089318492972e+00 +0.0000000000000000e+00 -3.2499999826197761e+00 +1.7916069428041496e-04 +0.0000000000000000e+00 +9.9999998395072287e-01
-3.2999999999999963e+00 +8.5976999048417770e+00 +0.0000000000000000e+00 -3.2999999818048917e+00 +1.8191962584493052e-04 +0.0000000000000000e+00 +9.9999998345262486e-01
-3.3499999999999961e+00 +8.5976907398847668e+00 +0.0000000000000000e+00 -3.3499999809649115e+00 +1.8467867414096890e-04 +0.0000000000000000e+00 +9.9999998294689363e-01
-3.3999999999999959e+00 +8.5976814369723922e+00 +0.0000000000000000e+00 -3.3999999800994538e+00 +1.8743784067462840e-04 +0.0000000000000000e+00 +9.9999998243352795e-01
-3.4499999999999957e+00 +8.5976719960987040e+00 +0.0000000000000000e+00 -3.4499999792081368e+00 +1.9019712694084637e-04 +0.0000000000000000e+00 +9.9999998191252648e-01
-3.4999999999999956e+00 +8.5976624172576788e+00 +0.0000000000000000e+00 -3.4999999782905791e+00 +1.9295653442339940e-04 +0.0000000000000000e+00 +9.9999998138388790e-01
-3.5499999999999954e+00 +8.5976527004432182e+00 +0.0000000000000000e+00 -3.5499999773463982e+00 +1.9571606459490331e-04 +0.0000000000000000e+00 +9.9999998084761099e-01
-3.5999999999999952e+00 +8.5976428456491512e+00 +0.0000000000000000e+00 -3.5999999763752126e+00 +1.9847571891681311e-04 +0.0000000000000000e+00 +9.9999998030369441e-01
-3.6499999999999950e+00 +8.5976328528692338e+00 +0.0000000000000000e+00 -3.6499999753766401e+00 +2.0123549883942305e-04 +0.0000000000000000e+00 +9.9999997975213695e-01
-3.6999999999999948e+00 +8.5976227220971495e+00 +0.0000000000000000e+00 -3.6999999743502987e+00 +2.0399540580186672e-04 +0.0000000000000000e+00 +9.9999997919293715e-01
-3.7499999999999947e+00 +8.5976124533265121e+00 +0.0000000000000000e+00 -3.7499999732958065e+00 +2.0675544123211696e-04 +0.0000000000000000e+00 +9.9999997862609369e-01
-3.7999999999999945e+00 +8.5976020465508611e+00 +0.0000000000000000e+00 -3.7999999722127806e+00 +2.0951560654698597e-04 +0.0000000000000000e+00 +9.9999997805160523e-01
-3.8499999999999943e+00 +8.5975915017636684e+00 +0.0000000000000000e+00 -3.8499999711008392e+00 +2.1227590315212527e-04 +0.0000000000000000e+00 +9.9999997746947034e-01
-3.8999999999999941e+00 +8.5975808189583347e+00 +0.0000000000000000e+00 -3.8999999699596000e+00 +2.1503633244202578e-04 +0.0000000000000000e+00 +9.9999997687968767e-01
-3.9499999999999940e+00 +8.5975699981281899e+00 +0.0000000000000000e+00 -3.9499999687886804e+00 +2.1779689580001777e-04 +0.0000000000000000e+00 +9.9999997628225590e-01
-3.9999999999999938e+00 +8.5975590392664962e+00 +0.0000000000000000e+00 -3.9999999675876978e+00 +2.2055759459827093e-04 +0.0000000000000000e+00 +9.9999997567717358e-01
-4.0499999999999936e+00 +8.5975479423664485e+00 +0.0000000000000000e+00 -4.0499999663562702e+00 +2.2331843019769297e-04 +0.0000000000000000e+00 +9.9999997506443916e-01
-4.0999999999999934e+00 +8.5975367074211739e+00 +0.0000000000000000e+00 -4.0999999650940140e+00 +2.2607940394681492e-04 +0.0000000000000000e+00 +9.9999997444405131e-01
-4.1499999999999932e+00 +8.5975253344237306e+00 +0.0000000000000000e+00 -4.1499999638005471e+00 +2.2884051718067623e-04 +0.0000000000000000e+00 +9.9999997381600858e-01
-4.1999999999999931e+00 +8.5975138233671107e+00 +0.0000000000000000e+00 -4.1999999624754869e+00 +2.3160177122072344e-04 +0.0000000000000000e+00 +9.9999997318030953e-01
-4.2499999999999929e+00 +8.5975021742442408e+00 +0.0000000000000000e+00 -4.2499999611184505e+00 +2.3436316737481024e-04 +0.0000000000000000e+00 +9.9999997253695261e-01
-4.2999999999999927e+00 +8.5974903870479835e+00 +0.0000000000000000e+00 -4.2999999597290550e+00 +2.3712470693719744e-04 +0.0000000000000000e+00 +9.9999997188593637e-01
-4.3499999999999925e+00 +8.5974784617711357e+00 +0.0000000000000000e+00 -4.3499999583069169e+00 +2.3988639118855296e-04 +0.0000000000000000e+00 +9.9999997122725937e-01
-4.3999999999999924e+00 +8.5974663984064321e+00 +0.0000000000000000e+00 -4.3999999568516532e+00 +2.4264822139595190e-04 +0.0000000000000000e+00 +9.9999997056092005e-01
-4.4499999999999922e+00 +8.5974541969465434e+00 +0.0000000000000000e+00 -4.4499999553628813e+00 +2.4541019881287648e-04 +0.0000000000000000e+00 +9.9999996988691686e-01
-4.4999999999999920e+00 +8.5974418573840765e+00 +0.0000000000000000e+00 -4.4999999538402173e+00 +2.4817232467921603e-04 +0.0000000000000000e+00 +9.9999996920524836e-01
-4.5499999999999918e+00 +8.5974293797115795e+00 +0.0000000000000000e+00 -4.5499999522832786e+00 +2.5093460022126713e-04 +0.0000000000000000e+00 +9.9999996851591288e-01
-4.5999999999999917e+00 +8.5974167639215384e+00 +0.0000000000000000e+00 -4.5999999506916813e+00 +2.5369702665173339e-04 +0.0000000000000000e+00 +9.9999996781890899e-01
-4.6499999999999915e+00 +8.5974040100063789e+00 +0.0000000000000000e+00 -4.6499999490650419e+00 +2.5645960516972559e-04 +0.0000000000000000e+00 +9.9999996711423511e-01
-4.6999999999999913e+00 +8.5973911179584661e+00 +0.0000000000000000e+00 -4.6999999474029766e+00 +2.5922233696076168e-04 +0.0000000000000000e+00 +9.9999996640188960e-01
-4.7499999999999911e+00 +8.5973780877701085e+00 +0.0000000000000000e+00 -4.7499999457051025e+00 +2.6198522319676674e-04 +0.0000000000000000e+00 +9.9999996568187099e-01
-4.7999999999999909e+00 +8.5973649194335540e+00 +0.0000000000000000e+00 -4.7999999439710361e+00 +2.6474826503607298e-04 +0.0000000000000000e+00 +9.9999996495417764e-01
-4.8499999999999908e+00 +8.5973516129409937e+00 +0.0000000000000000e+00 -4.8499999422003928e+00 +2.6751146362341972e-04 +0.0000000000000000e+00 +9.9999996421880799e-01
-4.8999999999999906e+00 +8.5973381682845602e+00 +0.0000000000000000e+00 -4.8999999403927887e+00 +2.7027482008995339e-04 +0.0000000000000000e+00 +9.9999996347576037e-01
-4.9499999999999904e+00 +8.5973245854563345e+00 +0.0000000000000000e+00 -4.9499999385478404e+00 +2.7303833555322754e-04 +0.0000000000000000e+00 +9.9999996272503322e-01
-4.9999999999999902e+00 +8.5973108644483371e+00 +0.0000000000000000e+00 -4.9999999366651640e+00 +2.7580201111720277e-04 +0.0000000000000000e+00 +9.9999996196662488e-01
-5.0499999999999901e+00 +8.5972970052525355e+00 +0.0000000000000000e+00 -5.0499999347443749e+00 +2.7856584787224690e-04 +0.0000000000000000e+00 +9.9999996120053369e-01
-5.0999999999999899e+00 +8.5972830078608453e+00 +0.0000000000000000e+00 -5.0999999327850896e+00 +2.8132984689513467e-04 +0.0000000000000000e+00 +9.9999996042675809e-01
-5.1499999999999897e+00 +8.5972688722651238e+00 +0.0000000000000000e+00 -5.1499999307869233e+00 +2.8409400924904796e-04 +0.0000000000000000e+00 +9.9999995964529642e-01
-5.1999999999999895e+00 +8.5972545984571802e+00 +0.0000000000000000e+00 -5.1999999287494916e+00 +2.8685833598357562e-04 +0.0000000000000000e+00 +9.9999995885614701e-01
-5.2499999999999893e+00 +8.5972401864287686e+00 +0.0000000000000000e+00 -5.2499999266724098e+00 +2.8962282813471360e-04 +0.0000000000000000e+00 +9.9999995805930819e-01
-5.2999999999999892e+00 +8.5972256361715935e+00 +0.0000000000000000e+00 -5.2999999245552942e+00 +2.9238748672486486e-04 +0.0000000000000000e+00 +9.9999995725477830e-01
-5.3499999999999890e+00 +8.5972109476773060e+00 +0.0000000000000000e+00 -5.3499999223977595e+00 +2.9515231276283925e-04 +0.0000000000000000e+00 +9.9999995644255557e-01
-5.3999999999999888e+00 +8.5971961209375092e+00 +0.0000000000000000e+00 -5.3999999201994218e+00 +2.9791730724385370e-04 +0.0000000000000000e+00 +9.9999995562263844e-01
-5.4499999999999886e+00 +8.5971811559437565e+00 +0.0000000000000000e+00 -5.4499999179598957e+00 +3.0068247114953202e-04 +0.0000000000000000e+00 +9.9999995479502513e-01
-5.4999999999999885e+00 +8.5971660526875535e+00 +0.0000000000000000e+00 -5.4999999156787966e+00 +3.0344780544790492e-04 +0.0000000000000000e+00 +9.9999995395971397e-01
-5.5499999999999883e+00 +8.5971508111603558e+00 +0.0000000000000000e+00 -5.5499999133557392e+00 +3.0621331109341004e-04 +0.0000000000000000e+00 +9.9999995311670331e-01
-5.5999999999999881e+00 +8.5971354313535731e+00 +0.0000000000000000e+00 -5.5999999109903387e+00 +3.0897898902689191e-04 +0.0000000000000000e+00 +9.9999995226599137e-01
-5.6499999999999879e+00 +8.5971199132585667e+00 +0.0000000000000000e+00 -5.6499999085822097e+00 +3.1174484017560186e-04 +0.0000000000000000e+00 +9.9999995140757647e-01
-5.6999999999999877e+00 +8.5971042568666540e+00 +0.0000000000000000e+00 -5.6999999061309676e+00 +3.1451086545319803e-04 +0.0000000000000000e+00 +9.9999995054145685e-01
-5.7499999999999876e+00 +8.5970884621691042e+00 +0.0000000000000000e+00 -5.7499999036362270e+00 +3.1727706575974539e-04 +0.0000000000000000e+00 +9.9999994966763084e-01
-5.7999999999999874e+00 +8.5970725291571455e+00 +0.0000000000000000e+00 -5.7999999010976024e+00 +3.2004344198171560e-04 +0.0000000000000000e+00 +9.9999994878609666e-01
-5.8499999999999872e+00 +8.5970564578219602e+00 +0.0000000000000000e+00 -5.8499998985147084e+00 +3.2280999499198710e-04 +0.0000000000000000e+00 +9.9999994789685254e-01
