# trajectory
# s[mm] rx[mm] ry[mm] rz[mm] px[rad] py[rad] pz[rad]
0.0000000000000000e+00 +8.5389999999999997e+00 +0.0000000000000000e+00 +0.0000000000000000e+00 +0.0000000000000000e+00 +0.0000000000000000e+00 +1.0000000000000000e+00
-5.0000000000000003e-02 +8.5389999308403279e+00 +0.0000000000000000e+00 -4.9999999999936227e-02 +2.7663856710971552e-06 +0.0000000000000000e+00 +9.9999999999617351e-01
-1.0000000000000001e-01 +8.5389997233615347e+00 +0.0000000000000000e+00 -9.9999999999489803e-02 +5.5327651830298149e-06 +0.0000000000000000e+00 +9.9999999998469424e-01
-1.5000000000000002e-01 +8.5389993775638828e+00 +0.0000000000000000e+00 -1.4999999999827809e-01 +8.2991403278290159e-06 +0.0000000000000000e+00 +9.9999999996556210e-01
-2.0000000000000001e-01 +8.5389988934475447e+00 +0.0000000000000000e+00 -1.9999999999591847e-01 +1.1065512895264464e-05 +0.0000000000000000e+00 +9.9999999993877720e-01
-2.5000000000000000e-01 +8.5389982710126056e+00 +0.0000000000000000e+00 -2.4999999999202827e-01 +1.3831884672844621e-05 +0.0000000000000000e+00 +9.9999999990433952e-01
-2.9999999999999999e-01 +8.5389975102590601e+00 +0.0000000000000000e+00 -2.9999999998622484e-01 +1.6598257445816790e-05 +0.0000000000000000e+00 +9.9999999986224897e-01
-3.4999999999999998e-01 +8.5389966111868141e+00 +0.0000000000000000e+00 -3.4999999997812559e-01 +1.9364632997167201e-05 +0.0000000000000000e+00 +9.9999999981250554e-01
-3.9999999999999997e-01 +8.5389955737956846e+00 +0.0000000000000000e+00 -3.9999999996734786e-01 +2.2131013107621100e-05 +0.0000000000000000e+00 +9.9999999975510923e-01
-4.4999999999999996e-01 +8.5389943980853982e+00 +0.0000000000000000e+00 -4.4999999995350898e-01 +2.4897399555642823e-05 +0.0000000000000000e+00 +9.9999999969005982e-01
-4.9999999999999994e-01 +8.5389930840555941e+00 +0.0000000000000000e+00 -4.9999999993622629e-01 +2.7663794117435892e-05 +0.0000000000000000e+00 +9.9999999961735730e-01
-5.4999999999999993e-01 +8.5389916317058212e+00 +0.0000000000000000e+00 -5.4999999991511717e-01 +3.0430198566943089e-05 +0.0000000000000000e+00 +9.9999999953700158e-01
-5.9999999999999998e-01 +8.5389900410355430e+00 +0.0000000000000000e+00 -5.9999999988979891e-01 +3.3196614675846550e-05 +0.0000000000000000e+00 +9.9999999944899243e-01
-6.5000000000000002e-01 +8.5389883120441308e+00 +0.0000000000000000e+00 -6.4999999985988888e-01 +3.5963044213567833e-05 +0.0000000000000000e+00 +9.9999999935332973e-01
-7.0000000000000007e-01 +8.5389864447308685e+00 +0.0000000000000000e+00 -6.9999999982500438e-01 +3.8729488947268017e-05 +0.0000000000000000e+00 +9.9999999925001337e-01
-7.5000000000000011e-01 +8.5389844390949534e+00 +0.0000000000000000e+00 -7.4999999978476273e-01 +4.1495950641847775e-05 +0.0000000000000000e+00 +9.9999999913904303e-01
-8.0000000000000016e-01 +8.5389822951354919e+00 +0.0000000000000000e+00 -7.9999999973878111e-01 +4.4262431059947445e-05 +0.0000000000000000e+00 +9.9999999902041858e-01
-8.5000000000000020e-01 +8.5389800128515052e+00 +0.0000000000000000e+00 -8.4999999968667694e-01 +4.7028931961947133e-05 +0.0000000000000000e+00 +9.9999999889413982e-01
-9.0000000000000024e-01 +8.5389775922419240e+00 +0.0000000000000000e+00 -8.9999999962806743e-01 +4.9795455105966781e-05 +0.0000000000000000e+00 +9.9999999876020640e-01
-9.5000000000000029e-01 +8.5389750333055936e+00 +0.0000000000000000e+00 -9.4999999956256997e-01 +5.2562002247866243e-05 +0.0000000000000000e+00 +9.9999999861861799e-01
-1.0000000000000002e+00 +8.5389723360412706e+00 +0.0000000000000000e+00 -9.9999999948980167e-01 +5.5328575141245382e-05 +0.0000000000000000e+00 +9.9999999846937437e-01
-1.0500000000000003e+00 +8.5389695004476227e+00 +0.0000000000000000e+00 -1.0499999994093798e+00 +5.8095175537444123e-05 +0.0000000000000000e+00 +9.9999999831247532e-01
-1.1000000000000003e+00 +8.5389665265232306e+00 +0.0000000000000000e+00 -1.0999999993209215e+00 +6.0861805185542555e-05 +0.0000000000000000e+00 +9.9999999814792040e-01
-1.1500000000000004e+00 +8.5389634142665880e+00 +0.0000000000000000e+00 -1.1499999992240442e+00 +6.3628465832361002e-05 +0.0000000000000000e+00 +9.9999999797570926e-01
-1.2000000000000004e+00 +8.5389601636761014e+00 +0.0000000000000000e+00 -1.1999999991183647e+00 +6.6395159222460090e-05 +0.0000000000000000e+00 +9.9999999779584148e-01
-1.2500000000000004e+00 +8.5389567747500905e+00 +0.0000000000000000e+00 -1.2499999990035007e+00 +6.9161887098140846e-05 +0.0000000000000000e+00 +9.9999999760831670e-01
-1.3000000000000005e+00 +8.5389532474867877e+00 +0.0000000000000000e+00 -1.2999999988790689e+00 +7.1928651199444743e-05 +0.0000000000000000e+00 +9.9999999741313461e-01
-1.3500000000000005e+00 +8.5389495818843386e+00 +0.0000000000000000e+00 -1.3499999987446865e+00 +7.4695453264153819e-05 +0.0000000000000000e+00 +9.9999999721029464e-01
-1.4000000000000006e+00 +8.5389457779407998e+00 +0.0000000000000000e+00 -1.3999999985999707e+00 +7.7462295027790716e-05 +0.0000000000000000e+00 +9.9999999699979647e-01
-1.4500000000000006e+00 +8.5389418356541444e+00 +0.0000000000000000e+00 -1.4499999984445384e+00 +8.0229178223618772e-05 +0.0000000000000000e+00 +9.9999999678163953e-01
-1.5000000000000007e+00 +8.5389377550222569e+00 +0.0000000000000000e+00 -1.4999999982780070e+00 +8.2996104582642110e-05 +0.0000000000000000e+00 +9.9999999655582339e-01
-1.5500000000000007e+00 +8.5389335360429364e+00 +0.0000000000000000e+00 -1.5499999980999932e+00 +8.5763075833605670e-05 +0.0000000000000000e+00 +9.9999999632234748e-01
-1.6000000000000008e+00 +8.5389291787138966e+00 +0.0000000000000000e+00 -1.5999999979101140e+00 +8.8530093702995322e-05 +0.0000000000000000e+00 +9.9999999608121137e-01
-1.6500000000000008e+00 +8.5389246830327608e+00 +0.0000000000000000e+00 -1.6499999977079867e+00 +9.1297159915037935e-05 +0.0000000000000000e+00 +9.9999999583241439e-01
-1.7000000000000008e+00 +8.5389200489970705e+00 +0.0000000000000000e+00 -1.6999999974932278e+00 +9.4064276191701426e-05 +0.0000000000000000e+00 +9.9999999557595609e-01
-1.7500000000000009e+00 +8.5389152766042784e+00 +0.0000000000000000e+00 -1.7499999972654545e+00 +9.6831444252694861e-05 +0.0000000000000000e+00 +9.9999999531183581e-01
-1.8000000000000009e+00 +8.5389103658517538e+00 +0.0000000000000000e+00 -1.7999999970242837e+00 +9.9598665815468519e-05 +0.0000000000000000e+00 +9.9999999504005299e-01
-1.8500000000000010e+00 +8.5389053167367770e+00 +0.0000000000000000e+00 -1.8499999967693321e+00 +1.0236594259521395e-04 +0.0000000000000000e+00 +9.9999999476060697e-01
-1.9000000000000010e+00 +8.5389001292565450e+00 +0.0000000000000000e+00 -1.8999999965002168e+00 +1.0513327630486406e-04 +0.0000000000000000e+00 +9.9999999447349719e-01
-1.9500000000000011e+00 +8.5388948034081693e+00 +0.0000000000000000e+00 -1.9499999962165542e+00 +1.0790066865509322e-04 +0.0000000000000000e+00 +9.9999999417872298e-01
-2.0000000000000009e+00 +8.5388893391886747e+00 +0.0000000000000000e+00 -1.9999999959179613e+00 +1.1066812135431723e-04 +0.0000000000000000e+00 +9.9999999387628358e-01
-2.0500000000000007e+00 +8.5388837365950003e+00 +0.0000000000000000e+00 -2.0499999956040549e+00 +1.1343563610840986e-04 +0.0000000000000000e+00 +9.9999999356617830e-01
-2.1000000000000005e+00 +8.5388779956240022e+00 +0.0000000000000000e+00 -2.0999999952744512e+00 +1.1620321461758291e-04 +0.0000000000000000e+00 +9.9999999324840649e-01
-2.1500000000000004e+00 +8.5388721162724490e+00 +0.0000000000000000e+00 -2.1499999949287676e+00 +1.1897085857326631e-04 +0.0000000000000000e+00 +9.9999999292296748e-01
-2.2000000000000002e+00 +8.5388660985370262e+00 +0.0000000000000000e+00 -2.1999999945666202e+00 +1.2173856965782455e-04 +0.0000000000000000e+00 +9.9999999258986039e-01
-2.2500000000000000e+00 +8.5388599424143354e+00 +0.0000000000000000e+00 -2.2499999941876259e+00 +1.2450634954455674e-04 +0.0000000000000000e+00 +9.9999999224908453e-01
-2.2999999999999998e+00 +8.5388536479008970e+00 +0.0000000000000000e+00 -2.2999999937914009e+00 +1.2727419989769665e-04 +0.0000000000000000e+00 +9.9999999190063904e-01
-2.3499999999999996e+00 +8.5388472149931438e+00 +0.0000000000000000e+00 -2.3499999933775619e+00 +1.3004212237241279e-04 +0.0000000000000000e+00 +9.9999999154452324e-01
-2.3999999999999995e+00 +8.5388406436874291e+00 +0.0000000000000000e+00 -2.3999999929457254e+00 +1.3281011861480848e-04 +0.0000000000000000e+00 +9.9999999118073624e-01
-2.4499999999999993e+00 +8.5388339339800243e+00 +0.0000000000000000e+00 -2.4499999924955076e+00 +1.3557819026192188e-04 +0.0000000000000000e+00 +9.9999999080927715e-01
-2.4999999999999991e+00 +8.5388270858671191e+00 +0.0000000000000000e+00 -2.4999999920265252e+00 +1.3834633894172605e-04 +0.0000000000000000e+00 +9.9999999043014520e-01
-2.5499999999999989e+00 +8.5388200993448198e+00 +0.0000000000000000e+00 -2.5499999915383942e+00 +1.4111456627312905e-04 +0.0000000000000000e+00 +9.9999999004333950e-01
-2.5999999999999988e+00 +8.5388129744091543e+00 +0.0000000000000000e+00 -2.5999999910307312e+00 +1.4388287386597390e-04 +0.0000000000000000e+00 +9.9999998964885917e-01
-2.6499999999999986e+00 +8.5388057110560691e+00 +0.0000000000000000e+00 -2.6499999905031522e+00 +1.4665126332103872e-04 +0.0000000000000000e+00 +9.9999998924670330e-01
-2.6999999999999984e+00 +8.5387983092814306e+00 +0.0000000000000000e+00 -2.6999999899552733e+00 +1.4941973623003679e-04 +0.0000000000000000e+00 +9.9999998883687102e-01
-2.7499999999999982e+00 +8.5387907690810287e+00 +0.0000000000000000e+00 -2.7499999893867111e+00 +1.5218829417561650e-04 +0.0000000000000000e+00 +9.9999998841936133e-01
-2.7999999999999980e+00 +8.5387830904505702e+00 +0.0000000000000000e+00 -2.7999999887970812e+00 +1.5495693873136151e-04 +0.0000000000000000e+00 +9.9999998799417333e-01
-2.8499999999999979e+00 +8.5387752733856868e+00 +0.0000000000000000e+00 -2.8499999881860001e+00 +1.5772567146179074e-04 +0.0000000000000000e+00 +9.9999998756130604e-01
-2.8999999999999977e+00 +8.5387673178819288e+00 +0.0000000000000000e+00 -2.8999999875530835e+00 +1.6049449392235840e-04 +0.0000000000000000e+00 +9.9999998712075844e-01
-2.9499999999999975e+00 +8.5387592239347736e+00 +0.0000000000000000e+00 -2.9499999868979478e+00 +1.6326340765945415e-04 +0.0000000000000000e+00 +9.9999998667252954e-01
-2.9999999999999973e+00 +8.5387509915396169e+00 +0.0000000000000000e+00 -2.9999999862202085e+00 +1.6603241421040302e-04 +0.0000000000000000e+00 +9.9999998621661834e-01
-3.0499999999999972e+00 +8.5387426206917798e+00 +0.0000000000000000e+00 -3.0499999855194817e+00 +1.6880151510346552e-04 +0.0000000000000000e+00 +9.9999998575302385e-01
-3.0999999999999970e+00 +8.5387341113865087e+00 +0.0000000000000000e+00 -3.0999999847953830e+00 +1.7157071185783766e-04 +0.0000000000000000e+00 +9.9999998528174505e-01
-3.1499999999999968e+00 +8.5387254636189720e+00 +0.0000000000000000e+00 -3.1499999840475281e+00 +1.7434000598365104e-04 +0.0000000000000000e+00 +9.9999998480278074e-01
-3.1999999999999966e+00 +8.5387166773842633e+00 +0.0000000000000000e+00 -3.1999999832755330e+00 +1.7710939898197281e-04 +0.0000000000000000e+00 +9.9999998431613002e-01
-3.2499999999999964e+00 +8.5387077526774018e+00 +0.0000000000000000e+00 -3.2499999824790131e+00 +1.7987889234480581e-04 +0.0000000000000000e+00 +9.9999998382179167e-01
-3.2999999999999963e+00 +8.5386986894933319e+00 +0.0000000000000000e+00 -3.2999999816575842e+00 +1.8264848755508855e-04 +0.0000000000000000e+00 +9.9999998331976458e-01
-3.3499999999999961e+00 +8.5386894878269253e+00 +0.0000000000000000e+00 -3.3499999808108614e+00 +1.8541818608669525e-04 +0.0000000000000000e+00 +9.9999998281004776e-01
-3.3999999999999959e+00 +8.5386801476729772e+00 +0.0000000000000000e+00 -3.3999999799384608e+00 +1.8818798940443594e-04 +0.0000000000000000e+00 +9.9999998229263998e-01
-3.4499999999999957e+00 +8.5386706690262137e+00 +0.0000000000000000e+00 -3.4499999790399976e+00 +1.9095789896405642e-04 +0.0000000000000000e+00 +9.9999998176754001e-01
-3.4999999999999956e+00 +8.5386610518812862e+00 +0.0000000000000000e+00 -3.4999999781150866e+00 +1.9372791621223833e-04 +0.0000000000000000e+00 +9.9999998123474687e-01
-3.5499999999999954e+00 +8.5386512962327732e+00 +0.0000000000000000e+00 -3.5499999771633437e+00 +1.9649804258659923e-04 +0.0000000000000000e+00 +9.9999998069425922e-01
-3.5999999999999952e+00 +8.5386414020751840e+00 +0.0000000000000000e+00 -3.5999999761843839e+00 +1.9926827951569258e-04 +0.0000000000000000e+00 +9.9999998014607594e-01
-3.6499999999999950e+00 +8.5386313694029550e+00 +0.0000000000000000e+00 -3.6499999751778227e+00 +2.0203862841900778e-04 +0.0000000000000000e+00 +9.9999997959019582e-01
-3.6999999999999948e+00 +8.5386211982104516e+00 +0.0000000000000000e+00 -3.6999999741432750e+00 +2.0480909070697025e-04 +0.0000000000000000e+00 +9.9999997902661764e-01
-3.7499999999999947e+00 +8.5386108884919700e+00 +0.0000000000000000e+00 -3.7499999730803562e+00 +2.0757966778094141e-04 +0.0000000000000000e+00 +9.9999997845534017e-01
-3.7999999999999945e+00 +8.5386004402417370e+00 +0.0000000000000000e+00 -3.7999999719886808e+00 +2.1035036103321875e-04 +0.0000000000000000e+00 +9.9999997787636219e-01
-3.8499999999999943e+00 +8.5385898534539084e+00 +0.0000000000000000e+00 -3.8499999708678638e+00 +2.1312117184703585e-04 +0.0000000000000000e+00 +9.9999997728968237e-01
-3.8999999999999941e+00 +8.5385791281225707e+00 +0.0000000000000000e+00 -3.8999999697175203e+00 +2.1589210159656241e-04 +0.0000000000000000e+00 +9.9999997669529950e-01
-3.9499999999999940e+00 +8.5385682642417429e+00 +0.0000000000000000e+00 -3.9499999685372651e+00 +2.1866315164690428e-04 +0.0000000000000000e+00 +9.9999997609321234e-01
-3.9999999999999938e+00 +8.5385572618053782e+00 +0.0000000000000000e+00 -3.9999999673267128e+00 +2.2143432335410351e-04 +0.0000000000000000e+00 +9.9999997548341946e-01
-4.0499999999999936e+00 +8.5385461208073572e+00 +0.0000000000000000e+00 -4.0499999660854780e+00 +2.2420561806494536e-04 +0.0000000000000000e+00 +9.9999997486591963e-01
-4.0999999999999934e+00 +8.5385348412414981e+00 +0.0000000000000000e+00 -4.0999999648131755e+00 +2.2697703711483552e-04 +0.0000000000000000e+00 +9.9999997424071152e-01
-4.1499999999999932e+00 +8.5385234231015517e+00 +0.0000000000000000e+00 -4.1499999635094200e+00 +2.2974858182567723e-04 +0.0000000000000000e+00 +9.9999997360779380e-01
-4.1999999999999931e+00 +8.5385118663811994e+00 +0.0000000000000000e+00 -4.1999999621738260e+00 +2.3252025350567842e-04 +0.0000000000000000e+00 +9.9999997296716503e-01
-4.2499999999999929e+00 +8.5385001710740625e+00 +0.0000000000000000e+00 -4.2499999608060079e+00 +2.3529205344935164e-04 +0.0000000000000000e+00 +9.9999997231882398e-01
-4.2999999999999927e+00 +8.5384883371736944e+00 +0.0000000000000000e+00 -4.2999999594055796e+00 +2.3806398293751407e-04 +0.0000000000000000e+00 +9.9999997166276922e-01
-4.3499999999999925e+00 +8.5384763646735884e+00 +0.0000000000000000e+00 -4.3499999579721562e+00 +2.4083604323728761e-04 +0.0000000000000000e+00 +9.9999997099899929e-01
-4.3999999999999924e+00 +8.5384642535671702e+00 +0.0000000000000000e+00 -4.3999999565053516e+00 +2.4360823560209879e-04 +0.0000000000000000e+00 +9.9999997032751287e-01
-4.4499999999999922e+00 +8.5384520038478069e+00 +0.0000000000000000e+00 -4.4499999550047793e+00 +2.4638056127167886e-04 +0.0000000000000000e+00 +9.9999996964830862e-01
-4.4999999999999920e+00 +8.5384396155088016e+00 +0.0000000000000000e+00 -4.4999999534700539e+00 +2.4915302147206372e-04 +0.0000000000000000e+00 +9.9999996896138499e-01
-4.5499999999999918e+00 +8.5384270885433970e+00 +0.0000000000000000e+00 -4.5499999519007890e+00 +2.5192561741559409e-04 +0.0000000000000000e+00 +9.9999996826674065e-01
-4.5999999999999917e+00 +8.5384144229447774e+00 +0.0000000000000000e+00 -4.5999999502965991e+00 +2.5469835030091526e-04 +0.0000000000000000e+00 +9.9999996756437415e-01
-4.6499999999999915e+00 +8.5384016187060645e+00 +0.0000000000000000e+00 -4.6499999486570980e+00 +2.5747122131297733e-04 +0.0000000000000000e+00 +9.9999996685428405e-01
-4.6999999999999913e+00 +8.5383886758203236e+00 +0.0000000000000000e+00 -4.6999999469818992e+00 +2.6024423162303512e-04 +0.0000000000000000e+00 +9.9999996613646891e-01
-4.7499999999999911e+00 +8.5383755942805610e+00 +0.0000000000000000e+00 -4.7499999452706163e+00 +2.6301738238864819e-04 +0.0000000000000000e+00 +9.9999996541092717e-01
-4.7999999999999909e+00 +8.5383623740797248e+00 +0.0000000000000000e+00 -4.7999999435228631e+00 +2.6579067475368073e-04 +0.0000000000000000e+00 +9.9999996467765750e-01
-4.8499999999999908e+00 +8.5383490152107075e+00 +0.0000000000000000e+00 -4.8499999417382531e+00 +2.6856410984830179e-04 +0.0000000000000000e+00 +9.9999996393665835e-01
-4.8999999999999906e+00 +8.5383355176663436e+00 +0.0000000000000000e+00 -4.8999999399164000e+00 +2.7133768878898502e-04 +0.0000000000000000e+00 +9.9999996318792816e-01
-4.9499999999999904e+00 +8.5383218814394137e+00 +0.0000000000000000e+00 -4.9499999380569175e+00 +2.7411141267850894e-04 +0.0000000000000000e+00 +9.9999996243146549e-01
-4.9999999999999902e+00 +8.5383081065226420e+00 +0.0000000000000000e+00 -4.9999999361594183e+00 +2.7688528260595669e-04 +0.0000000000000000e+00 +9.9999996166726890e-01
-5.0499999999999901e+00 +8.5382941929087011e+00 +0.0000000000000000e+00 -5.0499999342235160e+00 +2.7965929964671616e-04 +0.0000000000000000e+00 +9.9999996089533683e-01
-5.0999999999999899e+00 +8.5382801405902082e+00 +0.0000000000000000e+00 -5.0999999322488234e+00 +2.8243346486247990e-04 +0.0000000000000000e+00 +9.9999996011566772e-01
-5.1499999999999897e+00 +8.5382659495597277e+00 +0.0000000000000000e+00 -5.1499999302349542e+00 +2.8520777930124528e-04 +0.0000000000000000e+00 +9.9999995932826002e-01
-5.1999999999999895e+00 +8.5382516198097740e+00 +0.0000000000000000e+00 -5.1999999281815210e+00 +2.8798224399731432e-04 +0.0000000000000000e+00 +9.9999995853311230e-01
-5.2499999999999893e+00 +8.5382371513328064e+00 +0.0000000000000000e+00 -5.2499999260881367e+00 +2.9075685997129370e-04 +0.0000000000000000e+00 +9.9999995773022288e-01
-5.2999999999999892e+00 +8.5382225441212380e+00 +0.0000000000000000e+00 -5.2999999239544140e+00 +2.9353162823009482e-04 +0.0000000000000000e+00 +9.9999995691959032e-01
-5.3499999999999890e+00 +8.5382077981674289e+00 +0.0000000000000000e+00 -5.3499999217799665e+00 +2.9630654976693372e-04 +0.0000000000000000e+00 +9.9999995610121295e-01
-5.3999999999999888e+00 +8.5381929134636909e+00 +0.0000000000000000e+00 -5.3999999195644062e+00 +2.9908162556133117e-04 +0.0000000000000000e+00 +9.9999995527508923e-01
-5.4499999999999886e+00 +8.5381778900022862e+00 +0.0000000000000000e+00 -5.4499999173073466e+00 +3.0185685657911247e-04 +0.0000000000000000e+00 +9.9999995444121759e-01
-5.4999999999999885e+00 +8.5381627277754308e+00 +0.0000000000000000e+00 -5.4999999150083996e+00 +3.0463224377240763e-04 +0.0000000000000000e+00 +9.9999995359959648e-01
-5.5499999999999883e+00 +8.5381474267752910e+00 +0.0000000000000000e+00 -5.5499999126671771e+00 +3.0740778807965128e-04 +0.0000000000000000e+00 +9.9999995275022435e-01
-5.5999999999999881e+00 +8.5381319869939887e+00 +0.0000000000000000e+00 -5.5999999102832927e+00 +3.1018349042558259e-04 +0.0000000000000000e+00 +9.9999995189309954e-01
-5.6499999999999879e+00 +8.5381164084235994e+00 +0.0000000000000000e+00 -5.6499999078563583e+00 +3.1295935172124536e-04 +0.0000000000000000e+00 +9.9999995102822048e-01
-5.6999999999999877e+00 +8.5381006910561528e+00 +0.0000000000000000e+00 -5.6999999053859858e+00 +3.1573537286398793e-04 +0.0000000000000000e+00 +9.9999995015558552e-01
-5.7499999999999876e+00 +8.5380848348836338e+00 +0.0000000000000000e+00 -5.7499999028717879e+00 +3.1851155473746321e-04 +0.0000000000000000e+00 +9.9999994927519309e-01
-5.7999999999999874e+00 +8.5380688398979849e+00 +0.0000000000000000e+00 -5.7999999003133764e+00 +3.2128789821162857e-04 +0.0000000000000000e+00 +9.9999994838704154e-01
-5.8499999999999872e+00 +8.5380527060911042e+00 +0.0000000000000000e+00 -5.8499998977103633e+00 +3.2406440414274590e-04 +0.0000000000000000e+00 +9.9999994749112919e-01
