# trajectory
# s[mm] rx[mm] ry[mm] rz[mm] px[rad] py[rad] pz[rad]
0.0000000000000000e+00 +8.2850000000000001e+00 +0.0000000000000000e+00 +0.0000000000000000e+00 +0.0000000000000000e+00 +0.0000000000000000e+00 +1.0000000000000000e+00
5.0000000000000003e-02 +8.2849999308327540e+00 +0.0000000000000000e+00 +4.9999999999936214e-02 -2.7666876127983672e-06 +0.0000000000000000e+00 +9.9999999999617273e-01
1.0000000000000001e-01 +8.2849997233314454e+00 +0.0000000000000000e+00 +9.9999999999489692e-02 -5.5333628070119174e-06 +0.0000000000000000e+00 +9.9999999998469091e-01
1.5000000000000002e-01 +8.2849993774966499e+00 +0.0000000000000000e+00 +1.4999999999827773e-01 -8.3000273919441530e-06 +0.0000000000000000e+00 +9.9999999996555478e-01
2.0000000000000001e-01 +8.2849988933288525e+00 +0.0000000000000000e+00 +1.9999999999591761e-01 -1.1066683172625075e-05 +0.0000000000000000e+00 +9.9999999993876432e-01
2.5000000000000000e-01 +8.2849982708284493e+00 +0.0000000000000000e+00 +2.4999999999202660e-01 -1.3833331949811276e-05 +0.0000000000000000e+00 +9.9999999990431954e-01
2.9999999999999999e-01 +8.2849975099957440e+00 +0.0000000000000000e+00 +2.9999999998622201e-01 -1.6599975519986027e-05 +0.0000000000000000e+00 +9.9999999986222043e-01
3.4999999999999998e-01 +8.2849966108309534e+00 +0.0000000000000000e+00 +3.4999999997812109e-01 -1.9366615675359365e-05 +0.0000000000000000e+00 +9.9999999981246712e-01
3.9999999999999997e-01 +8.2849955733342036e+00 +0.0000000000000000e+00 +3.9999999996734115e-01 -2.2133254203868180e-05 +0.0000000000000000e+00 +9.9999999975505960e-01
4.4999999999999996e-01 +8.2849943975055300e+00 +0.0000000000000000e+00 +4.4999999995349949e-01 -2.4899892889176299e-05 +0.0000000000000000e+00 +9.9999999968999775e-01
4.9999999999999994e-01 +8.2849930833448813e+00 +0.0000000000000000e+00 +4.9999999993621336e-01 -2.7666533510674579e-05 +0.0000000000000000e+00 +9.9999999961728159e-01
5.4999999999999993e-01 +8.2849916308521170e+00 +0.0000000000000000e+00 +5.4999999991510007e-01 -3.0433177843480978e-05 +0.0000000000000000e+00 +9.9999999953691099e-01
5.9999999999999998e-01 +8.2849900400270062e+00 +0.0000000000000000e+00 +5.9999999988977692e-01 -3.3199827658440649e-05 +0.0000000000000000e+00 +9.9999999944888585e-01
6.5000000000000002e-01 +8.2849883108692310e+00 +0.0000000000000000e+00 +6.4999999985986112e-01 -3.5966484722126031e-05 +0.0000000000000000e+00 +9.9999999935320616e-01
7.0000000000000007e-01 +8.2849864433783846e+00 +0.0000000000000000e+00 +6.9999999982496997e-01 -3.8733150796836901e-05 +0.0000000000000000e+00 +9.9999999924987171e-01
7.5000000000000011e-01 +8.2849844375539714e+00 +0.0000000000000000e+00 +7.4999999978472076e-01 -4.1499827640600494e-05 +0.0000000000000000e+00 +9.9999999913888238e-01
8.0000000000000016e-01 +8.2849822933954105e+00 +0.0000000000000000e+00 +7.9999999973873070e-01 -4.4266517007171550e-05 +0.0000000000000000e+00 +9.9999999902023795e-01
8.5000000000000020e-01 +8.2849800109020322e+00 +0.0000000000000000e+00 +8.4999999968661699e-01 -4.7033220646032412e-05 +0.0000000000000000e+00 +9.9999999889393831e-01
9.0000000000000024e-01 +8.2849775900730780e+00 +0.0000000000000000e+00 +8.9999999962799693e-01 -4.9799940302393100e-05 +0.0000000000000000e+00 +9.9999999875998324e-01
9.5000000000000029e-01 +8.2849750309077059e+00 +0.0000000000000000e+00 +9.4999999956248771e-01 -5.2566677717191385e-05 +0.0000000000000000e+00 +9.9999999861837252e-01
1.0000000000000002e+00 +8.2849723334049816e+00 +0.0000000000000000e+00 +9.9999999948970653e-01 -5.5333434627092874e-05 +0.0000000000000000e+00 +9.9999999846910581e-01
1.0500000000000003e+00 +8.2849694975638890e+00 +0.0000000000000000e+00 +1.0499999994092706e+00 -5.8100212764491080e-05 +0.0000000000000000e+00 +9.9999999831218289e-01
1.1000000000000003e+00 +8.2849665233833232e+00 +0.0000000000000000e+00 +1.0999999993207972e+00 -6.0867013857507493e-05 +0.0000000000000000e+00 +9.9999999814760354e-01
1.1500000000000004e+00 +8.2849634108620922e+00 +0.0000000000000000e+00 +1.1499999992239034e+00 -6.3633839629991665e-05 +0.0000000000000000e+00 +9.9999999797536743e-01
1.2000000000000004e+00 +8.2849601599989207e+00 +0.0000000000000000e+00 +1.1999999991182064e+00 -6.6400691801521289e-05 +0.0000000000000000e+00 +9.9999999779547422e-01
1.2500000000000004e+00 +8.2849567707924443e+00 +0.0000000000000000e+00 +1.2499999990033233e+00 -6.9167572087402242e-05 +0.0000000000000000e+00 +9.9999999760792369e-01
1.3000000000000005e+00 +8.2849532432412154e+00 +0.0000000000000000e+00 +1.2999999988788711e+00 -7.1934482198668682e-05 +0.0000000000000000e+00 +9.9999999741271528e-01
1.3500000000000005e+00 +8.2849495773436992e+00 +0.0000000000000000e+00 +1.3499999987444671e+00 -7.4701423842083109e-05 +0.0000000000000000e+00 +9.9999999720984878e-01
1.4000000000000006e+00 +8.2849457730982774e+00 +0.0000000000000000e+00 +1.3999999985997282e+00 -7.7468398720136468e-05 +0.0000000000000000e+00 +9.9999999699932374e-01
1.4500000000000006e+00 +8.2849418305032447e+00 +0.0000000000000000e+00 +1.4499999984442717e+00 -8.0235408531048149e-05 +0.0000000000000000e+00 +9.9999999678113971e-01
1.5000000000000007e+00 +8.2849377495568142e+00 +0.0000000000000000e+00 +1.4999999982777146e+00 -8.3002454968766128e-05 +0.0000000000000000e+00 +9.9999999655529637e-01
1.5500000000000007e+00 +8.2849335302571099e+00 +0.0000000000000000e+00 +1.5499999980996737e+00 -8.5769539722966974e-05 +0.0000000000000000e+00 +9.9999999632179315e-01
1.6000000000000008e+00 +8.2849291726021743e+00 +0.0000000000000000e+00 +1.5999999979097661e+00 -8.8536664479055974e-05 +0.0000000000000000e+00 +9.9999999608062962e-01
1.6500000000000008e+00 +8.2849246765899665e+00 +0.0000000000000000e+00 +1.6499999977076090e+00 -9.1303830918167161e-05 +0.0000000000000000e+00 +9.9999999583180532e-01
1.7000000000000008e+00 +8.2849200422183600e+00 +0.0000000000000000e+00 +1.6999999974928190e+00 -9.4071040717163380e-05 +0.0000000000000000e+00 +9.9999999557531971e-01
1.7500000000000009e+00 +8.2849152694851451e+00 +0.0000000000000000e+00 +1.7499999972650133e+00 -9.6838295548636356e-05 +0.0000000000000000e+00 +9.9999999531117234e-01
1.8000000000000009e+00 +8.2849103583880268e+00 +0.0000000000000000e+00 +1.7999999970238085e+00 -9.9605597080906790e-05 +0.0000000000000000e+00 +9.9999999503936254e-01
1.8500000000000010e+00 +8.2849053089246301e+00 +0.0000000000000000e+00 +1.8499999967688219e+00 -1.0237294697802436e-04 +0.0000000000000000e+00 +9.9999999475988988e-01
1.9000000000000010e+00 +8.2849001210924946e+00 +0.0000000000000000e+00 +1.8999999964996699e+00 -1.0514034689976784e-04 +0.0000000000000000e+00 +9.9999999447275378e-01
1.9500000000000011e+00 +8.2848947948890785e+00 +0.0000000000000000e+00 +1.9499999962159695e+00 -1.0790779850164513e-04 +0.0000000000000000e+00 +9.9999999417795360e-01
2.0000000000000009e+00 +8.2848893303117563e+00 +0.0000000000000000e+00 +1.9999999959173376e+00 -1.1067530343489332e-04 +0.0000000000000000e+00 +9.9999999387548866e-01
2.0500000000000007e+00 +8.2848837273578191e+00 +0.0000000000000000e+00 +2.0499999956033905e+00 -1.1344286334626276e-04 +0.0000000000000000e+00 +9.9999999356535840e-01
2.1000000000000005e+00 +8.2848779860244779e+00 +0.0000000000000000e+00 +2.0999999952737456e+00 -1.1621047987564093e-04 +0.0000000000000000e+00 +9.9999999324756217e-01
2.1500000000000004e+00 +8.2848721063088604e+00 +0.0000000000000000e+00 +2.1499999949280189e+00 -1.1897815465367646e-04 +0.0000000000000000e+00 +9.9999999292209929e-01
2.2000000000000002e+00 +8.2848660882080143e+00 +0.0000000000000000e+00 +2.1999999945658275e+00 -1.2174588930156309e-04 +0.0000000000000000e+00 +9.9999999258896910e-01
2.2500000000000000e+00 +8.2848599317189056e+00 +0.0000000000000000e+00 +2.2499999941867879e+00 -1.2451368543103976e-04 +0.0000000000000000e+00 +9.9999999224817093e-01
2.2999999999999998e+00 +8.2848536368384202e+00 +0.0000000000000000e+00 +2.2999999937905167e+00 -1.2728154464439068e-04 +0.0000000000000000e+00 +9.9999999189970401e-01
2.3499999999999996e+00 +8.2848472035633627e+00 +0.0000000000000000e+00 +2.3499999933766302e+00 -1.3004946853444537e-04 +0.0000000000000000e+00 +9.9999999154356767e-01
2.3999999999999995e+00 +8.2848406318904608e+00 +0.0000000000000000e+00 +2.3999999929447453e+00 -1.3281745868457871e-04 +0.0000000000000000e+00 +9.9999999117976113e-01
2.4499999999999993e+00 +8.2848339218163627e+00 +0.0000000000000000e+00 +2.4499999924944782e+00 -1.3558551666871099e-04 +0.0000000000000000e+00 +9.9999999080828361e-01
2.4999999999999991e+00 +8.2848270733376363e+00 +0.0000000000000000e+00 +2.4999999920254456e+00 -1.3835364405130802e-04 +0.0000000000000000e+00 +9.9999999042913434e-01
2.5499999999999989e+00 +8.2848200864507735e+00 +0.0000000000000000e+00 +2.5499999915372640e+00 -1.4112184238738112e-04 +0.0000000000000000e+00 +9.9999999004231255e-01
2.5999999999999988e+00 +8.2848129611521877e+00 +0.0000000000000000e+00 +2.5999999910295490e+00 -1.4389011322248714e-04 +0.0000000000000000e+00 +9.9999998964781744e-01
2.6499999999999986e+00 +8.2848056974382160e+00 +0.0000000000000000e+00 +2.6499999905019176e+00 -1.4665845809272863e-04 +0.0000000000000000e+00 +9.9999998924564815e-01
2.6999999999999984e+00 +8.2847982953051194e+00 +0.0000000000000000e+00 +2.6999999899539859e+00 -1.4942687852475381e-04 +0.0000000000000000e+00 +9.9999998883580377e-01
2.7499999999999982e+00 +8.2847907547490802e+00 +0.0000000000000000e+00 +2.7499999893853699e+00 -1.5219537603575661e-04 +0.0000000000000000e+00 +9.9999998841828353e-01
2.7999999999999980e+00 +8.2847830757662067e+00 +0.0000000000000000e+00 +2.7999999887956863e+00 -1.5496395213347676e-04 +0.0000000000000000e+00 +9.9999998799308654e-01
2.8499999999999979e+00 +8.2847752583525320e+00 +0.0000000000000000e+00 +2.8499999881845506e+00 -1.5773260831619977e-04 +0.0000000000000000e+00 +9.9999998756021191e-01
2.8999999999999977e+00 +8.2847673025040152e+00 +0.0000000000000000e+00 +2.8999999875515794e+00 -1.6050134607275711e-04 +0.0000000000000000e+00 +9.9999998711965876e-01
2.9499999999999975e+00 +8.2847592082165402e+00 +0.0000000000000000e+00 +2.9499999868963886e+00 -1.6327016688252611e-04 +0.0000000000000000e+00 +9.9999998667142609e-01
2.9999999999999973e+00 +8.2847509754859185e+00 +0.0000000000000000e+00 +2.9999999862185942e+00 -1.6603907221543007e-04 +0.0000000000000000e+00 +9.9999998621551300e-01
3.0499999999999972e+00 +8.2847426043078869e+00 +0.0000000000000000e+00 +3.0499999855178119e+00 -1.6880806353193834e-04 +0.0000000000000000e+00 +9.9999998575191862e-01
3.0999999999999970e+00 +8.2847340946781092e+00 +0.0000000000000000e+00 +3.0999999847936581e+00 -1.7157714228306631e-04 +0.0000000000000000e+00 +9.9999998528064193e-01
3.1499999999999968e+00 +8.2847254465921782e+00 +0.0000000000000000e+00 +3.1499999840457482e+00 -1.7434630991037547e-04 +0.0000000000000000e+00 +9.9999998480168195e-01
3.1999999999999966e+00 +8.2847166600456141e+00 +0.0000000000000000e+00 +3.1999999832736981e+00 -1.7711556784597344e-04 +0.0000000000000000e+00 +9.9999998431503767e-01
3.2499999999999964e+00 +8.2847077350338658e+00 +0.0000000000000000e+00 +3.2499999824771235e+00 -1.7988491751251402e-04 +0.0000000000000000e+00 +9.9999998382070809e-01
3.2999999999999963e+00 +8.2846986715523112e+00 +0.0000000000000000e+00 +3.2999999816556405e+00 -1.8265436032319728e-04 +0.0000000000000000e+00 +9.9999998331869222e-01
3.3499999999999961e+00 +8.2846894695962572e+00 +0.0000000000000000e+00 +3.3499999808088647e+00 -1.8542389768176954e-04 +0.0000000000000000e+00 +9.9999998280898894e-01
3.3999999999999959e+00 +8.2846801291609431e+00 +0.0000000000000000e+00 +3.3999999799364113e+00 -1.8819353098252343e-04 +0.0000000000000000e+00 +9.9999998229159726e-01
3.4499999999999957e+00 +8.2846706502415373e+00 +0.0000000000000000e+00 +3.4499999790378961e+00 -1.9096326161029790e-04 +0.0000000000000000e+00 +9.9999998176651617e-01
3.4999999999999956e+00 +8.2846610328331369e+00 +0.0000000000000000e+00 +3.4999999781129345e+00 -1.9373309094047832e-04 +0.0000000000000000e+00 +9.9999998123374456e-01
3.5499999999999954e+00 +8.2846512769307754e+00 +0.0000000000000000e+00 +3.5499999771611424e+00 -1.9650302033899644e-04 +0.0000000000000000e+00 +9.9999998069328133e-01
3.5999999999999952e+00 +8.2846413825294132e+00 +0.0000000000000000e+00 +3.5999999761821346e+00 -1.9927305116233050e-04 +0.0000000000000000e+00 +9.9999998014512537e-01
3.6499999999999950e+00 +8.2846313496239468e+00 +0.0000000000000000e+00 +3.6499999751755268e+00 -2.0204318475750525e-04 +0.0000000000000000e+00 +9.9999997958927556e-01
3.6999999999999948e+00 +8.2846211782092034e+00 +0.0000000000000000e+00 +3.6999999741409342e+00 -2.0481342246209190e-04 +0.0000000000000000e+00 +9.9999997902573079e-01
3.7499999999999947e+00 +8.2846108682799446e+00 +0.0000000000000000e+00 +3.7499999730779718e+00 -2.0758376560420829e-04 +0.0000000000000000e+00 +9.9999997845448996e-01
3.7999999999999945e+00 +8.2846004198308645e+00 +0.0000000000000000e+00 +3.7999999719862552e+00 -2.1035421550251885e-04 +0.0000000000000000e+00 +9.9999997787555184e-01
3.8499999999999943e+00 +8.2845898328565930e+00 +0.0000000000000000e+00 +3.8499999708653991e+00 -2.1312477346623461e-04 +0.0000000000000000e+00 +9.9999997728891532e-01
3.8999999999999941e+00 +8.2845791073516946e+00 +0.0000000000000000e+00 +3.8999999697150187e+00 -2.1589544079511329e-04 +0.0000000000000000e+00 +9.9999997669457918e-01
3.9499999999999940e+00 +8.2845682433106695e+00 +0.0000000000000000e+00 +3.9499999685347289e+00 -2.1866621877945929e-04 +0.0000000000000000e+00 +9.9999997609254221e-01
3.9999999999999938e+00 +8.2845572407279509e+00 +0.0000000000000000e+00 +3.9999999673241446e+00 -2.2143710870012372e-04 +0.0000000000000000e+00 +9.9999997548280328e-01
4.0499999999999936e+00 +8.2845460995979128e+00 +0.0000000000000000e+00 +4.0499999660828809e+00 -2.2420811182838221e-04 +0.0000000000000000e+00 +9.9999997486536107e-01
4.0999999999999934e+00 +8.2845348199148603e+00 +0.0000000000000000e+00 +4.0999999648105527e+00 -2.2697922942459045e-04 +0.0000000000000000e+00 +9.9999997424021447e-01
4.1499999999999932e+00 +8.2845234016730416e+00 +0.0000000000000000e+00 +4.1499999635067741e+00 -2.2975046273683957e-04 +0.0000000000000000e+00 +9.9999997360736215e-01
4.1999999999999931e+00 +8.2845118448666373e+00 +0.0000000000000000e+00 +4.1999999621711606e+00 -2.3252181300083402e-04 +0.0000000000000000e+00 +9.9999997296680299e-01
4.2499999999999929e+00 +8.2845001494897712e+00 +0.0000000000000000e+00 +4.2499999608033265e+00 -2.3529328143989152e-04 +0.0000000000000000e+00 +9.9999997231853555e-01
4.2999999999999927e+00 +8.2844883155365032e+00 +0.0000000000000000e+00 +4.2999999594028857e+00 -2.3806486926494306e-04 +0.0000000000000000e+00 +9.9999997166255872e-01
4.3499999999999925e+00 +8.2844763430008346e+00 +0.0000000000000000e+00 +4.3499999579694535e+00 -2.4083657767453293e-04 +0.0000000000000000e+00 +9.9999997099887117e-01
4.3999999999999924e+00 +8.2844642318767061e+00 +0.0000000000000000e+00 +4.3999999565026444e+00 -2.4360840785481877e-04 +0.0000000000000000e+00 +9.9999997032747157e-01
4.4499999999999922e+00 +8.2844519821580000e+00 +0.0000000000000000e+00 +4.4499999550020721e+00 -2.4638036097957147e-04 +0.0000000000000000e+00 +9.9999996964835858e-01
4.4999999999999920e+00 +8.2844395938385400e+00 +0.0000000000000000e+00 +4.4999999534673512e+00 -2.4915243821017528e-04 +0.0000000000000000e+00 +9.9999996896153098e-01
4.5499999999999918e+00 +8.2844270669120910e+00 +0.0000000000000000e+00 +4.5499999518980960e+00 -2.5192464069562768e-04 +0.0000000000000000e+00 +9.9999996826698745e-01
4.5999999999999917e+00 +8.2844144013723628e+00 +0.0000000000000000e+00 +4.5999999502939213e+00 -2.5469696957253955e-04 +0.0000000000000000e+00 +9.9999996756472653e-01
4.6499999999999915e+00 +8.2844015972130087e+00 +0.0000000000000000e+00 +4.6499999486544406e+00 -2.5746942596513504e-04 +0.0000000000000000e+00 +9.9999996685474701e-01
4.6999999999999913e+00 +8.2843886544276231e+00 +0.0000000000000000e+00 +4.6999999469792675e+00 -2.6024201098525166e-04 +0.0000000000000000e+00 +9.9999996613704745e-01
4.7499999999999911e+00 +8.2843755730097488e+00 +0.0000000000000000e+00 +4.7499999452680166e+00 -2.6301472573234011e-04 +0.0000000000000000e+00 +9.9999996541162661e-01
4.7999999999999909e+00 +8.2843623529528703e+00 +0.0000000000000000e+00 +4.7999999435203016e+00 -2.6578757129346449e-04 +0.0000000000000000e+00 +9.9999996467848307e-01
4.8499999999999908e+00 +8.2843489942504203e+00 +0.0000000000000000e+00 +4.8499999417357360e+00 -2.6856054874330214e-04 +0.0000000000000000e+00 +9.9999996393761537e-01
4.8999999999999906e+00 +8.2843354968957801e+00 +0.0000000000000000e+00 +4.8999999399139345e+00 -2.7133365914414374e-04 +0.0000000000000000e+00 +9.9999996318902218e-01
4.9499999999999904e+00 +8.2843218608822742e+00 +0.0000000000000000e+00 +4.9499999380545097e+00 -2.7410690354589320e-04 +0.0000000000000000e+00 +9.9999996243270217e-01
4.9999999999999902e+00 +8.2843080862031755e+00 +0.0000000000000000e+00 +4.9999999361570762e+00 -2.7688028298606770e-04 +0.0000000000000000e+00 +9.9999996166865390e-01
5.0499999999999901e+00 +8.2842941728517072e+00 +0.0000000000000000e+00 +5.0499999342212467e+00 -2.7965379848979765e-04 +0.0000000000000000e+00 +9.9999996089687593e-01
5.0999999999999899e+00 +8.2842801208210410e+00 +0.0000000000000000e+00 +5.0999999322466349e+00 -2.8242745106982675e-04 +0.0000000000000000e+00 +9.9999996011736680e-01
5.1499999999999897e+00 +8.2842659301042989e+00 +0.0000000000000000e+00 +5.1499999302328545e+00 -2.8520124172651186e-04 +0.0000000000000000e+00 +9.9999995933012520e-01
5.1999999999999895e+00 +8.2842516006945512e+00 +0.0000000000000000e+00 +5.1999999281795191e+00 -2.8797517144782316e-04 +0.0000000000000000e+00 +9.9999995853514967e-01
5.2499999999999893e+00 +8.2842371325848205e+00 +0.0000000000000000e+00 +5.2499999260862413e+00 -2.9074924120934393e-04 +0.0000000000000000e+00 +9.9999995773243866e-01
5.2999999999999892e+00 +8.2842225257680813e+00 +0.0000000000000000e+00 +5.2999999239526341e+00 -2.9352345197427063e-04 +0.0000000000000000e+00 +9.9999995692199084e-01
5.3499999999999890e+00 +8.2842077802372582e+00 +0.0000000000000000e+00 +5.3499999217783110e+00 -2.9629780469341298e-04 +0.0000000000000000e+00 +9.9999995610380465e-01
5.3999999999999888e+00 +8.2841928959852300e+00 +0.0000000000000000e+00 +5.3999999195628856e+00 -2.9907230030519369e-04 +0.0000000000000000e+00 +9.9999995527787877e-01
5.4499999999999886e+00 +8.2841778730048308e+00 +0.0000000000000000e+00 +5.4499999173059699e+00 -3.0184693973564866e-04 +0.0000000000000000e+00 +9.9999995444421164e-01
5.4999999999999885e+00 +8.2841627112888450e+00 +0.0000000000000000e+00 +5.4999999150071774e+00 -3.0462172389842692e-04 +0.0000000000000000e+00 +9.9999995360280181e-01
5.5499999999999883e+00 +8.2841474108300144e+00 +0.0000000000000000e+00 +5.5499999126661210e+00 -3.0739665369479050e-04 +0.0000000000000000e+00 +9.9999995275364773e-01
5.5999999999999881e+00 +8.2841319716210347e+00 +0.0000000000000000e+00 +5.5999999102824134e+00 -3.1017173001361448e-04 +0.0000000000000000e+00 +9.9999995189674795e-01
5.6499999999999879e+00 +8.2841163936545570e+00 +0.0000000000000000e+00 +5.6499999078556673e+00 -3.1294695373138698e-04 +0.0000000000000000e+00 +9.9999995103210104e-01
5.6999999999999877e+00 +8.2841006769231900e+00 +0.0000000000000000e+00 +5.6999999053854946e+00 -3.1572232571220910e-04 +0.0000000000000000e+00 +9.9999995015970544e-01
5.7499999999999876e+00 +8.2840848214194995e+00 +0.0000000000000000e+00 +5.7499999028715090e+00 -3.1849784680779489e-04 +0.0000000000000000e+00 +9.9999994927955971e-01
5.7999999999999874e+00 +8.2840688271360090e+00 +0.0000000000000000e+00 +5.7999999003133222e+00 -3.2127351785747138e-04 +0.0000000000000000e+00 +9.9999994839166229e-01
5.8499999999999872e+00 +8.2840526940652008e+00 +0.0000000000000000e+00 +5.8499998977105463e+00 -3.2404933968817838e-04 +0.0000000000000000e+00 +9.9999994749601162e-01
5.8999999999999870e+00 +8.2840364221995149e+00 +0.0000000000000000e+00 +5.8999998950627939e+00 -3.2682531311446864e-04 +0.0000000000000000e+00 +9.9999994659260616e-01
