# multipoles
# s[mm] polynom_b[n=0][T/m^n] polynom_b[n=1][T/m^n] polynom_b[n=2][T/m^n] polynom_b[n=3][T/m^n] polynom_b[n=4][T/m^n] polynom_b[n=5][T/m^n] polynom_b[n=6][T/m^n] 
+0.0000000000000000e+00 -5.2410042624867215e-01 +6.8490538838394670e+00 +5.8654719807374311e+00 -1.3635229925159981e+01 -1.3656105398639296e+04 -3.0726626146122802e+05 +8.3753436502624065e+07 
-5.0000000000000003e-02 -5.2410117449061000e-01 +6.8490536413823859e+00 +5.8649238426912271e+00 -1.3851512671816872e+01 -1.3626631467791036e+04 -3.0587574211814592e+05 +8.3567455923087940e+07 
-1.0000000000000001e-01 -5.2410229974126277e-01 +6.8490737471866225e+00 +5.8640695527814382e+00 -1.4055451442773467e+01 -1.3602407308229916e+04 -3.0451594859609503e+05 +8.3417465192425504e+07 
-1.5000000000000002e-01 -5.2410380131982182e-01 +6.8491141478958273e+00 +5.8629000332463512e+00 -1.4247137079781794e+01 -1.3583154476294592e+04 -3.0318731999074656e+05 +8.3301708989018485e+07 
-2.0000000000000001e-01 -5.2410567854547840e-01 +6.8491747901510571e+00 +5.8614062029602430e+00 -1.4426660296254855e+01 -1.3568594436006388e+04 -3.0189029642570688e+05 +8.3218431362472743e+07 
-2.5000000000000000e-01 -5.2410793073743656e-01 +6.8492556205963311e+00 +5.8595789803760328e+00 -1.4594111887519077e+01 -1.3558448645647262e+04 -3.0062531739347201e+05 +8.3165876343137652e+07 
-2.9999999999999999e-01 -5.2411055721494060e-01 +6.8493565858755119e+00 +5.8574092878212438e+00 -1.4749582611557699e+01 -1.3552438664194806e+04 -2.9939282270523440e+05 +8.3142288624113217e+07 
-3.4999999999999998e-01 -5.2411355729722986e-01 +6.8494776326337901e+00 +5.8548880432857189e+00 -1.4893163249631741e+01 -1.3550285933503286e+04 -2.9819325200068002e+05 +8.3145912109324589e+07 
-3.9999999999999997e-01 -5.2411693030357731e-01 +6.8496187075167017e+00 +5.8520061679716564e+00 -1.5024944566834396e+01 -1.3551711984542022e+04 -2.9702704504927690e+05 +8.3174991311018288e+07 
-4.4999999999999996e-01 -5.2412067555325137e-01 +6.8497797571693395e+00 +5.8487545796200306e+00 -1.5145017275823234e+01 -1.3556438259292509e+04 -2.9589464208760887e+05 +8.3227770156328574e+07 
-4.9999999999999994e-01 -5.2412479236556375e-01 +6.8499607282393935e+00 +5.8451241997175964e+00 -1.5253472171046146e+01 -1.3564186291587816e+04 -2.9479648267065868e+05 +8.3302493156774417e+07 
-5.4999999999999993e-01 -5.2412928005982318e-01 +6.8501615673735925e+00 +5.8411059470861302e+00 -1.5350399966258310e+01 -1.3574677555743327e+04 -2.9373300706275133e+05 +8.3397404470423713e+07 
-5.9999999999999998e-01 -5.2413413795536778e-01 +6.8503822212189256e+00 +5.8366907423531833e+00 -1.5435891367079192e+01 -1.3587633566546021e+04 -2.9270465557199920e+05 +8.3510748491868645e+07 
-6.5000000000000002e-01 -5.2413936537153449e-01 +6.8506226364260323e+00 +5.8318695026007354e+00 -1.5510037188338446e+01 -1.3602775745037357e+04 -2.9171186766172014e+05 +8.3640768994068772e+07 
-7.0000000000000007e-01 -5.2414496162770929e-01 +6.8508827596453390e+00 +5.8266331515109018e+00 -1.5572928215510279e+01 -1.3619825696617423e+04 -2.9075508300972369e+05 +8.3785711015514195e+07 
-7.5000000000000011e-01 -5.2415092604325564e-01 +6.8511625375242726e+00 +5.8209726049040720e+00 -1.5624655078579337e+01 -1.3638504807343057e+04 -2.8983474259502615e+05 +8.3943818085400775e+07 
-8.0000000000000016e-01 -5.2415725793759083e-01 +6.8514619167170014e+00 +5.8148787855958783e+00 -1.5665308652029188e+01 -1.3658534655708079e+04 -2.8895128541680740e+05 +8.4113335046142265e+07 
-8.5000000000000020e-01 -5.2416395663011339e-01 +6.8517808438732315e+00 +5.8083426102189692e+00 -1.5694979599243652e+01 -1.3679636655009437e+04 -2.8810515220818738e+05 +8.4292505630651131e+07 
-9.0000000000000024e-01 -5.2417102144026329e-01 +6.8521192656466070e+00 +5.8013549995007203e+00 -1.5713758722982694e+01 -1.3701532325317285e+04 -2.8729678255321062e+05 +8.4479574276501343e+07 
-9.5000000000000029e-01 -5.2417845168749200e-01 +6.8524771286911630e+00 +5.7939068738814594e+00 -1.5721736808877676e+01 -1.3723943187730776e+04 -2.8652661619425035e+05 +8.4672785464510828e+07 
-1.0000000000000002e+00 -5.2418624669126057e-01 +6.8528543796609060e+00 +5.7859891518048538e+00 -1.5719004610310670e+01 -1.3746590698025337e+04 -2.8579509316883958e+05 +8.4870383185411692e+07 
-1.0500000000000003e+00 -5.2419440577105136e-01 +6.8532509652117914e+00 +5.7775927532353260e+00 -1.5705652939207843e+01 -1.3769196363499324e+04 -2.8510265301766660e+05 +8.5070611822235614e+07 
-1.1000000000000003e+00 -5.2420292824635195e-01 +6.8536668319995391e+00 +5.7687085958318010e+00 -1.5681772567143536e+01 -1.3791481623067650e+04 -2.8444973563360272e+05 +8.5271715268818885e+07 
-1.1500000000000004e+00 -5.2421181343668954e-01 +6.8541019266808014e+00 +5.7593276016910844e+00 -1.5647454283831616e+01 -1.3813168039460830e+04 -2.8383678074333968e+05 +8.5471938271394253e+07 
-1.2000000000000004e+00 -5.2422106066158591e-01 +6.8545561959130339e+00 +5.7494406888796705e+00 -1.5602788873052015e+01 -1.3833977065421221e+04 -2.8326422817531758e+05 +8.5669524828884289e+07 
-1.2500000000000004e+00 -5.2423066924057826e-01 +6.8550295863576514e+00 +5.7390387752278782e+00 -1.5547867264968463e+01 -1.3853630145545256e+04 -2.8273251652495866e+05 +8.5862718877334684e+07 
-1.3000000000000005e+00 -5.2424063849323810e-01 +6.8555220446720107e+00 +5.7281127827098155e+00 -1.5482780196851040e+01 -1.3871848844291982e+04 -2.8224208598275977e+05 +8.6049765192234978e+07 
-1.3500000000000005e+00 -5.2425096773913449e-01 +6.8560335175189424e+00 +5.7166536284715948e+00 -1.5407618595941029e+01 -1.3888354582197675e+04 -2.8179337521322607e+05 +8.6228907526709020e+07 
-1.4000000000000006e+00 -5.2426165629785926e-01 +6.8565639515585648e+00 +5.7046522321777928e+00 -1.5322473266156019e+01 -1.3902868859033593e+04 -2.8138682385297911e+05 +8.6398390209229305e+07 
-1.4500000000000006e+00 -5.2427270348902610e-01 +6.8571132934545043e+00 +5.6920995142691195e+00 -1.5227435118599359e+01 -1.3915113193138739e+04 -2.8102287070872524e+05 +8.6556457686173528e+07 
-1.5000000000000007e+00 -5.2428410863224506e-01 +6.8576814898698748e+00 +5.6789863918236776e+00 -1.5122595028936544e+01 -1.3924809012099693e+04 -2.8070195484215335e+05 +8.6701353789795011e+07 
-1.5500000000000007e+00 -5.2429587104716269e-01 +6.8582684874695143e+00 +5.6653037854099457e+00 -1.5008043909285750e+01 -1.3931677837427504e+04 -2.8042451505377522e+05 +8.6831322987211645e+07 
-1.6000000000000008e+00 -5.2430799005342810e-01 +6.8588742329197867e+00 +5.6510426131903504e+00 -1.4883872717181760e+01 -1.3935441122434249e+04 -2.8019098975595745e+05 +8.6944609270600528e+07 
-1.6500000000000008e+00 -5.2432046497070783e-01 +6.8594986728865992e+00 +5.6361937940356635e+00 -1.4750172368734443e+01 -1.3935820343312163e+04 -2.8000181769628299e+05 +8.7039456800526381e+07 
-1.7000000000000008e+00 -5.2433329511869242e-01 +6.8601417540391996e+00 +5.6207482483479501e+00 -1.4607033890184876e+01 -1.3932537019262478e+04 -2.7985743673243455e+05 +8.7114110037489116e+07 
-1.7500000000000009e+00 -5.2434647981706528e-01 +6.8608034230443620e+00 +5.6046968922974552e+00 -1.4454548178548505e+01 -1.3925312550044651e+04 -2.7975828580920619e+05 +8.7166812611011907e+07 
-1.8000000000000009e+00 -5.2436001838555435e-01 +6.8614836265743957e+00 +5.5880306474545769e+00 -1.4292806342869659e+01 -1.3913868485360374e+04 -2.7970480209565640e+05 +8.7195809183797598e+07 
-1.8500000000000010e+00 -5.2437391014388124e-01 +6.8621823112990397e+00 +5.5707404314860156e+00 -1.4121899368927870e+01 -1.3897926267882325e+04 -2.7969742375696084e+05 +8.7199343685892314e+07 
-1.9000000000000010e+00 -5.2438815441178854e-01 +6.8628994238916494e+00 +5.5528171630418859e+00 -1.3941918355756673e+01 -1.3877207364811546e+04 -2.7973658808209520e+05 +8.7175660207111374e+07 
-1.9500000000000011e+00 -5.2440275050902796e-01 +6.8636349110237100e+00 +5.5342517598285363e+00 -1.3752954312413268e+01 -1.3851433220911373e+04 -2.7982273306472955e+05 +8.7123002698126480e+07 
-2.0000000000000009e+00 -5.2441769775537905e-01 +6.8643887193708064e+00 +5.5150351421460932e+00 -1.3555098391388393e+01 -1.3820325351232177e+04 -2.7995629552300670e+05 +8.7039615584528536e+07 
-2.0500000000000007e+00 -5.2443299526199039e-01 +6.8651607808784281e+00 +5.4951626564666078e+00 -1.3348419346731031e+01 -1.3783684603739543e+04 -2.8013774241998425e+05 +8.6924187449560225e+07 
-2.1000000000000005e+00 -5.2444864130570223e-01 +6.8659509619646526e+00 +5.4746478198162736e+00 -1.3132921250736310e+01 -1.3741631207871318e+04 -2.8036753821247240e+05 +8.6777194701376319e+07 
-2.1500000000000004e+00 -5.2446463395483245e-01 +6.8667591110118353e+00 +5.4535088157563330e+00 -1.2908598818324995e+01 -1.3694365613429531e+04 -2.8064611634632136e+05 +8.6599562645690814e+07 
-2.2000000000000002e+00 -5.2448097127772209e-01 +6.8675850764040458e+00 +5.4317638293337005e+00 -1.2675446833019015e+01 -1.3642088310351666e+04 -2.8097390966965823e+05 +8.6392216866215646e+07 
-2.2500000000000000e+00 -5.2449765134272142e-01 +6.8684287065216099e+00 +5.4094310454240118e+00 -1.2433459920655404e+01 -1.3584999781498082e+04 -2.8135135227633500e+05 +8.6156082884305909e+07 
-2.2999999999999998e+00 -5.2451467221818759e-01 +6.8692898497498618e+00 +5.3865286476982117e+00 -1.2182632893986424e+01 -1.3523300478963580e+04 -2.8177887674866884e+05 +8.5892086025197461e+07 
-2.3499999999999996e+00 -5.2453203197250420e-01 +6.8701683544722467e+00 +5.3630748230090628e+00 -1.1922960489841524e+01 -1.3457190944315964e+04 -2.8225691622151289e+05 +8.5601152229757622e+07 
-2.3999999999999995e+00 -5.2454972867403871e-01 +6.8710640690702842e+00 +5.3390877526504834e+00 -1.1654437362139868e+01 -1.3386871562268230e+04 -2.8278590447447641e+05 +8.5284206354977459e+07 
-2.4499999999999993e+00 -5.2456776039120434e-01 +6.8719768419275953e+00 +5.3145856247952645e+00 -1.1377058249518440e+01 -1.3312542910991315e+04 -2.8336627453813166e+05 +8.4942174593131214e+07 
-2.4999999999999991e+00 -5.2458612519239223e-01 +6.8729065214274732e+00 +5.2895866209644096e+00 -1.1090817861363304e+01 -1.3234405380740660e+04 -2.8399845970058691e+05 +8.4575981836100087e+07 
-2.5499999999999989e+00 -5.2460482114601958e-01 +6.8738529559508850e+00 +5.2641089262174008e+00 -1.0795710826988980e+01 -1.3152659465834167e+04 -2.8468289379085088e+05 +8.4186553710674882e+07 
-2.5999999999999988e+00 -5.2462384632051817e-01 +6.8748159938818327e+00 +5.2381707258207619e+00 -1.0491731883834269e+01 -1.3067505662272828e+04 -2.8542000977036596e+05 +8.3774815842382759e+07 
-2.6499999999999986e+00 -5.2464319878432186e-01 +6.8757954836020012e+00 +5.2117902036098576e+00 -1.0178875684286375e+01 -1.2979144426995577e+04 -2.8621024121220130e+05 +8.3341693591341928e+07 
-2.6999999999999984e+00 -5.2466287660587396e-01 +6.8767912734912837e+00 +5.1849855436862340e+00 -9.8571368058876807e+00 -1.2887776225904756e+04 -2.8705402226142137e+05 +8.2888112381604135e+07 
-2.7499999999999982e+00 -5.2468287785363077e-01 +6.8778032119348778e+00 +5.1577749305367542e+00 -9.5265100392562783e+00 -1.2793601537399545e+04 -2.8795178529440693e+05 +8.2414997734380499e+07 
-2.7999999999999980e+00 -5.2470320059606201e-01 +6.8788311473093735e+00 +5.1301765488422211e+00 -9.1869898364017892e+00 -1.2696820838512902e+04 -2.8890396536705992e+05 +8.1923275134964138e+07 
-2.8499999999999979e+00 -5.2472384290162832e-01 +6.8798749279971130e+00 +5.1022085809984006e+00 -8.8385708785764390e+00 -1.2597634554475586e+04 -2.8991099563597928e+05 +8.1413869756521925e+07 
-2.8999999999999977e+00 -5.2474480283882918e-01 +6.8809344023784238e+00 +5.0738892134028282e+00 -8.4812477741542764e+00 -1.2496243207200068e+04 -2.9097330979171518e+05 +8.0887707383782774e+07 
-2.9499999999999975e+00 -5.2476607847614265e-01 +6.8820094188322276e+00 +5.0452366282802501e+00 -8.1150150758317441e+00 -1.2392847217617989e+04 -2.9209134192939865e+05 +8.0345713162119925e+07 
-2.9999999999999973e+00 -5.2478766788208242e-01 +6.8830998257365286e+00 +5.0162690116448392e+00 -7.7398673108681777e+00 -1.2287647101049302e+04 -2.9326552627508738e+05 +7.9788812848588079e+07 
-3.0499999999999972e+00 -5.2480956912514420e-01 +6.8842054714707119e+00 +4.9870045455283112e+00 -7.3557990680186478e+00 -1.2180843268659821e+04 -2.9449629650049127e+05 +7.9217931504028514e+07 
-3.0999999999999970e+00 -5.2483178027385746e-01 +6.8853262044109931e+00 +4.9574614161500552e+00 -6.9628048126725188e+00 -1.2072636247006496e+04 -2.9578408723205171e+05 +7.8633994984299004e+07 
-3.1499999999999968e+00 -5.2485429939673822e-01 +6.8864618729343752e+00 +4.9276578057085061e+00 -6.5608790554874252e+00 -1.1963226449600104e+04 -2.9712933264680568e+05 +7.8037928362740695e+07 
-3.1999999999999966e+00 -5.2487712456231628e-01 +6.8876123254171588e+00 +4.8976118978842651e+00 -6.1500162847830895e+00 -1.1852814332526044e+04 -2.9853246705647936e+05 +7.7430657007022724e+07 
-3.2499999999999964e+00 -5.2490025383913508e-01 +6.8887774102333905e+00 +4.8673418771025379e+00 -5.7302109108985135e+00 -1.1741600373539397e+04 -2.9999392532613623e+05 +7.6813106444360167e+07 
-3.2999999999999963e+00 -5.2492368529574762e-01 +6.8899569757595716e+00 +4.8368659280879545e+00 -5.3014574571508408e+00 -1.1629785055113520e+04 -3.0151414133123809e+05 +7.6186202216112807e+07 
-3.3499999999999961e+00 -5.2494741700071024e-01 +6.8911508703650091e+00 +4.8062022349973290e+00 -4.8637501678636523e+00 -1.1517568847169787e+04 -3.0309355114606483e+05 +7.5550869793618068e+07 
-3.3999999999999959e+00 -5.2497144702256993e-01 +6.8923589424251768e+00 +4.7753689792325593e+00 -4.4170835448490031e+00 -1.1405152144897831e+04 -3.0473258869923727e+05 +7.4908034139121860e+07 
-3.4499999999999957e+00 -5.2499577342990300e-01 +6.8935810403095408e+00 +4.7443843460231054e+00 -3.9614518704412398e+00 -1.1292735449528682e+04 -3.0643168959693419e+05 +7.4258620947301954e+07 
-3.4999999999999956e+00 -5.2502039429128389e-01 +6.8948170123894341e+00 +4.7132665188495872e+00 -3.4968495117156961e+00 -1.1180519209316117e+04 -3.0819128870623861e+05 +7.3603555528487295e+07 
-3.5499999999999954e+00 -5.2504530767528912e-01 +6.8960667070324213e+00 +4.6820336808512231e+00 -3.0232707071902811e+00 -1.1068703868230237e+04 -3.1001182183193509e+05 +7.2943763186439753e+07 
-3.5999999999999952e+00 -5.2507051165051377e-01 +6.8973299726088948e+00 +4.6507040169481071e+00 -2.5407098175203457e+00 -1.0957489916014572e+04 -3.1189372374252952e+05 +7.2280169524692476e+07 
-3.6499999999999950e+00 -5.2509600428554692e-01 +6.8986066574821336e+00 +4.6192957102639172e+00 -2.0491609424480850e+00 -1.0847077797510547e+04 -3.1383743121516739e+05 +7.1613699860700175e+07 
-3.6999999999999948e+00 -5.2512178364897255e-01 +6.8998966100208543e+00 +4.5878269418958357e+00 -1.5486184179434856e+00 -1.0737667899809605e+04 -3.1584337903464568e+05 +7.0945279106918216e+07 
-3.7499999999999947e+00 -5.2514784780941692e-01 +6.9011996785867709e+00 +4.5563158992231854e+00 -1.0390763161031464e+00 -1.0629460780337031e+04 -3.1791200404775247e+05 +7.0275833333937600e+07 
-3.7999999999999945e+00 -5.2517419483547623e-01 +6.9025157115438667e+00 +4.5247807636700994e+00 -5.2052882096701869e-01 -1.0522656837038248e+04 -3.2004374210958998e+05 +6.9606287537923038e+07 
-3.8499999999999943e+00 -5.2520082279576907e-01 +6.9038445572529250e+00 +4.4932397192763247e+00 +7.0299787058086174e-03 -1.0417456536593168e+04 -3.2223902971657086e+05 +6.8937567174898207e+07 
-3.8999999999999941e+00 -5.2522772975890297e-01 +6.9051860640737468e+00 +4.4617109479277763e+00 +5.4360603056711876e-01 -1.0314060291812688e+04 -3.2449830364367162e+05 +6.8270597352817863e+07 
-3.9499999999999940e+00 -5.2525491379350897e-01 +6.9065400803672112e+00 +4.4302126340604380e+00 +1.0892051997904186e+00 -1.0212668579012641e+04 -3.2682199984313885e+05 +6.7606303589994922e+07 
-3.9999999999999938e+00 -5.2528237296822744e-01 +6.9079064544869073e+00 +4.3987629634698528e+00 +1.6438336255176780e+00 -1.0113481915942921e+04 -3.2921055641435966e+05 +6.6945611705435455e+07 
-4.0499999999999936e+00 -5.2531010517839460e-01 +6.9092850337816341e+00 +4.3673770109294612e+00 +2.2073358402959711e+00 -1.0016675676266532e+04 -3.3166317870541610e+05 +6.6289415093761131e+07 
-4.0999999999999934e+00 -5.2533810762677824e-01 +6.9106756525627118e+00 +4.3360576494290761e+00 +2.7790586453273440e+00 -9.9223207236391718e+03 -3.3417518085596833e+05 +6.5638444329399243e+07 
-4.1499999999999932e+00 -5.2536637734303482e-01 +6.9120781396463160e+00 +4.3048047671111984e+00 +3.3582595537822324e+00 -9.8304606246075291e+03 -3.3674115629855747e+05 +6.4993379866600662e+07 
-4.1999999999999931e+00 -5.2539491135684480e-01 +6.9134923238479233e+00 +4.2736182558038873e+00 +3.9441961229226949e+00 -9.7411390370930203e+03 -3.3935569897514838e+05 +6.4354902744495429e+07 
-4.2499999999999929e+00 -5.2542370669788463e-01 +6.9149180339855096e+00 +4.2424980065056275e+00 +4.5361257989375083e+00 -9.6543996036024819e+03 -3.4201340190181410e+05 +6.3723693932436511e+07 
-4.2999999999999927e+00 -5.2545276039583133e-01 +6.9163550988736819e+00 +4.2114439095347347e+00 +5.1333061933676323e+00 -9.5702859374881227e+03 -3.4470885957701225e+05 +6.3100434154507138e+07 
-4.3499999999999925e+00 -5.2548206948037113e-01 +6.9178033473310014e+00 +4.1804558573929462e+00 +5.7349947591019594e+00 -9.4888417222313892e+03 -3.4743666522740916e+05 +6.2485804653360456e+07 
-4.3999999999999924e+00 -5.2551163098118725e-01 +6.9192626081736037e+00 +4.1495337413103659e+00 +6.3404490549483086e+00 -9.4101105966852192e+03 -3.5019141300685791e+05 +6.1880486327956922e+07 
-4.4499999999999922e+00 -5.2554144192796037e-01 +6.9207327102168783e+00 +4.1186774520699876e+00 +6.9489266869956934e+00 -9.3341361908283852e+03 -3.5296769753762183e+05 +6.1285160029154286e+07 
-4.4999999999999920e+00 -5.2557149935038505e-01 +6.9222134822797416e+00 +4.0878868833282977e+00 +7.5596851328283572e+00 -9.2609622155798024e+03 -3.5576011248274398e+05 +6.0700507167058818e+07 
-4.5499999999999918e+00 -5.2560180027815140e-01 +6.9237047531787912e+00 +4.0571619267542669e+00 +8.1719819629169059e+00 -9.1906323162411409e+03 -3.5856325228400825e+05 +6.0127208660955228e+07 
-4.5999999999999917e+00 -5.2563234174094087e-01 +6.9252063517333866e+00 +4.0265024738359028e+00 +8.7850746605340415e+00 -9.1231901452434486e+03 -3.6137171080719359e+05 +5.9565945523540825e+07 
-4.6499999999999915e+00 -5.2566312076844568e-01 +6.9267181067572778e+00 +3.9959084168685588e+00 +9.3982209421766161e+00 -9.0586793648325711e+03 -3.6418008387444884e+05 +5.9017398786296718e+07 
-4.6999999999999913e+00 -5.2569413439035750e-01 +6.9282398470714819e+00 +3.9653796490316067e+00 +1.0010678237306641e+01 -8.9971436691681338e+03 -3.6698296502641169e+05 +5.8482249726757467e+07 
-4.7499999999999911e+00 -5.2572537963637322e-01 +6.9297714014945520e+00 +3.9349160641149981e+00 +1.0621704093297714e+01 -8.9386267618044985e+03 -3.6977494888308347e+05 +5.7961179656359546e+07 
-4.7999999999999909e+00 -5.2575685353617863e-01 +6.9313125988408375e+00 +3.9045175542071555e+00 +1.1230556242175130e+01 -8.8831723033070757e+03 -3.7255063165962783e+05 +5.7454869607864723e+07 
-4.8499999999999908e+00 -5.2578855311945716e-01 +6.9328632679343309e+00 +3.8741840113827823e+00 +1.1836492029925942e+01 -8.8308239511742086e+03 -3.7530460648453381e+05 +5.6964000579255931e+07 
-4.8999999999999906e+00 -5.2582047541591437e-01 +6.9344232375905754e+00 +3.8439153314398884e+00 +1.2438769161892104e+01 -8.7816254602793106e+03 -3.7803146953103633e+05 +5.6489254216655016e+07 
-4.9499999999999904e+00 -5.2585261745523104e-01 +6.9359923366286846e+00 +3.8137114069943201e+00 +1.3036645215881714e+01 -8.7356205043721384e+03 -3.8072581603755866e+05 +5.6031311630763665e+07 
-4.9999999999999902e+00 -5.2588497626710073e-01 +6.9375703938690521e+00 +3.7835721324545304e+00 +1.3629377721051465e+01 -8.6928527987920043e+03 -3.8338224091359478e+05 +5.5590854188818306e+07 
-5.0499999999999901e+00 -5.2591754888120779e-01 +6.9391572381316768e+00 +3.7534974012510847e+00 +1.4216224243624412e+01 -8.6533660336205267e+03 -3.8599533950157347e+05 +5.5168563090947583e+07 
