# field on trajectory
# s[mm] rx[mm] ry[mm] rz[mm] bx[T] by[T] bz[T]
0.0000000000000000e+00 +8.5269999999999904e+00 +0.0000000000000000e+00 +0.0000000000000000e+00 -2.9968790304901117e-02 -5.5096508573080782e-01 +5.5892502199990082e-03
5.0000000000000003e-02 +8.5269999309457507e+00 +0.0000000000000000e+00 +4.9999999999936401e-02 -2.9968831520627254e-02 -5.5096538787829918e-01 +5.5913156417798857e-03
1.0000000000000001e-01 +8.5269997237883199e+00 +0.0000000000000000e+00 +9.9999999999491399e-02 -2.9968891346656409e-02 -5.5096606779433777e-01 +5.5933862446607306e-03
1.4999999999999999e-01 +8.5269993785295792e+00 +0.0000000000000000e+00 +1.4999999999828301e-01 -2.9968969551524068e-02 -5.5096712466392750e-01 +5.5954618918255816e-03
2.0000000000000001e-01 +8.5269988951622508e+00 +0.0000000000000000e+00 +1.9999999999593099e-01 -2.9969065903769257e-02 -5.5096855767215513e-01 +5.5975424464594055e-03
2.5000000000000000e-01 +8.5269982736936107e+00 +0.0000000000000000e+00 +2.4999999999205300e-01 -2.9969180171926142e-02 -5.5097036600401916e-01 +5.5996277717463277e-03
2.9999999999999999e-01 +8.5269975141200103e+00 +0.0000000000000000e+00 +2.9999999998626797e-01 -2.9969312124533045e-02 -5.5097254884461433e-01 +5.6017177308715083e-03
3.4999999999999998e-01 +8.5269966164378292e+00 +0.0000000000000000e+00 +3.4999999997819298e-01 -2.9969461530128569e-02 -5.5097510537905181e-01 +5.6038121870203060e-03
4.0000000000000002e-01 +8.5269955806543294e+00 +0.0000000000000000e+00 +3.9999999996744900e-01 -2.9969628157247838e-02 -5.5097803479238117e-01 +5.6059110033774614e-03
4.5000000000000001e-01 +8.5269944067658798e+00 +0.0000000000000000e+00 +4.4999999995365297e-01 -2.9969811774430092e-02 -5.5098133626974699e-01 +5.6080140431286965e-03
5.0000000000000000e-01 +8.5269930947724806e+00 +0.0000000000000000e+00 +4.9999999993642402e-01 -2.9970012150213655e-02 -5.5098500899628455e-01 +5.6101211694596200e-03
5.5000000000000004e-01 +8.5269916446777607e+00 +0.0000000000000000e+00 +5.4999999991537996e-01 -2.9970229053135879e-02 -5.5098905215711924e-01 +5.6122322455557077e-03
5.9999999999999998e-01 +8.5269900564744603e+00 +0.0000000000000000e+00 +5.9999999989013997e-01 -2.9970462251738328e-02 -5.5099346493747137e-01 +5.6143471346033723e-03
6.5000000000000002e-01 +8.5269883301661995e+00 +0.0000000000000000e+00 +6.4999999986032297e-01 -2.9970711514559059e-02 -5.5099824652249996e-01 +5.6164656997883221e-03
6.9999999999999996e-01 +8.5269864657566394e+00 +0.0000000000000000e+00 +6.9999999982554695e-01 -2.9970976610136531e-02 -5.5100339609737869e-01 +5.6185878042963443e-03
7.5000000000000000e-01 +8.5269844632421208e+00 +0.0000000000000000e+00 +7.4999999978543097e-01 -2.9971257307012094e-02 -5.5100891284735087e-01 +5.6207133113138604e-03
8.0000000000000004e-01 +8.5269823226226400e+00 +0.0000000000000000e+00 +7.9999999973959202e-01 -2.9971553373726229e-02 -5.5101479595765013e-01 +5.6228420840270686e-03
8.4999999999999998e-01 +8.5269800438982202e+00 +0.0000000000000000e+00 +8.4999999968765005e-01 -2.9971864578819753e-02 -5.5102104461352441e-01 +5.6249739856222055e-03
9.0000000000000002e-01 +8.5269776270688507e+00 +0.0000000000000000e+00 +8.9999999962922395e-01 -2.9972190690833928e-02 -5.5102765800023934e-01 +5.6271088792855355e-03
9.4999999999999996e-01 +8.5269750721381605e+00 +0.0000000000000000e+00 +9.4999999956393100e-01 -2.9972531478309153e-02 -5.5103463530304930e-01 +5.6292466282030591e-03
1.0000000000000000e+00 +8.5269723790988792e+00 +0.0000000000000000e+00 +9.9999999949139096e-01 -2.9972886709790030e-02 -5.5104197570730318e-01 +5.6313870955615949e-03
1.0500000000000000e+00 +8.5269695479546499e+00 +0.0000000000000000e+00 +1.0499999994112199e+00 -2.9973256153817761e-02 -5.5104967839828700e-01 +5.6335301445471020e-03
1.1000000000000001e+00 +8.5269665787091107e+00 +0.0000000000000000e+00 +1.0999999993230400e+00 -2.9973639578933998e-02 -5.5105774256130213e-01 +5.6356756383455150e-03
1.1499999999999999e+00 +8.5269634713586093e+00 +0.0000000000000000e+00 +1.1499999992264700e+00 -2.9974036753683358e-02 -5.5106616738171799e-01 +5.6378234401432466e-03
1.2000000000000000e+00 +8.5269602259031707e+00 +0.0000000000000000e+00 +1.1999999991211201e+00 -2.9974447446609633e-02 -5.5107495204489343e-01 +5.6399734131263703e-03
1.2500000000000000e+00 +8.5269568423427700e+00 +0.0000000000000000e+00 +1.2499999990066200e+00 -2.9974871426257078e-02 -5.5108409573620198e-01 +5.6421254204808658e-03
1.3000000000000000e+00 +8.5269533206774195e+00 +0.0000000000000000e+00 +1.2999999988825901e+00 -2.9975308461170407e-02 -5.5109359764103316e-01 +5.6442793253926133e-03
1.3500000000000001e+00 +8.5269496609071194e+00 +0.0000000000000000e+00 +1.3499999987486300e+00 -2.9975758319894796e-02 -5.5110345694479124e-01 +5.6464349910473628e-03
1.3999999999999999e+00 +8.5269458630355093e+00 +0.0000000000000000e+00 +1.3999999986043801e+00 -2.9976220770974612e-02 -5.5111367283286916e-01 +5.6485922806304503e-03
1.4500000000000000e+00 +8.5269419270553009e+00 +0.0000000000000000e+00 +1.4499999984494401e+00 -2.9976695582958578e-02 -5.5112424449075381e-01 +5.6507510573278940e-03
1.5000000000000000e+00 +8.5269378529737896e+00 +0.0000000000000000e+00 +1.4999999982834400e+00 -2.9977182524390751e-02 -5.5113517110384191e-01 +5.6529111843244256e-03
1.5500000000000000e+00 +8.5269336407873197e+00 +0.0000000000000000e+00 +1.5499999981060000e+00 -2.9977681363819553e-02 -5.5114645185762345e-01 +5.6550725248054202e-03
1.6000000000000001e+00 +8.5269292904959002e+00 +0.0000000000000000e+00 +1.5999999979167401e+00 -2.9978191869792652e-02 -5.5115808593757798e-01 +5.6572349419557822e-03
1.6499999999999999e+00 +8.5269248020995292e+00 +0.0000000000000000e+00 +1.6499999977152600e+00 -2.9978713810858201e-02 -5.5117007252919803e-01 +5.6593982989601816e-03
1.7000000000000000e+00 +8.5269201755982102e+00 +0.0000000000000000e+00 +1.6999999975011999e+00 -2.9979246955564878e-02 -5.5118241081799169e-01 +5.6615624590030632e-03
1.7500000000000000e+00 +8.5269154109919292e+00 +0.0000000000000000e+00 +1.7499999972741700e+00 -2.9979791072461934e-02 -5.5119509998948180e-01 +5.6637272852686129e-03
1.8000000000000000e+00 +8.5269105082843506e+00 +0.0000000000000000e+00 +1.7999999970337901e+00 -2.9980345930097851e-02 -5.5120813922917766e-01 +5.6658926409404635e-03
1.8500000000000001e+00 +8.5269054674718099e+00 +0.0000000000000000e+00 +1.8499999967796801e+00 -2.9980911297024251e-02 -5.5122152772265809e-01 +5.6680583892025340e-03
1.8999999999999999e+00 +8.5269002885506797e+00 +0.0000000000000000e+00 +1.8999999965114500e+00 -2.9981486941793263e-02 -5.5123526465551320e-01 +5.6702243932384294e-03
1.9500000000000000e+00 +8.5268949715282396e+00 +0.0000000000000000e+00 +1.9499999962287300e+00 -2.9982072632953816e-02 -5.5124934921327085e-01 +5.6723905162306028e-03
2.0000000000000000e+00 +8.5268895164008391e+00 +0.0000000000000000e+00 +1.9999999959311201e+00 -2.9982668139059195e-02 -5.5126378058155012e-01 +5.6745566213620121e-03
2.0499999999999998e+00 +8.5268839230666291e+00 +0.0000000000000000e+00 +2.0499999956182600e+00 -2.9983273281117915e-02 -5.5127855774667789e-01 +5.6767225804046856e-03
2.1000000000000001e+00 +8.5268781914164702e+00 +0.0000000000000000e+00 +2.0999999952897199e+00 -2.9983888089822556e-02 -5.5129367889497682e-01 +5.6788882994581735e-03
2.1499999999999999e+00 +8.5268723214576294e+00 +0.0000000000000000e+00 +2.1499999949451398e+00 -2.9984512648245802e-02 -5.5130914201191916e-01 +5.6810536931946902e-03
2.2000000000000002e+00 +8.5268663131864706e+00 +0.0000000000000000e+00 +2.1999999945841302e+00 -2.9985147039464938e-02 -5.5132494508306795e-01 +5.6832186762872080e-03
2.2500000000000000e+00 +8.5268601666030008e+00 +0.0000000000000000e+00 +2.2499999942063100e+00 -2.9985791346556656e-02 -5.5134108609397026e-01 +5.6853831634083351e-03
2.2999999999999998e+00 +8.5268538817035697e+00 +0.0000000000000000e+00 +2.2999999938113000e+00 -2.9986445652599780e-02 -5.5135756303021066e-01 +5.6875470692308817e-03
2.3500000000000001e+00 +8.5268474584954692e+00 +0.0000000000000000e+00 +2.3499999933987001e+00 -2.9987110040670017e-02 -5.5137437387730481e-01 +5.6897103084267188e-03
2.3999999999999999e+00 +8.5268408969750507e+00 +0.0000000000000000e+00 +2.3999999929681501e+00 -2.9987784593847714e-02 -5.5139151662085839e-01 +5.6918727956684935e-03
2.4500000000000002e+00 +8.5268341971459396e+00 +0.0000000000000000e+00 +2.4499999925192602e+00 -2.9988469395211530e-02 -5.5140898924643378e-01 +5.6940344456281999e-03
2.5000000000000000e+00 +8.5268273590008903e+00 +0.0000000000000000e+00 +2.4999999920516398e+00 -2.9989164527844718e-02 -5.5142678973968218e-01 +5.6961951729786074e-03
2.5499999999999998e+00 +8.5268203825435194e+00 +0.0000000000000000e+00 +2.5499999915649201e+00 -2.9989870074827587e-02 -5.5144491608618573e-01 +5.6983548923915505e-03
2.6000000000000001e+00 +8.5268132677774702e+00 +0.0000000000000000e+00 +2.5999999910586999e+00 -2.9990586119241290e-02 -5.5146336627153569e-01 +5.7005135185387934e-03
2.6499999999999999e+00 +8.5268060146954703e+00 +0.0000000000000000e+00 +2.6499999905326099e+00 -2.9991312744171710e-02 -5.5148213828141202e-01 +5.7026709660928775e-03
2.7000000000000002e+00 +8.5267986233047797e+00 +0.0000000000000000e+00 +2.6999999899862699e+00 -2.9992050032700446e-02 -5.5150123010139696e-01 +5.7048271497251229e-03
2.7500000000000000e+00 +8.5267910936017905e+00 +0.0000000000000000e+00 +2.7499999894192899e+00 -2.9992798067913926e-02 -5.5152063971716214e-01 +5.7069819841076399e-03
2.7999999999999998e+00 +8.5267834255828294e+00 +0.0000000000000000e+00 +2.7999999888312899e+00 -2.9993556932899436e-02 -5.5154036511438653e-01 +5.7091353839124675e-03
2.8500000000000001e+00 +8.5267756192552007e+00 +0.0000000000000000e+00 +2.8499999882218900e+00 -2.9994326710741391e-02 -5.5156040427867836e-01 +5.7112872638106996e-03
2.8999999999999999e+00 +8.5267676746152592e+00 +0.0000000000000000e+00 +2.8999999875907001e+00 -2.9995107484528969e-02 -5.5158075519573313e-01 +5.7134375384742357e-03
2.9500000000000002e+00 +8.5267595916629908e+00 +0.0000000000000000e+00 +2.9499999869373399e+00 -2.9995899337351081e-02 -5.5160141585122813e-01 +5.7155861225746153e-03
3.0000000000000000e+00 +8.5267513703984203e+00 +0.0000000000000000e+00 +2.9999999862614302e+00 -2.9996702352297559e-02 -5.5162238423084720e-01 +5.7177329307833077e-03
3.0499999999999998e+00 +8.5267430108251592e+00 +0.0000000000000000e+00 +3.0499999855625899e+00 -2.9997516612458020e-02 -5.5164365832025652e-01 +5.7198778777714284e-03
3.1000000000000001e+00 +8.5267345129359509e+00 +0.0000000000000000e+00 +3.0999999848404300e+00 -2.9998342200926873e-02 -5.5166523610520746e-01 +5.7220208782108890e-03
3.1499999999999999e+00 +8.5267258767344192e+00 +0.0000000000000000e+00 +3.1499999840945798e+00 -2.9999179200795766e-02 -5.5168711557137939e-01 +5.7241618467726773e-03
3.2000000000000002e+00 +8.5267171022205694e+00 +0.0000000000000000e+00 +3.1999999833246400e+00 -3.0000027695158627e-02 -5.5170929470448460e-01 +5.7263006981280000e-03
3.2500000000000000e+00 +8.5267081893980503e+00 +0.0000000000000000e+00 +3.2499999825302401e+00 -3.0000887767109196e-02 -5.5173177149021591e-01 +5.7284373469477156e-03
3.2999999999999998e+00 +8.5266991382632096e+00 +0.0000000000000000e+00 +3.2999999817109900e+00 -3.0001759499744846e-02 -5.5175454391432432e-01 +5.7305717079031964e-03
3.3500000000000001e+00 +8.5266899488124199e+00 +0.0000000000000000e+00 +3.3499999808665200e+00 -3.0002642976164007e-02 -5.5177760996256742e-01 +5.7327036956657633e-03
3.3999999999999999e+00 +8.5266806210529502e+00 +0.0000000000000000e+00 +3.3999999799964300e+00 -3.0003538279462418e-02 -5.5180096762062980e-01 +5.7348332249057927e-03
3.4500000000000002e+00 +8.5266711549811607e+00 +0.0000000000000000e+00 +3.4499999791003502e+00 -3.0004445492740745e-02 -5.5182461487427936e-01 +5.7369602102944938e-03
3.5000000000000000e+00 +8.5266615505970496e+00 +0.0000000000000000e+00 +3.4999999781778901e+00 -3.0005364699099524e-02 -5.5184854970926389e-01 +5.7390845665027113e-03
3.5499999999999998e+00 +8.5266518079006293e+00 +0.0000000000000000e+00 +3.5499999772286701e+00 -3.0006295981640421e-02 -5.5187277011133595e-01 +5.7412062082012388e-03
3.6000000000000001e+00 +8.5266419268882601e+00 +0.0000000000000000e+00 +3.5999999762523198e+00 -3.0007239423467599e-02 -5.5189727406627997e-01 +5.7433250500611138e-03
3.6499999999999999e+00 +8.5266319075708505e+00 +0.0000000000000000e+00 +3.6499999752484298e+00 -3.0008195107681220e-02 -5.5192205955977802e-01 +5.7454410067521436e-03
3.6999999999999900e+00 +8.5266217499374797e+00 +0.0000000000000000e+00 +3.6999999742166398e+00 -3.0009163117390360e-02 -5.5194712457767603e-01 +5.7475539929458400e-03
3.7499999999999898e+00 +8.5266114539917908e+00 +0.0000000000000000e+00 +3.7499999731565601e+00 -3.0010143535700182e-02 -5.5197246710571868e-01 +5.7496639233124971e-03
3.7999999999999901e+00 +8.5266010197374307e+00 +0.0000000000000000e+00 +3.7999999720678099e+00 -3.0011136445717072e-02 -5.5199808512965354e-01 +5.7517707125223508e-03
3.8499999999999899e+00 +8.5265904471671092e+00 +0.0000000000000000e+00 +3.8499999709499999e+00 -3.0012141930552492e-02 -5.5202397663531200e-01 +5.7538742752464723e-03
3.8999999999999901e+00 +8.5265797362881095e+00 +0.0000000000000000e+00 +3.8999999698027499e+00 -3.0013160073314064e-02 -5.5205013960842308e-01 +5.7559745261547106e-03
3.9499999999999900e+00 +8.5265688870931609e+00 +0.0000000000000000e+00 +3.9499999686256899e+00 -3.0014190957115761e-02 -5.5207657203482430e-01 +5.7580713799180406e-03
3.9999999999999898e+00 +8.5265578995895304e+00 +0.0000000000000000e+00 +3.9999999674184199e+00 -3.0015234665067766e-02 -5.5210327190025099e-01 +5.7601647512062169e-03
4.0499999999999901e+00 +8.5265467737735907e+00 +0.0000000000000000e+00 +4.0499999661805601e+00 -3.0016291239863761e-02 -5.5213023707118547e-01 +5.7622545489420729e-03
4.0999999999999899e+00 +8.5265355096416897e+00 +0.0000000000000000e+00 +4.0999999649117402e+00 -3.0017360562511849e-02 -5.5215746493677198e-01 +5.7643406590571237e-03
4.1499999999999897e+00 +8.5265241072047502e+00 +0.0000000000000000e+00 +4.1499999636115703e+00 -3.0018442473594226e-02 -5.5218495276671520e-01 +5.7664229617334318e-03
4.1999999999999904e+00 +8.5265125664518600e+00 +0.0000000000000000e+00 +4.1999999622796604e+00 -3.0019536813701741e-02 -5.5221269783087801e-01 +5.7685013371542946e-03
4.2499999999999902e+00 +8.5265008873866499e+00 +0.0000000000000000e+00 +4.2499999609156403e+00 -3.0020643423421107e-02 -5.5224069739901827e-01 +5.7705756655012505e-03
4.2999999999999901e+00 +8.5264890700091200e+00 +0.0000000000000000e+00 +4.2999999595191198e+00 -3.0021762143341308e-02 -5.5226894874091992e-01 +5.7726458269555716e-03
4.3499999999999899e+00 +8.5264771143192792e+00 +0.0000000000000000e+00 +4.3499999580897200e+00 -3.0022892814052307e-02 -5.5229744912636691e-01 +5.7747117016979455e-03
4.3999999999999897e+00 +8.5264650203207601e+00 +0.0000000000000000e+00 +4.3999999566270596e+00 -3.0024035276143769e-02 -5.5232619582511588e-01 +5.7767731699081594e-03
4.4499999999999904e+00 +8.5264527880062797e+00 +0.0000000000000000e+00 +4.4499999551307496e+00 -3.0025189370210252e-02 -5.5235518610700196e-01 +5.7788301117662816e-03
4.4999999999999902e+00 +8.5264404173794901e+00 +0.0000000000000000e+00 +4.4999999536004101e+00 -3.0026354936843414e-02 -5.5238441724178000e-01 +5.7808824074508519e-03
4.5499999999999901e+00 +8.5264279084440204e+00 +0.0000000000000000e+00 +4.5499999520356598e+00 -3.0027531816635925e-02 -5.5241388649920264e-01 +5.7829299371397764e-03
4.5999999999999899e+00 +8.5264152611962292e+00 +0.0000000000000000e+00 +4.5999999504361098e+00 -3.0028719850184078e-02 -5.5244359114907482e-01 +5.7849725810109037e-03
4.6499999999999897e+00 +8.5264024756361305e+00 +0.0000000000000000e+00 +4.6499999488013897e+00 -3.0029918878083834e-02 -5.5247352846117193e-01 +5.7870102192411075e-03
4.6999999999999904e+00 +8.5263895517600794e+00 +0.0000000000000000e+00 +4.6999999471311096e+00 -3.0031128740933503e-02 -5.5250369570529467e-01 +5.7890427320068895e-03
4.7499999999999902e+00 +8.5263764895753393e+00 +0.0000000000000000e+00 +4.7499999454248902e+00 -3.0032349279328553e-02 -5.5253409015116040e-01 +5.7910699994831423e-03
4.7999999999999901e+00 +8.5263632890782901e+00 +0.0000000000000000e+00 +4.7999999436823400e+00 -3.0033580333869318e-02 -5.5256470906856425e-01 +5.7930919018449652e-03
4.8499999999999899e+00 +8.5263499502725608e+00 +0.0000000000000000e+00 +4.8499999419030901e+00 -3.0034821745154615e-02 -5.5259554972724489e-01 +5.7951083192661198e-03
4.8999999999999897e+00 +8.5263364731472393e+00 +0.0000000000000000e+00 +4.8999999400867402e+00 -3.0036073353789428e-02 -5.5262660939704389e-01 +5.7971191319208387e-03
4.9499999999999904e+00 +8.5263228577168793e+00 +0.0000000000000000e+00 +4.9499999382329296e+00 -3.0037335000370789e-02 -5.5265788534761284e-01 +5.7991242199804975e-03
4.9999999999999902e+00 +8.5263091039705596e+00 +0.0000000000000000e+00 +4.9999999363412497e+00 -3.0038606525505773e-02 -5.5268937484878600e-01 +5.8011234636178178e-03
5.0499999999999901e+00 +8.5262952115954196e+00 +0.0000000000000000e+00 +5.0499999344112600e+00 -3.0039887769909304e-02 -5.5272107517260305e-01 +5.8031167430298066e-03
5.0999999999999899e+00 +8.5262811802713294e+00 +0.0000000000000000e+00 +5.0999999324424596e+00 -3.0041178574300057e-02 -5.5275298359115543e-01 +5.8051039384133963e-03
5.1499999999999897e+00 +8.5262670100019005e+00 +0.0000000000000000e+00 +5.1499999304344799e+00 -3.0042478779283271e-02 -5.5278509737416037e-01 +5.8070849299378842e-03
5.1999999999999904e+00 +8.5262527007798798e+00 +0.0000000000000000e+00 +5.1999999283869203e+00 -3.0043788225469124e-02 -5.5281741379140925e-01 +5.8090595977726492e-03
5.2499999999999902e+00 +8.5262382526088896e+00 +0.0000000000000000e+00 +5.2499999262994104e+00 -3.0045106753464997e-02 -5.5284993011260974e-01 +5.8110278220853389e-03
5.2999999999999901e+00 +8.5262236654925800e+00 +0.0000000000000000e+00 +5.2999999241715603e+00 -3.0046434203879355e-02 -5.5288264360746364e-01 +5.8129894830427449e-03
5.3499999999999899e+00 +8.5262089394273097e+00 +0.0000000000000000e+00 +5.3499999220029704e+00 -3.0047770417324291e-02 -5.5291555154571914e-01 +5.8149444608113993e-03
5.3999999999999897e+00 +8.5261940744130698e+00 +0.0000000000000000e+00 +5.3999999197932702e+00 -3.0049115234411720e-02 -5.5294865119709258e-01 +5.8168926355566643e-03
5.4499999999999904e+00 +8.5261790704498708e+00 +0.0000000000000000e+00 +5.4499999175420601e+00 -3.0050468495754639e-02 -5.5298193983129407e-01 +5.8188338874430061e-03
5.4999999999999902e+00 +8.5261639275377092e+00 +0.0000000000000000e+00 +5.4999999152489698e+00 -3.0051830041967129e-02 -5.5301541471802618e-01 +5.8207680966339947e-03
5.5499999999999901e+00 +8.5261486456802196e+00 +0.0000000000000000e+00 +5.5499999129136004e+00 -3.0053199713663076e-02 -5.5304907312695895e-01 +5.8226951432919713e-03
5.5999999999999899e+00 +8.5261332248737691e+00 +0.0000000000000000e+00 +5.5999999105355700e+00 -3.0054577351460065e-02 -5.5308291232780760e-01 +5.8246149075789570e-03
5.6499999999999897e+00 +8.5261176651147306e+00 +0.0000000000000000e+00 +5.6499999081144896e+00 -3.0055962795976762e-02 -5.5311692959028103e-01 +5.8265272696560334e-03
5.6999999999999904e+00 +8.5261019664103497e+00 +0.0000000000000000e+00 +5.6999999056499897e+00 -3.0057355887829085e-02 -5.5315112218399909e-01 +5.8284321096824096e-03
5.7499999999999902e+00 +8.5260861287570204e+00 +0.0000000000000000e+00 +5.7499999031416600e+00 -3.0058756467637927e-02 -5.5318548737865425e-01 +5.8303293078172270e-03
5.7999999999999901e+00 +8.5260701521547198e+00 +0.0000000000000000e+00 +5.7999999005891203e+00 -3.0060164376024039e-02 -5.5322002244390389e-01 +5.8322187442183485e-03
5.8499999999999899e+00 +8.5260540366070892e+00 +0.0000000000000000e+00 +5.8499998979920003e+00 -3.0061579453607962e-02 -5.5325472464937042e-01 +5.8341002990423274e-03
5.8999999999999897e+00 +8.5260377821068705e+00 +0.0000000000000000e+00 +5.8999998953498896e+00 -3.0063001541015228e-02 -5.5328959126474697e-01 +5.8359738524456179e-03
