# multipoles
# s[mm] polynom_b[n=0][T/m^n] polynom_b[n=1][T/m^n] polynom_b[n=2][T/m^n] polynom_b[n=3][T/m^n] polynom_b[n=4][T/m^n] polynom_b[n=5][T/m^n] polynom_b[n=6][T/m^n] 
+0.0000000000000000e+00 -5.2512863439743385e-01 +6.9076831209282981e+00 +5.0258908387613976e+00 -3.6688030818861201e+01 -1.1136659112900476e+04 -1.6674209650940861e+05 +6.9763691857616514e+07 
-5.0000000000000003e-02 -5.2512940795904495e-01 +6.9077004695020214e+00 +5.0241489283277518e+00 -3.6605624214983521e+01 -1.1125832679765575e+04 -1.6793803458863613e+05 +6.9768929816884667e+07 
-1.0000000000000001e-01 -5.2513051171127401e-01 +6.9077364155987793e+00 +5.0218086456291040e+00 -3.6520155272248431e+01 -1.1108245484469446e+04 -1.6917621631531286e+05 +6.9727057210351199e+07 
-1.5000000000000002e-01 -5.2513194489245030e-01 +6.9077908925390785e+00 +5.0188774279670145e+00 -3.6431859093713499e+01 -1.1084082031906373e+04 -1.7045310953027586e+05 +6.9639313332736656e+07 
-2.0000000000000001e-01 -5.2513370674091719e-01 +6.9078638336469078e+00 +5.0153627122763043e+00 -3.6340970912601726e+01 -1.1053526815420990e+04 -1.7176518095043398e+05 +6.9506937394570693e+07 
-2.5000000000000000e-01 -5.2513579649504194e-01 +6.9079551722477426e+00 +5.0112719372476908e+00 -3.6247725986495539e+01 -1.1016764378032023e+04 -1.7310889714230783e+05 +6.9331168949216232e+07 
-2.9999999999999999e-01 -5.2513821339320355e-01 +6.9080648416651051e+00 +5.0066125401626627e+00 -3.6152359489930532e+01 -1.0973979220773776e+04 -1.7448072526088357e+05 +6.9113247255236536e+07 
-3.4999999999999998e-01 -5.2514095667379779e-01 +6.9081927752269188e+00 +5.0013919590340432e+00 -3.6055106743990926e+01 -1.0925355866167760e+04 -1.7587713129600731e+05 +6.8854411718961254e+07 
-3.9999999999999997e-01 -5.2514402557523232e-01 +6.9083389062594192e+00 +4.9956176310150280e+00 -3.5956202991826061e+01 -1.0871078813433765e+04 -1.7729458180990416e+05 +6.8555901592458516e+07 
-4.4999999999999996e-01 -5.2514741933593145e-01 +6.9085031680888598e+00 +4.9892969932743840e+00 -3.5855883451347324e+01 -1.0811332559549264e+04 -1.7872954357767492e+05 +6.8218956099766448e+07 
-4.9999999999999994e-01 -5.2515113719433537e-01 +6.9086854940451525e+00 +4.9824374838536496e+00 -3.5754383473719280e+01 -1.0746301631960361e+04 -1.8017848224928306e+05 +6.7844814696884707e+07 
-5.4999999999999993e-01 -5.2515517838890313e-01 +6.9088858174539842e+00 +4.9750465401358683e+00 -3.5651938215136660e+01 -1.0676170528800392e+04 -1.8163786506311956e+05 +6.7434716599621773e+07 
-5.9999999999999998e-01 -5.2515954215810012e-01 +6.9091040716461052e+00 +4.9671315991554810e+00 -3.5548783024629337e+01 -1.0601123748691582e+04 -1.8310415763849686e+05 +6.6989901061451383e+07 
-6.5000000000000002e-01 -5.2516422774041827e-01 +6.9093401899533529e+00 +4.9587000992132122e+00 -3.5445153265416835e+01 -1.0521345818819264e+04 -1.8457382549886295e+05 +6.6511607508867644e+07 
-7.0000000000000007e-01 -5.2516923437435303e-01 +6.9095941057042785e+00 +4.9497594770259985e+00 -3.5341284158156469e+01 -1.0437021226666389e+04 -1.8604333527738776e+05 +6.6001075110953912e+07 
-7.5000000000000011e-01 -5.2517456129842599e-01 +6.9098657522308518e+00 +4.9403171710377256e+00 -3.5237411031645735e+01 -1.0348334504458962e+04 -1.8750915274629882e+05 +6.5459543329912342e+07 
-8.0000000000000016e-01 -5.2518020775116403e-01 +6.9101550628641757e+00 +4.9303806180919683e+00 -3.5133769170109659e+01 -1.0255470139895575e+04 -1.8896774398941192e+05 +6.4888251320794798e+07 
-8.5000000000000020e-01 -5.2518617297111247e-01 +6.9104619709376927e+00 +4.9199572554872795e+00 -3.5030593922478012e+01 -1.0158612634707913e+04 -1.9041557458464694e+05 +6.4288438343150571e+07 
-9.0000000000000024e-01 -5.2519245619683241e-01 +6.9107864097831690e+00 +4.9090545215022621e+00 -3.4928120566786696e+01 -1.0057946518971194e+04 -1.9184911061243946e+05 +6.3661343846999601e+07 
-9.5000000000000029e-01 -5.2519905666689681e-01 +6.9111283127361265e+00 +4.8976798528129661e+00 -3.4826584487350019e+01 -9.9536562751450529e+03 -1.9326481737421395e+05 +6.3008206951831535e+07 
-1.0000000000000002e+00 -5.2520597361989230e-01 +6.9114876131286556e+00 +4.8858406868818012e+00 -3.4726220930865374e+01 -9.8459264097364885e+03 -1.9465916119632247e+05 +6.2330266940324448e+07 
-1.0500000000000003e+00 -5.2521320629442869e-01 +6.9118642442959022e+00 +4.8735444623892734e+00 -3.4627265237035395e+01 -9.7349414617311722e+03 -1.9602860767521342e+05 +6.1628763317474842e+07 
-1.1000000000000003e+00 -5.2522075392912126e-01 +6.9122581395739502e+00 +4.8607986164001771e+00 -3.4529952770735918e+01 -9.6208859250636888e+03 -1.9736962216797407e+05 +6.0904935274677761e+07 
-1.1500000000000004e+00 -5.2522861576259128e-01 +6.9126692322986489e+00 +4.8476105847687876e+00 -3.4434518863504557e+01 -9.5039442635969262e+03 -1.9867867030241614e+05 +6.0160021808661796e+07 
-1.2000000000000004e+00 -5.2523679103350085e-01 +6.9130974558050999e+00 +4.8339878081536201e+00 -3.4341198790363507e+01 -9.3843010695074227e+03 -1.9995221819081521e+05 +5.9395262775082357e+07 
-1.2500000000000004e+00 -5.2524527898050366e-01 +6.9135427434311012e+00 +4.8199377227054105e+00 -3.4250227921198587e+01 -9.2621408109850818e+03 -2.0118673113195092e+05 +5.8611897184156962e+07 
-1.3000000000000005e+00 -5.2525407884226771e-01 +6.9140050285129684e+00 +4.8054677654149964e+00 -3.4161841547075689e+01 -9.1376479840632637e+03 -2.0237867505699000e+05 +5.7811164250421830e+07 
-1.3500000000000005e+00 -5.2526318985749398e-01 +6.9144842443888859e+00 +4.7905853763830200e+00 -3.4076275015599521e+01 -9.0110071668241671e+03 -2.0352451542257459e+05 +5.6994303732977234e+07 
-1.4000000000000006e+00 -5.2527261126487035e-01 +6.9149803243968018e+00 +4.7752979910482303e+00 -3.3993763631066891e+01 -8.8824028097572318e+03 -2.0462071809338126e+05 +5.6162554518647239e+07 
-1.4500000000000006e+00 -5.2528234230311788e-01 +6.9154932018769966e+00 +4.7596130478729402e+00 -3.3914542785487782e+01 -8.7520194459246086e+03 -2.0566374814576129e+05 +5.5317156059276022e+07 
-1.5000000000000007e+00 -5.2529238221096741e-01 +6.9160228101650558e+00 +4.7435379856346582e+00 -3.3838847656760308e+01 -8.6200416192559660e+03 -2.0665007242267777e+05 +5.4459347878965631e+07 
-1.5500000000000007e+00 -5.2530273022715435e-01 +6.9165690826036457e+00 +4.7270802405508405e+00 -3.3766913685448650e+01 -8.4866538005607727e+03 -2.0757615563182574e+05 +5.3590368997369930e+07 
-1.6000000000000008e+00 -5.2531338559044760e-01 +6.9171319525305570e+00 +4.7102472533405413e+00 -3.3698976092917150e+01 -8.3520405880631388e+03 -2.0843846427353256e+05 +5.2711459309653550e+07 
-1.6500000000000008e+00 -5.2532434753960877e-01 +6.9177113532887313e+00 +4.6930464605164008e+00 -3.3635270298405636e+01 -8.2163864623255758e+03 -2.0923346318315409e+05 +5.1823857900269076e+07 
-1.7000000000000008e+00 -5.2533561531341699e-01 +6.9183072182156184e+00 +4.6754852997620109e+00 -3.3576031457710457e+01 -8.0798759375364516e+03 -2.0995761943518420e+05 +5.0928804085147776e+07 
-1.7500000000000009e+00 -5.2534718815066839e-01 +6.9189194806541403e+00 +4.6575712090711381e+00 -3.3521494950657669e+01 -7.9426935338791327e+03 -2.1060739817951494e+05 +5.0027537208315492e+07 
-1.8000000000000009e+00 -5.2535906529017751e-01 +6.9195480739461850e+00 +4.6393116279711162e+00 -3.3471896074421885e+01 -7.8050238190338896e+03 -2.1117926531758174e+05 +4.9121296957288221e+07 
-1.8500000000000010e+00 -5.2537124597076623e-01 +6.9201929314322950e+00 +4.6207139947444915e+00 -3.3427470067447331e+01 -7.6670513207439471e+03 -2.1166968717067578e+05 +4.8211322719332226e+07 
-1.9000000000000010e+00 -5.2538372943126965e-01 +6.9208539864536416e+00 +4.6017857479473383e+00 -3.3388452157211105e+01 -7.5289605808607812e+03 -2.1207513021104829e+05 +4.7298854001946412e+07 
-1.9500000000000011e+00 -5.2539651491052486e-01 +6.9215311723567190e+00 +4.5825343239841159e+00 -3.3355077778154097e+01 -7.3909360764254407e+03 -2.1239205917033573e+05 +4.6385129844404370e+07 
-2.0000000000000009e+00 -5.2540960164740669e-01 +6.9222244224803147e+00 +4.5629671642864942e+00 -3.3327582019364492e+01 -7.2531624276714283e+03 -2.1261694165207693e+05 +4.5471390279385403e+07 
-2.0500000000000007e+00 -5.2542298872403426e-01 +6.9229336568509536e+00 +4.5430914284460560e+00 -3.3306083050221254e+01 -7.1158041845024263e+03 -2.1274739830468869e+05 +4.4558744893321015e+07 
-2.1000000000000005e+00 -5.2543667459522103e-01 +6.9236587383728114e+00 +4.5229134683559051e+00 -3.3290251339008456e+01 -6.9789473039283093e+03 -2.1278562343638204e+05 +4.3647802537813663e+07 
-2.1500000000000004e+00 -5.2545065755891351e-01 +6.9243995146995969e+00 +4.5024395210732395e+00 -3.3279650719534700e+01 -6.8426584894004227e+03 -2.1273494818370548e+05 +4.2739052075027637e+07 
-2.2000000000000002e+00 -5.2546493591307175e-01 +6.9251558334857126e+00 +4.4816758247378932e+00 -3.3273845066821771e+01 -6.7070044782811729e+03 -2.1259870326108002e+05 +4.1832982612797581e+07 
-2.2500000000000000e+00 -5.2547950795563680e-01 +6.9259275423862849e+00 +4.4606286117659693e+00 -3.3272398263068844e+01 -6.5720518489643355e+03 -2.1238021936935475e+05 +4.0930082168791905e+07 
-2.2999999999999998e+00 -5.2549437198458415e-01 +6.9267144890545502e+00 +4.4393041193697931e+00 -3.3274874092555933e+01 -6.4378673127791089e+03 -2.1208282803648277e+05 +4.0030839669457085e+07 
-2.3499999999999996e+00 -5.2550952629788028e-01 +6.9275165211479708e+00 +4.4177085818155994e+00 -3.3280836501187437e+01 -6.3045175051761917e+03 -2.1170985947024074e+05 +3.9135743539948501e+07 
-2.3999999999999995e+00 -5.2552496919352210e-01 +6.9283334863206161e+00 +4.3958482361689741e+00 -3.3289849296360181e+01 -6.1720691306375875e+03 -2.1126464496085432e+05 +3.8245282650068037e+07 
-2.4499999999999993e+00 -5.2554069896949940e-01 +6.9291652322288781e+00 +4.3737293175780474e+00 -3.3301476345311961e+01 -6.0405888506454321e+03 -2.1075051541139375e+05 +3.7359945607330754e+07 
-2.4999999999999991e+00 -5.2555671392381087e-01 +6.9300116065274846e+00 +4.3513580605745323e+00 -3.3315281452490453e+01 -5.9101433039519980e+03 -2.1017080217041125e+05 +3.6480220843271501e+07 
-2.5499999999999989e+00 -5.2557301235448395e-01 +6.9308724568740141e+00 +4.3287407033594398e+00 -3.3330828522424980e+01 -5.7807992312943861e+03 -2.0952883580075315e+05 +3.5606597488316894e+07 
-2.5999999999999988e+00 -5.2558959255953031e-01 +6.9317476309209942e+00 +4.3058834799512136e+00 -3.3347681240469676e+01 -5.6526232627920108e+03 -2.0882794866782683e+05 +3.4739563933656730e+07 
-2.6499999999999986e+00 -5.2560645283696528e-01 +6.9326369763279727e+00 +4.2827926234887714e+00 -3.3365403559759407e+01 -5.5256820042793452e+03 -2.0807147098735214e+05 +3.3879608403004974e+07 
-2.6999999999999984e+00 -5.2562359148484872e-01 +6.9335403407498122e+00 +4.2594743736488283e+00 -3.3383559250436853e+01 -5.4000422396169815e+03 -2.0726273440466862e+05 +3.3027220328230642e+07 
-2.7499999999999982e+00 -5.2564100680121828e-01 +6.9344575718424961e+00 +4.2359349645806432e+00 -3.3401712096012972e+01 -5.2757706024897352e+03 -2.0640507055575302e+05 +3.2182888121933285e+07 
-2.7999999999999980e+00 -5.2565869708411794e-01 +6.9353885172631378e+00 +4.2121806302812006e+00 -3.3419425929410224e+01 -5.1529337245798461e+03 -2.0550181063632612e+05 +3.1347100190433048e+07 
-2.8499999999999979e+00 -5.2567666063160678e-01 +6.9363330246686834e+00 +4.1882176061053356e+00 -3.3436264566377460e+01 -5.0315982746595409e+03 -2.0455628598223295e+05 +3.0520345191520147e+07 
-2.8999999999999977e+00 -5.2569489574176398e-01 +6.9372909417142399e+00 +4.1640521298545368e+00 -3.3451791729873882e+01 -4.9118309904181560e+03 -2.0357182874779080e+05 +2.9703112258562211e+07 
-2.9499999999999975e+00 -5.2571340071265660e-01 +6.9382621160562907e+00 +4.1396904353489807e+00 -3.3465571195351963e+01 -4.7936984985889358e+03 -2.0255177064421261e+05 +2.8895889763030618e+07 
-2.9999999999999973e+00 -5.2573217384236581e-01 +6.9392463953537931e+00 +4.1151387583976584e+00 -3.3477166831217652e+01 -4.6772674846717218e+03 -2.0149944263128040e+05 +2.8099166489921775e+07 
-3.0499999999999972e+00 -5.2575121342896580e-01 +6.9402436272600827e+00 +4.0904033319909310e+00 -3.3486142271539670e+01 -4.5626045571808017e+03 -2.0041817759077766e+05 +2.7313430700544562e+07 
-3.0999999999999970e+00 -5.2577051777056905e-01 +6.9412536594339338e+00 +4.0654903947982826e+00 -3.3492061347551306e+01 -4.4497764795358762e+03 -1.9931130687154690e+05 +2.6539171710328646e+07 
-3.1499999999999968e+00 -5.2579008516525905e-01 +6.9422763395319960e+00 +4.0404061792317210e+00 -3.3494487818595850e+01 -4.3388498450295619e+03 -1.9818216233858632e+05 +2.5776877676480126e+07 
-3.1999999999999966e+00 -5.2580991391114684e-01 +6.9433115152094311e+00 +4.0151569214942038e+00 -3.3492985360350517e+01 -4.2298913540683970e+03 -1.9703407661462980e+05 +2.5027037503185973e+07 
-3.2499999999999964e+00 -5.2583000230633836e-01 +6.9443590341236296e+00 +3.9897488560838470e+00 -3.3487117738400400e+01 -4.1229676594998318e+03 -1.9587038158957381e+05 +2.4290139760556284e+07 
-3.2999999999999963e+00 -5.2585034864896252e-01 +6.9454187439301354e+00 +3.9641882201243313e+00 -3.3476448632523400e+01 -4.0181454855329648e+03 -1.9469440987792000e+05 +2.3566673506708920e+07 
-3.3499999999999961e+00 -5.2587095123712158e-01 +6.9464904922871815e+00 +3.9384812453825244e+00 -3.3460541830603404e+01 -3.9154914146050819e+03 -1.9350949321915564e+05 +2.2857126851239569e+07 
-3.3999999999999959e+00 -5.2589180836895477e-01 +6.9475741268496831e+00 +3.9126341690798032e+00 -3.3438960975137832e+01 -3.8150721773673963e+03 -1.9231896457213681e+05 +2.2161988909146167e+07 
-3.4499999999999957e+00 -5.2591291834258269e-01 +6.9486694952734549e+00 +3.8866532245019267e+00 -3.3411269741976433e+01 -3.7169543991343839e+03 -1.9112615663078928e+05 +2.1481748084167670e+07 
-3.4999999999999956e+00 -5.2593427945614546e-01 +6.9497764452160835e+00 +3.8605446469253297e+00 -3.3377031872712578e+01 -3.6212047572052961e+03 -1.8993440158688297e+05 +2.0816893128024947e+07 
-3.5499999999999954e+00 -5.2595589000778009e-01 +6.9508948243326758e+00 +3.8343146710381690e+00 -3.3335811001897525e+01 -3.5278899208164576e+03 -1.8874703252086742e+05 +2.0167912766470701e+07 
-3.5999999999999952e+00 -5.2597774829563781e-01 +6.9520244802794551e+00 +3.8079695324938632e+00 -3.3287170812573649e+01 -3.4370765773092771e+03 -1.8756738211888098e+05 +1.9535295814764295e+07 
-3.6499999999999950e+00 -5.2599985261785320e-01 +6.9531652607102075e+00 +3.7815154637893671e+00 -3.3230674868772532e+01 -3.3488313388327610e+03 -1.8639878411785318e+05 +1.8919530621923663e+07 
-3.6999999999999948e+00 -5.2602220127258725e-01 +6.9543170132829202e+00 +3.7549587012965313e+00 -3.3165886915273660e+01 -3.2632209196110880e+03 -1.8524457074890690e+05 +1.8321106214110948e+07 
-3.7499999999999947e+00 -5.2604479255798298e-01 +6.9554795856522160e+00 +3.7283054772341959e+00 -3.3092370553496167e+01 -3.1803119213387899e+03 -1.8410807544848509e+05 +1.7740510856361765e+07 
-3.7999999999999945e+00 -5.2606762477220759e-01 +6.9566528254737756e+00 +3.7015620274635608e+00 -3.3009689422318949e+01 -3.1001710457448789e+03 -1.8299263138234540e+05 +1.7178233497827958e+07 
-3.8499999999999943e+00 -5.2609069621341831e-01 +6.9578365804008042e+00 +3.6747345860741563e+00 -3.2917407059638990e+01 -3.0228649527368693e+03 -1.8190157255532965e+05 +1.6634762824417461e+07 
-3.8999999999999941e+00 -5.2611400517978391e-01 +6.9590306980884327e+00 +3.6478293876604635e+00 -3.2815087071175213e+01 -2.9484603098262178e+03 -1.8083823247759757e+05 +1.6110587554757498e+07 
-3.9499999999999940e+00 -5.2613754996946394e-01 +6.9602350261926844e+00 +3.6208526654723610e+00 -3.2702293111061707e+01 -2.8770237561041708e+03 -1.7980594423353844e+05 +1.5606196242290648e+07 
-3.9999999999999938e+00 -5.2616132888061828e-01 +6.9614494123663935e+00 +3.5938106521910296e+00 -3.2578588683022545e+01 -2.8086219138153751e+03 -1.7880804217941943e+05 +1.5122077327194838e+07 
-4.0499999999999936e+00 -5.2618534007720263e-01 +6.9626737073913638e+00 +3.5667085864076005e+00 -3.2443613413550821e+01 -2.7432888999190632e+03 -1.7784768997169030e+05 +1.4658483573512422e+07 
-4.0999999999999934e+00 -5.2620958118581529e-01 +6.9639077685872346e+00 +3.5395475027930590e+00 -3.2297357993768514e+01 -2.6809215550561221e+03 -1.7692700428862008e+05 +1.4214693358210227e+07 
-4.1499999999999932e+00 -5.2623404969858534e-01 +6.9651514534251362e+00 +3.5123273463746156e+00 -3.2139912941079764e+01 -2.6213803850051013e+03 -1.7604775369451335e+05 +1.3789731981324010e+07 
-4.1999999999999931e+00 -5.2625874310765886e-01 +6.9664046193737708e+00 +3.4850480648815392e+00 -3.1971368669163134e+01 -2.5645259665850194e+03 -1.7521170773551532e+05 +1.3382625228493033e+07 
-4.2499999999999929e+00 -5.2628365890516815e-01 +6.9676671239056933e+00 +3.4577096031019399e+00 -3.1791815778300652e+01 -2.5102187957201008e+03 -1.7442063431793213e+05 +1.2992398333535912e+07 
-4.2999999999999927e+00 -5.2630879458325186e-01 +6.9689388244900385e+00 +3.4303119069517138e+00 -3.1601344726415327e+01 -2.4583194022609514e+03 -1.7367630254139600e+05 +1.2618076780703925e+07 
-4.3499999999999925e+00 -5.2633414763405939e-01 +6.9702195785978853e+00 +3.4028549238134533e+00 -3.1400046065295314e+01 -2.4086883497208178e+03 -1.7298048070570279e+05 +1.2258686256002411e+07 
-4.3999999999999924e+00 -5.2635971554973182e-01 +6.9715092436986952e+00 +3.3753385991991545e+00 -3.1188010289089100e+01 -2.3611861545864999e+03 -1.7233493755576917e+05 +1.1913252151029728e+07 
-4.4499999999999922e+00 -5.2638549582240568e-01 +6.9728076772642407e+00 +3.3477628778185542e+00 -3.0965327994954748e+01 -2.3156733073344981e+03 -1.7174144098421064e+05 +1.1580799661657043e+07 
-4.4999999999999920e+00 -5.2641148594424525e-01 +6.9741147367629184e+00 +3.3201277088721999e+00 -3.0732089659736925e+01 -2.2720104203874730e+03 -1.7120175982225873e+05 +1.1260354819701178e+07 
-4.5499999999999918e+00 -5.2643768340736596e-01 +6.9754302796661056e+00 +3.2924330331262466e+00 -3.0488385891553570e+01 -2.2300578792919682e+03 -1.7071766180909565e+05 +1.0950942128213812e+07 
-4.5999999999999917e+00 -5.2646408570393366e-01 +6.9767541634432355e+00 +3.2646787998637556e+00 -3.0234307230795142e+01 -2.1896762954074911e+03 -1.7029091521749133e+05 +1.0651587603542257e+07 
-4.6499999999999915e+00 -5.2649069032608276e-01 +6.9780862455638966e+00 +3.2368649530026290e+00 -2.9969944236999478e+01 -2.1507261386910359e+03 -1.6992328814452147e+05 +1.0361316326052070e+07 
-4.6999999999999913e+00 -5.2651749476596299e-01 +6.9794263834979251e+00 +3.2089914389144778e+00 -2.9695387499872883e+01 -2.1130679390980176e+03 -1.6961654838380404e+05 +1.0079153758575646e+07 
-4.7499999999999911e+00 -5.2654449651572000e-01 +6.9807744347157152e+00 +3.1810582031124413e+00 -2.9410727639415445e+01 -2.0765622048670007e+03 -1.6937246347681631e+05 +9.8041252301133405e+06 
-4.7999999999999909e+00 -5.2657169306748741e-01 +6.9821302566881229e+00 +3.1530651896526365e+00 -2.9116055313931202e+01 -2.0410694061521438e+03 -1.6919280061779259e+05 +9.5352558184168078e+06 
-4.8499999999999908e+00 -5.2659908191341287e-01 +6.9834937068814718e+00 +3.1250123443836459e+00 -2.8811461006938654e+01 -2.0064500560919005e+03 -1.6907932841661148e+05 +9.2715708779130746e+06 
-4.8999999999999906e+00 -5.2662666054563201e-01 +6.9848646427677865e+00 +3.0968996115533227e+00 -2.8497035461384677e+01 -1.9725646260563412e+03 -1.6903381328784750e+05 +9.0120954903106969e+06 
-4.9499999999999904e+00 -5.2665442645629645e-01 +6.9862429218146778e+00 +3.0687269384949989e+00 -2.8172869251511475e+01 -1.9392736706657895e+03 -1.6905802302039688e+05 +8.7558553022028245e+06 
-4.9999999999999902e+00 -5.2668237713753074e-01 +6.9876284014924348e+00 +3.0404942676375017e+00 -2.7839053072751021e+01 -1.9064376080333172e+03 -1.6915372440122665e+05 +8.5018750294596665e+06 
-5.0499999999999901e+00 -5.2671051008147640e-01 +6.9890209392693032e+00 +3.0122015446476076e+00 -2.7495677564813526e+01 -1.8739169429016724e+03 -1.6932268460367288e+05 +8.2491799734917535e+06 
