# multipoles
# s[mm] polynom_b[n=0][T/m^n] polynom_b[n=1][T/m^n] polynom_b[n=2][T/m^n] polynom_b[n=3][T/m^n] polynom_b[n=4][T/m^n] polynom_b[n=5][T/m^n] polynom_b[n=6][T/m^n] 
+0.0000000000000000e+00 -5.5137308621788739e-01 +7.2196336071357941e+00 +6.5404416457073653e+00 -1.4747963552580202e+02 -1.8087683636940237e+04 +7.0686280724462715e+05 +1.1973705949998134e+08 
-5.0000000000000003e-02 -5.5137382754963205e-01 +7.2196451242514259e+00 +6.5293858433731478e+00 -1.4769300086255683e+02 -1.7865713955638708e+04 +7.0701595262991788e+05 +1.1853562644719733e+08 
-1.0000000000000001e-01 -5.5137496947020337e-01 +7.2196788182887710e+00 +6.5177135500347738e+00 -1.4791654831630183e+02 -1.7642335339161873e+04 +7.0728466365678655e+05 +1.1732822882687078e+08 
-1.5000000000000002e-01 -5.5137651135136179e-01 +7.2197345913803934e+00 +6.5054463361284185e+00 -1.4814942253411189e+02 -1.7417885781667497e+04 +7.0766406651474501e+05 +1.1611666781456451e+08 
-2.0000000000000001e-01 -5.5137845256490725e-01 +7.2198123456659085e+00 +6.4926057760243419e+00 -1.4839076842862838e+02 -1.7192703389467330e+04 +7.0814928960676165e+05 +1.1490274536852680e+08 
-2.5000000000000000e-01 -5.5138079248263994e-01 +7.2199119832778527e+00 +6.4792134404474204e+00 -1.4863973058625930e+02 -1.6967126164303354e+04 +7.0873545865118725e+05 +1.1368826271336772e+08 
-2.9999999999999999e-01 -5.5138353047640964e-01 +7.2200334063551184e+00 +6.4652909057502965e+00 -1.4889545380674744e+02 -1.6741492260646701e+04 +7.0941770102827100e+05 +1.1247502210736099e+08 
-3.4999999999999998e-01 -5.5138666591803587e-01 +7.2201765170343952e+00 +6.4508597399503724e+00 -1.4915708279360416e+02 -1.6516139612728733e+04 +7.1019114344426722e+05 +1.1126482433721134e+08 
-3.9999999999999997e-01 -5.5139019817940593e-01 +7.2203412174529280e+00 +6.4359415193186384e+00 -1.4942376222527966e+02 -1.6291406370619397e+04 +7.1105091231970966e+05 +1.1005947161944643e+08 
-4.4999999999999996e-01 -5.5139412663239484e-01 +7.2205274097514467e+00 +6.4205578153128915e+00 -1.4969463689332574e+02 -1.6067630561862312e+04 +7.1199213501424645e+05 +1.0886076536982295e+08 
-4.9999999999999994e-01 -5.5139845064890347e-01 +7.2207349960678888e+00 +6.4047302005550915e+00 -1.4996885145287840e+02 -1.5845150242678699e+04 +7.1300993779180339e+05 +1.0767050718525174e+08 
-5.4999999999999993e-01 -5.5140316960085400e-01 +7.2209638785423111e+00 +6.3884802480103442e+00 -1.5024555061964645e+02 -1.5624303477918429e+04 +7.1409944742637523e+05 +1.0649049871843897e+08 
-5.9999999999999998e-01 -5.5140828286018440e-01 +7.2212139593167013e+00 +6.3718295305984434e+00 -1.5052387914582448e+02 -1.5405428332438343e+04 +7.1525579093989916e+05 +1.0532254162312372e+08 
-6.5000000000000002e-01 -5.5141378979885503e-01 +7.2214851405292908e+00 +6.3547996219119289e+00 -1.5080298160980936e+02 -1.5188862889588290e+04 +7.1647409395561495e+05 +1.0416843767880036e+08 
-7.0000000000000007e-01 -5.5141968978883227e-01 +7.2217773243236723e+00 +6.3374120938643221e+00 -1.5108200278888026e+02 -1.4974945191066521e+04 +7.1774948377124104e+05 +1.0302998839425972e+08 
-7.5000000000000011e-01 -5.5142598220211525e-01 +7.2220904128392283e+00 +6.3196885204114439e+00 -1.5136008726134844e+02 -1.4764013328597066e+04 +7.1907708604561887e+05 +1.0190899559792702e+08 
-8.0000000000000016e-01 -5.5143266641070354e-01 +7.2224243082200417e+00 +6.3016504730961760e+00 -1.5163637976213400e+02 -1.4556405334629455e+04 +7.2045202770194632e+05 +1.0080726073643994e+08 
-8.5000000000000020e-01 -5.5143974178662047e-01 +7.2227789126063016e+00 +6.2833195245893654e+00 -1.5191002485731178e+02 -1.4352459271374737e+04 +7.2186943434704514e+05 +9.9726585452217653e+07 
-9.0000000000000024e-01 -5.5144720770192412e-01 +7.2231541281416733e+00 +6.2647172502578288e+00 -1.5218016721111201e+02 -1.4152513272744614e+04 +7.2332443231800059e+05 +9.8668771868864134e+07 
-9.5000000000000029e-01 -5.5145506352865781e-01 +7.2235498569679537e+00 +6.2458652202111793e+00 -1.5244595140972777e+02 -1.3956905334630495e+04 +7.2481214742173662e+05 +9.7635621190021470e+07 
-1.0000000000000002e+00 -5.5146330863890192e-01 +7.2239660012247962e+00 +6.2267850079831346e+00 -1.5270652192021618e+02 -1.3765973541571622e+04 +7.2632770446570346e+05 +9.6628935198730066e+07 
-1.0500000000000003e+00 -5.5147194240476061e-01 +7.2244024630576957e+00 +6.2074981885686569e+00 -1.5296102341975873e+02 -1.3580056026429400e+04 +7.2786622996853653e+05 +9.5650516042275995e+07 
-1.1000000000000003e+00 -5.5148096419833037e-01 +7.2248591446104884e+00 +6.1880263323071523e+00 -1.5320860051359895e+02 -1.3399490788250712e+04 +7.2942284995258308e+05 +9.4702164925280884e+07 
-1.1500000000000004e+00 -5.5149037339173379e-01 +7.2253359480219181e+00 +6.1683910115919849e+00 -1.5344839755565044e+02 -1.3224615891466785e+04 +7.3099268830356654e+05 +9.3785683535491690e+07 
-1.2000000000000004e+00 -5.5150016935712975e-01 +7.2258327754349674e+00 +6.1486138021392271e+00 -1.5367955907431755e+02 -1.3055769485020475e+04 +7.3257087044454238e+05 +9.2902874105243668e+07 
-1.2500000000000004e+00 -5.5151035146666483e-01 +7.2263495289925617e+00 +6.1287162748367772e+00 -1.5390122956971453e+02 -1.2893289593471127e+04 +7.3415252156957809e+05 +9.2055538051211849e+07 
-1.3000000000000005e+00 -5.5152091909251455e-01 +7.2268861108363378e+00 +6.1087200022717347e+00 -1.5411255346719690e+02 -1.2737514282749700e+04 +7.3573276626514748e+05 +9.1245477048093021e+07 
-1.3500000000000005e+00 -5.5153187160686856e-01 +7.2274424231056491e+00 +6.0886465571823836e+00 -1.5431267508395854e+02 -1.2588781628991133e+04 +7.3730672826589295e+05 +9.0474492862717509e+07 
-1.4000000000000006e+00 -5.5154320838193249e-01 +7.2280183679449497e+00 +6.0685175124310282e+00 -1.5450073892900903e+02 -1.2447429715179285e+04 +7.3886953292099189e+05 +8.9744387319064707e+07 
-1.4500000000000006e+00 -5.5155492878993384e-01 +7.2286138474930430e+00 +6.0483544413309085e+00 -1.5467588926084284e+02 -1.2313796629470960e+04 +7.4041630353197677e+05 +8.9056962247000903e+07 
-1.5000000000000007e+00 -5.5156703220310543e-01 +7.2292287638890844e+00 +6.0281789161787822e+00 -1.5483727034585365e+02 -1.2188220444014931e+04 +7.4194216354100697e+05 +8.8414019409522519e+07 
-1.5500000000000007e+00 -5.5157951799369798e-01 +7.2298630192741058e+00 +6.0080125088071297e+00 -1.5498402650297828e+02 -1.2071039212972910e+04 +7.4344223681349226e+05 +8.7817360428587556e+07 
-1.6000000000000008e+00 -5.5159238553397771e-01 +7.2305165157889011e+00 +5.9878767918721856e+00 -1.5511530203083015e+02 -1.1962591019171936e+04 +7.4491164709917305e+05 +8.7268787138184801e+07 
-1.6500000000000008e+00 -5.5160563419623210e-01 +7.2311891555703109e+00 +5.9677933383594022e+00 -1.5523024105119046e+02 -1.1863213952393853e+04 +7.4634551672637078e+05 +8.6770101413451537e+07 
-1.7000000000000008e+00 -5.5161926335275413e-01 +7.2318808407571549e+00 +5.9477837201387658e+00 -1.5532798776041469e+02 -1.1773246077010426e+04 +7.4773896870715939e+05 +8.6323104970981449e+07 
-1.7500000000000009e+00 -5.5163327237584803e-01 +7.2325914734852264e+00 +5.9278695079584418e+00 -1.5540768620642959e+02 -1.1693025428445582e+04 +7.4908712481398997e+05 +8.5929599338749677e+07 
-1.8000000000000009e+00 -5.5164766063786830e-01 +7.2333209558927063e+00 +5.9080722790624085e+00 -1.5546848054091808e+02 -1.1622890217813541e+04 +7.5038510778874112e+05 +8.5591387225953639e+07 
-1.8500000000000010e+00 -5.5166242751112526e-01 +7.2340691901137735e+00 +5.8884135999775973e+00 -1.5550951472671221e+02 -1.1563178369383661e+04 +7.5162803881045710e+05 +8.5310269415282518e+07 
-1.9000000000000010e+00 -5.5167757236799009e-01 +7.2348360782863104e+00 +5.8689150455673760e+00 -1.5552993287795056e+02 -1.1514228036238781e+04 +7.5281104038509703e+05 +8.5088048247373283e+07 
-1.9500000000000011e+00 -5.5169309458082638e-01 +7.2356215225421643e+00 +5.8495981870288984e+00 -1.5552887883611572e+02 -1.1476377275513618e+04 +7.5392923275516345e+05 +8.4926525422068372e+07 
-2.0000000000000009e+00 -5.5170899352202973e-01 +7.2364254250146196e+00 +5.8304845978893676e+00 -1.5550549651706194e+02 -1.1449964204516413e+04 +7.5497773693052051e+05 +8.4827503036357477e+07 
-2.0500000000000007e+00 -5.5172526825529222e-01 +7.2372476846273788e+00 +5.8115885568216772e+00 -1.5545915051198264e+02 -1.1435193796772572e+04 +7.5595263968101854e+05 +8.4792066996501043e+07 
-2.1000000000000005e+00 -5.5174191660911487e-01 +7.2380881810595765e+00 +5.7928951961674757e+00 -1.5539004745262631e+02 -1.1431730584583138e+04 +7.5685355571907072e+05 +8.4818398617034525e+07 
-2.1500000000000004e+00 -5.5175893610310067e-01 +7.2389467875814884e+00 +5.7743823760540165e+00 -1.5529859478230301e+02 -1.1439101970325575e+04 +7.5768089480896911e+05 +8.4903942856215015e+07 
-2.2000000000000002e+00 -5.5177632425684064e-01 +7.2398233774637397e+00 +5.7560279531101317e+00 -1.5518519993933100e+02 -1.1456835267074344e+04 +7.5843506664924917e+05 +8.5046144087286547e+07 
-2.2500000000000000e+00 -5.5179407858995966e-01 +7.2407178239800976e+00 +5.7378097871995335e+00 -1.5505027047915081e+02 -1.1484457872741099e+04 +7.5911648191890703e+05 +8.5242447248192415e+07 
-2.2999999999999998e+00 -5.5181219662207726e-01 +7.2416300004017611e+00 +5.7197057349497422e+00 -1.5489421382394323e+02 -1.1521497097465593e+04 +7.5972555017428112e+05 +8.5490296683194891e+07 
-2.3499999999999996e+00 -5.5183067587283563e-01 +7.2425597800029520e+00 +5.7016936548543020e+00 -1.5471743749294731e+02 -1.1567480301967003e+04 +7.6026268172971706e+05 +8.5787137078818142e+07 
-2.3999999999999995e+00 -5.5184951386188641e-01 +7.2435070360576708e+00 +5.6837514052045570e+00 -1.5452034897814389e+02 -1.1621934844532865e+04 +7.6072828667015280e+05 +8.6130413115378737e+07 
-2.4499999999999993e+00 -5.5186870810890032e-01 +7.2444716418403781e+00 +5.6658568452157541e+00 -1.5430335578152778e+02 -1.1684388104778078e+04 +7.6112277519878035e+05 +8.6517569604905307e+07 
-2.4999999999999991e+00 -5.5188825613354575e-01 +7.2454534706300908e+00 +5.6479878316069376e+00 -1.5406686554776803e+02 -1.1754367395725341e+04 +7.6144655858299753e+05 +8.6946050912677035e+07 
-2.5499999999999989e+00 -5.5190815545550587e-01 +7.2464523957015912e+00 +5.6301222223201339e+00 -1.5381128573463988e+02 -1.1831400068962173e+04 +7.6170004656955705e+05 +8.7413301684726387e+07 
-2.5999999999999988e+00 -5.5192840359449391e-01 +7.2474682903351662e+00 +5.6122378772667920e+00 -1.5353702401000686e+02 -1.1915013517127134e+04 +7.6188365063129517e+05 +8.7916766801096648e+07 
-2.6499999999999986e+00 -5.5194899807020004e-01 +7.2485010278095539e+00 +5.5943126517773107e+00 -1.5324448794893513e+02 -1.2004735022147142e+04 +7.6199778142589040e+05 +8.8453890440288231e+07 
-2.6999999999999984e+00 -5.5196993640234870e-01 +7.2495504814025429e+00 +5.5763244040792745e+00 -1.5293408505993915e+02 -1.2100091934412001e+04 +7.6204284901740600e+05 +8.9022117210589036e+07 
-2.7499999999999982e+00 -5.5199121611068636e-01 +7.2506165244005123e+00 +5.5582509951900256e+00 -1.5260622319089691e+02 -1.2200611684754835e+04 +7.6201926626240090e+05 +8.9618892280387372e+07 
-2.7999999999999980e+00 -5.5201283471492912e-01 +7.2516990300837909e+00 +5.5400702782185478e+00 -1.5226130990803790e+02 -1.2305821485880351e+04 +7.6192744363944081e+05 +9.0241659329684451e+07 
-2.8499999999999979e+00 -5.5203478973484332e-01 +7.2527978717377151e+00 +5.5217601139469501e+00 -1.5189975297051203e+02 -1.2415248762054744e+04 +7.6176779321056465e+05 +9.0887863484381825e+07 
-2.8999999999999977e+00 -5.5205707869018017e-01 +7.2539129226484969e+00 +5.5032983581611861e+00 -1.5152196014765568e+02 -1.2528420798123530e+04 +7.6154072708571923e+05 +9.1554948912789643e+07 
-2.9499999999999975e+00 -5.5207969910071675e-01 +7.2550440561018261e+00 +5.4846628695696955e+00 -1.5112833914947876e+02 -1.2644864958904102e+04 +7.6124665677578375e+05 +9.2240360327878520e+07 
-2.9999999999999973e+00 -5.5210264848623947e-01 +7.2561911453875494e+00 +5.4658315068378576e+00 -1.5071929785551538e+02 -1.2764108606720194e+04 +7.6088599525244429e+05 +9.2941542421259329e+07 
-3.0499999999999972e+00 -5.5212592436652497e-01 +7.2573540637956970e+00 +5.4467821250316169e+00 -1.5029524410324976e+02 -1.2885679007749472e+04 +7.6045915498623182e+05 +9.3655939241927132e+07 
-3.0999999999999970e+00 -5.5214952426139108e-01 +7.2585326846161831e+00 +5.4274925850215956e+00 -1.4985658572198761e+02 -1.3009103583106684e+04 +7.5996654842126870e+05 +9.4380995878720298e+07 
-3.1499999999999968e+00 -5.5217344569062621e-01 +7.2597268811448314e+00 +5.4079407404297086e+00 -1.4940373075330689e+02 -1.3133909555518596e+04 +7.5940858967725118e+05 +9.5114156072088376e+07 
-3.1999999999999966e+00 -5.5219768617405918e-01 +7.2609365266745085e+00 +5.3881044509274583e+00 -1.4893708709045157e+02 -1.3259624313207163e+04 +7.5878569159534969e+05 +9.5852864687247485e+07 
-3.2499999999999964e+00 -5.5222224323150959e-01 +7.2621614945040518e+00 +5.3679615725712884e+00 -1.4845706284499880e+02 -1.3385775146373540e+04 +7.5809826874191186e+05 +9.6594565931789488e+07 
-3.2999999999999963e+00 -5.5224711438281904e-01 +7.2634016579300020e+00 +5.3474899637208404e+00 -1.4796406601442212e+02 -1.3511889402045839e+04 +7.5734673473217129e+05 +9.7336704375527039e+07 
-3.3499999999999961e+00 -5.5227229714783677e-01 +7.2646568902531277e+00 +5.3266674826830087e+00 -1.4745850474283574e+02 -1.3637494429179922e+04 +7.5653150430926622e+05 +9.8076724616405576e+07 
-3.3999999999999959e+00 -5.5229778904639826e-01 +7.2659270647758296e+00 +5.3054719839495297e+00 -1.4694078721590520e+02 -1.3762117470822097e+04 +7.5565299249855289e+05 +9.8812070525730833e+07 
-3.4499999999999957e+00 -5.5232358759837241e-01 +7.2672120548005052e+00 +5.2838813261396886e+00 -1.4641132159515612e+02 -1.3885285880820515e+04 +7.5471161408477637e+05 +9.9540186727314711e+07 
-3.4999999999999956e+00 -5.5234969032362269e-01 +7.2685117336346678e+00 +5.2618733655049397e+00 -1.4587051621811659e+02 -1.4006526945322277e+04 +7.5370778519175039e+05 +1.0025851737016806e+08 
-3.5499999999999954e+00 -5.5237609474202654e-01 +7.2698259745869196e+00 +5.2394259600150344e+00 -1.4531877945663362e+02 -1.4125368002592997e+04 +7.5264192223428108e+05 +1.0096450698067136e+08 
-3.5999999999999952e+00 -5.5240279837346595e-01 +7.2711546509633003e+00 +5.2165169660851332e+00 -1.4475651953742576e+02 -1.4241336339360676e+04 +7.5151444030185556e+05 +1.0165559970533213e+08 
-3.6499999999999950e+00 -5.5242979873782661e-01 +7.2724976360807680e+00 +5.1931242399531481e+00 -1.4418414511854456e+02 -1.4353959240136064e+04 +7.5032575800843688e+05 +1.0232923968441349e+08 
-3.6999999999999948e+00 -5.5245709335501658e-01 +7.2738548032500727e+00 +5.1692256405258030e+00 -1.4360206457643321e+02 -1.4462764060546488e+04 +7.4907629157343809e+05 +1.0298287153889425e+08 
-3.7499999999999947e+00 -5.5248467974492543e-01 +7.2752260257891468e+00 +5.1447990220846140e+00 -1.4301068654335663e+02 -1.4567278028954537e+04 +7.4776645919970621e+05 +1.0361393902310927e+08 
-3.7999999999999945e+00 -5.5251255542747191e-01 +7.2766111770158401e+00 +5.1198222429785645e+00 -1.4241041964345084e+02 -1.4667028482653061e+04 +7.4639667904382432e+05 +1.0421988662425329e+08 
-3.8499999999999943e+00 -5.5254071792257853e-01 +7.2780101302509301e+00 +5.0942731605585383e+00 -1.4180167257798735e+02 -1.4761542728467963e+04 +7.4496736973999045e+05 +1.0479815861770871e+08 
-3.8999999999999941e+00 -5.5256916475015827e-01 +7.2794227588198508e+00 +5.0681296298551066e+00 -1.4118485421701553e+02 -1.4850348011375678e+04 +7.4347895126608736e+05 +1.0534619886091611e+08 
-3.9499999999999940e+00 -5.5259789343013777e-01 +7.2808489360449444e+00 +5.0413695067716464e+00 -1.4056037327127089e+02 -1.4932971597089907e+04 +7.4193184217716020e+05 +1.0586145134864885e+08 
-3.9999999999999938e+00 -5.5262690148245719e-01 +7.2822885352554678e+00 +5.0139706488855200e+00 -1.3992863872309439e+02 -1.5008940795091092e+04 +7.4032646329957596e+05 +1.0634136036816144e+08 
-4.0499999999999936e+00 -5.5265618640045311e-01 +7.2837414205915394e+00 +4.9859171916891318e+00 -1.3929004694906635e+02 -1.5077885048009852e+04 +7.3866349602979771e+05 +1.0678391766707101e+08 
-4.0999999999999934e+00 -5.5268574557191763e-01 +7.2852074153387880e+00 +4.9572190794246920e+00 -1.3864504841392676e+02 -1.5139847603330360e+04 +7.3694520278606436e+05 +1.0718932485131118e+08 
-4.1499999999999932e+00 -5.5271557635855018e-01 +7.2866863315486903e+00 +4.9278929082240905e+00 -1.3799413540018094e+02 -1.5194976450253620e+04 +7.3517438382481388e+05 +1.0755834137617873e+08 
-4.1999999999999931e+00 -5.5274567612204017e-01 +7.2881779812736385e+00 +4.8979552719228820e+00 -1.3733780025713099e+02 -1.5243419510729509e+04 +7.3335383989510860e+05 +1.0789172623303489e+08 
-4.2499999999999929e+00 -5.5277604222409360e-01 +7.2896821765638355e+00 +4.8674227667483763e+00 -1.3667653523731630e+02 -1.5285324771695981e+04 +7.3148637086631975e+05 +1.0819023885907112e+08 
-4.2999999999999927e+00 -5.5280667202640688e-01 +7.2911987294707314e+00 +4.8363119876687044e+00 -1.3601083267586728e+02 -1.5320840190997158e+04 +7.2957477738419350e+05 +1.0845463851146863e+08 
-4.3499999999999925e+00 -5.5283756289069286e-01 +7.2927274520468099e+00 +4.8046395313118317e+00 -1.3534118496850289e+02 -1.5350113760149934e+04 +7.2762186059792223e+05 +1.0868568463325928e+08 
-4.3999999999999924e+00 -5.5286871217864608e-01 +7.2942681563368490e+00 +4.7724219915099022e+00 -1.3466808420393471e+02 -1.5373293403471878e+04 +7.2563041911549272e+05 +1.0888413624958189e+08 
-4.4499999999999922e+00 -5.5290011725198007e-01 +7.2958206543916031e+00 +4.7396759649236078e+00 -1.3399202273346077e+02 -1.5390527116478685e+04 +7.2360325371243258e+05 +1.0905075284546518e+08 
-4.4999999999999920e+00 -5.5293177547239236e-01 +7.2973847582606579e+00 +4.7064180454468607e+00 -1.3331349290005298e+02 -1.5401962819891305e+04 +7.2154316519912484e+05 +1.0918629340281177e+08 
-4.5499999999999918e+00 -5.5296368420159869e-01 +7.2989602799909870e+00 +4.6726648298237938e+00 -1.3263298694078037e+02 -1.5407748508342152e+04 +7.1945295345214393e+05 +1.0929151739139965e+08 
-4.5999999999999917e+00 -5.5299584080131436e-01 +7.3005470316283807e+00 +4.6384329150598020e+00 -1.3195099707143055e+02 -1.5408032186200486e+04 +7.1733541820302606e+05 +1.0936718435822549e+08 
-4.6499999999999915e+00 -5.5302824263324291e-01 +7.3021448252203616e+00 +4.6037388957974255e+00 -1.3126801560664396e+02 -1.5402961790788555e+04 +7.1519336005055637e+05 +1.0941405338820867e+08 
-4.6999999999999913e+00 -5.5306088705908840e-01 +7.3037534728102234e+00 +4.5685993671199778e+00 -1.3058453471755732e+02 -1.5392685271753848e+04 +7.1302957844696613e+05 +1.0943288365024757e+08 
-4.7499999999999911e+00 -5.5309377144057326e-01 +7.3053727864448144e+00 +4.5330309271054885e+00 -1.2990104673393574e+02 -1.5377350656388191e+04 +7.1084687412621535e+05 +1.0942443482856347e+08 
-4.7999999999999909e+00 -5.5312689313939933e-01 +7.3070025781649042e+00 +4.4970501707114963e+00 -1.2921804377130448e+02 -1.5357105890031220e+04 +7.0864804610863596e+05 +1.0938946606321618e+08 
-4.8499999999999908e+00 -5.5316024951727294e-01 +7.3086426600158791e+00 +4.4606736934041420e+00 -1.2853601816323396e+02 -1.5332098924664368e+04 +7.0643589525810443e+05 +1.0932873651342304e+08 
-4.8999999999999906e+00 -5.5319383793591426e-01 +7.3102928440362458e+00 +4.4239180940139793e+00 -1.2785546198177673e+02 -1.5302477810266657e+04 +7.0421322025479784e+05 +1.0924300603049858e+08 
-4.9499999999999904e+00 -5.5322765575701938e-01 +7.3119529422702172e+00 +4.3867999668256790e+00 -1.2717686757350313e+02 -1.5268390465295271e+04 +7.0198282212427864e+05 +1.0913303354261819e+08 
-4.9999999999999902e+00 -5.5326170034230027e-01 +7.3136227667547287e+00 +4.3493359098537780e+00 -1.2650072701427735e+02 -1.5229984914820754e+04 +6.9974749967415957e+05 +1.0899957872527029e+08 
-5.0499999999999901e+00 -5.5329596905346179e-01 +7.3153021295273897e+00 +4.3115425195573920e+00 -1.2582753243848030e+02 -1.5187409132326558e+04 +6.9751005222049286e+05 +1.0884340086809129e+08 
