# multipoles
# s[mm] polynom_b[n=0][T/m^n] polynom_b[n=1][T/m^n] polynom_b[n=2][T/m^n] polynom_b[n=3][T/m^n] polynom_b[n=4][T/m^n] polynom_b[n=5][T/m^n] polynom_b[n=6][T/m^n] 
+0.0000000000000000e+00 -5.7670074140961647e-01 +7.5403359150488933e+00 +6.0192973921056652e+00 -1.2625925552755683e+02 -6.8834525569834914e+03 +4.2025752073556284e+05 +7.4092722388582721e+07 
+5.0000000000000003e-02 -5.7669747322584985e-01 +7.5401802256945585e+00 +6.0280610811051707e+00 -1.2639150007710846e+02 -7.0069529009224771e+03 +4.2239751446669566e+05 +7.4830427835000545e+07 
+1.0000000000000001e-01 -5.7669462037272778e-01 +7.5400469326841097e+00 +6.0364763251042977e+00 -1.2652075772319739e+02 -7.1328136158550024e+03 +4.2455890046179132e+05 +7.5576413596102208e+07 
+1.4999999999999999e-01 -5.7669218214342022e-01 +7.5399359870399367e+00 +6.0445341617591675e+00 -1.2664622154728445e+02 -7.2608386819673724e+03 +4.2673381746726320e+05 +7.6329670190081149e+07 
+2.0000000000000001e-01 -5.7669015783117150e-01 +7.5398473397873902e+00 +6.0522256266710368e+00 -1.2676708472271656e+02 -7.3908320279384470e+03 +4.2891440499543672e+05 +7.7089187801153883e+07 
+2.5000000000000000e-01 -5.7668854672915260e-01 +7.5397809419514195e+00 +6.0595417581585167e+00 -1.2688254037025538e+02 -7.5225976511840172e+03 +4.3109280215361458e+05 +7.7853957059407979e+07 
+2.9999999999999999e-01 -5.7668734813062295e-01 +7.5397367445543608e+00 +6.0664735926881503e+00 -1.2699178146826631e+02 -7.6559395029588813e+03 +4.3326114687066391e+05 +7.8622968296006963e+07 
+3.4999999999999998e-01 -5.7668656132886242e-01 +7.5397146986251631e+00 +6.0730121667819983e+00 -1.2709400125249488e+02 -7.7906615330022423e+03 +4.3541157926581317e+05 +7.9395211820420682e+07 
+4.0000000000000002e-01 -5.7668618561708151e-01 +7.5397147551890731e+00 +6.0791485166461356e+00 -1.2718839274773244e+02 -7.9265676884972945e+03 +4.3753623766475753e+05 +8.0169677944175228e+07 
+4.5000000000000001e-01 -5.7668622028860206e-01 +7.5397368652750387e+00 +6.0848736794398564e+00 -1.2727414912599976e+02 -8.0634619360351526e+03 +4.3962726170193503e+05 +8.0945357088564977e+07 
+5.0000000000000000e-01 -5.7668666463673413e-01 +7.5397809799106126e+00 +6.0901786924267753e+00 -1.2735046344938654e+02 -8.2011482494769971e+03 +4.4167679003994388e+05 +8.1721239739027902e+07 
+5.5000000000000004e-01 -5.7668751795477302e-01 +7.5398470501248802e+00 +6.0950545920033798e+00 -1.2741652882424917e+02 -8.3394305798755067e+03 +4.4367696177878993e+05 +8.2496316227831170e+07 
+5.9999999999999998e-01 -5.7668877953611941e-01 +7.5399350269446472e+00 +6.0994924148060239e+00 -1.2747153822870573e+02 -8.4781128798261434e+03 +4.4561991494915693e+05 +8.3269576879146755e+07 
+6.5000000000000002e-01 -5.7669044867410058e-01 +7.5400448614059030e+00 +6.1034831966663070e+00 -1.2751468497723108e+02 -8.6169990895918800e+03 +4.4749779033990868e+05 +8.4040011970212534e+07 
+6.9999999999999996e-01 -5.7669252466206333e-01 +7.5401765045354896e+00 +6.1070179731245631e+00 -1.2754516199225580e+02 -8.7558931359565922e+03 +4.4930272558128793e+05 +8.4806611665438414e+07 
+7.5000000000000000e-01 -5.7669500679344021e-01 +7.5403299073684096e+00 +6.1100877819391082e+00 -1.2756216248821509e+02 -8.8945990061365083e+03 +4.5102686065906787e+05 +8.5568366540886790e+07 
+8.0000000000000004e-01 -5.7669789436163943e-01 +7.5405050209353490e+00 +6.1126836584682485e+00 -1.2756487947744083e+02 -9.0329206240764051e+03 +4.5266233393880737e+05 +8.6324266747860670e+07 
+8.4999999999999998e-01 -5.7670118666010117e-01 +7.5407017962705760e+00 +6.1147966403801464e+00 -1.2755250608040066e+02 -9.1706619770721900e+03 +4.5420128464866040e+05 +8.7073302876218349e+07 
+9.0000000000000002e-01 -5.7670488298226763e-01 +7.5409201844092051e+00 +6.1164177627506664e+00 -1.2752423542258373e+02 -9.3076269823018956e+03 +4.5563585207011702e+05 +8.7814465035405934e+07 
+9.4999999999999996e-01 -5.7670898262157122e-01 +7.5411601363872220e+00 +6.1175380601228646e+00 -1.2747926064048293e+02 -9.4436195417477174e+03 +4.5695817561988725e+05 +8.8546743235598460e+07 
+1.0000000000000000e+00 -5.7671348487155760e-01 +7.5414216032397032e+00 +6.1181485700571967e+00 -1.2741677478995044e+02 -9.5784436433937171e+03 +4.5816039398381347e+05 +8.9269128082074597e+07 
+1.0500000000000000e+00 -5.7671838902569061e-01 +7.5417045360053638e+00 +6.1182403263203158e+00 -1.2733597105898225e+02 -9.7119031663764636e+03 +4.5923464700558671e+05 +8.9980609423976481e+07 
+1.1000000000000001e+00 -5.7672369437747018e-01 +7.5420088857221428e+00 +6.1178043665414563e+00 -1.2723604255689533e+02 -9.8438021015907634e+03 +4.6017307383856765e+05 +9.0680177893924713e+07 
+1.1499999999999999e+00 -5.7672940022045383e-01 +7.5423346034297403e+00 +6.1168317251114335e+00 -1.2711618243748225e+02 -9.9739443490440954e+03 +4.6096781398743519e+05 +9.1366823501647636e+07 
+1.2000000000000000e+00 -5.7673550584818534e-01 +7.5426816401686025e+00 +6.1153134363013741e+00 -1.2697558385949296e+02 -1.0102133807966802e+04 +4.6161100703669532e+05 +9.2039536258064032e+07 
+1.2500000000000000e+00 -5.7674201055423613e-01 +7.5430499469801608e+00 +6.1132405357145778e+00 -1.2681343998578141e+02 -1.0228174412944130e+04 +4.6209479257742560e+05 +9.2697306416889325e+07 
+1.3000000000000000e+00 -5.7674891363219671e-01 +7.5434394749054663e+00 +6.1106040594580415e+00 -1.2662894393574622e+02 -1.0351870112964329e+04 +4.6241130985393544e+05 +9.3339124330220804e+07 
+1.3500000000000001e+00 -5.7675621437565938e-01 +7.5438501749889726e+00 +6.1073950406268027e+00 -1.2642128892687053e+02 -1.0473024774398375e+04 +4.6255269886976603e+05 +9.3963979790732443e+07 
+1.3999999999999999e+00 -5.7676391207822908e-01 +7.5442819982760563e+00 +6.1036045165401696e+00 -1.2618966818766539e+02 -1.0591442383578007e+04 +4.6251109975374391e+05 +9.4570863428986356e+07 
+1.4500000000000000e+00 -5.7677200603357437e-01 +7.5447348958121232e+00 +6.0992235177875962e+00 -1.2593327492145050e+02 -1.0706926739069137e+04 +4.6227865240278555e+05 +9.5158764583033472e+07 
+1.5000000000000000e+00 -5.7678049553529775e-01 +7.5452088186420339e+00 +6.0942430799395799e+00 -1.2565130227794378e+02 -1.0819281776997845e+04 +4.6184749630257505e+05 +9.5726673533606037e+07 
+1.5500000000000000e+00 -5.7678937987709811e-01 +7.5457037178159556e+00 +6.0886542378846960e+00 -1.2534294357578706e+02 -1.0928311419459355e+04 +4.6120977222289192e+05 +9.6273580491093054e+07 
+1.6000000000000001e+00 -5.7679865835265809e-01 +7.5462195443827706e+00 +6.0824480253788158e+00 -1.2500739206578848e+02 -1.1033819552651186e+04 +4.6035762044380262e+05 +9.6798475400040045e+07 
+1.6499999999999999e+00 -5.7680833025566636e-01 +7.5467562493910370e+00 +6.0756154742546542e+00 -1.2464384094933563e+02 -1.1135610016278517e+04 +4.5928318080926506e+05 +9.7300347918583870e+07 
+1.7000000000000000e+00 -5.7681839487985720e-01 +7.5473137838948423e+00 +6.0681476211633321e+00 -1.2425148361780930e+02 -1.1233486775951000e+04 +4.5797859468012227e+05 +9.7778188541268185e+07 
+1.7500000000000000e+00 -5.7682885151893992e-01 +7.5478920989445735e+00 +6.0600354955701770e+00 -1.2382951328777787e+02 -1.1327253609381169e+04 +4.5643600201232737e+05 +9.8230986520586491e+07 
+1.8000000000000000e+00 -5.7683969946664726e-01 +7.5484911455949577e+00 +6.0512701325965885e+00 -1.2337712331027956e+02 -1.1416714442164990e+04 +4.5464754381039500e+05 +9.8657732091827914e+07 
+1.8500000000000001e+00 -5.7685093801677079e-01 +7.5491108749019586e+00 +6.0418425651004322e+00 -1.2289350706564304e+02 -1.1501673142264282e+04 +4.5260536131981405e+05 +9.9057415119957060e+07 
+1.8999999999999999e+00 -5.7686256646310619e-01 +7.5497512379214760e+00 +6.0317438241803210e+00 -1.2237785789987269e+02 -1.1581933534579297e+04 +4.5030159549672698e+05 +9.9429025198142394e+07 
+1.9500000000000000e+00 -5.7687458409940529e-01 +7.5504121857101891e+00 +6.0209649440602862e+00 -1.2182936914298209e+02 -1.1657299520946453e+04 +4.4772838709465007e+05 +9.9771552413187757e+07 
+2.0000000000000000e+00 -5.7688699021949474e-01 +7.5510936693296848e+00 +6.0094969543713175e+00 -1.2124723430974491e+02 -1.1727574882691484e+04 +4.4487787841756042e+05 +1.0008398606165636e+08 
+2.0499999999999998e+00 -5.7689978390963881e-01 +7.5517956274980733e+00 +5.9973347981594181e+00 -1.2063109298025132e+02 -1.1792637822488863e+04 +4.4174618174057372e+05 +1.0036576357435592e+08 
+2.1000000000000001e+00 -5.7691296342380782e-01 +7.5525179493724632e+00 +5.9844892229521172e+00 -1.1998237336225891e+02 -1.1852657930418995e+04 +4.3834529328605509e+05 +1.0061804797221021e+08 
+2.1499999999999999e+00 -5.7692652680729128e-01 +7.5532605085556277e+00 +5.9709751582698383e+00 -1.1930295721703908e+02 -1.1907876172116557e+04 +4.3469118488239293e+05 +1.0084241806329174e+08 
+2.2000000000000002e+00 -5.7694047210544119e-01 +7.5540231786474967e+00 +5.9568075276357249e+00 -1.1859472618564961e+02 -1.1958533351296534e+04 +4.3079982737796381e+05 +1.0104045156589828e+08 
+2.2500000000000000e+00 -5.7695479736361432e-01 +7.5548058332518728e+00 +5.9420012578471200e+00 -1.1785956203755792e+02 -1.2004870358565804e+04 +4.2668719262011058e+05 +1.0121372677776411e+08 
+2.2999999999999998e+00 -5.7696950062721419e-01 +7.5556083459712315e+00 +5.9265712772701233e+00 -1.1709934647551839e+02 -1.2047128129362849e+04 +4.2236925192877802e+05 +1.0136382230507845e+08 
+2.3500000000000001e+00 -5.7698457994155650e-01 +7.5564305904038891e+00 +5.9105325104389008e+00 -1.1631596100638983e+02 -1.2085547491128613e+04 +4.1786197499287303e+05 +1.0149231600629163e+08 
+2.3999999999999999e+00 -5.7700003335207772e-01 +7.5572724401585090e+00 +5.8938998868012158e+00 -1.1551128753912580e+02 -1.2120369406144720e+04 +4.1318133476328070e+05 +1.0160078665549046e+08 
+2.4500000000000002e+00 -5.7701585890414675e-01 +7.5581337688352113e+00 +5.8766883315786602e+00 -1.1468720761904720e+02 -1.2151834724937886e+04 +4.0834330121075007e+05 +1.0169081228040001e+08 
+2.5000000000000000e+00 -5.7703205464324270e-01 +7.5590144500386938e+00 +5.8589127720555441e+00 -1.1384560296122172e+02 -1.2180184344889689e+04 +4.0336384567579569e+05 +1.0176397118701956e+08 
+2.5499999999999998e+00 -5.7704861861477519e-01 +7.5599143573728762e+00 +5.8405881366401804e+00 -1.1298835521422774e+02 -1.2205659203855563e+04 +3.9825893887965655e+05 +1.0182184199109012e+08 
+2.6000000000000001e+00 -5.7706554886416883e-01 +7.5608333644423391e+00 +5.8217293534802934e+00 -1.1211734605777497e+02 -1.2228500221560189e+04 +3.9304455187474884e+05 +1.0186600313933448e+08 
+2.6499999999999999e+00 -5.7708284343693683e-01 +7.5617713448509676e+00 +5.8023513508386140e+00 -1.1123445712124278e+02 -1.2248948331915499e+04 +3.8773665522814507e+05 +1.0189803321397640e+08 
+2.7000000000000002e+00 -5.7710050037849392e-01 +7.5627281722043893e+00 +5.7824690556755121e+00 -1.1034157006851109e+02 -1.2267244420442439e+04 +3.8235121972341457e+05 +1.0191951041779716e+08 
+2.7500000000000000e+00 -5.7711851773435430e-01 +7.5637037201069575e+00 +5.7620973972303444e+00 -1.0944056653890956e+02 -1.2283629443323751e+04 +3.7690421607237833e+05 +1.0193201345950523e+08 
+2.7999999999999998e+00 -5.7713689355004827e-01 +7.5646978621644614e+00 +5.7412513049009855e+00 -1.0853332816824170e+02 -1.2298344353892438e+04 +3.7141161474187800e+05 +1.0193712099802871e+08 
+2.8500000000000001e+00 -5.7715562587102975e-01 +7.5657104719827801e+00 +5.7199457077938192e+00 -1.0762173660919488e+02 -1.2311630100382798e+04 +3.6588938645807578e+05 +1.0193641166553564e+08 
+2.8999999999999999e+00 -5.7717471274284327e-01 +7.5667414231647490e+00 +5.6981955343855359e+00 -1.0670767336620065e+02 -1.2323727612259103e+04 +3.6035350063632289e+05 +1.0193146395528685e+08 
+2.9500000000000002e+00 -5.7719415221102821e-01 +7.5677905893188511e+00 +5.6760157157684032e+00 -1.0579302016186691e+02 -1.2334877891962829e+04 +3.5481992848171404e+05 +1.0192385685764770e+08 
+3.0000000000000000e+00 -5.7721394232112722e-01 +7.5688578440475940e+00 +5.6534211810724573e+00 -1.0487965846833598e+02 -1.2345321879440451e+04 +3.4930463913099840e+05 +1.0191516890092330e+08 
+3.0499999999999998e+00 -5.7723408111866581e-01 +7.5699430609594254e+00 +5.6304268603189112e+00 -1.0396946997605046e+02 -1.2355300545995460e+04 +3.4382360345934029e+05 +1.0190697884666003e+08 
+3.1000000000000001e+00 -5.7725456664927899e-01 +7.5710461136573324e+00 +5.6070476862688379e+00 -1.0306433614923041e+02 -1.2365054931634522e+04 +3.3839279047196027e+05 +1.0190086589591247e+08 
+3.1499999999999999e+00 -5.7727539695852170e-01 +7.5721668757478522e+00 +5.5832985907088117e+00 -1.0216613858944615e+02 -1.2374826051509106e+04 +3.3302817030910711e+05 +1.0189840908335878e+08 
+3.2000000000000002e+00 -5.7729657009197188e-01 +7.5733052208366898e+00 +5.5591945031771042e+00 -1.0127675883990007e+02 -1.2384854859458979e+04 +3.2774571254133480e+05 +1.0190118701926178e+08 
+3.2500000000000000e+00 -5.7731808409520746e-01 +7.5744610225288351e+00 +5.5347503559143840e+00 -1.0039807841043377e+02 -1.2395382376177879e+04 +3.2256138647757494e+05 +1.0191077873904923e+08 
+3.2999999999999998e+00 -5.7733993701387243e-01 +7.5756341544280152e+00 +5.5099810826185349e+00 -9.9531978755395343e+01 -1.2406649667436837e+04 +3.1749116094601474e+05 +1.0192876359537379e+08 
+3.3500000000000001e+00 -5.7736212689361621e-01 +7.5768244901421644e+00 +5.4849016152500036e+00 -9.8680341489817195e+01 -1.2418897741836969e+04 +3.1255100605819945e+05 +1.0195672051324299e+08 
+3.3999999999999999e+00 -5.7738465178003040e-01 +7.5780319032723824e+00 +5.4595268904057717e+00 -9.7845047937874398e+01 -1.2432367745051159e+04 +3.0775688952170342e+05 +1.0199622937870045e+08 
+3.4500000000000002e+00 -5.7740750971876276e-01 +7.5792562674258459e+00 +5.4338718370526866e+00 -9.7027979656258964e+01 -1.2447300602525525e+04 +3.0312478086678265e+05 +1.0204886853261511e+08 
+3.5000000000000000e+00 -5.7743069875549047e-01 +7.5804974562053751e+00 +5.4079513941138764e+00 -9.6231018035855826e+01 -1.2463937516865688e+04 +2.9867064832922566e+05 +1.0211621821118812e+08 
+3.5499999999999998e+00 -5.7745421693586119e-01 +7.5817553432147440e+00 +5.3817804929625082e+00 -9.5456044477960774e+01 -1.2482519477527854e+04 +2.9441046010001120e+05 +1.0219985716977306e+08 
+3.6000000000000001e+00 -5.7747806230559640e-01 +7.5830298020591718e+00 +5.3553740726799699e+00 -9.4704940456478582e+01 -1.2503287684207298e+04 +2.9036018501414818e+05 +1.0230136558309178e+08 
+3.6499999999999999e+00 -5.7750223291028080e-01 +7.5843207063393487e+00 +5.3287470662372192e+00 -9.3979587235413504e+01 -1.2526483171955480e+04 +2.8653579010358447e+05 +1.0242232250999801e+08 
+3.6999999999999900e+00 -5.7752672679570016e-01 +7.5856279296613591e+00 +5.3019144115685499e+00 -9.3281866307093921e+01 -1.2552347105573930e+04 +2.8295324425279710e+05 +1.0256430786167437e+08 
+3.7499999999999898e+00 -5.7755154200752723e-01 +7.5869513456249518e+00 +5.2748910454706097e+00 -9.2613658897223630e+01 -1.2581120618955709e+04 +2.7962851414483134e+05 +1.0272890132816330e+08 
+3.7999999999999901e+00 -5.7757667659144507e-01 +7.5882908278336823e+00 +5.2476919052988524e+00 -9.1976846386115611e+01 -1.2613044861613878e+04 +2.7657756770228106e+05 +1.0291768270480458e+08 
+3.8499999999999899e+00 -5.7760212859325066e-01 +7.5896462498885331e+00 +5.2203319325212503e+00 -9.1373310030088859e+01 -1.2648361086409383e+04 +2.7381637172788597e+05 +1.0313223244386588e+08 
+3.8999999999999901e+00 -5.7762789605859222e-01 +7.5910174853909655e+00 +5.1928260612898649e+00 -9.0804931127684398e+01 -1.2687310353489176e+04 +2.7136089345519181e+05 +1.0337412970834103e+08 
+3.9499999999999900e+00 -5.7765397703328714e-01 +7.5924044079412552e+00 +5.1651892350051085e+00 -9.0273590900060128e+01 -1.2730133966133799e+04 +2.6922709931771626e+05 +1.0364495526762305e+08 
+3.9999999999999898e+00 -5.7768036956301583e-01 +7.5938068911401588e+00 +5.1374363914742167e+00 -8.9781170587437529e+01 -1.2777073076329380e+04 +2.6743095595944428e+05 +1.0394628886533238e+08 
+4.0499999999999901e+00 -5.7770707151567668e-01 +7.5952247933993231e+00 +5.1095794166539008e+00 -8.9328996510262456e+01 -1.2828286028897102e+04 +2.6598361969528184e+05 +1.0427913170593785e+08 
+4.0999999999999899e+00 -5.7773408004503013e-01 +7.5966579056684971e+00 +5.0816183059195801e+00 -8.8916252639775948e+01 -1.2883613531894489e+04 +2.6487771080639435e+05 +1.0464231386227947e+08 
+4.1499999999999897e+00 -5.7776139212552313e-01 +7.5981060002979239e+00 +5.0535501819681059e+00 -8.8541603998844252e+01 -1.2942819980839113e+04 +2.6410135650838615e+05 +1.0503415570850095e+08 
+4.1999999999999904e+00 -5.7778900473174843e-01 +7.5995688496373868e+00 +5.0253721638856925e+00 -8.8203715627504849e+01 -1.3005669682125321e+04 +2.6364268415781046e+05 +1.0545297706563087e+08 
+4.2499999999999902e+00 -5.7781691483822983e-01 +7.6010462260391103e+00 +4.9970813772634379e+00 -8.7901252649722650e+01 -1.3071927110527602e+04 +2.6348982176134578e+05 +1.0589709886340281e+08 
+4.2999999999999901e+00 -5.7784511941949035e-01 +7.6025379018503028e+00 +4.9686749424412744e+00 -8.7632880004458727e+01 -1.3141356603664262e+04 +2.6363089587536670e+05 +1.0636484113037889e+08 
+4.3499999999999899e+00 -5.7787361545005933e-01 +7.6040436494253321e+00 +4.9401499804640814e+00 -8.7397262933593353e+01 -1.3213722515961923e+04 +2.6405403558425768e+05 +1.0685452399952979e+08 
+4.3999999999999897e+00 -5.7790239990444225e-01 +7.6055632411127148e+00 +4.9115036130511394e+00 -8.7193066444628883e+01 -1.3288789223310954e+04 +2.6474736806695338e+05 +1.0736446776445226e+08 
+4.4499999999999904e+00 -5.7793146975723375e-01 +7.6070964492663089e+00 +4.8827329618972293e+00 -8.7018955782302243e+01 -1.3366321095783793e+04 +2.6569902250424289e+05 +1.0789299266726440e+08 
+4.4999999999999902e+00 -5.7796082198291698e-01 +7.6086430462348211e+00 +4.8538351448811632e+00 -8.6873595983247611e+01 -1.3446082408651904e+04 +2.6689712638143176e+05 +1.0843841833809489e+08 
+4.5499999999999901e+00 -5.7799045355601564e-01 +7.6102028043706280e+00 +4.8248072856307296e+00 -8.6755652250610595e+01 -1.3527837585274116e+04 +2.6832980861280183e+05 +1.0899906538828380e+08 
+4.5999999999999899e+00 -5.7802036145108371e-01 +7.6117754960261577e+00 +4.7956465037947220e+00 -8.6663789808606424e+01 -1.3611350945312879e+04 +2.6998519834542787e+05 +1.0957325374535009e+08 
+4.6499999999999897e+00 -5.7805054264264699e-01 +7.6133608935512953e+00 +4.7663499185035869e+00 -8.6596673782479840e+01 -1.3696386792179830e+04 +2.7185142390713893e+05 +1.1015930322360657e+08 
+4.6999999999999904e+00 -5.7808099410525782e-01 +7.6149587692981493e+00 +4.7369146493901226e+00 -8.6552969405396979e+01 -1.3782709449166863e+04 +2.7391661457693670e+05 +1.1075553379869165e+08 
+4.7499999999999902e+00 -5.7811171281339402e-01 +7.6165688956200892e+00 +4.7073378169485318e+00 -8.6531341976045937e+01 -1.3870083256083195e+04 +2.7616890022702987e+05 +1.1136026553494364e+08 
+4.7999999999999901e+00 -5.7814269574158794e-01 +7.6181910448660810e+00 +4.6776165368449707e+00 -8.6530456634434842e+01 -1.3958272425640422e+04 +2.7859640946942731e+05 +1.1197181765819718e+08 
+4.8499999999999899e+00 -5.7817393986435761e-01 +7.6198249893912680e+00 +4.6477479324597688e+00 -8.6548978792097017e+01 -1.4047041381497103e+04 +2.8118727322057082e+05 +1.1258851083239067e+08 
+4.8999999999999897e+00 -5.7820544215627978e-01 +7.6214705015440680e+00 +4.6177291178190130e+00 -8.6585573594950858e+01 -1.4136154291168792e+04 +2.8392962020415493e+05 +1.1320866398155090e+08 
+4.9499999999999904e+00 -5.7823719959177122e-01 +7.6231273536793367e+00 +4.5875572133013343e+00 -8.6638906471477711e+01 -1.4225375496987244e+04 +2.8681158156945329e+05 +1.1383059722988164e+08 
+4.9999999999999902e+00 -5.7826920914542057e-01 +7.6247953181485473e+00 +4.5572293356255047e+00 -8.6707642739979093e+01 -1.4314469240540091e+04 +2.8982128759654704e+05 +1.1445263001639915e+08 
+5.0499999999999901e+00 -5.7830146779410574e-01 +7.6264741590724743e+00 +4.5267430285712180e+00 -8.6790456814205896e+01 -1.4403199725547986e+04 +2.9294687286735390e+05 +1.1507308218251567e+08 
