# field on trajectory
# s[mm] rx[mm] ry[mm] rz[mm] bx[T] by[T] bz[T]
0.0000000000000000e+00 +8.5389999999999997e+00 +0.0000000000000000e+00 +0.0000000000000000e+00 -2.8020447585860829e-02 -5.5208101443651036e-01 +5.7216917693745303e-03
5.0000000000000003e-02 +8.5389999311140787e+00 +0.0000000000000000e+00 +4.9999999999936734e-02 -2.8020008993483562e-02 -5.5207784348063027e-01 +5.7201267683174278e-03
1.0000000000000001e-01 +8.5389997244568256e+00 +0.0000000000000000e+00 +9.9999999999493841e-02 -2.8019595071422841e-02 -5.5207507054156435e-01 +5.7185582433274878e-03
1.5000000000000002e-01 +8.5389993800289332e+00 +0.0000000000000000e+00 +1.4999999999829172e-01 -2.8019205713947389e-02 -5.5207269494458378e-01 +5.7169862735027268e-03
2.0000000000000001e-01 +8.5389988978309947e+00 +0.0000000000000000e+00 +1.9999999999595075e-01 -2.8018840815326417e-02 -5.5207071601497781e-01 +5.7154109379409434e-03
2.5000000000000000e-01 +8.5389982778635041e+00 +0.0000000000000000e+00 +2.4999999999209133e-01 -2.8018500269829525e-02 -5.5206913307805361e-01 +5.7138323157397497e-03
2.9999999999999999e-01 +8.5389975201268555e+00 +0.0000000000000000e+00 +2.9999999998633387e-01 -2.8018183971726833e-02 -5.5206794545913607e-01 +5.7122504859965697e-03
3.4999999999999998e-01 +8.5389966246213458e+00 +0.0000000000000000e+00 +3.4999999997829873e-01 -2.8017891815288916e-02 -5.5206715248356875e-01 +5.7106655278086806e-03
3.9999999999999997e-01 +8.5389955913471720e+00 +0.0000000000000000e+00 +3.9999999996760632e-01 -2.8017623694786879e-02 -5.5206675347671286e-01 +5.7090775202732159e-03
4.4999999999999996e-01 +8.5389944203044355e+00 +0.0000000000000000e+00 +4.4999999995387707e-01 -2.8017379504492242e-02 -5.5206674776394749e-01 +5.7074865424871770e-03
4.9999999999999994e-01 +8.5389931114931361e+00 +0.0000000000000000e+00 +4.9999999993673139e-01 -2.8017159138677073e-02 -5.5206713467066926e-01 +5.7058926735474701e-03
5.4999999999999993e-01 +8.5389916649131781e+00 +0.0000000000000000e+00 +5.4999999991578963e-01 -2.8016962491613957e-02 -5.5206791352229334e-01 +5.7042959925509094e-03
5.9999999999999998e-01 +8.5389900805643677e+00 +0.0000000000000000e+00 +5.9999999989067221e-01 -2.8016789457576002e-02 -5.5206908364425245e-01 +5.7026965785942360e-03
6.5000000000000002e-01 +8.5389883584464119e+00 +0.0000000000000000e+00 +6.4999999986099943e-01 -2.8016639930836792e-02 -5.5207064436199726e-01 +5.7010945107741455e-03
7.0000000000000007e-01 +8.5389864985589217e+00 +0.0000000000000000e+00 +6.9999999982639183e-01 -2.8016513805670516e-02 -5.5207259500099581e-01 +5.6994898681872854e-03
7.5000000000000011e-01 +8.5389845009014103e+00 +0.0000000000000000e+00 +7.4999999978646970e-01 -2.8016410976351835e-02 -5.5207493488673454e-01 +5.6978827299302998e-03
8.0000000000000016e-01 +8.5389823654732933e+00 +0.0000000000000000e+00 +7.9999999974085334e-01 -2.8016331337156024e-02 -5.5207766334471708e-01 +5.6962731750998252e-03
8.5000000000000020e-01 +8.5389800922738903e+00 +0.0000000000000000e+00 +8.4999999968916318e-01 -2.8016274782358890e-02 -5.5208077970046487e-01 +5.6946612827925170e-03
9.0000000000000024e-01 +8.5389776813024234e+00 +0.0000000000000000e+00 +8.9999999963101951e-01 -2.8016241206236775e-02 -5.5208428327951709e-01 +5.6930471321050601e-03
9.5000000000000029e-01 +8.5389751325580185e+00 +0.0000000000000000e+00 +9.4999999956604275e-01 -2.8016230503066682e-02 -5.5208817340743066e-01 +5.6914308021342053e-03
1.0000000000000002e+00 +8.5389724460397041e+00 +0.0000000000000000e+00 +9.9999999949385310e-01 -2.8016242567126124e-02 -5.5209244940978008e-01 +5.6898123719767669e-03
1.0500000000000003e+00 +8.5389696217464142e+00 +0.0000000000000000e+00 +1.0499999994140710e+00 -2.8016277292693230e-02 -5.5209711061215672e-01 +5.6881919207296414e-03
1.1000000000000003e+00 +8.5389666596769853e+00 +0.0000000000000000e+00 +1.0999999993263165e+00 -2.8016334574046751e-02 -5.5210215634017112e-01 +5.6865695274898442e-03
1.1500000000000004e+00 +8.5389635598301581e+00 +0.0000000000000000e+00 +1.1499999992302101e+00 -2.8016414305466017e-02 -5.5210758591944964e-01 +5.6849452713545016e-03
1.2000000000000004e+00 +8.5389603222045789e+00 +0.0000000000000000e+00 +1.1999999991253720e+00 -2.8016516381231007e-02 -5.5211339867563680e-01 +5.6833192314208886e-03
1.2500000000000004e+00 +8.5389569467987965e+00 +0.0000000000000000e+00 +1.2499999990114226e+00 -2.8016640695622298e-02 -5.5211959393439503e-01 +5.6816914867864375e-03
1.3000000000000005e+00 +8.5389534336112636e+00 +0.0000000000000000e+00 +1.2999999988879818e+00 -2.8016787142921100e-02 -5.5212617102140304e-01 +5.6800621165487564e-03
1.3500000000000005e+00 +8.5389497826403407e+00 +0.0000000000000000e+00 +1.3499999987546700e+00 -2.8016955617409314e-02 -5.5213312926235869e-01 +5.6784311998056454e-03
1.4000000000000006e+00 +8.5389459938842904e+00 +0.0000000000000000e+00 +1.3999999986111076e+00 -2.8017146013369448e-02 -5.5214046798297511e-01 +5.6767988156551201e-03
1.4500000000000006e+00 +8.5389420673412815e+00 +0.0000000000000000e+00 +1.4499999984569143e+00 -2.8017358225084676e-02 -5.5214818650898456e-01 +5.6751650431954223e-03
1.5000000000000007e+00 +8.5389380030093882e+00 +0.0000000000000000e+00 +1.4999999982917105e+00 -2.8017592146838854e-02 -5.5215628416613538e-01 +5.6735299615250454e-03
1.5500000000000007e+00 +8.5389338008865892e+00 +0.0000000000000000e+00 +1.5499999981151162e+00 -2.8017847672916513e-02 -5.5216476028019412e-01 +5.6718936497427421e-03
1.6000000000000008e+00 +8.5389294609707687e+00 +0.0000000000000000e+00 +1.5999999979267516e+00 -2.8018124697602873e-02 -5.5217361417694399e-01 +5.6702561869475506e-03
1.6500000000000008e+00 +8.5389249832597187e+00 +0.0000000000000000e+00 +1.6499999977262370e+00 -2.8018423115183804e-02 -5.5218284518218552e-01 +5.6686176522388037e-03
1.7000000000000008e+00 +8.5389203677511354e+00 +0.0000000000000000e+00 +1.6999999975131919e+00 -2.8018742819945958e-02 -5.5219245262173622e-01 +5.6669781247161623e-03
1.7500000000000009e+00 +8.5389156144426206e+00 +0.0000000000000000e+00 +1.7499999972872367e+00 -2.8019083706176635e-02 -5.5220243582143169e-01 +5.6653376834796109e-03
1.8000000000000009e+00 +8.5389107233316839e+00 +0.0000000000000000e+00 +1.7999999970479912e+00 -2.8019445668163865e-02 -5.5221279410712376e-01 +5.6636964076294946e-03
1.8500000000000010e+00 +8.5389056944157407e+00 +0.0000000000000000e+00 +1.8499999967950753e+00 -2.8019828600196434e-02 -5.5222352680468101e-01 +5.6620543762665254e-03
1.9000000000000010e+00 +8.5389005276921104e+00 +0.0000000000000000e+00 +1.8999999965281091e+00 -2.8020232396563843e-02 -5.5223463323999045e-01 +5.6604116684918051e-03
1.9500000000000011e+00 +8.5388952231580237e+00 +0.0000000000000000e+00 +1.9499999962467125e+00 -2.8020656951556314e-02 -5.5224611273895508e-01 +5.6587683634068391e-03
2.0000000000000009e+00 +8.5388897808106154e+00 +0.0000000000000000e+00 +1.9999999959505053e+00 -2.8021102159464871e-02 -5.5225796462749532e-01 +5.6571245401135593e-03
2.0500000000000007e+00 +8.5388842006469279e+00 +0.0000000000000000e+00 +2.0499999956391073e+00 -2.8021567923979439e-02 -5.5227018802041250e-01 +5.6554802754132903e-03
2.1000000000000005e+00 +8.5388784826639110e+00 +0.0000000000000000e+00 +2.0999999953121380e+00 -2.8022054186383445e-02 -5.5228278118798213e-01 +5.6538356369034998e-03
2.1500000000000004e+00 +8.5388726268584225e+00 +0.0000000000000000e+00 +2.1499999949692175e+00 -2.8022560897359362e-02 -5.5229574218935840e-01 +5.6521906898806514e-03
2.2000000000000002e+00 +8.5388666332272276e+00 +0.0000000000000000e+00 +2.1999999946099655e+00 -2.8023088007590565e-02 -5.5230906908370903e-01 +5.6505454996412085e-03
2.2500000000000000e+00 +8.5388605017669992e+00 +0.0000000000000000e+00 +2.2499999942340017e+00 -2.8023635467761255e-02 -5.5232275993021629e-01 +5.6489001314816226e-03
2.2999999999999998e+00 +8.5388542324743231e+00 +0.0000000000000000e+00 +2.2999999938409457e+00 -2.8024203228556616e-02 -5.5233681278807600e-01 +5.6472546506983329e-03
2.3499999999999996e+00 +8.5388478253456910e+00 +0.0000000000000000e+00 +2.3499999934304170e+00 -2.8024791240662678e-02 -5.5235122571649786e-01 +5.6456091225877397e-03
2.3999999999999995e+00 +8.5388412803775076e+00 +0.0000000000000000e+00 +2.3999999930020350e+00 -2.8025399454766464e-02 -5.5236599677470444e-01 +5.6439636124462154e-03
2.4499999999999993e+00 +8.5388345975660851e+00 +0.0000000000000000e+00 +2.4499999925554197e+00 -2.8026027821555888e-02 -5.5238112402193251e-01 +5.6423181855700709e-03
2.4999999999999991e+00 +8.5388277769076506e+00 +0.0000000000000000e+00 +2.4999999920901899e+00 -2.8026676291719864e-02 -5.5239660551743031e-01 +5.6406729072555643e-03
2.5499999999999989e+00 +8.5388208183983387e+00 +0.0000000000000000e+00 +2.5499999916059655e+00 -2.8027344815948273e-02 -5.5241243932046080e-01 +5.6390278427988867e-03
2.5999999999999988e+00 +8.5388137220342006e+00 +0.0000000000000000e+00 +2.5999999911023659e+00 -2.8028033344931952e-02 -5.5242862349029853e-01 +5.6373830574961460e-03
2.6499999999999986e+00 +8.5388064878111951e+00 +0.0000000000000000e+00 +2.6499999905790101e+00 -2.8028741829362769e-02 -5.5244515608623035e-01 +5.6357386166433592e-03
2.6999999999999984e+00 +8.5387991157251975e+00 +0.0000000000000000e+00 +2.6999999900355176e+00 -2.8029470219933576e-02 -5.5246203516755610e-01 +5.6340945855364545e-03
2.7499999999999982e+00 +8.5387916057719959e+00 +0.0000000000000000e+00 +2.7499999894715077e+00 -2.8030218467338285e-02 -5.5247925879358784e-01 +5.6324510294712433e-03
2.7999999999999980e+00 +8.5387839579472935e+00 +0.0000000000000000e+00 +2.7999999888865998e+00 -2.8030986522271827e-02 -5.5249682502364861e-01 +5.6308080137434215e-03
2.8499999999999979e+00 +8.5387761722467044e+00 +0.0000000000000000e+00 +2.8499999882804126e+00 -2.8031774335430162e-02 -5.5251473191707412e-01 +5.6291656036485567e-03
2.8999999999999977e+00 +8.5387682486657610e+00 +0.0000000000000000e+00 +2.8999999876525653e+00 -2.8032581857510359e-02 -5.5253297753321118e-01 +5.6275238644820794e-03
2.9499999999999975e+00 +8.5387601871999106e+00 +0.0000000000000000e+00 +2.9499999870026770e+00 -2.8033409039210554e-02 -5.5255155993141891e-01 +5.6258828615392779e-03
2.9999999999999973e+00 +8.5387519878445168e+00 +0.0000000000000000e+00 +2.9999999863303670e+00 -2.8034255831229947e-02 -5.5257047717106589e-01 +5.6242426601152678e-03
3.0499999999999972e+00 +8.5387436505948582e+00 +0.0000000000000000e+00 +3.0499999856352540e+00 -2.8035122184268884e-02 -5.5258972731153344e-01 +5.6226033255050130e-03
3.0999999999999970e+00 +8.5387351754461296e+00 +0.0000000000000000e+00 +3.0999999849169568e+00 -2.8036008049028793e-02 -5.5260930841221256e-01 +5.6209649230032918e-03
3.1499999999999968e+00 +8.5387265623934461e+00 +0.0000000000000000e+00 +3.1499999841750941e+00 -2.8036913376212270e-02 -5.5262921853250579e-01 +5.6193275179047021e-03
3.1999999999999966e+00 +8.5387178114318392e+00 +0.0000000000000000e+00 +3.1999999834092852e+00 -2.8037838116523051e-02 -5.5264945573182589e-01 +5.6176911755036396e-03
3.2499999999999964e+00 +8.5387089225562587e+00 +0.0000000000000000e+00 +3.2499999826191481e+00 -2.8038782220665991e-02 -5.5267001806959526e-01 +5.6160559610942918e-03
3.2999999999999963e+00 +8.5386998957615727e+00 +0.0000000000000000e+00 +3.2999999818043020e+00 -2.8039745639347181e-02 -5.5269090360524742e-01 +5.6144219399706383e-03
3.3499999999999961e+00 +8.5386907310425695e+00 +0.0000000000000000e+00 +3.3499999809643652e+00 -2.8040728323273850e-02 -5.5271211039822532e-01 +5.6127891774264216e-03
3.3999999999999959e+00 +8.5386814283939572e+00 +0.0000000000000000e+00 +3.3999999800989569e+00 -2.8041730223154447e-02 -5.5273363650798124e-01 +5.6111577387551563e-03
3.4499999999999957e+00 +8.5386719878103641e+00 +0.0000000000000000e+00 +3.4499999792076950e+00 -2.8042751289698638e-02 -5.5275547999397812e-01 +5.6095276892501097e-03
3.4999999999999956e+00 +8.5386624092863403e+00 +0.0000000000000000e+00 +3.4999999782901980e+00 -2.8043791473617293e-02 -5.5277763891568699e-01 +5.6078990942042871e-03
3.5499999999999954e+00 +8.5386526928163544e+00 +0.0000000000000000e+00 +3.5499999773460842e+00 -2.8044850725622551e-02 -5.5280011133258911e-01 +5.6062720189104416e-03
3.5999999999999952e+00 +8.5386428383948001e+00 +0.0000000000000000e+00 +3.5999999763749719e+00 -2.8045928996427789e-02 -5.5282289530417394e-01 +5.6046465286610329e-03
3.6499999999999950e+00 +8.5386328460159895e+00 +0.0000000000000000e+00 +3.6499999753764798e+00 -2.8047026236747680e-02 -5.5284598888994085e-01 +5.6030226887482520e-03
3.6999999999999948e+00 +8.5386227156741619e+00 +0.0000000000000000e+00 +3.6999999743502259e+00 -2.8048142397298109e-02 -5.5286939014939662e-01 +5.6014005644639863e-03
3.7499999999999947e+00 +8.5386124473634766e+00 +0.0000000000000000e+00 +3.7499999732958278e+00 -2.8049277428796336e-02 -5.5289309714205725e-01 +5.5997802210998159e-03
3.7999999999999945e+00 +8.5386020410780183e+00 +0.0000000000000000e+00 +3.7999999722129041e+00 -2.8050431281960855e-02 -5.5291710792744697e-01 +5.5981617239470134e-03
3.8499999999999943e+00 +8.5385914968117937e+00 +0.0000000000000000e+00 +3.8499999711010728e+00 -2.8051603907511557e-02 -5.5294142056509765e-01 +5.5965451382965223e-03
3.8999999999999941e+00 +8.5385808145587383e+00 +0.0000000000000000e+00 +3.8999999699599517e+00 -2.8052795256169601e-02 -5.5296603311454939e-01 +5.5949305294389542e-03
3.9499999999999940e+00 +8.5385699943127076e+00 +0.0000000000000000e+00 +3.9499999687891587e+00 -2.8054005278657545e-02 -5.5299094363535051e-01 +5.5933179626645778e-03
3.9999999999999938e+00 +8.5385590360674861e+00 +0.0000000000000000e+00 +3.9999999675883116e+00 -2.8055233925699256e-02 -5.5301615018705585e-01 +5.5917075032632935e-03
4.0499999999999936e+00 +8.5385479398167838e+00 +0.0000000000000000e+00 +4.0499999663570279e+00 -2.8056481145146920e-02 -5.5304165068813060e-01 +5.5900992202574671e-03
4.0999999999999934e+00 +8.5385367055542378e+00 +0.0000000000000000e+00 +4.0999999650949253e+00 -2.8057746873361600e-02 -5.5306744249265394e-01 +5.5884931976005704e-03
4.1499999999999932e+00 +8.5385253332734106e+00 +0.0000000000000000e+00 +4.1499999638016218e+00 -2.8059031043832363e-02 -5.5309352281361002e-01 +5.5868895229792218e-03
4.1999999999999931e+00 +8.5385138229677953e+00 +0.0000000000000000e+00 +4.1999999624767348e+00 -2.8060333590049318e-02 -5.5311988886398611e-01 +5.5852882840804240e-03
4.2499999999999929e+00 +8.5385021746308123e+00 +0.0000000000000000e+00 +4.2499999611198813e+00 -2.8061654445503688e-02 -5.5314653785677192e-01 +5.5836895685915846e-03
4.2999999999999927e+00 +8.5384903882558110e+00 +0.0000000000000000e+00 +4.2999999597306795e+00 -2.8062993543687777e-02 -5.5317346700495895e-01 +5.5820934642005285e-03
4.3499999999999925e+00 +8.5384784638360713e+00 +0.0000000000000000e+00 +4.3499999583087456e+00 -2.8064350818094979e-02 -5.5320067352154190e-01 +5.5805000585955134e-03
4.3999999999999924e+00 +8.5384664013648024e+00 +0.0000000000000000e+00 +4.3999999568536978e+00 -2.8065726202219764e-02 -5.5322815461951591e-01 +5.5789094394652333e-03
4.4499999999999922e+00 +8.5384542008351492e+00 +0.0000000000000000e+00 +4.4499999553651524e+00 -2.8067119629557723e-02 -5.5325590751187737e-01 +5.5773216944988392e-03
4.4999999999999920e+00 +8.5384418622401839e+00 +0.0000000000000000e+00 +4.4999999538427273e+00 -2.8068531033605539e-02 -5.5328392941162474e-01 +5.5757369113859628e-03
4.5499999999999918e+00 +8.5384293855729148e+00 +0.0000000000000000e+00 +4.5499999522860390e+00 -2.8069960347860974e-02 -5.5331221753175630e-01 +5.5741551778167014e-03
4.5999999999999917e+00 +8.5384167708262844e+00 +0.0000000000000000e+00 +4.5999999506947047e+00 -2.8071407505822932e-02 -5.5334076908527108e-01 +5.5725765814816572e-03
4.6499999999999915e+00 +8.5384040179931660e+00 +0.0000000000000000e+00 +4.6499999490683415e+00 -2.8072872440991405e-02 -5.5336958128516822e-01 +5.5710012100719459e-03
4.6999999999999913e+00 +8.5383911270663688e+00 +0.0000000000000000e+00 +4.6999999474065657e+00 -2.8074355086867498e-02 -5.5339865134444655e-01 +5.5694291512791939e-03
4.7499999999999911e+00 +8.5383780980386401e+00 +0.0000000000000000e+00 +4.7499999457089945e+00 -2.8075855376953455e-02 -5.5342797647610509e-01 +5.5678604927955760e-03
4.7999999999999909e+00 +8.5383649309026612e+00 +0.0000000000000000e+00 +4.7999999439752443e+00 -2.8077373244752617e-02 -5.5345755389314089e-01 +5.5662953223138021e-03
4.8499999999999908e+00 +8.5383516256510514e+00 +0.0000000000000000e+00 +4.8499999422049314e+00 -2.8078908623769449e-02 -5.5348738080855087e-01 +5.5647337275271606e-03
4.8999999999999906e+00 +8.5383381822763678e+00 +0.0000000000000000e+00 +4.8999999403976719e+00 -2.8080461447509565e-02 -5.5351745443533007e-01 +5.5631757961295001e-03
4.9499999999999904e+00 +8.5383246007711051e+00 +0.0000000000000000e+00 +4.9499999385530833e+00 -2.8082031649479689e-02 -5.5354777198647220e-01 +5.5616216158152643e-03
4.9999999999999902e+00 +8.5383108811276980e+00 +0.0000000000000000e+00 +4.9999999366707808e+00 -2.8083619163187690e-02 -5.5357833067496864e-01 +5.5600712742795017e-03
5.0499999999999901e+00 +8.5382970233385205e+00 +0.0000000000000000e+00 +5.0499999347503817e+00 -2.8085223922142563e-02 -5.5360912771380910e-01 +5.5585248592178674e-03
5.0999999999999899e+00 +8.5382830273958881e+00 +0.0000000000000000e+00 +5.0999999327915013e+00 -2.8086845859854458e-02 -5.5364016031597973e-01 +5.5569824583266529e-03
5.1499999999999897e+00 +8.5382688932920558e+00 +0.0000000000000000e+00 +5.1499999307937561e+00 -2.8088484909834659e-02 -5.5367142569446426e-01 +5.5554441593027868e-03
5.1999999999999895e+00 +8.5382546210192221e+00 +0.0000000000000000e+00 +5.1999999287567622e+00 -2.8090141005595620e-02 -5.5370292106224339e-01 +5.5539100498438543e-03
5.2499999999999893e+00 +8.5382402105695281e+00 +0.0000000000000000e+00 +5.2499999266801360e+00 -2.8091814080650906e-02 -5.5373464363229408e-01 +5.5523802176481044e-03
5.2999999999999892e+00 +8.5382256619350567e+00 +0.0000000000000000e+00 +5.2999999245634921e+00 -2.8093504068515275e-02 -5.5376659061758970e-01 +5.5508547504144780e-03
5.3499999999999890e+00 +8.5382109751078357e+00 +0.0000000000000000e+00 +5.3499999224064476e+00 -2.8095210902704622e-02 -5.5379875923109934e-01 +5.5493337358425970e-03
5.3999999999999888e+00 +8.5381961500798376e+00 +0.0000000000000000e+00 +5.3999999202086171e+00 -2.8096934516736016e-02 -5.5383114668578770e-01 +5.5478172616327979e-03
5.4499999999999886e+00 +8.5381811868429800e+00 +0.0000000000000000e+00 +5.4499999179696168e+00 -2.8098674844127685e-02 -5.5386375019461465e-01 +5.5463054154861417e-03
5.4999999999999885e+00 +8.5381660853891272e+00 +0.0000000000000000e+00 +5.4999999156890613e+00 -2.8100431818399014e-02 -5.5389656697053502e-01 +5.5447982851044150e-03
5.5499999999999883e+00 +8.5381508457100903e+00 +0.0000000000000000e+00 +5.5499999133665670e+00 -2.8102205373070600e-02 -5.5392959422649912e-01 +5.5432959581901645e-03
5.5999999999999881e+00 +8.5381354677976269e+00 +0.0000000000000000e+00 +5.5999999110017491e+00 -2.8103995441664167e-02 -5.5396282917545059e-01 +5.5417985224466776e-03
5.6499999999999879e+00 +8.5381199516434432e+00 +0.0000000000000000e+00 +5.6499999085942223e+00 -2.8105801957702660e-02 -5.5399626903032750e-01 +5.5403060655780396e-03
5.6999999999999877e+00 +8.5381042972391938e+00 +0.0000000000000000e+00 +5.6999999061436029e+00 -2.8107624854710172e-02 -5.5402991100406140e-01 +5.5388186752891051e-03
5.7499999999999876e+00 +8.5380885045764856e+00 +0.0000000000000000e+00 +5.7499999036495053e+00 -2.8109464066211998e-02 -5.5406375230957849e-01 +5.5373364392855388e-03
5.7999999999999874e+00 +8.5380725736468719e+00 +0.0000000000000000e+00 +5.7999999011115442e+00 -2.8111319525734639e-02 -5.5409779015979665e-01 +5.5358594452738132e-03
5.8499999999999872e+00 +8.5380565044418599e+00 +0.0000000000000000e+00 +5.8499998985293349e+00 -2.8113191166805749e-02 -5.5413202176762744e-01 +5.5343877809612332e-03
5.8999999999999870e+00 +8.5380402969529072e+00 +0.0000000000000000e+00 +5.8999998959024920e+00 -2.8115078922954204e-02 -5.5416644434597462e-01 +5.5329215340559424e-03
