# multipoles
# s[mm] polynom_b[n=0][T/m^n] polynom_b[n=1][T/m^n] polynom_b[n=2][T/m^n] polynom_b[n=3][T/m^n] polynom_b[n=4][T/m^n] polynom_b[n=5][T/m^n] polynom_b[n=6][T/m^n] 
+0.0000000000000000e+00 -5.5762562535186089e-01 +7.3223037262468527e+00 +4.3390642228697542e+00 -2.7559822390834224e+01 +1.4160268883508759e+04 -1.3328273175172578e+05 -6.8833400957849309e+07 
-5.0000000000000003e-02 -5.5762606970141393e-01 +7.3223632170586930e+00 +4.3357831671969826e+00 -2.8317991233250861e+01 +1.4193113576964704e+04 -1.2838080114459869e+05 -6.8944492777810752e+07 
-1.0000000000000001e-01 -5.5762685010484969e-01 +7.3224406026883075e+00 +4.3323279574153055e+00 -2.9066895528766572e+01 +1.4220025136745204e+04 -1.2347604303625891e+05 -6.9017388327882946e+07 
-1.5000000000000002e-01 -5.5762796583757823e-01 +7.3225358242717338e+00 +4.3286979477414791e+00 -2.9806583325651644e+01 +1.4241114815677600e+04 -1.1856877766991626e+05 -6.9052934874111995e+07 
-2.0000000000000001e-01 -5.5762941617501882e-01 +7.3226488229486622e+00 +4.3248924920213083e+00 -3.0537102793410615e+01 +1.4256493867433825e+04 -1.1365932430506020e+05 -6.9051979652825922e+07 
-2.5000000000000000e-01 -5.5763120039262104e-01 +7.3227795398564695e+00 +4.3209109459641013e+00 -3.1258501993353914e+01 +1.4266273500999532e+04 -1.0874800303976949e+05 -6.9015369621857539e+07 
-2.9999999999999999e-01 -5.5763331776582514e-01 +7.3229279161309266e+00 +4.3167526615678709e+00 -3.1970828890914134e+01 +1.4270565021268716e+04 -1.0383513479180822e+05 -6.8943952372936755e+07 
-3.4999999999999998e-01 -5.5763576757011890e-01 +7.3230938929144358e+00 +4.3124169960910388e+00 -3.2674131681953170e+01 +1.4269479591973302e+04 -9.8921038644640052e+04 -6.8838574548443168e+07 
-3.9999999999999997e-01 -5.5763854908097199e-01 +7.3232774113433310e+00 +4.3079033009970900e+00 -3.3368458311641099e+01 +1.4263128533457990e+04 -9.4006035656527427e+04 -6.8700083851390883e+07 
-4.4999999999999996e-01 -5.5764166157388673e-01 +7.3234784125596786e+00 +4.3032109309432887e+00 -3.4053856920230125e+01 +1.4251623077872853e+04 -8.9090445343663217e+04 -6.8529327383616537e+07 
-4.9999999999999994e-01 -5.5764510432438053e-01 +7.3236968377007639e+00 +4.2983392407887688e+00 -3.4730375432808373e+01 +1.4235074449302745e+04 -8.4174588979311273e+04 -6.8327152183386967e+07 
-5.4999999999999993e-01 -5.5764887660798335e-01 +7.3239326279087260e+00 +4.2932875845330729e+00 -3.5398061950170138e+01 +1.4213593899276093e+04 -7.9258786375988799e+04 -6.8094405492082253e+07 
-5.9999999999999998e-01 -5.5765297770023925e-01 +7.3241857243224739e+00 +4.2880553163000643e+00 -3.6056964418593019e+01 +1.4187292672464013e+04 -7.4343358623839522e+04 -6.7831934493876129e+07 
-6.5000000000000002e-01 -5.5765740687670595e-01 +7.3244560680841584e+00 +4.2826417901711471e+00 -3.6707130893419112e+01 +1.4156282013116392e+04 -6.9428625908620830e+04 -6.7540586365456238e+07 
-7.0000000000000007e-01 -5.5766216341296360e-01 +7.3247436003346982e+00 +4.2770463611182601e+00 -3.7348609351265431e+01 +1.4120673145428413e+04 -6.4514909087379638e+04 -6.7221208165230513e+07 
-7.5000000000000011e-01 -5.5766724658459166e-01 +7.3250482622163782e+00 +4.2712683821454807e+00 -3.7981447805059240e+01 +1.4080577337165896e+04 -5.9602528697210786e+04 -6.6874647208139524e+07 
-8.0000000000000016e-01 -5.5767265566719271e-01 +7.3253699948688764e+00 +4.2653072069580000e+00 -3.8605694145480150e+01 +1.4036105848140998e+04 -5.4691806265956970e+04 -6.6501750803288817e+07 
-8.5000000000000020e-01 -5.5767838993639862e-01 +7.3257087394360898e+00 +4.2591621923690202e+00 -3.9221396415638324e+01 +1.3987369846536012e+04 -4.9783062033047252e+04 -6.6103365609328456e+07 
-9.0000000000000024e-01 -5.5768444866782496e-01 +7.3260644370604169e+00 +4.2528326899772626e+00 -3.9828602567853835e+01 +1.3934480638813329e+04 -4.4876617031576621e+04 -6.5680339212264009e+07 
-9.5000000000000029e-01 -5.5769083113711682e-01 +7.3264370288859668e+00 +4.2463180534282250e+00 -4.0427360604902432e+01 +1.3877549483720750e+04 -3.9972791860612808e+04 -6.5233518906215347e+07 
-1.0000000000000002e+00 -5.5769753661994714e-01 +7.3268264560541025e+00 +4.2396176392235088e+00 -4.1017718401207290e+01 +1.3816687557054956e+04 -3.5071908141359934e+04 -6.4763751404236913e+07 
-1.0500000000000003e+00 -5.5770456439197447e-01 +7.3272326597081205e+00 +4.2327307990373599e+00 -4.1599723898774073e+01 +1.3752006161563571e+04 -3.0174286901836327e+04 -6.4271884263536878e+07 
-1.1000000000000003e+00 -5.5771191372889639e-01 +7.3276555809929480e+00 +4.2256568883367303e+00 -4.2173425065045834e+01 +1.3683616505232812e+04 -2.5280249039131526e+04 -6.3758764434752084e+07 
-1.1500000000000004e+00 -5.5771958390641740e-01 +7.3280951610526097e+00 +4.2183952618142353e+00 -4.2738869837884842e+01 +1.3611629810270148e+04 -2.0390115572117043e+04 -6.3225238937185824e+07 
-1.2000000000000004e+00 -5.5772757420024188e-01 +7.3285513410311589e+00 +4.2109452717807123e+00 -4.3296106122941090e+01 +1.3536157362615479e+04 -1.5504207829717363e+04 -6.2672155222164825e+07 
-1.2500000000000004e+00 -5.5773588388610640e-01 +7.3290240620738274e+00 +4.2033062731664330e+00 -4.3845181854126999e+01 +1.3457310383175783e+04 -1.0622846901119377e+04 -6.2100360323376603e+07 
-1.3000000000000005e+00 -5.5774451223975396e-01 +7.3295132653250281e+00 +4.1954776206259918e+00 -4.4386144920809663e+01 +1.3375200090407239e+04 -5.7463541978505145e+03 -6.1510701222973734e+07 
-1.3500000000000005e+00 -5.5775345853693525e-01 +7.3300188919310054e+00 +4.1874586666343090e+00 -4.4919043270896722e+01 +1.3289937772455982e+04 -8.7505063293408568e+02 -6.0904025415054247e+07 
-1.4000000000000006e+00 -5.5776272205342103e-01 +7.3305408830363303e+00 +4.1792487659198834e+00 -4.5443924766390587e+01 +1.3201634644262420e+04 +3.9907421965664107e+03 -6.0281179853322566e+07 
-1.4500000000000006e+00 -5.5777230206499639e-01 +7.3310791797890191e+00 +4.1708472723224768e+00 -4.5960837394497879e+01 +1.3110401954673434e+04 +8.8507037393453447e+03 -5.9643011758737229e+07 
-1.5000000000000007e+00 -5.5778219784745831e-01 +7.3316337233312376e+00 +4.1622535403996146e+00 -4.6469828883829067e+01 +1.3016350925698052e+04 +1.3704511330318373e+04 -5.8990368147301391e+07 
-1.5500000000000007e+00 -5.5779240867661040e-01 +7.3322044548130547e+00 +4.1534669227735783e+00 -4.6970947270004309e+01 +1.2919592835719499e+04 +1.8551844844781248e+04 -5.8324096427616082e+07 
-1.6000000000000008e+00 -5.5780293382828161e-01 +7.3327913153802555e+00 +4.1444867745131555e+00 -4.7464240405704558e+01 +1.2820238896978732e+04 +2.3392382706049408e+04 -5.7645043567246243e+07 
-1.6500000000000008e+00 -5.5781377257830267e-01 +7.3333942461793589e+00 +4.1353124490848492e+00 -4.7949756159694545e+01 +1.2718400356668064e+04 +2.8225803501990376e+04 -5.6954056735049985e+07 
-1.7000000000000008e+00 -5.5782492420253171e-01 +7.3340131883580613e+00 +4.1259433016187810e+00 -4.8427542427015638e+01 +1.2614188427893005e+04 +3.3051786029605886e+04 -5.6251982913222261e+07 
-1.7500000000000009e+00 -5.5783638797680757e-01 +7.3346480830626399e+00 +4.1163786821765687e+00 -4.8897647029943244e+01 +1.2507714455213192e+04 +3.7870008506433041e+04 -5.5539669954814836e+07 
-1.8000000000000009e+00 -5.5784816317702968e-01 +7.3352988714445564e+00 +4.1066179492073163e+00 -4.9360118007649440e+01 +1.2399089553732754e+04 +4.2680151041983401e+04 -5.4817964148914404e+07 
-1.8500000000000010e+00 -5.5786024907906751e-01 +7.3359654946461941e+00 +4.0966604535513502e+00 -4.9815002991431108e+01 +1.2288425047691571e+04 +4.7481890318292120e+04 -5.4087713215746403e+07 
-1.9000000000000010e+00 -5.5787264495882638e-01 +7.3366478938210236e+00 +4.0865055500445404e+00 -5.0262350068879812e+01 +1.2175832150036558e+04 +5.2274906868988342e+04 -5.3349764107456684e+07 
-1.9500000000000011e+00 -5.5788535009221840e-01 +7.3373460101137349e+00 +4.0761525924177153e+00 -5.0702206951834775e+01 +1.2061422109013985e+04 +5.7058878147535681e+04 -5.2604964041466810e+07 
-2.0000000000000009e+00 -5.5789836375516033e-01 +7.3380597846756217e+00 +4.0656009333739993e+00 -5.1134621613612559e+01 +1.1945306193039576e+04 +6.1833483807651282e+04 -5.1854160339016154e+07 
-2.0500000000000007e+00 -5.5791168501588528e-01 +7.3387891471492699e+00 +4.0548500452413201e+00 -5.1559654108684420e+01 +1.1827585737455960e+04 +6.6598553643018226e+04 -5.1098096992076434e+07 
-2.1000000000000005e+00 -5.5792531211181451e-01 +7.3395339753655886e+00 +4.0439002022902697e+00 -5.1977395598941499e+01 +1.1708322622276302e+04 +7.1354323118304979e+04 -5.0337107850167021e+07 
-2.1500000000000004e+00 -5.5793924307273801e-01 +7.3402941327637938e+00 +4.0327519820917512e+00 -5.2387941507337104e+01 +1.1587568581189049e+04 +7.6101082346562238e+04 -4.9571422549134493e+07 
-2.2000000000000002e+00 -5.5795347592844036e-01 +7.3410694827787957e+00 +4.0214059592230020e+00 -5.2791387054000744e+01 +1.1465375428215581e+04 +8.0839119692739492e+04 -4.8801271262817465e+07 
-2.2500000000000000e+00 -5.5796800870871921e-01 +7.3418598888463906e+00 +4.0098627094477859e+00 -5.3187827495277503e+01 +1.1341794943249513e+04 +8.5568723880641861e+04 -4.8026883932915069e+07 
-2.2999999999999998e+00 -5.5798283944339033e-01 +7.3426652144029587e+00 +3.9981228092641876e+00 -5.3577358109620370e+01 +1.1216878888523161e+04 +9.0290183863123515e+04 -4.7248490384136088e+07 
-2.3499999999999996e+00 -5.5799796616225694e-01 +7.3434853228870249e+00 +3.9861868316604583e+00 -5.3960074236240231e+01 +1.1090679119792625e+04 +9.5003789026954604e+04 -4.6466321074842110e+07 
-2.3999999999999995e+00 -5.5801338689516378e-01 +7.3443200777348663e+00 +3.9740553552950755e+00 -5.4336071109302004e+01 +1.0963247337580937e+04 +9.9709827896692485e+04 -4.5680605402660191e+07 
-2.4499999999999993e+00 -5.5802909967193370e-01 +7.3451693423848061e+00 +3.9617289533048945e+00 -5.4705444055691935e+01 +1.0834635393334895e+04 +1.0440858984351157e+05 -4.4891573797595896e+07 
-2.4999999999999991e+00 -5.5804510252242123e-01 +7.3460329802722466e+00 +3.9492082024871689e+00 -5.5068288252994030e+01 +1.0704895040459900e+04 +1.0910036293482913e+05 -4.4099456027232416e+07 
-2.5499999999999989e+00 -5.5806139347647710e-01 +7.3469108548377244e+00 +3.9364936779280697e+00 -5.5424699085773078e+01 +1.0574078075067970e+04 +1.1378543697121838e+05 -4.3304482137167282e+07 
-2.5999999999999988e+00 -5.5807797056396835e-01 +7.3478028295175628e+00 +3.9235859558289832e+00 -5.5774771763769905e+01 +1.0442236265150628e+04 +1.1846410035333442e+05 -4.2506881991637707e+07 
-2.6499999999999986e+00 -5.5809483181475283e-01 +7.3487087677520382e+00 +3.9104856091481297e+00 -5.6118601637245696e+01 +1.0309421464564692e+04 +1.2313664258413024e+05 -4.1706886027201355e+07 
-2.6999999999999984e+00 -5.5811197525872647e-01 +7.3496285329793070e+00 +3.8971932162306193e+00 -5.6456283965492098e+01 +1.0175685384421749e+04 +1.2780335244656095e+05 -4.0904723730783582e+07 
-2.7499999999999982e+00 -5.5812939892576963e-01 +7.3505619886376534e+00 +3.8837093512354324e+00 -5.6787914005758935e+01 +1.0041079845486076e+04 +1.3246451871615785e+05 -4.0100625314964607e+07 
-2.7999999999999980e+00 -5.5814710084577712e-01 +7.3515089981669188e+00 +3.8700345897293196e+00 -5.7113587073868530e+01 +9.9056566294766180e+03 +1.3712043065371094e+05 -3.9294820726537503e+07 
-2.8499999999999979e+00 -5.5816507904865498e-01 +7.3524694250060278e+00 +3.8561695073497493e+00 -5.7433398436162527e+01 +9.7694675206627326e+03 +1.4177137710873527e+05 -3.8487539947788000e+07 
-2.8999999999999977e+00 -5.5818333156431621e-01 +7.3534431325955838e+00 +3.8421146800979074e+00 -5.7747443411579361e+01 +9.6325642892579126e+03 +1.4641764733164280e+05 -3.7679012848737627e+07 
-2.9499999999999975e+00 -5.5820185642266995e-01 +7.3544299843758756e+00 +3.8278706817776023e+00 -5.8055817310897758e+01 +9.4949987661488449e+03 +1.5105953053899200e+05 -3.6869469717829958e+07 
-2.9999999999999973e+00 -5.5822065165365298e-01 +7.3554298437844849e+00 +3.8134380901777334e+00 -5.8358615326677700e+01 +9.3568226721985011e+03 +1.5569731499463151e+05 -3.6059140089330554e+07 
-3.0499999999999972e+00 -5.5823971528718508e-01 +7.3564425742666835e+00 +3.7988174782302022e+00 -5.8655932949575401e+01 +9.2180878644676231e+03 +1.6033129135512930e+05 -3.5248254440400489e+07 
-3.0999999999999970e+00 -5.5825904535321391e-01 +7.3574680392597669e+00 +3.7840094233390640e+00 -5.8947865349925941e+01 +9.0788460720056919e+03 +1.6496174770329293e+05 -3.4437042353472635e+07 
-3.1499999999999968e+00 -5.5827863988168069e-01 +7.3585061022038918e+00 +3.7690144999693147e+00 -5.9234507794165772e+01 +8.9391491086605038e+03 +1.6958897284973500e+05 -3.3625734005389735e+07 
-3.1999999999999966e+00 -5.5829849690253941e-01 +7.3595566265425489e+00 +3.7538332840823889e+00 -5.9515955692063109e+01 +8.7990487467658277e+03 +1.7421325682197339e+05 -3.2814559292643558e+07 
-3.2499999999999964e+00 -5.5831861444574882e-01 +7.3606194757176215e+00 +3.7384663514141354e+00 -5.9792304373648648e+01 +8.6585967612314689e+03 +1.7883488896921737e+05 -3.2003748111775618e+07 
-3.2999999999999963e+00 -5.5833899054126868e-01 +7.3616945131689553e+00 +3.7229142764209580e+00 -6.0063649089112104e+01 +8.5178449669684414e+03 +1.8345415800457599e+05 -3.1193530653131697e+07 
-3.3499999999999961e+00 -5.5835962321906962e-01 +7.3627816023393162e+00 +3.7071776354850186e+00 -6.0330085190772877e+01 +8.3768451180862612e+03 +1.8807135343180661e+05 -3.0384136664925557e+07 
-3.3999999999999959e+00 -5.5838051050912207e-01 +7.3638806066698974e+00 +3.6912570028980101e+00 -6.0591707973276073e+01 +8.2356490329760873e+03 +1.9268676432361358e+05 -2.9575796358095665e+07 
-3.4499999999999957e+00 -5.5840165044141288e-01 +7.3649913896062902e+00 +3.6751529547724080e+00 -6.0848612897038862e+01 +8.0943084821580642e+03 +1.9730068106207775e+05 -2.8768739623136450e+07 
-3.4999999999999956e+00 -5.5842304104593099e-01 +7.3661138145877931e+00 +3.6588660680366751e+00 -6.1100895168885259e+01 +7.9528752028578392e+03 +2.0191339197628421e+05 -2.7963196088608332e+07 
-3.5499999999999954e+00 -5.5844468035266204e-01 +7.3672477450579619e+00 +3.6423969169840191e+00 -6.1348650162332149e+01 +7.8114010132704034e+03 +2.0652518674979889e+05 -2.7159395965118900e+07 
-3.5999999999999952e+00 -5.5846656639159165e-01 +7.3683930444592143e+00 +3.6257460754021995e+00 -6.1591973202444940e+01 +7.6699377434787157e+03 +2.1113635465531584e+05 -2.6357569539165329e+07 
-3.6499999999999950e+00 -5.5848869719273819e-01 +7.3695495762379508e+00 +3.6089141220391525e+00 -6.1830959775883805e+01 +7.5285370857721064e+03 +2.1574718629812720e+05 -2.5557946147845801e+07 
-3.6999999999999948e+00 -5.5851107078609730e-01 +7.3707172038342099e+00 +3.5919016307211047e+00 -6.2065705097708296e+01 +7.3872508711007231e+03 +2.2035797000971084e+05 -2.4760756091813665e+07 
-3.7499999999999947e+00 -5.5853368520167512e-01 +7.3718957906935731e+00 +3.5747091768557224e+00 -6.2296304614224269e+01 +7.2461308811731305e+03 +2.2496899604399930e+05 -2.3966229314346157e+07 
-3.7999999999999945e+00 -5.5855653846948250e-01 +7.3730852002595695e+00 +3.5573373355678362e+00 -6.2522853685922463e+01 +7.1052289073743241e+03 +2.2958055393363236e+05 -2.3174595829389457e+07 
-3.8499999999999943e+00 -5.5857962861954291e-01 +7.3742852959758753e+00 +3.5397866837303140e+00 -6.2745447673333835e+01 +6.9645966965739353e+03 +2.3419293319469411e+05 -2.2386085364450146e+07 
-3.8999999999999941e+00 -5.5860295368187041e-01 +7.3754959412898042e+00 +3.5220577955214503e+00 -6.2964182085494194e+01 +6.8242860671225662e+03 +2.3880642455143385e+05 -2.1600928122086529e+07 
-3.9499999999999940e+00 -5.5862651168649025e-01 +7.3767169996407942e+00 +3.5041512470969054e+00 -6.3179152115248428e+01 +6.6843487814273176e+03 +2.4342131615015131e+05 -2.0819353919810325e+07 
-3.9999999999999938e+00 -5.5865030066342924e-01 +7.3779483344789707e+00 +3.4860676138206848e+00 -6.3390453373709711e+01 +6.5448366266057174e+03 +2.4803789952726520e+05 -2.0041592751108434e+07 
-4.0499999999999936e+00 -5.5867431855464189e-01 +7.3791898033329293e+00 +3.4678080657237285e+00 -6.3598018999196341e+01 +6.4057920402001128e+03 +2.5265509764797863e+05 -1.9267833028098378e+07 
-4.0999999999999934e+00 -5.5869856294931897e-01 +7.3804412351500481e+00 +3.4493764059658836e+00 -6.3801146625995415e+01 +6.2672142029685574e+03 +2.5726647650009140e+05 -1.8498043604691502e+07 
-4.1499999999999932e+00 -5.5872303134840895e-01 +7.3817024504787776e+00 +3.4307771872223269e+00 -6.3998977647105029e+01 +6.1290897560422482e+03 +2.6186427767608862e+05 -1.7732123431378245e+07 
-4.1999999999999931e+00 -5.5874772125283045e-01 +7.3829732698677297e+00 +3.4120149575654057e+00 -6.4190653477795635e+01 +5.9914054539000090e+03 +2.6644074292962288e+05 -1.6969972170722663e+07 
-4.2499999999999929e+00 -5.5877263016351142e-01 +7.3842535138658185e+00 +3.3930942660252965e+00 -6.4375315538488351e+01 +5.8541480282508419e+03 +2.7098811401471036e+05 -1.6211489339994891e+07 
-4.2999999999999927e+00 -5.5879775558139444e-01 +7.3855430030198308e+00 +3.3740196642730660e+00 -6.4552105180815119e+01 +5.7173041403194256e+03 +2.7549863216461806e+05 -1.5456573982191849e+07 
-4.3499999999999925e+00 -5.5882309500739635e-01 +7.3868415578792037e+00 +3.3547956993222039e+00 -6.4720163864516365e+01 +5.5808605714002115e+03 +2.7996453948680399e+05 -1.4705125922437243e+07 
-4.3999999999999924e+00 -5.5884864594244676e-01 +7.3881489989891067e+00 +3.3354269200926323e+00 -6.4878632879666227e+01 +5.4448040555842790e+03 +2.8437807668585057e+05 -1.3957044680196293e+07 
-4.4499999999999922e+00 -5.5887440588746096e-01 +7.3894651469005934e+00 +3.3159178733279941e+00 -6.5026653760781926e+01 +5.3091213794237856e+03 +2.8873148646935815e+05 -1.3212230102279074e+07 
-4.4999999999999920e+00 -5.5890037234338896e-01 +7.3907898221581050e+00 +3.2962731114904273e+00 -6.5163367777771285e+01 +5.1737991794965965e+03 +2.9301700936167542e+05 -1.2470581032564240e+07 
-4.5499999999999918e+00 -5.5892654281113119e-01 +7.3921228453108583e+00 +3.2764971787623947e+00 -6.5287916405545303e+01 +5.0388243086197317e+03 +2.9722688758639345e+05 -1.1731997744980954e+07 
-4.5999999999999917e+00 -5.5895291479161735e-01 +7.3934640369051099e+00 +3.2565946244231938e+00 -6.5399441000874560e+01 +4.9041834846144529e+03 +3.0135336238210928e+05 -1.0996379607352480e+07 
-4.6499999999999915e+00 -5.5897948578576295e-01 +7.3948132174864574e+00 +3.2365699952017346e+00 -6.5497082909378634e+01 +4.7698634930591097e+03 +3.0538867491262453e+05 -1.0263626435169140e+07 
-4.6999999999999913e+00 -5.5900625329448439e-01 +7.3961702076024141e+00 +3.2164278382658344e+00 -6.5579983544501161e+01 +4.6358511046426065e+03 +3.0932506683559529e+05 -9.5336379258337934e+06 
-4.7499999999999911e+00 -5.5903321481869195e-01 +7.3975348278003308e+00 +3.1961726999256119e+00 -6.5647284345723520e+01 +4.5021331145197692e+03 +3.1315478011632105e+05 -8.8063139449448027e+06 
-4.7999999999999909e+00 -5.5906036785930524e-01 +7.3989068986248494e+00 +3.1758091285911689e+00 -6.5698126620522245e+01 +4.3686962551924562e+03 +3.1687005550513876e+05 -8.0815539045629455e+06 
-4.8499999999999908e+00 -5.5908770991722234e-01 +7.4002862406208623e+00 +3.1553416686676146e+00 -6.5731651723572881e+01 +4.2355273716434031e+03 +3.2046313425473648e+05 -7.3592579868898112e+06 
-4.8999999999999906e+00 -5.5911523849334965e-01 +7.4016726743355861e+00 +3.1347748668986197e+00 -6.5747001092586089e+01 +4.1026132392341942e+03 +3.2392625821123755e+05 -6.6393258773802603e+06 
-4.9499999999999904e+00 -5.5914295108858203e-01 +7.4030660203130738e+00 +3.1141132678970416e+00 -6.5743316066115796e+01 +3.9699406941766561e+03 +3.2725166847850848e+05 -5.9216576759470720e+06 
-4.9999999999999902e+00 -5.5917084520381788e-01 +7.4044660990985021e+00 +3.0933614178300388e+00 -6.5719738017261108e+01 +3.8374965240246756e+03 +3.3043160635870579e+05 -5.2061531255933810e+06 
-5.0499999999999901e+00 -5.5919891833995650e-01 +7.4058727312361432e+00 +3.0725238626608253e+00 -6.5675408313892518e+01 +3.7052675274807384e+03 +3.3345831318590941e+05 -4.4927120562372366e+06 
