# field on trajectory
# s[mm] rx[mm] ry[mm] rz[mm] bx[T] by[T] bz[T]
0.0000000000000000e+00 +8.3650000000000002e+00 +0.0000000000000000e+00 +0.0000000000000000e+00 -2.9232066929385528e-02 -5.5612224014152534e-01 +5.7067980163138599e-03
-5.0000000000000003e-02 +8.3649999307683540e+00 +0.0000000000000000e+00 -4.9999999999936096e-02 -2.9232176185858126e-02 -5.5612182545223898e-01 +5.7068386134846352e-03
-1.0000000000000001e-01 +8.3649997230734723e+00 +0.0000000000000000e+00 -9.9999999999488748e-02 -2.9232298259823292e-02 -5.5612174898921563e-01 +5.7068798622449705e-03
-1.5000000000000002e-01 +8.3649993769153728e+00 +0.0000000000000000e+00 -1.4999999999827451e-01 -2.9232433399953680e-02 -5.5612201022193919e-01 +5.7069217294941285e-03
-2.0000000000000001e-01 +8.3649988922939897e+00 +0.0000000000000000e+00 -1.9999999999590995e-01 -2.9232581854922217e-02 -5.5612260861990970e-01 +5.7069641821314351e-03
-2.5000000000000000e-01 +8.3649982692091758e+00 +0.0000000000000000e+00 -2.4999999999201161e-01 -2.9232743873402123e-02 -5.5612354365264194e-01 +5.7070071870562429e-03
-2.9999999999999999e-01 +8.3649975076606964e+00 +0.0000000000000000e+00 -2.9999999998619609e-01 -2.9232919704067002e-02 -5.5612481478966624e-01 +5.7070507111679656e-03
-3.4999999999999998e-01 +8.3649966076482372e+00 +0.0000000000000000e+00 -3.4999999997807990e-01 -2.9233109595590910e-02 -5.5612642150052882e-01 +5.7070947213660600e-03
-3.9999999999999997e-01 +8.3649955691713966e+00 +0.0000000000000000e+00 -3.9999999996727958e-01 -2.9233313796648334e-02 -5.5612836325479031e-01 +5.7071391845500332e-03
-4.4999999999999996e-01 +8.3649943922296917e+00 +0.0000000000000000e+00 -4.4999999995341167e-01 -2.9233532555914377e-02 -5.5613063952202757e-01 +5.7071840676194488e-03
-4.9999999999999994e-01 +8.3649930768225556e+00 +0.0000000000000000e+00 -4.9999999993609273e-01 -2.9233766122064686e-02 -5.5613324977183332e-01 +5.7072293374739310e-03
-5.4999999999999993e-01 +8.3649916229493382e+00 +0.0000000000000000e+00 -5.4999999991493931e-01 -2.9234014743775575e-02 -5.5613619347381404e-01 +5.7072749610131510e-03
-5.9999999999999998e-01 +8.3649900306093077e+00 +0.0000000000000000e+00 -5.9999999988956787e-01 -2.9234278669724108e-02 -5.5613947009759401e-01 +5.7073209051368553e-03
-6.5000000000000002e-01 +8.3649882998016469e+00 +0.0000000000000000e+00 -6.4999999985959489e-01 -2.9234558148588045e-02 -5.5614307911281102e-01 +5.7073671367448434e-03
-7.0000000000000007e-01 +8.3649864305254589e+00 +0.0000000000000000e+00 -6.9999999982463701e-01 -2.9234853429046050e-02 -5.5614701998911964e-01 +5.7074136227369841e-03
-7.5000000000000011e-01 +8.3649844227797612e+00 +0.0000000000000000e+00 -7.4999999978431053e-01 -2.9235164759777634e-02 -5.5615129219618942e-01 +5.7074603300132122e-03
-8.0000000000000016e-01 +8.3649822765634898e+00 +0.0000000000000000e+00 -7.9999999973823210e-01 -2.9235492389463231e-02 -5.5615589520370556e-01 +5.7075072254735371e-03
-8.5000000000000020e-01 +8.3649799918755008e+00 +0.0000000000000000e+00 -8.4999999968601814e-01 -2.9235836566784308e-02 -5.5616082848136872e-01 +5.7075542760180384e-03
-9.0000000000000024e-01 +8.3649775687145631e+00 +0.0000000000000000e+00 -8.9999999962728505e-01 -2.9236197540423357e-02 -5.5616609149889606e-01 +5.7076014485468642e-03
-9.5000000000000029e-01 +8.3649750070793676e+00 +0.0000000000000000e+00 -9.4999999956164927e-01 -2.9236575559063990e-02 -5.5617168372601888e-01 +5.7076487099602530e-03
-1.0000000000000002e+00 +8.3649723069685233e+00 +0.0000000000000000e+00 -9.9999999948872731e-01 -2.9236970871390957e-02 -5.5617760463248489e-01 +5.7076960271585063e-03
-1.0500000000000003e+00 +8.3649694683805542e+00 +0.0000000000000000e+00 -1.0499999994081355e+00 -2.9237383726090270e-02 -5.5618385368805756e-01 +5.7077433670420195e-03
-1.1000000000000003e+00 +8.3649664913139059e+00 +0.0000000000000000e+00 -1.0999999993194902e+00 -2.9237814371849205e-02 -5.5619043036251603e-01 +5.7077906965112661e-03
-1.1500000000000004e+00 +8.3649633757669388e+00 +0.0000000000000000e+00 -1.1499999992224079e+00 -2.9238263057356370e-02 -5.5619733412565509e-01 +5.7078379824668122e-03
-1.2000000000000004e+00 +8.3649601217379370e+00 +0.0000000000000000e+00 -1.1999999991165049e+00 -2.9238730031301754e-02 -5.5620456444728428e-01 +5.7078851918093030e-03
-1.2500000000000004e+00 +8.3649567292250975e+00 +0.0000000000000000e+00 -1.2499999990013975e+00 -2.9239215542376799e-02 -5.5621212079723048e-01 +5.7079322914394756e-03
-1.3000000000000005e+00 +8.3649531982265408e+00 +0.0000000000000000e+00 -1.2999999988767019e+00 -2.9239719839274470e-02 -5.5622000264533511e-01 +5.7079792482581720e-03
-1.3500000000000005e+00 +8.3649495287403042e+00 +0.0000000000000000e+00 -1.3499999987420346e+00 -2.9240243170689271e-02 -5.5622820946145590e-01 +5.7080260291663141e-03
-1.4000000000000006e+00 +8.3649457207643430e+00 +0.0000000000000000e+00 -1.3999999985970117e+00 -2.9240785785317313e-02 -5.5623674071546580e-01 +5.7080726010649303e-03
-1.4500000000000006e+00 +8.3649417742965344e+00 +0.0000000000000000e+00 -1.4499999984412497e+00 -2.9241347931856430e-02 -5.5624559587725453e-01 +5.7081189308551446e-03
-1.5000000000000007e+00 +8.3649376893346741e+00 +0.0000000000000000e+00 -1.4999999982743646e+00 -2.9241929859006123e-02 -5.5625477441672655e-01 +5.7081649854381876e-03
-1.5500000000000007e+00 +8.3649334658764758e+00 +0.0000000000000000e+00 -1.5499999980959727e+00 -2.9242531815467730e-02 -5.5626427580380233e-01 +5.7082107317153906e-03
-1.6000000000000008e+00 +8.3649291039195752e+00 +0.0000000000000000e+00 -1.5999999979056900e+00 -2.9243154049944410e-02 -5.5627409950841911e-01 +5.7082561365881905e-03
-1.6500000000000008e+00 +8.3649246034615246e+00 +0.0000000000000000e+00 -1.6499999977031328e+00 -2.9243796811141223e-02 -5.5628424500052875e-01 +5.7083011669581425e-03
-1.7000000000000008e+00 +8.3649199644997996e+00 +0.0000000000000000e+00 -1.6999999974879172e+00 -2.9244460347765195e-02 -5.5629471175009981e-01 +5.7083457897268977e-03
-1.7500000000000009e+00 +8.3649151870317944e+00 +0.0000000000000000e+00 -1.7499999972596592e+00 -2.9245144908525346e-02 -5.5630549922711614e-01 +5.7083899717962315e-03
-1.8000000000000009e+00 +8.3649102710548213e+00 +0.0000000000000000e+00 -1.7999999970179750e+00 -2.9245850742132783e-02 -5.5631660690157814e-01 +5.7084336800680346e-03
-1.8500000000000010e+00 +8.3649052165661164e+00 +0.0000000000000000e+00 -1.8499999967624805e+00 -2.9246578097300736e-02 -5.5632803424350163e-01 +5.7084768814443148e-03
-1.9000000000000010e+00 +8.3649000235628339e+00 +0.0000000000000000e+00 -1.8999999964927916e+00 -2.9247327222744628e-02 -5.5633978072291868e-01 +5.7085195428271951e-03
-1.9500000000000011e+00 +8.3648946920420499e+00 +0.0000000000000000e+00 -1.9499999962085244e+00 -2.9248098367182070e-02 -5.5635184580987718e-01 +5.7085616311189271e-03
-2.0000000000000009e+00 +8.3648892220007607e+00 +0.0000000000000000e+00 -1.9999999959092949e+00 -2.9248891779333038e-02 -5.5636422897444060e-01 +5.7086031132218889e-03
-2.0500000000000007e+00 +8.3648836134358824e+00 +0.0000000000000000e+00 -2.0499999955947188e+00 -2.9249707618810052e-02 -5.5637692946381978e-01 +5.7086439633580064e-03
-2.1000000000000005e+00 +8.3648778663442531e+00 +0.0000000000000000e+00 -2.0999999952644122e+00 -2.9250545688788116e-02 -5.5638994563376087e-01 +5.7086841850269932e-03
-2.1500000000000004e+00 +8.3648719807226311e+00 +0.0000000000000000e+00 -2.1499999949179909e+00 -2.9251405703333070e-02 -5.5640327561715219e-01 +5.7087237890479777e-03
-2.2000000000000002e+00 +8.3648659565676979e+00 +0.0000000000000000e+00 -2.1999999945550703e+00 -2.9252287376511119e-02 -5.5641691754689449e-01 +5.7087627862400505e-03
-2.2500000000000000e+00 +8.3648597938760592e+00 +0.0000000000000000e+00 -2.2499999941752669e+00 -2.9253190422388838e-02 -5.5643086955589804e-01 +5.7088011874222629e-03
-2.2999999999999998e+00 +8.3648534926442384e+00 +0.0000000000000000e+00 -2.2999999937781954e+00 -2.9254114555033031e-02 -5.5644512977708505e-01 +5.7088390034136039e-03
-2.3499999999999996e+00 +8.3648470528686865e+00 +0.0000000000000000e+00 -2.3499999933634723e+00 -2.9255059488510780e-02 -5.5645969634338766e-01 +5.7088762450330172e-03
-2.3999999999999995e+00 +8.3648404745457778e+00 +0.0000000000000000e+00 -2.3999999929307130e+00 -2.9256024936889280e-02 -5.5647456738774836e-01 +5.7089129230993721e-03
-2.4499999999999993e+00 +8.3648337576718088e+00 +0.0000000000000000e+00 -2.4499999924795328e+00 -2.9257010614235815e-02 -5.5648974104312021e-01 +5.7089490484314729e-03
-2.4999999999999991e+00 +8.3648269022430011e+00 +0.0000000000000000e+00 -2.4999999920095477e+00 -2.9258016234617722e-02 -5.5650521544246523e-01 +5.7089846318480377e-03
-2.5499999999999989e+00 +8.3648199082555017e+00 +0.0000000000000000e+00 -2.5499999915203730e+00 -2.9259041512102280e-02 -5.5652098871875544e-01 +5.7090196841676991e-03
-2.5999999999999988e+00 +8.3648127757053850e+00 +0.0000000000000000e+00 -2.5999999910116243e+00 -2.9260086160756715e-02 -5.5653705900497241e-01 +5.7090542162089950e-03
-2.6499999999999986e+00 +8.3648055045886487e+00 +0.0000000000000000e+00 -2.6499999904829168e+00 -2.9261149894648064e-02 -5.5655342443410605e-01 +5.7090882387903705e-03
-2.6999999999999984e+00 +8.3647980949012180e+00 +0.0000000000000000e+00 -2.6999999899338660e+00 -2.9262232427843163e-02 -5.5657008313915568e-01 +5.7091217627301466e-03
-2.7499999999999982e+00 +8.3647905466389467e+00 +0.0000000000000000e+00 -2.7499999893640874e+00 -2.9263333474408567e-02 -5.5658703325312908e-01 +5.7091547988465429e-03
-2.7999999999999980e+00 +8.3647828597976144e+00 +0.0000000000000000e+00 -2.7999999887731959e+00 -2.9264452748410497e-02 -5.5660427290904191e-01 +5.7091873579576437e-03
-2.8499999999999979e+00 +8.3647750343729275e+00 +0.0000000000000000e+00 -2.8499999881608074e+00 -2.9265589963914762e-02 -5.5662180023991825e-01 +5.7092194508814144e-03
-2.8999999999999977e+00 +8.3647670703605232e+00 +0.0000000000000000e+00 -2.8999999875265363e+00 -2.9266744834986751e-02 -5.5663961337879031e-01 +5.7092510884356757e-03
-2.9499999999999975e+00 +8.3647589677559662e+00 +0.0000000000000000e+00 -2.9499999868699982e+00 -2.9267917075691249e-02 -5.5665771045869672e-01 +5.7092822814381033e-03
-2.9999999999999973e+00 +8.3647507265547514e+00 +0.0000000000000000e+00 -2.9999999861908080e+00 -2.9269106400092552e-02 -5.5667608961268478e-01 +5.7093130407062254e-03
-3.0499999999999972e+00 +8.3647423467523012e+00 +0.0000000000000000e+00 -3.0499999854885811e+00 -2.9270312522254243e-02 -5.5669474897380788e-01 +5.7093433770574039e-03
-3.0999999999999970e+00 +8.3647338283439723e+00 +0.0000000000000000e+00 -3.0999999847629320e+00 -2.9271535156239231e-02 -5.5671368667512655e-01 +5.7093733013088453e-03
-3.1499999999999968e+00 +8.3647251713250483e+00 +0.0000000000000000e+00 -3.1499999840134763e+00 -2.9272774016109632e-02 -5.5673290084970795e-01 +5.7094028242775739e-03
-3.1999999999999966e+00 +8.3647163756907457e+00 +0.0000000000000000e+00 -3.1999999832398283e+00 -2.9274028815926761e-02 -5.5675238963062534e-01 +5.7094319567804327e-03
-3.2499999999999964e+00 +8.3647074414362113e+00 +0.0000000000000000e+00 -3.2499999824416030e+00 -2.9275299269750994e-02 -5.5677215115095824e-01 +5.7094607096340811e-03
-3.2999999999999963e+00 +8.3646983685565264e+00 +0.0000000000000000e+00 -3.2999999816184156e+00 -2.9276585091641820e-02 -5.5679218354379190e-01 +5.7094890936549778e-03
-3.3499999999999961e+00 +8.3646891570467030e+00 +0.0000000000000000e+00 -3.3499999807698804e+00 -2.9277885995657647e-02 -5.5681248494221680e-01 +5.7095171196593856e-03
-3.3999999999999959e+00 +8.3646798069016857e+00 +0.0000000000000000e+00 -3.3999999798956124e+00 -2.9279201695855846e-02 -5.5683305347932943e-01 +5.7095447984633532e-03
-3.4499999999999957e+00 +8.3646703181163549e+00 +0.0000000000000000e+00 -3.4499999789952258e+00 -2.9280531906292668e-02 -5.5685388728823093e-01 +5.7095721408827148e-03
-3.4999999999999956e+00 +8.3646606906855219e+00 +0.0000000000000000e+00 -3.4999999780683355e+00 -2.9281876341023090e-02 -5.5687498450202710e-01 +5.7095991577330750e-03
-3.5499999999999954e+00 +8.3646509246039358e+00 +0.0000000000000000e+00 -3.5499999771145561e+00 -2.9283234714100905e-02 -5.5689634325382842e-01 +5.7096258598298135e-03
-3.5999999999999952e+00 +8.3646410198662764e+00 +0.0000000000000000e+00 -3.5999999761335015e+00 -2.9284606739578556e-02 -5.5691796167675001e-01 +5.7096522579880666e-03
-3.6499999999999950e+00 +8.3646309764671631e+00 +0.0000000000000000e+00 -3.6499999751247869e+00 -2.9285992131507073e-02 -5.5693983790391066e-01 +5.7096783630227240e-03
-3.6999999999999948e+00 +8.3646207944011497e+00 +0.0000000000000000e+00 -3.6999999740880263e+00 -2.9287390603936096e-02 -5.5696197006843273e-01 +5.7097041857484309e-03
-3.7499999999999947e+00 +8.3646104736627240e+00 +0.0000000000000000e+00 -3.7499999730228337e+00 -2.9288801870913699e-02 -5.5698435630344290e-01 +5.7097297369795574e-03
-3.7999999999999945e+00 +8.3646000142463137e+00 +0.0000000000000000e+00 -3.7999999719288238e+00 -2.9290225646486451e-02 -5.5700699474207094e-01 +5.7097550275302224e-03
-3.8499999999999943e+00 +8.3645894161462824e+00 +0.0000000000000000e+00 -3.8499999708056105e+00 -2.9291661644699239e-02 -5.5702988351744909e-01 +5.7097800682142548e-03
-3.8999999999999941e+00 +8.3645786793569314e+00 +0.0000000000000000e+00 -3.8999999696528080e+00 -2.9293109579595265e-02 -5.5705302076271301e-01 +5.7098048698452069e-03
-3.9499999999999940e+00 +8.3645678038725002e+00 +0.0000000000000000e+00 -3.9499999684700304e+00 -2.9294569165216021e-02 -5.5707640461100094e-01 +5.7098294432363509e-03
-3.9999999999999938e+00 +8.3645567896871658e+00 +0.0000000000000000e+00 -3.9999999672568918e+00 -2.9296040115601107e-02 -5.5710003319545298e-01 +5.7098537992006475e-03
-4.0499999999999936e+00 +8.3645456367950466e+00 +0.0000000000000000e+00 -4.0499999660130053e+00 -2.9297522171756372e-02 -5.5712390457121186e-01 +5.7098779404047241e-03
-4.0999999999999934e+00 +8.3645343451901990e+00 +0.0000000000000000e+00 -4.0999999647379859e+00 -2.9299015182559156e-02 -5.5714801648142276e-01 +5.7099018369308032e-03
-4.1499999999999932e+00 +8.3645229148666189e+00 +0.0000000000000000e+00 -4.1499999634314468e+00 -2.9300519023855914e-02 -5.5717236659123270e-01 +5.7099254507150246e-03
-4.1999999999999931e+00 +8.3645113458182436e+00 +0.0000000000000000e+00 -4.1999999620930017e+00 -2.9302033571494308e-02 -5.5719695256579083e-01 +5.7099487436935315e-03
-4.2499999999999929e+00 +8.3644996380389518e+00 +0.0000000000000000e+00 -4.2499999607222652e+00 -2.9303558701323267e-02 -5.5722177207024748e-01 +5.7099716778024907e-03
-4.2999999999999927e+00 +8.3644877915225653e+00 +0.0000000000000000e+00 -4.2999999593188498e+00 -2.9305094289193055e-02 -5.5724682276975479e-01 +5.7099942149780860e-03
-4.3499999999999925e+00 +8.3644758062628473e+00 +0.0000000000000000e+00 -4.3499999578823694e+00 -2.9306640210955220e-02 -5.5727210232946645e-01 +5.7100163171565198e-03
-4.3999999999999924e+00 +8.3644636822535023e+00 +0.0000000000000000e+00 -4.3999999564124375e+00 -2.9308196342462744e-02 -5.5729760841453635e-01 +5.7100379462740177e-03
-4.4499999999999922e+00 +8.3644514194881801e+00 +0.0000000000000000e+00 -4.4499999549086668e+00 -2.9309762559569963e-02 -5.5732333869011963e-01 +5.7100590642668366e-03
-4.4999999999999920e+00 +8.3644390179604748e+00 +0.0000000000000000e+00 -4.4999999533706720e+00 -2.9311338738132693e-02 -5.5734929082137197e-01 +5.7100796330712541e-03
-4.5499999999999918e+00 +8.3644264776639261e+00 +0.0000000000000000e+00 -4.5499999517980658e+00 -2.9312924754008193e-02 -5.5737546247344905e-01 +5.7100996146235861e-03
-4.5999999999999917e+00 +8.3644137985920164e+00 +0.0000000000000000e+00 -4.5999999501904609e+00 -2.9314520483055280e-02 -5.5740185131150699e-01 +5.7101189708601806e-03
-4.6499999999999915e+00 +8.3644009807381767e+00 +0.0000000000000000e+00 -4.6499999485474710e+00 -2.9316125801134275e-02 -5.5742845500070115e-01 +5.7101376637174253e-03
-4.6999999999999913e+00 +8.3643880240957831e+00 +0.0000000000000000e+00 -4.6999999468687088e+00 -2.9317740584107129e-02 -5.5745527120618732e-01 +5.7101556551317420e-03
-4.7499999999999911e+00 +8.3643749286581581e+00 +0.0000000000000000e+00 -4.7499999451537880e+00 -2.9319364707837362e-02 -5.5748229759311996e-01 +5.7101729070396009e-03
-4.7999999999999909e+00 +8.3643616944185748e+00 +0.0000000000000000e+00 -4.7999999434023213e+00 -2.9320998048190175e-02 -5.5750953182665208e-01 +5.7101893813775104e-03
-4.8499999999999908e+00 +8.3643483213702510e+00 +0.0000000000000000e+00 -4.8499999416139206e+00 -2.9322640481032482e-02 -5.5753697157193749e-01 +5.7102050400820370e-03
-4.8999999999999906e+00 +8.3643348095063548e+00 +0.0000000000000000e+00 -4.8999999397881995e+00 -2.9324291882232883e-02 -5.5756461449412686e-01 +5.7102198450897862e-03
-4.9499999999999904e+00 +8.3643211588200046e+00 +0.0000000000000000e+00 -4.9499999379247708e+00 -2.9325952127661755e-02 -5.5759245825836978e-01 +5.7102337583374288e-03
-4.9999999999999902e+00 +8.3643073693042673e+00 +0.0000000000000000e+00 -4.9999999360232472e+00 -2.9327621093191265e-02 -5.5762050052981438e-01 +5.7102467417616803e-03
-5.0499999999999901e+00 +8.3642934409521619e+00 +0.0000000000000000e+00 -5.0499999340832415e+00 -2.9329298654695430e-02 -5.5764873897360656e-01 +5.7102587572993241e-03
-5.0999999999999899e+00 +8.3642793737566574e+00 +0.0000000000000000e+00 -5.0999999321043656e+00 -2.9330984688050132e-02 -5.5767717125488936e-01 +5.7102697668872018e-03
-5.1499999999999897e+00 +8.3642651677106752e+00 +0.0000000000000000e+00 -5.1499999300862322e+00 -2.9332679069133127e-02 -5.5770579503880457e-01 +5.7102797324622189e-03
-5.1999999999999895e+00 +8.3642508228070884e+00 +0.0000000000000000e+00 -5.1999999280284532e+00 -2.9334381673824142e-02 -5.5773460799049002e-01 +5.7102886159613444e-03
-5.2499999999999893e+00 +8.3642363390387224e+00 +0.0000000000000000e+00 -5.2499999259306414e+00 -2.9336092378004854e-02 -5.5776360777508138e-01 +5.7102963793216254e-03
-5.2999999999999892e+00 +8.3642217163983581e+00 +0.0000000000000000e+00 -5.2999999237924094e+00 -2.9337811057558973e-02 -5.5779279205771015e-01 +5.7103029844801766e-03
-5.3499999999999890e+00 +8.3642069548787283e+00 +0.0000000000000000e+00 -5.3499999216133682e+00 -2.9339537588372207e-02 -5.5782215850350536e-01 +5.7103083933741855e-03
-5.3999999999999888e+00 +8.3641920544725235e+00 +0.0000000000000000e+00 -5.3999999193931307e+00 -2.9341271846332402e-02 -5.5785170477759238e-01 +5.7103125679409204e-03
-5.4499999999999886e+00 +8.3641770151723858e+00 +0.0000000000000000e+00 -5.4499999171313087e+00 -2.9343013707329491e-02 -5.5788142854509160e-01 +5.7103154701177309e-03
-5.4999999999999885e+00 +8.3641618369709150e+00 +0.0000000000000000e+00 -5.4999999148275149e+00 -2.9344763047255553e-02 -5.5791132747112027e-01 +5.7103170618420492e-03
-5.5499999999999883e+00 +8.3641465198606664e+00 +0.0000000000000000e+00 -5.5499999124813604e+00 -2.9346519742004834e-02 -5.5794139922079078e-01 +5.7103173050513916e-03
-5.5999999999999881e+00 +8.3641310638341544e+00 +0.0000000000000000e+00 -5.5999999100924569e+00 -2.9348283667473857e-02 -5.5797164145921130e-01 +5.7103161616833664e-03
-5.6499999999999879e+00 +8.3641154688838490e+00 +0.0000000000000000e+00 -5.6499999076604164e+00 -2.9350054699561357e-02 -5.5800205185148444e-01 +5.7103135936756744e-03
-5.6999999999999877e+00 +8.3640997350021777e+00 +0.0000000000000000e+00 -5.6999999051848498e+00 -2.9351832714168372e-02 -5.5803262806270859e-01 +5.7103095629661045e-03
-5.7499999999999876e+00 +8.3640838621815288e+00 +0.0000000000000000e+00 -5.7499999026653690e+00 -2.9353617587198278e-02 -5.5806336775797638e-01 +5.7103040314925467e-03
-5.7999999999999874e+00 +8.3640678504142496e+00 +0.0000000000000000e+00 -5.7999999001015858e+00 -2.9355409194556783e-02 -5.5809426860237454e-01 +5.7102969611929934e-03
-5.8499999999999872e+00 +8.3640516996926451e+00 +0.0000000000000000e+00 -5.8499998974931113e+00 -2.9357207412152017e-02 -5.5812532826098449e-01 +5.7102883140055299e-03
