# field on trajectory
# s[mm] rx[mm] ry[mm] rz[mm] bx[T] by[T] bz[T]
0.0000000000000000e+00 +8.5389999999999997e+00 +0.0000000000000000e+00 +0.0000000000000000e+00 -2.8186481205667566e-02 -5.5160412696392325e-01 +5.7045425029010766e-03
5.0000000000000003e-02 +8.5389999308697071e+00 +0.0000000000000000e+00 +4.9999999999936290e-02 -2.8186272567559296e-02 -5.5160577964402480e-01 +5.7052021951506729e-03
1.0000000000000001e-01 +8.5389997234785362e+00 +0.0000000000000000e+00 +9.9999999999490247e-02 -2.8186082605214838e-02 -5.5160778691651180e-01 +5.7058596558584298e-03
1.5000000000000002e-01 +8.5389993778259861e+00 +0.0000000000000000e+00 +1.4999999999827957e-01 -2.8185911253288749e-02 -5.5161014807782316e-01 +5.7065148447585350e-03
2.0000000000000001e-01 +8.5389988939114634e+00 +0.0000000000000000e+00 +1.9999999999592191e-01 -2.8185758446436029e-02 -5.5161286242441332e-01 +5.7071677215850226e-03
2.5000000000000000e-01 +8.5389982717342878e+00 +0.0000000000000000e+00 +2.4999999999203495e-01 -2.8185624119312167e-02 -5.5161592925275404e-01 +5.7078182460717662e-03
2.9999999999999999e-01 +8.5389975112936920e+00 +0.0000000000000000e+00 +2.9999999998623633e-01 -2.8185508206573274e-02 -5.5161934785933386e-01 +5.7084663779524928e-03
3.4999999999999998e-01 +8.5389966125888179e+00 +0.0000000000000000e+00 +3.4999999997814368e-01 -2.8185410642876045e-02 -5.5162311754065663e-01 +5.7091120769607612e-03
3.9999999999999997e-01 +8.5389955756187206e+00 +0.0000000000000000e+00 +3.9999999996737468e-01 -2.8185331362877812e-02 -5.5162723759324372e-01 +5.7097553028299690e-03
4.4999999999999996e-01 +8.5389944003823679e+00 +0.0000000000000000e+00 +4.4999999995354695e-01 -2.8185270301236631e-02 -5.5163170731363176e-01 +5.7103960152933512e-03
4.9999999999999994e-01 +8.5389930868786390e+00 +0.0000000000000000e+00 +4.9999999993627808e-01 -2.8185227392611294e-02 -5.5163652599837354e-01 +5.7110341740839671e-03
5.4999999999999993e-01 +8.5389916351063260e+00 +0.0000000000000000e+00 +5.4999999991518567e-01 -2.8185202571661419e-02 -5.5164169294403764e-01 +5.7116697389347102e-03
5.9999999999999998e-01 +8.5389900450641338e+00 +0.0000000000000000e+00 +5.9999999988988739e-01 -2.8185195773047435e-02 -5.5164720744720952e-01 +5.7123026695782963e-03
6.5000000000000002e-01 +8.5389883167506806e+00 +0.0000000000000000e+00 +6.4999999986000079e-01 -2.8185206931430649e-02 -5.5165306880448861e-01 +5.7129329257472614e-03
7.0000000000000007e-01 +8.5389864501644972e+00 +0.0000000000000000e+00 +6.9999999982514338e-01 -2.8185235981473322e-02 -5.5165927631249068e-01 +5.7135604671739578e-03
7.5000000000000011e-01 +8.5389844453040293e+00 +0.0000000000000000e+00 +7.4999999978493281e-01 -2.8185282857838716e-02 -5.5166582926784780e-01 +5.7141852535905662e-03
8.0000000000000016e-01 +8.5389823021676321e+00 +0.0000000000000000e+00 +7.9999999973898650e-01 -2.8185347495191068e-02 -5.5167272696720593e-01 +5.7148072447290657e-03
8.5000000000000020e-01 +8.5389800207535771e+00 +0.0000000000000000e+00 +8.4999999968692208e-01 -2.8185429828195736e-02 -5.5167996870722702e-01 +5.7154264003212536e-03
9.0000000000000024e-01 +8.5389776010600507e+00 +0.0000000000000000e+00 +8.9999999962835697e-01 -2.8185529791519153e-02 -5.5168755378458800e-01 +5.7160426800987266e-03
9.5000000000000029e-01 +8.5389750430851503e+00 +0.0000000000000000e+00 +9.4999999956290870e-01 -2.8185647319828956e-02 -5.5169548149598069e-01 +5.7166560437928960e-03
1.0000000000000002e+00 +8.5389723468268883e+00 +0.0000000000000000e+00 +9.9999999949019469e-01 -2.8185782347794001e-02 -5.5170375113811188e-01 +5.7172664511349692e-03
1.0500000000000003e+00 +8.5389695122831935e+00 +0.0000000000000000e+00 +1.0499999994098324e+00 -2.8185934810084329e-02 -5.5171236200770291e-01 +5.7178738618559443e-03
1.1000000000000003e+00 +8.5389665394519074e+00 +0.0000000000000000e+00 +1.0999999993214391e+00 -2.8186104641371359e-02 -5.5172131340149044e-01 +5.7184782356866264e-03
1.1500000000000004e+00 +8.5389634283307849e+00 +0.0000000000000000e+00 +1.1499999992246324e+00 -2.8186291776327844e-02 -5.5173060461622447e-01 +5.7190795323576026e-03
1.2000000000000004e+00 +8.5389601789174989e+00 +0.0000000000000000e+00 +1.1999999991190295e+00 -2.8186496149627909e-02 -5.5174023494867008e-01 +5.7196777115992546e-03
1.2500000000000004e+00 +8.5389567912096354e+00 +0.0000000000000000e+00 +1.2499999990042481e+00 -2.8186717695947161e-02 -5.5175020369560668e-01 +5.7202727331417515e-03
1.3000000000000005e+00 +8.5389532652046949e+00 +0.0000000000000000e+00 +1.2999999988799051e+00 -2.8186956349962627e-02 -5.5176051015382777e-01 +5.7208645567150378e-03
1.3500000000000005e+00 +8.5389496009000947e+00 +0.0000000000000000e+00 +1.3499999987456179e+00 -2.8187212046352973e-02 -5.5177115362014117e-01 +5.7214531420488454e-03
1.4000000000000006e+00 +8.5389457982931667e+00 +0.0000000000000000e+00 +1.3999999986010039e+00 -2.8187484719798359e-02 -5.5178213339136783e-01 +5.7220384488726791e-03
1.4500000000000006e+00 +8.5389418573811575e+00 +0.0000000000000000e+00 +1.4499999984456802e+00 -2.8187774304980595e-02 -5.5179344876434311e-01 +5.7226204369158163e-03
1.5000000000000007e+00 +8.5389377781612321e+00 +0.0000000000000000e+00 +1.4999999982792638e+00 -2.8188080736583195e-02 -5.5180509903591635e-01 +5.7231990659073143e-03
1.5500000000000007e+00 +8.5389335606304719e+00 +0.0000000000000000e+00 +1.5499999981013721e+00 -2.8188403949291362e-02 -5.5181708350294967e-01 +5.7237742955759873e-03
1.6000000000000008e+00 +8.5389292047858714e+00 +0.0000000000000000e+00 +1.5999999979116224e+00 -2.8188743877792077e-02 -5.5182940146231885e-01 +5.7243460856504190e-03
1.6500000000000008e+00 +8.5389247106243431e+00 +0.0000000000000000e+00 +1.6499999977096316e+00 -2.8189100456774138e-02 -5.5184205221091409e-01 +5.7249143958589543e-03
1.7000000000000008e+00 +8.5389200781427164e+00 +0.0000000000000000e+00 +1.6999999974950168e+00 -2.8189473620928197e-02 -5.5185503504563738e-01 +5.7254791859297017e-03
1.7500000000000009e+00 +8.5389153073377368e+00 +0.0000000000000000e+00 +1.7499999972673952e+00 -2.8189863304946813e-02 -5.5186834926340478e-01 +5.7260404155905185e-03
1.8000000000000009e+00 +8.5389103982060686e+00 +0.0000000000000000e+00 +1.7999999970263836e+00 -2.8190269443524485e-02 -5.5188199416114447e-01 +5.7265980445690206e-03
1.8500000000000010e+00 +8.5389053507442902e+00 +0.0000000000000000e+00 +1.8499999967715990e+00 -2.8190691971357741e-02 -5.5189596903579874e-01 +5.7271520325925694e-03
1.9000000000000010e+00 +8.5389001649488989e+00 +0.0000000000000000e+00 +1.8999999965026584e+00 -2.8191130823145134e-02 -5.5191027318432162e-01 +5.7277023393882773e-03
1.9500000000000011e+00 +8.5388948408163099e+00 +0.0000000000000000e+00 +1.9499999962191785e+00 -2.8191585933587296e-02 -5.5192490590368026e-01 +5.7282489246829977e-03
2.0000000000000009e+00 +8.5388893783428568e+00 +0.0000000000000000e+00 +1.9999999959207764e+00 -2.8192057237387016e-02 -5.5193986649085425e-01 +5.7287917482033270e-03
2.0500000000000007e+00 +8.5388837775247879e+00 +0.0000000000000000e+00 +2.0499999956070689e+00 -2.8192544669526094e-02 -5.5195515399811934e-01 +5.7293307703485345e-03
2.1000000000000005e+00 +8.5388780383582716e+00 +0.0000000000000000e+00 +2.0999999952776727e+00 -2.8193048166095303e-02 -5.5197076649889876e-01 +5.7298659542093840e-03
2.1500000000000004e+00 +8.5388721608393947e+00 +0.0000000000000000e+00 +2.1499999949322044e+00 -2.8193567663462912e-02 -5.5198670182191012e-01 +5.7303972635493220e-03
2.2000000000000002e+00 +8.5388661449641639e+00 +0.0000000000000000e+00 +2.1999999945702808e+00 -2.8194103097997705e-02 -5.5200295779588249e-01 +5.7309246621315580e-03
2.2500000000000000e+00 +8.5388599907285041e+00 +0.0000000000000000e+00 +2.2499999941915187e+00 -2.8194654406068873e-02 -5.5201953224955613e-01 +5.7314481137190447e-03
2.2999999999999998e+00 +8.5388536981282623e+00 +0.0000000000000000e+00 +2.2999999937955344e+00 -2.8195221524046011e-02 -5.5203642301168188e-01 +5.7319675820744903e-03
2.3499999999999996e+00 +8.5388472671592037e+00 +0.0000000000000000e+00 +2.3499999933819447e+00 -2.8195804388299026e-02 -5.5205362791102086e-01 +5.7324830309603567e-03
2.3999999999999995e+00 +8.5388406978170153e+00 +0.0000000000000000e+00 +2.3999999929503661e+00 -2.8196402935198105e-02 -5.5207114477634522e-01 +5.7329944241388377e-03
2.4499999999999993e+00 +8.5388339900973076e+00 +0.0000000000000000e+00 +2.4499999925004152e+00 -2.8197017101113622e-02 -5.5208897143643643e-01 +5.7335017253718817e-03
2.4999999999999991e+00 +8.5388271439956114e+00 +0.0000000000000000e+00 +2.4999999920317082e+00 -2.8197646822416138e-02 -5.5210710572008703e-01 +5.7340048984211795e-03
2.5499999999999989e+00 +8.5388201595073827e+00 +0.0000000000000000e+00 +2.5499999915438614e+00 -2.8198292035476299e-02 -5.5212554545609871e-01 +5.7345039070481659e-03
2.5999999999999988e+00 +8.5388130366279995e+00 +0.0000000000000000e+00 +2.5999999910364915e+00 -2.8198952676664810e-02 -5.5214428847328334e-01 +5.7349987150140070e-03
2.6499999999999986e+00 +8.5388057753527633e+00 +0.0000000000000000e+00 +2.6499999905092144e+00 -2.8199628682352325e-02 -5.5216333260046235e-01 +5.7354892860796191e-03
2.6999999999999984e+00 +8.5387983756769010e+00 +0.0000000000000000e+00 +2.6999999899616465e+00 -2.8200319988909504e-02 -5.5218267566646617e-01 +5.7359755840056493e-03
2.7499999999999982e+00 +8.5387908375955632e+00 +0.0000000000000000e+00 +2.7499999893934040e+00 -2.8201026532706831e-02 -5.5220231550013499e-01 +5.7364575725524771e-03
2.7999999999999980e+00 +8.5387831611038294e+00 +0.0000000000000000e+00 +2.7999999888041027e+00 -2.8201748250114633e-02 -5.5222224993031732e-01 +5.7369352154802199e-03
2.8499999999999979e+00 +8.5387753461967009e+00 +0.0000000000000000e+00 +2.8499999881933591e+00 -2.8202485077502989e-02 -5.5224247678587135e-01 +5.7374084765487244e-03
2.8999999999999977e+00 +8.5387673928691097e+00 +0.0000000000000000e+00 +2.8999999875607889e+00 -2.8203236951241720e-02 -5.5226299389566347e-01 +5.7378773195175701e-03
2.9499999999999975e+00 +8.5387593011159133e+00 +0.0000000000000000e+00 +2.9499999869060081e+00 -2.8204003807700263e-02 -5.5228379908856839e-01 +5.7383417081460575e-03
2.9999999999999973e+00 +8.5387510709318963e+00 +0.0000000000000000e+00 +2.9999999862286328e+00 -2.8204785583247714e-02 -5.5230489019346996e-01 +5.7388016061932258e-03
3.0499999999999972e+00 +8.5387427023117723e+00 +0.0000000000000000e+00 +3.0499999855282787e+00 -2.8205582214252636e-02 -5.5232626503925897e-01 +5.7392569774178262e-03
3.0999999999999970e+00 +8.5387341952501838e+00 +0.0000000000000000e+00 +3.0999999848045618e+00 -2.8206393637083157e-02 -5.5234792145483591e-01 +5.7397077855783438e-03
3.1499999999999968e+00 +8.5387255497417023e+00 +0.0000000000000000e+00 +3.1499999840570978e+00 -2.8207219788106804e-02 -5.5236985726910781e-01 +5.7401539944329808e-03
3.1999999999999966e+00 +8.5387167657808298e+00 +0.0000000000000000e+00 +3.1999999832855019e+00 -2.8208060603690473e-02 -5.5239207031098925e-01 +5.7405955677396533e-03
3.2499999999999964e+00 +8.5387078433619994e+00 +0.0000000000000000e+00 +3.2499999824893906e+00 -2.8208916020200401e-02 -5.5241455840940323e-01 +5.7410324692560117e-03
3.2999999999999963e+00 +8.5386987824795728e+00 +0.0000000000000000e+00 +3.2999999816683787e+00 -2.8209785974002085e-02 -5.5243731939327945e-01 +5.7414646627394041e-03
3.3499999999999961e+00 +8.5386895831278462e+00 +0.0000000000000000e+00 +3.3499999808220822e+00 -2.8210670401460233e-02 -5.5246035109155511e-01 +5.7418921119469094e-03
3.3999999999999959e+00 +8.5386802453010482e+00 +0.0000000000000000e+00 +3.3999999799501159e+00 -2.8211569238938711e-02 -5.5248365133317368e-01 +5.7423147806353074e-03
3.4499999999999957e+00 +8.5386707689933363e+00 +0.0000000000000000e+00 +3.4499999790520959e+00 -2.8212482422800503e-02 -5.5250721794708657e-01 +5.7427326325610994e-03
3.4999999999999956e+00 +8.5386611541988042e+00 +0.0000000000000000e+00 +3.4999999781276370e+00 -2.8213409889407595e-02 -5.5253104876225068e-01 +5.7431456314804884e-03
3.5499999999999954e+00 +8.5386514009114798e+00 +0.0000000000000000e+00 +3.5499999771763546e+00 -2.8214351575120988e-02 -5.5255514160763008e-01 +5.7435537411493921e-03
3.5999999999999952e+00 +8.5386415091253234e+00 +0.0000000000000000e+00 +3.5999999761978643e+00 -2.8215307416300631e-02 -5.5257949431219489e-01 +5.7439569253234287e-03
3.6499999999999950e+00 +8.5386314788342315e+00 +0.0000000000000000e+00 +3.6499999751917809e+00 -2.8216277349305308e-02 -5.5260410470492127e-01 +5.7443551477579296e-03
3.6999999999999948e+00 +8.5386213100320347e+00 +0.0000000000000000e+00 +3.6999999741577194e+00 -2.8217261310492677e-02 -5.5262897061479166e-01 +5.7447483722079173e-03
3.7499999999999947e+00 +8.5386110027125017e+00 +0.0000000000000000e+00 +3.7499999730952949e+00 -2.8218259236219099e-02 -5.5265408987079356e-01 +5.7451365624281280e-03
3.7999999999999945e+00 +8.5386005568693371e+00 +0.0000000000000000e+00 +3.7999999720041227e+00 -2.8219271062839717e-02 -5.5267946030192105e-01 +5.7455196821729875e-03
3.8499999999999943e+00 +8.5385899724961796e+00 +0.0000000000000000e+00 +3.8499999708838173e+00 -2.8220296726708269e-02 -5.5270507973717276e-01 +5.7458976951966301e-03
3.8999999999999941e+00 +8.5385792495866095e+00 +0.0000000000000000e+00 +3.8999999697339933e+00 -2.8221336164177133e-02 -5.5273094600555306e-01 +5.7462705652528761e-03
3.9499999999999940e+00 +8.5385683881341432e+00 +0.0000000000000000e+00 +3.9499999685542657e+00 -2.8222389311597193e-02 -5.5275705693607102e-01 +5.7466382560952449e-03
3.9999999999999938e+00 +8.5385573881322347e+00 +0.0000000000000000e+00 +3.9999999673442495e+00 -2.8223456105317846e-02 -5.5278341035774115e-01 +5.7470007314769549e-03
4.0499999999999936e+00 +8.5385462495742797e+00 +0.0000000000000000e+00 +4.0499999661035586e+00 -2.8224536464404839e-02 -5.5281000398747016e-01 +5.7473579645025124e-03
4.0999999999999934e+00 +8.5385349724536130e+00 +0.0000000000000000e+00 +4.0999999648318077e+00 -2.8225630238794666e-02 -5.5283683509371795e-01 +5.7477099656826573e-03
4.1499999999999932e+00 +8.5385235567635096e+00 +0.0000000000000000e+00 +4.1499999635286118e+00 -2.8226737261142235e-02 -5.5286390083283232e-01 +5.7480567548794702e-03
4.1999999999999931e+00 +8.5385120024971854e+00 +0.0000000000000000e+00 +4.1999999621935853e+00 -2.8227857364103239e-02 -5.5289119836115963e-01 +5.7483983519547501e-03
4.2499999999999929e+00 +8.5385003096477980e+00 +0.0000000000000000e+00 +4.2499999608263419e+00 -2.8228990380334152e-02 -5.5291872483504456e-01 +5.7487347767700035e-03
4.2999999999999927e+00 +8.5384884782084480e+00 +0.0000000000000000e+00 +4.2999999594264962e+00 -2.8230136142492257e-02 -5.5294647741083158e-01 +5.7490660491864411e-03
4.3499999999999925e+00 +8.5384765081721792e+00 +0.0000000000000000e+00 +4.3499999579936626e+00 -2.8231294483235726e-02 -5.5297445324486194e-01 +5.7493921890649892e-03
4.3999999999999924e+00 +8.5384643995319784e+00 +0.0000000000000000e+00 +4.3999999565274548e+00 -2.8232465235223495e-02 -5.5300264949347555e-01 +5.7497132162662706e-03
4.4499999999999922e+00 +8.5384521522807812e+00 +0.0000000000000000e+00 +4.4499999550274874e+00 -2.8233648231115425e-02 -5.5303106331300922e-01 +5.7500291506506164e-03
4.4999999999999920e+00 +8.5384397664114644e+00 +0.0000000000000000e+00 +4.4999999534933739e+00 -2.8234843303572277e-02 -5.5305969185979731e-01 +5.7503400120780665e-03
4.5499999999999918e+00 +8.5384272419168514e+00 +0.0000000000000000e+00 +4.5499999519247281e+00 -2.8236050285255644e-02 -5.5308853229017052e-01 +5.7506458204083580e-03
4.5999999999999917e+00 +8.5384145787897143e+00 +0.0000000000000000e+00 +4.5999999503211644e+00 -2.8237269008828132e-02 -5.5311758176045678e-01 +5.7509465955009297e-03
4.6499999999999915e+00 +8.5384017770227718e+00 +0.0000000000000000e+00 +4.6499999486822956e+00 -2.8238499306953223e-02 -5.5314683742697890e-01 +5.7512423572149201e-03
4.6999999999999913e+00 +8.5383888366086911e+00 +0.0000000000000000e+00 +4.6999999470077363e+00 -2.8239741012295375e-02 -5.5317629644605748e-01 +5.7515331254091757e-03
4.7499999999999911e+00 +8.5383757575400878e+00 +0.0000000000000000e+00 +4.7499999452971000e+00 -2.8240993957520055e-02 -5.5320595597400646e-01 +5.7518189199422323e-03
4.7999999999999909e+00 +8.5383625398095297e+00 +0.0000000000000000e+00 +4.7999999435499996e+00 -2.8242257975293686e-02 -5.5323581316713666e-01 +5.7520997606723308e-03
4.8499999999999908e+00 +8.5383491834095313e+00 +0.0000000000000000e+00 +4.8499999417660495e+00 -2.8243532898283744e-02 -5.5326586518175336e-01 +5.7523756674574024e-03
4.8999999999999906e+00 +8.5383356883325607e+00 +0.0000000000000000e+00 +4.8999999399448626e+00 -2.8244818559158696e-02 -5.5329610917415539e-01 +5.7526466601550818e-03
4.9499999999999904e+00 +8.5383220545710383e+00 +0.0000000000000000e+00 +4.9499999380860524e+00 -2.8246114790588080e-02 -5.5332654230063694e-01 +5.7529127586226853e-03
4.9999999999999902e+00 +8.5383082821173364e+00 +0.0000000000000000e+00 +4.9999999361892318e+00 -2.8247421425242523e-02 -5.5335716171748572e-01 +5.7531739827172430e-03
5.0499999999999901e+00 +8.5382943709637793e+00 +0.0000000000000000e+00 +5.0499999342540134e+00 -2.8248738295793704e-02 -5.5338796458098305e-01 +5.7534303522954562e-03
5.0999999999999899e+00 +8.5382803211026452e+00 +0.0000000000000000e+00 +5.0999999322800109e+00 -2.8250065234914447e-02 -5.5341894804740333e-01 +5.7536818872137348e-03
5.1499999999999897e+00 +8.5382661325261697e+00 +0.0000000000000000e+00 +5.1499999302668380e+00 -2.8251402075278674e-02 -5.5345010927301408e-01 +5.7539286073281688e-03
5.1999999999999895e+00 +8.5382518052265421e+00 +0.0000000000000000e+00 +5.1999999282141065e+00 -2.8252748649561437e-02 -5.5348144541407474e-01 +5.7541705324945435e-03
5.2499999999999893e+00 +8.5382373391959092e+00 +0.0000000000000000e+00 +5.2499999261214301e+00 -2.8254104790439005e-02 -5.5351295362683839e-01 +5.7544076825683278e-03
5.2999999999999892e+00 +8.5382227344263715e+00 +0.0000000000000000e+00 +5.2999999239884215e+00 -2.8255470330588763e-02 -5.5354463106754881e-01 +5.7546400774046835e-03
5.3499999999999890e+00 +8.5382079909099904e+00 +0.0000000000000000e+00 +5.3499999218146925e+00 -2.8256845102689339e-02 -5.5357647489244188e-01 +5.7548677368584582e-03
5.3999999999999888e+00 +8.5381931086387848e+00 +0.0000000000000000e+00 +5.3999999195998569e+00 -2.8258228939420559e-02 -5.5360848225774473e-01 +5.7550906807841791e-03
5.4499999999999886e+00 +8.5381780876047308e+00 +0.0000000000000000e+00 +5.4499999173435265e+00 -2.8259621673463485e-02 -5.5364065031967546e-01 +5.7553089290360692e-03
5.4999999999999885e+00 +8.5381629277997675e+00 +0.0000000000000000e+00 +5.4999999150453132e+00 -2.8261023137500424e-02 -5.5367297623444256e-01 +5.7555225014680206e-03
5.5499999999999883e+00 +8.5381476292157910e+00 +0.0000000000000000e+00 +5.5499999127048305e+00 -2.8262433164214968e-02 -5.5370545715824515e-01 +5.7557314179336200e-03
5.5999999999999881e+00 +8.5381321918446602e+00 +0.0000000000000000e+00 +5.5999999103216904e+00 -2.8263851586292018e-02 -5.5373809024727272e-01 +5.7559356982861305e-03
5.6499999999999879e+00 +8.5381166156781969e+00 +0.0000000000000000e+00 +5.6499999078955048e+00 -2.8265278236417724e-02 -5.5377087265770297e-01 +5.7561353623784926e-03
5.6999999999999877e+00 +8.5381009007081818e+00 +0.0000000000000000e+00 +5.6999999054258854e+00 -2.8266712947279626e-02 -5.5380380154570463e-01 +5.7563304300633318e-03
5.7499999999999876e+00 +8.5380850469263638e+00 +0.0000000000000000e+00 +5.7499999029124451e+00 -2.8268155551566573e-02 -5.5383687406743465e-01 +5.7565209211929511e-03
5.7999999999999874e+00 +8.5380690543244526e+00 +0.0000000000000000e+00 +5.7999999003547957e+00 -2.8269605881968789e-02 -5.5387008737903831e-01 +5.7567068556193266e-03
5.8499999999999872e+00 +8.5380529228941242e+00 +0.0000000000000000e+00 +5.8499998977525491e+00 -2.8271063771177874e-02 -5.5390343863664981e-01 +5.7568882531941132e-03
5.8999999999999870e+00 +8.5380366526270173e+00 +0.0000000000000000e+00 +5.8999998951053172e+00 -2.8272529051886840e-02 -5.5393692499639158e-01 +5.7570651337686450e-03
