# multipoles
# s[mm] polynom_b[n=0][T/m^n] polynom_b[n=1][T/m^n] polynom_b[n=2][T/m^n] polynom_b[n=3][T/m^n] polynom_b[n=4][T/m^n] polynom_b[n=5][T/m^n] polynom_b[n=6][T/m^n] 
-0.0000000000000000e+00 -5.2419393039593365e-01 +6.8971673551536634e+00 +4.7025922322703106e+00 -7.5786327700998285e+01 +6.6849443478991873e+02 +1.7093425550573372e+05 +1.4897426051602982e+07 
-5.0000000000000003e-02 -5.2419247668304991e-01 +6.8970425034669134e+00 +4.7085021143486205e+00 -7.6188832626989495e+01 +6.0008497936724848e+02 +1.7325265340623155e+05 +1.5363594880470913e+07 
-1.0000000000000001e-01 -5.2419137094044610e-01 +6.8969354460124368e+00 +4.7134751813296729e+00 -7.6554831415831032e+01 +5.4555346396085849e+02 +1.7533548650224926e+05 +1.5742295439435599e+07 
-1.4999999999999999e-01 -5.2419061275182921e-01 +6.8968461788517565e+00 +4.7175261974702893e+00 -7.6885156975332507e+01 +5.0451401112566390e+02 +1.7718904252063078e+05 +1.6035997734098369e+07 
-2.0000000000000001e-01 -5.2419020170096298e-01 +6.8967746980437514e+00 +4.7206699313880343e+00 -7.7180642093954347e+01 +4.7658063332689585e+02 +1.7881960827649047e+05 +1.6247172481203804e+07 
-2.5000000000000000e-01 -5.2419013737163767e-01 +6.8967209996497250e+00 +4.7229211494942671e+00 -7.7442119618909189e+01 +4.6136739770457137e+02 +1.8023347099653521e+05 +1.6378290048943892e+07 
-2.9999999999999999e-01 -5.2419041934761645e-01 +6.8966850797327481e+00 +4.7242946153918854e+00 -7.7670422461833923e+01 +4.5848844577812241e+02 +1.8143691852841940e+05 +1.6431820304186009e+07 
-3.4999999999999998e-01 -5.2419104721265486e-01 +6.8966669343550171e+00 +4.7248050973297238e+00 -7.7866383463741329e+01 +4.6755779338558904e+02 +1.8243623810636275e+05 +1.6410233965169035e+07 
-4.0000000000000002e-01 -5.2419202055064318e-01 +6.8966665595816927e+00 +4.7244673622076130e+00 -7.8030835562640121e+01 +4.8818949515517102e+02 +1.8323771774825442e+05 +1.6316001477702167e+07 
-4.5000000000000001e-01 -5.2419333894532172e-01 +6.8966839514800720e+00 +4.7232961748196391e+00 -7.8164611770077698e+01 +5.1999765646129833e+02 +1.8384764615781358e+05 +1.6151592967799203e+07 
-5.0000000000000000e-01 -5.2419500198057667e-01 +6.8967191061160662e+00 +4.7213063003983926e+00 -7.8268545010836831e+01 +5.6259637623961805e+02 +1.8427231128394700e+05 +1.5919478581729898e+07 
-5.5000000000000004e-01 -5.2419700924023638e-01 +6.8967720195569093e+00 +4.7185125053020753e+00 -7.8343468238939835e+01 +6.1559971565150931e+02 +1.8451800133806962e+05 +1.5622128747121185e+07 
-5.9999999999999998e-01 -5.2419936030822789e-01 +6.8968426878725637e+00 +4.7149295563518958e+00 -7.8390214500297859e+01 +6.7862173056264680e+02 +1.8459100529668605e+05 +1.5262013903217677e+07 
-6.5000000000000002e-01 -5.2420205476833059e-01 +6.8969311071325983e+00 +4.7105722146654845e+00 -7.8409616783332709e+01 +7.5127662218692819e+02 +1.8449761162909289e+05 +1.4841603535721283e+07 
-6.9999999999999996e-01 -5.2420509220452505e-01 +6.8970372734073733e+00 +4.7054552518995179e+00 -7.8402508102598873e+01 +8.3317831002959520e+02 +1.8424410907332785e+05 +1.4363369021725021e+07 
-7.5000000000000000e-01 -5.2420847220066968e-01 +6.8971611827687509e+00 +4.6995934281775220e+00 -7.8369721507957848e+01 +9.2394102812280960e+02 +1.8383678667621507e+05 +1.3829779601453515e+07 
-8.0000000000000004e-01 -5.2421219434070154e-01 +6.8973028312905553e+00 +4.6930015110217518e+00 -7.8312090087817865e+01 +1.0231788048371027e+03 +1.8328193373165652e+05 +1.3243305926702742e+07 
-8.4999999999999998e-01 -5.2421625820858697e-01 +6.8974622150447713e+00 +4.6856942659640914e+00 -7.8230446849609365e+01 +1.1305057232633580e+03 +1.8258583894175955e+05 +1.2606418272656636e+07 
-9.0000000000000002e-01 -5.2422066338827078e-01 +6.8976393301068093e+00 +4.6776864564994840e+00 -7.8125624895854784e+01 +1.2455359213683623e+03 +1.8175479172775426e+05 +1.1921586544460479e+07 
-9.4999999999999996e-01 -5.2422540946370333e-01 +6.8978341725513994e+00 +4.6689928488086609e+00 -7.7998457290553006e+01 +1.3678834639354138e+03 +1.8079508125385144e+05 +1.1191281143288147e+07 
-1.0000000000000000e+00 -5.2423049601886973e-01 +6.8980467384540534e+00 +4.6596282081156355e+00 -7.7849777094755694e+01 +1.4971624426032095e+03 +1.7971299662510661e+05 +1.0417972282194939e+07 
-1.0500000000000000e+00 -5.2423592263779095e-01 +6.8982770238921391e+00 +4.6496072992813815e+00 -7.7680417421040346e+01 +1.6329869544797161e+03 +1.7851482736445597e+05 +9.6041301540826112e+06 
-1.1000000000000001e+00 -5.2424168890442091e-01 +6.8985250249444556e+00 +4.6389448854202842e+00 -7.7491211410252944e+01 +1.7749711480351498e+03 +1.7720686323209040e+05 +8.7522245881400146e+06 
-1.1499999999999999e+00 -5.2424779440287328e-01 +6.8987907376858830e+00 +4.6276557335666952e+00 -7.7282992025467451e+01 +1.9227290612909846e+03 +1.7579539252996442e+05 +7.8647261757398704e+06 
-1.2000000000000000e+00 -5.2425423871713583e-01 +6.8990741581977195e+00 +4.6157546080871334e+00 -7.7056592454021541e+01 +2.0758748061026058e+03 +1.7428670538777512e+05 +6.9441049990324415e+06 
-1.2500000000000000e+00 -5.2426102143127018e-01 +6.8993752825594337e+00 +4.6032562743431766e+00 -7.6812845787290769e+01 +2.2340224697123995e+03 +1.7268709115030174e+05 +5.9928312997651957e+06 
-1.3000000000000000e+00 -5.2426814212936046e-01 +6.8996941068505739e+00 +4.5901754954353207e+00 -7.6552585090448446e+01 +2.3967861939033996e+03 +1.7100283892256170e+05 +5.0133749727753997e+06 
-1.3500000000000001e+00 -5.2427560039550747e-01 +6.9000306271519696e+00 +4.5765270388254589e+00 -7.6276643451888802e+01 +2.5637800060535988e+03 +1.6924023800425211e+05 +4.0082066730701555e+06 
-1.3999999999999999e+00 -5.2428339581374672e-01 +6.9003848395453415e+00 +4.5623256665760703e+00 -7.5985853967102642e+01 +2.7346180791657575e+03 +1.6740557774259479e+05 +2.9797960715175895e+06 
-1.4500000000000000e+00 -5.2429152796826106e-01 +6.9007567401127838e+00 +4.5475861468442753e+00 -7.5681049725531466e+01 +2.9089144207878417e+03 +1.6550514743023910e+05 +1.9306139568513180e+06 
-1.5000000000000000e+00 -5.2429999644316794e-01 +6.9011463249358700e+00 +4.5323232425015680e+00 -7.5363063758099130e+01 +3.0862831784799191e+03 +1.6354523585223139e+05 +8.6313018278115429e+05 
-1.5500000000000000e+00 -5.2430880082258369e-01 +6.9015535900979659e+00 +4.5165517177755214e+00 -7.5032729144212411e+01 +3.2663384672126626e+03 +1.6153213219123910e+05 -2.2018519479483078e+05 
-1.6000000000000001e+00 -5.2431794069067961e-01 +6.9019785316840263e+00 +4.5002863398464754e+00 -7.4690879000657802e+01 +3.4486943196068601e+03 +1.5947212593372902e+05 -1.3168615539977520e+06 
-1.6499999999999999e+00 -5.2432741563165408e-01 +6.9024211457755404e+00 +4.4835418736642625e+00 -7.4338346268589760e+01 +3.6329648274516317e+03 +1.5737150507479103e+05 -2.4244286702425131e+06 
-1.7000000000000000e+00 -5.2433722522965820e-01 +6.9028814284575368e+00 +4.4663330819053870e+00 -7.3975964010296636e+01 +3.8187641469362325e+03 +1.5523655863462604e+05 -3.5404167662481377e+06 
-1.7500000000000000e+00 -5.2434736906893353e-01 +6.9033593758151728e+00 +4.4486747322688158e+00 -7.3604565255897739e+01 +4.0057062944227127e+03 +1.5307357530516255e+05 -4.6623551068748413e+06 
-1.8000000000000000e+00 -5.2435784673366748e-01 +6.9038549839326624e+00 +4.4305815889082085e+00 -7.3224982973845727e+01 +4.1934053841539489e+03 +1.5088884329434202e+05 -5.7877736274204385e+06 
-1.8500000000000001e+00 -5.2436865780809450e-01 +6.9043682488973079e+00 +4.4120684174684239e+00 -7.2838050223612939e+01 +4.3814754880948622e+03 +1.4868865150940913e+05 -6.9142019696142552e+06 
-1.8999999999999999e+00 -5.2437980187648803e-01 +6.9048991667922524e+00 +4.3931499834478354e+00 -7.2444599875715639e+01 +4.5695306850772322e+03 +1.4647928733781347e+05 -8.0391698376065223e+06 
-1.9500000000000000e+00 -5.2439127852309120e-01 +6.9054477337063416e+00 +4.3738410531106187e+00 -7.2045464981721850e+01 +4.7571850309614911e+03 +1.4426703954781979e+05 -9.1602067682722230e+06 
-2.0000000000000000e+00 -5.2440308733219954e-01 +6.9060139457236751e+00 +4.3541563911862511e+00 -7.1641478388023955e+01 +4.9440526223027809e+03 +1.4205819527964227e+05 -1.0274842576292317e+07 
-2.0499999999999998e+00 -5.2441522767864557e-01 +6.9065977793077256e+00 +4.3341088874536622e+00 -7.1233337394085098e+01 +5.1298165916800481e+03 +1.3985785395079988e+05 -1.1381066437721813e+07 
-2.1000000000000001e+00 -5.2442769809605261e-01 +6.9071991340387591e+00 +4.3137040392260282e+00 -7.0821238672802934e+01 +5.3144357569745725e+03 +1.3766658085599396e+05 -1.2478695599188166e+07 
-2.1499999999999999e+00 -5.2444049690692396e-01 +6.9078178876939447e+00 +4.2929456680878966e+00 -7.0405267061645660e+01 +5.4979380235751396e+03 +1.3548385685374471e+05 -1.3568003588554133e+07 
-2.2000000000000002e+00 -5.2445362243384064e-01 +6.9084539180545574e+00 +4.2718375987695794e+00 -6.9985507547637155e+01 +5.6803512076538054e+03 +1.3330916400203053e+05 -1.4649263311905386e+07 
-2.2500000000000000e+00 -5.2446707299930262e-01 +6.9091071029005615e+00 +4.2503836528516832e+00 -6.9562045051077490e+01 +5.8617032122732171e+03 +1.3114198383641074e+05 -1.5722748269253202e+07 
-2.2999999999999998e+00 -5.2448084692585994e-01 +6.9097773200135784e+00 +4.2285876545346310e+00 -6.9134964535726638e+01 +6.0420218684378215e+03 +1.2898179823756112e+05 -1.6788731471128929e+07 
-2.3500000000000001e+00 -5.2449494253604201e-01 +6.9104644471764676e+00 +4.2064534266349609e+00 -6.8704351000689996e+01 +6.2213350460129077e+03 +1.2682808937921790e+05 -1.7847486194093000e+07 
-2.3999999999999999e+00 -5.2450935815243482e-01 +6.9111683621683397e+00 +4.1839847910330956e+00 -6.8270289277376662e+01 +6.3996706405615341e+03 +1.2468033806947000e+05 -1.8899285889428053e+07 
-2.4500000000000002e+00 -5.2452409209760575e-01 +6.9118889427735075e+00 +4.1611855737756880e+00 -6.7832864403143830e+01 +6.5770564320904778e+03 +1.2253802685082014e+05 -1.9944403218429253e+07 
-2.5000000000000000e+00 -5.2453914269417234e-01 +6.9126260667737114e+00 +4.1380595940280820e+00 -6.7392161285142606e+01 +6.7535203901706127e+03 +1.2040063715839422e+05 -2.0983112135152429e+07 
-2.5499999999999998e+00 -5.2455450826468264e-01 +6.9133796119538697e+00 +4.1146106792790915e+00 -6.6948264944608553e+01 +6.9290902585782296e+03 +1.1826765138587318e+05 -2.2015685064510714e+07 
-2.6000000000000001e+00 -5.2457018713180537e-01 +6.9141494560946102e+00 +4.0908426498186126e+00 -6.6501260225934573e+01 +7.1037939747816499e+03 +1.1613855050965439e+05 -2.3042395736824751e+07 
-2.6499999999999999e+00 -5.2458617761813653e-01 +6.9149354769802223e+00 +4.0667593293453690e+00 -6.6051232098813131e+01 +7.2776593839783227e+03 +1.1401281651299489e+05 -2.4063517260580532e+07 
-2.7000000000000002e+00 -5.2460247804630222e-01 +6.9157375523953091e+00 +4.0423645400914232e+00 -6.5598265535909377e+01 +7.4507143734140545e+03 +1.1188993142754007e+05 -2.5079323032124229e+07 
-2.7500000000000000e+00 -5.2461908673895064e-01 +6.9165555601232542e+00 +4.0176621071969096e+00 -6.5142445454252268e+01 +7.6229867479607756e+03 +1.0976937686296448e+05 -2.6090085880671952e+07 
-2.7999999999999998e+00 -5.2463600201870098e-01 +6.9173893779475364e+00 +3.9926558526692730e+00 -6.4683856755748593e+01 +7.7945044029284909e+03 +1.0765063429294365e+05 -2.7096079265639260e+07 
-2.8500000000000001e+00 -5.2465322220822708e-01 +6.9182388836543218e+00 +3.9673495983553084e+00 -6.4222584440285743e+01 +7.9652952310173368e+03 +1.0553318599343390e+05 -2.8097576602932557e+07 
-2.8999999999999999e+00 -5.2467074563020799e-01 +6.9191039550266318e+00 +3.9417471690956245e+00 -6.3758713381319900e+01 +8.1353870529771229e+03 +1.0341651327534624e+05 -2.9094850856550567e+07 
-2.9500000000000002e+00 -5.2468857060731711e-01 +6.9199844698500828e+00 +3.9158523877983131e+00 -6.3292328532240674e+01 +8.3048077330185642e+03 +1.0130009804761369e+05 -3.0088175247517589e+07 
-3.0000000000000000e+00 -5.2470669546222515e-01 +6.9208803059104493e+00 +3.8896690748683156e+00 -6.2823514854347721e+01 +8.4735852098221148e+03 +9.9183422355663264e+04 -3.1077823528516289e+07 
-3.0499999999999998e+00 -5.2472511851761650e-01 +6.9217913409926677e+00 +3.8632010562217416e+00 -6.2352357267492380e+01 +8.6417472696696950e+03 +9.7065967919645220e+04 -3.2064068405064397e+07 
-3.1000000000000001e+00 -5.2474383809621472e-01 +6.9227174528814421e+00 +3.8364521543521986e+00 -6.1878940664316701e+01 +8.8093217928069807e+03 +9.4947216210439685e+04 -3.3047183224929944e+07 
-3.1499999999999999e+00 -5.2476285252072463e-01 +6.9236585193647961e+00 +3.8094261910735843e+00 -6.1403350072687090e+01 +8.9763366801815100e+03 +9.2826649860457459e+04 -3.4027441483303070e+07 
-3.2000000000000002e+00 -5.2478216011387113e-01 +6.9246144182253522e+00 +3.7821269905271846e+00 -6.0925670288147437e+01 +9.1428197673070699e+03 +9.0703749599128481e+04 -3.5005116221397035e+07 
-3.2500000000000000e+00 -5.2480175919835015e-01 +6.9255850272503636e+00 +3.7545583748986462e+00 -6.0445986297036249e+01 +9.3087989443249535e+03 +8.8577997766704662e+04 -3.5980480857645310e+07 
-3.2999999999999998e+00 -5.2482164809692333e-01 +6.9265702242271043e+00 +3.7267241675489302e+00 -5.9964383075582631e+01 +9.4743020672679086e+03 +8.6448876624080644e+04 -3.6953808566439621e+07 
-3.3500000000000001e+00 -5.2484182513235755e-01 +6.9275698869399269e+00 +3.6986281911027716e+00 -5.9480945473743986e+01 +9.6393570184237633e+03 +8.4315867401717638e+04 -3.7925372725680098e+07 
-3.3999999999999999e+00 -5.2486228862734796e-01 +6.9285838931757660e+00 +3.6702742681505085e+00 -5.8995758441382016e+01 +9.8039916744944658e+03 +8.2178452188623458e+04 -3.8895446649345897e+07 
-3.4500000000000002e+00 -5.2488303690465521e-01 +6.9296121207211998e+00 +3.6416662218575837e+00 -5.8508906914162004e+01 +9.9682339044004639e+03 +8.0036112980418970e+04 -3.9864303625612505e+07 
-3.5000000000000000e+00 -5.2490406828707492e-01 +6.9306544473618752e+00 +3.6128078768405860e+00 -5.8020475782267560e+01 +1.0132111528472566e+04 +7.7888331411906984e+04 -4.0832216577851281e+07 
-3.5499999999999998e+00 -5.2492538109735953e-01 +6.9317107508855322e+00 +3.5837030524526448e+00 -5.7530550021658236e+01 +1.0295652518382325e+04 +7.5734589854902850e+04 -4.1799459485733651e+07 
-3.6000000000000001e+00 -5.2494697365830145e-01 +6.9327809090784198e+00 +3.5543555739769319e+00 -5.7039214540584652e+01 +1.0458884685168925e+04 +7.3574370140188184e+04 -4.2766305240157939e+07 
-3.6499999999999999e+00 -5.2496884429267987e-01 +6.9338647997256411e+00 +3.5247692637349446e+00 -5.6546554204764405e+01 +1.0621835914880498e+04 +7.1407153796049010e+04 -4.3733027219634697e+07 
-3.6999999999999900e+00 -5.2499099132325855e-01 +6.9349623006152816e+00 +3.4949479441254780e+00 -5.6052653992032567e+01 +1.0784534096634512e+04 +6.9232423270434490e+04 -4.4699898839435115e+07 
-3.7499999999999898e+00 -5.2501341307288363e-01 +6.9360732895323105e+00 +3.4648954376513270e+00 -5.5557598761923124e+01 +1.0947007116558381e+04 +6.7049660092522870e+04 -4.5667193493832350e+07 
-3.7999999999999901e+00 -5.2503610786431865e-01 +6.9371976442647751e+00 +3.4346155691356350e+00 -5.5061473483118704e+01 +1.1109282797556654e+04 +6.4858346661109914e+04 -4.6635184144802891e+07 
-3.8499999999999899e+00 -5.2505907402040575e-01 +6.9383352425986748e+00 +3.4041121582106380e+00 -5.4564363059429645e+01 +1.1271389104908179e+04 +6.2657964938640369e+04 -4.7604144725054607e+07 
-3.8999999999999901e+00 -5.2508230986389692e-01 +6.9394859623198508e+00 +3.3733890301237506e+00 -5.4066352378498237e+01 +1.1433353849874438e+04 +6.0447996757774585e+04 -4.8574348113468900e+07 
-3.9499999999999900e+00 -5.2510581371768439e-01 +6.9406496812156178e+00 +3.3424500067058966e+00 -5.3567526390575935e+01 +1.1595204941140768e+04 +5.8227924471154831e+04 -4.9546067867114827e+07 
-3.9999999999999898e+00 -5.2512958390453868e-01 +6.9418262770725958e+00 +3.3112989101885160e+00 -5.3067970016424823e+01 +1.1756970271633461e+04 +5.5997230272399393e+04 -5.0519577410799995e+07 
-4.0499999999999901e+00 -5.2515361860662779e-01 +6.9430156221447934e+00 +3.2799396679288391e+00 -5.2567829295908162e+01 +1.1918670379195155e+04 +5.3756103610828832e+04 -5.1495075033241011e+07 
-4.0999999999999899e+00 -5.2517791544352410e-01 +6.9442175587483339e+00 +3.2483770470277551e+00 -5.2067472838718857e+01 +1.2080297329165451e+04 +5.1507302713512116e+04 -5.2472478972350448e+07 
-4.1499999999999897e+00 -5.2520247189437452e-01 +6.9454319197608934e+00 +3.2166161602757506e+00 -5.1567321122817845e+01 +1.2241836109606433e+04 +4.9254168219965468e+04 -5.3451640915072031e+07 
-4.1999999999999904e+00 -5.2522728543825925e-01 +6.9466585380630326e+00 +3.1846621174724605e+00 -5.1067794748656958e+01 +1.2403271791398052e+04 +4.7000041660291783e+04 -5.4432413108625501e+07 
-4.2499999999999902e+00 -5.2525235355435596e-01 +6.9478972465330715e+00 +3.1525200311390464e+00 -5.0569314222818363e+01 +1.2564589377604138e+04 +4.4748263766408687e+04 -5.5414647361996487e+07 
-4.2999999999999901e+00 -5.2527767372172829e-01 +6.9491478780528633e+00 +3.1201950118395816e+00 -5.0072300213360066e+01 +1.2725773917724069e+04 +4.2502176651667665e+04 -5.6398195775600381e+07 
-4.3499999999999899e+00 -5.2530324341952606e-01 +6.9504102654997837e+00 +3.0876921717637962e+00 -4.9577173195567703e+01 +1.2886810420647094e+04 +4.0265120784684535e+04 -5.7382910191519193e+07 
-4.3999999999999897e+00 -5.2532906012687297e-01 +6.9516842417540134e+00 +3.0550166222103217e+00 -4.9084353775953538e+01 +1.3047683919603136e+04 +3.8040437745159608e+04 -5.8368642613298260e+07 
-4.4499999999999904e+00 -5.2535512132287265e-01 +6.9529696396944223e+00 +3.0221734754575218e+00 -4.8594262502527783e+01 +1.3208379423757913e+04 +3.5831468598564054e+04 -5.9355244897151962e+07 
-4.4999999999999902e+00 -5.2538142448667657e-01 +6.9542662922005940e+00 +2.9891678432554190e+00 -4.8107319978704936e+01 +1.3368881954141731e+04 +3.3641554927528086e+04 -6.0342568968890235e+07 
-4.5499999999999901e+00 -5.2540796709741444e-01 +6.9555740321499968e+00 +2.9560048377180852e+00 -4.7623946701076441e+01 +1.3529176524760973e+04 +3.1474037335774399e+04 -6.1330466719586179e+07 
-4.5999999999999899e+00 -5.2543474663423650e-01 +6.9568926924205963e+00 +2.9226895700851312e+00 -4.7144563210562573e+01 +1.3689248171905358e+04 +2.9332256838770983e+04 -6.2318790186529346e+07 
-4.6499999999999897e+00 -5.2546176057619909e-01 +6.9582221058930447e+00 +2.8892271527929858e+00 -4.6669590164205616e+01 +1.3849081903486956e+04 +2.7219555419617693e+04 -6.3307391232769132e+07 
-4.6999999999999904e+00 -5.2548900640252105e-01 +6.9595621054429424e+00 +2.8556227001237948e+00 -4.6199448016147777e+01 +1.4008662676434536e+04 +2.5139273344769626e+04 -6.4296121372218043e+07 
-4.7499999999999902e+00 -5.2551648159227127e-01 +6.9609125239488741e+00 +2.8218813226632888e+00 -4.5734557349820648e+01 +1.4167975546000878e+04 +2.3094751941299026e+04 -6.5284832780889377e+07 
-4.7999999999999901e+00 -5.2554418362464339e-01 +6.9622731942885876e+00 +2.7880081348569492e+00 -4.5275338742442273e+01 +1.4327005467225501e+04 +2.1089332549589293e+04 -6.6273376972574264e+07 
-4.8499999999999899e+00 -5.2557210997867720e-01 +6.9636439493397786e+00 +2.7540082466210514e+00 -4.4822212746272079e+01 +1.4485737516198467e+04 +1.9126356182086325e+04 -6.7261606277017474e+07 
-4.8999999999999897e+00 -5.2560025813359146e-01 +6.9650246219790759e+00 +2.7198867729353480e+00 -4.4375599910325207e+01 +1.4644156632542272e+04 +1.7209163914595942e+04 -6.8249372102597445e+07 
-4.9499999999999904e+00 -5.2562862556849310e-01 +6.9664150450823570e+00 +2.6856488269684280e+00 -4.3935920747402932e+01 +1.4802247808173752e+04 +1.5341096463237611e+04 -6.9236526227642342e+07 
-4.9999999999999902e+00 -5.2565720976248820e-01 +6.9678150515269737e+00 +2.6512995220959730e+00 -4.3503595845011787e+01 +1.4959996027682400e+04 +1.3525495174080752e+04 -7.0222920374309137e+07 
-5.0499999999999901e+00 -5.2568600819696010e-01 +6.9692244667645857e+00 +2.6168443339222462e+00 -4.3079052642666305e+01 +1.5117386388915073e+04 +1.1765699198581655e+04 -7.1208406738210857e+07 
