# multipoles
# s[mm] polynom_b[n=0][T/m^n] polynom_b[n=1][T/m^n] polynom_b[n=2][T/m^n] polynom_b[n=3][T/m^n] polynom_b[n=4][T/m^n] polynom_b[n=5][T/m^n] polynom_b[n=6][T/m^n] 
+0.0000000000000000e+00 -5.5283621894600976e-01 +7.2581844943655023e+00 +5.3538979547461309e+00 -2.5303591294785591e+01 +9.4767679806529559e+03 -2.4926094474686662e+05 -6.6234489254639305e+07 
-5.0000000000000003e-02 -5.5283754798387341e-01 +7.2581802232610988e+00 +5.3441119347798436e+00 -2.4841734369032277e+01 +9.7365299391156841e+03 -2.5250604153788331e+05 -6.7895497641221255e+07 
-1.0000000000000001e-01 -5.5283925496343711e-01 +7.2581965855886192e+00 +5.3339544608309426e+00 -2.4392876373196000e+01 +9.9950513323430278e+03 -2.5560602686600309e+05 -6.9553468489072785e+07 
-1.5000000000000002e-01 -5.5284133912845002e-01 +7.2582335304343779e+00 +5.3234303557082461e+00 -2.3956731857833446e+01 +1.0252198630400730e+04 -2.5856347307678274e+05 -7.1207336662663385e+07 
-2.0000000000000001e-01 -5.5284379972270270e-01 +7.2582910068867887e+00 +5.3125444458886024e+00 -2.3533015448055309e+01 +1.0507838209972408e+04 -2.6138095182375028e+05 -7.2856036419790626e+07 
-2.5000000000000000e-01 -5.5284663598999084e-01 +7.2583689640330267e+00 +5.3013015555337617e+00 -2.3121441694169462e+01 +1.0761836511701620e+04 -2.6406103534981440e+05 -7.4498502457941025e+07 
-2.9999999999999999e-01 -5.5284984717413677e-01 +7.2584673509614355e+00 +5.2897065110019437e+00 -2.2721725156656646e+01 +1.1014059912866021e+04 -2.6660629584502283e+05 -7.6133669033482566e+07 
-3.4999999999999998e-01 -5.5285343251897523e-01 +7.2585861167596324e+00 +5.2777641370936088e+00 -2.2333580344402659e+01 +1.1264374837061352e+04 -2.6901930588832148e+05 -7.7760470731745899e+07 
-3.9999999999999997e-01 -5.5285739126835076e-01 +7.2587252105179738e+00 +5.2654792581762555e+00 -2.1956721850127984e+01 +1.1512647713551511e+04 -2.7130263737045525e+05 -7.9377842157091230e+07 
-4.4999999999999996e-01 -5.5286172266613931e-01 +7.2588845813249891e+00 +5.2528567002234343e+00 -2.1590864163513071e+01 +1.1758744936209067e+04 -2.7345886302205618e+05 -8.0984717705955178e+07 
-4.9999999999999994e-01 -5.5286642595622582e-01 +7.2590641782723262e+00 +5.2399012884322023e+00 -2.1235721875225888e+01 +1.2002532913368357e+04 -2.7549055473715905e+05 -8.2580031849715799e+07 
-5.4999999999999993e-01 -5.5287150038252209e-01 +7.2592639504493865e+00 +5.2266178493220767e+00 -2.0891009457731542e+01 +1.2243878022027504e+04 -2.7740028536913270e+05 -8.4162718865221664e+07 
-5.9999999999999998e-01 -5.5287694518894825e-01 +7.2594838469474787e+00 +5.2130112083563773e+00 -2.0556441437991332e+01 +1.2482646662927005e+04 -2.7919062730425154e+05 -8.5731713174244374e+07 
-6.5000000000000002e-01 -5.5288275961942845e-01 +7.2597238168589584e+00 +5.1990861883027817e+00 -2.0231732341123191e+01 +1.2718705313987275e+04 -2.8086415301816829e+05 -8.7285949737058237e+07 
-7.0000000000000007e-01 -5.5288894291794233e-01 +7.2599838092757105e+00 +5.1848476187748807e+00 -1.9916596662781636e+01 +1.2951920267946340e+04 -2.8242343515632220e+05 -8.8824362263772517e+07 
-7.5000000000000011e-01 -5.5289549432844831e-01 +7.2602637732901441e+00 +5.1703003228791626e+00 -1.9610748889563439e+01 +1.3182157991807058e+04 -2.8387104645220959e+05 -9.0345885636910439e+07 
-8.0000000000000016e-01 -5.5290241309493771e-01 +7.2605636579951716e+00 +5.1554491268170128e+00 -1.9313903486986618e+01 +1.3409284865364263e+04 -2.8520955986797315e+05 -9.1849454137542203e+07 
-8.5000000000000020e-01 -5.5290969846141791e-01 +7.2608834124858097e+00 +5.1402988562409480e+00 -1.9025774995201310e+01 +1.3633167288447443e+04 -2.8644154770601267e+05 -9.3334002201483697e+07 
-9.0000000000000024e-01 -5.5291734967192130e-01 +7.2612229858554302e+00 +5.1248543381751661e+00 -1.8746077853385589e+01 +1.3853671623497088e+04 -2.8756958311195229e+05 -9.4798464012796804e+07 
-9.5000000000000029e-01 -5.5292536597048136e-01 +7.2615823271975772e+00 +5.1091203975479935e+00 -1.8474526470565348e+01 +1.4070664286743930e+04 -2.8859623954149446e+05 -9.6241774110449985e+07 
-1.0000000000000002e+00 -5.5293374660115224e-01 +7.2619613856096592e+00 +5.0931018596092912e+00 -1.8210835401060372e+01 +1.4284011685576801e+04 -2.8952408919289580e+05 -9.7662866971034959e+07 
-1.0500000000000003e+00 -5.5294249080801194e-01 +7.2623601101852842e+00 +5.0768035508294673e+00 -1.7954719001414592e+01 +1.4493580197454017e+04 -2.9035570596993587e+05 -9.9060676882824749e+07 
-1.1000000000000003e+00 -5.5295159783515380e-01 +7.2627784500193791e+00 +5.0602302982470659e+00 -1.7705891662447133e+01 +1.4699236177488347e+04 -2.9109366346718778e+05 -1.0043413795773527e+08 
-1.1500000000000004e+00 -5.5296106692668678e-01 +7.2632163542116768e+00 +5.0433869276615644e+00 -1.7464067936695017e+01 +1.4900846024170400e+04 -2.9174053399711708e+05 -1.0178218463809337e+08 
-1.2000000000000004e+00 -5.5297089732671845e-01 +7.2636737718568094e+00 +5.0262782624677236e+00 -1.7228962149381186e+01 +1.5098276194213453e+04 -2.9229889171687496e+05 -1.0310375173459281e+08 
-1.2500000000000004e+00 -5.5298108827940839e-01 +7.2641506520524857e+00 +5.0089091326143098e+00 -1.7000288708735340e+01 +1.5291392964231340e+04 -2.9277131017858995e+05 -1.0439777282877026e+08 
-1.3000000000000005e+00 -5.5299163902890058e-01 +7.2646469438964054e+00 +4.9912843619135696e+00 -1.6777762004774885e+01 +1.5480062781524884e+04 -2.9316036307077407e+05 -1.0566318267568152e+08 
-1.3500000000000005e+00 -5.5300254881937760e-01 +7.2651625964865403e+00 +4.9734087783875918e+00 -1.6561096401360334e+01 +1.5664151980817505e+04 -2.9346862434074742e+05 -1.0689891527630508e+08 
-1.4000000000000006e+00 -5.5301381689501594e-01 +7.2656975589214357e+00 +4.9552872064492144e+00 -1.6350006267380248e+01 +1.5843526985816472e+04 -2.9369866788497259e+05 -1.0810390519607493e+08 
-1.4500000000000006e+00 -5.5302544250002572e-01 +7.2662517803015074e+00 +4.9369244731604383e+00 -1.6144206002267655e+01 +1.6018054157130540e+04 -2.9385306745124847e+05 -1.0927708661047149e+08 
-1.5000000000000007e+00 -5.5303742487863061e-01 +7.2668252097243986e+00 +4.9183254053281287e+00 -1.5943409888080700e+01 +1.6187599858776073e+04 -2.9393439766352932e+05 -1.1041739370182043e+08 
-1.5500000000000007e+00 -5.5304976327506783e-01 +7.2674177962907640e+00 +4.8994948300846684e+00 -1.5747332276906834e+01 +1.6352030439865983e+04 -2.9394523271153576e+05 -1.1152376053180298e+08 
-1.6000000000000008e+00 -5.5306245693357403e-01 +7.2680294890993800e+00 +4.8804375705677030e+00 -1.5555687422856236e+01 +1.6511212366399388e+04 -2.9388814758893033e+05 -1.1259512198162283e+08 
-1.6500000000000008e+00 -5.5307550509844072e-01 +7.2686602372529121e+00 +4.8611584574389601e+00 -1.5368189715399973e+01 +1.6665011897161959e+04 -2.9376571618329082e+05 -1.1363041152084558e+08 
-1.7000000000000008e+00 -5.5308890701393920e-01 +7.2693099898515179e+00 +4.8416623153569009e+00 -1.5184553403780010e+01 +1.6813295448026962e+04 -2.9358051360452315e+05 -1.1462856365853310e+08 
-1.7500000000000009e+00 -5.5310266192436719e-01 +7.2699786959948600e+00 +4.8219539701266028e+00 -1.5004492686840976e+01 +1.6955929411197903e+04 -2.9333511542056571e+05 -1.1558851277257222e+08 
-1.8000000000000009e+00 -5.5311676907404872e-01 +7.2706663047891285e+00 +4.8020382501546006e+00 -1.4827722013876615e+01 +1.7092780102065415e+04 -2.9303209512439265e+05 -1.1650919269522579e+08 
-1.8500000000000010e+00 -5.5313122770729872e-01 +7.2713727653321456e+00 +4.7819199794399676e+00 -1.4653955445583458e+01 +1.7223713956081741e+04 -2.9267402951456653e+05 -1.1738953807546137e+08 
-1.9000000000000010e+00 -5.5314603706847887e-01 +7.2720980267267299e+00 +4.7616039872328972e+00 -1.4482907226491914e+01 +1.7348597268746795e+04 -2.9226349388180452e+05 -1.1822848262074618e+08 
-1.9500000000000011e+00 -5.5316119640194694e-01 +7.2728420380789132e+00 +4.7410950996814210e+00 -1.4314291698244052e+01 +1.7467296415227505e+04 -2.9180306278117292e+05 -1.1902496056127301e+08 
-2.0000000000000009e+00 -5.5317670495207971e-01 +7.2736047484899151e+00 +4.7203981435567979e+00 -1.4147822981331712e+01 +1.7579677755514527e+04 -2.9129531260503520e+05 -1.1977790603006715e+08 
-2.0500000000000007e+00 -5.5319256175171883e-01 +7.2743860921028363e+00 +4.6995183525028965e+00 -1.3983322483441629e+01 +1.7685614619436976e+04 -2.9074195379782759e+05 -1.2048633143635572e+08 
-2.1000000000000005e+00 -5.5320876498756544e-01 +7.2751859378165982e+00 +4.6784630103664364e+00 -1.3821070229291946e+01 +1.7785010956396680e+04 -2.9014106356080924e+05 -1.2114958446729927e+08 
-2.1500000000000004e+00 -5.5322531263479724e-01 +7.2760041368677353e+00 +4.6572400269880223e+00 -1.3661469124857012e+01 +1.7877779133115386e+04 -2.8948976830710104e+05 -1.2176710262394460e+08 
-2.2000000000000002e+00 -5.5324220266858226e-01 +7.2768405404924028e+00 +4.6358573086552077e+00 -1.3504922053942499e+01 +1.7963831609539295e+04 -2.8878519465404341e+05 -1.2233832402204597e+08 
-2.2500000000000000e+00 -5.5325943306412351e-01 +7.2776949999270792e+00 +4.6143227655718944e+00 -1.3351831887282106e+01 +1.8043080741244121e+04 -2.8802446935086022e+05 -1.2286268607919709e+08 
-2.2999999999999998e+00 -5.5327700179662642e-01 +7.2785673664093915e+00 +4.5926443061146331e+00 -1.3202601525969296e+01 +1.8115438935246948e+04 -2.8720471892195434e+05 -1.2333962656937601e+08 
-2.3499999999999996e+00 -5.5329490684130633e-01 +7.2794574911741847e+00 +4.5708298385875041e+00 -1.3057633733813834e+01 +1.8180818599142200e+04 -2.8632307105407194e+05 -1.2376858326600032e+08 
-2.3999999999999995e+00 -5.5331314617340610e-01 +7.2803652254611997e+00 +4.5488872740745938e+00 -1.2917331457484327e+01 +1.8239132064047819e+04 -2.8537665194886742e+05 -1.2414899341901693e+08 
-2.4499999999999993e+00 -5.5333171776816448e-01 +7.2812904205050044e+00 +4.5268245210167937e+00 -1.2782097409421876e+01 +1.8290291734709532e+04 -2.8436258977553126e+05 -1.2448029478768675e+08 
-2.4999999999999991e+00 -5.5335061960083132e-01 +7.2822329275429398e+00 +4.5046494880185568e+00 -1.2652334401057873e+01 +1.8334210009680457e+04 -2.8327801189228817e+05 -1.2476192508220461e+08 
-2.5499999999999989e+00 -5.5336984964667346e-01 +7.2831925978115786e+00 +4.4823700847055088e+00 -1.2528445189423600e+01 +1.8370799259755913e+04 -2.8212004616419389e+05 -1.2499332182425326e+08 
-2.5999999999999988e+00 -5.5338940588097008e-01 +7.2841692825490911e+00 +4.4599942210667578e+00 -1.2410832580040456e+01 +1.8399971847351237e+04 -2.8088582006115670e+05 -1.2517392248654382e+08 
-2.6499999999999986e+00 -5.5340928627900920e-01 +7.2851628329914782e+00 +4.4375298069010025e+00 -1.2299899276480893e+01 +1.8421640138751467e+04 -2.7957246191823424e+05 -1.2530316456253165e+08 
-2.6999999999999984e+00 -5.5342948881609388e-01 +7.2861731003743611e+00 +4.4149847530602004e+00 -1.2196047935038040e+01 +1.8435716471273656e+04 -2.7817710053972306e+05 -1.2538048534979823e+08 
-2.7499999999999982e+00 -5.5345001146751927e-01 +7.2871999359383581e+00 +4.3923669669052376e+00 -1.2099681427931021e+01 +1.8442113279076737e+04 -2.7669686286235100e+05 -1.2540532280965170e+08 
-2.7999999999999980e+00 -5.5347085220861580e-01 +7.2882431909149847e+00 +4.3696843605654836e+00 -1.2011202204592470e+01 +1.8440742865356569e+04 -2.7512887947324000e+05 -1.2537711400954808e+08 
-2.8499999999999979e+00 -5.5349200901470708e-01 +7.2893027165446878e+00 +4.3469448433877877e+00 -1.1931013092985474e+01 +1.8431517610036153e+04 -2.7347027775066008e+05 -1.2529529654676035e+08 
-2.8999999999999977e+00 -5.5351347986113564e-01 +7.2903783640620663e+00 +4.3241563266823428e+00 -1.1859516642629892e+01 +1.8414349836000267e+04 -2.7171818749851437e+05 -1.2515930761366208e+08 
-2.9499999999999975e+00 -5.5353526272325126e-01 +7.2914699847044906e+00 +4.3013267209338260e+00 -1.1797115516064530e+01 +1.8389151895055860e+04 -2.6986973754765489e+05 -1.2496858462668781e+08 
-2.9999999999999973e+00 -5.5355735557640673e-01 +7.2925774297066965e+00 +4.2784639360732379e+00 -1.1744212252703981e+01 +1.8355836148355378e+04 -2.6792205778299621e+05 -1.2472256504321486e+08 
-3.0499999999999972e+00 -5.5357975639597190e-01 +7.2937005503057790e+00 +4.2555758835463990e+00 -1.1701209467835715e+01 +1.8314314918892749e+04 -2.6587227751621971e+05 -1.2442068607624181e+08 
-3.0999999999999970e+00 -5.5360246315732198e-01 +7.2948391977365015e+00 +4.2326704739221004e+00 -1.1668509673722742e+01 +1.8264500553697020e+04 -2.6371752690552030e+05 -1.2406238509990364e+08 
-3.1499999999999968e+00 -5.5362547383584426e-01 +7.2959932232356133e+00 +4.2097556191972885e+00 -1.1646515442397080e+01 +1.8206305358255067e+04 -2.6145493569213399e+05 -1.2364709920067360e+08 
-3.1999999999999966e+00 -5.5364878640693482e-01 +7.2971624780387589e+00 +4.1868392304712474e+00 -1.1635629295369061e+01 +1.8139641670261321e+04 -2.5908163402400468e+05 -1.2317426571132475e+08 
-3.2499999999999964e+00 -5.5367239884598551e-01 +7.2983468133795064e+00 +4.1639292183191134e+00 -1.1636253656256368e+01 +1.8064421827538517e+04 -2.5659475288778316e+05 -1.2264332191267595e+08 
-3.2999999999999963e+00 -5.5369630912841472e-01 +7.2995460804937551e+00 +4.1410334954042360e+00 -1.1648791022559655e+01 +1.7980558126313517e+04 -2.5399142272583561e+05 -1.2205370486458518e+08 
-3.3499999999999961e+00 -5.5372051522964050e-01 +7.3007601306141519e+00 +4.1181599735043228e+00 -1.1673643761444859e+01 +1.7887962879498602e+04 -2.5126877503492619e+05 -1.2140485170961672e+08 
-3.3999999999999959e+00 -5.5374501512508745e-01 +7.3019888149784782e+00 +4.0953165646011609e+00 -1.1711214427095538e+01 +1.7786548394469493e+04 -2.4842393984250224e+05 -1.2069619955499126e+08 
-3.4499999999999957e+00 -5.5376980679019194e-01 +7.3032319848192326e+00 +4.0725111811047388e+00 -1.1761905353533654e+01 +1.7676226970657379e+04 -2.4545404899635288e+05 -1.1992718546703295e+08 
-3.4999999999999956e+00 -5.5379488820039113e-01 +7.3044894913672973e+00 +4.0497517350984689e+00 -1.1826118790078228e+01 +1.7556910911322291e+04 -2.4235623509909221e+05 -1.1909724652393554e+08 
-3.5499999999999954e+00 -5.5382025733113216e-01 +7.3057611858607672e+00 +4.0270461385617473e+00 -1.1904257287969871e+01 +1.7428512529729891e+04 -2.3912762823897591e+05 -1.1820581989666644e+08 
-3.5999999999999952e+00 -5.5384591215787404e-01 +7.3070469195292063e+00 +4.0044023051978268e+00 -1.1996723014956121e+01 +1.7290944086410243e+04 -2.3576536179044915e+05 -1.1725234237763493e+08 
-3.6499999999999950e+00 -5.5387185065607691e-01 +7.3083465436062527e+00 +3.9818281474512105e+00 -1.2103918317415459e+01 +1.7144117879362337e+04 -2.3226656759895195e+05 -1.1623625102529433e+08 
-3.6999999999999948e+00 -5.5389807080121900e-01 +7.3096599093228551e+00 +3.9593315803075622e+00 -1.2226245417635978e+01 +1.6987946137137780e+04 -2.2862837859004503e+05 -1.1515698242953715e+08 
-3.7499999999999947e+00 -5.5392457056875932e-01 +7.3109868679130656e+00 +3.9369205142747159e+00 -1.2364106656166568e+01 +1.6822341208687882e+04 -2.2484792675396358e+05 -1.1401397399013233e+08 
-3.7999999999999945e+00 -5.5395134793418799e-01 +7.3123272706065592e+00 +3.9146028644062607e+00 -1.2517904175744189e+01 +1.6647215322602307e+04 -2.2092234577156484e+05 -1.1280666230435097e+08 
-3.8499999999999943e+00 -5.5397840087298633e-01 +7.3136809686356186e+00 +3.8923865434959248e+00 -1.2688040233203800e+01 +1.6462480767465560e+04 -2.1684876837095048e+05 -1.1153448437351859e+08 
-3.8999999999999941e+00 -5.5400572736066289e-01 +7.3150478132290591e+00 +3.8702794680941217e+00 -1.2874916927962182e+01 +1.6268049730315721e+04 -2.1262432863604682e+05 -1.1019687650865567e+08 
-3.9499999999999940e+00 -5.5403332537269767e-01 +7.3164276556159846e+00 +3.8482895492465730e+00 -1.3078936369564522e+01 +1.6063834547022554e+04 -2.0824616057886567e+05 -1.0879327603203477e+08 
-3.9999999999999938e+00 -5.5406119288460920e-01 +7.3178203470282517e+00 +3.8264247039351509e+00 -1.3300500769567897e+01 +1.5849747396280718e+04 -2.0371139737277039e+05 -1.0732311921307281e+08 
-4.0499999999999936e+00 -5.5408932773404951e-01 +7.3192257329752080e+00 +3.8046902755440244e+00 -1.3539831478127129e+01 +1.5625780364252096e+04 -1.9901889469009885e+05 -1.0578638727575175e+08 
-4.0999999999999934e+00 -5.5411772720573393e-01 +7.3206436314055399e+00 +3.7830813531075904e+00 -1.3796519250896703e+01 +1.5392244735864826e+04 -1.9417379569000617e+05 -1.0418521409227657e+08 
-4.1499999999999932e+00 -5.5414638844568498e-01 +7.3220738522003783e+00 +3.7615904680128369e+00 -1.4070020099893593e+01 +1.5149532334996387e+04 -1.8918267759922697e+05 -1.0252227059337035e+08 
-4.1999999999999931e+00 -5.5417530859993258e-01 +7.3235162052365004e+00 +3.7402101533417378e+00 -1.4359789891665496e+01 +1.4898034933521472e+04 -1.8405211882992883e+05 -1.0080022732039146e+08 
-4.2499999999999929e+00 -5.5420448481452256e-01 +7.3249705003946639e+00 +3.7189329442195862e+00 -1.4665284661428453e+01 +1.4638144253260665e+04 -1.7878869640505905e+05 -9.9021754494869664e+07 
-4.2999999999999927e+00 -5.5423391423548418e-01 +7.3264365475528201e+00 +3.6977513727312288e+00 -1.4985960345294913e+01 +1.4370252096528682e+04 -1.7339898811133657e+05 -9.7189522869791418e+07 
-4.3499999999999925e+00 -5.5426359400885461e-01 +7.3279141565909525e+00 +3.6766579716872387e+00 -1.5321272982290250e+01 +1.4094750249041910e+04 -1.6788957084344717e+05 -9.5306203094652459e+07 
-4.3999999999999924e+00 -5.5429352128067089e-01 +7.3294031373910542e+00 +3.6556452740970609e+00 -1.5670678709287882e+01 +1.3812030488843280e+04 -1.6226702063916196e+05 -9.3374465756037340e+07 
-4.4499999999999922e+00 -5.5432369319697272e-01 +7.3309032998306991e+00 +3.6347058125340519e+00 -1.6033633505455967e+01 +1.3522484614067727e+04 -1.5653791477370131e+05 -9.1396981603769526e+07 
-4.4999999999999920e+00 -5.5435410690379416e-01 +7.3324144537904807e+00 +3.6138321190374860e+00 -1.6409593493243278e+01 +1.3226504429848730e+04 -1.5070882928384884e+05 -8.9376421401114672e+07 
-4.5499999999999918e+00 -5.5438475954717326e-01 +7.3339364091510282e+00 +3.5930167258899193e+00 -1.6798014814208582e+01 +1.2924481739347322e+04 -1.4478634001580381e+05 -8.7315455912875488e+07 
-4.5999999999999917e+00 -5.5441564827315781e-01 +7.3354689757905831e+00 +3.5722521670705825e+00 -1.7198353527030978e+01 +1.2616808301960682e+04 -1.3877702347293432e+05 -8.5216755611886606e+07 
-4.6499999999999915e+00 -5.5444677022775868e-01 +7.3370119635939322e+00 +3.5515309698378017e+00 -1.7610065999112258e+01 +1.2303876058109572e+04 -1.3268745347504196e+05 -8.3082992186676517e+07 
-4.6999999999999913e+00 -5.5447812255702955e-01 +7.3385651824399813e+00 +3.5308456694480292e+00 -1.8032608357564087e+01 +1.1986076733048574e+04 -1.2652420585823608e+05 -8.0916835874166235e+07 
-4.7499999999999911e+00 -5.5450970240700415e-01 +7.3401284422084014e+00 +3.5101887969232215e+00 -1.8465436818925706e+01 +1.1663802170431656e+04 -1.2029385552794804e+05 -7.8720957716859475e+07 
-4.7999999999999909e+00 -5.5454150692370308e-01 +7.3417015527839506e+00 +3.4895528816704058e+00 -1.8908007797900002e+01 +1.1337444256016839e+04 -1.1400297584384886e+05 -7.6498029036152914e+07 
-4.8499999999999908e+00 -5.5457353325316205e-01 +7.3432843240458734e+00 +3.4689304558413481e+00 -1.9359777528040524e+01 +1.1007394800693328e+04 -1.0765814150585543e+05 -7.4250720638033167e+07 
-4.8999999999999906e+00 -5.5460577854140714e-01 +7.3448765658763433e+00 +3.4483140496581557e+00 -1.9820202392231046e+01 +1.0674045673824012e+04 -1.0126592592171772e+05 -7.1981703742753893e+07 
-4.9499999999999904e+00 -5.5463823993446626e-01 +7.3464780881588636e+00 +3.4276961939248047e+00 -2.0288738850984892e+01 +1.0337788729117497e+04 -9.4832901800982305e+04 -6.9693649459887102e+07 
-4.9999999999999902e+00 -5.5467091457835471e-01 +7.3480887007736309e+00 +3.4070694180636565e+00 -2.0764843265638810e+01 +9.9990158532564201e+03 -8.8365642587172537e+04 -6.7389229101308733e+07 
-5.0499999999999901e+00 -5.5470379961908811e-01 +7.3497082136045275e+00 +3.3864262509610987e+00 -2.1247972164109573e+01 +9.6581189569284525e+03 -8.1870720322977941e+04 -6.5071114170784980e+07 
