# trajectory
# s[mm] rx[mm] ry[mm] rz[mm] px[rad] py[rad] pz[rad]
0.0000000000000000e+00 +8.5980000000000008e+00 +0.0000000000000000e+00 +0.0000000000000000e+00 +0.0000000000000000e+00 +0.0000000000000000e+00 +1.0000000000000000e+00
-5.0000000000000003e-02 +8.5979999309532467e+00 +0.0000000000000000e+00 -4.9999999999936436e-02 +2.7618706061929334e-06 +0.0000000000000000e+00 +9.9999999999618605e-01
-1.0000000000000001e-01 +8.5979997238128778e+00 +0.0000000000000000e+00 -9.9999999999491468e-02 +5.5237448956521129e-06 +0.0000000000000000e+00 +9.9999999998474409e-01
-1.5000000000000002e-01 +8.5979993785786650e+00 +0.0000000000000000e+00 -1.4999999999828373e-01 +8.2856246473931377e-06 +0.0000000000000000e+00 +9.9999999996567424e-01
-2.0000000000000001e-01 +8.5979988952502922e+00 +0.0000000000000000e+00 -1.9999999999593177e-01 +1.1047511637106316e-05 +0.0000000000000000e+00 +9.9999999993897626e-01
-2.5000000000000000e-01 +8.5979982738273524e+00 +0.0000000000000000e+00 -2.4999999999205422e-01 +1.3809407637156748e-05 +0.0000000000000000e+00 +9.9999999990465016e-01
-2.9999999999999999e-01 +8.5979975143093501e+00 +0.0000000000000000e+00 -2.9999999998626964e-01 +1.6571314416584407e-05 +0.0000000000000000e+00 +9.9999999986269583e-01
-3.4999999999999998e-01 +8.5979966166957027e+00 +0.0000000000000000e+00 -3.4999999997819664e-01 +1.9333233741104227e-05 +0.0000000000000000e+00 +9.9999999981311305e-01
-3.9999999999999997e-01 +8.5979955809857387e+00 +0.0000000000000000e+00 -3.9999999996745378e-01 +2.2095167373106183e-05 +0.0000000000000000e+00 +9.9999999975590181e-01
-4.4999999999999996e-01 +8.5979944071786978e+00 +0.0000000000000000e+00 -4.4999999995365969e-01 +2.4857117071655375e-05 +0.0000000000000000e+00 +9.9999999969106190e-01
-4.9999999999999994e-01 +8.5979930952737345e+00 +0.0000000000000000e+00 -4.9999999993643285e-01 +2.7619084592492104e-05 +0.0000000000000000e+00 +9.9999999961859309e-01
-5.4999999999999993e-01 +8.5979916452699126e+00 +0.0000000000000000e+00 -5.4999999991539184e-01 +3.0381071688031961e-05 +0.0000000000000000e+00 +9.9999999953849528e-01
-5.9999999999999998e-01 +8.5979900571662107e+00 +0.0000000000000000e+00 -5.9999999989015518e-01 +3.3143080107365908e-05 +0.0000000000000000e+00 +9.9999999945076812e-01
-6.5000000000000002e-01 +8.5979883309615186e+00 +0.0000000000000000e+00 -6.4999999986034140e-01 +3.5905111596260352e-05 +0.0000000000000000e+00 +9.9999999935541151e-01
-7.0000000000000007e-01 +8.5979864666546391e+00 +0.0000000000000000e+00 -6.9999999982556915e-01 +3.8667167897157231e-05 +0.0000000000000000e+00 +9.9999999925242511e-01
-7.5000000000000011e-01 +8.5979844642442878e+00 +0.0000000000000000e+00 -7.4999999978545673e-01 +4.1429250749174102e-05 +0.0000000000000000e+00 +9.9999999914180859e-01
-8.0000000000000016e-01 +8.5979823237290933e+00 +0.0000000000000000e+00 -7.9999999973962277e-01 +4.4191361888104198e-05 +0.0000000000000000e+00 +9.9999999902356174e-01
-8.5000000000000020e-01 +8.5979800451075992e+00 +0.0000000000000000e+00 -8.4999999968768569e-01 +4.6953503046416537e-05 +0.0000000000000000e+00 +9.9999999889768421e-01
-9.0000000000000024e-01 +8.5979776283782599e+00 +0.0000000000000000e+00 -8.9999999962926402e-01 +4.9715675953255982e-05 +0.0000000000000000e+00 +9.9999999876417567e-01
-9.5000000000000029e-01 +8.5979750735394465e+00 +0.0000000000000000e+00 -9.4999999956397607e-01 +5.2477882334443321e-05 +0.0000000000000000e+00 +9.9999999862303579e-01
-1.0000000000000002e+00 +8.5979723805894412e+00 +0.0000000000000000e+00 -9.9999999949144036e-01 +5.5240123912475353e-05 +0.0000000000000000e+00 +9.9999999847426424e-01
-1.0500000000000003e+00 +8.5979695495264412e+00 +0.0000000000000000e+00 -1.0499999994112752e+00 +5.8002402406524970e-05 +0.0000000000000000e+00 +9.9999999831786057e-01
-1.1000000000000003e+00 +8.5979665803485581e+00 +0.0000000000000000e+00 -1.0999999993230991e+00 +6.0764719532441221e-05 +0.0000000000000000e+00 +9.9999999815382434e-01
-1.1500000000000004e+00 +8.5979634730538166e+00 +0.0000000000000000e+00 -1.1499999992265304e+00 +6.3527077002749395e-05 +0.0000000000000000e+00 +9.9999999798215511e-01
-1.2000000000000004e+00 +8.5979602276401579e+00 +0.0000000000000000e+00 -1.1999999991211874e+00 +6.6289476526651108e-05 +0.0000000000000000e+00 +9.9999999780285254e-01
-1.2500000000000004e+00 +8.5979568441054361e+00 +0.0000000000000000e+00 -1.2499999990066883e+00 +6.9051919810024371e-05 +0.0000000000000000e+00 +9.9999999761591607e-01
-1.3000000000000005e+00 +8.5979533224474203e+00 +0.0000000000000000e+00 -1.2999999988826516e+00 +7.1814408555423664e-05 +0.0000000000000000e+00 +9.9999999742134527e-01
-1.3500000000000005e+00 +8.5979496626637957e+00 +0.0000000000000000e+00 -1.3499999987486955e+00 +7.4576944462080035e-05 +0.0000000000000000e+00 +9.9999999721913957e-01
-1.4000000000000006e+00 +8.5979458647521607e+00 +0.0000000000000000e+00 -1.3999999986044382e+00 +7.7339529225901125e-05 +0.0000000000000000e+00 +9.9999999700929854e-01
-1.4500000000000006e+00 +8.5979419287100303e+00 +0.0000000000000000e+00 -1.4499999984494980e+00 +8.0102164539471308e-05 +0.0000000000000000e+00 +9.9999999679182150e-01
-1.5000000000000007e+00 +8.5979378545348357e+00 +0.0000000000000000e+00 -1.4999999982834931e+00 +8.2864852092051728e-05 +0.0000000000000000e+00 +9.9999999656670802e-01
-1.5500000000000007e+00 +8.5979336422239232e+00 +0.0000000000000000e+00 -1.5499999981060415e+00 +8.5627593569580367e-05 +0.0000000000000000e+00 +9.9999999633395753e-01
-1.6000000000000008e+00 +8.5979292917745536e+00 +0.0000000000000000e+00 -1.5999999979167614e+00 +8.8390390654672157e-05 +0.0000000000000000e+00 +9.9999999609356938e-01
-1.6500000000000008e+00 +8.5979248031839042e+00 +0.0000000000000000e+00 -1.6499999977152711e+00 +9.1153245026619016e-05 +0.0000000000000000e+00 +9.9999999584554289e-01
-1.7000000000000008e+00 +8.5979201764490689e+00 +0.0000000000000000e+00 -1.6999999975011884e+00 +9.3916158361389947e-05 +0.0000000000000000e+00 +9.9999999558987751e-01
-1.7500000000000009e+00 +8.5979154115670582e+00 +0.0000000000000000e+00 -1.7499999972741314e+00 +9.6679132331631087e-05 +0.0000000000000000e+00 +9.9999999532657258e-01
-1.8000000000000009e+00 +8.5979105085347971e+00 +0.0000000000000000e+00 -1.7999999970337182e+00 +9.9442168606665821e-05 +0.0000000000000000e+00 +9.9999999505562742e-01
-1.8500000000000010e+00 +8.5979054673491309e+00 +0.0000000000000000e+00 -1.8499999967795666e+00 +1.0220526885249482e-04 +0.0000000000000000e+00 +9.9999999477704138e-01
-1.9000000000000010e+00 +8.5979002880068176e+00 +0.0000000000000000e+00 -1.8999999965112948e+00 +1.0496843473179612e-04 +0.0000000000000000e+00 +9.9999999449081367e-01
-1.9500000000000011e+00 +8.5978949705045356e+00 +0.0000000000000000e+00 -1.9499999962285206e+00 +1.0773166790392520e-04 +0.0000000000000000e+00 +9.9999999419694363e-01
-2.0000000000000009e+00 +8.5978895148388776e+00 +0.0000000000000000e+00 -1.9999999959308619e+00 +1.1049497002491506e-04 +0.0000000000000000e+00 +9.9999999389543059e-01
-2.0500000000000007e+00 +8.5978839210063551e+00 +0.0000000000000000e+00 -2.0499999956179362e+00 +1.1325834274719612e-04 +0.0000000000000000e+00 +9.9999999358627367e-01
-2.1000000000000005e+00 +8.5978781890033975e+00 +0.0000000000000000e+00 -2.0999999952893615e+00 +1.1602178771651443e-04 +0.0000000000000000e+00 +9.9999999326947220e-01
-2.1500000000000004e+00 +8.5978723188263508e+00 +0.0000000000000000e+00 -2.1499999949447557e+00 +1.1878530656884989e-04 +0.0000000000000000e+00 +9.9999999294502528e-01
-2.2000000000000002e+00 +8.5978663104714812e+00 +0.0000000000000000e+00 -2.1999999945837363e+00 +1.2154890093013617e-04 +0.0000000000000000e+00 +9.9999999261293215e-01
-2.2500000000000000e+00 +8.5978601639349730e+00 +0.0000000000000000e+00 -2.2499999942059214e+00 +1.2431257241626070e-04 +0.0000000000000000e+00 +9.9999999227319203e-01
-2.2999999999999998e+00 +8.5978538792129289e+00 +0.0000000000000000e+00 -2.2999999938109283e+00 +1.2707632263306480e-04 +0.0000000000000000e+00 +9.9999999192580402e-01
-2.3499999999999996e+00 +8.5978474563013716e+00 +0.0000000000000000e+00 -2.3499999933983746e+00 +1.2984015317634370e-04 +0.0000000000000000e+00 +9.9999999157076724e-01
-2.3999999999999995e+00 +8.5978408951962457e+00 +0.0000000000000000e+00 -2.3999999929678779e+00 +1.3260406563184656e-04 +0.0000000000000000e+00 +9.9999999120808081e-01
-2.4499999999999993e+00 +8.5978341958934159e+00 +0.0000000000000000e+00 -2.4499999925190554e+00 +1.3536806157527661e-04 +0.0000000000000000e+00 +9.9999999083774382e-01
-2.4999999999999991e+00 +8.5978273583886704e+00 +0.0000000000000000e+00 -2.4999999920515248e+00 +1.3813214257229109e-04 +0.0000000000000000e+00 +9.9999999045975552e-01
-2.5499999999999989e+00 +8.5978203826777158e+00 +0.0000000000000000e+00 -2.5499999915649036e+00 +1.4089631017850137e-04 +0.0000000000000000e+00 +9.9999999007411478e-01
-2.5999999999999988e+00 +8.5978132687561839e+00 +0.0000000000000000e+00 -2.5999999910588087e+00 +1.4366056593947304e-04 +0.0000000000000000e+00 +9.9999998968082082e-01
-2.6499999999999986e+00 +8.5978060166196268e+00 +0.0000000000000000e+00 -2.6499999905328582e+00 +1.4642491139072586e-04 +0.0000000000000000e+00 +9.9999998927987255e-01
-2.6999999999999984e+00 +8.5977986262635238e+00 +0.0000000000000000e+00 -2.6999999899866687e+00 +1.4918934805773385e-04 +0.0000000000000000e+00 +9.9999998887126906e-01
-2.7499999999999982e+00 +8.5977910976832757e+00 +0.0000000000000000e+00 -2.7499999894198575e+00 +1.5195387745592536e-04 +0.0000000000000000e+00 +9.9999998845500937e-01
-2.7999999999999980e+00 +8.5977834308742072e+00 +0.0000000000000000e+00 -2.7999999888320417e+00 +1.5471850109068306e-04 +0.0000000000000000e+00 +9.9999998803109247e-01
-2.8499999999999979e+00 +8.5977756258315701e+00 +0.0000000000000000e+00 -2.8499999882228391e+00 +1.5748322045734407e-04 +0.0000000000000000e+00 +9.9999998759951736e-01
-2.8999999999999977e+00 +8.5977676825505416e+00 +0.0000000000000000e+00 -2.8999999875918658e+00 +1.6024803704119993e-04 +0.0000000000000000e+00 +9.9999998716028304e-01
-2.9499999999999975e+00 +8.5977596010262225e+00 +0.0000000000000000e+00 -2.9499999869387397e+00 +1.6301295231749662e-04 +0.0000000000000000e+00 +9.9999998671338841e-01
-2.9999999999999973e+00 +8.5977513812536408e+00 +0.0000000000000000e+00 -2.9999999862630773e+00 +1.6577796775143472e-04 +0.0000000000000000e+00 +9.9999998625883246e-01
-3.0499999999999972e+00 +8.5977430232277534e+00 +0.0000000000000000e+00 -3.0499999855644955e+00 +1.6854308479816930e-04 +0.0000000000000000e+00 +9.9999998579661409e-01
-3.0999999999999970e+00 +8.5977345269434426e+00 +0.0000000000000000e+00 -3.0999999848426110e+00 +1.7130830490281007e-04 +0.0000000000000000e+00 +9.9999998532673218e-01
-3.1499999999999968e+00 +8.5977258923955215e+00 +0.0000000000000000e+00 -3.1499999840970410e+00 +1.7407362950042137e-04 +0.0000000000000000e+00 +9.9999998484918562e-01
-3.1999999999999966e+00 +8.5977171195787285e+00 +0.0000000000000000e+00 -3.1999999833274018e+00 +1.7683906001602219e-04 +0.0000000000000000e+00 +9.9999998436397330e-01
-3.2499999999999964e+00 +8.5977082084877310e+00 +0.0000000000000000e+00 -3.2499999825333106e+00 +1.7960459786458627e-04 +0.0000000000000000e+00 +9.9999998387109412e-01
-3.2999999999999963e+00 +8.5976991591171288e+00 +0.0000000000000000e+00 -3.2999999817143837e+00 +1.8237024445104209e-04 +0.0000000000000000e+00 +9.9999998337054685e-01
-3.3499999999999961e+00 +8.5976899714614508e+00 +0.0000000000000000e+00 -3.3499999808702374e+00 +1.8513600117027289e-04 +0.0000000000000000e+00 +9.9999998286233038e-01
-3.3999999999999959e+00 +8.5976806455151547e+00 +0.0000000000000000e+00 -3.3999999800004885e+00 +1.8790186940711672e-04 +0.0000000000000000e+00 +9.9999998234644361e-01
-3.4499999999999957e+00 +8.5976711812726290e+00 +0.0000000000000000e+00 -3.4499999791047538e+00 +1.9066785053636646e-04 +0.0000000000000000e+00 +9.9999998182288530e-01
-3.4999999999999956e+00 +8.5976615787281965e+00 +0.0000000000000000e+00 -3.4999999781826494e+00 +1.9343394592276987e-04 +0.0000000000000000e+00 +9.9999998129165424e-01
-3.5499999999999954e+00 +8.5976518378761106e+00 +0.0000000000000000e+00 -3.5499999772337913e+00 +1.9620015692102964e-04 +0.0000000000000000e+00 +9.9999998075274921e-01
-3.5999999999999952e+00 +8.5976419587105557e+00 +0.0000000000000000e+00 -3.5999999762577963e+00 +1.9896648487580332e-04 +0.0000000000000000e+00 +9.9999998020616898e-01
-3.6499999999999950e+00 +8.5976319412256519e+00 +0.0000000000000000e+00 -3.6499999752542802e+00 +2.0173293112170346e-04 +0.0000000000000000e+00 +9.9999997965191223e-01
-3.6999999999999948e+00 +8.5976217854154502e+00 +0.0000000000000000e+00 -3.6999999742228593e+00 +2.0449949698329758e-04 +0.0000000000000000e+00 +9.9999997908997784e-01
-3.7499999999999947e+00 +8.5976114912739376e+00 +0.0000000000000000e+00 -3.7499999731631499e+00 +2.0726618377510820e-04 +0.0000000000000000e+00 +9.9999997852036449e-01
-3.7999999999999945e+00 +8.5976010587950356e+00 +0.0000000000000000e+00 -3.7999999720747679e+00 +2.1003299280161286e-04 +0.0000000000000000e+00 +9.9999997794307094e-01
-3.8499999999999943e+00 +8.5975904879725995e+00 +0.0000000000000000e+00 -3.8499999709573292e+00 +2.1279992535724415e-04 +0.0000000000000000e+00 +9.9999997735809587e-01
-3.8999999999999941e+00 +8.5975797788004193e+00 +0.0000000000000000e+00 -3.8999999698104495e+00 +2.1556698272638973e-04 +0.0000000000000000e+00 +9.9999997676543795e-01
-3.9499999999999940e+00 +8.5975689312722245e+00 +0.0000000000000000e+00 -3.9499999686337448e+00 +2.1833416618339236e-04 +0.0000000000000000e+00 +9.9999997616509584e-01
-3.9999999999999938e+00 +8.5975579453816788e+00 +0.0000000000000000e+00 -3.9999999674268309e+00 +2.2110147699254989e-04 +0.0000000000000000e+00 +9.9999997555706832e-01
-4.0499999999999936e+00 +8.5975468211223820e+00 +0.0000000000000000e+00 -4.0499999661893238e+00 +2.2386891640798054e-04 +0.0000000000000000e+00 +9.9999997494135395e-01
-4.0999999999999934e+00 +8.5975355584878734e+00 +0.0000000000000000e+00 -4.0999999649208387e+00 +2.2663648567214056e-04 +0.0000000000000000e+00 +9.9999997431795151e-01
-4.1499999999999932e+00 +8.5975241574716303e+00 +0.0000000000000000e+00 -4.1499999636209912e+00 +2.2940418601434190e-04 +0.0000000000000000e+00 +9.9999997368685956e-01
-4.1999999999999931e+00 +8.5975126180670678e+00 +0.0000000000000000e+00 -4.1999999622893966e+00 +2.3217201865061737e-04 +0.0000000000000000e+00 +9.9999997304807675e-01
-4.2499999999999929e+00 +8.5975009402675404e+00 +0.0000000000000000e+00 -4.2499999609256705e+00 +2.3493998478372078e-04 +0.0000000000000000e+00 +9.9999997240160166e-01
-4.2999999999999927e+00 +8.5974891240663442e+00 +0.0000000000000000e+00 -4.2999999595294280e+00 +2.3770808560312680e-04 +0.0000000000000000e+00 +9.9999997174743294e-01
-4.3499999999999925e+00 +8.5974771694567149e+00 +0.0000000000000000e+00 -4.3499999581002848e+00 +2.4047632228503104e-04 +0.0000000000000000e+00 +9.9999997108556915e-01
-4.3999999999999924e+00 +8.5974650764318312e+00 +0.0000000000000000e+00 -4.3999999566378563e+00 +2.4324469599235006e-04 +0.0000000000000000e+00 +9.9999997041600885e-01
-4.4499999999999922e+00 +8.5974528449848133e+00 +0.0000000000000000e+00 -4.4499999551417577e+00 +2.4601320787472129e-04 +0.0000000000000000e+00 +9.9999996973875072e-01
-4.4999999999999920e+00 +8.5974404751087228e+00 +0.0000000000000000e+00 -4.4999999536116038e+00 +2.4878185906850308e-04 +0.0000000000000000e+00 +9.9999996905379318e-01
-4.5499999999999918e+00 +8.5974279667965661e+00 +0.0000000000000000e+00 -4.5499999520470089e+00 +2.5155065069677474e-04 +0.0000000000000000e+00 +9.9999996836113492e-01
-4.5999999999999917e+00 +8.5974153200412946e+00 +0.0000000000000000e+00 -4.5999999504475886e+00 +2.5431958386933643e-04 +0.0000000000000000e+00 +9.9999996766077448e-01
-4.6499999999999915e+00 +8.5974025348358030e+00 +0.0000000000000000e+00 -4.6499999488129582e+00 +2.5708865968270916e-04 +0.0000000000000000e+00 +9.9999996695271032e-01
-4.6999999999999913e+00 +8.5973896111729307e+00 +0.0000000000000000e+00 -4.6999999471427314e+00 +2.5985787922013485e-04 +0.0000000000000000e+00 +9.9999996623694110e-01
-4.7499999999999911e+00 +8.5973765490454674e+00 +0.0000000000000000e+00 -4.7499999454365236e+00 +2.6262724355157635e-04 +0.0000000000000000e+00 +9.9999996551346526e-01
-4.7999999999999909e+00 +8.5973633484461445e+00 +0.0000000000000000e+00 -4.7999999436939493e+00 +2.6539675373371725e-04 +0.0000000000000000e+00 +9.9999996478228137e-01
-4.8499999999999908e+00 +8.5973500093676449e+00 +0.0000000000000000e+00 -4.8499999419146231e+00 +2.6816641080996202e-04 +0.0000000000000000e+00 +9.9999996404338787e-01
-4.8999999999999906e+00 +8.5973365318025987e+00 +0.0000000000000000e+00 -4.8999999400981595e+00 +2.7093621581043598e-04 +0.0000000000000000e+00 +9.9999996329678331e-01
-4.9499999999999904e+00 +8.5973229157435824e+00 +0.0000000000000000e+00 -4.9499999382441731e+00 +2.7370616975198523e-04 +0.0000000000000000e+00 +9.9999996254246615e-01
-4.9999999999999902e+00 +8.5973091611831247e+00 +0.0000000000000000e+00 -4.9999999363522774e+00 +2.7647627363817663e-04 +0.0000000000000000e+00 +9.9999996178043482e-01
-5.0499999999999901e+00 +8.5972952681137027e+00 +0.0000000000000000e+00 -5.0499999344220878e+00 +2.7924652845929784e-04 +0.0000000000000000e+00 +9.9999996101068789e-01
-5.0999999999999899e+00 +8.5972812365277456e+00 +0.0000000000000000e+00 -5.0999999324532181e+00 +2.8201693519235721e-04 +0.0000000000000000e+00 +9.9999996023322379e-01
-5.1499999999999897e+00 +8.5972670664176345e+00 +0.0000000000000000e+00 -5.1499999304452819e+00 +2.8478749480108384e-04 +0.0000000000000000e+00 +9.9999995944804099e-01
-5.1999999999999895e+00 +8.5972527577757010e+00 +0.0000000000000000e+00 -5.1999999283978937e+00 +2.8755820823592751e-04 +0.0000000000000000e+00 +9.9999995865513802e-01
-5.2499999999999893e+00 +8.5972383105942303e+00 +0.0000000000000000e+00 -5.2499999263106671e+00 +2.9032907643405866e-04 +0.0000000000000000e+00 +9.9999995785451323e-01
-5.2999999999999892e+00 +8.5972237248654615e+00 +0.0000000000000000e+00 -5.2999999241832159e+00 +2.9310010031936834e-04 +0.0000000000000000e+00 +9.9999995704616507e-01
-5.3499999999999890e+00 +8.5972090005815875e+00 +0.0000000000000000e+00 -5.3499999220151544e+00 +2.9587128080246826e-04 +0.0000000000000000e+00 +9.9999995623009208e-01
-5.3999999999999888e+00 +8.5971941377347552e+00 +0.0000000000000000e+00 -5.3999999198060964e+00 +2.9864261878069070e-04 +0.0000000000000000e+00 +9.9999995540629261e-01
-5.4499999999999886e+00 +8.5971791363170684e+00 +0.0000000000000000e+00 -5.4499999175556546e+00 +3.0141411513808842e-04 +0.0000000000000000e+00 +9.9999995457476509e-01
-5.4999999999999885e+00 +8.5971639963205870e+00 +0.0000000000000000e+00 -5.4999999152634436e+00 +3.0418577074543476e-04 +0.0000000000000000e+00 +9.9999995373550787e-01
-5.5499999999999883e+00 +8.5971487177373263e+00 +0.0000000000000000e+00 -5.5499999129290760e+00 +3.0695758646022349e-04 +0.0000000000000000e+00 +9.9999995288851951e-01
-5.5999999999999881e+00 +8.5971333005592587e+00 +0.0000000000000000e+00 -5.5999999105521665e+00 +3.0972956312666885e-04 +0.0000000000000000e+00 +9.9999995203379832e-01
-5.6499999999999879e+00 +8.5971177447783163e+00 +0.0000000000000000e+00 -5.6499999081323269e+00 +3.1250170157570543e-04 +0.0000000000000000e+00 +9.9999995117134266e-01
-5.6999999999999877e+00 +8.5971020503863897e+00 +0.0000000000000000e+00 -5.6999999056691717e+00 +3.1527400262498822e-04 +0.0000000000000000e+00 +9.9999995030115096e-01
-5.7499999999999876e+00 +8.5970862173753293e+00 +0.0000000000000000e+00 -5.7499999031623137e+00 +3.1804646707889254e-04 +0.0000000000000000e+00 +9.9999994942322168e-01
-5.7999999999999874e+00 +8.5970702457369441e+00 +0.0000000000000000e+00 -5.7999999006113656e+00 +3.2081909572851395e-04 +0.0000000000000000e+00 +9.9999994853755314e-01
-5.8499999999999872e+00 +8.5970541354630061e+00 +0.0000000000000000e+00 -5.8499998980159402e+00 +3.2359188935166829e-04 +0.0000000000000000e+00 +9.9999994764414379e-01
