# field on trajectory
# s[mm] rx[mm] ry[mm] rz[mm] bx[T] by[T] bz[T]
0.0000000000000000e+00 +8.5269999999999992e+00 +0.0000000000000000e+00 +0.0000000000000000e+00 -3.0507837139068794e-02 -5.7956232121707130e-01 +5.9545736445746622e-03
5.0000000000000003e-02 +8.5269999307846600e+00 +0.0000000000000000e+00 +4.9999999999936123e-02 -3.0507721381955750e-02 -5.7956306913851463e-01 +5.9545424222217360e-03
1.0000000000000001e-01 +8.5269997231385073e+00 +0.0000000000000000e+00 +9.9999999999488984e-02 -3.0507619381194003e-02 -5.7956416519540410e-01 +5.9545119115151602e-03
1.5000000000000002e-01 +8.5269993770612782e+00 +0.0000000000000000e+00 +1.4999999999827532e-01 -3.0507531300714711e-02 -5.7956560849415262e-01 +5.9544821294021475e-03
2.0000000000000001e-01 +8.5269988925526299e+00 +0.0000000000000000e+00 +1.9999999999591186e-01 -3.0507457304449759e-02 -5.7956739814119140e-01 +5.9544530928301092e-03
2.5000000000000000e-01 +8.5269982696121343e+00 +0.0000000000000000e+00 +2.4999999999201533e-01 -3.0507397556331899e-02 -5.7956953324296734e-01 +5.9544248187466632e-03
2.9999999999999999e-01 +8.5269975082392815e+00 +0.0000000000000000e+00 +2.9999999998620247e-01 -3.0507352220294669e-02 -5.7957201290594307e-01 +5.9543973240996041e-03
3.4999999999999998e-01 +8.5269966084334801e+00 +0.0000000000000000e+00 +3.4999999997809000e-01 -3.0507321460272484e-02 -5.7957483623659800e-01 +5.9543706258369132e-03
3.9999999999999997e-01 +8.5269955701940550e+00 +0.0000000000000000e+00 +3.9999999996729463e-01 -3.0507305440200746e-02 -5.7957800234142787e-01 +5.9543447409067555e-03
4.4999999999999996e-01 +8.5269943935202495e+00 +0.0000000000000000e+00 +4.4999999995343304e-01 -3.0507304324015737e-02 -5.7958151032694305e-01 +5.9543196862574515e-03
4.9999999999999994e-01 +8.5269930784112269e+00 +0.0000000000000000e+00 +4.9999999993612199e-01 -3.0507318275654716e-02 -5.7958535929967059e-01 +5.9542954788374828e-03
5.4999999999999993e-01 +8.5269916248660671e+00 +0.0000000000000000e+00 +5.4999999991497805e-01 -3.0507347459056040e-02 -5.7958954836615229e-01 +5.9542721355954845e-03
5.9999999999999998e-01 +8.5269900328837700e+00 +0.0000000000000000e+00 +5.9999999988961805e-01 -3.0507392038159050e-02 -5.7959407663294604e-01 +5.9542496734802360e-03
6.5000000000000002e-01 +8.5269883024632538e+00 +0.0000000000000000e+00 +6.4999999985965851e-01 -3.0507452176904200e-02 -5.7959894320662442e-01 +5.9542281094406542e-03
7.0000000000000007e-01 +8.5269864336033550e+00 +0.0000000000000000e+00 +6.9999999982471617e-01 -3.0507528039233119e-02 -5.7960414719377562e-01 +5.9542074604257847e-03
7.5000000000000011e-01 +8.5269844263028318e+00 +0.0000000000000000e+00 +7.4999999978440768e-01 -3.0507619789088516e-02 -5.7960968770100141e-01 +5.9541877433847831e-03
8.0000000000000016e-01 +8.5269822805603610e+00 +0.0000000000000000e+00 +7.9999999973834957e-01 -3.0507727590414389e-02 -5.7961556383492019e-01 +5.9541689752669351e-03
8.5000000000000020e-01 +8.5269799963745392e+00 +0.0000000000000000e+00 +8.4999999968615858e-01 -3.0507851607155897e-02 -5.7962177470216347e-01 +5.9541511730216226e-03
9.0000000000000024e-01 +8.5269775737438831e+00 +0.0000000000000000e+00 +8.9999999962745125e-01 -3.0507992003259540e-02 -5.7962831940937798e-01 +5.9541343535983266e-03
9.5000000000000029e-01 +8.5269750126668278e+00 +0.0000000000000000e+00 +9.4999999956184411e-01 -3.0508148942673081e-02 -5.7963519706322464e-01 +5.9541185339466235e-03
1.0000000000000002e+00 +8.5269723131417319e+00 +0.0000000000000000e+00 +9.9999999948895379e-01 -3.0508322589345632e-02 -5.7964240677037826e-01 +5.9541037310161639e-03
1.0500000000000003e+00 +8.5269694751668741e+00 +0.0000000000000000e+00 +1.0499999994083968e+00 -3.0508513107227700e-02 -5.7964994763752786e-01 +5.9540899617566822e-03
1.1000000000000003e+00 +8.5269664987404514e+00 +0.0000000000000000e+00 +1.0999999993197898e+00 -3.0508720660271209e-02 -5.7965781877137612e-01 +5.9540772431179783e-03
1.1500000000000004e+00 +8.5269633838605845e+00 +0.0000000000000000e+00 +1.1499999992227490e+00 -3.0508945412429520e-02 -5.7966601927864014e-01 +5.9540655920499062e-03
1.2000000000000004e+00 +8.5269601305253158e+00 +0.0000000000000000e+00 +1.1999999991168910e+00 -3.0509187527657512e-02 -5.7967454826604992e-01 +5.9540550255023847e-03
1.2500000000000004e+00 +8.5269567387326077e+00 +0.0000000000000000e+00 +1.2499999990018325e+00 -3.0509447169911538e-02 -5.7968340484034864e-01 +5.9540455604253631e-03
1.3000000000000005e+00 +8.5269532084803448e+00 +0.0000000000000000e+00 +1.2999999988771898e+00 -3.0509724503149555e-02 -5.7969258810829316e-01 +5.9540372137688400e-03
1.3500000000000005e+00 +8.5269495397663331e+00 +0.0000000000000000e+00 +1.3499999987425793e+00 -3.0510019691331106e-02 -5.7970209717665366e-01 +5.9540300024828376e-03
1.4000000000000006e+00 +8.5269457325883007e+00 +0.0000000000000000e+00 +1.3999999985976173e+00 -3.0510332898417345e-02 -5.7971193115221265e-01 +5.9540239435173963e-03
1.4500000000000006e+00 +8.5269417869439010e+00 +0.0000000000000000e+00 +1.4499999984419203e+00 -3.0510664288371132e-02 -5.7972208914176615e-01 +5.9540190538225858e-03
1.5000000000000007e+00 +8.5269377028307058e+00 +0.0000000000000000e+00 +1.4999999982751044e+00 -3.0511014025156980e-02 -5.7973257025212221e-01 +5.9540153503484690e-03
1.5500000000000007e+00 +8.5269334802462122e+00 +0.0000000000000000e+00 +1.5499999980967862e+00 -3.0511382272741191e-02 -5.7974337359010197e-01 +5.9540128500451071e-03
1.6000000000000008e+00 +8.5269291191878409e+00 +0.0000000000000000e+00 +1.5999999979065820e+00 -3.0511769195091808e-02 -5.7975449826253866e-01 +5.9540115698625638e-03
1.6500000000000008e+00 +8.5269246196529327e+00 +0.0000000000000000e+00 +1.6499999977041078e+00 -3.0512174956178716e-02 -5.7976594337627740e-01 +5.9540115267508768e-03
1.7000000000000008e+00 +8.5269199816387555e+00 +0.0000000000000000e+00 +1.6999999974889801e+00 -3.0512599719973593e-02 -5.7977770803817597e-01 +5.9540127376600683e-03
1.7500000000000009e+00 +8.5269152051424992e+00 +0.0000000000000000e+00 +1.7499999972608149e+00 -3.0513043650450062e-02 -5.7978979135510367e-01 +5.9540152195401187e-03
1.8000000000000009e+00 +8.5269102901612772e+00 +0.0000000000000000e+00 +1.7999999970192284e+00 -3.0513506911583648e-02 -5.7980219243394149e-01 +5.9540189893409826e-03
1.8500000000000010e+00 +8.5269052366921283e+00 +0.0000000000000000e+00 +1.8499999967638370e+00 -3.0513989667351794e-02 -5.7981491038158262e-01 +5.9540240640125631e-03
1.9000000000000010e+00 +8.5269000447320149e+00 +0.0000000000000000e+00 +1.8999999964942564e+00 -3.0514492081733981e-02 -5.7982794430493112e-01 +5.9540304605047011e-03
1.9500000000000011e+00 +8.5268947142778231e+00 +0.0000000000000000e+00 +1.9499999962101031e+00 -3.0515014318711665e-02 -5.7984129331090251e-01 +5.9540381957671846e-03
2.0000000000000009e+00 +8.5268892453263643e+00 +0.0000000000000000e+00 +1.9999999959109929e+00 -3.0515556542268431e-02 -5.7985495650642360e-01 +5.9540472867497312e-03
2.0500000000000007e+00 +8.5268836378743753e+00 +0.0000000000000000e+00 +2.0499999955965418e+00 -3.0516118857525310e-02 -5.7986893280924734e-01 +5.9540577464069740e-03
2.1000000000000005e+00 +8.5268778919185184e+00 +0.0000000000000000e+00 +2.0999999952663657e+00 -3.0516701134146479e-02 -5.7988322038039830e-01 +5.9540695717134893e-03
2.1500000000000004e+00 +8.5268720074553812e+00 +0.0000000000000000e+00 +2.1499999949200808e+00 -3.0517303182932151e-02 -5.7989781719172684e-01 +5.9540827556489370e-03
2.2000000000000002e+00 +8.5268659844814767e+00 +0.0000000000000000e+00 +2.1999999945573028e+00 -3.0517924814682924e-02 -5.7991272121509341e-01 +5.9540972911930942e-03
2.2500000000000000e+00 +8.5268598229932451e+00 +0.0000000000000000e+00 +2.2499999941776476e+00 -3.0518565840199813e-02 -5.7992793042236890e-01 +5.9541131713258585e-03
2.2999999999999998e+00 +8.5268535229870537e+00 +0.0000000000000000e+00 +2.2999999937807307e+00 -3.0519226070284122e-02 -5.7994344278543375e-01 +5.9541303890272455e-03
2.3499999999999996e+00 +8.5268470844591970e+00 +0.0000000000000000e+00 +2.3499999933661684e+00 -3.0519905315737412e-02 -5.7995925627617873e-01 +5.9541489372774018e-03
2.3999999999999995e+00 +8.5268405074058986e+00 +0.0000000000000000e+00 +2.3999999929335760e+00 -3.0520603387361431e-02 -5.7997536886650436e-01 +5.9541688090566066e-03
2.4499999999999993e+00 +8.5268337918233108e+00 +0.0000000000000000e+00 +2.4499999924825695e+00 -3.0521320095958041e-02 -5.7999177852832007e-01 +5.9541899973452675e-03
2.4999999999999991e+00 +8.5268269377075132e+00 +0.0000000000000000e+00 +2.4999999920127647e+00 -3.0522055252329185e-02 -5.8000848323354592e-01 +5.9542124951239457e-03
2.5499999999999989e+00 +8.5268199450545143e+00 +0.0000000000000000e+00 +2.5499999915237765e+00 -3.0522808667276771e-02 -5.8002548095410955e-01 +5.9542362953733307e-03
2.5999999999999988e+00 +8.5268128138602570e+00 +0.0000000000000000e+00 +2.5999999910152214e+00 -3.0523580151602676e-02 -5.8004276966194901e-01 +5.9542613910742751e-03
2.6499999999999986e+00 +8.5268055441206112e+00 +0.0000000000000000e+00 +2.6499999904867142e+00 -3.0524369516108645e-02 -5.8006034732901024e-01 +5.9542877752077790e-03
2.6999999999999984e+00 +8.5267981358313776e+00 +0.0000000000000000e+00 +2.6999999899378708e+00 -3.0525176571596212e-02 -5.8007821192724862e-01 +5.9543154407549941e-03
2.7499999999999982e+00 +8.5267905889882893e+00 +0.0000000000000000e+00 +2.7499999893683063e+00 -3.0526001128866696e-02 -5.8009636142862797e-01 +5.9543443806972457e-03
2.7999999999999980e+00 +8.5267829035870122e+00 +0.0000000000000000e+00 +2.7999999887776363e+00 -3.0526842998721059e-02 -5.8011479380511999e-01 +5.9543745880160145e-03
2.8499999999999979e+00 +8.5267750796231443e+00 +0.0000000000000000e+00 +2.8499999881654761e+00 -3.0527701991959921e-02 -5.8013350702870492e-01 +5.9544060556929561e-03
2.8999999999999977e+00 +8.5267671170922146e+00 +0.0000000000000000e+00 +2.8999999875314413e+00 -3.0528577919383463e-02 -5.8015249907137167e-01 +5.9544387767098989e-03
2.9499999999999975e+00 +8.5267590159896880e+00 +0.0000000000000000e+00 +2.9499999868751465e+00 -3.0529470591791317e-02 -5.8017176790511593e-01 +5.9544727440488544e-03
2.9999999999999973e+00 +8.5267507763109602e+00 +0.0000000000000000e+00 +2.9999999861962077e+00 -3.0530379819982609e-02 -5.8019131150194170e-01 +5.9545079506920073e-03
3.0499999999999972e+00 +8.5267423980513648e+00 +0.0000000000000000e+00 +3.0499999854942392e+00 -3.0531305414755804e-02 -5.8021112783386086e-01 +5.9545443896217394e-03
3.0999999999999970e+00 +8.5267338812061695e+00 +0.0000000000000000e+00 +3.0999999847688566e+00 -3.0532247186908709e-02 -5.8023121487289220e-01 +5.9545820538206232e-03
3.1499999999999968e+00 +8.5267252257705746e+00 +0.0000000000000000e+00 +3.1499999840196748e+00 -3.0533204947238327e-02 -5.8025157059106203e-01 +5.9546209362714196e-03
3.1999999999999966e+00 +8.5267164317397199e+00 +0.0000000000000000e+00 +3.1999999832463093e+00 -3.0534178506540891e-02 -5.8027219296040333e-01 +5.9546610299570958e-03
3.2499999999999964e+00 +8.5267074991086780e+00 +0.0000000000000000e+00 +3.2499999824483745e+00 -3.0535167675611770e-02 -5.8029307995295698e-01 +5.9547023278608254e-03
3.2999999999999963e+00 +8.5266984278724607e+00 +0.0000000000000000e+00 +3.2999999816254855e+00 -3.0536172265245319e-02 -5.8031422954076950e-01 +5.9547448229659850e-03
3.3499999999999961e+00 +8.5266892180260179e+00 +0.0000000000000000e+00 +3.3499999807772567e+00 -3.0537192086234965e-02 -5.8033563969589441e-01 +5.9547885082561636e-03
3.3999999999999959e+00 +8.5266798695642336e+00 +0.0000000000000000e+00 +3.3999999799033032e+00 -3.0538226949373030e-02 -5.8035730839039212e-01 +5.9548333767151726e-03
3.4499999999999957e+00 +8.5266703824819334e+00 +0.0000000000000000e+00 +3.4499999790032398e+00 -3.0539276665450744e-02 -5.8037923359632870e-01 +5.9548794213270450e-03
3.4999999999999956e+00 +8.5266607567738806e+00 +0.0000000000000000e+00 +3.4999999780766813e+00 -3.0540341045258091e-02 -5.8040141328577632e-01 +5.9549266350760353e-03
3.5499999999999954e+00 +8.5266509924347780e+00 +0.0000000000000000e+00 +3.5499999771232420e+00 -3.0541419899583856e-02 -5.8042384543081371e-01 +5.9549750109466285e-03
3.5999999999999952e+00 +8.5266410894592664e+00 +0.0000000000000000e+00 +3.5999999761425370e+00 -3.0542513039215485e-02 -5.8044652800352481e-01 +5.9550245419235500e-03
3.6499999999999950e+00 +8.5266310478419296e+00 +0.0000000000000000e+00 +3.6499999751341803e+00 -3.0543620274939055e-02 -5.8046945897599955e-01 +5.9550752209917551e-03
3.6999999999999948e+00 +8.5266208675772894e+00 +0.0000000000000000e+00 +3.6999999740977865e+00 -3.0544741417539177e-02 -5.8049263632033243e-01 +5.9551270411364486e-03
3.7499999999999947e+00 +8.5266105486598107e+00 +0.0000000000000000e+00 +3.7499999730329701e+00 -3.0545876277798995e-02 -5.8051605800862460e-01 +5.9551799953430819e-03
3.7999999999999945e+00 +8.5266000910838997e+00 +0.0000000000000000e+00 +3.7999999719393451e+00 -3.0547024666500069e-02 -5.8053972201298187e-01 +5.9552340765973563e-03
3.8499999999999943e+00 +8.5265894948439023e+00 +0.0000000000000000e+00 +3.8499999708165262e+00 -3.0548186394422316e-02 -5.8056362630551395e-01 +5.9552892778852286e-03
3.8999999999999941e+00 +8.5265787599341110e+00 +0.0000000000000000e+00 +3.8999999696641274e+00 -3.0549361272344002e-02 -5.8058776885833685e-01 +5.9553455921929179e-03
3.9499999999999940e+00 +8.5265678863487580e+00 +0.0000000000000000e+00 +3.9499999684817628e+00 -3.0550549111041572e-02 -5.8061214764357016e-01 +5.9554030125069032e-03
3.9999999999999938e+00 +8.5265568740820221e+00 +0.0000000000000000e+00 +3.9999999672690465e+00 -3.0551749721289746e-02 -5.8063676063333891e-01 +5.9554615318139388e-03
4.0499999999999936e+00 +8.5265457231280237e+00 +0.0000000000000000e+00 +4.0499999660255925e+00 -3.0552962925179304e-02 -5.8066160570774239e-01 +5.9555211406240836e-03
4.0999999999999934e+00 +8.5265344334808280e+00 +0.0000000000000000e+00 +4.0999999647510155e+00 -3.0554188590072071e-02 -5.8068668037876925e-01 +5.9555818195397387e-03
4.1499999999999932e+00 +8.5265230051344467e+00 +0.0000000000000000e+00 +4.1499999634449285e+00 -3.0555426594648195e-02 -5.8071198206637931e-01 +5.9556435466864375e-03
4.1999999999999931e+00 +8.5265114380828351e+00 +0.0000000000000000e+00 +4.1999999621069453e+00 -3.0556676817588276e-02 -5.8073750819053460e-01 +5.9557063001897835e-03
4.2499999999999929e+00 +8.5264997323198983e+00 +0.0000000000000000e+00 +4.2499999607366803e+00 -3.0557939137573393e-02 -5.8076325617119895e-01 +5.9557700581754740e-03
4.2999999999999927e+00 +8.5264878878394850e+00 +0.0000000000000000e+00 +4.2999999593337472e+00 -3.0559213433285146e-02 -5.8078922342833550e-01 +5.9558347987692722e-03
4.3499999999999925e+00 +8.5264759046353937e+00 +0.0000000000000000e+00 +4.3499999578977597e+00 -3.0560499583405610e-02 -5.8081540738190995e-01 +5.9559005000970342e-03
4.3999999999999924e+00 +8.5264637827013701e+00 +0.0000000000000000e+00 +4.3999999564283305e+00 -3.0561797466617382e-02 -5.8084180545188702e-01 +5.9559671402846740e-03
4.4499999999999922e+00 +8.5264515220311097e+00 +0.0000000000000000e+00 +4.4499999549250742e+00 -3.0563106961603609e-02 -5.8086841505823250e-01 +5.9560346974581908e-03
4.4999999999999920e+00 +8.5264391226182550e+00 +0.0000000000000000e+00 +4.4999999533876034e+00 -3.0564427947047952e-02 -5.8089523362091167e-01 +5.9561031497436523e-03
4.5499999999999918e+00 +8.5264265844564022e+00 +0.0000000000000000e+00 +4.5499999518155327e+00 -3.0565760301634645e-02 -5.8092225855989021e-01 +5.9561724752671937e-03
4.5999999999999917e+00 +8.5264139075390961e+00 +0.0000000000000000e+00 +4.5999999502084741e+00 -3.0567103904048449e-02 -5.8094948729513263e-01 +5.9562426521550249e-03
4.6499999999999915e+00 +8.5264010918598334e+00 +0.0000000000000000e+00 +4.6499999485660419e+00 -3.0568458632974745e-02 -5.8097691724660305e-01 +5.9563136585334131e-03
4.6999999999999913e+00 +8.5263881374120611e+00 +0.0000000000000000e+00 +4.6999999468878491e+00 -3.0569824367099496e-02 -5.8100454583426486e-01 +5.9563854725286991e-03
4.7499999999999911e+00 +8.5263750441891819e+00 +0.0000000000000000e+00 +4.7499999451735082e+00 -3.0571200985109258e-02 -5.8103237047808065e-01 +5.9564580722672846e-03
4.7999999999999909e+00 +8.5263618121845504e+00 +0.0000000000000000e+00 +4.7999999434226330e+00 -3.0572588365691173e-02 -5.8106038859801012e-01 +5.9565314358756248e-03
4.8499999999999908e+00 +8.5263484413914732e+00 +0.0000000000000000e+00 +4.8499999416348363e+00 -3.0573986387533041e-02 -5.8108859761401288e-01 +5.9566055414802498e-03
4.8999999999999906e+00 +8.5263349318032127e+00 +0.0000000000000000e+00 +4.8999999398097307e+00 -3.0575394929323305e-02 -5.8111699494604574e-01 +5.9566803672077328e-03
4.9499999999999904e+00 +8.5263212834129849e+00 +0.0000000000000000e+00 +4.9499999379469291e+00 -3.0576813869751026e-02 -5.8114557801406375e-01 +5.9567558911847104e-03
4.9999999999999902e+00 +8.5263074962139651e+00 +0.0000000000000000e+00 +4.9999999360460441e+00 -3.0578243087505931e-02 -5.8117434423801961e-01 +5.9568320915378749e-03
5.0499999999999901e+00 +8.5262935701992824e+00 +0.0000000000000000e+00 +5.0499999341066895e+00 -3.0579682461278460e-02 -5.8120329103786383e-01 +5.9569089463939661e-03
5.0999999999999899e+00 +8.5262795053620213e+00 +0.0000000000000000e+00 +5.0999999321284770e+00 -3.0581131869759668e-02 -5.8123241583354301e-01 +5.9569864338797811e-03
5.1499999999999897e+00 +8.5262653016952257e+00 +0.0000000000000000e+00 +5.1499999301110195e+00 -3.0582591191641365e-02 -5.8126171604500176e-01 +5.9570645321221595e-03
5.1999999999999895e+00 +8.5262509591918985e+00 +0.0000000000000000e+00 +5.1999999280539297e+00 -3.0584060305616046e-02 -5.8129118909218092e-01 +5.9571432192479946e-03
5.2499999999999893e+00 +8.5262364778449999e+00 +0.0000000000000000e+00 +5.2499999259568195e+00 -3.0585539090376940e-02 -5.8132083239501808e-01 +5.9572224733842206e-03
5.2999999999999892e+00 +8.5262218576474496e+00 +0.0000000000000000e+00 +5.2999999238193016e+00 -3.0587027424617979e-02 -5.8135064337344677e-01 +5.9573022726578193e-03
5.3499999999999890e+00 +8.5262070985921259e+00 +0.0000000000000000e+00 +5.3499999216409888e+00 -3.0588525187033883e-02 -5.8138061944739672e-01 +5.9573825951958134e-03
5.3999999999999888e+00 +8.5261922006718702e+00 +0.0000000000000000e+00 +5.3999999194214920e+00 -3.0590032256320066e-02 -5.8141075803679299e-01 +5.9574634191252645e-03
5.4499999999999886e+00 +8.5261771638794848e+00 +0.0000000000000000e+00 +5.4499999171604250e+00 -3.0591548511172791e-02 -5.8144105656155709e-01 +5.9575447225732759e-03
5.4999999999999885e+00 +8.5261619882077309e+00 +0.0000000000000000e+00 +5.4999999148573986e+00 -3.0593073830289041e-02 -5.8147151244160511e-01 +5.9576264836669873e-03
5.5499999999999883e+00 +8.5261466736493361e+00 +0.0000000000000000e+00 +5.5499999125120256e+00 -3.0594608092366606e-02 -5.8150212309684812e-01 +5.9577086805335721e-03
5.5999999999999881e+00 +8.5261312201969872e+00 +0.0000000000000000e+00 +5.5999999101239180e+00 -3.0596151176104092e-02 -5.8153288594719255e-01 +5.9577912913002353e-03
5.6499999999999879e+00 +8.5261156278433390e+00 +0.0000000000000000e+00 +5.6499999076926866e+00 -3.0597702960200923e-02 -5.8156379841253925e-01 +5.9578742940942240e-03
5.6999999999999877e+00 +8.5260998965810053e+00 +0.0000000000000000e+00 +5.6999999052179442e+00 -3.0599263323357325e-02 -5.8159485791278309e-01 +5.9579576670428002e-03
5.7499999999999876e+00 +8.5260840264025699e+00 +0.0000000000000000e+00 +5.7499999026993027e+00 -3.0600832144274417e-02 -5.8162606186781329e-01 +5.9580413882732667e-03
5.7999999999999874e+00 +8.5260680173005792e+00 +0.0000000000000000e+00 +5.7999999001363731e+00 -3.0602409301654098e-02 -5.8165740769751284e-01 +5.9581254359129454e-03
5.8499999999999872e+00 +8.5260518692675458e+00 +0.0000000000000000e+00 +5.8499998975287673e+00 -3.0603994674199199e-02 -5.8168889282175895e-01 +5.9582097880891884e-03
5.8999999999999870e+00 +8.5260355822959504e+00 +0.0000000000000000e+00 +5.8999998948760970e+00 -3.0605588140613399e-02 -5.8172051466042141e-01 +5.9582944229293654e-03
