# multipoles
# s[mm] polynom_b[n=0][T/m^n] polynom_b[n=1][T/m^n] polynom_b[n=2][T/m^n] polynom_b[n=3][T/m^n] polynom_b[n=4][T/m^n] polynom_b[n=5][T/m^n] polynom_b[n=6][T/m^n] 
+0.0000000000000000e+00 -5.5291987392451825e-01 +7.2916641141471716e+00 +4.0195862698816081e+00 +4.8271376866866703e+01 +2.5015985273294697e+04 -6.1114339943993150e+05 -1.4418586081341359e+08 
+5.0000000000000003e-02 -5.5291970076269814e-01 +7.2916542157149440e+00 +4.0183311926978638e+00 +4.8140140114759802e+01 +2.5004991432224193e+04 -6.1042444233406079e+05 -1.4390982034787655e+08 
+1.0000000000000001e-01 -5.5291985269378785e-01 +7.2916625819648297e+00 +4.0170336299854652e+00 +4.7992139844075560e+01 +2.4985030025453238e+04 -6.0956664715258509e+05 -1.4358302197065046e+08 
+1.5000000000000002e-01 -5.5292032922954371e-01 +7.2916891321759474e+00 +4.0156874143732608e+00 +4.7828514911931769e+01 +2.4956388115048223e+04 -6.0857734562046768e+05 -1.4320742186911365e+08 
+2.0000000000000001e-01 -5.5292112988173381e-01 +7.2917337856287636e+00 +4.0142863781363962e+00 +4.7650404175212728e+01 +2.4919352767461176e+04 -6.0746386955869163e+05 -1.4278497623715553e+08 
+2.5000000000000000e-01 -5.5292225416215335e-01 +7.2917964616011277e+00 +4.0128243554833265e+00 +4.7458946597143928e+01 +2.4874211001391272e+04 -6.0623355154159421e+05 -1.4231764096841684e+08 
+2.9999999999999999e-01 -5.5292370158260051e-01 +7.2918770793726564e+00 +4.0112951785475124e+00 +4.7255281112550769e+01 +2.4821249889534934e+04 -6.0489372396005597e+05 -1.4180737231234187e+08 
+3.4999999999999998e-01 -5.5292547165489681e-01 +7.2919755582245323e+00 +4.0096926807654141e+00 +4.7040546613908184e+01 +2.4760756470080829e+04 -6.0345171882713144e+05 -1.4125612628811902e+08 
+3.9999999999999997e-01 -5.5292756389087050e-01 +7.2920918174352538e+00 +4.0080106941221638e+00 +4.6815882124065503e+01 +2.4693017822797803e+04 -6.0191486919371295e+05 -1.4066585920800951e+08 
+4.4999999999999996e-01 -5.5292997780237463e-01 +7.2922257762862674e+00 +4.0062430527400563e+00 +4.6582426576981938e+01 +2.4618320962987025e+04 -6.0029050738323026e+05 -1.4003852692227188e+08 
+4.9999999999999994e-01 -5.5293271290126667e-01 +7.2923773540567787e+00 +4.0043835879216454e+00 +4.6341319011795406e+01 +2.4536952992905917e+04 -5.9858596652669273e+05 -1.3937608591139004e+08 
+5.4999999999999993e-01 -5.5293576869942973e-01 +7.2925464700274674e+00 +4.0024261340244376e+00 +4.6093698445339115e+01 +2.4449200921289554e+04 -5.9680857960718509e+05 -1.3868049198314247e+08 
+5.9999999999999998e-01 -5.5293914470875749e-01 +7.2927330434794335e+00 +4.0003645239053576e+00 +4.5840703880539550e+01 +2.4355351804506106e+04 -5.9496567939520651e+05 -1.3795370129560193e+08 
+6.5000000000000002e-01 -5.5294284044115982e-01 +7.2929369936932611e+00 +3.9981925909211204e+00 +4.5583474381826925e+01 +2.4255692682194323e+04 -5.9306459921229235e+05 -1.3719766988060838e+08 
+7.0000000000000007e-01 -5.5294685540855681e-01 +7.2931582399502153e+00 +3.9959041677910232e+00 +4.5323148990624951e+01 +2.4150510610876529e+04 -5.9111267209672043e+05 -1.3641435388768440e+08 
+7.5000000000000011e-01 -5.5295118912288788e-01 +7.2933967015340624e+00 +3.9934930877903296e+00 +4.5060866675590482e+01 +2.4040092634586556e+04 -5.8911723050729604e+05 -1.3560570939037147e+08 
+8.0000000000000016e-01 -5.5295584109609008e-01 +7.2936522977211666e+00 +3.9909531815197781e+00 +4.4797766731688085e+01 +2.3924725863607982e+04 -5.8708560955681489e+05 -1.3477369288676703e+08 
+8.5000000000000020e-01 -5.5296081084015158e-01 +7.2939249477980681e+00 +3.9882782858868961e+00 +4.4534988037986672e+01 +2.3804697244597824e+04 -5.8502514083963039e+05 -1.3392025980029474e+08 
+9.0000000000000024e-01 -5.5296609786702933e-01 +7.2942145710461892e+00 +3.9854622298570415e+00 +4.4273669721895665e+01 +2.3680293932469285e+04 -5.8294315804495011e+05 -1.3304736693565910e+08 
+9.5000000000000029e-01 -5.5297170168873910e-01 +7.2945210867466947e+00 +3.9824988499201250e+00 +4.4014950931193624e+01 +2.3551802883295390e+04 -5.8084699495860829e+05 -1.3215696977194589e+08 
+1.0000000000000002e+00 -5.5297762181726695e-01 +7.2948444141832800e+00 +3.9793819754200923e+00 +4.3759970719904224e+01 +2.3419511241748260e+04 -5.7874398452107236e+05 -1.3125102504997051e+08 
+1.0500000000000003e+00 -5.5298385776464676e-01 +7.2951844726381312e+00 +3.9761054414981354e+00 +4.3509868231882123e+01 +2.3283705995669170e+04 -5.7664146043709887e+05 -1.3033148844943303e+08 
+1.1000000000000003e+00 -5.5299040904290642e-01 +7.2955411813943360e+00 +3.9726630793034130e+00 +4.3265782584885933e+01 +2.3144674243759386e+04 -5.7454675612780708e+05 -1.2940031641153018e+08 
+1.1500000000000004e+00 -5.5299727516409292e-01 +7.2959144597365668e+00 +3.9690487214601449e+00 +4.3028852839271359e+01 +2.3002703040242439e+04 -5.7246720447151386e+05 -1.2845946506179383e+08 
+1.2000000000000004e+00 -5.5300445564026979e-01 +7.2963042269471323e+00 +3.9652562008818686e+00 +4.2800218176582071e+01 +2.2858079431740320e+04 -5.7041013934929483e+05 -1.2751089047658862e+08 
+1.2500000000000004e+00 -5.5301194998351133e-01 +7.2967104023112386e+00 +3.9612793498848138e+00 +4.2581017666448865e+01 +2.2711090482399479e+04 -5.6838289363812585e+05 -1.2655654885793953e+08 
+1.3000000000000005e+00 -5.5301975770590328e-01 +7.2971329051108205e+00 +3.9571120005752167e+00 +4.2372390536062774e+01 +2.2562023257068464e+04 -5.6639280151202960e+05 -1.2559839639291935e+08 
+1.3500000000000005e+00 -5.5302787831954525e-01 +7.2975716546331526e+00 +3.9527479847465554e+00 +4.2175475786660002e+01 +2.2411164833884603e+04 -5.6444719516499352e+05 -1.2463838938064432e+08 
+1.4000000000000006e+00 -5.5303631133654163e-01 +7.2980265701641143e+00 +3.9481811331580565e+00 +4.1991412503289311e+01 +2.2258802312006650e+04 -5.6255340748831118e+05 -1.2367848423711707e+08 
+1.4500000000000006e+00 -5.5304505626903178e-01 +7.2984975709861875e+00 +3.9434052800217043e+00 +4.1821339917602444e+01 +2.2105222701293271e+04 -5.6071877251606749e+05 -1.2272063679236208e+08 
+1.5000000000000007e+00 -5.5305411262913962e-01 +7.2989845763844388e+00 +3.9384142547269723e+00 +4.1666397171432166e+01 +2.1950713135185870e+04 -5.5895062351309066e+05 -1.2176680368499002e+08 
+1.5500000000000007e+00 -5.5306347992902183e-01 +7.2994875056482655e+00 +3.9332018896380490e+00 +4.1527723218055435e+01 +2.1795560674765155e+04 -5.5725629205968883e+05 -1.2081894110042714e+08 
+1.6000000000000008e+00 -5.5307315768084786e-01 +7.3000062780601427e+00 +3.9277620174749499e+00 +4.1406457332797466e+01 +2.1640052362430455e+04 -5.5564311244732246e+05 -1.1987900506195712e+08 
+1.6500000000000008e+00 -5.5308314539677428e-01 +7.3005408129070384e+00 +3.9220884663878244e+00 +4.1303738588362570e+01 +2.1484475363904683e+04 -5.5411841713574447e+05 -1.1894895242967957e+08 
+1.7000000000000008e+00 -5.5309344258899984e-01 +7.3010910294779174e+00 +3.9161750695848192e+00 +4.1220705990859678e+01 +2.1329116709084734e+04 -5.5268953800930863e+05 -1.1803073914932612e+08 
+1.7500000000000009e+00 -5.5310404876971930e-01 +7.3016568470592951e+00 +3.9100156570120470e+00 +4.1158498665603680e+01 +2.1174263516059975e+04 -5.5136380792286701e+05 -1.1712632176631522e+08 
+1.8000000000000009e+00 -5.5311496345114519e-01 +7.3022381849365336e+00 +3.9036040596654700e+00 +4.1118255780571872e+01 +2.1020202871610709e+04 -5.5014855998079537e+05 -1.1623765660223760e+08 
+1.8500000000000010e+00 -5.5312618614549458e-01 +7.3028349624001772e+00 +3.8969341077984252e+00 +4.1101116286858272e+01 +2.0867221875564381e+04 -5.4905112538969400e+05 -1.1536670004587403e+08 
+1.9000000000000010e+00 -5.5313771636499098e-01 +7.3034470987366040e+00 +3.8899996290798264e+00 +4.1108219338429222e+01 +2.0715607708109008e+04 -5.4807883708440012e+05 -1.1451540906790629e+08 
+1.9500000000000011e+00 -5.5314955362189844e-01 +7.3040745132354541e+00 +3.8827944572206663e+00 +4.1140703929133409e+01 +2.0565647376402576e+04 -5.4723902648295835e+05 -1.1368573943556277e+08 
+2.0000000000000009e+00 -5.5316169742845844e-01 +7.3047171251846548e+00 +3.8753124196344038e+00 +4.1199709151720931e+01 +2.0417628055689678e+04 -5.4653902585079765e+05 -1.1287964804614386e+08 
+2.0500000000000007e+00 -5.5317414704307566e-01 +7.3053748534587966e+00 +3.8675475997718975e+00 +4.1286004589501850e+01 +2.0271797154179148e+04 -5.4598400239832758e+05 -1.1209873244995493e+08 
+2.1000000000000005e+00 -5.5318690070932153e-01 +7.3060476076414167e+00 +3.8594952574883701e+00 +4.1398950212419130e+01 +2.0128249246832660e+04 -5.4557102140943019e+05 -1.1134318463405205e+08 
+2.1500000000000004e+00 -5.5319995641729947e-01 +7.3067352930921734e+00 +3.8511510145411987e+00 +4.1537569878895425e+01 +1.9987041689193164e+04 -5.4529526264577475e+05 -1.1061284914725445e+08 
+2.2000000000000002e+00 -5.5321331215707892e-01 +7.3074378151723538e+00 +3.8425104848330616e+00 +4.1700887372729213e+01 +1.9848232048266738e+04 -5.4515190520597564e+05 -1.0990757196274605e+08 
+2.2500000000000000e+00 -5.5322696591877796e-01 +7.3081550792418586e+00 +3.8335692886562307e+00 +4.1887926581444738e+01 +1.9711877720075048e+04 -5.4513612917048892e+05 -1.0922719790251993e+08 
+2.2999999999999998e+00 -5.5324091569249823e-01 +7.3088869906619784e+00 +3.8243230416810783e+00 +4.2097711326087278e+01 +1.9578036227504173e+04 -5.4524311399635952e+05 -1.0857157265449613e+08 
+2.3499999999999996e+00 -5.5325515946836246e-01 +7.3096334547972690e+00 +3.8147673617624331e+00 +4.2329265324482954e+01 +1.9446765028770267e+04 -5.4546803837441583e+05 -1.0794054144520405e+08 
+2.3999999999999995e+00 -5.5326969523650593e-01 +7.3103943770080608e+00 +3.8048978666582562e+00 +4.2581612472291127e+01 +1.9318121591252853e+04 -5.4580608242889645e+05 -1.0733394958658607e+08 
+2.4499999999999993e+00 -5.5328452098706826e-01 +7.3111696626607099e+00 +3.7947101735598490e+00 +4.2853776440792153e+01 +1.9192163396095384e+04 -5.4625242450347531e+05 -1.0675164248050834e+08 
+2.4999999999999991e+00 -5.5329963471021359e-01 +7.3119592171171197e+00 +3.7841999019485377e+00 +4.3144781103185537e+01 +1.9068947863598019e+04 -5.4680224463820213e+05 -1.0619346511787160e+08 
+2.5499999999999989e+00 -5.5331503439608587e-01 +7.3127629457435397e+00 +3.7733626664148261e+00 +4.3453650159983809e+01 +1.8948532543259116e+04 -5.4745072144173167e+05 -1.0565926334828301e+08 
+2.5999999999999988e+00 -5.5333071803487310e-01 +7.3135807539063125e+00 +3.7621940874269457e+00 +4.3779407327712484e+01 +1.8830974831816933e+04 -5.4819303371623950e+05 -1.0514888201646633e+08 
+2.6499999999999986e+00 -5.5334668361673922e-01 +7.3144125469709680e+00 +3.7506897792061697e+00 +4.4121076380328056e+01 +1.8716332293441330e+04 -5.4902436079511407e+05 -1.0466216708547138e+08 
+2.6999999999999984e+00 -5.5336292913189500e-01 +7.3152582303075464e+00 +3.7388453634558374e+00 +4.4477680910997236e+01 +1.8604662287553478e+04 -5.4993988052332355e+05 -1.0419896312787218e+08 
+2.7499999999999982e+00 -5.5337945257053478e-01 +7.3161177092816425e+00 +3.7266564565077034e+00 +4.4848244724760079e+01 +1.8496022325584123e+04 -5.5093477258530387e+05 -1.0375911576572317e+08 
+2.7999999999999980e+00 -5.5339625192285691e-01 +7.3169908892634599e+00 +3.7141186744056660e+00 +4.5231791441827816e+01 +1.8390469923626471e+04 -5.5200421514317126e+05 -1.0334247064123358e+08 
+2.8499999999999979e+00 -5.5341332517909780e-01 +7.3178776756240413e+00 +3.7012276383848781e+00 +4.5627344674124117e+01 +1.8288062456735326e+04 -5.5314338637817383e+05 -1.0294887243433687e+08 
+2.8999999999999977e+00 -5.5343067032947380e-01 +7.3187779737340950e+00 +3.6879789642000937e+00 +4.6033928055724715e+01 +1.8188857454243098e+04 -5.5434746468239627e+05 -1.0257816689379892e+08 
+2.9499999999999975e+00 -5.5344828536422763e-01 +7.3196916889627728e+00 +3.6743682710197438e+00 +4.6450565308395603e+01 +1.8092912352560914e+04 -5.5561162924534723e+05 -1.0223019913385187e+08 
+2.9999999999999973e+00 -5.5346616827360673e-01 +7.3206187266880471e+00 +3.6603911777993390e+00 +4.6876279812327887e+01 +1.8000284589191640e+04 -5.5693105652614392e+05 -1.0190481425441842e+08 
+3.0499999999999972e+00 -5.5348431704785783e-01 +7.3215589922792921e+00 +3.6460433010509008e+00 +4.7310095305224571e+01 +1.7911031678545503e+04 -5.5830092593927425e+05 -1.0160185791641912e+08 
+3.0999999999999970e+00 -5.5350272967724801e-01 +7.3225123911134666e+00 +3.6313202605197188e+00 +4.7751035245742216e+01 +1.7825211042007650e+04 -5.5971641472192598e+05 -1.0132117513031158e+08 
+3.1499999999999968e+00 -5.5352140415205031e-01 +7.3234788285634860e+00 +3.6162176747861232e+00 +4.8198123264149174e+01 +1.7742880135278752e+04 -5.6117270156131953e+05 -1.0106261113945720e+08 
+3.1999999999999966e+00 -5.5354033846254180e-01 +7.3244582100084834e+00 +3.6007311623143705e+00 +4.8650382759218935e+01 +1.7664096419916492e+04 -5.6266496332487126e+05 -1.0082601124263509e+08 
+3.2499999999999964e+00 -5.5355953059901430e-01 +7.3254504408268826e+00 +3.5848563427823290e+00 +4.9106837172997722e+01 +1.7588917322843041e+04 -5.6418837730209506e+05 -1.0061122048860148e+08 
+3.2999999999999963e+00 -5.5357897855175842e-01 +7.3264554263938244e+00 +3.5685888342537444e+00 +4.9566510105840429e+01 +1.7517400318550728e+04 -5.6573812219584931e+05 -1.0041808426223314e+08 
+3.3499999999999961e+00 -5.5359868031107540e-01 +7.3274730720930039e+00 +3.5519242552957184e+00 +5.0028424818627414e+01 +1.7449602872781059e+04 -5.6730937396202073e+05 -1.0024644790751436e+08 
+3.3999999999999959e+00 -5.5361863386728516e-01 +7.3285032833017238e+00 +3.5348582268966400e+00 +5.0491604859796382e+01 +1.7385582379787062e+04 -5.6889731104700884e+05 -1.0009615625255930e+08 
+3.4499999999999957e+00 -5.5363883721070206e-01 +7.3295459654051820e+00 +3.5173863677935304e+00 +5.0955073464559547e+01 +1.7325396301169276e+04 -5.7049710937096970e+05 -9.9967054607987449e+07 
+3.4999999999999956e+00 -5.5365928833165179e-01 +7.3306010237832631e+00 +3.4995042972673995e+00 +5.1417854109233076e+01 +1.7269102084734412e+04 -5.7210394695933920e+05 -9.9858988188155740e+07 
+3.5499999999999954e+00 -5.5367998522047057e-01 +7.3316683638224536e+00 +3.4812076357172907e+00 +5.1878970019428678e+01 +1.7216757149755176e+04 -5.7371299986771634e+05 -9.9771802019612089e+07 
+3.5999999999999952e+00 -5.5370092586749975e-01 +7.3327478909050496e+00 +3.4624920031685877e+00 +5.2337444604388473e+01 +1.7168418925119040e+04 -5.7531944574314752e+05 -9.9705341185899571e+07 
+3.6499999999999950e+00 -5.5372210826308355e-01 +7.3338395104215861e+00 +3.4433530188405861e+00 +5.2792300962961555e+01 +1.7124144869036696e+04 -5.7691845981277258e+05 -9.9659450995834306e+07 
+3.6999999999999948e+00 -5.5374353039758240e-01 +7.3349431277550510e+00 +3.4237863042512311e+00 +5.3242562519004238e+01 +1.7083992372169210e+04 -5.7850522006906976e+05 -9.9633976276339889e+07 
+3.7499999999999947e+00 -5.5376519026135484e-01 +7.3360586482974286e+00 +3.4037874791552203e+00 +5.3687252339640970e+01 +1.7048018879969928e+04 -5.8007490165219409e+05 -9.9628762247648403e+07 
+3.7999999999999945e+00 -5.5378708584476777e-01 +7.3371859774370369e+00 +3.3833521639964315e+00 +5.4125393670408187e+01 +1.7016281820218988e+04 -5.8162268132153444e+05 -9.9643654011934862e+07 
+3.8499999999999943e+00 -5.5380921513820636e-01 +7.3383250205669297e+00 +3.3624759813940601e+00 +5.4556009573857175e+01 +1.6988838562720608e+04 -5.8314373440354061e+05 -9.9678496275185928e+07 
+3.8999999999999941e+00 -5.5383157613203982e-01 +7.3394756830769650e+00 +3.3411545503344438e+00 +5.4978123274722918e+01 +1.6965746577597583e+04 -5.8463323773894599e+05 -9.9733134428178817e+07 
+3.9499999999999940e+00 -5.5385416681666733e-01 +7.3406378703623183e+00 +3.3193834939769622e+00 +5.5390757792496494e+01 +1.6947063226943570e+04 -5.8608636656857864e+05 -9.9807413144695237e+07 
+3.9999999999999938e+00 -5.5387698518247674e-01 +7.3418114878174467e+00 +3.2971584327145020e+00 +5.5792936190924898e+01 +1.6932845947612946e+04 -5.8749829657480796e+05 -9.9901177595771477e+07 
+4.0499999999999936e+00 -5.5390002917712933e-01 +7.3429964256145768e+00 +3.2744785424260803e+00 +5.6183924676739998e+01 +1.6923097037382053e+04 -5.8886540160780447e+05 -1.0001404301184154e+08 
+4.0999999999999934e+00 -5.5392329657704531e-01 +7.3441925095837215e+00 +3.2513579922716618e+00 +5.6563868072360961e+01 +1.6917587703360809e+04 -5.9018795712509321e+05 -1.0014465946362391e+08 
+4.1499999999999932e+00 -5.5394678511581430e-01 +7.3453995485997732e+00 +3.2278149150030857e+00 +5.6933105526992208e+01 +1.6916028763929779e+04 -5.9146697836685879e+05 -1.0029142534269778e+08 
+4.1999999999999931e+00 -5.5397049252700703e-01 +7.3466173515370041e+00 +3.2038674400665919e+00 +5.7291976220905781e+01 +1.6918131122628343e+04 -5.9270348093095713e+05 -1.0045273959276123e+08 
+4.2499999999999929e+00 -5.5399441654421411e-01 +7.3478457272681226e+00 +3.1795337003450554e+00 +5.7640819393971583e+01 +1.6923605592867225e+04 -5.9389848090256134e+05 -1.0062700056377617e+08 
+4.2999999999999927e+00 -5.5401855490101726e-01 +7.3490844846661094e+00 +3.1548318269662805e+00 +5.7979974259903109e+01 +1.6932163030667118e+04 -5.9505299410804070e+05 -1.0081260687079057e+08 
+4.3499999999999925e+00 -5.5404290533099199e-01 +7.3503334326015182e+00 +3.1297799497593939e+00 +5.8309780139383683e+01 +1.6943514334386880e+04 -5.9616803729224473e+05 -1.0100795745008844e+08 
+4.3999999999999924e+00 -5.5406746556773157e-01 +7.3515923799446510e+00 +3.1043962022320386e+00 +5.8630576361143568e+01 +1.6957370290906914e+04 -5.9724462728023005e+05 -1.0121145043350723e+08 
+4.4499999999999922e+00 -5.5409223334481672e-01 +7.3528611355668243e+00 +3.0786987154111611e+00 +5.8942702196472034e+01 +1.6973441760241170e+04 -5.9828378036997921e+05 -1.0142148447657818e+08 
+4.4999999999999920e+00 -5.5411720639582029e-01 +7.3541395083354955e+00 +3.0527056188788269e+00 +5.9246497072160246e+01 +1.6991439640390177e+04 -5.9928651415571710e+05 -1.0163645848616455e+08 
+4.5499999999999918e+00 -5.5414238245432879e-01 +7.3554273071182150e+00 +3.0264350452078883e+00 +5.9542300414932903e+01 +1.7011074743767862e+04 -6.0025384625898430e+05 -1.0185477077435488e+08 
+4.5999999999999917e+00 -5.5416775925392769e-01 +7.3567243407804366e+00 +2.9999051266962962e+00 +5.9830451722307672e+01 +1.7032057891446111e+04 -6.0118679484522250e+05 -1.0207481971635211e+08 
+4.6499999999999915e+00 -5.5419333452818520e-01 +7.3580304181902916e+00 +2.9731339928815439e+00 +6.0111290378642607e+01 +1.7054099978499798e+04 -6.0208637716476759e+05 -1.0229500418911542e+08 
+4.6999999999999913e+00 -5.5421910601069024e-01 +7.3593453482086790e+00 +2.9461397771118167e+00 +6.0385156055181724e+01 +1.7076911797451889e+04 -6.0295361281072104e+05 -1.0251372237846014e+08 
+4.7499999999999911e+00 -5.5424507143500890e-01 +7.3606689397029097e+00 +2.9189406097066359e+00 +6.0652388152519343e+01 +1.7100204214243640e+04 -6.0378951913505699e+05 -1.0272937293586561e+08 
+4.7999999999999909e+00 -5.5427122853471666e-01 +7.3620010015302215e+00 +2.8915546222917752e+00 +6.0913326477243238e+01 +1.7123688065552324e+04 -6.0459511684357515e+05 -1.0294035433927168e+08 
+4.8499999999999908e+00 -5.5429757504338151e-01 +7.3633413425554437e+00 +2.8639999460107139e+00 +6.1168310515806944e+01 +1.7147074197034824e+04 -6.0537142399133090e+05 -1.0314506511419997e+08 
+4.8999999999999906e+00 -5.5432410869458282e-01 +7.3646897716349882e+00 +2.8362947139712800e+00 +6.1417680088011146e+01 +1.7170073402796737e+04 -6.0611946135806467e+05 -1.0334190344428313e+08 
+4.9499999999999904e+00 -5.5435082722186257e-01 +7.3660460976282689e+00 +2.8084570541263938e+00 +6.1661774878336836e+01 +1.7192396607905208e+04 -6.0684024860088550e+05 -1.0352926836941059e+08 
+4.9999999999999902e+00 -5.5437772835880017e-01 +7.3674101293903442e+00 +2.7805051008705224e+00 +6.1900934749978582e+01 +1.7213754568392407e+04 -6.0753480687196960e+05 -1.0370555780656040e+08 
+5.0499999999999901e+00 -5.5440480983895235e-01 +7.3687816757788136e+00 +2.7524569853647685e+00 +6.2135499435999648e+01 +1.7233858124932030e+04 -6.0820415618549276e+05 -1.0386917023708564e+08 
