# field on trajectory
# s[mm] rx[mm] ry[mm] rz[mm] bx[T] by[T] bz[T]
-0.0000000000000000e+00 +8.5269999999999904e+00 +0.0000000000000000e+00 -0.0000000000000000e+00 -3.0221454101873393e-02 -5.7765502150730030e-01 +5.9542173220958911e-03
-5.0000000000000003e-02 +8.5269999309457507e+00 +0.0000000000000000e+00 -4.9999999999936401e-02 -3.0221768598338219e-02 -5.7765519879606286e-01 +5.9546965788449891e-03
-1.0000000000000001e-01 +8.5269997237883199e+00 +0.0000000000000000e+00 -9.9999999999491399e-02 -3.0222108490901317e-02 -5.7765578578941390e-01 +5.9551759531664659e-03
-1.4999999999999999e-01 +8.5269993785295792e+00 +0.0000000000000000e+00 -1.4999999999828301e-01 -3.0222473701288284e-02 -5.7765678170843482e-01 +5.9556554159232470e-03
-2.0000000000000001e-01 +8.5269988951622508e+00 +0.0000000000000000e+00 -1.9999999999593099e-01 -3.0222864151229961e-02 -5.7765818577429406e-01 +5.9561349379790773e-03
-2.5000000000000000e-01 +8.5269982736936107e+00 +0.0000000000000000e+00 -2.4999999999205300e-01 -3.0223279762452815e-02 -5.7765999720806904e-01 +5.9566144901965386e-03
-2.9999999999999999e-01 +8.5269975141200103e+00 +0.0000000000000000e+00 -2.9999999998626797e-01 -3.0223720456689251e-02 -5.7766221523093897e-01 +5.9570940434391798e-03
-3.4999999999999998e-01 +8.5269966164378292e+00 +0.0000000000000000e+00 -3.4999999997819298e-01 -3.0224186155673044e-02 -5.7766483906410138e-01 +5.9575735685705655e-03
-4.0000000000000002e-01 +8.5269955806543294e+00 +0.0000000000000000e+00 -3.9999999996744900e-01 -3.0224676781134996e-02 -5.7766786792869007e-01 +5.9580530364533920e-03
-4.5000000000000001e-01 +8.5269944067658798e+00 +0.0000000000000000e+00 -4.4999999995365297e-01 -3.0225192254811625e-02 -5.7767130104593944e-01 +5.9585324179512638e-03
-5.0000000000000000e-01 +8.5269930947724806e+00 +0.0000000000000000e+00 -4.9999999993642402e-01 -3.0225732498439295e-02 -5.7767513763707556e-01 +5.9590116839274860e-03
-5.5000000000000004e-01 +8.5269916446777607e+00 +0.0000000000000000e+00 -5.4999999991537996e-01 -3.0226297433754126e-02 -5.7767937692331428e-01 +5.9594908052450577e-03
-5.9999999999999998e-01 +8.5269900564744603e+00 +0.0000000000000000e+00 -5.9999999989013997e-01 -3.0226886982497897e-02 -5.7768401812597314e-01 +5.9599697527678653e-03
-6.5000000000000002e-01 +8.5269883301661995e+00 +0.0000000000000000e+00 -6.4999999986032297e-01 -3.0227501066409087e-02 -5.7768906046630442e-01 +5.9604484973588574e-03
-6.9999999999999996e-01 +8.5269864657566394e+00 +0.0000000000000000e+00 -6.9999999982554695e-01 -3.0228139607227311e-02 -5.7769450316557858e-01 +5.9609270098809385e-03
-7.5000000000000000e-01 +8.5269844632421208e+00 +0.0000000000000000e+00 -7.4999999978543097e-01 -3.0228802526696200e-02 -5.7770034544513915e-01 +5.9614052611975752e-03
-8.0000000000000004e-01 +8.5269823226226400e+00 +0.0000000000000000e+00 -7.9999999973959202e-01 -3.0229489746558955e-02 -5.7770658652631990e-01 +5.9618832221718732e-03
-8.4999999999999998e-01 +8.5269800438982202e+00 +0.0000000000000000e+00 -8.4999999968765005e-01 -3.0230201188559680e-02 -5.7771322563047145e-01 +5.9623608636668523e-03
-9.0000000000000002e-01 +8.5269776270688507e+00 +0.0000000000000000e+00 -8.9999999962922395e-01 -3.0230936774443478e-02 -5.7772026197896231e-01 +5.9628381565454639e-03
-9.4999999999999996e-01 +8.5269750721381605e+00 +0.0000000000000000e+00 -9.4999999956393100e-01 -3.0231696425954885e-02 -5.7772769479315189e-01 +5.9633150716702655e-03
-1.0000000000000000e+00 +8.5269723790988792e+00 +0.0000000000000000e+00 -9.9999999949139096e-01 -3.0232480064843636e-02 -5.7773552329449829e-01 +5.9637915799046126e-03
-1.0500000000000000e+00 +8.5269695479546499e+00 +0.0000000000000000e+00 -1.0499999994112199e+00 -3.0233287612855871e-02 -5.7774374670439399e-01 +5.9642676521108494e-03
-1.1000000000000001e+00 +8.5269665787091107e+00 +0.0000000000000000e+00 -1.0999999993230400e+00 -3.0234118991738477e-02 -5.7775236424424958e-01 +5.9647432591511864e-03
-1.1499999999999999e+00 +8.5269634713586093e+00 +0.0000000000000000e+00 -1.1499999992264700e+00 -3.0234974123242008e-02 -5.7776137513554682e-01 +5.9652183718883140e-03
-1.2000000000000000e+00 +8.5269602259031707e+00 +0.0000000000000000e+00 -1.1999999991211201e+00 -3.0235852929116194e-02 -5.7777077859975701e-01 +5.9656929611844774e-03
-1.2500000000000000e+00 +8.5269568423427700e+00 +0.0000000000000000e+00 -1.2499999990066200e+00 -3.0236755331111372e-02 -5.7778057385836845e-01 +5.9661669979017571e-03
-1.3000000000000000e+00 +8.5269533206774195e+00 +0.0000000000000000e+00 -1.2999999988825901e+00 -3.0237681250978463e-02 -5.7779076013288566e-01 +5.9666404529020792e-03
-1.3500000000000001e+00 +8.5269496609071194e+00 +0.0000000000000000e+00 -1.3499999987486300e+00 -3.0238630610468917e-02 -5.7780133664483013e-01 +5.9671132970471955e-03
-1.3999999999999999e+00 +8.5269458630355093e+00 +0.0000000000000000e+00 -1.3999999986043801e+00 -3.0239603331333163e-02 -5.7781230261571159e-01 +5.9675855011983615e-03
-1.4500000000000000e+00 +8.5269419270553009e+00 +0.0000000000000000e+00 -1.4499999984494401e+00 -3.0240599335326520e-02 -5.7782365726713969e-01 +5.9680570362175512e-03
-1.5000000000000000e+00 +8.5269378529737896e+00 +0.0000000000000000e+00 -1.4999999982834400e+00 -3.0241618544198753e-02 -5.7783539982062870e-01 +5.9685278729653176e-03
-1.5500000000000000e+00 +8.5269336407873197e+00 +0.0000000000000000e+00 -1.5499999981060000e+00 -3.0242660879704453e-02 -5.7784752949779228e-01 +5.9689979823029067e-03
-1.6000000000000001e+00 +8.5269292904959002e+00 +0.0000000000000000e+00 -1.5999999979167401e+00 -3.0243726263596987e-02 -5.7786004552023329e-01 +5.9694673350910426e-03
-1.6499999999999999e+00 +8.5269248020995292e+00 +0.0000000000000000e+00 -1.6499999977152600e+00 -3.0244814617629998e-02 -5.7787294710956938e-01 +5.9699359021901975e-03
-1.7000000000000000e+00 +8.5269201755982102e+00 +0.0000000000000000e+00 -1.6999999975011999e+00 -3.0245925863557312e-02 -5.7788623348743395e-01 +5.9704036544606038e-03
-1.7500000000000000e+00 +8.5269154109919292e+00 +0.0000000000000000e+00 -1.7499999972741700e+00 -3.0247059923132959e-02 -5.7789990387547696e-01 +5.9708705627622401e-03
-1.8000000000000000e+00 +8.5269105082843506e+00 +0.0000000000000000e+00 -1.7999999970337901e+00 -3.0248216718109538e-02 -5.7791395749533514e-01 +5.9713365979545000e-03
-1.8500000000000001e+00 +8.5269054674718099e+00 +0.0000000000000000e+00 -1.8499999967796801e+00 -3.0249396170242776e-02 -5.7792839356871717e-01 +5.9718017308971211e-03
-1.8999999999999999e+00 +8.5269002885506797e+00 +0.0000000000000000e+00 -1.8999999965114500e+00 -3.0250598201288323e-02 -5.7794321131734505e-01 +5.9722659324495360e-03
-1.9500000000000000e+00 +8.5268949715282396e+00 +0.0000000000000000e+00 -1.9499999962287300e+00 -3.0251822732997452e-02 -5.7795840996287584e-01 +5.9727291734699784e-03
-2.0000000000000000e+00 +8.5268895164008391e+00 +0.0000000000000000e+00 -1.9999999959311201e+00 -3.0253069687125749e-02 -5.7797398872706185e-01 +5.9731914248172761e-03
-2.0499999999999998e+00 +8.5268839230666291e+00 +0.0000000000000000e+00 -2.0499999956182600e+00 -3.0254338959166755e-02 -5.7798994659177327e-01 +5.9736526567873271e-03
-2.1000000000000001e+00 +8.5268781914164702e+00 +0.0000000000000000e+00 -2.0999999952897199e+00 -3.0255630339409572e-02 -5.7800628157638267e-01 +5.9741128373930414e-03
-2.1499999999999999e+00 +8.5268723214576294e+00 +0.0000000000000000e+00 -2.1499999949451398e+00 -3.0256943591794896e-02 -5.7802299145875158e-01 +5.9745719340666293e-03
-2.2000000000000002e+00 +8.5268663131864706e+00 +0.0000000000000000e+00 -2.1999999945841302e+00 -3.0258278480268894e-02 -5.7804007401683655e-01 +5.9750299142411097e-03
-2.2500000000000000e+00 +8.5268601666030008e+00 +0.0000000000000000e+00 -2.2499999942063100e+00 -3.0259634768777282e-02 -5.7805752702857827e-01 +5.9754867453490909e-03
-2.2999999999999998e+00 +8.5268538817035697e+00 +0.0000000000000000e+00 -2.2999999938113000e+00 -3.0261012221268299e-02 -5.7807534827195695e-01 +5.9759423948234063e-03
-2.3500000000000001e+00 +8.5268474584954692e+00 +0.0000000000000000e+00 -2.3499999933987001e+00 -3.0262410601686850e-02 -5.7809353552488130e-01 +5.9763968300958793e-03
-2.3999999999999999e+00 +8.5268408969750507e+00 +0.0000000000000000e+00 -2.3999999929681501e+00 -3.0263829673983333e-02 -5.7811208656535396e-01 +5.9768500185991540e-03
-2.4500000000000002e+00 +8.5268341971459396e+00 +0.0000000000000000e+00 -2.4499999925192602e+00 -3.0265269202106398e-02 -5.7813099917133393e-01 +5.9773019277651997e-03
-2.5000000000000000e+00 +8.5268273590008903e+00 +0.0000000000000000e+00 -2.4999999920516398e+00 -3.0266728950010209e-02 -5.7815027112087236e-01 +5.9777525250268009e-03
-2.5499999999999998e+00 +8.5268203825435194e+00 +0.0000000000000000e+00 -2.5499999915649201e+00 -3.0268208681645700e-02 -5.7816990019194947e-01 +5.9782017778157665e-03
-2.6000000000000001e+00 +8.5268132677774702e+00 +0.0000000000000000e+00 -2.5999999910586999e+00 -3.0269708160965011e-02 -5.7818988416255435e-01 +5.9786496535638245e-03
-2.6499999999999999e+00 +8.5268060146954703e+00 +0.0000000000000000e+00 -2.6499999905326099e+00 -3.0271227151925952e-02 -5.7821022081076978e-01 +5.9790961197035549e-03
-2.7000000000000002e+00 +8.5267986233047797e+00 +0.0000000000000000e+00 -2.6999999899862699e+00 -3.0272765418481635e-02 -5.7823090791457732e-01 +5.9795411436662452e-03
-2.7500000000000000e+00 +8.5267910936017905e+00 +0.0000000000000000e+00 -2.7499999894192899e+00 -3.0274322724590907e-02 -5.7825194325205087e-01 +5.9799846928840486e-03
-2.7999999999999998e+00 +8.5267834255828294e+00 +0.0000000000000000e+00 -2.7999999888312899e+00 -3.0275898834213950e-02 -5.7827332460127367e-01 +5.9804267347890513e-03
-2.8500000000000001e+00 +8.5267756192552007e+00 +0.0000000000000000e+00 -2.8499999882218900e+00 -3.0277493511307738e-02 -5.7829504974025481e-01 +5.9808672368123665e-03
-2.8999999999999999e+00 +8.5267676746152592e+00 +0.0000000000000000e+00 -2.8999999875907001e+00 -3.0279106519835102e-02 -5.7831711644709460e-01 +5.9813061663859810e-03
-2.9500000000000002e+00 +8.5267595916629908e+00 +0.0000000000000000e+00 -2.9499999869373399e+00 -3.0280737623758786e-02 -5.7833952249987508e-01 +5.9817434909415282e-03
-3.0000000000000000e+00 +8.5267513703984203e+00 +0.0000000000000000e+00 -2.9999999862614302e+00 -3.0282386587042846e-02 -5.7836226567668558e-01 +5.9821791779105914e-03
-3.0499999999999998e+00 +8.5267430108251592e+00 +0.0000000000000000e+00 -3.0499999855625899e+00 -3.0284053173651345e-02 -5.7838534375559614e-01 +5.9826131947244140e-03
-3.1000000000000001e+00 +8.5267345129359509e+00 +0.0000000000000000e+00 -3.0999999848404300e+00 -3.0285737147554202e-02 -5.7840875451476736e-01 +5.9830455088151135e-03
-3.1499999999999999e+00 +8.5267258767344192e+00 +0.0000000000000000e+00 -3.1499999840945798e+00 -3.0287438272718396e-02 -5.7843249573228406e-01 +5.9834760876138707e-03
-3.2000000000000002e+00 +8.5267171022205694e+00 +0.0000000000000000e+00 -3.1999999833246400e+00 -3.0289156313113835e-02 -5.7845656518626642e-01 +5.9839048985521294e-03
-3.2500000000000000e+00 +8.5267081893980503e+00 +0.0000000000000000e+00 -3.2499999825302401e+00 -3.0290891032710508e-02 -5.7848096065481291e-01 +5.9843319090610043e-03
-3.2999999999999998e+00 +8.5266991382632096e+00 +0.0000000000000000e+00 -3.2999999817109900e+00 -3.0292642195482864e-02 -5.7850567991608581e-01 +5.9847570865722063e-03
-3.3500000000000001e+00 +8.5266899488124199e+00 +0.0000000000000000e+00 -3.3499999808665200e+00 -3.0294409565406955e-02 -5.7853072074825151e-01 +5.9851803985174175e-03
-3.3999999999999999e+00 +8.5266806210529502e+00 +0.0000000000000000e+00 -3.3999999799964300e+00 -3.0296192906455958e-02 -5.7855608092940125e-01 +5.9856018123273999e-03
-3.4500000000000002e+00 +8.5266711549811607e+00 +0.0000000000000000e+00 -3.4499999791003502e+00 -3.0297991982609122e-02 -5.7858175823771485e-01 +5.9860212954338096e-03
-3.5000000000000000e+00 +8.5266615505970496e+00 +0.0000000000000000e+00 -3.4999999781778901e+00 -3.0299806557845841e-02 -5.7860775045134971e-01 +5.9864388152679983e-03
-3.5499999999999998e+00 +8.5266518079006293e+00 +0.0000000000000000e+00 -3.5499999772286701e+00 -3.0301636396147170e-02 -5.7863405534846868e-01 +5.9868543392613020e-03
-3.6000000000000001e+00 +8.5266419268882601e+00 +0.0000000000000000e+00 -3.5999999762523198e+00 -3.0303481261497376e-02 -5.7866067070726823e-01 +5.9872678348453813e-03
-3.6499999999999999e+00 +8.5266319075708505e+00 +0.0000000000000000e+00 -3.6499999752484298e+00 -3.0305340917876442e-02 -5.7868759430583816e-01 +5.9876792694506511e-03
-3.6999999999999900e+00 +8.5266217499374797e+00 +0.0000000000000000e+00 -3.6999999742166398e+00 -3.0307215129275030e-02 -5.7871482392243956e-01 +5.9880886105093878e-03
-3.7499999999999898e+00 +8.5266114539917908e+00 +0.0000000000000000e+00 -3.7499999731565601e+00 -3.0309103659679624e-02 -5.7874235733522716e-01 +5.9884958254526480e-03
-3.7999999999999901e+00 +8.5266010197374307e+00 +0.0000000000000000e+00 -3.7999999720678099e+00 -3.0311006273078468e-02 -5.7877019232235960e-01 +5.9889008817114991e-03
-3.8499999999999899e+00 +8.5265904471671092e+00 +0.0000000000000000e+00 -3.8499999709499999e+00 -3.0312922733466106e-02 -5.7879832666208253e-01 +5.9893037467179441e-03
-3.8999999999999901e+00 +8.5265797362881095e+00 +0.0000000000000000e+00 -3.8999999698027499e+00 -3.0314852804832943e-02 -5.7882675813253526e-01 +5.9897043879027908e-03
-3.9499999999999900e+00 +8.5265688870931609e+00 +0.0000000000000000e+00 -3.9499999686256899e+00 -3.0316796251177190e-02 -5.7885548451196989e-01 +5.9901027726980824e-03
-3.9999999999999898e+00 +8.5265578995895304e+00 +0.0000000000000000e+00 -3.9999999674184199e+00 -3.0318752836493022e-02 -5.7888450357853227e-01 +5.9904988685346734e-03
-4.0499999999999901e+00 +8.5265467737735907e+00 +0.0000000000000000e+00 -4.0499999661805601e+00 -3.0320722335905728e-02 -5.7891381297638200e-01 +5.9908926502809240e-03
-4.0999999999999899e+00 +8.5265355096416897e+00 +0.0000000000000000e+00 -4.0999999649117402e+00 -3.0322704569040678e-02 -5.7894340981339210e-01 +5.9912841225514442e-03
-4.1499999999999897e+00 +8.5265241072047502e+00 +0.0000000000000000e+00 -4.1499999636115703e+00 -3.0324699366641211e-02 -5.7897329106325524e-01 +5.9916732973960976e-03
-4.1999999999999904e+00 +8.5265125664518600e+00 +0.0000000000000000e+00 -4.1999999622796604e+00 -3.0326706559458308e-02 -5.7900345369983097e-01 +5.9920601868664620e-03
-4.2499999999999902e+00 +8.5265008873866499e+00 +0.0000000000000000e+00 -4.2499999609156403e+00 -3.0328725978235688e-02 -5.7903389469687006e-01 +5.9924448030127600e-03
-4.2999999999999901e+00 +8.5264890700091200e+00 +0.0000000000000000e+00 -4.2999999595191198e+00 -3.0330757453717161e-02 -5.7906461102815154e-01 +5.9928271578854045e-03
-4.3499999999999899e+00 +8.5264771143192792e+00 +0.0000000000000000e+00 -4.3499999580897200e+00 -3.0332800816645078e-02 -5.7909559966745527e-01 +5.9932072635346702e-03
-4.3999999999999897e+00 +8.5264650203207601e+00 +0.0000000000000000e+00 -4.3999999566270596e+00 -3.0334855897758754e-02 -5.7912685758853444e-01 +5.9935851320104079e-03
-4.4499999999999904e+00 +8.5264527880062797e+00 +0.0000000000000000e+00 -4.4499999551307496e+00 -3.0336922527800389e-02 -5.7915838176522516e-01 +5.9939607753632549e-03
-4.4999999999999902e+00 +8.5264404173794901e+00 +0.0000000000000000e+00 -4.4999999536004101e+00 -3.0339000537506010e-02 -5.7919016917127997e-01 +5.9943342056427915e-03
-4.5499999999999901e+00 +8.5264279084440204e+00 +0.0000000000000000e+00 -4.5499999520356598e+00 -3.0341089757609904e-02 -5.7922221678045194e-01 +5.9947054348984787e-03
-4.5999999999999899e+00 +8.5264152611962292e+00 +0.0000000000000000e+00 -4.5999999504361098e+00 -3.0343190018847523e-02 -5.7925452156654889e-01 +5.9950744751802454e-03
-4.6499999999999897e+00 +8.5264024756361305e+00 +0.0000000000000000e+00 -4.6499999488013897e+00 -3.0345301151950919e-02 -5.7928708050334954e-01 +5.9954413385375832e-03
-4.6999999999999904e+00 +8.5263895517600794e+00 +0.0000000000000000e+00 -4.6999999471311096e+00 -3.0347422987651720e-02 -5.7931989056465993e-01 +5.9958060370201597e-03
-4.7499999999999902e+00 +8.5263764895753393e+00 +0.0000000000000000e+00 -4.7499999454248902e+00 -3.0349555356674995e-02 -5.7935294872420084e-01 +5.9961685826765759e-03
-4.7999999999999901e+00 +8.5263632890782901e+00 +0.0000000000000000e+00 -4.7999999436823400e+00 -3.0351698089748223e-02 -5.7938625195577509e-01 +5.9965289875562166e-03
-4.8499999999999899e+00 +8.5263499502725608e+00 +0.0000000000000000e+00 -4.8499999419030901e+00 -3.0353851017593709e-02 -5.7941979723312798e-01 +5.9968872637077243e-03
-4.8999999999999897e+00 +8.5263364731472393e+00 +0.0000000000000000e+00 -4.8999999400867402e+00 -3.0356013970937498e-02 -5.7945358153011395e-01 +5.9972434231808126e-03
-4.9499999999999904e+00 +8.5263228577168793e+00 +0.0000000000000000e+00 -4.9499999382329296e+00 -3.0358186780492836e-02 -5.7948760182039016e-01 +5.9975974780229107e-03
-4.9999999999999902e+00 +8.5263091039705596e+00 +0.0000000000000000e+00 -4.9999999363412497e+00 -3.0360369276981103e-02 -5.7952185507780607e-01 +5.9979494402834579e-03
-5.0499999999999901e+00 +8.5262952115954196e+00 +0.0000000000000000e+00 -5.0499999344112600e+00 -3.0362561291245531e-02 -5.7955633827851749e-01 +5.9982993220372635e-03
-5.0999999999999899e+00 +8.5262811802713294e+00 +0.0000000000000000e+00 -5.0999999324424596e+00 -3.0364762654130080e-02 -5.7959104839873621e-01 +5.9986471353596299e-03
-5.1499999999999897e+00 +8.5262670100019005e+00 +0.0000000000000000e+00 -5.1499999304344799e+00 -3.0366973196342704e-02 -5.7962598241219332e-01 +5.9989928922983453e-03
-5.1999999999999904e+00 +8.5262527007798798e+00 +0.0000000000000000e+00 -5.1999999283869203e+00 -3.0369192748593243e-02 -5.7966113729270008e-01 +5.9993366049019619e-03
-5.2499999999999902e+00 +8.5262382526088896e+00 +0.0000000000000000e+00 -5.2499999262994104e+00 -3.0371421141584299e-02 -5.7969651001398059e-01 +5.9996782852179608e-03
-5.2999999999999901e+00 +8.5262236654925800e+00 +0.0000000000000000e+00 -5.2999999241715603e+00 -3.0373658206015661e-02 -5.7973209754975519e-01 +6.0000179452936843e-03
-5.3499999999999899e+00 +8.5262089394273097e+00 +0.0000000000000000e+00 -5.3499999220029704e+00 -3.0375903772587209e-02 -5.7976789687379315e-01 +6.0003555971769144e-03
-5.3999999999999897e+00 +8.5261940744130698e+00 +0.0000000000000000e+00 -5.3999999197932702e+00 -3.0378157671994407e-02 -5.7980390495983358e-01 +6.0006912529149883e-03
-5.4499999999999904e+00 +8.5261790704498708e+00 +0.0000000000000000e+00 -5.4499999175420601e+00 -3.0380419734929682e-02 -5.7984011878160968e-01 +6.0010249245550781e-03
-5.4999999999999902e+00 +8.5261639275377092e+00 +0.0000000000000000e+00 -5.4999999152489698e+00 -3.0382689792082355e-02 -5.7987653531284855e-01 +6.0013566241442044e-03
-5.5499999999999901e+00 +8.5261486456802196e+00 +0.0000000000000000e+00 -5.5499999129136004e+00 -3.0384967674137103e-02 -5.7991315152724454e-01 +6.0016863637289133e-03
-5.5999999999999899e+00 +8.5261332248737691e+00 +0.0000000000000000e+00 -5.5999999105355700e+00 -3.0387253211778337e-02 -5.7994996439854163e-01 +6.0020141553562140e-03
-5.6499999999999897e+00 +8.5261176651147306e+00 +0.0000000000000000e+00 -5.6499999081144896e+00 -3.0389546235687206e-02 -5.7998697090047813e-01 +6.0023400110729500e-03
-5.6999999999999904e+00 +8.5261019664103497e+00 +0.0000000000000000e+00 -5.6999999056499897e+00 -3.0391846576536936e-02 -5.8002416800670198e-01 +6.0026639429248798e-03
-5.7499999999999902e+00 +8.5260861287570204e+00 +0.0000000000000000e+00 -5.7499999031416600e+00 -3.0394154065001840e-02 -5.8006155269093740e-01 +6.0029859629585252e-03
-5.7999999999999901e+00 +8.5260701521547198e+00 +0.0000000000000000e+00 -5.7999999005891203e+00 -3.0396468531751184e-02 -5.8009912192687507e-01 +6.0033060832199248e-03
-5.8499999999999899e+00 +8.5260540366070892e+00 +0.0000000000000000e+00 -5.8499998979920003e+00 -3.0398789807449127e-02 -5.8013687268816938e-01 +6.0036243157546533e-03
