# field on trajectory
# s[mm] rx[mm] ry[mm] rz[mm] bx[T] by[T] bz[T]
0.0000000000000000e+00 +8.5269999999999992e+00 +0.0000000000000000e+00 +0.0000000000000000e+00 -2.9586018732189509e-02 -5.5616808031217901e-01 +5.3635761064589702e-03
5.0000000000000003e-02 +8.5269999306151707e+00 +0.0000000000000000e+00 +4.9999999999935811e-02 -2.9586264047892358e-02 -5.5616881067018509e-01 +5.3636563886020148e-03
1.0000000000000001e-01 +8.5269997224605500e+00 +0.0000000000000000e+00 +9.9999999999486486e-02 -2.9586525651552828e-02 -5.5616984532336045e-01 +5.3637476750401404e-03
1.5000000000000002e-01 +8.5269993755358779e+00 +0.0000000000000000e+00 +1.4999999999826688e-01 -2.9586803484630678e-02 -5.5617118389704334e-01 +5.3638499581832189e-03
2.0000000000000001e-01 +8.5269988898408222e+00 +0.0000000000000000e+00 +1.9999999999589185e-01 -2.9587097488586542e-02 -5.5617282601658558e-01 +5.3639632304415298e-03
2.5000000000000000e-01 +8.5269982653749725e+00 +0.0000000000000000e+00 +2.4999999999197622e-01 -2.9587407604881967e-02 -5.5617477130735460e-01 +5.3640874842257758e-03
2.9999999999999999e-01 +8.5269975021378421e+00 +0.0000000000000000e+00 +2.9999999998613486e-01 -2.9587733774979395e-02 -5.5617701939473141e-01 +5.3642227119470700e-03
3.4999999999999998e-01 +8.5269966001288715e+00 +0.0000000000000000e+00 +3.4999999997798259e-01 -2.9588075940342198e-02 -5.5617956990411122e-01 +5.3643689060169321e-03
3.9999999999999997e-01 +8.5269955593474247e+00 +0.0000000000000000e+00 +3.9999999996713431e-01 -2.9588434042434615e-02 -5.5618242246090355e-01 +5.3645260588472930e-03
4.4999999999999996e-01 +8.5269943797927894e+00 +0.0000000000000000e+00 +4.4999999995320478e-01 -2.9588808022721860e-02 -5.5618557669053270e-01 +5.3646941628504898e-03
4.9999999999999994e-01 +8.5269930614641787e+00 +0.0000000000000000e+00 +4.9999999993580879e-01 -2.9589197822670030e-02 -5.5618903221843641e-01 +5.3648732104392615e-03
5.4999999999999993e-01 +8.5269916043607292e+00 +0.0000000000000000e+00 +5.4999999991456128e-01 -2.9589603383746162e-02 -5.5619278867006627e-01 +5.3650631940267406e-03
5.9999999999999998e-01 +8.5269900084815049e+00 +0.0000000000000000e+00 +5.9999999988907693e-01 -2.9590024647418226e-02 -5.5619684567088845e-01 +5.3652641060264739e-03
6.5000000000000002e-01 +8.5269882738254932e+00 +0.0000000000000000e+00 +6.4999999985897050e-01 -2.9590461555155122e-02 -5.5620120284638352e-01 +5.3654759388523845e-03
7.0000000000000007e-01 +8.5269864003916069e+00 +0.0000000000000000e+00 +6.9999999982385686e-01 -2.9590914048426713e-02 -5.5620585982204551e-01 +5.3656986849188043e-03
7.5000000000000011e-01 +8.5269843881786844e+00 +0.0000000000000000e+00 +7.4999999978335075e-01 -2.9591382068703796e-02 -5.5621081622338209e-01 +5.3659323366404468e-03
8.0000000000000016e-01 +8.5269822371854893e+00 +0.0000000000000000e+00 +7.9999999973706692e-01 -2.9591865557458106e-02 -5.5621607167591558e-01 +5.3661768864324165e-03
8.5000000000000020e-01 +8.5269799474107106e+00 +0.0000000000000000e+00 +8.4999999968462014e-01 -2.9592364456162368e-02 -5.5622162580518164e-01 +5.3664323267102040e-03
9.0000000000000024e-01 +8.5269775188529628e+00 +0.0000000000000000e+00 +8.9999999962562516e-01 -2.9592878706290245e-02 -5.5622747823673024e-01 +5.3666986498896859e-03
9.5000000000000029e-01 +8.5269749515107840e+00 +0.0000000000000000e+00 +9.4999999955969661e-01 -2.9593408249316364e-02 -5.5623362859612446e-01 +5.3669758483871153e-03
1.0000000000000002e+00 +8.5269722453826411e+00 +0.0000000000000000e+00 +9.9999999948644924e-01 -2.9593953026716358e-02 -5.5624007650894214e-01 +5.3672639146191258e-03
1.0500000000000003e+00 +8.5269694004669248e+00 +0.0000000000000000e+00 +1.0499999994054978e+00 -2.9594512979966781e-02 -5.5624682160077366e-01 +5.3675628410027312e-03
1.1000000000000003e+00 +8.5269664167619510e+00 +0.0000000000000000e+00 +1.0999999993164569e+00 -2.9595088050545244e-02 -5.5625386349722428e-01 +5.3678726199553120e-03
1.1500000000000004e+00 +8.5269632942659648e+00 +0.0000000000000000e+00 +1.1499999992189409e+00 -2.9595678179930245e-02 -5.5626120182391170e-01 +5.3681932438946227e-03
1.2000000000000004e+00 +8.5269600329771329e+00 +0.0000000000000000e+00 +1.1999999991125647e+00 -2.9596283309601398e-02 -5.5626883620646816e-01 +5.3685247052387922e-03
1.2500000000000004e+00 +8.5269566328935529e+00 +0.0000000000000000e+00 +1.2499999989969430e+00 -2.9596903381039184e-02 -5.5627676627053935e-01 +5.3688669964063089e-03
1.3000000000000005e+00 +8.5269530940132441e+00 +0.0000000000000000e+00 +1.2999999988716902e+00 -2.9597538335725183e-02 -5.5628499164178402e-01 +5.3692201098160279e-03
1.3500000000000005e+00 +8.5269494163341548e+00 +0.0000000000000000e+00 +1.3499999987364208e+00 -2.9598188115141935e-02 -5.5629351194587495e-01 +5.3695840378871658e-03
1.4000000000000006e+00 +8.5269455998541606e+00 +0.0000000000000000e+00 +1.3999999985907496e+00 -2.9598852660772997e-02 -5.5630232680849756e-01 +5.3699587730392986e-03
1.4500000000000006e+00 +8.5269416445710604e+00 +0.0000000000000000e+00 +1.4499999984342908e+00 -2.9599531914102969e-02 -5.5631143585535170e-01 +5.3703443076923646e-03
1.5000000000000007e+00 +8.5269375504825824e+00 +0.0000000000000000e+00 +1.4999999982666592e+00 -2.9600225816617434e-02 -5.5632083871215021e-01 +5.3707406342666459e-03
1.5500000000000007e+00 +8.5269333175863800e+00 +0.0000000000000000e+00 +1.5499999980874690e+00 -2.9600934309803033e-02 -5.5633053500461938e-01 +5.3711477451827867e-03
1.6000000000000008e+00 +8.5269289458800337e+00 +0.0000000000000000e+00 +1.5999999978963348e+00 -2.9601657335147406e-02 -5.5634052435849823e-01 +5.3715656328617726e-03
1.6500000000000008e+00 +8.5269244353610532e+00 +0.0000000000000000e+00 +1.6499999976928710e+00 -2.9602394834139248e-02 -5.5635080639953938e-01 +5.3719942897249408e-03
1.7000000000000008e+00 +8.5269197860268697e+00 +0.0000000000000000e+00 +1.6999999974766917e+00 -2.9603146748268302e-02 -5.5636138075350938e-01 +5.3724337081939725e-03
1.7500000000000009e+00 +8.5269149978748473e+00 +0.0000000000000000e+00 +1.7499999972474116e+00 -2.9603913019025346e-02 -5.5637224704618682e-01 +5.3728838806908980e-03
1.8000000000000009e+00 +8.5269100709022734e+00 +0.0000000000000000e+00 +1.7999999970046450e+00 -2.9604693587902211e-02 -5.5638340490336446e-01 +5.3733447996380792e-03
1.8500000000000010e+00 +8.5269050051063662e+00 +0.0000000000000000e+00 +1.8499999967480061e+00 -2.9605488396391780e-02 -5.5639485395084742e-01 +5.3738164574582119e-03
1.9000000000000010e+00 +8.5268998004842675e+00 +0.0000000000000000e+00 +1.8999999964771090e+00 -2.9606297385988002e-02 -5.5640659381445401e-01 +5.3742988465743389e-03
1.9500000000000011e+00 +8.5268944570330483e+00 +0.0000000000000000e+00 +1.9499999961915682e+00 -2.9607120498185896e-02 -5.5641862412001619e-01 +5.3747919594098279e-03
2.0000000000000009e+00 +8.5268889747497063e+00 +0.0000000000000000e+00 +1.9999999958909978e+00 -2.9607957674481544e-02 -5.5643094449337827e-01 +5.3752957883883854e-03
2.0500000000000007e+00 +8.5268833536311686e+00 +0.0000000000000000e+00 +2.0499999955750119e+00 -2.9608808838589167e-02 -5.5644355432927939e-01 +5.3758103186223845e-03
2.1000000000000005e+00 +8.5268775936742873e+00 +0.0000000000000000e+00 +2.0999999952432247e+00 -2.9609673843091936e-02 -5.5645645209799621e-01 +5.3763355059779638e-03
2.1500000000000004e+00 +8.5268716948758456e+00 +0.0000000000000000e+00 +2.1499999948952504e+00 -2.9610552522790188e-02 -5.5646963603869681e-01 +5.3768712990100043e-03
2.2000000000000002e+00 +8.5268656572325536e+00 +0.0000000000000000e+00 +2.1999999945307032e+00 -2.9611444712484277e-02 -5.5648310439056003e-01 +5.3774176462737791e-03
2.2500000000000000e+00 +8.5268594807410523e+00 +0.0000000000000000e+00 +2.2499999941491966e+00 -2.9612350246974457e-02 -5.5649685539277394e-01 +5.3779744963249618e-03
2.2999999999999998e+00 +8.5268531653979096e+00 +0.0000000000000000e+00 +2.2999999937503448e+00 -2.9613268961060830e-02 -5.5651088728453602e-01 +5.3785417977196314e-03
2.3499999999999996e+00 +8.5268467111996245e+00 +0.0000000000000000e+00 +2.3499999933337619e+00 -2.9614200689543343e-02 -5.5652519830505331e-01 +5.3791194990142691e-03
2.3999999999999995e+00 +8.5268401181426263e+00 +0.0000000000000000e+00 +2.3999999928990619e+00 -2.9615145267221667e-02 -5.5653978669354220e-01 +5.3797075487657647e-03
2.4499999999999993e+00 +8.5268333862232755e+00 +0.0000000000000000e+00 +2.4499999924458584e+00 -2.9616102528895204e-02 -5.5655465068922727e-01 +5.3803058955314122e-03
2.4999999999999991e+00 +8.5268265154378629e+00 +0.0000000000000000e+00 +2.4999999919737652e+00 -2.9617072309362946e-02 -5.5656978853134265e-01 +5.3809144878689151e-03
2.5499999999999989e+00 +8.5268195057826119e+00 +0.0000000000000000e+00 +2.5499999914823963e+00 -2.9618054443423525e-02 -5.5658519845913046e-01 +5.3815332743363878e-03
2.5999999999999988e+00 +8.5268123572536787e+00 +0.0000000000000000e+00 +2.5999999909713654e+00 -2.9619048765875049e-02 -5.5660087871184161e-01 +5.3821622034923638e-03
2.6499999999999986e+00 +8.5268050698471498e+00 +0.0000000000000000e+00 +2.6499999904402864e+00 -2.9620055111515130e-02 -5.5661682752873465e-01 +5.3828012238957869e-03
2.6999999999999984e+00 +8.5267976435590462e+00 +0.0000000000000000e+00 +2.6999999898887728e+00 -2.9621073315140772e-02 -5.5663304314907669e-01 +5.3834502841060188e-03
2.7499999999999982e+00 +8.5267900783853214e+00 +0.0000000000000000e+00 +2.7499999893164380e+00 -2.9622103211548335e-02 -5.5664952381214161e-01 +5.3841093326828385e-03
2.7999999999999980e+00 +8.5267823743218631e+00 +0.0000000000000000e+00 +2.7999999887228961e+00 -2.9623144635533484e-02 -5.5666626775721162e-01 +5.3847783181864501e-03
2.8499999999999979e+00 +8.5267745313644951e+00 +0.0000000000000000e+00 +2.8499999881077605e+00 -2.9624197421891145e-02 -5.5668327322357614e-01 +5.3854571891774790e-03
2.8999999999999977e+00 +8.5267665495089737e+00 +0.0000000000000000e+00 +2.8999999874706441e+00 -2.9625261405415385e-02 -5.5670053845053147e-01 +5.3861458942169732e-03
2.9499999999999975e+00 +8.5267584287509912e+00 +0.0000000000000000e+00 +2.9499999868111608e+00 -2.9626336420899433e-02 -5.5671806167738069e-01 +5.3868443818664066e-03
2.9999999999999973e+00 +8.5267501690861760e+00 +0.0000000000000000e+00 +2.9999999861289242e+00 -2.9627422303135576e-02 -5.5673584114343411e-01 +5.3875526006876900e-03
3.0499999999999972e+00 +8.5267417705100907e+00 +0.0000000000000000e+00 +3.0499999854235473e+00 -2.9628518886915114e-02 -5.5675387508800800e-01 +5.3882704992431535e-03
3.0999999999999970e+00 +8.5267332330182377e+00 +0.0000000000000000e+00 +3.0999999846946436e+00 -2.9629626007028315e-02 -5.5677216175042532e-01 +5.3889980260955622e-03
3.1499999999999968e+00 +8.5267245566060534e+00 +0.0000000000000000e+00 +3.1499999839418260e+00 -2.9630743498264330e-02 -5.5679069937001502e-01 +5.3897351298081188e-03
3.1999999999999966e+00 +8.5267157412689123e+00 +0.0000000000000000e+00 +3.1999999831647084e+00 -2.9631871195411170e-02 -5.5680948618611203e-01 +5.3904817589444627e-03
3.2499999999999964e+00 +8.5267067870021265e+00 +0.0000000000000000e+00 +3.2499999823629033e+00 -2.9633008933255631e-02 -5.5682852043805708e-01 +5.3912378620686683e-03
3.2999999999999963e+00 +8.5266976938009478e+00 +0.0000000000000000e+00 +3.2999999815360241e+00 -2.9634156546583228e-02 -5.5684780036519554e-01 +5.3920033877452467e-03
3.3499999999999961e+00 +8.5266884616605658e+00 +0.0000000000000000e+00 +3.3499999806836840e+00 -2.9635313870178152e-02 -5.5686732420687945e-01 +5.3927782845391587e-03
3.3999999999999959e+00 +8.5266790905761081e+00 +0.0000000000000000e+00 +3.3999999798054956e+00 -2.9636480738823221e-02 -5.5688709020246530e-01 +5.3935625010158002e-03
3.4499999999999957e+00 +8.5266695805426451e+00 +0.0000000000000000e+00 +3.4499999789010722e+00 -2.9637656987299806e-02 -5.5690709659131399e-01 +5.3943559857410183e-03
3.4999999999999956e+00 +8.5266599315551836e+00 +0.0000000000000000e+00 +3.4999999779700266e+00 -2.9638842450387760e-02 -5.5692734161279189e-01 +5.3951586872811076e-03
3.5499999999999954e+00 +8.5266501436086717e+00 +0.0000000000000000e+00 +3.5499999770119715e+00 -2.9640036962865421e-02 -5.5694782350626959e-01 +5.3959705542028060e-03
3.5999999999999952e+00 +8.5266402166980004e+00 +0.0000000000000000e+00 +3.5999999760265200e+00 -2.9641240359509480e-02 -5.5696854051112166e-01 +5.3967915350733101e-03
3.6499999999999950e+00 +8.5266301508180007e+00 +0.0000000000000000e+00 +3.6499999750132845e+00 -2.9642452475094991e-02 -5.5698949086672755e-01 +5.3976215784602649e-03
3.6999999999999948e+00 +8.5266199459634446e+00 +0.0000000000000000e+00 +3.6999999739718779e+00 -2.9643673144395258e-02 -5.5701067281246941e-01 +5.3984606329317694e-03
3.7499999999999947e+00 +8.5266096021290476e+00 +0.0000000000000000e+00 +3.7499999729019127e+00 -2.9644902202181800e-02 -5.5703208458773434e-01 +5.3993086470563827e-03
3.7999999999999945e+00 +8.5265991193094663e+00 +0.0000000000000000e+00 +3.7999999718030013e+00 -2.9646139483224327e-02 -5.5705372443191226e-01 +5.4001655694031229e-03
3.8499999999999943e+00 +8.5265884974993025e+00 +0.0000000000000000e+00 +3.8499999706747565e+00 -2.9647384822290606e-02 -5.5707559058439593e-01 +5.4010313485414619e-03
3.8999999999999941e+00 +8.5265777366931008e+00 +0.0000000000000000e+00 +3.8999999695167911e+00 -2.9648638054146519e-02 -5.5709768128458270e-01 +5.4019059330413441e-03
3.9499999999999940e+00 +8.5265668368853493e+00 +0.0000000000000000e+00 +3.9499999683287168e+00 -2.9649899013555862e-02 -5.5711999477187069e-01 +5.4027892714731719e-03
3.9999999999999938e+00 +8.5265557980704809e+00 +0.0000000000000000e+00 +3.9999999671101465e+00 -2.9651167535280416e-02 -5.5714252928566255e-01 +5.4036813124078145e-03
4.0499999999999936e+00 +8.5265446202428716e+00 +0.0000000000000000e+00 +4.0499999658606924e+00 -2.9652443481584686e-02 -5.5716528296232060e-01 +5.4045819995294231e-03
4.0999999999999934e+00 +8.5265333033968460e+00 +0.0000000000000000e+00 +4.0999999645799665e+00 -2.9653726824751727e-02 -5.5718825352603885e-01 +5.4054912569736031e-03
4.1499999999999932e+00 +8.5265218475266717e+00 +0.0000000000000000e+00 +4.1499999632675806e+00 -2.9655017564570497e-02 -5.5721143859797295e-01 +5.4064090039885812e-03
4.1999999999999931e+00 +8.5265102526265650e+00 +0.0000000000000000e+00 +4.1999999619231474e+00 -2.9656315700831198e-02 -5.5723483579927868e-01 +5.4073351598223404e-03
4.2499999999999929e+00 +8.5264985186906870e+00 +0.0000000000000000e+00 +4.2499999605462788e+00 -2.9657621233325333e-02 -5.5725844275111491e-01 +5.4082696437225816e-03
4.2999999999999927e+00 +8.5264866457131490e+00 +0.0000000000000000e+00 +4.2999999591365867e+00 -2.9658934161845747e-02 -5.5728225707464252e-01 +5.4092123749367310e-03
4.3499999999999925e+00 +8.5264746336880073e+00 +0.0000000000000000e+00 +4.3499999576936830e+00 -2.9660254486186664e-02 -5.5730627639102237e-01 +5.4101632727119034e-03
4.3999999999999924e+00 +8.5264624826092703e+00 +0.0000000000000000e+00 +4.3999999562171794e+00 -2.9661582206143750e-02 -5.5733049832141812e-01 +5.4111222562948829e-03
4.4499999999999922e+00 +8.5264501924708949e+00 +0.0000000000000000e+00 +4.4499999547066880e+00 -2.9662917321514163e-02 -5.5735492048699420e-01 +5.4120892449321155e-03
4.4999999999999920e+00 +8.5264377632667880e+00 +0.0000000000000000e+00 +4.4999999531618204e+00 -2.9664259832096571e-02 -5.5737954050891569e-01 +5.4130641578696743e-03
4.5499999999999918e+00 +8.5264251949908054e+00 +0.0000000000000000e+00 +4.5499999515821887e+00 -2.9665609737691254e-02 -5.5740435600834837e-01 +5.4140469143532542e-03
4.5999999999999917e+00 +8.5264124876367564e+00 +0.0000000000000000e+00 +4.5999999499674038e+00 -2.9666967038100102e-02 -5.5742936460645920e-01 +5.4150374336281379e-03
4.6499999999999915e+00 +8.5263996411984007e+00 +0.0000000000000000e+00 +4.6499999483170775e+00 -2.9668331733126670e-02 -5.5745456392441473e-01 +5.4160356349391928e-03
4.6999999999999913e+00 +8.5263866556694516e+00 +0.0000000000000000e+00 +4.6999999466308218e+00 -2.9669703822576225e-02 -5.5747995158338204e-01 +5.4170414375308328e-03
4.7499999999999911e+00 +8.5263735310435731e+00 +0.0000000000000000e+00 +4.7499999449082475e+00 -2.9671083306255855e-02 -5.5750552520452845e-01 +5.4180547606470248e-03
4.7999999999999909e+00 +8.5263602673143861e+00 +0.0000000000000000e+00 +4.7999999431489666e+00 -2.9672470183974398e-02 -5.5753128240902028e-01 +5.4190755235312381e-03
4.8499999999999908e+00 +8.5263468644754639e+00 +0.0000000000000000e+00 +4.8499999413525892e+00 -2.9673864455542584e-02 -5.5755722081802406e-01 +5.4201036454264492e-03
4.8999999999999906e+00 +8.5263333225203350e+00 +0.0000000000000000e+00 +4.8999999395187279e+00 -2.9675266120773067e-02 -5.5758333805270544e-01 +5.4211390455751098e-03
4.9499999999999904e+00 +8.5263196414424822e+00 +0.0000000000000000e+00 +4.9499999376469930e+00 -2.9676675179480430e-02 -5.5760963173422951e-01 +5.4221816432191367e-03
4.9999999999999902e+00 +8.5263058212353453e+00 +0.0000000000000000e+00 +4.9999999357369953e+00 -2.9678091631481305e-02 -5.5763609948376014e-01 +5.4232313575998826e-03
5.0499999999999901e+00 +8.5262918618923216e+00 +0.0000000000000000e+00 +5.0499999337883468e+00 -2.9679515476594299e-02 -5.5766273892245954e-01 +5.4242881079581201e-03
5.0999999999999899e+00 +8.5262777634067621e+00 +0.0000000000000000e+00 +5.0999999318006575e+00 -2.9680946714640190e-02 -5.5768954767148915e-01 +5.4253518135340233e-03
5.1499999999999897e+00 +8.5262635257719808e+00 +0.0000000000000000e+00 +5.1499999297735393e+00 -2.9682385345441892e-02 -5.5771652335200894e-01 +5.4264223935671582e-03
5.1999999999999895e+00 +8.5262491489812451e+00 +0.0000000000000000e+00 +5.1999999277066022e+00 -2.9683831368824479e-02 -5.5774366358517669e-01 +5.4274997672964379e-03
5.2499999999999893e+00 +8.5262346330277836e+00 +0.0000000000000000e+00 +5.2499999255994574e+00 -2.9685284784615299e-02 -5.5777096599214759e-01 +5.4285838539601264e-03
5.2999999999999892e+00 +8.5262199779047840e+00 +0.0000000000000000e+00 +5.2999999234517148e+00 -2.9686745592643973e-02 -5.5779842819407588e-01 +5.4296745727958184e-03
5.3499999999999890e+00 +8.5262051836053967e+00 +0.0000000000000000e+00 +5.3499999212629854e+00 -2.9688213792742450e-02 -5.5782604781211265e-01 +5.4307718430403962e-03
5.3999999999999888e+00 +8.5261902501227276e+00 +0.0000000000000000e+00 +5.3999999190328802e+00 -2.9689689384745092e-02 -5.5785382246740645e-01 +5.4318755839300441e-03
5.4499999999999886e+00 +8.5261751774498489e+00 +0.0000000000000000e+00 +5.4499999167610094e+00 -2.9691172368488662e-02 -5.5788174978110305e-01 +5.4329857147002005e-03
5.4999999999999885e+00 +8.5261599655797919e+00 +0.0000000000000000e+00 +5.4999999144469829e+00 -2.9692662743812416e-02 -5.5790982737434547e-01 +5.4341021545855506e-03
5.5499999999999883e+00 +8.5261446145055508e+00 +0.0000000000000000e+00 +5.5499999120904118e+00 -2.9694160510558128e-02 -5.5793805286827336e-01 +5.4352248228200124e-03
5.5999999999999881e+00 +8.5261291242200823e+00 +0.0000000000000000e+00 +5.5999999096909061e+00 -2.9695665668570164e-02 -5.5796642388402340e-01 +5.4363536386367066e-03
5.6499999999999879e+00 +8.5261134947163093e+00 +0.0000000000000000e+00 +5.6499999072480760e+00 -2.9697178217695481e-02 -5.5799493804272782e-01 +5.4374885212679401e-03
5.6999999999999877e+00 +8.5260977259871176e+00 +0.0000000000000000e+00 +5.6999999047615315e+00 -2.9698698157783733e-02 -5.5802359296551574e-01 +5.4386293899451920e-03
5.7499999999999876e+00 +8.5260818180253555e+00 +0.0000000000000000e+00 +5.7499999022308828e+00 -2.9700225488687265e-02 -5.5805238627351261e-01 +5.4397761638990873e-03
5.7999999999999874e+00 +8.5260657708238412e+00 +0.0000000000000000e+00 +5.7999998996557398e+00 -2.9701760210261184e-02 -5.5808131558783869e-01 +5.4409287623593755e-03
5.8499999999999872e+00 +8.5260495843753556e+00 +0.0000000000000000e+00 +5.8499998970357128e+00 -2.9703302322363442e-02 -5.5811037852961076e-01 +5.4420871045549280e-03
5.8999999999999870e+00 +8.5260332586726477e+00 +0.0000000000000000e+00 +5.8999998943704108e+00 -2.9704851824854790e-02 -5.5813957271994075e-01 +5.4432511097136944e-03
