# field on trajectory
# s[mm] rx[mm] ry[mm] rz[mm] bx[T] by[T] bz[T]
0.0000000000000000e+00 +8.5269999999999904e+00 +0.0000000000000000e+00 +0.0000000000000000e+00 -3.0129054737839826e-02 -5.7799158809899431e-01 +5.5947473516432750e-03
5.0000000000000003e-02 +8.5269999309457507e+00 +0.0000000000000000e+00 +4.9999999999936401e-02 -3.0129161224380151e-02 -5.7799007920699319e-01 +5.5955928445297221e-03
1.0000000000000001e-01 +8.5269997237883199e+00 +0.0000000000000000e+00 +9.9999999999491399e-02 -3.0129287541391374e-02 -5.7798895072923873e-01 +5.5964463035328930e-03
1.4999999999999999e-01 +8.5269993785295792e+00 +0.0000000000000000e+00 +1.4999999999828301e-01 -3.0129433739781719e-02 -5.7798820209198642e-01 +5.5973076864209671e-03
2.0000000000000001e-01 +8.5269988951622508e+00 +0.0000000000000000e+00 +1.9999999999593099e-01 -3.0129599870463500e-02 -5.7798783272157817e-01 +5.5981769509630772e-03
2.5000000000000000e-01 +8.5269982736936107e+00 +0.0000000000000000e+00 +2.4999999999205300e-01 -3.0129785984343554e-02 -5.7798784204426157e-01 +5.5990540549276067e-03
2.9999999999999999e-01 +8.5269975141200103e+00 +0.0000000000000000e+00 +2.9999999998626797e-01 -3.0129992132333555e-02 -5.7798822948638517e-01 +5.5999389560840223e-03
3.4999999999999998e-01 +8.5269966164378292e+00 +0.0000000000000000e+00 +3.4999999997819298e-01 -3.0130218365345636e-02 -5.7798899447431329e-01 +5.6008316122020934e-03
4.0000000000000002e-01 +8.5269955806543294e+00 +0.0000000000000000e+00 +3.9999999996744900e-01 -3.0130464734287963e-02 -5.7799013643434471e-01 +5.6017319810510837e-03
4.5000000000000001e-01 +8.5269944067658798e+00 +0.0000000000000000e+00 +4.4999999995365297e-01 -3.0130731290073522e-02 -5.7799165479287740e-01 +5.6026400204013550e-03
5.0000000000000000e-01 +8.5269930947724806e+00 +0.0000000000000000e+00 +4.9999999993642402e-01 -3.0131018083614371e-02 -5.7799354897629862e-01 +5.6035556880232908e-03
5.5000000000000004e-01 +8.5269916446777607e+00 +0.0000000000000000e+00 +5.4999999991537996e-01 -3.0131325165821538e-02 -5.7799581841098446e-01 +5.6044789416873023e-03
5.9999999999999998e-01 +8.5269900564744603e+00 +0.0000000000000000e+00 +5.9999999989013997e-01 -3.0131652587610969e-02 -5.7799846252340981e-01 +5.6054097391648947e-03
6.5000000000000002e-01 +8.5269883301661995e+00 +0.0000000000000000e+00 +6.4999999986032297e-01 -3.0132000399894721e-02 -5.7800148073998436e-01 +5.6063480382270697e-03
6.9999999999999996e-01 +8.5269864657566394e+00 +0.0000000000000000e+00 +6.9999999982554695e-01 -3.0132368653585304e-02 -5.7800487248713273e-01 +5.6072937966451112e-03
7.5000000000000000e-01 +8.5269844632421208e+00 +0.0000000000000000e+00 +7.4999999978543097e-01 -3.0132757399598763e-02 -5.7800863719135187e-01 +5.6082469721911330e-03
8.0000000000000004e-01 +8.5269823226226400e+00 +0.0000000000000000e+00 +7.9999999973959202e-01 -3.0133166688850209e-02 -5.7801277427912756e-01 +5.6092075226372691e-03
8.4999999999999998e-01 +8.5269800438982202e+00 +0.0000000000000000e+00 +8.4999999968765005e-01 -3.0133596572255245e-02 -5.7801728317696055e-01 +5.6101754057559421e-03
9.0000000000000002e-01 +8.5269776270688507e+00 +0.0000000000000000e+00 +8.9999999962922395e-01 -3.0134047100730074e-02 -5.7802216331136846e-01 +5.6111505793198582e-03
9.4999999999999996e-01 +8.5269750721381605e+00 +0.0000000000000000e+00 +9.4999999956393100e-01 -3.0134518325190020e-02 -5.7802741410885750e-01 +5.6121330011017542e-03
1.0000000000000000e+00 +8.5269723790988792e+00 +0.0000000000000000e+00 +9.9999999949139096e-01 -3.0135010296555364e-02 -5.7803303499603265e-01 +5.6131226288754447e-03
1.0500000000000000e+00 +8.5269695479546499e+00 +0.0000000000000000e+00 +1.0499999994112199e+00 -3.0135523065742575e-02 -5.7803902539943086e-01 +5.6141194204142302e-03
1.1000000000000001e+00 +8.5269665787091107e+00 +0.0000000000000000e+00 +1.0999999993230400e+00 -3.0136056683668751e-02 -5.7804538474560607e-01 +5.6151233334917018e-03
1.1499999999999999e+00 +8.5269634713586093e+00 +0.0000000000000000e+00 +1.1499999992264700e+00 -3.0136611201254510e-02 -5.7805211246118260e-01 +5.6161343258822596e-03
1.2000000000000000e+00 +8.5269602259031707e+00 +0.0000000000000000e+00 +1.1999999991211201e+00 -3.0137186669419658e-02 -5.7805920797277288e-01 +5.6171523553603256e-03
1.2500000000000000e+00 +8.5269568423427700e+00 +0.0000000000000000e+00 +1.2499999990066200e+00 -3.0137783139084648e-02 -5.7806667070700501e-01 +5.6181773797006028e-03
1.3000000000000000e+00 +8.5269533206774195e+00 +0.0000000000000000e+00 +1.2999999988825901e+00 -3.0138400661170555e-02 -5.7807450009052275e-01 +5.6192093566780760e-03
1.3500000000000001e+00 +8.5269496609071194e+00 +0.0000000000000000e+00 +1.3499999987486300e+00 -3.0139039286599129e-02 -5.7808269554998526e-01 +5.6202482440680102e-03
1.3999999999999999e+00 +8.5269458630355093e+00 +0.0000000000000000e+00 +1.3999999986043801e+00 -3.0139699066291312e-02 -5.7809125651203896e-01 +5.6212939996456816e-03
1.4500000000000000e+00 +8.5269419270553009e+00 +0.0000000000000000e+00 +1.4499999984494401e+00 -3.0140380051173168e-02 -5.7810018240342920e-01 +5.6223465811874535e-03
1.5000000000000000e+00 +8.5269378529737896e+00 +0.0000000000000000e+00 +1.4999999982834400e+00 -3.0141082292165527e-02 -5.7810947265080515e-01 +5.6234059464688839e-03
1.5500000000000000e+00 +8.5269336407873197e+00 +0.0000000000000000e+00 +1.5499999981060000e+00 -3.0141805840194380e-02 -5.7811912668091514e-01 +5.6244720532666248e-03
1.6000000000000001e+00 +8.5269292904959002e+00 +0.0000000000000000e+00 +1.5999999979167401e+00 -3.0142550746184951e-02 -5.7812914392049453e-01 +5.6255448593573358e-03
1.6499999999999999e+00 +8.5269248020995292e+00 +0.0000000000000000e+00 +1.6499999977152600e+00 -3.0143317061063199e-02 -5.7813952379629341e-01 +5.6266243225179466e-03
1.7000000000000000e+00 +8.5269201755982102e+00 +0.0000000000000000e+00 +1.6999999975011999e+00 -3.0144104835755789e-02 -5.7815026573507733e-01 +5.6277104005256640e-03
1.7500000000000000e+00 +8.5269154109919292e+00 +0.0000000000000000e+00 +1.7499999972741700e+00 -3.0144914121190199e-02 -5.7816136916362648e-01 +5.6288030511579693e-03
1.8000000000000000e+00 +8.5269105082843506e+00 +0.0000000000000000e+00 +1.7999999970337901e+00 -3.0145744968293104e-02 -5.7817283350870796e-01 +5.6299022321923487e-03
1.8500000000000001e+00 +8.5269054674718099e+00 +0.0000000000000000e+00 +1.8499999967796801e+00 -3.0146597427995015e-02 -5.7818465819716003e-01 +5.6310079014071038e-03
1.8999999999999999e+00 +8.5269002885506797e+00 +0.0000000000000000e+00 +1.8999999965114500e+00 -3.0147471551227135e-02 -5.7819684265583415e-01 +5.6321200165807984e-03
1.9500000000000000e+00 +8.5268949715282396e+00 +0.0000000000000000e+00 +1.9499999962287300e+00 -3.0148367388917071e-02 -5.7820938631151475e-01 +5.6332385354914694e-03
2.0000000000000000e+00 +8.5268895164008391e+00 +0.0000000000000000e+00 +1.9999999959311201e+00 -3.0149284991997666e-02 -5.7822228859108304e-01 +5.6343634159182233e-03
2.0499999999999998e+00 +8.5268839230666291e+00 +0.0000000000000000e+00 +2.0499999956182600e+00 -3.0150224355760140e-02 -5.7823554871822125e-01 +5.6354946121446063e-03
2.1000000000000001e+00 +8.5268781914164702e+00 +0.0000000000000000e+00 +2.0999999952897199e+00 -3.0151185252769948e-02 -5.7824916510084012e-01 +5.6366320644424912e-03
2.1499999999999999e+00 +8.5268723214576294e+00 +0.0000000000000000e+00 +2.1499999949451398e+00 -3.0152167399863882e-02 -5.7826313594201773e-01 +5.6377757095722632e-03
2.2000000000000002e+00 +8.5268663131864706e+00 +0.0000000000000000e+00 +2.1999999945841302e+00 -3.0153170513884213e-02 -5.7827745944492803e-01 +5.6389254842953741e-03
2.2500000000000000e+00 +8.5268601666030008e+00 +0.0000000000000000e+00 +2.2499999942063100e+00 -3.0154194311672960e-02 -5.7829213381272937e-01 +5.6400813253732664e-03
2.2999999999999998e+00 +8.5268538817035697e+00 +0.0000000000000000e+00 +2.2999999938113000e+00 -3.0155238510074754e-02 -5.7830715724862092e-01 +5.6412431695679098e-03
2.3500000000000001e+00 +8.5268474584954692e+00 +0.0000000000000000e+00 +2.3499999933987001e+00 -3.0156302825931021e-02 -5.7832252795573091e-01 +5.6424109536407164e-03
2.3999999999999999e+00 +8.5268408969750507e+00 +0.0000000000000000e+00 +2.3999999929681501e+00 -3.0157386976088829e-02 -5.7833824413728219e-01 +5.6435846143541692e-03
2.4500000000000002e+00 +8.5268341971459396e+00 +0.0000000000000000e+00 +2.4499999925192602e+00 -3.0158490677393568e-02 -5.7835430399645504e-01 +5.6447640884704628e-03
2.5000000000000000e+00 +8.5268273590008903e+00 +0.0000000000000000e+00 +2.4999999920516398e+00 -3.0159613646696327e-02 -5.7837070573652416e-01 +5.6459493127528539e-03
2.5499999999999998e+00 +8.5268203825435194e+00 +0.0000000000000000e+00 +2.5499999915649201e+00 -3.0160755600845079e-02 -5.7838744756069249e-01 +5.6471402239640367e-03
2.6000000000000001e+00 +8.5268132677774702e+00 +0.0000000000000000e+00 +2.5999999910586999e+00 -3.0161916256689139e-02 -5.7840452767217532e-01 +5.6483367588669644e-03
2.6499999999999999e+00 +8.5268060146954703e+00 +0.0000000000000000e+00 +2.6499999905326099e+00 -3.0163095331083620e-02 -5.7842194427428140e-01 +5.6495388542256433e-03
2.7000000000000002e+00 +8.5267986233047797e+00 +0.0000000000000000e+00 +2.6999999899862699e+00 -3.0164292540879080e-02 -5.7843969557022135e-01 +5.6507464468032419e-03
2.7500000000000000e+00 +8.5267910936017905e+00 +0.0000000000000000e+00 +2.7499999894192899e+00 -3.0165507602931962e-02 -5.7845777976329782e-01 +5.6519594733639962e-03
2.7999999999999998e+00 +8.5267834255828294e+00 +0.0000000000000000e+00 +2.7999999888312899e+00 -3.0166740234100160e-02 -5.7847619505682668e-01 +5.6531778706723837e-03
2.8500000000000001e+00 +8.5267756192552007e+00 +0.0000000000000000e+00 +2.8499999882218900e+00 -3.0167990151238552e-02 -5.7849493965404952e-01 +5.6544015754923091e-03
2.8999999999999999e+00 +8.5267676746152592e+00 +0.0000000000000000e+00 +2.8999999875907001e+00 -3.0169257071207968e-02 -5.7851401175830197e-01 +5.6556305245887345e-03
2.9500000000000002e+00 +8.5267595916629908e+00 +0.0000000000000000e+00 +2.9499999869373399e+00 -3.0170540710869310e-02 -5.7853340957290333e-01 +5.6568646547265978e-03
3.0000000000000000e+00 +8.5267513703984203e+00 +0.0000000000000000e+00 +2.9999999862614302e+00 -3.0171840787084996e-02 -5.7855313130118258e-01 +5.6581039026710736e-03
3.0499999999999998e+00 +8.5267430108251592e+00 +0.0000000000000000e+00 +3.0499999855625899e+00 -3.0173157016717522e-02 -5.7857317514645057e-01 +5.6593482051872984e-03
3.1000000000000001e+00 +8.5267345129359509e+00 +0.0000000000000000e+00 +3.0999999848404300e+00 -3.0174489116635464e-02 -5.7859353931211222e-01 +5.6605974990414695e-03
3.1499999999999999e+00 +8.5267258767344192e+00 +0.0000000000000000e+00 +3.1499999840945798e+00 -3.0175836803704569e-02 -5.7861422200149826e-01 +5.6618517209992029e-03
3.2000000000000002e+00 +8.5267171022205694e+00 +0.0000000000000000e+00 +3.1999999833246400e+00 -3.0177199794793701e-02 -5.7863522141797741e-01 +5.6631108078266240e-03
3.2500000000000000e+00 +8.5267081893980503e+00 +0.0000000000000000e+00 +3.2499999825302401e+00 -3.0178577806771936e-02 -5.7865653576489939e-01 +5.6643746962898103e-03
3.2999999999999998e+00 +8.5266991382632096e+00 +0.0000000000000000e+00 +3.2999999817109900e+00 -3.0179970556513024e-02 -5.7867816324567978e-01 +5.6656433231556304e-03
3.3500000000000001e+00 +8.5266899488124199e+00 +0.0000000000000000e+00 +3.3499999808665200e+00 -3.0181377760892414e-02 -5.7870010206374212e-01 +5.6669166251911759e-03
3.3999999999999999e+00 +8.5266806210529502e+00 +0.0000000000000000e+00 +3.3999999799964300e+00 -3.0182799136782922e-02 -5.7872235042243636e-01 +5.6681945391629492e-03
3.4500000000000002e+00 +8.5266711549811607e+00 +0.0000000000000000e+00 +3.4499999791003502e+00 -3.0184234401063544e-02 -5.7874490652520516e-01 +5.6694770018385085e-03
3.5000000000000000e+00 +8.5266615505970496e+00 +0.0000000000000000e+00 +3.4999999781778901e+00 -3.0185683270613640e-02 -5.7876776857547030e-01 +5.6707639499853644e-03
3.5499999999999998e+00 +8.5266518079006293e+00 +0.0000000000000000e+00 +3.5499999772286701e+00 -3.0187145462314373e-02 -5.7879093477666421e-01 +5.6720553203712465e-03
3.6000000000000001e+00 +8.5266419268882601e+00 +0.0000000000000000e+00 +3.5999999762523198e+00 -3.0188620693050294e-02 -5.7881440333225420e-01 +5.6733510497643941e-03
3.6499999999999999e+00 +8.5266319075708505e+00 +0.0000000000000000e+00 +3.6499999752484298e+00 -3.0190108679701868e-02 -5.7883817244560543e-01 +5.6746510749321657e-03
3.6999999999999900e+00 +8.5266217499374797e+00 +0.0000000000000000e+00 +3.6999999742166398e+00 -3.0191609139160403e-02 -5.7886224032025668e-01 +5.6759553326437969e-03
3.7499999999999898e+00 +8.5266114539917908e+00 +0.0000000000000000e+00 +3.7499999731565601e+00 -3.0193121788313237e-02 -5.7888660515964507e-01 +5.6772637596676423e-03
3.7999999999999901e+00 +8.5266010197374307e+00 +0.0000000000000000e+00 +3.7999999720678099e+00 -3.0194646344049610e-02 -5.7891126516721436e-01 +5.6785762927722746e-03
3.8499999999999899e+00 +8.5265904471671092e+00 +0.0000000000000000e+00 +3.8499999709499999e+00 -3.0196182523265284e-02 -5.7893621854649946e-01 +5.6798928687273173e-03
3.8999999999999901e+00 +8.5265797362881095e+00 +0.0000000000000000e+00 +3.8999999698027499e+00 -3.0197730042852068e-02 -5.7896146350093203e-01 +5.6812134243015055e-03
3.9499999999999900e+00 +8.5265688870931609e+00 +0.0000000000000000e+00 +3.9499999686256899e+00 -3.0199288619709743e-02 -5.7898699823406130e-01 +5.6825378962648944e-03
3.9999999999999898e+00 +8.5265578995895304e+00 +0.0000000000000000e+00 +3.9999999674184199e+00 -3.0200857970734261e-02 -5.7901282094933382e-01 +5.6838662213866522e-03
4.0499999999999901e+00 +8.5265467737735907e+00 +0.0000000000000000e+00 +4.0499999661805601e+00 -3.0202437845865703e-02 -5.7903892970368809e-01 +5.6851983307210216e-03
4.0999999999999899e+00 +8.5265355096416897e+00 +0.0000000000000000e+00 +4.0999999649117402e+00 -3.0204028127195845e-02 -5.7906532196767913e-01 +5.6865341324583108e-03
4.1499999999999897e+00 +8.5265241072047502e+00 +0.0000000000000000e+00 +4.1499999636115703e+00 -3.0205628729847549e-02 -5.7909199506515574e-01 +5.6878735290713670e-03
4.1999999999999904e+00 +8.5265125664518600e+00 +0.0000000000000000e+00 +4.1999999622796604e+00 -3.0207239568951577e-02 -5.7911894632013527e-01 +5.6892164230342669e-03
4.2499999999999902e+00 +8.5265008873866499e+00 +0.0000000000000000e+00 +4.2499999609156403e+00 -3.0208860559631682e-02 -5.7914617305652638e-01 +5.6905627168195262e-03
4.2999999999999901e+00 +8.5264890700091200e+00 +0.0000000000000000e+00 +4.2999999595191198e+00 -3.0210491617011972e-02 -5.7917367259826669e-01 +5.6919123128994593e-03
4.3499999999999899e+00 +8.5264771143192792e+00 +0.0000000000000000e+00 +4.3499999580897200e+00 -3.0212132656215304e-02 -5.7920144226929537e-01 +5.6932651137458871e-03
4.3999999999999897e+00 +8.5264650203207601e+00 +0.0000000000000000e+00 +4.3999999566270596e+00 -3.0213783592361827e-02 -5.7922947939352543e-01 +5.6946210218298456e-03
4.4499999999999904e+00 +8.5264527880062797e+00 +0.0000000000000000e+00 +4.4499999551307496e+00 -3.0215444340574774e-02 -5.7925778129495276e-01 +5.6959799396226621e-03
4.4999999999999902e+00 +8.5264404173794901e+00 +0.0000000000000000e+00 +4.4999999536004101e+00 -3.0217114815971519e-02 -5.7928634529749179e-01 +5.6973417695942797e-03
4.5499999999999901e+00 +8.5264279084440204e+00 +0.0000000000000000e+00 +4.5499999520356598e+00 -3.0218794933667935e-02 -5.7931516872505606e-01 +5.6987064142140619e-03
4.5999999999999899e+00 +8.5264152611962292e+00 +0.0000000000000000e+00 +4.5999999504361098e+00 -3.0220484608781371e-02 -5.7934424890161529e-01 +5.7000737759513448e-03
4.6499999999999897e+00 +8.5264024756361305e+00 +0.0000000000000000e+00 +4.6499999488013897e+00 -3.0222183756426019e-02 -5.7937358315111098e-01 +5.7014437572745534e-03
4.6999999999999904e+00 +8.5263895517600794e+00 +0.0000000000000000e+00 +4.6999999471311096e+00 -3.0223892291715914e-02 -5.7940316879751175e-01 +5.7028162606517756e-03
4.7499999999999902e+00 +8.5263764895753393e+00 +0.0000000000000000e+00 +4.7499999454248902e+00 -3.0225610129758867e-02 -5.7943300316470170e-01 +5.7041911885495908e-03
4.7999999999999901e+00 +8.5263632890782901e+00 +0.0000000000000000e+00 +4.7999999436823400e+00 -3.0227337185665355e-02 -5.7946308357664711e-01 +5.7055684434347519e-03
4.8499999999999899e+00 +8.5263499502725608e+00 +0.0000000000000000e+00 +4.8499999419030901e+00 -3.0229073374540956e-02 -5.7949340735725785e-01 +5.7069479277727462e-03
4.8999999999999897e+00 +8.5263364731472393e+00 +0.0000000000000000e+00 +4.8999999400867402e+00 -3.0230818611495298e-02 -5.7952397183055238e-01 +5.7083295440294767e-03
4.9499999999999904e+00 +8.5263228577168793e+00 +0.0000000000000000e+00 +4.9499999382329296e+00 -3.0232572811625561e-02 -5.7955477432035307e-01 +5.7097131946681383e-03
4.9999999999999902e+00 +8.5263091039705596e+00 +0.0000000000000000e+00 +4.9999999363412497e+00 -3.0234335890037219e-02 -5.7958581215067473e-01 +5.7110987821531395e-03
5.0499999999999901e+00 +8.5262952115954196e+00 +0.0000000000000000e+00 +5.0499999344112600e+00 -3.0236107761957679e-02 -5.7961708264784584e-01 +5.7124862089714670e-03
5.0999999999999899e+00 +8.5262811802713294e+00 +0.0000000000000000e+00 +5.0999999324424596e+00 -3.0237888342615218e-02 -5.7964858313825085e-01 +5.7138753776099548e-03
5.1499999999999897e+00 +8.5262670100019005e+00 +0.0000000000000000e+00 +5.1499999304344799e+00 -3.0239677547102897e-02 -5.7968031094578631e-01 +5.7152661905296026e-03
5.1999999999999904e+00 +8.5262527007798798e+00 +0.0000000000000000e+00 +5.1999999283869203e+00 -3.0241475290515914e-02 -5.7971226339443105e-01 +5.7166585501914309e-03
5.2499999999999902e+00 +8.5262382526088896e+00 +0.0000000000000000e+00 +5.2499999262994104e+00 -3.0243281487942586e-02 -5.7974443780807483e-01 +5.7180523590547464e-03
5.2999999999999901e+00 +8.5262236654925800e+00 +0.0000000000000000e+00 +5.2999999241715603e+00 -3.0245096054468724e-02 -5.7977683151060455e-01 +5.7194475195779838e-03
5.3499999999999899e+00 +8.5262089394273097e+00 +0.0000000000000000e+00 +5.3499999220029704e+00 -3.0246918905180546e-02 -5.7980944182595784e-01 +5.7208439342192382e-03
5.3999999999999897e+00 +8.5261940744130698e+00 +0.0000000000000000e+00 +5.3999999197932702e+00 -3.0248749955160206e-02 -5.7984226607804068e-01 +5.7222415054354117e-03
5.4499999999999904e+00 +8.5261790704498708e+00 +0.0000000000000000e+00 +5.4499999175420601e+00 -3.0250589119487123e-02 -5.7987530159075340e-01 +5.7236401356824647e-03
5.4999999999999902e+00 +8.5261639275377092e+00 +0.0000000000000000e+00 +5.4999999152489698e+00 -3.0252436313237992e-02 -5.7990854568799211e-01 +5.7250397274153965e-03
5.5499999999999901e+00 +8.5261486456802196e+00 +0.0000000000000000e+00 +5.5499999129136004e+00 -3.0254291451485144e-02 -5.7994199569361859e-01 +5.7264401830879469e-03
5.5999999999999899e+00 +8.5261332248737691e+00 +0.0000000000000000e+00 +5.5999999105355700e+00 -3.0256154449301024e-02 -5.7997564893154518e-01 +5.7278414051534169e-03
5.6499999999999897e+00 +8.5261176651147306e+00 +0.0000000000000000e+00 +5.6499999081144896e+00 -3.0258025221755136e-02 -5.8000950272567886e-01 +5.7292432960641022e-03
5.6999999999999904e+00 +8.5261019664103497e+00 +0.0000000000000000e+00 +5.6999999056499897e+00 -3.0259903683909444e-02 -5.8004355439983568e-01 +5.7306457582703921e-03
5.7499999999999902e+00 +8.5260861287570204e+00 +0.0000000000000000e+00 +5.7499999031416600e+00 -3.0261789750827307e-02 -5.8007780127790942e-01 +5.7320486942224755e-03
5.7999999999999901e+00 +8.5260701521547198e+00 +0.0000000000000000e+00 +5.7999999005891203e+00 -3.0263683337567418e-02 -5.8011224068375900e-01 +5.7334520063691751e-03
5.8499999999999899e+00 +8.5260540366070892e+00 +0.0000000000000000e+00 +5.8499998979920003e+00 -3.0265584359183747e-02 -5.8014686994120845e-01 +5.7348555971579304e-03
5.8999999999999897e+00 +8.5260377821068705e+00 +0.0000000000000000e+00 +5.8999998953498896e+00 -3.0267492730731451e-02 -5.8018168637415768e-01 +5.7362593690359065e-03
