# field on trajectory
# s[mm] rx[mm] ry[mm] rz[mm] bx[T] by[T] bz[T]
-0.0000000000000000e+00 +8.5270000000000206e+00 +0.0000000000000000e+00 -0.0000000000000000e+00 -2.9040282952060768e-02 -5.5254853032053974e-01 +5.6643235067740235e-03
-5.0000000000000003e-02 +8.5269999309457507e+00 +0.0000000000000000e+00 -4.9999999999936401e-02 -2.9040405276045057e-02 -5.5254811653738778e-01 +5.6643519340932981e-03
-1.0000000000000001e-01 +8.5269997237846802e+00 +0.0000000000000000e+00 -9.9999999999491399e-02 -2.9040543572834508e-02 -5.5254803625052307e-01 +5.6643814772813130e-03
-1.4999999999999999e-01 +8.5269993785186706e+00 +0.0000000000000000e+00 -1.4999999999828301e-01 -2.9040697940302614e-02 -5.5254828888592633e-01 +5.6644120979092820e-03
-2.0000000000000001e-01 +8.5269988951477007e+00 +0.0000000000000000e+00 -1.9999999999593099e-01 -2.9040868476324803e-02 -5.5254887386960627e-01 +5.6644437575486747e-03
-2.5000000000000000e-01 +8.5269982736681396e+00 +0.0000000000000000e+00 -2.4999999999205300e-01 -2.9041055278779104e-02 -5.5254979062761267e-01 +5.6644764177713313e-03
-2.9999999999999999e-01 +8.5269975140799907e+00 +0.0000000000000000e+00 -2.9999999998626697e-01 -2.9041258445543294e-02 -5.5255103858598431e-01 +5.6645100401488957e-03
-3.4999999999999998e-01 +8.5269966163905302e+00 +0.0000000000000000e+00 -3.4999999997819298e-01 -2.9041478074493556e-02 -5.5255261717072124e-01 +5.6645445862525566e-03
-4.0000000000000002e-01 +8.5269955805888493e+00 +0.0000000000000000e+00 -3.9999999996744801e-01 -2.9041714263514044e-02 -5.5255452580797138e-01 +5.6645800176549554e-03
-4.5000000000000001e-01 +8.5269944066858407e+00 +0.0000000000000000e+00 -4.4999999995365197e-01 -2.9041967110481653e-02 -5.5255676392373776e-01 +5.6646162959271456e-03
-5.0000000000000000e-01 +8.5269930946742498e+00 +0.0000000000000000e+00 -4.9999999993642202e-01 -2.9042236713281211e-02 -5.5255933094417109e-01 +5.6646533826416280e-03
-5.5000000000000004e-01 +8.5269916445577092e+00 +0.0000000000000000e+00 -5.4999999991537796e-01 -2.9042523169794353e-02 -5.5256222629535623e-01 +5.6646912393701178e-03
-5.9999999999999998e-01 +8.5269900563289394e+00 +0.0000000000000000e+00 -5.9999999989013697e-01 -2.9042826577907806e-02 -5.5256544940347341e-01 +5.6647298276852340e-03
-6.5000000000000002e-01 +8.5269883299988596e+00 +0.0000000000000000e+00 -6.4999999986031898e-01 -2.9043147035502245e-02 -5.5256899969458406e-01 +5.6647691091582250e-03
-6.9999999999999996e-01 +8.5269864655601904e+00 +0.0000000000000000e+00 -6.9999999982554195e-01 -2.9043484640466095e-02 -5.5257287659489607e-01 +5.6648090453617775e-03
-7.5000000000000000e-01 +8.5269844630165608e+00 +0.0000000000000000e+00 -7.4999999978542398e-01 -2.9043839490684481e-02 -5.5257707953055302e-01 +5.6648495978677670e-03
-8.0000000000000004e-01 +8.5269823223679904e+00 +0.0000000000000000e+00 -7.9999999973958402e-01 -2.9044211684044634e-02 -5.5258160792773903e-01 +5.6648907282483684e-03
-8.4999999999999998e-01 +8.5269800436108198e+00 +0.0000000000000000e+00 -8.4999999968764095e-01 -2.9044601318435920e-02 -5.5258646121267863e-01 +5.6649323980760540e-03
-9.0000000000000002e-01 +8.5269776267450705e+00 +0.0000000000000000e+00 -8.9999999962921295e-01 -2.9045008491747001e-02 -5.5259163881158435e-01 +5.6649745689230178e-03
-9.4999999999999996e-01 +8.5269750717743609e+00 +0.0000000000000000e+00 -9.4999999956391801e-01 -2.9045433301865785e-02 -5.5259714015065597e-01 +5.6650172023611752e-03
-1.0000000000000000e+00 +8.5269723786986997e+00 +0.0000000000000000e+00 -9.9999999949137597e-01 -2.9045875846682178e-02 -5.5260296465613368e-01 +5.6650602599627184e-03
-1.0500000000000000e+00 +8.5269695475144491e+00 +0.0000000000000000e+00 -1.0499999994111999e+00 -2.9046336224088039e-02 -5.5260911175429883e-01 +5.6651037033001008e-03
-1.1000000000000001e+00 +8.5269665782288904e+00 +0.0000000000000000e+00 -1.0999999993230201e+00 -2.9046814531971617e-02 -5.5261558087136675e-01 +5.6651474939449203e-03
-1.1499999999999999e+00 +8.5269634708311095e+00 +0.0000000000000000e+00 -1.1499999992264500e+00 -2.9047310868228534e-02 -5.5262237143369897e-01 +5.6651915934701402e-03
-1.2000000000000000e+00 +8.5269602253283701e+00 +0.0000000000000000e+00 -1.1999999991210999e+00 -2.9047825330747977e-02 -5.5262948286753855e-01 +5.6652359634472935e-03
-1.2500000000000000e+00 +8.5269568417206791e+00 +0.0000000000000000e+00 -1.2499999990065900e+00 -2.9048358017422251e-02 -5.5263691459919484e-01 +5.6652805654484276e-03
-1.3000000000000000e+00 +8.5269533200044005e+00 +0.0000000000000000e+00 -1.2999999988825499e+00 -2.9048909026145479e-02 -5.5264466605501839e-01 +5.6653253610458275e-03
-1.3500000000000001e+00 +8.5269496601795307e+00 +0.0000000000000000e+00 -1.3499999987485900e+00 -2.9049478454810696e-02 -5.5265273666134529e-01 +5.6653703118114372e-03
-1.3999999999999999e+00 +8.5269458622533403e+00 +0.0000000000000000e+00 -1.3999999986043401e+00 -2.9050066401308427e-02 -5.5266112584447347e-01 +5.6654153793165790e-03
-1.4500000000000000e+00 +8.5269419262185693e+00 +0.0000000000000000e+00 -1.4499999984494001e+00 -2.9050672963535012e-02 -5.5266983303081996e-01 +5.6654605251336213e-03
-1.5000000000000000e+00 +8.5269378520752106e+00 +0.0000000000000000e+00 -1.4999999982833900e+00 -2.9051298239384245e-02 -5.5267885764676195e-01 +5.6655057108343006e-03
-1.5500000000000000e+00 +8.5269336398268898e+00 +0.0000000000000000e+00 -1.5499999981059500e+00 -2.9051942326748671e-02 -5.5268819911866385e-01 +5.6655508979899958e-03
-1.6000000000000001e+00 +8.5269292894736299e+00 +0.0000000000000000e+00 -1.5999999979166799e+00 -2.9052605323522343e-02 -5.5269785687292905e-01 +5.6655960481722563e-03
-1.6499999999999999e+00 +8.5269248010117700e+00 +0.0000000000000000e+00 -1.6499999977152000e+00 -2.9053287327600839e-02 -5.5270783033600202e-01 +5.6656411229528397e-03
-1.7000000000000000e+00 +8.5269201744449692e+00 +0.0000000000000000e+00 -1.6999999975011300e+00 -2.9053988436876937e-02 -5.5271811893428580e-01 +5.6656860839028071e-03
-1.7500000000000000e+00 +8.5269154097695701e+00 +0.0000000000000000e+00 -1.7499999972740901e+00 -2.9054708749246261e-02 -5.5272872209425139e-01 +5.6657308925936968e-03
-1.8000000000000000e+00 +8.5269105069892195e+00 +0.0000000000000000e+00 -1.7999999970336999e+00 -2.9055448362601589e-02 -5.5273963924232783e-01 +5.6657755105963556e-03
-1.8500000000000001e+00 +8.5269054661039299e+00 +0.0000000000000000e+00 -1.8499999967795799e+00 -2.9056207374837027e-02 -5.5275086980498500e-01 +5.6658198994817797e-03
-1.8999999999999999e+00 +8.5269002871100401e+00 +0.0000000000000000e+00 -1.8999999965113501e+00 -2.9056985883847971e-02 -5.5276241320873243e-01 +5.6658640208211240e-03
-1.9500000000000000e+00 +8.5268949700112007e+00 +0.0000000000000000e+00 -1.9499999962286201e+00 -2.9057783987526870e-02 -5.5277426888003778e-01 +5.6659078361848388e-03
-2.0000000000000000e+00 +8.5268895148037700e+00 +0.0000000000000000e+00 -1.9999999959310100e+00 -2.9058601783768765e-02 -5.5278643624543666e-01 +5.6659513071437833e-03
-2.0499999999999998e+00 +8.5268839213858900e+00 +0.0000000000000000e+00 -2.0499999956181298e+00 -2.9059439316952484e-02 -5.5279891455254682e-01 +5.6659943998865099e-03
-2.1000000000000001e+00 +8.5268781896593300e+00 +0.0000000000000000e+00 -2.0999999952895898e+00 -2.9060296417240943e-02 -5.5281170233039345e-01 +5.6660370990423122e-03
-2.1499999999999999e+00 +8.5268723196240899e+00 +0.0000000000000000e+00 -2.1499999949449999e+00 -2.9061172861205874e-02 -5.5282479792765193e-01 +5.6660793938432125e-03
-2.2000000000000002e+00 +8.5268663112729008e+00 +0.0000000000000000e+00 -2.1999999945839801e+00 -2.9062068425421944e-02 -5.5283819969305992e-01 +5.6661212735218160e-03
-2.2500000000000000e+00 +8.5268601646093902e+00 +0.0000000000000000e+00 -2.2499999942061502e+00 -2.9062982886459719e-02 -5.5285190597528744e-01 +5.6661627273099143e-03
-2.2999999999999998e+00 +8.5268538796335598e+00 +0.0000000000000000e+00 -2.2999999938111202e+00 -2.9063916020891194e-02 -5.5286591512303984e-01 +5.6662037444396001e-03
-2.3500000000000001e+00 +8.5268474563490599e+00 +0.0000000000000000e+00 -2.3499999933985198e+00 -2.9064867605287089e-02 -5.5288022548500726e-01 +5.6662443141427352e-03
-2.3999999999999999e+00 +8.5268408947522403e+00 +0.0000000000000000e+00 -2.3999999929679601e+00 -2.9065837416220933e-02 -5.5289483540994244e-01 +5.6662844256517696e-03
-2.4500000000000002e+00 +8.5268341948467405e+00 +0.0000000000000000e+00 -2.4499999925190501e+00 -2.9066825230263476e-02 -5.5290974324655451e-01 +5.6663240681986407e-03
-2.5000000000000000e+00 +8.5268273566252901e+00 +0.0000000000000000e+00 -2.4999999920514302e+00 -2.9067830823989716e-02 -5.5292494734364195e-01 +5.6663632310161669e-03
-2.5499999999999998e+00 +8.5268203800987994e+00 +0.0000000000000000e+00 -2.5499999915646900e+00 -2.9068853973967634e-02 -5.5294044604988024e-01 +5.6664019033358199e-03
-2.6000000000000001e+00 +8.5268132652563509e+00 +0.0000000000000000e+00 -2.5999999910584699e+00 -2.9069894456773618e-02 -5.5295623771411317e-01 +5.6664400743908034e-03
-2.6499999999999999e+00 +8.5268060121015896e+00 +0.0000000000000000e+00 -2.6499999905323701e+00 -2.9070952048978426e-02 -5.5297232068508750e-01 +5.6664777334132655e-03
-2.7000000000000002e+00 +8.5267986206345103e+00 +0.0000000000000000e+00 -2.6999999899860101e+00 -2.9072026527154120e-02 -5.5298869331158451e-01 +5.6665148696356856e-03
-2.7500000000000000e+00 +8.5267910908551094e+00 +0.0000000000000000e+00 -2.7499999894190199e+00 -2.9073117667872812e-02 -5.5300535394239647e-01 +5.6665514722906230e-03
-2.7999999999999998e+00 +8.5267834227670392e+00 +0.0000000000000000e+00 -2.7999999888310101e+00 -2.9074225247705039e-02 -5.5302230092629467e-01 +5.6665875306104070e-03
-2.8500000000000001e+00 +8.5267756163666508e+00 +0.0000000000000000e+00 -2.8499999882215898e+00 -2.9075349043224136e-02 -5.5303953261211458e-01 +5.6666230338280220e-03
-2.8999999999999999e+00 +8.5267676716539391e+00 +0.0000000000000000e+00 -2.8999999875903901e+00 -2.9076488831001886e-02 -5.5305704734867167e-01 +5.6666579711762387e-03
-2.9500000000000002e+00 +8.5267595886289200e+00 +0.0000000000000000e+00 -2.9499999869370299e+00 -2.9077644387609958e-02 -5.5307484348479008e-01 +5.6666923318879096e-03
-3.0000000000000000e+00 +8.5267513672915793e+00 +0.0000000000000000e+00 -2.9999999862611100e+00 -2.9078815489619946e-02 -5.5309291936930227e-01 +5.6667261051959773e-03
-3.0499999999999998e+00 +8.5267430076455604e+00 +0.0000000000000000e+00 -3.0499999855622502e+00 -2.9080001913601848e-02 -5.5311127335102039e-01 +5.6667592803331893e-03
-3.1000000000000001e+00 +8.5267345096872305e+00 +0.0000000000000000e+00 -3.0999999848400801e+00 -2.9081203436128307e-02 -5.5312990377881854e-01 +5.6667918465329531e-03
-3.1499999999999999e+00 +8.5267258734165807e+00 +0.0000000000000000e+00 -3.1499999840942201e+00 -2.9082419833770429e-02 -5.5314880900155150e-01 +5.6668237930284889e-03
-3.2000000000000002e+00 +8.5267170988336094e+00 +0.0000000000000000e+00 -3.1999999833242700e+00 -2.9083650883099110e-02 -5.5316798736808082e-01 +5.6668551090531191e-03
-3.2500000000000000e+00 +8.5267081859419704e+00 +0.0000000000000000e+00 -3.2499999825298600e+00 -2.9084896360683621e-02 -5.5318743722724828e-01 +5.6668857838399929e-03
-3.2999999999999998e+00 +8.5266991347380099e+00 +0.0000000000000000e+00 -3.2999999817106000e+00 -2.9086156043095890e-02 -5.5320715692795686e-01 +5.6669158066229297e-03
-3.3500000000000001e+00 +8.5266899452181004e+00 +0.0000000000000000e+00 -3.3499999808661101e+00 -2.9087429706907530e-02 -5.5322714481911472e-01 +5.6669451666358584e-03
-3.3999999999999999e+00 +8.5266806173895002e+00 +0.0000000000000000e+00 -3.3999999799960099e+00 -2.9088717128685757e-02 -5.5324739924955779e-01 +5.6669738531119956e-03
-3.4500000000000002e+00 +8.5266711512522306e+00 +0.0000000000000000e+00 -3.4499999790999101e+00 -2.9090018085000318e-02 -5.5326791856818125e-01 +5.6670018552852268e-03
-3.5000000000000000e+00 +8.5266615468026394e+00 +0.0000000000000000e+00 -3.4999999781774398e+00 -2.9091332352422096e-02 -5.5328870112391282e-01 +5.6670291623898512e-03
-3.5499999999999998e+00 +8.5266518040407409e+00 +0.0000000000000000e+00 -3.5499999772282100e+00 -2.9092659707520251e-02 -5.5330974526565979e-01 +5.6670557636600109e-03
-3.6000000000000001e+00 +8.5266419229665207e+00 +0.0000000000000000e+00 -3.5999999762518402e+00 -2.9093999926863692e-02 -5.5333104934233535e-01 +5.6670816483299913e-03
-3.6499999999999999e+00 +8.5266319035799807e+00 +0.0000000000000000e+00 -3.6499999752479400e+00 -2.9095352787020950e-02 -5.5335261170285810e-01 +5.6671068056342033e-03
-3.6999999999999900e+00 +8.5266217458847695e+00 +0.0000000000000000e+00 -3.6999999742161398e+00 -2.9096718064558866e-02 -5.5337443069612613e-01 +5.6671312248069297e-03
-3.7499999999999898e+00 +8.5266114498736005e+00 +0.0000000000000000e+00 -3.7499999731560498e+00 -2.9098095536048137e-02 -5.5339650467112189e-01 +5.6671548950834334e-03
-3.7999999999999901e+00 +8.5266010155537497e+00 +0.0000000000000000e+00 -3.7999999720672801e+00 -2.9099484978053460e-02 -5.5341883197672659e-01 +5.6671778056980046e-03
-3.8499999999999899e+00 +8.5265904429179500e+00 +0.0000000000000000e+00 -3.8499999709494599e+00 -2.9100886167144797e-02 -5.5344141096193378e-01 +5.6671999458862135e-03
-3.8999999999999901e+00 +8.5265797319771099e+00 +0.0000000000000000e+00 -3.8999999698022001e+00 -2.9102298879884688e-02 -5.5346423997560779e-01 +5.6672213048823764e-03
-3.9499999999999900e+00 +8.5265688827203103e+00 +0.0000000000000000e+00 -3.9499999686251202e+00 -2.9103722892843700e-02 -5.5348731736677759e-01 +5.6672418719226686e-03
-3.9999999999999898e+00 +8.5265578951548395e+00 +0.0000000000000000e+00 -3.9999999674178399e+00 -2.9105157982584926e-02 -5.5351064148434337e-01 +5.6672616362420068e-03
-4.0499999999999901e+00 +8.5265467692734092e+00 +0.0000000000000000e+00 -4.0499999661799704e+00 -2.9106603946180087e-02 -5.5353421053833607e-01 +5.6672805860262104e-03
-4.0999999999999899e+00 +8.5265355050833005e+00 +0.0000000000000000e+00 -4.0999999649111301e+00 -2.9108060662708945e-02 -5.5355802218276018e-01 +5.6672987052584188e-03
-4.1499999999999897e+00 +8.5265241025808791e+00 +0.0000000000000000e+00 -4.1499999636109504e+00 -2.9109528031759441e-02 -5.5358207393272107e-01 +5.6673159768722368e-03
-4.1999999999999904e+00 +8.5265125617697795e+00 +0.0000000000000000e+00 -4.1999999622790298e+00 -2.9111005952917410e-02 -5.5360636330327373e-01 +5.6673323838007167e-03
-4.2499999999999902e+00 +8.5265008826427202e+00 +0.0000000000000000e+00 -4.2499999609149901e+00 -2.9112494325773512e-02 -5.5363088780955394e-01 +5.6673479089777790e-03
-4.2999999999999901e+00 +8.5264890652069898e+00 +0.0000000000000000e+00 -4.2999999595184599e+00 -2.9113993049913470e-02 -5.5365564496659314e-01 +5.6673625353362202e-03
-4.3499999999999899e+00 +8.5264771094589396e+00 +0.0000000000000000e+00 -4.3499999580890396e+00 -2.9115502024927940e-02 -5.5368063228950370e-01 +5.6673762458097007e-03
-4.3999999999999897e+00 +8.5264650153985695e+00 +0.0000000000000000e+00 -4.3999999566263703e+00 -2.9117021150406829e-02 -5.5370584729337202e-01 +5.6673890233316032e-03
-4.4499999999999904e+00 +8.5264527830295300e+00 +0.0000000000000000e+00 -4.4499999551300400e+00 -2.9118550325939428e-02 -5.5373128749325995e-01 +5.6674008508350512e-03
-4.4999999999999902e+00 +8.5264404123481707e+00 +0.0000000000000000e+00 -4.4999999535996897e+00 -2.9120089451118551e-02 -5.5375695040428197e-01 +5.6674117112537337e-03
-4.5499999999999901e+00 +8.5264279033544899e+00 +0.0000000000000000e+00 -4.5499999520349199e+00 -2.9121638425536382e-02 -5.5378283354152746e-01 +5.6674215875210715e-03
-4.5999999999999899e+00 +8.5264152560448601e+00 +0.0000000000000000e+00 -4.5999999504353601e+00 -2.9123197148787267e-02 -5.5380893442011159e-01 +5.6674304625707640e-03
-4.6499999999999897e+00 +8.5264024704301793e+00 +0.0000000000000000e+00 -4.6499999488006196e+00 -2.9124765520460789e-02 -5.5383525055504379e-01 +5.6674383193354083e-03
-4.6999999999999904e+00 +8.5263895464995603e+00 +0.0000000000000000e+00 -4.6999999471303298e+00 -2.9126343440155727e-02 -5.5386177946149318e-01 +5.6674451407492804e-03
-4.7499999999999902e+00 +8.5263764842602505e+00 +0.0000000000000000e+00 -4.7499999454240900e+00 -2.9127930807464685e-02 -5.5388851865449396e-01 +5.6674509097452671e-03
-4.7999999999999901e+00 +8.5263632837050007e+00 +0.0000000000000000e+00 -4.7999999436815299e+00 -2.9129527521986789e-02 -5.5391546564918781e-01 +5.6674556092573729e-03
-4.8499999999999899e+00 +8.5263499448447000e+00 +0.0000000000000000e+00 -4.8499999419022597e+00 -2.9131133483314940e-02 -5.5394261796058131e-01 +5.6674592222182105e-03
-4.8999999999999897e+00 +8.5263364676684397e+00 +0.0000000000000000e+00 -4.8999999400859000e+00 -2.9132748591051409e-02 -5.5396997310384022e-01 +5.6674617315620760e-03
-4.9499999999999904e+00 +8.5263228521798702e+00 +0.0000000000000000e+00 -4.9499999382320699e+00 -2.9134372744793750e-02 -5.5399752859402185e-01 +5.6674631202221432e-03
-4.9999999999999902e+00 +8.5263090983826295e+00 +0.0000000000000000e+00 -4.9999999363403900e+00 -2.9136005844140452e-02 -5.5402528194618272e-01 +5.6674633711315866e-03
-5.0499999999999901e+00 +8.5262952059529198e+00 +0.0000000000000000e+00 -5.0499999344103799e+00 -2.9137647788817472e-02 -5.5405323067778434e-01 +5.6674624672488827e-03
-5.0999999999999899e+00 +8.5262811745706095e+00 +0.0000000000000000e+00 -5.0999999324415599e+00 -2.9139298478550409e-02 -5.5408137230626164e-01 +5.6674603915322242e-03
-5.1499999999999897e+00 +8.5262670042357094e+00 +0.0000000000000000e+00 -5.1499999304335597e+00 -2.9140957812942170e-02 -5.5410970434669360e-01 +5.6674571269150764e-03
-5.1999999999999904e+00 +8.5262526949518396e+00 +0.0000000000000000e+00 -5.1999999283859903e+00 -2.9142625691595245e-02 -5.5413822431413085e-01 +5.6674526563306174e-03
-5.2499999999999902e+00 +8.5262382467153692e+00 +0.0000000000000000e+00 -5.2499999262984600e+00 -2.9144302014116000e-02 -5.5416692972367410e-01 +5.6674469627125907e-03
-5.2999999999999901e+00 +8.5262236595299292e+00 +0.0000000000000000e+00 -5.2999999241705797e+00 -2.9145986680108978e-02 -5.5419581809036811e-01 +5.6674400289941605e-03
-5.3499999999999899e+00 +8.5262089333882596e+00 +0.0000000000000000e+00 -5.3499999220019703e+00 -2.9147679589184020e-02 -5.5422488692933458e-01 +5.6674318381093403e-03
-5.3999999999999897e+00 +8.5261940682976292e+00 +0.0000000000000000e+00 -5.3999999197922497e+00 -2.9149380640946420e-02 -5.5425413375558508e-01 +5.6674223729910080e-03
-5.4499999999999904e+00 +8.5261790642507496e+00 +0.0000000000000000e+00 -5.4499999175410201e+00 -2.9151089735008188e-02 -5.5428355608423430e-01 +5.6674116165731526e-03
-5.4999999999999902e+00 +8.5261639212585596e+00 +0.0000000000000000e+00 -5.4999999152479004e+00 -2.9152806770975419e-02 -5.5431315143025983e-01 +5.6673995517883633e-03
-5.5499999999999901e+00 +8.5261486393137602e+00 +0.0000000000000000e+00 -5.5499999129125097e+00 -2.9154531648462365e-02 -5.5434291730876861e-01 +5.6673861615706084e-03
-5.5999999999999899e+00 +8.5261332184127205e+00 +0.0000000000000000e+00 -5.5999999105344500e+00 -2.9156264267083037e-02 -5.5437285123483682e-01 +5.6673714288535794e-03
-5.6499999999999897e+00 +8.5261176585627307e+00 +0.0000000000000000e+00 -5.6499999081133403e+00 -2.9158004526448369e-02 -5.5440295072345580e-01 +5.6673553365701014e-03
-5.6999999999999904e+00 +8.5261019597637606e+00 +0.0000000000000000e+00 -5.6999999056488004e+00 -2.9159752326173318e-02 -5.5443321328966577e-01 +5.6673378676535572e-03
-5.7499999999999902e+00 +8.5260861220122006e+00 +0.0000000000000000e+00 -5.7499999031404396e+00 -2.9161507565875426e-02 -5.5446363644852892e-01 +5.6673190050375959e-03
-5.7999999999999901e+00 +8.5260701453080401e+00 +0.0000000000000000e+00 -5.7999999005878804e+00 -2.9163270145172077e-02 -5.5449421771507534e-01 +5.6672987316555689e-03
-5.8499999999999899e+00 +8.5260540296512808e+00 +0.0000000000000000e+00 -5.8499998979907204e+00 -2.9165039963681898e-02 -5.5452495460433016e-01 +5.6672770304408149e-03
