# field on trajectory
# s[mm] rx[mm] ry[mm] rz[mm] bx[T] by[T] bz[T]
0.0000000000000000e+00 +8.5980000000000008e+00 +0.0000000000000000e+00 +0.0000000000000000e+00 -2.8890605961139241e-02 -5.5149234429571270e-01 +5.3723240040322610e-03
5.0000000000000003e-02 +8.5979999308273243e+00 +0.0000000000000000e+00 +4.9999999999936200e-02 -2.8890413466778515e-02 -5.5148966014387057e-01 +5.3698152009646651e-03
1.0000000000000001e-01 +8.5979997233097283e+00 +0.0000000000000000e+00 +9.9999999999489608e-02 -2.8890244754339038e-02 -5.5148732728958894e-01 +5.3673140877853725e-03
1.5000000000000002e-01 +8.5979993774477972e+00 +0.0000000000000000e+00 +1.4999999999827746e-01 -2.8890099873498998e-02 -5.5148534520066439e-01 +5.3648208234733825e-03
2.0000000000000001e-01 +8.5979988932420284e+00 +0.0000000000000000e+00 +1.9999999999591694e-01 -2.8889978873937766e-02 -5.5148371334491120e-01 +5.3623355670079876e-03
2.5000000000000000e-01 +8.5979982706928322e+00 +0.0000000000000000e+00 +2.4999999999202532e-01 -2.8889881805335745e-02 -5.5148243119015927e-01 +5.3598584773688071e-03
2.9999999999999999e-01 +8.5979975098005301e+00 +0.0000000000000000e+00 +2.9999999998621979e-01 -2.8889808717374409e-02 -5.5148149820425529e-01 +5.3573897135357961e-03
3.4999999999999998e-01 +8.5979966105653549e+00 +0.0000000000000000e+00 +3.4999999997811759e-01 -2.8889759659736194e-02 -5.5148091385506159e-01 +5.3549294344892862e-03
3.9999999999999997e-01 +8.5979955729874540e+00 +0.0000000000000000e+00 +3.9999999996733598e-01 -2.8889734682104561e-02 -5.5148067761045705e-01 +5.3524777992100050e-03
4.4999999999999996e-01 +8.5979943970668877e+00 +0.0000000000000000e+00 +4.4999999995349216e-01 -2.8889733834163874e-02 -5.5148078893833674e-01 +5.3500349666790997e-03
4.9999999999999994e-01 +8.5979930828036277e+00 +0.0000000000000000e+00 +4.9999999993620337e-01 -2.8889757165599370e-02 -5.5148124730661130e-01 +5.3476010958781626e-03
5.4999999999999993e-01 +8.5979916301975585e+00 +0.0000000000000000e+00 +5.4999999991508675e-01 -2.8889804726097229e-02 -5.5148205218320800e-01 +5.3451763457892758e-03
5.9999999999999998e-01 +8.5979900392484776e+00 +0.0000000000000000e+00 +5.9999999988975961e-01 -2.8889876565344415e-02 -5.5148320303606957e-01 +5.3427608753950032e-03
6.5000000000000002e-01 +8.5979883099560972e+00 +0.0000000000000000e+00 +6.4999999985983914e-01 -2.8889972733028648e-02 -5.5148469933315414e-01 +5.3403548436784477e-03
7.0000000000000007e-01 +8.5979864423200407e+00 +0.0000000000000000e+00 +6.9999999982494254e-01 -2.8890093278838496e-02 -5.5148654054243662e-01 +5.3379584096232601e-03
7.5000000000000011e-01 +8.5979844363398481e+00 +0.0000000000000000e+00 +7.4999999978468701e-01 -2.8890238252463184e-02 -5.5148872613190691e-01 +5.3355717322136681e-03
8.0000000000000016e-01 +8.5979822920149704e+00 +0.0000000000000000e+00 +7.9999999973868974e-01 -2.8890407703592667e-02 -5.5149125556957068e-01 +5.3331949704345039e-03
8.5000000000000020e-01 +8.5979800093447736e+00 +0.0000000000000000e+00 +8.4999999968656792e-01 -2.8890601681917521e-02 -5.5149412832344880e-01 +5.3308282832712252e-03
9.0000000000000024e-01 +8.5979775883285363e+00 +0.0000000000000000e+00 +8.9999999962793875e-01 -2.8890820237128967e-02 -5.5149734386157823e-01 +5.3284718297099539e-03
9.5000000000000029e-01 +8.5979750289654522e+00 +0.0000000000000000e+00 +9.4999999956241943e-01 -2.8891063418918804e-02 -5.5150090165201104e-01 +5.3261257687374861e-03
1.0000000000000002e+00 +8.5979723312546277e+00 +0.0000000000000000e+00 +9.9999999948962703e-01 -2.8891331276979394e-02 -5.5150480116281442e-01 +5.3237902593413306e-03
1.0500000000000003e+00 +8.5979694951950858e+00 +0.0000000000000000e+00 +1.0499999994091787e+00 -2.8891623861003576e-02 -5.5150904186207139e-01 +5.3214654605097224e-03
1.1000000000000003e+00 +8.5979665207857625e+00 +0.0000000000000000e+00 +1.0999999993206915e+00 -2.8891941220684711e-02 -5.5151362321787911e-01 +5.3191515312316587e-03
1.1500000000000004e+00 +8.5979634080255085e+00 +0.0000000000000000e+00 +1.1499999992237828e+00 -2.8892283405716573e-02 -5.5151854469835082e-01 +5.3168486304969254e-03
1.2000000000000004e+00 +8.5979601569130892e+00 +0.0000000000000000e+00 +1.1999999991180696e+00 -2.8892650465793375e-02 -5.5152380577161464e-01 +5.3145569172961130e-03
1.2500000000000004e+00 +8.5979567674471866e+00 +0.0000000000000000e+00 +1.2499999990031689e+00 -2.8893042450609689e-02 -5.5152940590581312e-01 +5.3122765506206518e-03
1.3000000000000005e+00 +8.5979532396263938e+00 +0.0000000000000000e+00 +1.2999999988786979e+00 -2.8893459409860427e-02 -5.5153534456910469e-01 +5.3100076894628334e-03
1.3500000000000005e+00 +8.5979495734492222e+00 +0.0000000000000000e+00 +1.3499999987442735e+00 -2.8893901393240773e-02 -5.5154162122966111e-01 +5.3077504928158393e-03
1.4000000000000006e+00 +8.5979457689140961e+00 +0.0000000000000000e+00 +1.3999999985995126e+00 -2.8894368450446271e-02 -5.5154823535567077e-01 +5.3055051196737634e-03
1.4500000000000006e+00 +8.5979418260193565e+00 +0.0000000000000000e+00 +1.4499999984440324e+00 -2.8894860631172598e-02 -5.5155518641533530e-01 +5.3032717290316432e-03
1.5000000000000007e+00 +8.5979377447632608e+00 +0.0000000000000000e+00 +1.4999999982774499e+00 -2.8895377985115687e-02 -5.5156247387687130e-01 +5.3010504798854767e-03
1.5500000000000007e+00 +8.5979335251439810e+00 +0.0000000000000000e+00 +1.5499999980993822e+00 -2.8895920561971617e-02 -5.5157009720851025e-01 +5.2988415312322547e-03
1.6000000000000008e+00 +8.5979291671596041e+00 +0.0000000000000000e+00 +1.5999999979094459e+00 -2.8896488411436605e-02 -5.5157805587849784e-01 +5.2966450420699925e-03
1.6500000000000008e+00 +8.5979246708081334e+00 +0.0000000000000000e+00 +1.6499999977072581e+00 -2.8897081583206960e-02 -5.5158634935509465e-01 +5.2944611713977409e-03
1.7000000000000008e+00 +8.5979200360874888e+00 +0.0000000000000000e+00 +1.6999999974924358e+00 -2.8897700126979040e-02 -5.5159497710657468e-01 +5.2922900782156239e-03
1.7500000000000009e+00 +8.5979152629955049e+00 +0.0000000000000000e+00 +1.7499999972645957e+00 -2.8898344092449239e-02 -5.5160393860122703e-01 +5.2901319215248625e-03
1.8000000000000009e+00 +8.5979103515299347e+00 +0.0000000000000000e+00 +1.7999999970233547e+00 -2.8899013529313955e-02 -5.5161323330735457e-01 +5.2879868603277948e-03
1.8500000000000010e+00 +8.5979053016884475e+00 +0.0000000000000000e+00 +1.8499999967683298e+00 -2.8899708487269474e-02 -5.5162286069327449e-01 +5.2858550536279093e-03
1.9000000000000010e+00 +8.5979001134686275e+00 +0.0000000000000000e+00 +1.8999999964991376e+00 -2.8900429016012089e-02 -5.5163282022731808e-01 +5.2837366604298669e-03
1.9500000000000011e+00 +8.5978947868679754e+00 +0.0000000000000000e+00 +1.9499999962153949e+00 -2.8901175165237911e-02 -5.5164311137783018e-01 +5.2816318397395246e-03
2.0000000000000009e+00 +8.5978893218839119e+00 +0.0000000000000000e+00 +1.9999999959167185e+00 -2.8901946984642934e-02 -5.5165373361316983e-01 +5.2795407505639696e-03
2.0500000000000007e+00 +8.5978837185137706e+00 +0.0000000000000000e+00 +2.0499999956027248e+00 -2.8902744473346117e-02 -5.5166468615809305e-01 +5.2774635367307011e-03
2.1000000000000005e+00 +8.5978779767548037e+00 +0.0000000000000000e+00 +2.0999999952730311e+00 -2.8903567428159034e-02 -5.5167596726289647e-01 +5.2754002813449009e-03
2.1500000000000004e+00 +8.5978720966041831e+00 +0.0000000000000000e+00 +2.1499999949272532e+00 -2.8904415595316833e-02 -5.5168757493427245e-01 +5.2733510523316086e-03
2.2000000000000002e+00 +8.5978660780589955e+00 +0.0000000000000000e+00 +2.1999999945650086e+00 -2.8905288721055144e-02 -5.5169950717892402e-01 +5.2713159176164910e-03
2.2500000000000000e+00 +8.5978599211162479e+00 +0.0000000000000000e+00 +2.2499999941859130e+00 -2.8906186551610109e-02 -5.5171176200356609e-01 +5.2692949451258282e-03
2.2999999999999998e+00 +8.5978536257728670e+00 +0.0000000000000000e+00 +2.2999999937895836e+00 -2.8907108833218360e-02 -5.5172433741492477e-01 +5.2672882027865048e-03
2.3499999999999996e+00 +8.5978471920256982e+00 +0.0000000000000000e+00 +2.3499999933756368e+00 -2.8908055312117060e-02 -5.5173723141973730e-01 +5.2652957585259908e-03
2.3999999999999995e+00 +8.5978406198715067e+00 +0.0000000000000000e+00 +2.3999999929436888e+00 -2.8909025734543878e-02 -5.5175044202475187e-01 +5.2633176802723445e-03
2.4499999999999993e+00 +8.5978339093069778e+00 +0.0000000000000000e+00 +2.4499999924933560e+00 -2.8910019846737040e-02 -5.5176396723672749e-01 +5.2613540359541817e-03
2.4999999999999991e+00 +8.5978270603287203e+00 +0.0000000000000000e+00 +2.4999999920242550e+00 -2.8911037394935283e-02 -5.5177780506243346e-01 +5.2594048935006637e-03
2.5499999999999989e+00 +8.5978200729332617e+00 +0.0000000000000000e+00 +2.5499999915360023e+00 -2.8912078125377921e-02 -5.5179195350864996e-01 +5.2574703208415029e-03
2.5999999999999988e+00 +8.5978129471170526e+00 +0.0000000000000000e+00 +2.5999999910282137e+00 -2.8913141784304791e-02 -5.5180641058216662e-01 +5.2555503859069239e-03
2.6499999999999986e+00 +8.5978056828764675e+00 +0.0000000000000000e+00 +2.6499999905005058e+00 -2.8914228117956325e-02 -5.5182117428978394e-01 +5.2536451566276739e-03
2.6999999999999984e+00 +8.5977982802078028e+00 +0.0000000000000000e+00 +2.6999999899524947e+00 -2.8915336872573527e-02 -5.5183624263831166e-01 +5.2517547009349949e-03
2.7499999999999982e+00 +8.5977907391072783e+00 +0.0000000000000000e+00 +2.7499999893837965e+00 -2.8916467794397955e-02 -5.5185161363456903e-01 +5.2498790867606168e-03
2.7999999999999980e+00 +8.5977830595710376e+00 +0.0000000000000000e+00 +2.7999999887940277e+00 -2.8917620629671795e-02 -5.5186728528538576e-01 +5.2480183820367426e-03
2.8499999999999979e+00 +8.5977752415951514e+00 +0.0000000000000000e+00 +2.8499999881828044e+00 -2.8918795124637811e-02 -5.5188325559759954e-01 +5.2461726546960286e-03
2.8999999999999977e+00 +8.5977672851756122e+00 +0.0000000000000000e+00 +2.8999999875497422e+00 -2.8919991025539361e-02 -5.5189952257805774e-01 +5.2443419726715930e-03
2.9499999999999975e+00 +8.5977591903083397e+00 +0.0000000000000000e+00 +2.9499999868944573e+00 -2.8921208078620430e-02 -5.5191608423361715e-01 +5.2425264038969757e-03
2.9999999999999973e+00 +8.5977509569891790e+00 +0.0000000000000000e+00 +2.9999999862165661e+00 -2.8922446030125632e-02 -5.5193293857114234e-01 +5.2407260163061476e-03
3.0499999999999972e+00 +8.5977425852139024e+00 +0.0000000000000000e+00 +3.0499999855156839e+00 -2.8923704626300208e-02 -5.5195008359750741e-01 +5.2389408778334787e-03
3.0999999999999970e+00 +8.5977340749782094e+00 +0.0000000000000000e+00 +3.0999999847914266e+00 -2.8924983613390035e-02 -5.5196751731959415e-01 +5.2371710564137449e-03
3.1499999999999968e+00 +8.5977254262777247e+00 +0.0000000000000000e+00 +3.1499999840434105e+00 -2.8926282737641636e-02 -5.5198523774429287e-01 +5.2354166199820975e-03
3.1999999999999966e+00 +8.5977166391080058e+00 +0.0000000000000000e+00 +3.1999999832712511e+00 -2.8927601745302196e-02 -5.5200324287850100e-01 +5.2336776364740574e-03
3.2499999999999964e+00 +8.5977077134645352e+00 +0.0000000000000000e+00 +3.2499999824745642e+00 -2.8928940382619554e-02 -5.5202153072912563e-01 +5.2319541738255083e-03
3.2999999999999963e+00 +8.5976986493427248e+00 +0.0000000000000000e+00 +3.2999999816529653e+00 -2.8930298395842255e-02 -5.5204009930307996e-01 +5.2302462999726717e-03
3.3499999999999961e+00 +8.5976894467379168e+00 +0.0000000000000000e+00 +3.3499999808060701e+00 -2.8931675531219472e-02 -5.5205894660728505e-01 +5.2285540828521044e-03
3.3999999999999959e+00 +8.5976801056453844e+00 +0.0000000000000000e+00 +3.3999999799334941e+00 -2.8933071535001097e-02 -5.5207807064866943e-01 +5.2268775904006767e-03
3.4499999999999957e+00 +8.5976706260603297e+00 +0.0000000000000000e+00 +3.4499999790348528e+00 -2.8934486153437720e-02 -5.5209746943416826e-01 +5.2252168905555655e-03
3.4999999999999956e+00 +8.5976610079778855e+00 +0.0000000000000000e+00 +3.4999999781097615e+00 -2.8935919132780638e-02 -5.5211714097072473e-01 +5.2235720512542440e-03
3.5499999999999954e+00 +8.5976512513931187e+00 +0.0000000000000000e+00 +3.5499999771578361e+00 -2.8937370219281843e-02 -5.5213708326528688e-01 +5.2219431404344572e-03
3.5999999999999952e+00 +8.5976413563010254e+00 +0.0000000000000000e+00 +3.5999999761786916e+00 -2.8938839159194062e-02 -5.5215729432481131e-01 +5.2203302260342213e-03
3.6499999999999950e+00 +8.5976313226965360e+00 +0.0000000000000000e+00 +3.6499999751719434e+00 -2.8940325698770770e-02 -5.5217777215625963e-01 +5.2187333759918051e-03
3.6999999999999948e+00 +8.5976211505745148e+00 +0.0000000000000000e+00 +3.6999999741372069e+00 -2.8941829584266148e-02 -5.5219851476660031e-01 +5.2171526582457158e-03
3.7499999999999947e+00 +8.5976108399297573e+00 +0.0000000000000000e+00 +3.7499999730740972e+00 -2.8943350561935137e-02 -5.5221952016280729e-01 +5.2155881407346862e-03
3.7999999999999945e+00 +8.5976003907569947e+00 +0.0000000000000000e+00 +3.7999999719822291e+00 -2.8944888378033436e-02 -5.5224078635186069e-01 +5.2140398913976685e-03
3.8499999999999943e+00 +8.5975898030508926e+00 +0.0000000000000000e+00 +3.8499999708612180e+00 -2.8946442778817524e-02 -5.5226231134074655e-01 +5.2125079781738127e-03
3.8999999999999941e+00 +8.5975790768060509e+00 +0.0000000000000000e+00 +3.8999999697106786e+00 -2.8948013510544598e-02 -5.5228409313645543e-01 +5.2109924690024552e-03
3.9499999999999940e+00 +8.5975682120170056e+00 +0.0000000000000000e+00 +3.9499999685302263e+00 -2.8949600319472697e-02 -5.5230612974598448e-01 +5.2094934318231180e-03
3.9999999999999938e+00 +8.5975572086782286e+00 +0.0000000000000000e+00 +3.9999999673194755e+00 -2.8951202951860617e-02 -5.5232841917633468e-01 +5.2080109345754707e-03
4.0499999999999936e+00 +8.5975460667841297e+00 +0.0000000000000000e+00 +4.0499999660780412e+00 -2.8952821165443583e-02 -5.5235095931783140e-01 +5.2065450409778460e-03
4.0999999999999934e+00 +8.5975347863290548e+00 +0.0000000000000000e+00 +4.0999999648055390e+00 -2.8954454763860452e-02 -5.5237374759407809e-01 +5.2050957978628676e-03
4.1499999999999932e+00 +8.5975233673072857e+00 +0.0000000000000000e+00 +4.1499999635015827e+00 -2.8956103562227126e-02 -5.5239678131199854e-01 +5.2036632478422891e-03
4.1999999999999931e+00 +8.5975118097130458e+00 +0.0000000000000000e+00 +4.1999999621657871e+00 -2.8957767375660939e-02 -5.5242005777851799e-01 +5.2022474335285535e-03
4.2499999999999929e+00 +8.5975001135404963e+00 +0.0000000000000000e+00 +4.2499999607977665e+00 -2.8959446019280657e-02 -5.5244357430056212e-01 +5.2008483975348047e-03
4.2999999999999927e+00 +8.5974882787837359e+00 +0.0000000000000000e+00 +4.2999999593971356e+00 -2.8961139308206568e-02 -5.5246732818505773e-01 +5.1994661824748762e-03
4.3499999999999925e+00 +8.5974763054368086e+00 +0.0000000000000000e+00 +4.3499999579635089e+00 -2.8962847057560429e-02 -5.5249131673893204e-01 +5.1981008309633136e-03
4.3999999999999924e+00 +8.5974641934936962e+00 +0.0000000000000000e+00 +4.3999999564965009e+00 -2.8964569082465575e-02 -5.5251553726911240e-01 +5.1967523856153667e-03
4.4499999999999922e+00 +8.5974519429483216e+00 +0.0000000000000000e+00 +4.4499999549957261e+00 -2.8966305198046868e-02 -5.5253998708252572e-01 +5.1954208890470002e-03
4.4999999999999920e+00 +8.5974395537945529e+00 +0.0000000000000000e+00 +4.4999999534607991e+00 -2.8968055219430775e-02 -5.5256466348609901e-01 +5.1941063838748906e-03
4.5499999999999918e+00 +8.5974270260261996e+00 +0.0000000000000000e+00 +4.5499999518913334e+00 -2.8969818961745376e-02 -5.5258956378675839e-01 +5.1928089127164364e-03
4.5999999999999917e+00 +8.5974143596370158e+00 +0.0000000000000000e+00 +4.5999999502869429e+00 -2.8971596240120405e-02 -5.5261468529142899e-01 +5.1915285181897627e-03
4.6499999999999915e+00 +8.5974015546206992e+00 +0.0000000000000000e+00 +4.6499999486472428e+00 -2.8973386869687225e-02 -5.5264002530703471e-01 +5.1902652429137190e-03
4.6999999999999913e+00 +8.5973886109708921e+00 +0.0000000000000000e+00 +4.6999999469718459e+00 -2.8975190665578944e-02 -5.5266558114049835e-01 +5.1890191295078936e-03
4.7499999999999911e+00 +8.5973755286811855e+00 +0.0000000000000000e+00 +4.7499999452603667e+00 -2.8977007442930334e-02 -5.5269135009874037e-01 +5.1877902205926026e-03
4.7999999999999909e+00 +8.5973623077451151e+00 +0.0000000000000000e+00 +4.7999999435124190e+00 -2.8978837016877975e-02 -5.5271732948867958e-01 +5.1865785587889117e-03
4.8499999999999908e+00 +8.5973489481561636e+00 +0.0000000000000000e+00 +4.8499999417276172e+00 -2.8980679202560172e-02 -5.5274351661723231e-01 +5.1853841867186235e-03
4.8999999999999906e+00 +8.5973354499077619e+00 +0.0000000000000000e+00 +4.8999999399055740e+00 -2.8982533815117038e-02 -5.5276990879131249e-01 +5.1842071470042999e-03
4.9499999999999904e+00 +8.5973218129932896e+00 +0.0000000000000000e+00 +4.9499999380459032e+00 -2.8984400669690529e-02 -5.5279650331783070e-01 +5.1830474822692450e-03
4.9999999999999902e+00 +8.5973080374060764e+00 +0.0000000000000000e+00 +4.9999999361482192e+00 -2.8986279581424437e-02 -5.5282329750369497e-01 +5.1819052351375289e-03
5.0499999999999901e+00 +8.5972941231393989e+00 +0.0000000000000000e+00 +5.0499999342121349e+00 -2.8988170365464441e-02 -5.5285028865581010e-01 +5.1807804482339806e-03
5.0999999999999899e+00 +8.5972800701864873e+00 +0.0000000000000000e+00 +5.0999999322372638e+00 -2.8990072836958109e-02 -5.5287747408107613e-01 +5.1796731641841915e-03
5.1499999999999897e+00 +8.5972658785405240e+00 +0.0000000000000000e+00 +5.1499999302232196e+00 -2.8991986811054950e-02 -5.5290485108638976e-01 +5.1785834256145242e-03
5.1999999999999895e+00 +8.5972515481946399e+00 +0.0000000000000000e+00 +5.1999999281696150e+00 -2.8993912102906444e-02 -5.5293241697864426e-01 +5.1775112751521243e-03
5.2499999999999893e+00 +8.5972370791419195e+00 +0.0000000000000000e+00 +5.2499999260760637e+00 -2.8995848527666023e-02 -5.5296016906472700e-01 +5.1764567554249026e-03
5.2999999999999892e+00 +8.5972224713754013e+00 +0.0000000000000000e+00 +5.2999999239421793e+00 -2.8997795900489152e-02 -5.5298810465152104e-01 +5.1754199090615557e-03
5.3499999999999890e+00 +8.5972077248880776e+00 +0.0000000000000000e+00 +5.3499999217675747e+00 -2.8999754036533324e-02 -5.5301622104590498e-01 +5.1744007786915730e-03
5.3999999999999888e+00 +8.5971928396728963e+00 +0.0000000000000000e+00 +5.3999999195518624e+00 -2.9001722750958119e-02 -5.5304451555475143e-01 +5.1733994069452297e-03
5.4499999999999886e+00 +8.5971778157227590e+00 +0.0000000000000000e+00 +5.4499999172946554e+00 -2.9003701858925139e-02 -5.5307298548492723e-01 +5.1724158364535935e-03
5.4999999999999885e+00 +8.5971626530305247e+00 +0.0000000000000000e+00 +5.4999999149955672e+00 -2.9005691175598158e-02 -5.5310162814329400e-01 +5.1714501098485341e-03
5.5499999999999883e+00 +8.5971473515890064e+00 +0.0000000000000000e+00 +5.5499999126542097e+00 -2.9007690516143100e-02 -5.5313044083670693e-01 +5.1705022697627265e-03
5.5999999999999881e+00 +8.5971319113909779e+00 +0.0000000000000000e+00 +5.5999999102701965e+00 -2.9009699695728024e-02 -5.5315942087201420e-01 +5.1695723588296482e-03
5.6499999999999879e+00 +8.5971163324291702e+00 +0.0000000000000000e+00 +5.6499999078431395e+00 -2.9011718529523181e-02 -5.5318856555605855e-01 +5.1686604196835911e-03
5.6999999999999877e+00 +8.5971006146962718e+00 +0.0000000000000000e+00 +5.6999999053726524e+00 -2.9013746832701075e-02 -5.5321787219567409e-01 +5.1677664949596625e-03
5.7499999999999876e+00 +8.5970847581849306e+00 +0.0000000000000000e+00 +5.7499999028583471e+00 -2.9015784420436435e-02 -5.5324733809768911e-01 +5.1668906272937859e-03
5.7999999999999874e+00 +8.5970687628877549e+00 +0.0000000000000000e+00 +5.7999999002998353e+00 -2.9017831107906251e-02 -5.5327696056892339e-01 +5.1660328593227138e-03
5.8499999999999872e+00 +8.5970526287973144e+00 +0.0000000000000000e+00 +5.8499998976967307e+00 -2.9019886710289846e-02 -5.5330673691618948e-01 +5.1651932336840211e-03
5.8999999999999870e+00 +8.5970363559061393e+00 +0.0000000000000000e+00 +5.8999998950486443e+00 -2.9021951042768855e-02 -5.5333666444629159e-01 +5.1643717930161242e-03
