# trajectory
# s[mm] rx[mm] ry[mm] rz[mm] px[rad] py[rad] pz[rad]
0.0000000000000000e+00 +8.5389999999999997e+00 +0.0000000000000000e+00 +0.0000000000000000e+00 +0.0000000000000000e+00 +0.0000000000000000e+00 +1.0000000000000000e+00
-5.0000000000000003e-02 +8.5389999310436675e+00 +0.0000000000000000e+00 -4.9999999999936595e-02 +2.7582537981615553e-06 +0.0000000000000000e+00 +9.9999999999619604e-01
-1.0000000000000001e-01 +8.5389997241745537e+00 +0.0000000000000000e+00 -9.9999999999492800e-02 +5.5165115607891366e-06 +0.0000000000000000e+00 +9.9999999998478406e-01
-1.5000000000000002e-01 +8.5389993793924130e+00 +0.0000000000000000e+00 -1.4999999999828822e-01 +8.2747752415309188e-06 +0.0000000000000000e+00 +9.9999999996576405e-01
-2.0000000000000001e-01 +8.5389988966968993e+00 +0.0000000000000000e+00 -1.9999999999594242e-01 +1.1033046789870111e-05 +0.0000000000000000e+00 +9.9999999993913591e-01
-2.5000000000000000e-01 +8.5389982760875700e+00 +0.0000000000000000e+00 -2.4999999999207501e-01 +1.3791328151125031e-05 +0.0000000000000000e+00 +9.9999999990489963e-01
-2.9999999999999999e-01 +8.5389975175638870e+00 +0.0000000000000000e+00 -2.9999999998630555e-01 +1.6549621266449198e-05 +0.0000000000000000e+00 +9.9999999986305499e-01
-3.4999999999999998e-01 +8.5389966211252144e+00 +0.0000000000000000e+00 -3.4999999997825371e-01 +1.9307928072831415e-05 +0.0000000000000000e+00 +9.9999999981360188e-01
-3.9999999999999997e-01 +8.5389955867708185e+00 +0.0000000000000000e+00 -3.9999999996753899e-01 +2.2066250503095855e-05 +0.0000000000000000e+00 +9.9999999975654019e-01
-4.4999999999999996e-01 +8.5389944144998715e+00 +0.0000000000000000e+00 -4.4999999995378093e-01 +2.4824590485902143e-05 +0.0000000000000000e+00 +9.9999999969186970e-01
-4.9999999999999994e-01 +8.5389931043114462e+00 +0.0000000000000000e+00 -4.9999999993659916e-01 +2.7582949945745442e-05 +0.0000000000000000e+00 +9.9999999961959030e-01
-5.4999999999999993e-01 +8.5389916562045212e+00 +0.0000000000000000e+00 -5.4999999991561310e-01 +3.0341330802956543e-05 +0.0000000000000000e+00 +9.9999999953970165e-01
-5.9999999999999998e-01 +8.5389900701779773e+00 +0.0000000000000000e+00 -5.9999999989044239e-01 +3.3099734973701944e-05 +0.0000000000000000e+00 +9.9999999945220364e-01
-6.5000000000000002e-01 +8.5389883462306031e+00 +0.0000000000000000e+00 -6.4999999986070656e-01 +3.5858164369983934e-05 +0.0000000000000000e+00 +9.9999999935709594e-01
-7.0000000000000007e-01 +8.5389864843610876e+00 +0.0000000000000000e+00 -6.9999999982602512e-01 +3.8616620899640687e-05 +0.0000000000000000e+00 +9.9999999925437821e-01
-7.5000000000000011e-01 +8.5389844845680276e+00 +0.0000000000000000e+00 -7.4999999978601750e-01 +4.1375106466346335e-05 +0.0000000000000000e+00 +9.9999999914405024e-01
-8.0000000000000016e-01 +8.5389823468499237e+00 +0.0000000000000000e+00 -7.9999999974030322e-01 +4.4133622969611070e-05 +0.0000000000000000e+00 +9.9999999902611159e-01
-8.5000000000000020e-01 +8.5389800712051827e+00 +0.0000000000000000e+00 -8.4999999968850182e-01 +4.6892172304781213e-05 +0.0000000000000000e+00 +9.9999999890056201e-01
-9.0000000000000024e-01 +8.5389776576321150e+00 +0.0000000000000000e+00 -8.9999999963023258e-01 +4.9650756363039306e-05 +0.0000000000000000e+00 +9.9999999876740109e-01
-9.5000000000000029e-01 +8.5389751061289374e+00 +0.0000000000000000e+00 -9.4999999956511505e-01 +5.2409377031404198e-05 +0.0000000000000000e+00 +9.9999999862662847e-01
-1.0000000000000002e+00 +8.5389724166937704e+00 +0.0000000000000000e+00 -9.9999999949276852e-01 +5.5168036192731129e-05 +0.0000000000000000e+00 +9.9999999847824372e-01
-1.0500000000000003e+00 +8.5389695893246440e+00 +0.0000000000000000e+00 -1.0499999994128124e+00 +5.7926735725711813e-05 +0.0000000000000000e+00 +9.9999999832224651e-01
-1.1000000000000003e+00 +8.5389666240194924e+00 +0.0000000000000000e+00 -1.0999999993248661e+00 +6.0685477504874541e-05 +0.0000000000000000e+00 +9.9999999815863627e-01
-1.1500000000000004e+00 +8.5389635207761572e+00 +0.0000000000000000e+00 -1.1499999992285490e+00 +6.3444263400584233e-05 +0.0000000000000000e+00 +9.9999999798741257e-01
-1.2000000000000004e+00 +8.5389602795923860e+00 +0.0000000000000000e+00 -1.1999999991234804e+00 +6.6203095279042553e-05 +0.0000000000000000e+00 +9.9999999780857496e-01
-1.2500000000000004e+00 +8.5389569004658323e+00 +0.0000000000000000e+00 -1.2499999990092796e+00 +6.8961975002287992e-05 +0.0000000000000000e+00 +9.9999999762212288e-01
-1.3000000000000005e+00 +8.5389533833940572e+00 +0.0000000000000000e+00 -1.2999999988855657e+00 +7.1720904428195935e-05 +0.0000000000000000e+00 +9.9999999742805579e-01
-1.3500000000000005e+00 +8.5389497283745293e+00 +0.0000000000000000e+00 -1.3499999987519582e+00 +7.4479885410478770e-05 +0.0000000000000000e+00 +9.9999999722637323e-01
-1.4000000000000006e+00 +8.5389459354046249e+00 +0.0000000000000000e+00 -1.3999999986080762e+00 +7.7238919798685942e-05 +0.0000000000000000e+00 +9.9999999701707454e-01
-1.4500000000000006e+00 +8.5389420044816280e+00 +0.0000000000000000e+00 -1.4499999984535388e+00 +7.9998009438204086e-05 +0.0000000000000000e+00 +9.9999999680015916e-01
-1.5000000000000007e+00 +8.5389379356027302e+00 +0.0000000000000000e+00 -1.4999999982879650e+00 +8.2757156170257059e-05 +0.0000000000000000e+00 +9.9999999657562644e-01
-1.5500000000000007e+00 +8.5389337287650289e+00 +0.0000000000000000e+00 -1.5499999981109744e+00 +8.5516361831906084e-05 +0.0000000000000000e+00 +9.9999999634347581e-01
-1.6000000000000008e+00 +8.5389293839655345e+00 +0.0000000000000000e+00 -1.5999999979221857e+00 +8.8275628256049782e-05 +0.0000000000000000e+00 +9.9999999610370660e-01
-1.6500000000000008e+00 +8.5389249012011614e+00 +0.0000000000000000e+00 -1.6499999977212181e+00 +9.1034957271424275e-05 +0.0000000000000000e+00 +9.9999999585631816e-01
-1.7000000000000008e+00 +8.5389202804687336e+00 +0.0000000000000000e+00 -1.6999999975076905e+00 +9.3794350702603314e-05 +0.0000000000000000e+00 +9.9999999560130981e-01
-1.7500000000000009e+00 +8.5389155217649861e+00 +0.0000000000000000e+00 -1.7499999972812219e+00 +9.6553810369998287e-05 +0.0000000000000000e+00 +9.9999999533868078e-01
-1.8000000000000009e+00 +8.5389106250865616e+00 +0.0000000000000000e+00 -1.7999999970414315e+00 +9.9313338089858385e-05 +0.0000000000000000e+00 +9.9999999506843040e-01
-1.8500000000000010e+00 +8.5389055904300122e+00 +0.0000000000000000e+00 -1.8499999967879379e+00 +1.0207293567427063e-04 +0.0000000000000000e+00 +9.9999999479055790e-01
-1.9000000000000010e+00 +8.5389004177917993e+00 +0.0000000000000000e+00 -1.8999999965203602e+00 +1.0483260493115999e-04 +0.0000000000000000e+00 +9.9999999450506249e-01
-1.9500000000000011e+00 +8.5388951071682939e+00 +0.0000000000000000e+00 -1.9499999962383172e+00 +1.0759234766428946e-04 +0.0000000000000000e+00 +9.9999999421194341e-01
-2.0000000000000009e+00 +8.5388896585557781e+00 +0.0000000000000000e+00 -1.9999999959414276e+00 +1.1035216567326012e-04 +0.0000000000000000e+00 +9.9999999391119976e-01
-2.0500000000000007e+00 +8.5388840719504415e+00 +0.0000000000000000e+00 -2.0499999956293102e+00 +1.1311206075320326e-04 +0.0000000000000000e+00 +9.9999999360283087e-01
-2.1000000000000005e+00 +8.5388783473483869e+00 +0.0000000000000000e+00 -2.0999999953015838e+00 +1.1587203469139191e-04 +0.0000000000000000e+00 +9.9999999328683575e-01
-2.1500000000000004e+00 +8.5388724847456281e+00 +0.0000000000000000e+00 -2.1499999949578670e+00 +1.1863208926385249e-04 +0.0000000000000000e+00 +9.9999999296321362e-01
-2.2000000000000002e+00 +8.5388664841380884e+00 +0.0000000000000000e+00 -2.1999999945977784e+00 +1.2139222623505689e-04 +0.0000000000000000e+00 +9.9999999263196360e-01
-2.2500000000000000e+00 +8.5388603455216021e+00 +0.0000000000000000e+00 -2.2499999942209365e+00 +1.2415244735792239e-04 +0.0000000000000000e+00 +9.9999999229308478e-01
-2.2999999999999998e+00 +8.5388540688919203e+00 +0.0000000000000000e+00 -2.2999999938269600e+00 +1.2691275437381189e-04 +0.0000000000000000e+00 +9.9999999194657629e-01
-2.3499999999999996e+00 +8.5388476542447052e+00 +0.0000000000000000e+00 -2.3499999934154672e+00 +1.2967314901253380e-04 +0.0000000000000000e+00 +9.9999999159243713e-01
-2.3999999999999995e+00 +8.5388411015755317e+00 +0.0000000000000000e+00 -2.3999999929860767e+00 +1.3243363299234221e-04 +0.0000000000000000e+00 +9.9999999123066630e-01
-2.4499999999999993e+00 +8.5388344108798897e+00 +0.0000000000000000e+00 -2.4499999925384066e+00 +1.3519420801993694e-04 +0.0000000000000000e+00 +9.9999999086126290e-01
-2.4999999999999991e+00 +8.5388275821531838e+00 +0.0000000000000000e+00 -2.4999999920720755e+00 +1.3795487579046351e-04 +0.0000000000000000e+00 +9.9999999048422594e-01
-2.5499999999999989e+00 +8.5388206153907369e+00 +0.0000000000000000e+00 -2.5499999915867018e+00 +1.4071563798751327e-04 +0.0000000000000000e+00 +9.9999999009955443e-01
-2.5999999999999988e+00 +8.5388135105877847e+00 +0.0000000000000000e+00 -2.5999999910819036e+00 +1.4347649628312340e-04 +0.0000000000000000e+00 +9.9999998970724735e-01
-2.6499999999999986e+00 +8.5388062677394796e+00 +0.0000000000000000e+00 -2.6499999905572991e+00 +1.4623745233777701e-04 +0.0000000000000000e+00 +9.9999998930730361e-01
-2.6999999999999984e+00 +8.5387988868408939e+00 +0.0000000000000000e+00 -2.6999999900125067e+00 +1.4899850780040314e-04 +0.0000000000000000e+00 +9.9999998889972219e-01
-2.7499999999999982e+00 +8.5387913678870149e+00 +0.0000000000000000e+00 -2.7499999894471441e+00 +1.5175966430837684e-04 +0.0000000000000000e+00 +9.9999998848450200e-01
-2.7999999999999980e+00 +8.5387837108727513e+00 +0.0000000000000000e+00 -2.7999999888608293e+00 +1.5452092348751915e-04 +0.0000000000000000e+00 +9.9999998806164192e-01
-2.8499999999999979e+00 +8.5387759157929288e+00 +0.0000000000000000e+00 -2.8499999882531806e+00 +1.5728228695209727e-04 +0.0000000000000000e+00 +9.9999998763114095e-01
-2.8999999999999977e+00 +8.5387679826422911e+00 +0.0000000000000000e+00 -2.8999999876238158e+00 +1.6004375630482444e-04 +0.0000000000000000e+00 +9.9999998719299787e-01
-2.9499999999999975e+00 +8.5387599114155055e+00 +0.0000000000000000e+00 -2.9499999869723528e+00 +1.6280533313686011e-04 +0.0000000000000000e+00 +9.9999998674721158e-01
-2.9999999999999973e+00 +8.5387517021071595e+00 +0.0000000000000000e+00 -2.9999999862984095e+00 +1.6556701902780991e-04 +0.0000000000000000e+00 +9.9999998629378095e-01
-3.0499999999999972e+00 +8.5387433547117588e+00 +0.0000000000000000e+00 -3.0499999856016036e+00 +1.6832881554572574e-04 +0.0000000000000000e+00 +9.9999998583270477e-01
-3.0999999999999970e+00 +8.5387348692237346e+00 +0.0000000000000000e+00 -3.0999999848815527e+00 +1.7109072424710572e-04 +0.0000000000000000e+00 +9.9999998536398182e-01
-3.1499999999999968e+00 +8.5387262456374380e+00 +0.0000000000000000e+00 -3.1499999841378745e+00 +1.7385274667689431e-04 +0.0000000000000000e+00 +9.9999998488761099e-01
-3.1999999999999966e+00 +8.5387174839471456e+00 +0.0000000000000000e+00 -3.1999999833701867e+00 +1.7661488436848230e-04 +0.0000000000000000e+00 +9.9999998440359106e-01
-3.2499999999999964e+00 +8.5387085841470558e+00 +0.0000000000000000e+00 -3.2499999825781063e+00 +1.7937713884370684e-04 +0.0000000000000000e+00 +9.9999998391192080e-01
-3.2999999999999963e+00 +8.5386995462312907e+00 +0.0000000000000000e+00 -3.2999999817612511e+00 +1.8213951161285150e-04 +0.0000000000000000e+00 +9.9999998341259888e-01
-3.3499999999999961e+00 +8.5386903701938976e+00 +0.0000000000000000e+00 -3.3499999809192387e+00 +1.8490200417464628e-04 +0.0000000000000000e+00 +9.9999998290562420e-01
-3.3999999999999959e+00 +8.5386810560288513e+00 +0.0000000000000000e+00 -3.3999999800516862e+00 +1.8766461801626762e-04 +0.0000000000000000e+00 +9.9999998239099530e-01
-3.4499999999999957e+00 +8.5386716037300499e+00 +0.0000000000000000e+00 -3.4499999791582110e+00 +1.9042735461333846e-04 +0.0000000000000000e+00 +9.9999998186871097e-01
-3.4999999999999956e+00 +8.5386620132913187e+00 +0.0000000000000000e+00 -3.4999999782384301e+00 +1.9319021542992825e-04 +0.0000000000000000e+00 +9.9999998133876999e-01
-3.5499999999999954e+00 +8.5386522847064121e+00 +0.0000000000000000e+00 -3.5499999772919604e+00 +1.9595320191855294e-04 +0.0000000000000000e+00 +9.9999998080117103e-01
-3.5999999999999952e+00 +8.5386424179690081e+00 +0.0000000000000000e+00 -3.5999999763184194e+00 +1.9871631552017502e-04 +0.0000000000000000e+00 +9.9999998025591263e-01
-3.6499999999999950e+00 +8.5386324130727171e+00 +0.0000000000000000e+00 -3.6499999753174239e+00 +2.0147955766420362e-04 +0.0000000000000000e+00 +9.9999997970299359e-01
-3.6999999999999948e+00 +8.5386222700110750e+00 +0.0000000000000000e+00 -3.6999999742885912e+00 +2.0424292976849439e-04 +0.0000000000000000e+00 +9.9999997914241245e-01
-3.7499999999999947e+00 +8.5386119887775500e+00 +0.0000000000000000e+00 -3.7499999732315374e+00 +2.0700643323934962e-04 +0.0000000000000000e+00 +9.9999997857416789e-01
-3.7999999999999945e+00 +8.5386015693655377e+00 +0.0000000000000000e+00 -3.7999999721458799e+00 +2.0977006947151821e-04 +0.0000000000000000e+00 +9.9999997799825857e-01
-3.8499999999999943e+00 +8.5385910117683661e+00 +0.0000000000000000e+00 -3.8499999710312354e+00 +2.1253383984819570e-04 +0.0000000000000000e+00 +9.9999997741468305e-01
-3.8999999999999941e+00 +8.5385803159792939e+00 +0.0000000000000000e+00 -3.8999999698872205e+00 +2.1529774574102428e-04 +0.0000000000000000e+00 +9.9999997682343988e-01
-3.9499999999999940e+00 +8.5385694819915106e+00 +0.0000000000000000e+00 -3.9499999687134517e+00 +2.1806178851009280e-04 +0.0000000000000000e+00 +9.9999997622452774e-01
-3.9999999999999938e+00 +8.5385585097981398e+00 +0.0000000000000000e+00 -3.9999999675095457e+00 +2.2082596950393678e-04 +0.0000000000000000e+00 +9.9999997561794518e-01
-4.0499999999999936e+00 +8.5385473993922343e+00 +0.0000000000000000e+00 -4.0499999662751183e+00 +2.2359029005944417e-04 +0.0000000000000000e+00 +9.9999997500369064e-01
-4.0999999999999934e+00 +8.5385361507667845e+00 +0.0000000000000000e+00 -4.0999999650097863e+00 +2.2635475150081880e-04 +0.0000000000000000e+00 +9.9999997438176280e-01
-4.1499999999999932e+00 +8.5385247639147135e+00 +0.0000000000000000e+00 -4.1499999637131664e+00 +2.2911935513854372e-04 +0.0000000000000000e+00 +9.9999997375216010e-01
-4.1999999999999931e+00 +8.5385132388288785e+00 +0.0000000000000000e+00 -4.1999999623848741e+00 +2.3188410226928702e-04 +0.0000000000000000e+00 +9.9999997311488109e-01
-4.2499999999999929e+00 +8.5385015755020728e+00 +0.0000000000000000e+00 -4.2499999610245265e+00 +2.3464899417590182e-04 +0.0000000000000000e+00 +9.9999997246992434e-01
-4.2999999999999927e+00 +8.5384897739270258e+00 +0.0000000000000000e+00 -4.2999999596317391e+00 +2.3741403212742624e-04 +0.0000000000000000e+00 +9.9999997181728828e-01
-4.3499999999999925e+00 +8.5384778340964047e+00 +0.0000000000000000e+00 -4.3499999582061273e+00 +2.4017921737908346e-04 +0.0000000000000000e+00 +9.9999997115697137e-01
-4.3999999999999924e+00 +8.5384657560028128e+00 +0.0000000000000000e+00 -4.3999999567473083e+00 +2.4294455117228165e-04 +0.0000000000000000e+00 +9.9999997048897216e-01
-4.4499999999999922e+00 +8.5384535396387911e+00 +0.0000000000000000e+00 -4.4499999552548966e+00 +2.4571003473461406e-04 +0.0000000000000000e+00 +9.9999996981328898e-01
-4.4999999999999920e+00 +8.5384411849968220e+00 +0.0000000000000000e+00 -4.4999999537285085e+00 +2.4847566927985897e-04 +0.0000000000000000e+00 +9.9999996912992040e-01
-4.5499999999999918e+00 +8.5384286920693260e+00 +0.0000000000000000e+00 -4.5499999521677603e+00 +2.5124145600797962e-04 +0.0000000000000000e+00 +9.9999996843886485e-01
-4.5999999999999917e+00 +8.5384160608486646e+00 +0.0000000000000000e+00 -4.5999999505722666e+00 +2.5400739610512428e-04 +0.0000000000000000e+00 +9.9999996774012079e-01
-4.6499999999999915e+00 +8.5384032913271390e+00 +0.0000000000000000e+00 -4.6499999489416437e+00 +2.5677349074362631e-04 +0.0000000000000000e+00 +9.9999996703368665e-01
-4.6999999999999913e+00 +8.5383903834969939e+00 +0.0000000000000000e+00 -4.6999999472755070e+00 +2.5953974108200401e-04 +0.0000000000000000e+00 +9.9999996631956078e-01
-4.7499999999999911e+00 +8.5383773373504166e+00 +0.0000000000000000e+00 -4.7499999455734718e+00 +2.6230614826496066e-04 +0.0000000000000000e+00 +9.9999996559774162e-01
-4.7999999999999909e+00 +8.5383641528795344e+00 +0.0000000000000000e+00 -4.7999999438351528e+00 +2.6507271342338454e-04 +0.0000000000000000e+00 +9.9999996486822762e-01
-4.8499999999999908e+00 +8.5383508300764230e+00 +0.0000000000000000e+00 -4.8499999420601663e+00 +2.6783943767434893e-04 +0.0000000000000000e+00 +9.9999996413101711e-01
-4.8999999999999906e+00 +8.5383373689330977e+00 +0.0000000000000000e+00 -4.8999999402481267e+00 +2.7060632212111207e-04 +0.0000000000000000e+00 +9.9999996338610853e-01
-4.9499999999999904e+00 +8.5383237694415222e+00 +0.0000000000000000e+00 -4.9499999383986486e+00 +2.7337336785311709e-04 +0.0000000000000000e+00 +9.9999996263350011e-01
-4.9999999999999902e+00 +8.5383100315936051e+00 +0.0000000000000000e+00 -4.9999999365113483e+00 +2.7614057594599204e-04 +0.0000000000000000e+00 +9.9999996187319040e-01
-5.0499999999999901e+00 +8.5382961553812038e+00 +0.0000000000000000e+00 -5.0499999345858395e+00 +2.7890794746154998e-04 +0.0000000000000000e+00 +9.9999996110517764e-01
-5.0999999999999899e+00 +8.5382821407961185e+00 +0.0000000000000000e+00 -5.0999999326217376e+00 +2.8167548344778875e-04 +0.0000000000000000e+00 +9.9999996032946015e-01
-5.1499999999999897e+00 +8.5382679878300998e+00 +0.0000000000000000e+00 -5.1499999306186570e+00 +2.8444318493889113e-04 +0.0000000000000000e+00 +9.9999995954603638e-01
-5.1999999999999895e+00 +8.5382536964748486e+00 +0.0000000000000000e+00 -5.1999999285762124e+00 +2.8721105295522473e-04 +0.0000000000000000e+00 +9.9999995875490455e-01
-5.2499999999999893e+00 +8.5382392667220124e+00 +0.0000000000000000e+00 -5.2499999264940191e+00 +2.8997908850334197e-04 +0.0000000000000000e+00 +9.9999995795606311e-01
-5.2999999999999892e+00 +8.5382246985631891e+00 +0.0000000000000000e+00 -5.2999999243716909e+00 +2.9274729257598004e-04 +0.0000000000000000e+00 +9.9999995714951029e-01
-5.3499999999999890e+00 +8.5382099919899286e+00 +0.0000000000000000e+00 -5.3499999222088421e+00 +2.9551566615206097e-04 +0.0000000000000000e+00 +9.9999995633524441e-01
-5.3999999999999888e+00 +8.5381951469937327e+00 +0.0000000000000000e+00 -5.3999999200050866e+00 +2.9828421019669149e-04 +0.0000000000000000e+00 +9.9999995551326382e-01
-5.4499999999999886e+00 +8.5381801635660519e+00 +0.0000000000000000e+00 -5.4499999177600396e+00 +3.0105292566116312e-04 +0.0000000000000000e+00 +9.9999995468356673e-01
-5.4999999999999885e+00 +8.5381650416982939e+00 +0.0000000000000000e+00 -5.4999999154733148e+00 +3.0382181348295197e-04 +0.0000000000000000e+00 +9.9999995384615159e-01
-5.5499999999999883e+00 +8.5381497813818168e+00 +0.0000000000000000e+00 -5.5499999131445259e+00 +3.0659087458571887e-04 +0.0000000000000000e+00 +9.9999995300101652e-01
-5.5999999999999881e+00 +8.5381343826079323e+00 +0.0000000000000000e+00 -5.5999999107732874e+00 +3.0936010987930927e-04 +0.0000000000000000e+00 +9.9999995214815984e-01
-5.6499999999999879e+00 +8.5381188453679098e+00 +0.0000000000000000e+00 -5.6499999083592130e+00 +3.1212952025975316e-04 +0.0000000000000000e+00 +9.9999995128757990e-01
-5.6999999999999877e+00 +8.5381031696529739e+00 +0.0000000000000000e+00 -5.6999999059019162e+00 +3.1489910660926514e-04 +0.0000000000000000e+00 +9.9999995041927492e-01
-5.7499999999999876e+00 +8.5380873554543015e+00 +0.0000000000000000e+00 -5.7499999034010116e+00 +3.1766886979624432e-04 +0.0000000000000000e+00 +9.9999994954324312e-01
-5.7999999999999874e+00 +8.5380714027630322e+00 +0.0000000000000000e+00 -5.7999999008561121e+00 +3.2043881067527429e-04 +0.0000000000000000e+00 +9.9999994865948283e-01
-5.8499999999999872e+00 +8.5380553115702593e+00 +0.0000000000000000e+00 -5.8499998982668311e+00 +3.2320893008712300e-04 +0.0000000000000000e+00 +9.9999994776799228e-01
