# trajectory
# s[mm] rx[mm] ry[mm] rz[mm] px[rad] py[rad] pz[rad]
0.0000000000000000e+00 +8.2850000000000001e+00 +0.0000000000000000e+00 +0.0000000000000000e+00 +0.0000000000000000e+00 +0.0000000000000000e+00 +1.0000000000000000e+00
5.0000000000000003e-02 +8.2849999304815825e+00 +0.0000000000000000e+00 +4.9999999999935561e-02 -2.7807340165000125e-06 +0.0000000000000000e+00 +9.9999999999613376e-01
1.0000000000000001e-01 +8.2849997219268570e+00 +0.0000000000000000e+00 +9.9999999999484501e-02 -5.5614525965219125e-06 +0.0000000000000000e+00 +9.9999999998453515e-01
1.5000000000000002e-01 +8.2849993743365538e+00 +0.0000000000000000e+00 +1.4999999999826019e-01 -8.3421574071376976e-06 +0.0000000000000000e+00 +9.9999999996520428e-01
2.0000000000000001e-01 +8.2849988877113194e+00 +0.0000000000000000e+00 +1.9999999999587603e-01 -1.1122850113331719e-05 +0.0000000000000000e+00 +9.9999999993814115e-01
2.5000000000000000e-01 +8.2849982620517171e+00 +0.0000000000000000e+00 +2.4999999999194542e-01 -1.3903532378000763e-05 +0.0000000000000000e+00 +9.9999999990334598e-01
2.9999999999999999e-01 +8.2849974973582281e+00 +0.0000000000000000e+00 +2.9999999998608173e-01 -1.6684205861954126e-05 +0.0000000000000000e+00 +9.9999999986081878e-01
3.4999999999999998e-01 +8.2849965936312504e+00 +0.0000000000000000e+00 +3.4999999997789843e-01 -1.9464872223913696e-05 +0.0000000000000000e+00 +9.9999999981055954e-01
3.9999999999999997e-01 +8.2849955508710966e+00 +0.0000000000000000e+00 +3.9999999996700886e-01 -2.2245533120514021e-05 +0.0000000000000000e+00 +9.9999999975256826e-01
4.4999999999999996e-01 +8.2849943690780012e+00 +0.0000000000000000e+00 +4.4999999995302642e-01 -2.5026190206302393e-05 +0.0000000000000000e+00 +9.9999999968684505e-01
4.9999999999999994e-01 +8.2849930482521117e+00 +0.0000000000000000e+00 +4.9999999993556449e-01 -2.7806845133738922e-05 +0.0000000000000000e+00 +9.9999999961338981e-01
5.4999999999999993e-01 +8.2849915883934955e+00 +0.0000000000000000e+00 +5.4999999991423654e-01 -3.0587499553196610e-05 +0.0000000000000000e+00 +9.9999999953220253e-01
5.9999999999999998e-01 +8.2849899895021366e+00 +0.0000000000000000e+00 +5.9999999988865593e-01 -3.3368155112961432e-05 +0.0000000000000000e+00 +9.9999999944328322e-01
6.5000000000000002e-01 +8.2849882515779374e+00 +0.0000000000000000e+00 +6.4999999985843604e-01 -3.6148813459232408e-05 +0.0000000000000000e+00 +9.9999999934663175e-01
7.0000000000000007e-01 +8.2849863746207166e+00 +0.0000000000000000e+00 +6.9999999982319028e-01 -3.8929476236121671e-05 +0.0000000000000000e+00 +9.9999999924224803e-01
7.5000000000000011e-01 +8.2849843586302114e+00 +0.0000000000000000e+00 +7.4999999978253196e-01 -4.1710145085654549e-05 +0.0000000000000000e+00 +9.9999999913013193e-01
8.0000000000000016e-01 +8.2849822036060790e+00 +0.0000000000000000e+00 +7.9999999973607450e-01 -4.4490821647769648e-05 +0.0000000000000000e+00 +9.9999999901028347e-01
8.5000000000000020e-01 +8.2849799095478911e+00 +0.0000000000000000e+00 +8.4999999968343132e-01 -4.7271507560318910e-05 +0.0000000000000000e+00 +9.9999999888270241e-01
9.0000000000000024e-01 +8.2849774764551398e+00 +0.0000000000000000e+00 +8.9999999962421584e-01 -5.0052204459067692e-05 +0.0000000000000000e+00 +9.9999999874738854e-01
9.5000000000000029e-01 +8.2849749043272354e+00 +0.0000000000000000e+00 +9.4999999955804126e-01 -5.2832913977694850e-05 +0.0000000000000000e+00 +9.9999999860434174e-01
1.0000000000000002e+00 +8.2849721931635045e+00 +0.0000000000000000e+00 +9.9999999948452112e-01 -5.5613637747792792e-05 +0.0000000000000000e+00 +9.9999999845356180e-01
1.0500000000000003e+00 +8.2849693429631959e+00 +0.0000000000000000e+00 +1.0499999994032685e+00 -5.8394377398867573e-05 +0.0000000000000000e+00 +9.9999999829504849e-01
1.1000000000000003e+00 +8.2849663537254727e+00 +0.0000000000000000e+00 +1.0999999993138969e+00 -6.1175134558338955e-05 +0.0000000000000000e+00 +9.9999999812880158e-01
1.1500000000000004e+00 +8.2849632254494203e+00 +0.0000000000000000e+00 +1.1499999992160197e+00 -6.3955910851540466e-05 +0.0000000000000000e+00 +9.9999999795482086e-01
1.2000000000000004e+00 +8.2849599581340421e+00 +0.0000000000000000e+00 +1.1999999991092500e+00 -6.6736707901719509e-05 +0.0000000000000000e+00 +9.9999999777310600e-01
1.2500000000000004e+00 +8.2849565517782580e+00 +0.0000000000000000e+00 +1.2499999989932014e+00 -6.9517527330037403e-05 +0.0000000000000000e+00 +9.9999999758365676e-01
1.3000000000000005e+00 +8.2849530063809098e+00 +0.0000000000000000e+00 +1.2999999988674869e+00 -7.2298370755569452e-05 +0.0000000000000000e+00 +9.9999999738647283e-01
1.3500000000000005e+00 +8.2849493219407560e+00 +0.0000000000000000e+00 +1.3499999987317197e+00 -7.5079239795305049e-05 +0.0000000000000000e+00 +9.9999999718155386e-01
1.4000000000000006e+00 +8.2849454984564765e+00 +0.0000000000000000e+00 +1.3999999985855134e+00 -7.7860136064147718e-05 +0.0000000000000000e+00 +9.9999999696889963e-01
1.4500000000000006e+00 +8.2849415359266683e+00 +0.0000000000000000e+00 +1.4499999984284808e+00 -8.0641061174915180e-05 +0.0000000000000000e+00 +9.9999999674850970e-01
1.5000000000000007e+00 +8.2849374343498514e+00 +0.0000000000000000e+00 +1.4999999982602354e+00 -8.3422016738339449e-05 +0.0000000000000000e+00 +9.9999999652038363e-01
1.5500000000000007e+00 +8.2849331937244610e+00 +0.0000000000000000e+00 +1.5499999980803902e+00 -8.6203004363066889e-05 +0.0000000000000000e+00 +9.9999999628452108e-01
1.6000000000000008e+00 +8.2849288140488540e+00 +0.0000000000000000e+00 +1.5999999978885586e+00 -8.8984025655658276e-05 +0.0000000000000000e+00 +9.9999999604092160e-01
1.6500000000000008e+00 +8.2849242953213071e+00 +0.0000000000000000e+00 +1.6499999976843536e+00 -9.1765082220588871e-05 +0.0000000000000000e+00 +9.9999999578958487e-01
1.7000000000000008e+00 +8.2849196375400176e+00 +0.0000000000000000e+00 +1.6999999974673883e+00 -9.4546175660248485e-05 +0.0000000000000000e+00 +9.9999999553051033e-01
1.7500000000000009e+00 +8.2849148407031006e+00 +0.0000000000000000e+00 +1.7499999972372757e+00 -9.7327307574941589e-05 +0.0000000000000000e+00 +9.9999999526369765e-01
1.8000000000000009e+00 +8.2849099048085932e+00 +0.0000000000000000e+00 +1.7999999969936291e+00 -1.0010847956288730e-04 +0.0000000000000000e+00 +9.9999999498914616e-01
1.8500000000000010e+00 +8.2849048298544510e+00 +0.0000000000000000e+00 +1.8499999967360614e+00 -1.0288969322021953e-04 +0.0000000000000000e+00 +9.9999999470685552e-01
1.9000000000000010e+00 +8.2848996158385511e+00 +0.0000000000000000e+00 +1.8999999964641856e+00 -1.0567095014098703e-04 +0.0000000000000000e+00 +9.9999999441682519e-01
1.9500000000000011e+00 +8.2848942627586890e+00 +0.0000000000000000e+00 +1.9499999961776149e+00 -1.0845225191715341e-04 +0.0000000000000000e+00 +9.9999999411905460e-01
2.0000000000000009e+00 +8.2848887706125840e+00 +0.0000000000000000e+00 +1.9999999958759620e+00 -1.1123360013859728e-04 +0.0000000000000000e+00 +9.9999999381354321e-01
2.0500000000000007e+00 +8.2848831393978735e+00 +0.0000000000000000e+00 +2.0499999955588399e+00 -1.1401499639284698e-04 +0.0000000000000000e+00 +9.9999999350029045e-01
2.1000000000000005e+00 +8.2848773691121167e+00 +0.0000000000000000e+00 +2.0999999952258617e+00 -1.1679644226216291e-04 +0.0000000000000000e+00 +9.9999999317929567e-01
2.1500000000000004e+00 +8.2848714597527930e+00 +0.0000000000000000e+00 +2.1499999948766404e+00 -1.1957793932061962e-04 +0.0000000000000000e+00 +9.9999999285055829e-01
2.2000000000000002e+00 +8.2848654113173055e+00 +0.0000000000000000e+00 +2.1999999945107884e+00 -1.2235948913384066e-04 +0.0000000000000000e+00 +9.9999999251407778e-01
2.2500000000000000e+00 +8.2848592238029752e+00 +0.0000000000000000e+00 +2.2499999941279190e+00 -1.2514109325899867e-04 +0.0000000000000000e+00 +9.9999999216985347e-01
2.2999999999999998e+00 +8.2848528972070490e+00 +0.0000000000000000e+00 +2.2999999937276447e+00 -1.2792275324481538e-04 +0.0000000000000000e+00 +9.9999999181788468e-01
2.3499999999999996e+00 +8.2848464315266952e+00 +0.0000000000000000e+00 +2.3499999933095785e+00 -1.3070447063156168e-04 +0.0000000000000000e+00 +9.9999999145817076e-01
2.3999999999999995e+00 +8.2848398267590042e+00 +0.0000000000000000e+00 +2.3999999928733327e+00 -1.3348624695105765e-04 +0.0000000000000000e+00 +9.9999999109071103e-01
2.4499999999999993e+00 +8.2848330829009917e+00 +0.0000000000000000e+00 +2.4499999924185203e+00 -1.3626808372667267e-04 +0.0000000000000000e+00 +9.9999999071550472e-01
2.4999999999999991e+00 +8.2848261999495989e+00 +0.0000000000000000e+00 +2.4999999919447538e+00 -1.3904998247332538e-04 +0.0000000000000000e+00 +9.9999999033255127e-01
2.5499999999999989e+00 +8.2848191779016869e+00 +0.0000000000000000e+00 +2.5499999914516462e+00 -1.4183194469748385e-04 +0.0000000000000000e+00 +9.9999998994184980e-01
2.5999999999999988e+00 +8.2848120167540458e+00 +0.0000000000000000e+00 +2.5999999909388096e+00 -1.4461397189716548e-04 +0.0000000000000000e+00 +9.9999998954339964e-01
2.6499999999999986e+00 +8.2848047165033893e+00 +0.0000000000000000e+00 +2.6499999904058571e+00 -1.4739606556193717e-04 +0.0000000000000000e+00 +9.9999998913720001e-01
2.6999999999999984e+00 +8.2847972771463567e+00 +0.0000000000000000e+00 +2.6999999898524005e+00 -1.5017822717291532e-04 +0.0000000000000000e+00 +9.9999998872325013e-01
2.7499999999999982e+00 +8.2847896986795142e+00 +0.0000000000000000e+00 +2.7499999892780527e+00 -1.5296045820276585e-04 +0.0000000000000000e+00 +9.9999998830154924e-01
2.7999999999999980e+00 +8.2847819810993553e+00 +0.0000000000000000e+00 +2.7999999886824263e+00 -1.5574276011570429e-04 +0.0000000000000000e+00 +9.9999998787209643e-01
2.8499999999999979e+00 +8.2847741244022970e+00 +0.0000000000000000e+00 +2.8499999880651332e+00 -1.5852513436749580e-04 +0.0000000000000000e+00 +9.9999998743489094e-01
2.8999999999999977e+00 +8.2847661285846890e+00 +0.0000000000000000e+00 +2.8999999874257862e+00 -1.6130758240545515e-04 +0.0000000000000000e+00 +9.9999998698993198e-01
2.9499999999999975e+00 +8.2847579936428044e+00 +0.0000000000000000e+00 +2.9499999867639972e+00 -1.6409010566844693e-04 +0.0000000000000000e+00 +9.9999998653721867e-01
2.9999999999999973e+00 +8.2847497195728454e+00 +0.0000000000000000e+00 +2.9999999860793789e+00 -1.6687270558688537e-04 +0.0000000000000000e+00 +9.9999998607675011e-01
3.0499999999999972e+00 +8.2847413063709450e+00 +0.0000000000000000e+00 +3.0499999853715432e+00 -1.6965538358273459e-04 +0.0000000000000000e+00 +9.9999998560852543e-01
3.0999999999999970e+00 +8.2847327540331630e+00 +0.0000000000000000e+00 +3.0999999846401023e+00 -1.7243814106950847e-04 +0.0000000000000000e+00 +9.9999998513254373e-01
3.1499999999999968e+00 +8.2847240625554903e+00 +0.0000000000000000e+00 +3.1499999838846682e+00 -1.7522097945227077e-04 +0.0000000000000000e+00 +9.9999998464880413e-01
3.1999999999999966e+00 +8.2847152319338466e+00 +0.0000000000000000e+00 +3.1999999831048531e+00 -1.7800390012763520e-04 +0.0000000000000000e+00 +9.9999998415730573e-01
3.2499999999999964e+00 +8.2847062621640823e+00 +0.0000000000000000e+00 +3.2499999823002694e+00 -1.8078690448376534e-04 +0.0000000000000000e+00 +9.9999998365804754e-01
3.2999999999999963e+00 +8.2846971532419804e+00 +0.0000000000000000e+00 +3.2999999814705285e+00 -1.8356999390037478e-04 +0.0000000000000000e+00 +9.9999998315102867e-01
3.3499999999999961e+00 +8.2846879051632527e+00 +0.0000000000000000e+00 +3.3499999806152427e+00 -1.8635316974872714e-04 +0.0000000000000000e+00 +9.9999998263624801e-01
3.3999999999999959e+00 +8.2846785179235436e+00 +0.0000000000000000e+00 +3.3999999797340239e+00 -1.8913643339163601e-04 +0.0000000000000000e+00 +9.9999998211370467e-01
3.4499999999999957e+00 +8.2846689915184282e+00 +0.0000000000000000e+00 +3.4499999788264839e+00 -1.9191978618346509e-04 +0.0000000000000000e+00 +9.9999998158339776e-01
3.4999999999999956e+00 +8.2846593259434158e+00 +0.0000000000000000e+00 +3.4999999778922342e+00 -1.9470322947012821e-04 +0.0000000000000000e+00 +9.9999998104532617e-01
3.5499999999999954e+00 +8.2846495211939502e+00 +0.0000000000000000e+00 +3.5499999769308870e+00 -1.9748676458908925e-04 +0.0000000000000000e+00 +9.9999998049948879e-01
3.5999999999999952e+00 +8.2846395772654038e+00 +0.0000000000000000e+00 +3.5999999759420538e+00 -2.0027039286936232e-04 +0.0000000000000000e+00 +9.9999997994588474e-01
3.6499999999999950e+00 +8.2846294941530871e+00 +0.0000000000000000e+00 +3.6499999749253460e+00 -2.0305411563151167e-04 +0.0000000000000000e+00 +9.9999997938451290e-01
3.6999999999999948e+00 +8.2846192718522431e+00 +0.0000000000000000e+00 +3.6999999738803755e+00 -2.0583793418765182e-04 +0.0000000000000000e+00 +9.9999997881537228e-01
3.7499999999999947e+00 +8.2846089103580489e+00 +0.0000000000000000e+00 +3.7499999728067537e+00 -2.0862184984144747e-04 +0.0000000000000000e+00 +9.9999997823846176e-01
3.7999999999999945e+00 +8.2845984096656178e+00 +0.0000000000000000e+00 +3.7999999717040920e+00 -2.1140586388811359e-04 +0.0000000000000000e+00 +9.9999997765378024e-01
3.8499999999999943e+00 +8.2845877697699990e+00 +0.0000000000000000e+00 +3.8499999705720018e+00 -2.1418997761441546e-04 +0.0000000000000000e+00 +9.9999997706132659e-01
3.8999999999999941e+00 +8.2845769906661744e+00 +0.0000000000000000e+00 +3.8999999694100951e+00 -2.1697419229866867e-04 +0.0000000000000000e+00 +9.9999997646109973e-01
3.9499999999999940e+00 +8.2845660723490653e+00 +0.0000000000000000e+00 +3.9499999682179823e+00 -2.1975850921073913e-04 +0.0000000000000000e+00 +9.9999997585309863e-01
3.9999999999999938e+00 +8.2845550148135292e+00 +0.0000000000000000e+00 +3.9999999669952753e+00 -2.2254292961204313e-04 +0.0000000000000000e+00 +9.9999997523732209e-01
4.0499999999999936e+00 +8.2845438180543596e+00 +0.0000000000000000e+00 +4.0499999657415851e+00 -2.2532745475540867e-04 +0.0000000000000000e+00 +9.9999997461376888e-01
4.0999999999999934e+00 +8.2845324820662878e+00 +0.0000000000000000e+00 +4.0999999644565230e+00 -2.2811208588355088e-04 +0.0000000000000000e+00 +9.9999997398243790e-01
4.1499999999999932e+00 +8.2845210068439847e+00 +0.0000000000000000e+00 +4.1499999631396998e+00 -2.3089682422754724e-04 +0.0000000000000000e+00 +9.9999997334332802e-01
4.1999999999999931e+00 +8.2845093923820574e+00 +0.0000000000000000e+00 +4.1999999617907262e+00 -2.3368167100669903e-04 +0.0000000000000000e+00 +9.9999997269643803e-01
4.2499999999999929e+00 +8.2844976386750560e+00 +0.0000000000000000e+00 +4.2499999604092134e+00 -2.3646662742853134e-04 +0.0000000000000000e+00 +9.9999997204176672e-01
4.2999999999999927e+00 +8.2844857457174665e+00 +0.0000000000000000e+00 +4.2999999589947731e+00 -2.3925169468879312e-04 +0.0000000000000000e+00 +9.9999997137931296e-01
4.3499999999999925e+00 +8.2844737135037185e+00 +0.0000000000000000e+00 +4.3499999575470154e+00 -2.4203687397145713e-04 +0.0000000000000000e+00 +9.9999997070907543e-01
4.3999999999999924e+00 +8.2844615420281826e+00 +0.0000000000000000e+00 +4.3999999560655514e+00 -2.4482216644872000e-04 +0.0000000000000000e+00 +9.9999997003105301e-01
4.4499999999999922e+00 +8.2844492312851674e+00 +0.0000000000000000e+00 +4.4499999545499911e+00 -2.4760757328100226e-04 +0.0000000000000000e+00 +9.9999996934524438e-01
4.4999999999999920e+00 +8.2844367812689281e+00 +0.0000000000000000e+00 +4.4999999529999455e+00 -2.5039309561694835e-04 +0.0000000000000000e+00 +9.9999996865164831e-01
4.5499999999999918e+00 +8.2844241919736614e+00 +0.0000000000000000e+00 +4.5499999514150256e+00 -2.5317873459342657e-04 +0.0000000000000000e+00 +9.9999996795026358e-01
4.5999999999999917e+00 +8.2844114633935071e+00 +0.0000000000000000e+00 +4.5999999497948414e+00 -2.5596449133552914e-04 +0.0000000000000000e+00 +9.9999996724108897e-01
4.6499999999999915e+00 +8.2843985955225481e+00 +0.0000000000000000e+00 +4.6499999481390040e+00 -2.5875036695657225e-04 +0.0000000000000000e+00 +9.9999996652412315e-01
4.6999999999999913e+00 +8.2843855883548123e+00 +0.0000000000000000e+00 +4.6999999464471234e+00 -2.6153636255809605e-04 +0.0000000000000000e+00 +9.9999996579936490e-01
4.7499999999999911e+00 +8.2843724418842744e+00 +0.0000000000000000e+00 +4.7499999447188106e+00 -2.6432247922986461e-04 +0.0000000000000000e+00 +9.9999996506681288e-01
4.7999999999999909e+00 +8.2843591561048537e+00 +0.0000000000000000e+00 +4.7999999429536748e+00 -2.6710871804986599e-04 +0.0000000000000000e+00 +9.9999996432646576e-01
4.8499999999999908e+00 +8.2843457310104167e+00 +0.0000000000000000e+00 +4.8499999411513270e+00 -2.6989508008431221e-04 +0.0000000000000000e+00 +9.9999996357832222e-01
4.8999999999999906e+00 +8.2843321665947744e+00 +0.0000000000000000e+00 +4.8999999393113773e+00 -2.7268156638763925e-04 +0.0000000000000000e+00 +9.9999996282238102e-01
4.9499999999999904e+00 +8.2843184628516884e+00 +0.0000000000000000e+00 +4.9499999374334358e+00 -2.7546817800250706e-04 +0.0000000000000000e+00 +9.9999996205864072e-01
4.9999999999999902e+00 +8.2843046197748684e+00 +0.0000000000000000e+00 +4.9999999355171116e+00 -2.7825491595979968e-04 +0.0000000000000000e+00 +9.9999996128710011e-01
5.0499999999999901e+00 +8.2842906373579694e+00 +0.0000000000000000e+00 +5.0499999335620158e+00 -2.8104178127862507e-04 +0.0000000000000000e+00 +9.9999996050775775e-01
5.0999999999999899e+00 +8.2842765155946001e+00 +0.0000000000000000e+00 +5.0999999315677575e+00 -2.8382877496631526e-04 +0.0000000000000000e+00 +9.9999995972061240e-01
5.1499999999999897e+00 +8.2842622544783158e+00 +0.0000000000000000e+00 +5.1499999295339469e+00 -2.8661589801842622e-04 +0.0000000000000000e+00 +9.9999995892566262e-01
5.1999999999999895e+00 +8.2842478540026256e+00 +0.0000000000000000e+00 +5.1999999274601940e+00 -2.8940315141873793e-04 +0.0000000000000000e+00 +9.9999995812290710e-01
5.2499999999999893e+00 +8.2842333141609856e+00 +0.0000000000000000e+00 +5.2499999253461080e+00 -2.9219053613925442e-04 +0.0000000000000000e+00 +9.9999995731234437e-01
5.2999999999999892e+00 +8.2842186349468072e+00 +0.0000000000000000e+00 +5.2999999231912982e+00 -2.9497805314020371e-04 +0.0000000000000000e+00 +9.9999995649397311e-01
5.3499999999999890e+00 +8.2842038163534522e+00 +0.0000000000000000e+00 +5.3499999209953746e+00 -2.9776570337003785e-04 +0.0000000000000000e+00 +9.9999995566779198e-01
5.3999999999999888e+00 +8.2841888583742342e+00 +0.0000000000000000e+00 +5.3999999187579473e+00 -3.0055348776543287e-04 +0.0000000000000000e+00 +9.9999995483379944e-01
5.4499999999999886e+00 +8.2841737610024229e+00 +0.0000000000000000e+00 +5.4499999164786246e+00 -3.0334140725128889e-04 +0.0000000000000000e+00 +9.9999995399199426e-01
5.4999999999999885e+00 +8.2841585242312412e+00 +0.0000000000000000e+00 +5.4999999141570166e+00 -3.0612946274072994e-04 +0.0000000000000000e+00 +9.9999995314237489e-01
5.5499999999999883e+00 +8.2841431480538663e+00 +0.0000000000000000e+00 +5.5499999117927317e+00 -3.0891765513510412e-04 +0.0000000000000000e+00 +9.9999995228493999e-01
5.5999999999999881e+00 +8.2841276324634308e+00 +0.0000000000000000e+00 +5.5999999093853798e+00 -3.1170598532398344e-04 +0.0000000000000000e+00 +9.9999995141968812e-01
5.6499999999999879e+00 +8.2841119774530227e+00 +0.0000000000000000e+00 +5.6499999069345703e+00 -3.1449445418516405e-04 +0.0000000000000000e+00 +9.9999995054661783e-01
5.6999999999999877e+00 +8.2840961830156861e+00 +0.0000000000000000e+00 +5.6999999044399114e+00 -3.1728306258466593e-04 +0.0000000000000000e+00 +9.9999994966572769e-01
5.7499999999999876e+00 +8.2840802491444236e+00 +0.0000000000000000e+00 +5.7499999019010124e+00 -3.2007181137673317e-04 +0.0000000000000000e+00 +9.9999994877701637e-01
5.7999999999999874e+00 +8.2840641758321940e+00 +0.0000000000000000e+00 +5.7999998993174824e+00 -3.2286070140383373e-04 +0.0000000000000000e+00 +9.9999994788048230e-01
5.8499999999999872e+00 +8.2840479630719148e+00 +0.0000000000000000e+00 +5.8499998966889297e+00 -3.2564973349665964e-04 +0.0000000000000000e+00 +9.9999994697612404e-01
5.8999999999999870e+00 +8.2840316108564629e+00 +0.0000000000000000e+00 +5.8999998940149636e+00 -3.2843890847412678e-04 +0.0000000000000000e+00 +9.9999994606394016e-01
