# trajectory
# s[mm] rx[mm] ry[mm] rz[mm] px[rad] py[rad] pz[rad]
0.0000000000000000e+00 +8.3650000000000002e+00 +0.0000000000000000e+00 +0.0000000000000000e+00 +0.0000000000000000e+00 +0.0000000000000000e+00 +1.0000000000000000e+00
5.0000000000000003e-02 +8.3649999310094820e+00 +0.0000000000000000e+00 +4.9999999999936540e-02 -2.7596209064823502e-06 +0.0000000000000000e+00 +9.9999999999619227e-01
1.0000000000000001e-01 +8.3649997240378742e+00 +0.0000000000000000e+00 +9.9999999999492301e-02 -5.5192439312820652e-06 +0.0000000000000000e+00 +9.9999999998476896e-01
1.5000000000000002e-01 +8.3649993790850203e+00 +0.0000000000000000e+00 +1.4999999999828650e-01 -8.2788710425642529e-06 +0.0000000000000000e+00 +9.9999999996573008e-01
2.0000000000000001e-01 +8.3649988961506683e+00 +0.0000000000000000e+00 +1.9999999999593837e-01 -1.1038504204033935e-05 +0.0000000000000000e+00 +9.9999999993907562e-01
2.5000000000000000e-01 +8.3649982752344663e+00 +0.0000000000000000e+00 +2.4999999999206712e-01 -1.3798145374936148e-05 +0.0000000000000000e+00 +9.9999999990480548e-01
2.9999999999999999e-01 +8.3649975163359649e+00 +0.0000000000000000e+00 +2.9999999998629201e-01 -1.6557796510056029e-05 +0.0000000000000000e+00 +9.9999999986291954e-01
3.4999999999999998e-01 +8.3649966194546170e+00 +0.0000000000000000e+00 +3.4999999997823217e-01 -1.9317459559718911e-05 +0.0000000000000000e+00 +9.9999999981341769e-01
3.9999999999999997e-01 +8.3649955845897779e+00 +0.0000000000000000e+00 +3.9999999996750685e-01 -2.2077136469790416e-05 +0.0000000000000000e+00 +9.9999999975629983e-01
4.4999999999999996e-01 +8.3649944117407067e+00 +0.0000000000000000e+00 +4.4999999995373524e-01 -2.4836829181676545e-05 +0.0000000000000000e+00 +9.9999999969156572e-01
4.9999999999999994e-01 +8.3649931009065650e+00 +0.0000000000000000e+00 +4.9999999993653649e-01 -2.7596539632323762e-05 +0.0000000000000000e+00 +9.9999999961921526e-01
5.4999999999999993e-01 +8.3649916520864167e+00 +0.0000000000000000e+00 +5.4999999991552984e-01 -3.0356269754219100e-05 +0.0000000000000000e+00 +9.9999999953924823e-01
5.9999999999999998e-01 +8.3649900652792297e+00 +0.0000000000000000e+00 +5.9999999989033437e-01 -3.3116021475390225e-05 +0.0000000000000000e+00 +9.9999999945166440e-01
6.5000000000000002e-01 +8.3649883404838761e+00 +0.0000000000000000e+00 +6.4999999986056933e-01 -3.5875796719405548e-05 +0.0000000000000000e+00 +9.9999999935646344e-01
7.0000000000000007e-01 +8.3649864776991336e+00 +0.0000000000000000e+00 +6.9999999982585381e-01 -3.8635597405374293e-05 +0.0000000000000000e+00 +9.9999999925364513e-01
7.5000000000000011e-01 +8.3649844769236807e+00 +0.0000000000000000e+00 +7.4999999978580689e-01 -4.1395425447946600e-05 +0.0000000000000000e+00 +9.9999999914320925e-01
8.0000000000000016e-01 +8.3649823381561017e+00 +0.0000000000000000e+00 +7.9999999974004776e-01 -4.4155282757313589e-05 +0.0000000000000000e+00 +9.9999999902515535e-01
8.5000000000000020e-01 +8.3649800613948848e+00 +0.0000000000000000e+00 +8.4999999968819551e-01 -4.6915171239207473e-05 +0.0000000000000000e+00 +9.9999999889948321e-01
9.0000000000000024e-01 +8.3649776466384260e+00 +0.0000000000000000e+00 +8.9999999962986910e-01 -4.9675092794901613e-05 +0.0000000000000000e+00 +9.9999999876619239e-01
9.5000000000000029e-01 +8.3649750938850236e+00 +0.0000000000000000e+00 +9.4999999956468772e-01 -5.2435049321210624e-05 +0.0000000000000000e+00 +9.9999999862528266e-01
1.0000000000000002e+00 +8.3649724031328798e+00 +0.0000000000000000e+00 +9.9999999949227036e-01 -5.5195042710490448e-05 +0.0000000000000000e+00 +9.9999999847675347e-01
1.0500000000000003e+00 +8.3649695743801065e+00 +0.0000000000000000e+00 +1.0499999994122360e+00 -5.7955074850638427e-05 +0.0000000000000000e+00 +9.9999999832060449e-01
1.1000000000000003e+00 +8.3649666076247176e+00 +0.0000000000000000e+00 +1.0999999993242038e+00 -6.0715147625093394e-05 +0.0000000000000000e+00 +9.9999999815683527e-01
1.1500000000000004e+00 +8.3649635028646347e+00 +0.0000000000000000e+00 +1.1499999992277925e+00 -6.3475262912835760e-05 +0.0000000000000000e+00 +9.9999999798544537e-01
1.2000000000000004e+00 +8.3649602600976856e+00 +0.0000000000000000e+00 +1.1999999991226213e+00 -6.6235422588387574e-05 +0.0000000000000000e+00 +9.9999999780643423e-01
1.2500000000000004e+00 +8.3649568793216051e+00 +0.0000000000000000e+00 +1.2499999990083090e+00 -6.8995628521812625e-05 +0.0000000000000000e+00 +9.9999999761980141e-01
1.3000000000000005e+00 +8.3649533605340327e+00 +0.0000000000000000e+00 +1.2999999988844746e+00 -7.1755882578716497e-05 +0.0000000000000000e+00 +9.9999999742554646e-01
1.3500000000000005e+00 +8.3649497037325151e+00 +0.0000000000000000e+00 +1.3499999987507367e+00 -7.4516186620246657e-05 +0.0000000000000000e+00 +9.9999999722366872e-01
1.4000000000000006e+00 +8.3649459089145068e+00 +0.0000000000000000e+00 +1.3999999986067144e+00 -7.7276542503092535e-05 +0.0000000000000000e+00 +9.9999999701416775e-01
1.4500000000000006e+00 +8.3649419760773700e+00 +0.0000000000000000e+00 +1.4499999984520264e+00 -8.0036952079485594e-05 +0.0000000000000000e+00 +9.9999999679704288e-01
1.5000000000000007e+00 +8.3649379052183725e+00 +0.0000000000000000e+00 +1.4999999982862917e+00 -8.2797417197199395e-05 +0.0000000000000000e+00 +9.9999999657229355e-01
1.5500000000000007e+00 +8.3649336963346936e+00 +0.0000000000000000e+00 +1.5499999981091288e+00 -8.5557939699549694e-05 +0.0000000000000000e+00 +9.9999999633991921e-01
1.6000000000000008e+00 +8.3649293494234165e+00 +0.0000000000000000e+00 +1.5999999979201565e+00 -8.8318521425394511e-05 +0.0000000000000000e+00 +9.9999999609991908e-01
1.6500000000000008e+00 +8.3649248644815337e+00 +0.0000000000000000e+00 +1.6499999977189934e+00 -9.1079164209134165e-05 +0.0000000000000000e+00 +9.9999999585229260e-01
1.7000000000000008e+00 +8.3649202415059474e+00 +0.0000000000000000e+00 +1.6999999975052584e+00 -9.3839869880711402e-05 +0.0000000000000000e+00 +9.9999999559703912e-01
1.7500000000000009e+00 +8.3649154804934671e+00 +0.0000000000000000e+00 +1.7499999972785703e+00 -9.6600640265611420e-05 +0.0000000000000000e+00 +9.9999999533415784e-01
1.8000000000000009e+00 +8.3649105814408120e+00 +0.0000000000000000e+00 +1.7999999970385472e+00 -9.9361477184861977e-05 +0.0000000000000000e+00 +9.9999999506364812e-01
1.8500000000000010e+00 +8.3649055443446088e+00 +0.0000000000000000e+00 +1.8499999967848080e+00 -1.0212238245503342e-04 +0.0000000000000000e+00 +9.9999999478550916e-01
1.9000000000000010e+00 +8.3649003692013970e+00 +0.0000000000000000e+00 +1.8999999965169709e+00 -1.0488335788823878e-04 +0.0000000000000000e+00 +9.9999999449974031e-01
1.9500000000000011e+00 +8.3648950560076205e+00 +0.0000000000000000e+00 +1.9499999962346548e+00 -1.0764440529213385e-04 +0.0000000000000000e+00 +9.9999999420634067e-01
2.0000000000000009e+00 +8.3648896047596377e+00 +0.0000000000000000e+00 +1.9999999959374779e+00 -1.1040552646991722e-04 +0.0000000000000000e+00 +9.9999999390530958e-01
2.0500000000000007e+00 +8.3648840154537147e+00 +0.0000000000000000e+00 +2.0499999956250585e+00 -1.1316672322006263e-04 +0.0000000000000000e+00 +9.9999999359664604e-01
2.1000000000000005e+00 +8.3648782880860271e+00 +0.0000000000000000e+00 +2.0999999952970154e+00 -1.1592799733337396e-04 +0.0000000000000000e+00 +9.9999999328034939e-01
2.1500000000000004e+00 +8.3648724226526632e+00 +0.0000000000000000e+00 +2.1499999949529665e+00 -1.1868935059004015e-04 +0.0000000000000000e+00 +9.9999999295641873e-01
2.2000000000000002e+00 +8.3648664191496209e+00 +0.0000000000000000e+00 +2.1999999945925302e+00 -1.2145078475936765e-04 +0.0000000000000000e+00 +9.9999999262485317e-01
2.2500000000000000e+00 +8.3648602775728094e+00 +0.0000000000000000e+00 +2.2499999942153246e+00 -1.2421230159978034e-04 +0.0000000000000000e+00 +9.9999999228565184e-01
2.2999999999999998e+00 +8.3648539979180541e+00 +0.0000000000000000e+00 +2.2999999938209679e+00 -1.2697390285881969e-04 +0.0000000000000000e+00 +9.9999999193881373e-01
2.3499999999999996e+00 +8.3648475801810882e+00 +0.0000000000000000e+00 +2.3499999934090785e+00 -1.2973559027314478e-04 +0.0000000000000000e+00 +9.9999999158433805e-01
2.3999999999999995e+00 +8.3648410243575615e+00 +0.0000000000000000e+00 +2.3999999929792746e+00 -1.3249736556853232e-04 +0.0000000000000000e+00 +9.9999999122222383e-01
2.4499999999999993e+00 +8.3648343304430384e+00 +0.0000000000000000e+00 +2.4499999925311737e+00 -1.3525923045987678e-04 +0.0000000000000000e+00 +9.9999999085247004e-01
2.4999999999999991e+00 +8.3648274984329944e+00 +0.0000000000000000e+00 +2.4999999920643940e+00 -1.3802118665119043e-04 +0.0000000000000000e+00 +9.9999999047507582e-01
2.5499999999999989e+00 +8.3648205283228236e+00 +0.0000000000000000e+00 +2.5499999915785536e+00 -1.4078323583560334e-04 +0.0000000000000000e+00 +9.9999999009004004e-01
2.5999999999999988e+00 +8.3648134201078328e+00 +0.0000000000000000e+00 +2.5999999910732705e+00 -1.4354537969536344e-04 +0.0000000000000000e+00 +9.9999998969736181e-01
2.6499999999999986e+00 +8.3648061737832471e+00 +0.0000000000000000e+00 +2.6499999905481624e+00 -1.4630761990183668e-04 +0.0000000000000000e+00 +9.9999998929704004e-01
2.6999999999999984e+00 +8.3647987893442082e+00 +0.0000000000000000e+00 +2.6999999900028469e+00 -1.4906995811550698e-04 +0.0000000000000000e+00 +9.9999998888907360e-01
2.7499999999999982e+00 +8.3647912667857742e+00 +0.0000000000000000e+00 +2.7499999894369420e+00 -1.5183239598597626e-04 +0.0000000000000000e+00 +9.9999998847346161e-01
2.7999999999999980e+00 +8.3647836061029217e+00 +0.0000000000000000e+00 +2.7999999888500655e+00 -1.5459493515196455e-04 +0.0000000000000000e+00 +9.9999998805020285e-01
2.8499999999999979e+00 +8.3647758072905436e+00 +0.0000000000000000e+00 +2.8499999882418350e+00 -1.5735757724131004e-04 +0.0000000000000000e+00 +9.9999998761929632e-01
2.8999999999999977e+00 +8.3647678703434547e+00 +0.0000000000000000e+00 +2.8999999876118676e+00 -1.6012032387096914e-04 +0.0000000000000000e+00 +9.9999998718074079e-01
2.9499999999999975e+00 +8.3647597952563881e+00 +0.0000000000000000e+00 +2.9499999869597815e+00 -1.6288317664701641e-04 +0.0000000000000000e+00 +9.9999998673453527e-01
2.9999999999999973e+00 +8.3647515820239953e+00 +0.0000000000000000e+00 +2.9999999862851938e+00 -1.6564613716464477e-04 +0.0000000000000000e+00 +9.9999998628067854e-01
3.0499999999999972e+00 +8.3647432306408493e+00 +0.0000000000000000e+00 +3.0499999855877218e+00 -1.6840920700816547e-04 +0.0000000000000000e+00 +9.9999998581916938e-01
3.0999999999999970e+00 +8.3647347411014454e+00 +0.0000000000000000e+00 +3.0999999848669830e+00 -1.7117238775100807e-04 +0.0000000000000000e+00 +9.9999998535000667e-01
3.1499999999999968e+00 +8.3647261134002004e+00 +0.0000000000000000e+00 +3.1499999841225947e+00 -1.7393568095572058e-04 +0.0000000000000000e+00 +9.9999998487318931e-01
3.1999999999999966e+00 +8.3647173475314514e+00 +0.0000000000000000e+00 +3.1999999833541741e+00 -1.7669908817396948e-04 +0.0000000000000000e+00 +9.9999998438871596e-01
3.2499999999999964e+00 +8.3647084434894587e+00 +0.0000000000000000e+00 +3.2499999825613384e+00 -1.7946261094653975e-04 +0.0000000000000000e+00 +9.9999998389658551e-01
3.2999999999999963e+00 +8.3646994012684068e+00 +0.0000000000000000e+00 +3.2999999817437047e+00 -1.8222625080333487e-04 +0.0000000000000000e+00 +9.9999998339679663e-01
3.3499999999999961e+00 +8.3646902208624017e+00 +0.0000000000000000e+00 +3.3499999809008902e+00 -1.8499000926337696e-04 +0.0000000000000000e+00 +9.9999998288934810e-01
3.3999999999999959e+00 +8.3646809022654782e+00 +0.0000000000000000e+00 +3.3999999800325118e+00 -1.8775388783480671e-04 +0.0000000000000000e+00 +9.9999998237423871e-01
3.4499999999999957e+00 +8.3646714454715916e+00 +0.0000000000000000e+00 +3.4499999791381866e+00 -1.9051788801488349e-04 +0.0000000000000000e+00 +9.9999998185146710e-01
3.4999999999999956e+00 +8.3646618504746257e+00 +0.0000000000000000e+00 +3.4999999782175308e+00 -1.9328201128998533e-04 +0.0000000000000000e+00 +9.9999998132103196e-01
3.5499999999999954e+00 +8.3646521172683865e+00 +0.0000000000000000e+00 +3.5499999772701618e+00 -1.9604625913560903e-04 +0.0000000000000000e+00 +9.9999998078293206e-01
3.5999999999999952e+00 +8.3646422458466105e+00 +0.0000000000000000e+00 +3.5999999762956962e+00 -1.9881063301637012e-04 +0.0000000000000000e+00 +9.9999998023716596e-01
3.6499999999999950e+00 +8.3646322362029597e+00 +0.0000000000000000e+00 +3.6499999752937509e+00 -2.0157513438600293e-04 +0.0000000000000000e+00 +9.9999997968373244e-01
3.6999999999999948e+00 +8.3646220883310232e+00 +0.0000000000000000e+00 +3.6999999742639420e+00 -2.0433976468736066e-04 +0.0000000000000000e+00 +9.9999997912263017e-01
3.7499999999999947e+00 +8.3646118022243190e+00 +0.0000000000000000e+00 +3.7499999732058860e+00 -2.0710452535241530e-04 +0.0000000000000000e+00 +9.9999997855385769e-01
3.7999999999999945e+00 +8.3646013778762924e+00 +0.0000000000000000e+00 +3.7999999721191999e+00 -2.0986941780225778e-04 +0.0000000000000000e+00 +9.9999997797741358e-01
3.8499999999999943e+00 +8.3645908152803194e+00 +0.0000000000000000e+00 +3.8499999710034998e+00 -2.1263444344709793e-04 +0.0000000000000000e+00 +9.9999997739329660e-01
3.8999999999999941e+00 +8.3645801144297049e+00 +0.0000000000000000e+00 +3.8999999698584018e+00 -2.1539960368626457e-04 +0.0000000000000000e+00 +9.9999997680150521e-01
3.9499999999999940e+00 +8.3645692753176846e+00 +0.0000000000000000e+00 +3.9499999686835223e+00 -2.1816489990820543e-04 +0.0000000000000000e+00 +9.9999997620203807e-01
3.9999999999999938e+00 +8.3645582979374247e+00 +0.0000000000000000e+00 +3.9999999674784776e+00 -2.2093033349048730e-04 +0.0000000000000000e+00 +9.9999997559489373e-01
4.0499999999999936e+00 +8.3645471822820241e+00 +0.0000000000000000e+00 +4.0499999662428836e+00 -2.2369590579968316e-04 +0.0000000000000000e+00 +9.9999997498007076e-01
4.0999999999999934e+00 +8.3645359283445107e+00 +0.0000000000000000e+00 +4.0999999649763570e+00 -2.2646161819013102e-04 +0.0000000000000000e+00 +9.9999997435756760e-01
4.1499999999999932e+00 +8.3645245361178482e+00 +0.0000000000000000e+00 +4.1499999636785132e+00 -2.2922747200269274e-04 +0.0000000000000000e+00 +9.9999997372738292e-01
4.1999999999999931e+00 +8.3645130055949313e+00 +0.0000000000000000e+00 +4.1999999623489677e+00 -2.3199346856464130e-04 +0.0000000000000000e+00 +9.9999997308951516e-01
4.2499999999999929e+00 +8.3645013367685905e+00 +0.0000000000000000e+00 +4.2499999609873367e+00 -2.3475960918966068e-04 +0.0000000000000000e+00 +9.9999997244396277e-01
4.2999999999999927e+00 +8.3644895296315891e+00 +0.0000000000000000e+00 +4.2999999595932357e+00 -2.3752589517784593e-04 +0.0000000000000000e+00 +9.9999997179072442e-01
4.3499999999999925e+00 +8.3644775841766279e+00 +0.0000000000000000e+00 +4.3499999581662809e+00 -2.4029232781570321e-04 +0.0000000000000000e+00 +9.9999997112979844e-01
4.3999999999999924e+00 +8.3644655003963422e+00 +0.0000000000000000e+00 +4.3999999567060879e+00 -2.4305890837614971e-04 +0.0000000000000000e+00 +9.9999997046118339e-01
4.4499999999999922e+00 +8.3644532782833032e+00 +0.0000000000000000e+00 +4.4499999552122711e+00 -2.4582563811851373e-04 +0.0000000000000000e+00 +9.9999996978487771e-01
4.4999999999999920e+00 +8.3644409178300219e+00 +0.0000000000000000e+00 +4.4999999536844468e+00 -2.4859251828853466e-04 +0.0000000000000000e+00 +9.9999996910087974e-01
4.5499999999999918e+00 +8.3644284190289468e+00 +0.0000000000000000e+00 +4.5499999521222305e+00 -2.5135955011836296e-04 +0.0000000000000000e+00 +9.9999996840918803e-01
4.5999999999999917e+00 +8.3644157818724629e+00 +0.0000000000000000e+00 +4.5999999505252376e+00 -2.5412673482656020e-04 +0.0000000000000000e+00 +9.9999996770980104e-01
4.6499999999999915e+00 +8.3644030063528962e+00 +0.0000000000000000e+00 +4.6499999488930825e+00 -2.5689407361809900e-04 +0.0000000000000000e+00 +9.9999996700271720e-01
4.6999999999999913e+00 +8.3643900924625125e+00 +0.0000000000000000e+00 +4.6999999472253808e+00 -2.5966156768436307e-04 +0.0000000000000000e+00 +9.9999996628793486e-01
4.7499999999999911e+00 +8.3643770401935189e+00 +0.0000000000000000e+00 +4.7499999455217479e+00 -2.6242921820314723e-04 +0.0000000000000000e+00 +9.9999996556545245e-01
4.7999999999999909e+00 +8.3643638495380639e+00 +0.0000000000000000e+00 +4.7999999437817982e+00 -2.6519702633865733e-04 +0.0000000000000000e+00 +9.9999996483526832e-01
4.8499999999999908e+00 +8.3643505204882391e+00 +0.0000000000000000e+00 +4.8499999420051463e+00 -2.6796499324151029e-04 +0.0000000000000000e+00 +9.9999996409738090e-01
4.8999999999999906e+00 +8.3643370530360759e+00 +0.0000000000000000e+00 +4.8999999401914076e+00 -2.7073312004873408e-04 +0.0000000000000000e+00 +9.9999996335178853e-01
4.9499999999999904e+00 +8.3643234471735504e+00 +0.0000000000000000e+00 +4.9499999383401967e+00 -2.7350140788376777e-04 +0.0000000000000000e+00 +9.9999996259848956e-01
4.9999999999999902e+00 +8.3643097028925855e+00 +0.0000000000000000e+00 +4.9999999364511281e+00 -2.7626985785646142e-04 +0.0000000000000000e+00 +9.9999996183748241e-01
5.0499999999999901e+00 +8.3642958201850455e+00 +0.0000000000000000e+00 +5.0499999345238162e+00 -2.7903847106307609e-04 +0.0000000000000000e+00 +9.9999996106876543e-01
5.0999999999999899e+00 +8.3642817990427414e+00 +0.0000000000000000e+00 +5.0999999325578758e+00 -2.8180724858628390e-04 +0.0000000000000000e+00 +9.9999996029233684e-01
5.1499999999999897e+00 +8.3642676394574309e+00 +0.0000000000000000e+00 +5.1499999305529212e+00 -2.8457619149516796e-04 +0.0000000000000000e+00 +9.9999995950819509e-01
5.1999999999999895e+00 +8.3642533414208184e+00 +0.0000000000000000e+00 +5.1999999285085670e+00 -2.8734530084522226e-04 +0.0000000000000000e+00 +9.9999995871633851e-01
5.2499999999999893e+00 +8.3642389049245551e+00 +0.0000000000000000e+00 +5.2499999264244268e+00 -2.9011457767835188e-04 +0.0000000000000000e+00 +9.9999995791676533e-01
5.2999999999999892e+00 +8.3642243299602423e+00 +0.0000000000000000e+00 +5.2999999243001152e+00 -2.9288402302287282e-04 +0.0000000000000000e+00 +9.9999995710947387e-01
5.3499999999999890e+00 +8.3642096165194282e+00 +0.0000000000000000e+00 +5.3499999221352459e+00 -2.9565363789351193e-04 +0.0000000000000000e+00 +9.9999995629446248e-01
5.3999999999999888e+00 +8.3641947645936110e+00 +0.0000000000000000e+00 +5.3999999199294333e+00 -2.9842342329140705e-04 +0.0000000000000000e+00 +9.9999995547172948e-01
5.4499999999999886e+00 +8.3641797741742394e+00 +0.0000000000000000e+00 +5.4499999176822902e+00 -3.0119338020410681e-04 +0.0000000000000000e+00 +9.9999995464127311e-01
5.4999999999999885e+00 +8.3641646452527141e+00 +0.0000000000000000e+00 +5.4999999153934311e+00 -3.0396350960557072e-04 +0.0000000000000000e+00 +9.9999995380309159e-01
5.5499999999999883e+00 +8.3641493778203877e+00 +0.0000000000000000e+00 +5.5499999130624706e+00 -3.0673381245616913e-04 +0.0000000000000000e+00 +9.9999995295718325e-01
5.5999999999999881e+00 +8.3641339718685614e+00 +0.0000000000000000e+00 +5.5999999106890215e+00 -3.0950428970268323e-04 +0.0000000000000000e+00 +9.9999995210354642e-01
5.6499999999999879e+00 +8.3641184273884939e+00 +0.0000000000000000e+00 +5.6499999082726973e+00 -3.1227494227830489e-04 +0.0000000000000000e+00 +9.9999995124217922e-01
5.6999999999999877e+00 +8.3641027443713956e+00 +0.0000000000000000e+00 +5.6999999058131108e+00 -3.1504577110263678e-04 +0.0000000000000000e+00 +9.9999995037307998e-01
5.7499999999999876e+00 +8.3640869228084309e+00 +0.0000000000000000e+00 +5.7499999033098765e+00 -3.1781677708169230e-04 +0.0000000000000000e+00 +9.9999994949624693e-01
5.7999999999999874e+00 +8.3640709626907199e+00 +0.0000000000000000e+00 +5.7999999007626073e+00 -3.2058796110789547e-04 +0.0000000000000000e+00 +9.9999994861167840e-01
5.8499999999999872e+00 +8.3640548640093382e+00 +0.0000000000000000e+00 +5.8499998981709158e+00 -3.2335932406008097e-04 +0.0000000000000000e+00 +9.9999994771937251e-01
5.8999999999999870e+00 +8.3640386267553168e+00 +0.0000000000000000e+00 +5.8999998955344157e+00 -3.2613086680349410e-04 +0.0000000000000000e+00 +9.9999994681932758e-01
