# field on trajectory
# s[mm] rx[mm] ry[mm] rz[mm] bx[T] by[T] bz[T]
0.0000000000000000e+00 +8.5270000000000206e+00 +0.0000000000000000e+00 +0.0000000000000000e+00 -2.6495894099242509e-02 -5.2268272117832393e-01 +5.3899644415736090e-03
5.0000000000000003e-02 +8.5269999309457507e+00 +0.0000000000000000e+00 +4.9999999999936401e-02 -2.6495439583012793e-02 -5.2267977283673739e-01 +5.3884844913043919e-03
1.0000000000000001e-01 +8.5269997237846802e+00 +0.0000000000000000e+00 +9.9999999999491399e-02 -2.6495004329020886e-02 -5.2267719811743052e-01 +5.3870016033400114e-03
1.4999999999999999e-01 +8.5269993785186706e+00 +0.0000000000000000e+00 +1.4999999999828301e-01 -2.6494588430731787e-02 -5.2267499650060067e-01 +5.3855158261743533e-03
2.0000000000000001e-01 +8.5269988951477007e+00 +0.0000000000000000e+00 +1.9999999999593099e-01 -2.6494191981611608e-02 -5.2267316746647507e-01 +5.3840272083012473e-03
2.5000000000000000e-01 +8.5269982736681396e+00 +0.0000000000000000e+00 +2.4999999999205300e-01 -2.6493815075128314e-02 -5.2267171049532213e-01 +5.3825357982145907e-03
2.9999999999999999e-01 +8.5269975140799907e+00 +0.0000000000000000e+00 +2.9999999998626697e-01 -2.6493457804749276e-02 -5.2267062506740303e-01 +5.3810416444078375e-03
3.4999999999999998e-01 +8.5269966163905302e+00 +0.0000000000000000e+00 +3.4999999997819298e-01 -2.6493120263940222e-02 -5.2266991066294599e-01 +5.3795447953737530e-03
4.0000000000000002e-01 +8.5269955805888493e+00 +0.0000000000000000e+00 +3.9999999996744801e-01 -2.6492802546173835e-02 -5.2266956676231957e-01 +5.3780452996062909e-03
4.5000000000000001e-01 +8.5269944066858407e+00 +0.0000000000000000e+00 +4.4999999995365197e-01 -2.6492504744916334e-02 -5.2266959284576020e-01 +5.3765432055976631e-03
5.0000000000000000e-01 +8.5269930946742498e+00 +0.0000000000000000e+00 +4.9999999993642202e-01 -2.6492226953641111e-02 -5.2266998839364531e-01 +5.3750385618412978e-03
5.5000000000000004e-01 +8.5269916445577092e+00 +0.0000000000000000e+00 +5.4999999991537796e-01 -2.6491969265818913e-02 -5.2267075288629361e-01 +5.3735314168297217e-03
5.9999999999999998e-01 +8.5269900563289394e+00 +0.0000000000000000e+00 +5.9999999989013697e-01 -2.6491731774925417e-02 -5.2267188580411561e-01 +5.3720218190561669e-03
6.5000000000000002e-01 +8.5269883299988596e+00 +0.0000000000000000e+00 +6.4999999986031898e-01 -2.6491514574431323e-02 -5.2267338662741281e-01 +5.3705098170124593e-03
6.9999999999999996e-01 +8.5269864655601904e+00 +0.0000000000000000e+00 +6.9999999982554195e-01 -2.6491317757814829e-02 -5.2267525483662791e-01 +5.3689954591916843e-03
7.5000000000000000e-01 +8.5269844630165608e+00 +0.0000000000000000e+00 +7.4999999978542398e-01 -2.6491141418551870e-02 -5.2267748991214524e-01 +5.3674787940860905e-03
8.0000000000000004e-01 +8.5269823223679904e+00 +0.0000000000000000e+00 +7.9999999973958402e-01 -2.6490985650121070e-02 -5.2268009133438942e-01 +5.3659598701881446e-03
8.4999999999999998e-01 +8.5269800436108198e+00 +0.0000000000000000e+00 +8.4999999968764095e-01 -2.6490850546003888e-02 -5.2268305858382647e-01 +5.3644387359905732e-03
9.0000000000000002e-01 +8.5269776267450705e+00 +0.0000000000000000e+00 +8.9999999962921295e-01 -2.6490736199682188e-02 -5.2268639114091331e-01 +5.3629154399858145e-03
9.4999999999999996e-01 +8.5269750717743609e+00 +0.0000000000000000e+00 +9.4999999956391801e-01 -2.6490642704638325e-02 -5.2269008848609744e-01 +5.3613900306660528e-03
1.0000000000000000e+00 +8.5269723786986997e+00 +0.0000000000000000e+00 +9.9999999949137597e-01 -2.6490570154357712e-02 -5.2269415009986708e-01 +5.3598625565237611e-03
1.0500000000000000e+00 +8.5269695475144491e+00 +0.0000000000000000e+00 +1.0499999994111999e+00 -2.6490518642328889e-02 -5.2269857546275134e-01 +5.3583330660517013e-03
1.1000000000000001e+00 +8.5269665782288904e+00 +0.0000000000000000e+00 +1.0999999993230201e+00 -2.6490488262038672e-02 -5.2270336405521978e-01 +5.3568016077419015e-03
1.1499999999999999e+00 +8.5269634708311095e+00 +0.0000000000000000e+00 +1.1499999992264500e+00 -2.6490479106982091e-02 -5.2270851535788210e-01 +5.3552682300877707e-03
1.2000000000000000e+00 +8.5269602253283701e+00 +0.0000000000000000e+00 +1.1999999991210999e+00 -2.6490491270650160e-02 -5.2271402885123908e-01 +5.3537329815814714e-03
1.2500000000000000e+00 +8.5269568417206791e+00 +0.0000000000000000e+00 +1.2499999990065900e+00 -2.6490524846538591e-02 -5.2271990401585600e-01 +5.3521959107157742e-03
1.3000000000000000e+00 +8.5269533200044005e+00 +0.0000000000000000e+00 +1.2999999988825499e+00 -2.6490579928146598e-02 -5.2272614033233911e-01 +5.3506570659838364e-03
1.3500000000000001e+00 +8.5269496601795307e+00 +0.0000000000000000e+00 +1.3499999987485900e+00 -2.6490656608974587e-02 -5.2273273728128411e-01 +5.3491164958786568e-03
1.3999999999999999e+00 +8.5269458622533403e+00 +0.0000000000000000e+00 +1.3999999986043401e+00 -2.6490754982522915e-02 -5.2273969434325285e-01 +5.3475742488928411e-03
1.4500000000000000e+00 +8.5269419262185693e+00 +0.0000000000000000e+00 +1.4499999984494001e+00 -2.6490875142299430e-02 -5.2274701099892018e-01 +5.3460303735201886e-03
1.5000000000000000e+00 +8.5269378520752106e+00 +0.0000000000000000e+00 +1.4999999982833900e+00 -2.6491017181812165e-02 -5.2275468672892811e-01 +5.3444849182541472e-03
1.5500000000000000e+00 +8.5269336398268898e+00 +0.0000000000000000e+00 +1.5499999981059500e+00 -2.6491181194570616e-02 -5.2276272101390719e-01 +5.3429379315880635e-03
1.6000000000000001e+00 +8.5269292894736299e+00 +0.0000000000000000e+00 +1.5999999979166799e+00 -2.6491367274088247e-02 -5.2277111333452775e-01 +5.3413894620157306e-03
1.6499999999999999e+00 +8.5269248010117700e+00 +0.0000000000000000e+00 +1.6499999977152000e+00 -2.6491575513882721e-02 -5.2277986317150027e-01 +5.3398395580314204e-03
1.7000000000000000e+00 +8.5269201744449692e+00 +0.0000000000000000e+00 +1.6999999975011300e+00 -2.6491806007472102e-02 -5.2278897000549940e-01 +5.3382882681290763e-03
1.7500000000000000e+00 +8.5269154097695701e+00 +0.0000000000000000e+00 +1.7499999972740901e+00 -2.6492058848379997e-02 -5.2279843331726439e-01 +5.3367356408034151e-03
1.8000000000000000e+00 +8.5269105069892195e+00 +0.0000000000000000e+00 +1.7999999970336999e+00 -2.6492334130130635e-02 -5.2280825258749897e-01 +5.3351817245488615e-03
1.8500000000000001e+00 +8.5269054661039299e+00 +0.0000000000000000e+00 +1.8499999967795799e+00 -2.6492631946252680e-02 -5.2281842729694605e-01 +5.3336265678603570e-03
1.8999999999999999e+00 +8.5269002871100401e+00 +0.0000000000000000e+00 +1.8999999965113501e+00 -2.6492952390279316e-02 -5.2282895692638809e-01 +5.3320702192333844e-03
1.9500000000000000e+00 +8.5268949700112007e+00 +0.0000000000000000e+00 +1.9499999962286201e+00 -2.6493295555744603e-02 -5.2283984095657143e-01 +5.3305127271631846e-03
2.0000000000000000e+00 +8.5268895148037700e+00 +0.0000000000000000e+00 +1.9999999959310100e+00 -2.6493661536188515e-02 -5.2285107886830684e-01 +5.3289541401458206e-03
2.0499999999999998e+00 +8.5268839213858900e+00 +0.0000000000000000e+00 +2.0499999956181298e+00 -2.6494050397497384e-02 -5.2286266992520858e-01 +5.3273945128522252e-03
2.1000000000000001e+00 +8.5268781896593300e+00 +0.0000000000000000e+00 +2.0999999952895898e+00 -2.6494462094797038e-02 -5.2287461251934808e-01 +5.3258339246231847e-03
2.1499999999999999e+00 +8.5268723196240899e+00 +0.0000000000000000e+00 +2.1499999949449999e+00 -2.6494896555490172e-02 -5.2288690482425104e-01 +5.3242724609598776e-03
2.2000000000000002e+00 +8.5268663112729008e+00 +0.0000000000000000e+00 +2.1999999945839801e+00 -2.6495353706982236e-02 -5.2289954501350377e-01 +5.3227102073640101e-03
2.2500000000000000e+00 +8.5268601646093902e+00 +0.0000000000000000e+00 +2.2499999942061502e+00 -2.6495833476675251e-02 -5.2291253126062998e-01 +5.3211472493364751e-03
2.2999999999999998e+00 +8.5268538796335598e+00 +0.0000000000000000e+00 +2.2999999938111202e+00 -2.6496335791972487e-02 -5.2292586173918743e-01 +5.3195836723784083e-03
2.3500000000000001e+00 +8.5268474563490599e+00 +0.0000000000000000e+00 +2.3499999933985198e+00 -2.6496860580276012e-02 -5.2293953462272147e-01 +5.3180195619906530e-03
2.3999999999999999e+00 +8.5268408947522403e+00 +0.0000000000000000e+00 +2.3999999929679601e+00 -2.6497407768990257e-02 -5.2295354808483641e-01 +5.3164550036745393e-03
2.4500000000000002e+00 +8.5268341948467405e+00 +0.0000000000000000e+00 +2.4499999925190501e+00 -2.6497977285516904e-02 -5.2296790029909712e-01 +5.3148900829308324e-03
2.5000000000000000e+00 +8.5268273566252901e+00 +0.0000000000000000e+00 +2.4999999920514302e+00 -2.6498569057261022e-02 -5.2298258943915332e-01 +5.3133248852610367e-03
2.5499999999999998e+00 +8.5268203800987994e+00 +0.0000000000000000e+00 +2.5499999915646900e+00 -2.6499183011621050e-02 -5.2299761367854025e-01 +5.3117594961652834e-03
2.6000000000000001e+00 +8.5268132652563509e+00 +0.0000000000000000e+00 +2.5999999910584699e+00 -2.6499819076002278e-02 -5.2301297119095147e-01 +5.3101940011452244e-03
2.6499999999999999e+00 +8.5268060121015896e+00 +0.0000000000000000e+00 +2.6499999905323701e+00 -2.6500477177804370e-02 -5.2302866014999105e-01 +5.3086284857013916e-03
2.7000000000000002e+00 +8.5267986206345103e+00 +0.0000000000000000e+00 +2.6999999899860101e+00 -2.6501157244427417e-02 -5.2304467872929539e-01 +5.3070630353344991e-03
2.7500000000000000e+00 +8.5267910908551094e+00 +0.0000000000000000e+00 +2.7499999894190199e+00 -2.6501859203270646e-02 -5.2306102510251196e-01 +5.3054977355451900e-03
2.7999999999999998e+00 +8.5267834227670392e+00 +0.0000000000000000e+00 +2.7999999888310101e+00 -2.6502582981731023e-02 -5.2307769744326982e-01 +5.3039326718337509e-03
2.8500000000000001e+00 +8.5267756163666508e+00 +0.0000000000000000e+00 +2.8499999882215898e+00 -2.6503328507206880e-02 -5.2309469392525776e-01 +5.3023679297009036e-03
2.8999999999999999e+00 +8.5267676716539391e+00 +0.0000000000000000e+00 +2.8999999875903901e+00 -2.6504095707094083e-02 -5.2311201272214725e-01 +5.3008035946470059e-03
2.9500000000000002e+00 +8.5267595886289200e+00 +0.0000000000000000e+00 +2.9499999869370299e+00 -2.6504884508787144e-02 -5.2312965200761774e-01 +5.2992397521723087e-03
3.0000000000000000e+00 +8.5267513672915793e+00 +0.0000000000000000e+00 +2.9999999862611100e+00 -2.6505694839679128e-02 -5.2314760995535647e-01 +5.2976764877769519e-03
3.0499999999999998e+00 +8.5267430076455604e+00 +0.0000000000000000e+00 +3.0499999855622502e+00 -2.6506526627160337e-02 -5.2316588473903314e-01 +5.2961138869606983e-03
3.1000000000000001e+00 +8.5267345096872305e+00 +0.0000000000000000e+00 +3.0999999848400801e+00 -2.6507379798621809e-02 -5.2318447453237471e-01 +5.2945520352237043e-03
3.1499999999999999e+00 +8.5267258734165807e+00 +0.0000000000000000e+00 +3.1499999840942201e+00 -2.6508254281451645e-02 -5.2320337750909074e-01 +5.2929910180657298e-03
3.2000000000000002e+00 +8.5267170988336094e+00 +0.0000000000000000e+00 +3.1999999833242700e+00 -2.6509150003035994e-02 -5.2322259184289677e-01 +5.2914309209864032e-03
3.2500000000000000e+00 +8.5267081859419704e+00 +0.0000000000000000e+00 +3.2499999825298600e+00 -2.6510066890757772e-02 -5.2324211570749002e-01 +5.2898718294849467e-03
3.2999999999999998e+00 +8.5266991347380099e+00 +0.0000000000000000e+00 +3.2999999817106000e+00 -2.6511004872000310e-02 -5.2326194727662567e-01 +5.2883138290609538e-03
3.3500000000000001e+00 +8.5266899452181004e+00 +0.0000000000000000e+00 +3.3499999808661101e+00 -2.6511963874144652e-02 -5.2328208472406279e-01 +5.2867570052138532e-03
3.3999999999999999e+00 +8.5266806173895002e+00 +0.0000000000000000e+00 +3.3999999799960099e+00 -2.6512943824565826e-02 -5.2330252622349305e-01 +5.2852014434421422e-03
3.4500000000000002e+00 +8.5266711512522306e+00 +0.0000000000000000e+00 +3.4499999790999101e+00 -2.6513944650638884e-02 -5.2332326994866363e-01 +5.2836472292446621e-03
3.5000000000000000e+00 +8.5266615468026394e+00 +0.0000000000000000e+00 +3.4999999781774398e+00 -2.6514966279737578e-02 -5.2334431407335169e-01 +5.2820944481203336e-03
3.5499999999999998e+00 +8.5266518040407409e+00 +0.0000000000000000e+00 +3.5499999772282100e+00 -2.6516008639231734e-02 -5.2336565677131486e-01 +5.2805431855676424e-03
3.6000000000000001e+00 +8.5266419229665207e+00 +0.0000000000000000e+00 +3.5999999762518402e+00 -2.6517071656488415e-02 -5.2338729621631619e-01 +5.2789935270848793e-03
3.6499999999999999e+00 +8.5266319035799807e+00 +0.0000000000000000e+00 +3.6499999752479400e+00 -2.6518155258871787e-02 -5.2340923058212319e-01 +5.2774455581701459e-03
3.6999999999999900e+00 +8.5266217458847695e+00 +0.0000000000000000e+00 +3.6999999742161398e+00 -2.6519259373741819e-02 -5.2343145804248314e-01 +5.2758993643210782e-03
3.7499999999999898e+00 +8.5266114498736005e+00 +0.0000000000000000e+00 +3.7499999731560498e+00 -2.6520383928459030e-02 -5.2345397677122352e-01 +5.2743550310358871e-03
3.7999999999999901e+00 +8.5266010155537497e+00 +0.0000000000000000e+00 +3.7999999720672801e+00 -2.6521528850375807e-02 -5.2347678494207472e-01 +5.2728126438115284e-03
3.8499999999999899e+00 +8.5265904429179500e+00 +0.0000000000000000e+00 +3.8499999709494599e+00 -2.6522694066846177e-02 -5.2349988072887199e-01 +5.2712722881457673e-03
3.8999999999999901e+00 +8.5265797319771099e+00 +0.0000000000000000e+00 +3.8999999698022001e+00 -2.6523879505214485e-02 -5.2352326230532864e-01 +5.2697340495348683e-03
3.9499999999999900e+00 +8.5265688827203103e+00 +0.0000000000000000e+00 +3.9499999686251202e+00 -2.6525085092829019e-02 -5.2354692784531243e-01 +5.2681980134763962e-03
3.9999999999999898e+00 +8.5265578951548395e+00 +0.0000000000000000e+00 +3.9999999674178399e+00 -2.6526310757028146e-02 -5.2357087552256865e-01 +5.2666642654663840e-03
4.0499999999999901e+00 +8.5265467692734092e+00 +0.0000000000000000e+00 +4.0499999661799704e+00 -2.6527556403065738e-02 -5.2359510336156712e-01 +5.2651328885615425e-03
4.0999999999999899e+00 +8.5265355050833005e+00 +0.0000000000000000e+00 +4.0999999649111301e+00 -2.6528821847845163e-02 -5.2361960878916491e-01 +5.2636039560569805e-03
4.1499999999999897e+00 +8.5265241025808791e+00 +0.0000000000000000e+00 +4.1499999636109504e+00 -2.6530106886188076e-02 -5.2364438908291799e-01 +5.2620775388086587e-03
4.1999999999999904e+00 +8.5265125617697795e+00 +0.0000000000000000e+00 +4.1999999622790298e+00 -2.6531411312914449e-02 -5.2366944152033634e-01 +5.2605537076722934e-03
4.2499999999999902e+00 +8.5265008826427202e+00 +0.0000000000000000e+00 +4.2499999609149901e+00 -2.6532734922848897e-02 -5.2369476337900822e-01 +5.2590325335046383e-03
4.2999999999999901e+00 +8.5264890652069898e+00 +0.0000000000000000e+00 +4.2999999595184599e+00 -2.6534077510811865e-02 -5.2372035193642485e-01 +5.2575140871617089e-03
4.3499999999999899e+00 +8.5264771094589396e+00 +0.0000000000000000e+00 +4.3499999580890396e+00 -2.6535438871628528e-02 -5.2374620447015607e-01 +5.2559984395005753e-03
4.3999999999999897e+00 +8.5264650153985695e+00 +0.0000000000000000e+00 +4.3999999566263703e+00 -2.6536818800123714e-02 -5.2377231825774928e-01 +5.2544856613783520e-03
4.4499999999999904e+00 +8.5264527830295300e+00 +0.0000000000000000e+00 +4.4499999551300400e+00 -2.6538217091122036e-02 -5.2379869057672979e-01 +5.2529758236522098e-03
4.4999999999999902e+00 +8.5264404123481707e+00 +0.0000000000000000e+00 +4.4999999535996897e+00 -2.6539633539451612e-02 -5.2382531870467530e-01 +5.2514689971801497e-03
4.5499999999999901e+00 +8.5264279033544899e+00 +0.0000000000000000e+00 +4.5499999520349199e+00 -2.6541067939940381e-02 -5.2385219991914123e-01 +5.2499652528202462e-03
4.5999999999999899e+00 +8.5264152560448601e+00 +0.0000000000000000e+00 +4.5999999504353601e+00 -2.6542520087418593e-02 -5.2387933149770927e-01 +5.2484646614311525e-03
4.6499999999999897e+00 +8.5264024704301793e+00 +0.0000000000000000e+00 +4.6499999488006196e+00 -2.6543989776712684e-02 -5.2390671071786377e-01 +5.2469672938708738e-03
4.6999999999999904e+00 +8.5263895464995603e+00 +0.0000000000000000e+00 +4.6999999471303298e+00 -2.6545476802657678e-02 -5.2393433485724084e-01 +5.2454732209992706e-03
4.7499999999999902e+00 +8.5263764842602505e+00 +0.0000000000000000e+00 +4.7499999454240900e+00 -2.6546980960083618e-02 -5.2396220119335291e-01 +5.2439825136753170e-03
4.7999999999999901e+00 +8.5263632837050007e+00 +0.0000000000000000e+00 +4.7999999436815299e+00 -2.6548502043826746e-02 -5.2399030700381433e-01 +5.2424952427593680e-03
4.8499999999999899e+00 +8.5263499448447000e+00 +0.0000000000000000e+00 +4.8499999419022597e+00 -2.6550039848718319e-02 -5.2401864956611466e-01 +5.2410114791108927e-03
4.8999999999999897e+00 +8.5263364676684397e+00 +0.0000000000000000e+00 +4.8999999400859000e+00 -2.6551594169598396e-02 -5.2404722615789578e-01 +5.2395312935912723e-03
4.9499999999999904e+00 +8.5263228521798702e+00 +0.0000000000000000e+00 +4.9499999382320699e+00 -2.6553164801303361e-02 -5.2407603405669967e-01 +5.2380547570612807e-03
4.9999999999999902e+00 +8.5263090983826295e+00 +0.0000000000000000e+00 +4.9999999363403900e+00 -2.6554751538670995e-02 -5.2410507054006872e-01 +5.2365819403821018e-03
5.0499999999999901e+00 +8.5262952059529198e+00 +0.0000000000000000e+00 +5.0499999344103799e+00 -2.6556354176653044e-02 -5.2413433288781408e-01 +5.2351129144379864e-03
5.0999999999999899e+00 +8.5262811745706095e+00 +0.0000000000000000e+00 +5.0999999324415599e+00 -2.6557972510201536e-02 -5.2416381837972348e-01 +5.2336477501132989e-03
5.1499999999999897e+00 +8.5262670042357094e+00 +0.0000000000000000e+00 +5.1499999304335597e+00 -2.6559606334159953e-02 -5.2419352429336874e-01 +5.2321865182706675e-03
5.1999999999999904e+00 +8.5262526949518396e+00 +0.0000000000000000e+00 +5.1999999283859903e+00 -2.6561255443372050e-02 -5.2422344790629594e-01 +5.2307292897729165e-03
5.2499999999999902e+00 +8.5262382467153692e+00 +0.0000000000000000e+00 +5.2499999262984600e+00 -2.6562919632685585e-02 -5.2425358649610176e-01 +5.2292761354838296e-03
5.2999999999999901e+00 +8.5262236595299292e+00 +0.0000000000000000e+00 +5.2999999241705797e+00 -2.6564598696947418e-02 -5.2428393734033152e-01 +5.2278271262671530e-03
5.3499999999999899e+00 +8.5262089333882596e+00 +0.0000000000000000e+00 +5.3499999220019703e+00 -2.6566292431009785e-02 -5.2431449771660654e-01 +5.2263823329878637e-03
5.3999999999999897e+00 +8.5261940682976292e+00 +0.0000000000000000e+00 +5.3999999197922497e+00 -2.6568000629721516e-02 -5.2434526490244526e-01 +5.2249418265104142e-03
5.4499999999999904e+00 +8.5261790642507496e+00 +0.0000000000000000e+00 +5.4499999175410201e+00 -2.6569723087938164e-02 -5.2437623617546647e-01 +5.2235056777007564e-03
5.4999999999999902e+00 +8.5261639212585596e+00 +0.0000000000000000e+00 +5.4999999152479004e+00 -2.6571459600510740e-02 -5.2440740881316272e-01 +5.2220739574240956e-03
5.5499999999999901e+00 +8.5261486393137602e+00 +0.0000000000000000e+00 +5.5499999129125097e+00 -2.6573209962298238e-02 -5.2443878009314948e-01 +5.2206467365473949e-03
5.5999999999999899e+00 +8.5261332184127205e+00 +0.0000000000000000e+00 +5.5999999105344500e+00 -2.6574973968160207e-02 -5.2447034729301722e-01 +5.2192240859378989e-03
5.6499999999999897e+00 +8.5261176585627307e+00 +0.0000000000000000e+00 +5.6499999081133403e+00 -2.6576751412954236e-02 -5.2450210769027783e-01 +5.2178060764626177e-03
5.6999999999999904e+00 +8.5261019597637606e+00 +0.0000000000000000e+00 +5.6999999056488004e+00 -2.6578542091542274e-02 -5.2453405856249236e-01 +5.2163927789896144e-03
5.7499999999999902e+00 +8.5260861220122006e+00 +0.0000000000000000e+00 +5.7499999031404396e+00 -2.6580345798789432e-02 -5.2456619718724451e-01 +5.2149842643877424e-03
5.7999999999999901e+00 +8.5260701453080401e+00 +0.0000000000000000e+00 +5.7999999005878804e+00 -2.6582162329561482e-02 -5.2459852084209091e-01 +5.2135806035261663e-03
5.8499999999999899e+00 +8.5260540296512808e+00 +0.0000000000000000e+00 +5.8499998979907204e+00 -2.6583991478726123e-02 -5.2463102680458584e-01 +5.2121818672746199e-03
5.8999999999999897e+00 +8.5260377750455500e+00 +0.0000000000000000e+00 +5.8999998953485804e+00 -2.6585833041151818e-02 -5.2466371235225495e-01 +5.2107881265031639e-03
