# multipoles
# s[mm] polynom_b[n=0][T/m^n] polynom_b[n=1][T/m^n] polynom_b[n=2][T/m^n] polynom_b[n=3][T/m^n] polynom_b[n=4][T/m^n] polynom_b[n=5][T/m^n] polynom_b[n=6][T/m^n] 
+0.0000000000000000e+00 -5.2268313152851553e-01 +6.8483190360057913e+00 +4.7023272994477869e+00 -8.3230751621849549e+01 +7.5974282519555591e+03 +1.5402156496069013e+05 -4.3269239955296524e+07 
+5.0000000000000003e-02 -5.2268017857767768e-01 +6.8481944221985405e+00 +4.7063882147817537e+00 -8.3528620698336297e+01 +7.5719210033968820e+03 +1.5663485113925673e+05 -4.3117269298087008e+07 
+1.0000000000000001e-01 -5.2267759878660613e-01 +6.8480901512122045e+00 +4.7100368445990854e+00 -8.3827110077875432e+01 +7.5436472557445150e+03 +1.5930119554424024e+05 -4.2942526206474759e+07 
+1.4999999999999999e-01 -5.2267539165826638e-01 +6.8480061796949387e+00 +4.7132745343095470e+00 -8.4125907255555234e+01 +7.5126945460019806e+03 +1.6201659821435093e+05 -4.2745902674306080e+07 
+2.0000000000000001e-01 -5.2267355669567073e-01 +6.8479424642937996e+00 +4.7161026326162832e+00 -8.4424699646702891e+01 +7.4791503163021343e+03 +1.6477705851908340e+05 -4.2528290031138219e+07 
+2.5000000000000000e-01 -5.2267209340186005e-01 +6.8478989616582933e+00 +4.7185224856420547e+00 -8.4723174726364547e+01 +7.4431020844470049e+03 +1.6757857626558759e+05 -4.2290580144492097e+07 
+2.9999999999999999e-01 -5.2267100127988197e-01 +6.8478756284382127e+00 +4.7205354426381678e+00 -8.5021019961395282e+01 +7.4046372768519295e+03 +1.7041715124041203e+05 -4.2033664238219947e+07 
+3.4999999999999998e-01 -5.2267027983272618e-01 +6.8478724212853965e+00 +4.7221428481620924e+00 -8.5317922851148012e+01 +7.3638434501030761e+03 +1.7328878342261375e+05 -4.1758434430125691e+07 
+4.0000000000000002e-01 -5.2266992856354555e-01 +6.8478892968474439e+00 +4.7233460508510943e+00 -8.5613570708028945e+01 +7.3208080488550959e+03 +1.7618947129296552e+05 -4.1465782076469839e+07 
+4.5000000000000001e-01 -5.2266994697537261e-01 +6.8479262117800257e+00 +4.7241464011773022e+00 -8.5907651129352004e+01 +7.2756184709573627e+03 +1.7911521564108727e+05 -4.1156598227078713e+07 
+5.0000000000000000e-01 -5.2267033457132350e-01 +6.8479831227317511e+00 +4.7245452400249759e+00 -8.6199851392310620e+01 +7.2283623670383386e+03 +1.8206201460005730e+05 -4.0831775619196519e+07 
+5.5000000000000004e-01 -5.2267109085452645e-01 +6.8480599863594307e+00 +4.7245439202487898e+00 -8.6489859088113789e+01 +7.1791270710658637e+03 +1.8502586892810703e+05 -4.0492204876258485e+07 
+5.9999999999999998e-01 -5.2267221532815311e-01 +6.8481567593137438e+00 +4.7241437865973221e+00 -8.6777361514193416e+01 +7.1280001300945878e+03 +1.8800277690874712e+05 -4.0138778037770383e+07 
+6.5000000000000002e-01 -5.2267370749528874e-01 +6.8482733982523865e+00 +4.7233461876330365e+00 -8.7062046234494275e+01 +7.0750689896022186e+03 +1.9098873907328350e+05 -3.9772386465744488e+07 
+6.9999999999999996e-01 -5.2267556685914240e-01 +6.8484098598285748e+00 +4.7221524687671641e+00 -8.7343600594888116e+01 +7.0204211807814090e+03 +1.9397975412106872e+05 -3.9393922102105789e+07 
+7.5000000000000000e-01 -5.2267779292288397e-01 +6.8485661006988527e+00 +4.7205639786977356e+00 -8.7621712044256597e+01 +6.9641441478219631e+03 +1.9697182160375937e+05 -3.9004276309334017e+07 
+8.0000000000000004e-01 -5.2268038518971649e-01 +6.8487420775191721e+00 +4.7185820651007235e+00 -8.7896067987966603e+01 +6.9063253585795746e+03 +1.9996094075024044e+05 -3.8604340595552653e+07 
+8.4999999999999998e-01 -5.2268334316287857e-01 +6.8489377469458832e+00 +4.7162080745137827e+00 -8.8166355819241659e+01 +6.8470523119381660e+03 +2.0294311069930438e+05 -3.8195006678551927e+07 
+9.0000000000000002e-01 -5.2268666634559313e-01 +6.8491530656385482e+00 +4.7134433521732273e+00 -8.8432263024314992e+01 +6.7864125438329120e+03 +2.0591433131799605e+05 -3.7777166534704335e+07 
+9.4999999999999996e-01 -5.2269035424111077e-01 +6.8493879902532502e+00 +4.7102892497668893e+00 -8.8693476926666506e+01 +6.7244934157924363e+03 +2.0887060119333165e+05 -3.7351710960632116e+07 
+1.0000000000000000e+00 -5.2269440635266995e-01 +6.8496424774514715e+00 +4.7067471098174707e+00 -8.8949685043692838e+01 +6.6613825348207783e+03 +2.1180792051028748e+05 -3.6919532406470984e+07 
+1.0500000000000000e+00 -5.2269882218358943e-01 +6.8499164838910849e+00 +4.7028182814913073e+00 -8.9200574718033423e+01 +6.5971673307893980e+03 +2.1472228802660835e+05 -3.6481522130013160e+07 
+1.1000000000000001e+00 -5.2270360123711435e-01 +6.8502099662316356e+00 +4.6985041115545139e+00 -8.9445833334668094e+01 +6.5319352968467847e+03 +2.1760970288200441e+05 -3.6038571813847832e+07 
+1.1499999999999999e+00 -5.2270874301663173e-01 +6.8505228811333625e+00 +4.6938059471932867e+00 -8.9685148282612957e+01 +6.4657739135777711e+03 +2.2046616425090574e+05 -3.5591573049833357e+07 
+1.2000000000000000e+00 -5.2271424702541802e-01 +6.8508551852585082e+00 +4.6887251348919134e+00 -8.9918207013332619e+01 +6.3987706836249263e+03 +2.2328767189394863e+05 -3.5141417590991281e+07 
+1.2500000000000000e+00 -5.2272011276681141e-01 +6.8512068352677673e+00 +4.6832630206359562e+00 -9.0144696875366222e+01 +6.3310131206621145e+03 +2.2607022468469827e+05 -3.4688997253133550e+07 
+1.3000000000000000e+00 -5.2272633974420235e-01 +6.8515777878231781e+00 +4.6774209524927928e+00 -9.0364305261531399e+01 +6.2625886835326555e+03 +2.2880982192916001e+05 -3.4235203488968611e+07 
+1.3500000000000001e+00 -5.2273292746095779e-01 +6.8519679995878437e+00 +4.6712002760329057e+00 -9.0576719584755395e+01 +6.1935848978458189e+03 +2.3150246313674707e+05 -3.3780928198132500e+07 
+1.3999999999999999e+00 -5.2273987542041433e-01 +6.8523774272245506e+00 +4.6646023373891969e+00 -9.0781627212481155e+01 +6.1240892745277852e+03 +2.3414414745687786e+05 -3.3327063182711922e+07 
+1.4500000000000000e+00 -5.2274718312603485e-01 +6.8528060273961220e+00 +4.6576284848744232e+00 -9.0978715498936566e+01 +6.0541892631957999e+03 +2.3673087396585598e+05 -3.2874499818919737e+07 
+1.5000000000000000e+00 -5.2275485008122946e-01 +6.8532537567668159e+00 +4.6502800630924348e+00 -9.1167671836579061e+01 +5.9839724189138615e+03 +2.3925864211785572e+05 -3.2424130216826811e+07 
+1.5500000000000000e+00 -5.2276287578940639e-01 +6.8537205720014889e+00 +4.6425584184255060e+00 -9.1348183614812939e+01 +5.9135262457067265e+03 +2.4172345135177358e+05 -3.1976846129865315e+07 
+1.6000000000000001e+00 -5.2277125975402072e-01 +6.8542064297639085e+00 +4.6344648980882068e+00 -9.1519938160282052e+01 +5.8429382248598040e+03 +2.4412130064860295e+05 -3.1533539151885189e+07 
+1.6499999999999999e+00 -5.2278000147855175e-01 +6.8547112867201259e+00 +4.6260008468531426e+00 -9.1682622874279303e+01 +5.7722959032387971e+03 +2.4644818964246579e+05 -3.1095101322602820e+07 
+1.7000000000000000e+00 -5.2278910046646176e-01 +6.8552350995345428e+00 +4.6171676120087852e+00 -9.1835925072084692e+01 +5.7016867642562938e+03 +2.4870011732730627e+05 -3.0662424264847070e+07 
+1.7500000000000000e+00 -5.2279855622126059e-01 +6.8557778248746315e+00 +4.6079665383224091e+00 -9.1979532165928035e+01 +5.6311983526446038e+03 +2.5087308349977774e+05 -3.0236399990790453e+07 
+1.8000000000000000e+00 -5.2280836824642718e-01 +6.8563394194060177e+00 +4.5983989708378008e+00 -9.2113131482976513e+01 +5.5609182126655041e+03 +2.5296308734988276e+05 -2.9817920535250131e+07 
+1.8500000000000001e+00 -5.2281853604549156e-01 +6.8569198397952471e+00 +4.5884662567162406e+00 -9.2236410367462554e+01 +5.4909338265902916e+03 +2.5496612825160442e+05 -2.9407877492781863e+07 
+1.8999999999999999e+00 -5.2282905912200961e-01 +6.8575190427086712e+00 +4.5781697404289092e+00 -9.2349056138251072e+01 +5.4213327532269896e+03 +2.5687820541986584e+05 -2.9007162989434887e+07 
+1.9500000000000000e+00 -5.2283993697950526e-01 +6.8581369848168796e+00 +4.5675107670988000e+00 -9.2450756264572803e+01 +5.3522025312865362e+03 +2.5869531935967915e+05 -2.8616669004448388e+07 
+2.0000000000000000e+00 -5.2285116912157625e-01 +6.8587736227825440e+00 +4.5564906832846006e+00 -9.2541197883155220e+01 +5.2836306640724870e+03 +2.6041346792792613e+05 -2.8237287287907917e+07 
+2.0499999999999998e+00 -5.2286275482924083e-01 +6.8594288936902670e+00 +4.5451107322321693e+00 -9.2620003353366840e+01 +5.2156939912404587e+03 +2.6202872818194274e+05 -2.7869726984056700e+07 
+2.1000000000000001e+00 -5.2287469249099117e-01 +6.8601026556116578e+00 +4.5333720431500293e+00 -9.2686485719734733e+01 +5.1484217750708794e+03 +2.6353695435910637e+05 -2.7513946547086675e+07 
+2.1499999999999999e+00 -5.2288698027160130e-01 +6.8607947439063777e+00 +4.5212759498550659e+00 -9.2739873117851047e+01 +5.0818303655471291e+03 +2.6493381669451756e+05 -2.7169712423091974e+07 
+2.2000000000000002e+00 -5.2289961633592896e-01 +6.8615049939345782e+00 +4.5088237899261223e+00 -9.2779393688447769e+01 +5.0159360090984283e+03 +2.6621498542777193e+05 -2.6836790346559584e+07 
+2.2500000000000000e+00 -5.2291259884876073e-01 +6.8622332410561251e+00 +4.4960168994936796e+00 -9.2804275534929928e+01 +4.9507549919447047e+03 +2.6737613047314796e+05 -2.6514946324229430e+07 
+2.2999999999999998e+00 -5.2292592597490517e-01 +6.8629793206329976e+00 +4.4828566121973852e+00 -9.2813746842428529e+01 +4.8863036648874613e+03 +2.6841292245301395e+05 -2.6203946788268585e+07 
+2.3500000000000001e+00 -5.2293959587917904e-01 +6.8637430680255971e+00 +4.4693442652890223e+00 -9.2807035699300940e+01 +4.8225982810702708e+03 +2.6932103111502260e+05 -2.5903557508037999e+07 
+2.3999999999999999e+00 -5.2295360672644442e-01 +6.8645243185967502e+00 +4.4554811937624619e+00 -9.2783370285760768e+01 +4.7596551532688927e+03 +2.7009612698515755e+05 -2.5613544656495124e+07 
+2.4500000000000002e+00 -5.2296795668152851e-01 +6.8653229077066058e+00 +4.4412687327558773e+00 -9.2741978656801976e+01 +4.6974905877613483e+03 +2.7073387955027167e+05 -2.5333674344679125e+07 
+2.5000000000000000e+00 -5.2298264390934879e-01 +6.8661386707209990e+00 +4.4267082185488222e+00 -9.2682089083664110e+01 +4.6361208607759345e+03 +2.7122996003317001e+05 -2.5063712487636864e+07 
+2.5499999999999998e+00 -5.2299766657468583e-01 +6.8669714430015789e+00 +4.4118009836339613e+00 -9.2602929635681534e+01 +4.5755623454222768e+03 +2.7158003795448662e+05 -2.4803425634438191e+07 
+2.6000000000000001e+00 -5.2301302284251616e-01 +6.8678210599131519e+00 +4.3965483661823281e+00 -9.2503728520479470e+01 +4.5158312655675873e+03 +2.7177978400670807e+05 -2.4552579337592930e+07 
+2.6499999999999999e+00 -5.2302871087768232e-01 +6.8686873568195663e+00 +4.3809516970650551e+00 -9.2383713877155799e+01 +4.4569440372526469e+03 +2.7182486825396458e+05 -2.4310940432320710e+07 
+2.7000000000000002e+00 -5.2304472884509701e-01 +6.8695701690861135e+00 +4.3650123137189585e+00 -9.2242113881293065e+01 +4.3989168949622444e+03 +2.7171096100831829e+05 -2.4078274510515559e+07 
+2.7500000000000000e+00 -5.2306107490966758e-01 +6.8704693320788639e+00 +4.3487315499953185e+00 -9.2078156743759394e+01 +4.3417661746683170e+03 +2.7143373289972858e+05 -2.3854347863808360e+07 
+2.7999999999999998e+00 -5.2307774723627876e-01 +6.8713846811629136e+00 +4.3321107391881633e+00 -9.1891070606918632e+01 +4.2855082207507567e+03 +2.7098885391985718e+05 -2.3638926817021035e+07 
+2.8500000000000001e+00 -5.2309474398989186e-01 +6.8723160517059805e+00 +4.3151512176317723e+00 -9.1680083711172713e+01 +4.2301592943304177e+03 +2.7037199483947875e+05 -2.3431777129047725e+07 
+2.8999999999999999e+00 -5.2311206333541704e-01 +6.8732632790738348e+00 +4.2978543150484914e+00 -9.1444424207085447e+01 +4.1757358367041188e+03 +2.6957882566755253e+05 -2.3232665781081405e+07 
+2.9500000000000002e+00 -5.2312970343781540e-01 +6.8742261986362232e+00 +4.2802213690574291e+00 -9.1183320388770156e+01 +4.1222540683527604e+03 +2.6860501754054864e+05 -2.3041358231234003e+07 
+3.0000000000000000e+00 -5.2314766246202760e-01 +6.8752046457596885e+00 +4.2622537119288335e+00 -9.0896000408025301e+01 +4.0697303561525778e+03 +2.6744624038339930e+05 -2.2857620936002795e+07 
+3.0499999999999998e+00 -5.2316593857297755e-01 +6.8761984558129621e+00 +4.2439526757714594e+00 -9.0581692495500789e+01 +4.0181810686634403e+03 +2.6609816474017396e+05 -2.2681220351610024e+07 
+3.1000000000000001e+00 -5.2318452993566500e-01 +6.8772074641664611e+00 +4.2253195961443497e+00 -9.0239624934517337e+01 +3.9676224785077657e+03 +2.6455646152520704e+05 -2.2511922277092159e+07 
+3.1499999999999999e+00 -5.2320343471505104e-01 +6.8782315061888344e+00 +4.2063558048156011e+00 -8.9869025928674219e+01 +3.9180709556098996e+03 +2.6281680096790241e+05 -2.2349493146362524e+07 
+3.2000000000000002e+00 -5.2322265107611798e-01 +6.8792704172510133e+00 +4.1870626352262654e+00 -8.9469123758489559e+01 +3.8695428304536226e+03 +2.6087485386383871e+05 -2.2193699149955127e+07 
+3.2500000000000000e+00 -5.2324217718381372e-01 +6.8803240327238164e+00 +4.1674414186384485e+00 -8.9039146693446369e+01 +3.8220544834946022e+03 +2.5872629088662608e+05 -2.2044306783434905e+07 
+3.2999999999999998e+00 -5.2326201120316085e-01 +6.8813921879785127e+00 +4.1474934890911772e+00 -8.8578323005220426e+01 +3.7756222177341033e+03 +2.5636678265521661e+05 -2.1901082005225029e+07 
+3.3500000000000001e+00 -5.2328215129917599e-01 +6.8824747183878081e+00 +4.1272201783894609e+00 -8.8085881015119199e+01 +3.7302623957745664e+03 +2.5379200013775489e+05 -2.1763791177624512e+07 
+3.3999999999999999e+00 -5.2330259563681170e-01 +6.8835714593223631e+00 +4.1066228187516165e+00 -8.7561048950592323e+01 +3.6859913684863068e+03 +2.5099761349923178e+05 -2.1632200579487476e+07 
+3.4500000000000002e+00 -5.2332334238108091e-01 +6.8846822461568467e+00 +4.0857027432051227e+00 -8.7003055191803682e+01 +3.6428254598943149e+03 +2.4797929407633698e+05 -2.1506076286631171e+07 
+3.5000000000000000e+00 -5.2334438969700070e-01 +6.8858069142642577e+00 +4.0644612803166984e+00 -8.6411128045283476e+01 +3.6007811108271976e+03 +2.4473271255883161e+05 -2.1385185155027188e+07 
+3.5499999999999998e+00 -5.2336573574960732e-01 +6.8869452990195459e+00 +4.0428997647883484e+00 -8.5784495883402286e+01 +3.5598745972582069e+03 +2.4125354009890134e+05 -2.1269292924835730e+07 
+3.6000000000000001e+00 -5.2338737870391416e-01 +6.8880972357950894e+00 +4.0210195265514797e+00 -8.5122386963531028e+01 +3.5201223179501426e+03 +2.3753744684258639e+05 -2.1158166144404672e+07 
+3.6499999999999999e+00 -5.2340931672494628e-01 +6.8892625599680901e+00 +3.9988218964107998e+00 -8.4424029733104476e+01 +3.4815406466705890e+03 +2.3358010442384280e+05 -2.1051571187397331e+07 
+3.6999999999999900e+00 -5.2343154797771041e-01 +6.8904411069146203e+00 +3.9763082054652998e+00 -8.3688652582140719e+01 +3.4441459475867205e+03 +2.2937718393962050e+05 -2.0949274357069891e+07 
+3.7499999999999898e+00 -5.2345407062729854e-01 +6.8916327120096925e+00 +3.9534797854392560e+00 -8.2915483859357678e+01 +3.4079545638088180e+03 +2.2492435610033196e+05 -2.0851041795829076e+07 
+3.7999999999999901e+00 -5.2347688283869254e-01 +6.8928372106304447e+00 +3.9303379658427877e+00 -8.2103751974386626e+01 +3.3729828927957010e+03 +2.2021729198657270e+05 -2.0756639993673395e+07 
+3.8499999999999899e+00 -5.2349998277699583e-01 +6.8940544381532352e+00 +3.9068840783873422e+00 -8.1252685314682296e+01 +3.3392472750307516e+03 +2.1525166247803112e+05 -2.0665835064371493e+07 
+3.8999999999999901e+00 -5.2352336860716664e-01 +6.8952842299574577e+00 +3.8831194511336897e+00 -8.0361512371987985e+01 +3.3067641423023388e+03 +2.1002313920445959e+05 -2.0578393712981198e+07 
+3.9499999999999900e+00 -5.2354703849433892e-01 +6.8965264214210071e+00 +3.8590454153776390e+00 -7.9429461575642293e+01 +3.2755498358875370e+03 +2.0452739319119044e+05 -2.0494082016578551e+07 
+3.9999999999999898e+00 -5.2357099060351198e-01 +6.8977808479236211e+00 +3.8346632999530956e+00 -7.8455761419728489e+01 +3.2456207651282748e+03 +1.9876009595289320e+05 -2.0412666519897077e+07 
+4.0499999999999901e+00 -5.2359522295231486e-01 +6.8990473516936790e+00 +3.8099747591177207e+00 -7.7440068704743851e+01 +3.2169961041913616e+03 +1.9271956737179196e+05 -2.0334006224312451e+07 
+4.0999999999999899e+00 -5.2361973296859532e-01 +6.9003257950705734e+00 +3.7849824762370208e+00 -7.6383815399600223e+01 +3.1897280735635190e+03 +1.8641540874886105e+05 -2.0258467182593111e+07 
+4.1499999999999897e+00 -5.2364451793290290e-01 +6.9016160436420986e+00 +3.7596893462465268e+00 -7.5288895621961373e+01 +3.1638828929451138e+03 +1.7986021783739974e+05 -2.0186578913335942e+07 
+4.1999999999999904e+00 -5.2366957512575063e-01 +6.9029179629951356e+00 +3.7340982659818032e+00 -7.4157203467449392e+01 +3.1395267369999028e+03 +1.7306659213434087e+05 -2.0118870645217083e+07 
+4.2499999999999902e+00 -5.2369490182771117e-01 +6.9042314187187124e+00 +3.7082121297022455e+00 -7.2990633129620619e+01 +3.1167258442969860e+03 +1.6604712995793539e+05 -2.0055872017495599e+07 
+4.2999999999999901e+00 -5.2372049531928300e-01 +6.9055562764009899e+00 +3.6820338352134239e+00 -7.1791078761672679e+01 +3.0955463680297776e+03 +1.5881442927672775e+05 -1.9998112133794058e+07 
+4.3499999999999899e+00 -5.2374635288102678e-01 +6.9068924016292561e+00 +3.6555662779688425e+00 -7.0560434502515292e+01 +3.0760545242884805e+03 +1.5138108800396093e+05 -1.9946120522937972e+07 
+4.3999999999999897e+00 -5.2377247179349151e-01 +6.9082396599929785e+00 +3.6288123552986491e+00 -6.9300594576977005e+01 +3.0583164814260158e+03 +1.4375970473111980e+05 -1.9900426400589816e+07 
+4.4499999999999904e+00 -5.2379884933719989e-01 +6.9095979170800472e+00 +3.6017749644996204e+00 -6.8013453159286357e+01 +3.0423984076960496e+03 +1.3596287767526534e+05 -1.9861558981499892e+07 
+4.4999999999999902e+00 -5.2382548279272267e-01 +6.9109670384789190e+00 +3.5744570018266102e+00 -6.6700904455977295e+01 +3.0283665072859635e+03 +1.2800320532543879e+05 -1.9830047754119746e+07 
+4.5499999999999901e+00 -5.2385236944062352e-01 +6.9123468897781946e+00 +3.5468613664888693e+00 -6.5364842694683034e+01 +3.0162869061038696e+03 +1.1989328639105415e+05 -1.9806421683640063e+07 
+4.5999999999999899e+00 -5.2387950656147086e-01 +6.9137373365660064e+00 +3.5189909542933724e+00 -6.4007162081915283e+01 +3.0062258229015215e+03 +1.1164571937025704e+05 -1.9791210370004736e+07 
+4.6499999999999897e+00 -5.2390689143575941e-01 +6.9151382444311498e+00 +3.4908486655418449e+00 -6.2629756868474644e+01 +2.9982493582094689e+03 +1.0327310318949731e+05 -1.9784942625233110e+07 
+4.6999999999999904e+00 -5.2393452134411411e-01 +6.9165494789624775e+00 +3.4624373969372972e+00 -6.1234521326330523e+01 +2.9924237128267264e+03 +9.4788036966617554e+04 -1.9788147952676177e+07 
+4.7499999999999902e+00 -5.2396239356705576e-01 +6.9179709057489198e+00 +3.4337600486083391e+00 -5.9823349729489259e+01 +2.9888150016070085e+03 +8.6203119829376403e+04 -1.9801355304689821e+07 
+4.7999999999999901e+00 -5.2399050538520042e-01 +6.9194023903785222e+00 +3.4048195202838540e+00 -5.8398136346725920e+01 +2.9874893494453036e+03 +7.7530950938279479e+04 -1.9825093696670648e+07 
+4.8499999999999899e+00 -5.2401885407902971e-01 +6.9208437984402815e+00 +3.3756187099714619e+00 -5.6960775475217929e+01 +2.9885129308473875e+03 +6.8784129636463040e+04 -1.9859892493301030e+07 
+4.8999999999999897e+00 -5.2404743692919453e-01 +6.9222949955227246e+00 +3.3461605189849433e+00 -5.5513161435119315e+01 +2.9919518364899145e+03 +5.9975255562740131e+04 -1.9906280515557047e+07 
+4.9499999999999904e+00 -5.2407625121623913e-01 +6.9237558472145446e+00 +3.3164478477856365e+00 -5.4057188543673064e+01 +2.9978721836509112e+03 +5.1116928281867949e+04 -1.9964786780167855e+07 
+4.9999999999999902e+00 -5.2410529422070362e-01 +6.9252262191045695e+00 +3.2864835961662009e+00 -5.2594751157294674e+01 +3.0063401131680444e+03 +4.2221747772473514e+04 -2.0035940486133311e+07 
+5.0499999999999901e+00 -5.2413456322541441e-01 +6.9267059692541766e+00 +3.2562710487249920e+00 -5.1127751196666573e+01 +3.0174220184777373e+03 +3.3302312929191074e+04 -2.0120272251994006e+07 
