# field on trajectory
# s[mm] rx[mm] ry[mm] rz[mm] bx[T] by[T] bz[T]
-0.0000000000000000e+00 +8.5270000000000206e+00 +0.0000000000000000e+00 -0.0000000000000000e+00 -2.8540933018764390e-02 -5.5100212091255574e-01 +5.1799285242327296e-03
-5.0000000000000003e-02 +8.5269999309457507e+00 +0.0000000000000000e+00 -4.9999999999936401e-02 -2.8540611950593920e-02 -5.5100267878499376e-01 +5.1818253623598766e-03
-1.0000000000000001e-01 +8.5269997237846802e+00 +0.0000000000000000e+00 -9.9999999999491399e-02 -2.8540314048749762e-02 -5.5100359297497714e-01 +5.1837279055292583e-03
-1.4999999999999999e-01 +8.5269993785186706e+00 +0.0000000000000000e+00 -1.4999999999828301e-01 -2.8540039205644595e-02 -5.5100486281622119e-01 +5.1856360382490510e-03
-2.0000000000000001e-01 +8.5269988951477007e+00 +0.0000000000000000e+00 -1.9999999999593099e-01 -2.8539787313693669e-02 -5.5100648764247073e-01 +5.1875496450277158e-03
-2.5000000000000000e-01 +8.5269982736681396e+00 +0.0000000000000000e+00 -2.4999999999205300e-01 -2.8539558265315460e-02 -5.5100846678751181e-01 +5.1894686103741193e-03
-2.9999999999999999e-01 +8.5269975140799907e+00 +0.0000000000000000e+00 -2.9999999998626697e-01 -2.8539351952928803e-02 -5.5101079958512156e-01 +5.1913928187970497e-03
-3.4999999999999998e-01 +8.5269966163905302e+00 +0.0000000000000000e+00 -3.4999999997819298e-01 -2.8539168268951459e-02 -5.5101348536904005e-01 +5.1933221548049763e-03
-4.0000000000000002e-01 +8.5269955805888493e+00 +0.0000000000000000e+00 -3.9999999996744801e-01 -2.8539007105809932e-02 -5.5101652347315500e-01 +5.1952565029077065e-03
-4.5000000000000001e-01 +8.5269944066858407e+00 +0.0000000000000000e+00 -4.4999999995365197e-01 -2.8538868355923858e-02 -5.5101991323121158e-01 +5.1971957476137538e-03
-5.0000000000000000e-01 +8.5269930946742498e+00 +0.0000000000000000e+00 -4.9999999993642202e-01 -2.8538751911721571e-02 -5.5102365397710318e-01 +5.1991397734329654e-03
-5.5000000000000004e-01 +8.5269916445577092e+00 +0.0000000000000000e+00 -5.4999999991537796e-01 -2.8538657665628669e-02 -5.5102774504465890e-01 +5.2010884648746002e-03
-5.9999999999999998e-01 +8.5269900563289394e+00 +0.0000000000000000e+00 -5.9999999989013697e-01 -2.8538585510076566e-02 -5.5103218576780377e-01 +5.2030417064487669e-03
-6.5000000000000002e-01 +8.5269883299988596e+00 +0.0000000000000000e+00 -6.4999999986031898e-01 -2.8538535337490945e-02 -5.5103697548034580e-01 +5.2049993826644783e-03
-6.9999999999999996e-01 +8.5269864655601904e+00 +0.0000000000000000e+00 -6.9999999982554195e-01 -2.8538507040306034e-02 -5.5104211351624044e-01 +5.2069613780320713e-03
-7.5000000000000000e-01 +8.5269844630165608e+00 +0.0000000000000000e+00 -7.4999999978542398e-01 -2.8538500510953160e-02 -5.5104759920937973e-01 +5.2089275770612672e-03
-8.0000000000000004e-01 +8.5269823223679904e+00 +0.0000000000000000e+00 -7.9999999973958402e-01 -2.8538515641866387e-02 -5.5105343189369727e-01 +5.2108978642621175e-03
-8.4999999999999998e-01 +8.5269800436108198e+00 +0.0000000000000000e+00 -8.4999999968764095e-01 -2.8538552325482469e-02 -5.5105961090316835e-01 +5.2128721241450219e-03
-9.0000000000000002e-01 +8.5269776267450705e+00 +0.0000000000000000e+00 -8.9999999962921295e-01 -2.8538610454237931e-02 -5.5106613557175776e-01 +5.2148502412202235e-03
-9.4999999999999996e-01 +8.5269750717743609e+00 +0.0000000000000000e+00 -9.4999999956391801e-01 -2.8538689920569071e-02 -5.5107300523341729e-01 +5.2168320999978011e-03
-1.0000000000000000e+00 +8.5269723786986997e+00 +0.0000000000000000e+00 -9.9999999949137597e-01 -2.8538790616914712e-02 -5.5108021922214256e-01 +5.2188175849881514e-03
-1.0500000000000000e+00 +8.5269695475144491e+00 +0.0000000000000000e+00 -1.0499999994111999e+00 -2.8538912435716185e-02 -5.5108777687196875e-01 +5.2208065807019879e-03
-1.1000000000000001e+00 +8.5269665782288904e+00 +0.0000000000000000e+00 -1.0999999993230201e+00 -2.8539055269411629e-02 -5.5109567751686805e-01 +5.2227989716493624e-03
-1.1499999999999999e+00 +8.5269634708311095e+00 +0.0000000000000000e+00 -1.1499999992264500e+00 -2.8539219010447210e-02 -5.5110392049095880e-01 +5.2247946423415919e-03
-1.2000000000000000e+00 +8.5269602253283701e+00 +0.0000000000000000e+00 -1.1999999991210999e+00 -2.8539403551262964e-02 -5.5111250512824239e-01 +5.2267934772888373e-03
-1.2500000000000000e+00 +8.5269568417206791e+00 +0.0000000000000000e+00 -1.2499999990065900e+00 -2.8539608784302659e-02 -5.5112143076278775e-01 +5.2287953610017862e-03
-1.3000000000000000e+00 +8.5269533200044005e+00 +0.0000000000000000e+00 -1.2999999988825499e+00 -2.8539834602012325e-02 -5.5113069672870463e-01 +5.2308001779914157e-03
-1.3500000000000001e+00 +8.5269496601795307e+00 +0.0000000000000000e+00 -1.3499999987485900e+00 -2.8540080896837388e-02 -5.5114030236009171e-01 +5.2328078127684930e-03
-1.3999999999999999e+00 +8.5269458622533403e+00 +0.0000000000000000e+00 -1.3999999986043401e+00 -2.8540347561221150e-02 -5.5115024699100923e-01 +5.2348181498433170e-03
-1.4500000000000000e+00 +8.5269419262185693e+00 +0.0000000000000000e+00 -1.4499999984494001e+00 -2.8540634487613303e-02 -5.5116052995563636e-01 +5.2368310737271962e-03
-1.5000000000000000e+00 +8.5269378520752106e+00 +0.0000000000000000e+00 -1.4999999982833900e+00 -2.8540941568461400e-02 -5.5117115058811528e-01 +5.2388464689309610e-03
-1.5500000000000000e+00 +8.5269336398268898e+00 +0.0000000000000000e+00 -1.5499999981059500e+00 -2.8541268696212169e-02 -5.5118210822257518e-01 +5.2408642199652123e-03
-1.6000000000000001e+00 +8.5269292894736299e+00 +0.0000000000000000e+00 -1.5999999979166799e+00 -2.8541615763314279e-02 -5.5119340219318669e-01 +5.2428842113407918e-03
-1.6499999999999999e+00 +8.5269248010117700e+00 +0.0000000000000000e+00 -1.6499999977152000e+00 -2.8541982662218426e-02 -5.5120503183416081e-01 +5.2449063275687964e-03
-1.7000000000000000e+00 +8.5269201744449692e+00 +0.0000000000000000e+00 -1.6999999975011300e+00 -2.8542369285372838e-02 -5.5121699647966893e-01 +5.2469304531598104e-03
-1.7500000000000000e+00 +8.5269154097695701e+00 +0.0000000000000000e+00 -1.7499999972740901e+00 -2.8542775525229089e-02 -5.5122929546395061e-01 +5.2489564726249105e-03
-1.8000000000000000e+00 +8.5269105069892195e+00 +0.0000000000000000e+00 -1.7999999970336999e+00 -2.8543201274236259e-02 -5.5124192812120576e-01 +5.2509842704746542e-03
-1.8500000000000001e+00 +8.5269054661039299e+00 +0.0000000000000000e+00 -1.8499999967795799e+00 -2.8543646424845168e-02 -5.5125489378567460e-01 +5.2530137312198156e-03
-1.8999999999999999e+00 +8.5269002871100401e+00 +0.0000000000000000e+00 -1.8999999965113501e+00 -2.8544110869508400e-02 -5.5126819179163855e-01 +5.2550447393713970e-03
-1.9500000000000000e+00 +8.5268949700112007e+00 +0.0000000000000000e+00 -1.9499999962286201e+00 -2.8544594500675882e-02 -5.5128182147333860e-01 +5.2570771794398568e-03
-2.0000000000000000e+00 +8.5268895148037700e+00 +0.0000000000000000e+00 -1.9999999959310100e+00 -2.8545097210800598e-02 -5.5129578216508346e-01 +5.2591109359361099e-03
-2.0499999999999998e+00 +8.5268839213858900e+00 +0.0000000000000000e+00 -2.0499999956181298e+00 -2.8545618897463477e-02 -5.5131007297729051e-01 +5.2611458961697201e-03
-2.1000000000000001e+00 +8.5268781896593300e+00 +0.0000000000000000e+00 -2.0999999952895898e+00 -2.8546159478600942e-02 -5.5132469212189339e-01 +5.2631819586177039e-03
-2.1499999999999999e+00 +8.5268723196240899e+00 +0.0000000000000000e+00 -2.1499999949449999e+00 -2.8546718877199867e-02 -5.5133963758550575e-01 +5.2652190245420210e-03
-2.2000000000000002e+00 +8.5268663112729008e+00 +0.0000000000000000e+00 -2.1999999945839801e+00 -2.8547297016249879e-02 -5.5135490735480441e-01 +5.2672569952048262e-03
-2.2500000000000000e+00 +8.5268601646093902e+00 +0.0000000000000000e+00 -2.2499999942061502e+00 -2.8547893818736091e-02 -5.5137049941639826e-01 +5.2692957718671867e-03
-2.2999999999999998e+00 +8.5268538796335598e+00 +0.0000000000000000e+00 -2.2999999938111202e+00 -2.8548509207644721e-02 -5.5138641175693182e-01 +5.2713352557900647e-03
-2.3500000000000001e+00 +8.5268474563490599e+00 +0.0000000000000000e+00 -2.3499999933985198e+00 -2.8549143105960274e-02 -5.5140264236303460e-01 +5.2733753482338032e-03
-2.3999999999999999e+00 +8.5268408947522403e+00 +0.0000000000000000e+00 -2.3999999929679601e+00 -2.8549795436669755e-02 -5.5141918922139854e-01 +5.2754159504588569e-03
-2.4500000000000002e+00 +8.5268341948467405e+00 +0.0000000000000000e+00 -2.4499999925190501e+00 -2.8550466122756787e-02 -5.5143605031867249e-01 +5.2774569637247699e-03
-2.5000000000000000e+00 +8.5268273566252901e+00 +0.0000000000000000e+00 -2.4999999920514302e+00 -2.8551155087208860e-02 -5.5145322364159410e-01 +5.2794982892914021e-03
-2.5499999999999998e+00 +8.5268203800987994e+00 +0.0000000000000000e+00 -2.5499999915646900e+00 -2.8551862253005728e-02 -5.5147070717677815e-01 +5.2815398284169089e-03
-2.6000000000000001e+00 +8.5268132652563509e+00 +0.0000000000000000e+00 -2.5999999910584699e+00 -2.8552587543135111e-02 -5.5148849891100771e-01 +5.2835814823604926e-03
-2.6499999999999999e+00 +8.5268060121015896e+00 +0.0000000000000000e+00 -2.6499999905323701e+00 -2.8553330880578390e-02 -5.5150659683096870e-01 +5.2856231523798515e-03
-2.7000000000000002e+00 +8.5267986206345103e+00 +0.0000000000000000e+00 -2.6999999899860101e+00 -2.8554092188317570e-02 -5.5152499892338192e-01 +5.2876647397324264e-03
-2.7500000000000000e+00 +8.5267910908551094e+00 +0.0000000000000000e+00 -2.7499999894190199e+00 -2.8554871389333974e-02 -5.5154370317497703e-01 +5.2897061456751394e-03
-2.7999999999999998e+00 +8.5267834227670392e+00 +0.0000000000000000e+00 -2.7999999888310101e+00 -2.8555668406606571e-02 -5.5156270757246517e-01 +5.2917472714640911e-03
-2.8500000000000001e+00 +8.5267756163666508e+00 +0.0000000000000000e+00 -2.8499999882215898e+00 -2.8556483163116351e-02 -5.5158201010261920e-01 +5.2937880183553431e-03
-2.8999999999999999e+00 +8.5267676716539391e+00 +0.0000000000000000e+00 -2.8999999875903901e+00 -2.8557315581841960e-02 -5.5160160875219233e-01 +5.2958282876041035e-03
-2.9500000000000002e+00 +8.5267595886289200e+00 +0.0000000000000000e+00 -2.9499999869370299e+00 -2.8558165585760957e-02 -5.5162150150794664e-01 +5.2978679804649778e-03
-3.0000000000000000e+00 +8.5267513672915793e+00 +0.0000000000000000e+00 -2.9999999862611100e+00 -2.8559033097849906e-02 -5.5164168635665067e-01 +5.2999069981919389e-03
-3.0499999999999998e+00 +8.5267430076455604e+00 +0.0000000000000000e+00 -3.0499999855622502e+00 -2.8559918041082825e-02 -5.5166216128505408e-01 +5.3019452420380647e-03
-3.1000000000000001e+00 +8.5267345096872305e+00 +0.0000000000000000e+00 -3.0999999848400801e+00 -2.8560820338435385e-02 -5.5168292427996612e-01 +5.3039826132562752e-03
-3.1499999999999999e+00 +8.5267258734165807e+00 +0.0000000000000000e+00 -3.1499999840942201e+00 -2.8561739912880638e-02 -5.5170397332817733e-01 +5.3060190130985469e-03
-3.2000000000000002e+00 +8.5267170988336094e+00 +0.0000000000000000e+00 -3.1999999833242700e+00 -2.8562676687390334e-02 -5.5172530641648398e-01 +5.3080543428161544e-03
-3.2500000000000000e+00 +8.5267081859419704e+00 +0.0000000000000000e+00 -3.2499999825298600e+00 -2.8563630584933448e-02 -5.5174692153166205e-01 +5.3100885036593886e-03
-3.2999999999999998e+00 +8.5266991347380099e+00 +0.0000000000000000e+00 -3.2999999817106000e+00 -2.8564601528480470e-02 -5.5176881666054800e-01 +5.3121213968783110e-03
-3.3500000000000001e+00 +8.5266899452181004e+00 +0.0000000000000000e+00 -3.3499999808661101e+00 -2.8565589441000367e-02 -5.5179098978998209e-01 +5.3141529237222176e-03
-3.3999999999999999e+00 +8.5266806173895002e+00 +0.0000000000000000e+00 -3.3999999799960099e+00 -2.8566594245456361e-02 -5.5181343890673307e-01 +5.3161829854388503e-03
-3.4500000000000002e+00 +8.5266711512522306e+00 +0.0000000000000000e+00 -3.4499999790999101e+00 -2.8567615864812969e-02 -5.5183616199762653e-01 +5.3182114832756597e-03
-3.5000000000000000e+00 +8.5266615468026394e+00 +0.0000000000000000e+00 -3.4999999781774398e+00 -2.8568654222034480e-02 -5.5185915704952082e-01 +5.3202383184795324e-03
-3.5499999999999998e+00 +8.5266518040407409e+00 +0.0000000000000000e+00 -3.5499999772282100e+00 -2.8569709240082133e-02 -5.5188242204925197e-01 +5.3222633922962552e-03
-3.6000000000000001e+00 +8.5266419229665207e+00 +0.0000000000000000e+00 -3.5999999762518402e+00 -2.8570780841915399e-02 -5.5190595498366246e-01 +5.3242866059707520e-03
-3.6499999999999999e+00 +8.5266319035799807e+00 +0.0000000000000000e+00 -3.6499999752479400e+00 -2.8571868950491977e-02 -5.5192975383959730e-01 +5.3263078607470645e-03
-3.6999999999999900e+00 +8.5266217458847695e+00 +0.0000000000000000e+00 -3.6999999742161398e+00 -2.8572973488766275e-02 -5.5195381660388121e-01 +5.3283270578680713e-03
-3.7499999999999898e+00 +8.5266114498736005e+00 +0.0000000000000000e+00 -3.7499999731560498e+00 -2.8574094379695155e-02 -5.5197814126342215e-01 +5.3303440985765166e-03
-3.7999999999999901e+00 +8.5266010155537497e+00 +0.0000000000000000e+00 -3.7999999720672801e+00 -2.8575231546227708e-02 -5.5200272580502541e-01 +5.3323588841131548e-03
-3.8499999999999899e+00 +8.5265904429179500e+00 +0.0000000000000000e+00 -3.8499999709494599e+00 -2.8576384911316831e-02 -5.5202756821560706e-01 +5.3343713157188227e-03
-3.8999999999999901e+00 +8.5265797319771099e+00 +0.0000000000000000e+00 -3.8999999698022001e+00 -2.8577554397906095e-02 -5.5205266648195306e-01 +5.3363812946320760e-03
-3.9499999999999900e+00 +8.5265688827203103e+00 +0.0000000000000000e+00 -3.9499999686251202e+00 -2.8578739928945662e-02 -5.5207801859101358e-01 +5.3383887220920393e-03
-3.9999999999999898e+00 +8.5265578951548395e+00 +0.0000000000000000e+00 -3.9999999674178399e+00 -2.8579941427376236e-02 -5.5210362252960787e-01 +5.3403934993355058e-03
-4.0499999999999901e+00 +8.5265467692734092e+00 +0.0000000000000000e+00 -4.0499999661799704e+00 -2.8581158804828869e-02 -5.5212947617666475e-01 +5.3423955370527120e-03
-4.0999999999999899e+00 +8.5265355050833005e+00 +0.0000000000000000e+00 -4.0999999649111301e+00 -2.8582391927674845e-02 -5.5215557697901196e-01 +5.3443947837459507e-03
-4.1499999999999897e+00 +8.5265241025808791e+00 +0.0000000000000000e+00 -4.1499999636109504e+00 -2.8583640650978029e-02 -5.5218192227555496e-01 +5.3463911973716761e-03
-4.1999999999999904e+00 +8.5265125617697795e+00 +0.0000000000000000e+00 -4.1999999622790298e+00 -2.8584904829801319e-02 -5.5220850940514854e-01 +5.3483847358858231e-03
-4.2499999999999902e+00 +8.5265008826427202e+00 +0.0000000000000000e+00 -4.2499999609149901e+00 -2.8586184319213968e-02 -5.5223533570672600e-01 +5.3503753572451277e-03
-4.2999999999999901e+00 +8.5264890652069898e+00 +0.0000000000000000e+00 -4.2999999595184599e+00 -2.8587478974281554e-02 -5.5226239851911418e-01 +5.3523630194053009e-03
-4.3499999999999899e+00 +8.5264771094589396e+00 +0.0000000000000000e+00 -4.3499999580890396e+00 -2.8588788650076125e-02 -5.5228969518121851e-01 +5.3543476803228889e-03
-4.3999999999999897e+00 +8.5264650153985695e+00 +0.0000000000000000e+00 -4.3999999566263703e+00 -2.8590113201670517e-02 -5.5231722303191766e-01 +5.3563292979542211e-03
-4.4499999999999904e+00 +8.5264527830295300e+00 +0.0000000000000000e+00 -4.4499999551300400e+00 -2.8591452484138424e-02 -5.5234497941006189e-01 +5.3583078302554344e-03
-4.4999999999999902e+00 +8.5264404123481707e+00 +0.0000000000000000e+00 -4.4999999535996897e+00 -2.8592806352558807e-02 -5.5237296165455352e-01 +5.3602832351832717e-03
-4.5499999999999901e+00 +8.5264279033544899e+00 +0.0000000000000000e+00 -4.5499999520349199e+00 -2.8594174662011612e-02 -5.5240116710426557e-01 +5.3622554706943088e-03
-4.5999999999999899e+00 +8.5264152560448601e+00 +0.0000000000000000e+00 -4.5999999504353601e+00 -2.8595557267580743e-02 -5.5242959309809703e-01 +5.3642244947454789e-03
-4.6499999999999897e+00 +8.5264024704301793e+00 +0.0000000000000000e+00 -4.6499999488006196e+00 -2.8596954024346945e-02 -5.5245823697483709e-01 +5.3661902652927876e-03
-4.6999999999999904e+00 +8.5263895464995603e+00 +0.0000000000000000e+00 -4.6999999471303298e+00 -2.8598364787402242e-02 -5.5248709607343183e-01 +5.3681527402939487e-03
-4.7499999999999902e+00 +8.5263764842602505e+00 +0.0000000000000000e+00 -4.7499999454240900e+00 -2.8599789411834210e-02 -5.5251616773269197e-01 +5.3701118777054963e-03
-4.7999999999999901e+00 +8.5263632837050007e+00 +0.0000000000000000e+00 -4.7999999436815299e+00 -2.8601227752738975e-02 -5.5254544929153160e-01 +5.3720676354851917e-03
-4.8499999999999899e+00 +8.5263499448447000e+00 +0.0000000000000000e+00 -4.8499999419022597e+00 -2.8602679665208346e-02 -5.5257493808872726e-01 +5.3740199715896202e-03
-4.8999999999999897e+00 +8.5263364676684397e+00 +0.0000000000000000e+00 -4.8999999400859000e+00 -2.8604145004345709e-02 -5.5260463146321270e-01 +5.3759688439771573e-03
-4.9499999999999904e+00 +8.5263228521798702e+00 +0.0000000000000000e+00 -4.9499999382320699e+00 -2.8605623625251701e-02 -5.5263452675381031e-01 +5.3779142106052972e-03
-4.9999999999999902e+00 +8.5263090983826295e+00 +0.0000000000000000e+00 -4.9999999363403900e+00 -2.8607115383030068e-02 -5.5266462129933824e-01 +5.3798560294317493e-03
-5.0499999999999901e+00 +8.5262952059529198e+00 +0.0000000000000000e+00 -5.0499999344103799e+00 -2.8608620132917654e-02 -5.5269491244101376e-01 +5.3817942584385063e-03
-5.0999999999999899e+00 +8.5262811745706095e+00 +0.0000000000000000e+00 -5.0999999324415599e+00 -2.8610137730153185e-02 -5.5272539752002292e-01 +5.3837288556076038e-03
-5.1499999999999897e+00 +8.5262670042357094e+00 +0.0000000000000000e+00 -5.1499999304335597e+00 -2.8611668029851656e-02 -5.5275607387519987e-01 +5.3856597788978482e-03
-5.1999999999999904e+00 +8.5262526949518396e+00 +0.0000000000000000e+00 -5.1999999283859903e+00 -2.8613210887130012e-02 -5.5278693884534580e-01 +5.3875869862680262e-03
-5.2499999999999902e+00 +8.5262382467153692e+00 +0.0000000000000000e+00 -5.2499999262984600e+00 -2.8614766157111525e-02 -5.5281798976930996e-01 +5.3895104356777336e-03
-5.2999999999999901e+00 +8.5262236595299292e+00 +0.0000000000000000e+00 -5.2999999241705797e+00 -2.8616333694920094e-02 -5.5284922398588143e-01 +5.3914300850863104e-03
-5.3499999999999899e+00 +8.5262089333882596e+00 +0.0000000000000000e+00 -5.3499999220019703e+00 -2.8617913355687578e-02 -5.5288063883392446e-01 +5.3933458924541955e-03
-5.3999999999999897e+00 +8.5261940682976292e+00 +0.0000000000000000e+00 -5.3999999197922497e+00 -2.8619504994543701e-02 -5.5291223165218928e-01 +5.3952578157410646e-03
-5.4499999999999904e+00 +8.5261790642507496e+00 +0.0000000000000000e+00 -5.4499999175410201e+00 -2.8621108466627687e-02 -5.5294399977952535e-01 +5.3971658129079838e-03
-5.4999999999999902e+00 +8.5261639212585596e+00 +0.0000000000000000e+00 -5.4999999152479004e+00 -2.8622723627075401e-02 -5.5297594055464372e-01 +5.3990698419150137e-03
-5.5499999999999901e+00 +8.5261486393137602e+00 +0.0000000000000000e+00 -5.5499999129125097e+00 -2.8624350331033770e-02 -5.5300805131637931e-01 +5.4009698607239013e-03
-5.5999999999999899e+00 +8.5261332184127205e+00 +0.0000000000000000e+00 -5.5999999105344500e+00 -2.8625988433652268e-02 -5.5304032940353454e-01 +5.4028658272964932e-03
-5.6499999999999897e+00 +8.5261176585627307e+00 +0.0000000000000000e+00 -5.6499999081133403e+00 -2.8627637790080027e-02 -5.5307277215482242e-01 +5.4047576995941817e-03
-5.6999999999999904e+00 +8.5261019597637606e+00 +0.0000000000000000e+00 -5.6999999056488004e+00 -2.8629298255473199e-02 -5.5310537690900197e-01 +5.4066454355792999e-03
-5.7499999999999902e+00 +8.5260861220122006e+00 +0.0000000000000000e+00 -5.7499999031404396e+00 -2.8630969684993506e-02 -5.5313814100485059e-01 +5.4085289932148404e-03
-5.7999999999999901e+00 +8.5260701453080401e+00 +0.0000000000000000e+00 -5.7999999005878804e+00 -2.8632651933805552e-02 -5.5317106178110953e-01 +5.4104083304639377e-03
-5.8499999999999899e+00 +8.5260540296512808e+00 +0.0000000000000000e+00 -5.8499998979907204e+00 -2.8634344857078192e-02 -5.5320413657651168e-01 +5.4122834052901482e-03
