# multipoles
# s[mm] polynom_b[n=0][T/m^n] polynom_b[n=1][T/m^n] polynom_b[n=2][T/m^n] polynom_b[n=3][T/m^n] polynom_b[n=4][T/m^n] polynom_b[n=5][T/m^n] polynom_b[n=6][T/m^n] 
+0.0000000000000000e+00 -5.2379304199829491e-01 +6.8835370801938058e+00 +4.5616466283476873e+00 -9.6181825259584841e+01 +6.9537797412027348e+03 +2.1719527393994614e+05 -5.0892672167288467e+07 
+5.0000000000000003e-02 -5.2379324274208239e-01 +6.8835284921385016e+00 +4.5589911923244495e+00 -9.6438972350021189e+01 +7.0079205958123830e+03 +2.1879757901892083e+05 -5.1154082714737684e+07 
+1.0000000000000001e-01 -5.2379379247432423e-01 +6.8835381933811135e+00 +4.5558634933965125e+00 -9.6668809168956045e+01 +7.0610553945118845e+03 +2.2025214947176076e+05 -5.1404428565077573e+07 
+1.5000000000000002e-01 -5.2379469067794227e-01 +6.8835661755869637e+00 +4.5522695939155504e+00 -9.6872524728031422e+01 +7.1131797061976113e+03 +2.2156643559316578e+05 -5.1643888018910967e+07 
+2.0000000000000001e-01 -5.2379593683586279e-01 +6.8836124304214001e+00 +4.5482155540892633e+00 -9.7051307995628306e+01 +7.1642891580511568e+03 +2.2274788725076820e+05 -5.1872639774364799e+07 
+2.5000000000000000e-01 -5.2379753043101562e-01 +6.8836769495517931e+00 +4.5437074320686994e+00 -9.7206348006691400e+01 +7.2143794289659445e+03 +2.2380395490084769e+05 -5.2090862863932297e+07 
+2.9999999999999999e-01 -5.2379947094636981e-01 +6.8837597246456088e+00 +4.5387512900008549e+00 -9.7338833761929223e+01 +7.2634460920460906e+03 +2.2474208867391144e+05 -5.2298735615152352e+07 
+3.4999999999999998e-01 -5.2380175786489769e-01 +6.8838607473677431e+00 +4.5333531877931819e+00 -9.7449954131764599e+01 +7.3114847792406827e+03 +2.2556973762620849e+05 -5.2496436746274062e+07 
+3.9999999999999997e-01 -5.2380439066958673e-01 +6.8839800093902932e+00 +4.5275191852920793e+00 -9.7540898243278903e+01 +7.3584911216265982e+03 +2.2629435287729622e+05 -5.2684144960865162e+07 
+4.4999999999999996e-01 -5.2380736884344670e-01 +6.8841175023815939e+00 +4.5212553431787335e+00 -9.7612855051772911e+01 +7.4044607314607874e+03 +2.2692338416623281e+05 -5.2862038851251557e+07 
+4.9999999999999994e-01 -5.2381069186948825e-01 +6.8842732180112556e+00 +4.5145677198748242e+00 -9.7667013530824121e+01 +7.4493892766881199e+03 +2.2746428134197116e+05 -5.3030297364844739e+07 
+5.4999999999999993e-01 -5.2381435923076247e-01 +6.8844471479489471e+00 +4.5074623778831597e+00 -9.7704562631766933e+01 +7.4932723174007233e+03 +2.2792449407987250e+05 -5.3189098730288811e+07 
+5.9999999999999998e-01 -5.2381837041031520e-01 +6.8846392838673722e+00 +4.4999453760235921e+00 -9.7726691400945739e+01 +7.5361055116995949e+03 +2.2831147280836292e+05 -5.3338621832294457e+07 
+6.5000000000000002e-01 -5.2382272489120640e-01 +6.8848496174360756e+00 +4.4920227730603779e+00 -9.7734588732161839e+01 +7.5778845189431413e+03 +2.2863266671381079e+05 -5.3479045568407513e+07 
+7.0000000000000007e-01 -5.2382742215653433e-01 +6.8850781403295471e+00 +4.4837006313784054e+00 -9.7729443702000268e+01 +7.6186049011434197e+03 +2.2889552649829761e+05 -5.3610548174229510e+07 
+7.5000000000000011e-01 -5.2383246168938713e-01 +6.8853248442206310e+00 +4.4749850087751808e+00 -9.7712445275117474e+01 +7.6582623457446343e+03 +2.2910750186643071e+05 -5.3733308743417621e+07 
+8.0000000000000016e-01 -5.2383784297288927e-01 +6.8855897207810060e+00 +4.4658819674607857e+00 -9.7684782364481663e+01 +7.6968524138556841e+03 +2.2927604217199038e+05 -5.3847505488576174e+07 
+8.5000000000000020e-01 -5.2384356549016176e-01 +6.8858727616857092e+00 +4.4563975653730239e+00 -9.7647643993191281e+01 +7.7343707896400529e+03 +2.2940859765864862e+05 -5.3953317482630201e+07 
+9.0000000000000024e-01 -5.2384962872436380e-01 +6.8861739586095103e+00 +4.4465378645041191e+00 -9.7602219144999395e+01 +7.7708130470820952e+03 +2.2951261822739735e+05 -5.4050923051391788e+07 
+9.5000000000000029e-01 -5.2385603215864340e-01 +6.8864933032270343e+00 +4.4363089228975010e+00 -9.7549696777373498e+01 +7.8061748615132237e+03 +2.2959555357339798e+05 -5.4140501189011268e+07 
+1.0000000000000002e+00 -5.2386277527619174e-01 +6.8868307872131487e+00 +4.4257168030480596e+00 -9.7491265840661654e+01 +7.8404517911715902e+03 +2.2966485335423108e+05 -5.4222230108772919e+07 
+1.0500000000000003e+00 -5.2386985756018956e-01 +6.8871864022438416e+00 +4.4147675624420444e+00 -9.7428115304432595e+01 +7.8736395324516143e+03 +2.2972796737253494e+05 -5.4296288967193387e+07 
+1.1000000000000003e+00 -5.2387727849385557e-01 +6.8875601399958910e+00 +4.4034672633075091e+00 -9.7361434154375601e+01 +7.9057336498558689e+03 +2.2979234558060480e+05 -5.4362856018752463e+07 
+1.1500000000000004e+00 -5.2388503756041493e-01 +6.8879519921458403e+00 +4.3918219659089006e+00 -9.7292411344860298e+01 +7.9367297621612242e+03 +2.2986543767653109e+05 -5.4422109888361923e+07 
+1.2000000000000004e+00 -5.2389313424310213e-01 +6.8883619503698466e+00 +4.3798377293572583e+00 -9.7222235791866467e+01 +7.9666235224320271e+03 +2.2995469304676063e+05 -5.4474229445681490e+07 
+1.2500000000000004e+00 -5.2390156802517718e-01 +6.8887900063467731e+00 +4.3675206149619212e+00 -9.7152096511288136e+01 +7.9954105201353186e+03 +2.3006756193214681e+05 -5.4519393113039069e+07 
+1.3000000000000005e+00 -5.2391033838991341e-01 +6.8892361517545746e+00 +4.3548766831476016e+00 -9.7083182460441890e+01 +8.0230863766952689e+03 +2.3021149408993320e+05 -5.4557779564754270e+07 
+1.3500000000000005e+00 -5.2391944482058561e-01 +6.8897003782695423e+00 +4.3419119925398624e+00 -9.7016682510729581e+01 +8.0496467531802518e+03 +2.3039393859746642e+05 -5.4589567704412617e+07 
+1.4000000000000006e+00 -5.2392888680051675e-01 +6.8901826775728257e+00 +4.3286326072399532e+00 -9.6953785716369012e+01 +8.0750871681585577e+03 +2.3062234603456283e+05 -5.4614935494243450e+07 
+1.4500000000000006e+00 -5.2393866381301413e-01 +6.8906830413412656e+00 +4.3150445859199378e+00 -9.6895680941592047e+01 +8.0994032909579300e+03 +2.3090416546168053e+05 -5.4634061936351955e+07 
+1.5000000000000007e+00 -5.2394877534141426e-01 +6.8912014612535488e+00 +4.3011539897878288e+00 -9.6843557108195142e+01 +8.1225907179233391e+03 +2.3124684641502067e+05 -5.4647125516546987e+07 
+1.5500000000000007e+00 -5.2395922086906410e-01 +6.8917379289915095e+00 +4.2869668793549289e+00 -9.6798603251060882e+01 +8.1446450668503394e+03 +2.3165783937652523e+05 -5.4654304880680256e+07 
+1.6000000000000008e+00 -5.2396999987933268e-01 +6.8922924362328351e+00 +4.2724893162141093e+00 -9.6762008221178888e+01 +8.1655619286675965e+03 +2.3214459334429054e+05 -5.4655778500902496e+07 
+1.6500000000000008e+00 -5.2398111185560303e-01 +6.8928649746574076e+00 +4.2577273621174578e+00 -9.6734960953263979e+01 +8.1853368873493946e+03 +2.3271455805015008e+05 -5.4651724792738289e+07 
+1.7000000000000008e+00 -5.2399255628126629e-01 +6.8934555359465000e+00 +4.2426870773084318e+00 -9.6718650420390674e+01 +8.2039655726259771e+03 +2.3337518354999754e+05 -5.4642322500846662e+07 
+1.7500000000000009e+00 -5.2400433263974144e-01 +6.8940641117791204e+00 +4.2273745242060761e+00 -9.6714265487528166e+01 +8.2214435548991423e+03 +2.3413391902471878e+05 -5.4627749965130612e+07 
+1.8000000000000009e+00 -5.2401644041444972e-01 +6.8946906938374770e+00 +4.2117957636892580e+00 -9.6722995147774697e+01 +8.2377664472786255e+03 +2.3499821476921506e+05 -5.4608185824638046e+07 
+1.8500000000000010e+00 -5.2402887908883355e-01 +6.8953352738001543e+00 +4.1959568568263395e+00 -9.6746028225567997e+01 +8.2529298605294516e+03 +2.3597551968585499e+05 -5.4583808706411205e+07 
+1.9000000000000010e+00 -5.2404164814635656e-01 +6.8959978433496616e+00 +4.1798638667578745e+00 -9.6784553699761958e+01 +8.2669293475617869e+03 +2.3707328399602228e+05 -5.4554796845054075e+07 
+1.9500000000000011e+00 -5.2405474707049882e-01 +6.8966783941667922e+00 +4.1635228563124729e+00 -9.6839760476343585e+01 +8.2797604745253411e+03 +2.3829895738302116e+05 -5.4521328581236497e+07 
+2.0000000000000009e+00 -5.2406817534473926e-01 +6.8973769179322941e+00 +4.1469398856573303e+00 -9.6912837437094765e+01 +8.2914188791828401e+03 +2.3965998931602426e+05 -5.4483582737458766e+07 
+2.0500000000000007e+00 -5.2408193220557542e-01 +6.8980933792088406e+00 +4.1301198130168473e+00 -9.7004620182054083e+01 +8.3019166072347052e+03 +2.4116157680284613e+05 -5.4441812906553648e+07 
+2.1000000000000005e+00 -5.2409601590103116e-01 +6.8988276277041285e+00 +4.1130633312151597e+00 -9.7114516288658010e+01 +8.3113247000634201e+03 +2.4279980563734323e+05 -5.4396531007188238e+07 
+2.1500000000000004e+00 -5.2411042443197542e-01 +6.8995794828042314e+00 +4.0957702763822290e+00 -9.7241572942486840e+01 +8.3197269126646079e+03 +2.4456845643116120e+05 -5.4348300845564164e+07 
+2.2000000000000002e+00 -5.2412515579926100e-01 +6.9003487639013192e+00 +4.0782404808013819e+00 -9.7384837560502831e+01 +8.3272070958521072e+03 +2.4646131166210183e+05 -5.4297686846927583e+07 
+2.2500000000000000e+00 -5.2414020800376426e-01 +6.9011352903805570e+00 +4.0604737788840612e+00 -9.7543357271642904e+01 +8.3338490440624155e+03 +2.4847215151033082e+05 -5.4245253059877649e+07 
+2.2999999999999998e+00 -5.2415557904635790e-01 +6.9019388816333027e+00 +4.0424700018626494e+00 -9.7716179449224370e+01 +8.3397366409751248e+03 +2.5059475818468875e+05 -5.4191564148085132e+07 
+2.3499999999999996e+00 -5.2417126692794536e-01 +6.9027593570484314e+00 +4.0242289853180591e+00 -9.7902351337379514e+01 +8.3449536475965124e+03 +2.5282291279035338e+05 -5.4137183928998522e+07 
+2.3999999999999995e+00 -5.2418726964941920e-01 +6.9035965360160336e+00 +4.0057505606684778e+00 -9.8100920239599731e+01 +8.3495839400829682e+03 +2.5515039701832924e+05 -5.4082677009295635e+07 
+2.4499999999999993e+00 -5.2420358521168953e-01 +6.9044502379257384e+00 +3.9870345606331838e+00 -9.8310933414022941e+01 +8.3537113575466446e+03 +2.5757099214582195e+05 -5.4028607737119772e+07 
+2.4999999999999991e+00 -5.2422021161568233e-01 +6.9053202821691757e+00 +3.9680808192613752e+00 -9.8531438198458019e+01 +8.3574197026423644e+03 +2.6007848015566004e+05 -5.3975540215589039e+07 
+2.5499999999999989e+00 -5.2423714686232670e-01 +6.9062064881354548e+00 +3.9488891691823556e+00 -9.8761481821557382e+01 +8.3607928157959450e+03 +2.6266664216436795e+05 -5.3924038799181566e+07 
+2.5999999999999988e+00 -5.2425438895256049e-01 +6.9071086752145892e+00 +3.9294594429985419e+00 -9.9000111529170212e+01 +8.3639145392543651e+03 +2.6532925941865286e+05 -5.3874667862919994e+07 
+2.6499999999999986e+00 -5.2427193588733989e-01 +6.9080266628008404e+00 +3.9097914750756733e+00 -9.9246374734760934e+01 +8.3668686633420421e+03 +2.6806011456397449e+05 -5.3827991411413580e+07 
+2.6999999999999984e+00 -5.2428978566760143e-01 +6.9089602702833917e+00 +3.8898850943977918e+00 -9.9499318644576462e+01 +8.3697391274088968e+03 +2.7085298861031927e+05 -5.3784574475334071e+07 
+2.7499999999999982e+00 -5.2430793629432637e-01 +6.9099093170554999e+00 +3.8697401367094213e+00 -9.9757990611387797e+01 +8.3726096835497774e+03 +2.7370166374274320e+05 -5.3744980800189577e+07 
+2.7999999999999980e+00 -5.2432638576848645e-01 +6.9108736225080145e+00 +3.8493564344855491e+00 -1.0002143788786252e+02 +8.3755641715318561e+03 +2.7659992136970488e+05 -5.3709774724257268e+07 
+2.8499999999999979e+00 -5.2434513209104561e-01 +6.9118530060343195e+00 +3.8287338170264005e+00 -1.0028870781854803e+02 +8.3786865183845948e+03 +2.7954154366890015e+05 -5.3679521179768257e+07 
+2.8999999999999977e+00 -5.2436417326300566e-01 +6.9128472870275175e+00 +3.8078721192503098e+00 -1.0055884773979227e+02 +8.3820604981288379e+03 +2.8252031280073145e+05 -5.3654784064649820e+07 
+2.9499999999999975e+00 -5.2438350728535110e-01 +6.9138562848773883e+00 +3.7867711716400398e+00 -1.0083090483041511e+02 +8.3857700013417907e+03 +2.8553000961530930e+05 -5.3636128051155306e+07 
+2.9999999999999973e+00 -5.2440313215908851e-01 +6.9148798189811407e+00 +3.7654308071129425e+00 -1.0110392657017239e+02 +8.3898988525230870e+03 +2.8856441745848377e+05 -5.3624117364550091e+07 
+3.0499999999999972e+00 -5.2442304588522037e-01 +6.9159177087305146e+00 +3.7438508565874229e+00 -1.0137696021446637e+02 +8.3945309305567534e+03 +2.9161731788561743e+05 -5.3619316600042731e+07 
+3.0999999999999970e+00 -5.2444324646476526e-01 +6.9169697735178302e+00 +3.7220311524338956e+00 -1.0164905303081383e+02 +8.3997500741266667e+03 +2.9468249255374912e+05 -5.3622290079810232e+07 
+3.1499999999999968e+00 -5.2446373189873774e-01 +6.9180358327391298e+00 +3.6999715253447953e+00 -1.0191925244014125e+02 +8.4056401633582627e+03 +2.9775372442942992e+05 -5.3633602390664674e+07 
+3.1999999999999966e+00 -5.2448450018816661e-01 +6.9191157057873767e+00 +3.6776718073918526e+00 -1.0218660572301141e+02 +8.4122850415052217e+03 +3.0082479531234480e+05 -5.3653817874563694e+07 
+3.2499999999999964e+00 -5.2450554933407256e-01 +6.9202092120573289e+00 +3.6551318276184173e+00 -1.0245016023559292e+02 +8.4197686336183906e+03 +3.0388948768550914e+05 -5.3683501425188094e+07 
+3.2999999999999963e+00 -5.2452687733750791e-01 +6.9213161709441815e+00 +3.6323514198693871e+00 -1.0270896334114187e+02 +8.4281747325475008e+03 +3.0694158408276481e+05 -5.3723217034811400e+07 
+3.3499999999999961e+00 -5.2454848219949546e-01 +6.9224364018424973e+00 +3.6093304122983230e+00 -1.0296206237855253e+02 +8.4375872791337733e+03 +3.0997486688839021e+05 -5.3773529678000465e+07 
+3.3999999999999959e+00 -5.2457036192108930e-01 +6.9235697241466285e+00 +3.5860686360861003e+00 -1.0320850466553293e+02 +8.4480901423635878e+03 +3.1298311830272549e+05 -5.3835003878299400e+07 
+3.4499999999999957e+00 -5.2459251450334965e-01 +6.9247159572532890e+00 +3.5625659240454963e+00 -1.0344733762464118e+02 +8.4597671329967015e+03 +3.1596012146861129e+05 -5.3908203715689451e+07 
+3.4999999999999956e+00 -5.2461493794730496e-01 +6.9258749205568000e+00 +3.5388221017017871e+00 -1.0367760856738327e+02 +8.4727022636197380e+03 +3.1889965859472728e+05 -5.3993694653346680e+07 
+3.5499999999999954e+00 -5.2463763025403853e-01 +6.9270464334550006e+00 +3.5148370033082252e+00 -1.0389836495359884e+02 +8.4869793103615448e+03 +3.2179551316827693e+05 -5.4092040555401020e+07 
+3.5999999999999952e+00 -5.2466058942459592e-01 +6.9282303153417901e+00 +3.4906104556991124e+00 -1.0410865406442596e+02 +8.5026822463742519e+03 +3.2464146717642923e+05 -5.4203806604597583e+07 
+3.6499999999999950e+00 -5.2468381346004755e-01 +6.9294263856147502e+00 +3.4661422897032059e+00 -1.0430752335042899e+02 +8.5198949322016888e+03 +3.2743130410772702e+05 -5.4329557207286812e+07 
+3.6999999999999948e+00 -5.2470730036146174e-01 +6.9306344636705433e+00 +3.4414323342189568e+00 -1.0449402020470117e+02 +8.5387012855342800e+03 +3.3015880693605624e+05 -5.4469857175692350e+07 
+3.7499999999999947e+00 -5.2473104812990579e-01 +6.9318543689055350e+00 +3.4164804177333656e+00 -1.0466719201713595e+02 +8.5591852285476689e+03 +3.3281775868045376e+05 -5.4625271327496111e+07 
+3.7999999999999945e+00 -5.2475505476645845e-01 +6.9330859207167101e+00 +3.3912863700930624e+00 -1.0482608619780608e+02 +8.5814306447521176e+03 +3.3540194253438752e+05 -5.4796364214185253e+07 
+3.8499999999999943e+00 -5.2477931827219371e-01 +6.9343289385005384e+00 +3.3658500193660097e+00 -1.0496975012948701e+02 +8.6055214673316787e+03 +3.3790514147848060e+05 -5.4983700729585797e+07 
+3.8999999999999941e+00 -5.2480383664818475e-01 +6.9355832416570591e+00 +3.3401711931448994e+00 -1.0509723135134413e+02 +8.6315416376112025e+03 +3.4032113984794298e+05 -5.5187845807768300e+07 
+3.9499999999999940e+00 -5.2482860789551100e-01 +6.9368486495797850e+00 +3.3142497194888887e+00 -1.0520757712580402e+02 +8.6595750800587102e+03 +3.4264371969884302e+05 -5.5409364249823891e+07 
+3.9999999999999938e+00 -5.2485363001527197e-01 +6.9381249816694002e+00 +3.2880854288641412e+00 -1.0529983501105342e+02 +8.6897056620738604e+03 +3.4486666559424030e+05 -5.5648820502342798e+07 
+4.0499999999999936e+00 -5.2487890091399525e-01 +6.9394120607559380e+00 +3.2616791958214466e+00 -1.0537321445799836e+02 +8.7219877014239974e+03 +3.4698466366923251e+05 -5.5906549057673261e+07 
+4.0999999999999934e+00 -5.2490441812085409e-01 +6.9407097172670431e+00 +3.2350361085396355e+00 -1.0542753202104849e+02 +8.7563606626784567e+03 +3.4899551482711756e+05 -5.6181974699961960e+07 
+4.1499999999999932e+00 -5.2493017907082706e-01 +6.9420177820024778e+00 +3.2081623233866741e+00 -1.0546274622202021e+02 +8.7927363747224281e+03 +3.5089766842945723e+05 -5.6474298118863046e+07 
+4.1999999999999931e+00 -5.2495618119887233e-01 +6.9433360857620876e+00 +3.1810639929423292e+00 -1.0547881558503153e+02 +8.8310267648316476e+03 +3.5268957373845740e+05 -5.6782720641041867e+07 
+4.2499999999999929e+00 -5.2498242193998590e-01 +6.9446644593451561e+00 +3.1537472761497454e+00 -1.0547569861006737e+02 +8.8711435897010579e+03 +3.5436967977238924e+05 -5.7106442442217968e+07 
+4.2999999999999927e+00 -5.2500889872914280e-01 +6.9460027335519454e+00 +3.1262183281360114e+00 -1.0545335384262873e+02 +8.9129987078438317e+03 +3.5593643589711649e+05 -5.7444664381887577e+07 
+4.3499999999999925e+00 -5.2503560900131829e-01 +6.9473507391821299e+00 +3.0984833037916379e+00 -1.0541173980104509e+02 +8.9565039845316551e+03 +3.5738829121265712e+05 -5.7796587362332746e+07 
+4.3999999999999924e+00 -5.2506255019149783e-01 +6.9487083070345479e+00 +3.0705483597027152e+00 -1.0535081496045483e+02 +9.0015712371865611e+03 +3.5872369436382997e+05 -5.8161411951041646e+07 
+4.4499999999999922e+00 -5.2508971973466656e-01 +6.9500752679083320e+00 +3.0424196521735034e+00 -1.0527053782120925e+02 +9.0481122927246852e+03 +3.5994109421825554e+05 -5.8538338785934947e+07 
+4.4999999999999920e+00 -5.2511711506580050e-01 +6.9514514526033659e+00 +3.0141033358350873e+00 -1.0517086691010761e+02 +9.0960390217794375e+03 +3.6103893978233071e+05 -5.8926568791433580e+07 
+4.5499999999999918e+00 -5.2514473361987923e-01 +6.9528366919200026e+00 +2.9856055659622411e+00 -1.0505176076626368e+02 +9.1452632772823708e+03 +3.6201568008218688e+05 -5.9325302767078869e+07 
+4.5999999999999917e+00 -5.2517257283188790e-01 +6.9542308166550280e+00 +2.9569324990682224e+00 -1.0491317779347014e+02 +9.1956968758178809e+03 +3.6286976302215602e+05 -5.9733741253878303e+07 
+4.6499999999999915e+00 -5.2520063013680152e-01 +6.9556336576072022e+00 +2.9280902896459420e+00 -1.0475507647249661e+02 +9.2472516910332997e+03 +3.6359963704873773e+05 -6.0151085184886351e+07 
+4.6999999999999913e+00 -5.2522890296959857e-01 +6.9570450455780355e+00 +2.8990850929961991e+00 -1.0457741539335933e+02 +9.2998395726644430e+03 +3.6420375143832830e+05 -6.0576535319097228e+07 
+4.7499999999999911e+00 -5.2525738876525485e-01 +6.9584648113636831e+00 +2.8699230639045719e+00 -1.0438015294206622e+02 +9.3533723863025843e+03 +3.6468055378255463e+05 -6.1009292528028287e+07 
+4.7999999999999909e+00 -5.2528608495875595e-01 +6.9598927857637998e+00 +2.8406103593591556e+00 -1.0416324763422010e+02 +9.4077619348616554e+03 +3.6502849260783830e+05 -6.1448557243497223e+07 
+4.8499999999999908e+00 -5.2531498898505835e-01 +6.9613287995754751e+00 +2.8111531316164471e+00 -1.0392665789354828e+02 +9.4629201462428973e+03 +3.6524601566971047e+05 -6.1893530728084996e+07 
+4.8999999999999906e+00 -5.2534409827915196e-01 +6.9627726835979100e+00 +2.7815575383304094e+00 -1.0367034222581546e+02 +9.5187588099456207e+03 +3.6533157130348519e+05 -6.2343413332414918e+07 
+4.9499999999999904e+00 -5.2537341027599782e-01 +6.9642242686273450e+00 +2.7518297330834351e+00 -1.0339425902478530e+02 +9.5751898179617456e+03 +3.6528360687680094e+05 -6.2797406069117486e+07 
+4.9999999999999902e+00 -5.2540292241056241e-01 +6.9656833854640450e+00 +2.7219758704020740e+00 -1.0309836684303802e+02 +9.6321250398076791e+03 +3.6510057096120703e+05 -6.3254709805778593e+07 
+5.0499999999999901e+00 -5.2543263211781177e-01 +6.9671498649024608e+00 +2.6920021054127519e+00 -1.0278262400399856e+02 +9.6894763256970418e+03 +3.6478091019336204e+05 -6.3714525263580754e+07 
