# trajectory
# s[mm] rx[mm] ry[mm] rz[mm] px[rad] py[rad] pz[rad]
0.0000000000000000e+00 +8.3650000000000002e+00 +0.0000000000000000e+00 +0.0000000000000000e+00 +0.0000000000000000e+00 +0.0000000000000000e+00 +1.0000000000000000e+00
5.0000000000000003e-02 +8.3649999311277998e+00 +0.0000000000000000e+00 +4.9999999999936762e-02 -2.7548873018217398e-06 +0.0000000000000000e+00 +9.9999999999620526e-01
1.0000000000000001e-01 +8.3649997245113248e+00 +0.0000000000000000e+00 +9.9999999999494049e-02 -5.5097713340367144e-06 +0.0000000000000000e+00 +9.9999999998482114e-01
1.5000000000000002e-01 +8.3649993801506870e+00 +0.0000000000000000e+00 +1.4999999999829239e-01 -8.2646541333024164e-06 +0.0000000000000000e+00 +9.9999999996584765e-01
2.0000000000000001e-01 +8.3649988980458971e+00 +0.0000000000000000e+00 +1.9999999999595233e-01 -1.1019537732746395e-05 +0.0000000000000000e+00 +9.9999999993928479e-01
2.5000000000000000e-01 +8.3649982781968664e+00 +0.0000000000000000e+00 +2.4999999999209438e-01 -1.3774424161966347e-05 +0.0000000000000000e+00 +9.9999999990513255e-01
2.9999999999999999e-01 +8.3649975206034011e+00 +0.0000000000000000e+00 +2.9999999998633908e-01 -1.6529315447030222e-05 +0.0000000000000000e+00 +9.9999999986339083e-01
3.4999999999999998e-01 +8.3649966252652082e+00 +0.0000000000000000e+00 +3.4999999997830700e-01 -1.9284213610476299e-05 +0.0000000000000000e+00 +9.9999999981405951e-01
3.9999999999999997e-01 +8.3649955921818933e+00 +0.0000000000000000e+00 +3.9999999996761859e-01 -2.2039120671313291e-05 +0.0000000000000000e+00 +9.9999999975713849e-01
4.4999999999999996e-01 +8.3649944213529608e+00 +0.0000000000000000e+00 +4.4999999995389439e-01 -2.4794038645020428e-05 +0.0000000000000000e+00 +9.9999999969262776e-01
4.9999999999999994e-01 +8.3649931127778139e+00 +0.0000000000000000e+00 +4.9999999993675487e-01 -2.7548969543547560e-05 +0.0000000000000000e+00 +9.9999999962052710e-01
5.4999999999999993e-01 +8.3649916664557580e+00 +0.0000000000000000e+00 +5.4999999991582060e-01 -3.0303915375315234e-05 +0.0000000000000000e+00 +9.9999999954083629e-01
5.9999999999999998e-01 +8.3649900823859955e+00 +0.0000000000000000e+00 +5.9999999989071207e-01 -3.3058878145214796e-05 +0.0000000000000000e+00 +9.9999999945355522e-01
6.5000000000000002e-01 +8.3649883605676294e+00 +0.0000000000000000e+00 +6.4999999986104962e-01 -3.5813859854608479e-05 +0.0000000000000000e+00 +9.9999999935868367e-01
7.0000000000000007e-01 +8.3649865009996613e+00 +0.0000000000000000e+00 +6.9999999982645389e-01 -3.8568862501329493e-05 +0.0000000000000000e+00 +9.9999999925622141e-01
7.5000000000000011e-01 +8.3649845036809971e+00 +0.0000000000000000e+00 +7.4999999978654530e-01 -4.1323888079682110e-05 +0.0000000000000000e+00 +9.9999999914616811e-01
8.0000000000000016e-01 +8.3649823686104394e+00 +0.0000000000000000e+00 +7.9999999974094427e-01 -4.4078938580441761e-05 +0.0000000000000000e+00 +9.9999999902852355e-01
8.5000000000000020e-01 +8.3649800957866915e+00 +0.0000000000000000e+00 +8.4999999968927120e-01 -4.6834015990855124e-05 +0.0000000000000000e+00 +9.9999999890328739e-01
9.0000000000000024e-01 +8.3649776852083590e+00 +0.0000000000000000e+00 +8.9999999963114652e-01 -4.9589122294640210e-05 +0.0000000000000000e+00 +9.9999999877045942e-01
9.5000000000000029e-01 +8.3649751368739480e+00 +0.0000000000000000e+00 +9.4999999956619063e-01 -5.2344259471986451e-05 +0.0000000000000000e+00 +9.9999999863003919e-01
1.0000000000000002e+00 +8.3649724507818650e+00 +0.0000000000000000e+00 +9.9999999949402396e-01 -5.5099429499554786e-05 +0.0000000000000000e+00 +9.9999999848202636e-01
1.0500000000000003e+00 +8.3649696269304172e+00 +0.0000000000000000e+00 +1.0499999994142668e+00 -5.7854634350477764e-05 +0.0000000000000000e+00 +9.9999999832642061e-01
1.1000000000000003e+00 +8.3649666653178159e+00 +0.0000000000000000e+00 +1.0999999993265395e+00 -6.0609875994359613e-05 +0.0000000000000000e+00 +9.9999999816322138e-01
1.1500000000000004e+00 +8.3649635659421708e+00 +0.0000000000000000e+00 +1.1499999992304624e+00 -6.3365156397276329e-05 +0.0000000000000000e+00 +9.9999999799242845e-01
1.2000000000000004e+00 +8.3649603288014962e+00 +0.0000000000000000e+00 +1.1999999991256558e+00 -6.6120477521775781e-05 +0.0000000000000000e+00 +9.9999999781404114e-01
1.2500000000000004e+00 +8.3649569538937065e+00 +0.0000000000000000e+00 +1.2499999990117399e+00 -6.8875841326877788e-05 +0.0000000000000000e+00 +9.9999999762805913e-01
1.3000000000000005e+00 +8.3649534412166187e+00 +0.0000000000000000e+00 +1.2999999988883351e+00 -7.1631249768074176e-05 +0.0000000000000000e+00 +9.9999999743448187e-01
1.3500000000000005e+00 +8.3649497907679535e+00 +0.0000000000000000e+00 +1.3499999987550615e+00 -7.4386704797328927e-05 +0.0000000000000000e+00 +9.9999999723330890e-01
1.4000000000000006e+00 +8.3649460025453308e+00 +0.0000000000000000e+00 +1.3999999986115395e+00 -7.7142208363078189e-05 +0.0000000000000000e+00 +9.9999999702453968e-01
1.4500000000000006e+00 +8.3649420765462761e+00 +0.0000000000000000e+00 +1.4499999984573890e+00 -7.9897762410230432e-05 +0.0000000000000000e+00 +9.9999999680817364e-01
1.5000000000000007e+00 +8.3649380127682171e+00 +0.0000000000000000e+00 +1.4999999982922303e+00 -8.2653368880166480e-05 +0.0000000000000000e+00 +9.9999999658421013e-01
1.5500000000000007e+00 +8.3649338112084823e+00 +0.0000000000000000e+00 +1.5499999981156833e+00 -8.5409029710739628e-05 +0.0000000000000000e+00 +9.9999999635264869e-01
1.6000000000000008e+00 +8.3649294718643077e+00 +0.0000000000000000e+00 +1.5999999979273685e+00 -8.8164746836275702e-05 +0.0000000000000000e+00 +9.9999999611348855e-01
1.6500000000000008e+00 +8.3649249947328279e+00 +0.0000000000000000e+00 +1.6499999977269055e+00 -9.0920522187573174e-05 +0.0000000000000000e+00 +9.9999999586672916e-01
1.7000000000000008e+00 +8.3649203798110854e+00 +0.0000000000000000e+00 +1.6999999975139146e+00 -9.3676357691903199e-05 +0.0000000000000000e+00 +9.9999999561236985e-01
1.7500000000000009e+00 +8.3649156270960248e+00 +0.0000000000000000e+00 +1.7499999972880158e+00 -9.6432255273009749e-05 +0.0000000000000000e+00 +9.9999999535040995e-01
1.8000000000000009e+00 +8.3649107365844930e+00 +0.0000000000000000e+00 +1.7999999970488290e+00 -9.9188216851109660e-05 +0.0000000000000000e+00 +9.9999999508084869e-01
1.8500000000000010e+00 +8.3649057082732412e+00 +0.0000000000000000e+00 +1.8499999967959739e+00 -1.0194424434289275e-04 +0.0000000000000000e+00 +9.9999999480368540e-01
1.9000000000000010e+00 +8.3649005421589280e+00 +0.0000000000000000e+00 +1.8999999965290708e+00 -1.0470033966152183e-04 +0.0000000000000000e+00 +9.9999999451891930e-01
1.9500000000000011e+00 +8.3648952382381125e+00 +0.0000000000000000e+00 +1.9499999962477392e+00 -1.0745650471663289e-04 +0.0000000000000000e+00 +9.9999999422654962e-01
2.0000000000000009e+00 +8.3648897965072617e+00 +0.0000000000000000e+00 +1.9999999959515991e+00 -1.1021274141433507e-04 +0.0000000000000000e+00 +9.9999999392657568e-01
2.0500000000000007e+00 +8.3648842169627446e+00 +0.0000000000000000e+00 +2.0499999956402699e+00 -1.1296905165687566e-04 +0.0000000000000000e+00 +9.9999999361899650e-01
2.1000000000000005e+00 +8.3648784996008381e+00 +0.0000000000000000e+00 +2.0999999953133717e+00 -1.1572543733895316e-04 +0.0000000000000000e+00 +9.9999999330381140e-01
2.1500000000000004e+00 +8.3648726444177228e+00 +0.0000000000000000e+00 +2.1499999949705240e+00 -1.1848190034403043e-04 +0.0000000000000000e+00 +9.9999999298101949e-01
2.2000000000000002e+00 +8.3648666514094838e+00 +0.0000000000000000e+00 +2.1999999946113467e+00 -1.2123844254399958e-04 +0.0000000000000000e+00 +9.9999999265061990e-01
2.2500000000000000e+00 +8.3648605205721172e+00 +0.0000000000000000e+00 +2.2499999942354592e+00 -1.2399506579918200e-04 +0.0000000000000000e+00 +9.9999999231261172e-01
2.2999999999999998e+00 +8.3648542519015230e+00 +0.0000000000000000e+00 +2.2999999938424809e+00 -1.2675177195832848e-04 +0.0000000000000000e+00 +9.9999999196699407e-01
2.3499999999999996e+00 +8.3648478453935091e+00 +0.0000000000000000e+00 +2.3499999934320317e+00 -1.2950856285861922e-04 +0.0000000000000000e+00 +9.9999999161376596e-01
2.3999999999999995e+00 +8.3648413010437945e+00 +0.0000000000000000e+00 +2.3999999930037306e+00 -1.3226544032566388e-04 +0.0000000000000000e+00 +9.9999999125292649e-01
2.4499999999999993e+00 +8.3648346188480041e+00 +0.0000000000000000e+00 +2.4499999925571974e+00 -1.3502240617350173e-04 +0.0000000000000000e+00 +9.9999999088447478e-01
2.4999999999999991e+00 +8.3648277988016737e+00 +0.0000000000000000e+00 +2.4999999920920510e+00 -1.3777946220460159e-04 +0.0000000000000000e+00 +9.9999999050840971e-01
2.5499999999999989e+00 +8.3648208409002507e+00 +0.0000000000000000e+00 +2.5499999916079115e+00 -1.4053661020986199e-04 +0.0000000000000000e+00 +9.9999999012473040e-01
2.5999999999999988e+00 +8.3648137451390898e+00 +0.0000000000000000e+00 +2.5999999911043972e+00 -1.4329385196861115e-04 +0.0000000000000000e+00 +9.9999998973343585e-01
2.6499999999999986e+00 +8.3648065115134607e+00 +0.0000000000000000e+00 +2.6499999905811280e+00 -1.4605118924860706e-04 +0.0000000000000000e+00 +9.9999998933452494e-01
2.6999999999999984e+00 +8.3647991400185440e+00 +0.0000000000000000e+00 +2.6999999900377230e+00 -1.4880862380603756e-04 +0.0000000000000000e+00 +9.9999998892799657e-01
2.7499999999999982e+00 +8.3647916306494299e+00 +0.0000000000000000e+00 +2.7499999894738010e+00 -1.5156615738552037e-04 +0.0000000000000000e+00 +9.9999998851384975e-01
2.7999999999999980e+00 +8.3647839834011251e+00 +0.0000000000000000e+00 +2.7999999888889811e+00 -1.5432379172010313e-04 +0.0000000000000000e+00 +9.9999998809208346e-01
2.8499999999999979e+00 +8.3647761982685491e+00 +0.0000000000000000e+00 +2.8499999882828821e+00 -1.5708152853126346e-04 +0.0000000000000000e+00 +9.9999998766269649e-01
2.8999999999999977e+00 +8.3647682752465347e+00 +0.0000000000000000e+00 +2.8999999876551237e+00 -1.5983936952890899e-04 +0.0000000000000000e+00 +9.9999998722568773e-01
2.9499999999999975e+00 +8.3647602143298307e+00 +0.0000000000000000e+00 +2.9499999870053242e+00 -1.6259731641137749e-04 +0.0000000000000000e+00 +9.9999998678105606e-01
2.9999999999999973e+00 +8.3647520155131012e+00 +0.0000000000000000e+00 +2.9999999863331022e+00 -1.6535537086543675e-04 +0.0000000000000000e+00 +9.9999998632880038e-01
3.0499999999999972e+00 +8.3647436787909246e+00 +0.0000000000000000e+00 +3.0499999856380771e+00 -1.6811353456628483e-04 +0.0000000000000000e+00 +9.9999998586891947e-01
3.0999999999999970e+00 +8.3647352041577960e+00 +0.0000000000000000e+00 +3.0999999849198669e+00 -1.7087180917754995e-04 +0.0000000000000000e+00 +9.9999998540141211e-01
3.1499999999999968e+00 +8.3647265916081306e+00 +0.0000000000000000e+00 +3.1499999841780908e+00 -1.7363019635129059e-04 +0.0000000000000000e+00 +9.9999998492627717e-01
3.1999999999999966e+00 +8.3647178411362582e+00 +0.0000000000000000e+00 +3.1999999834123671e+00 -1.7638869772799553e-04 +0.0000000000000000e+00 +9.9999998444351335e-01
3.2499999999999964e+00 +8.3647089527364269e+00 +0.0000000000000000e+00 +3.2499999826223149e+00 -1.7914731493658389e-04 +0.0000000000000000e+00 +9.9999998395311951e-01
3.2999999999999963e+00 +8.3646999264028068e+00 +0.0000000000000000e+00 +3.2999999818075523e+00 -1.8190604959440512e-04 +0.0000000000000000e+00 +9.9999998345509433e-01
3.3499999999999961e+00 +8.3646907621294844e+00 +0.0000000000000000e+00 +3.3499999809676972e+00 -1.8466490330723917e-04 +0.0000000000000000e+00 +9.9999998294943648e-01
3.3999999999999959e+00 +8.3646814599104662e+00 +0.0000000000000000e+00 +3.3999999801023684e+00 -1.8742387766929635e-04 +0.0000000000000000e+00 +9.9999998243614474e-01
3.4499999999999957e+00 +8.3646720197396807e+00 +0.0000000000000000e+00 +3.4499999792111842e+00 -1.9018297426321752e-04 +0.0000000000000000e+00 +9.9999998191521788e-01
3.4999999999999956e+00 +8.3646624416109763e+00 +0.0000000000000000e+00 +3.4999999782937627e+00 -1.9294219466007404e-04 +0.0000000000000000e+00 +9.9999998138665447e-01
3.5499999999999954e+00 +8.3646527255181251e+00 +0.0000000000000000e+00 +3.5499999773497222e+00 -1.9570154041936779e-04 +0.0000000000000000e+00 +9.9999998085045327e-01
3.5999999999999952e+00 +8.3646428714548193e+00 +0.0000000000000000e+00 +3.5999999763786805e+00 -1.9846101308903125e-04 +0.0000000000000000e+00 +9.9999998030661286e-01
3.6499999999999950e+00 +8.3646328794146747e+00 +0.0000000000000000e+00 +3.6499999753802559e+00 -2.0122061420542757e-04 +0.0000000000000000e+00 +9.9999997975513188e-01
3.6999999999999948e+00 +8.3646227493912324e+00 +0.0000000000000000e+00 +3.6999999743540664e+00 -2.0398034529335045e-04 +0.0000000000000000e+00 +9.9999997919600903e-01
3.7499999999999947e+00 +8.3646124813779537e+00 +0.0000000000000000e+00 +3.7499999732997296e+00 -2.0674020786602432e-04 +0.0000000000000000e+00 +9.9999997862924284e-01
3.7999999999999945e+00 +8.3646020753682286e+00 +0.0000000000000000e+00 +3.7999999722168631e+00 -2.0950020342510431e-04 +0.0000000000000000e+00 +9.9999997805483198e-01
3.8499999999999943e+00 +8.3645915313553694e+00 +0.0000000000000000e+00 +3.8499999711050852e+00 -2.1226033346067626e-04 +0.0000000000000000e+00 +9.9999997747277503e-01
3.8999999999999941e+00 +8.3645808493326168e+00 +0.0000000000000000e+00 +3.8999999699640133e+00 -2.1502059945125674e-04 +0.0000000000000000e+00 +9.9999997688307052e-01
3.9499999999999940e+00 +8.3645700292931338e+00 +0.0000000000000000e+00 +3.9499999687932648e+00 -2.1778100286379314e-04 +0.0000000000000000e+00 +9.9999997628571702e-01
3.9999999999999938e+00 +8.3645590712300155e+00 +0.0000000000000000e+00 +3.9999999675924576e+00 -2.2054154515366363e-04 +0.0000000000000000e+00 +9.9999997568071308e-01
4.0499999999999936e+00 +8.3645479751362810e+00 +0.0000000000000000e+00 +4.0499999663612085e+00 -2.2330222776455061e-04 +0.0000000000000000e+00 +9.9999997506805716e-01
4.0999999999999934e+00 +8.3645367410048781e+00 +0.0000000000000000e+00 +4.0999999650991352e+00 -2.2606305212704870e-04 +0.0000000000000000e+00 +9.9999997444774780e-01
4.1499999999999932e+00 +8.3645253688286836e+00 +0.0000000000000000e+00 +4.1499999638058558e+00 -2.2882401965727253e-04 +0.0000000000000000e+00 +9.9999997381978356e-01
4.1999999999999931e+00 +8.3645138586005032e+00 +0.0000000000000000e+00 +4.1999999624809865e+00 -2.3158513175673031e-04 +0.0000000000000000e+00 +9.9999997318416289e-01
4.2499999999999929e+00 +8.3645022103130753e+00 +0.0000000000000000e+00 +4.2499999611241446e+00 -2.3434638981232375e-04 +0.0000000000000000e+00 +9.9999997254088424e-01
4.2999999999999927e+00 +8.3644904239590669e+00 +0.0000000000000000e+00 +4.2999999597349472e+00 -2.3710779519634813e-04 +0.0000000000000000e+00 +9.9999997188994616e-01
4.3499999999999925e+00 +8.3644784995310779e+00 +0.0000000000000000e+00 +4.3499999583130116e+00 -2.3986934926649230e-04 +0.0000000000000000e+00 +9.9999997123134710e-01
4.3999999999999924e+00 +8.3644664370216404e+00 +0.0000000000000000e+00 +4.3999999568579540e+00 -2.4263105336583865e-04 +0.0000000000000000e+00 +9.9999997056508538e-01
4.4499999999999922e+00 +8.3644542364232191e+00 +0.0000000000000000e+00 +4.4499999553693916e+00 -2.4539290882286314e-04 +0.0000000000000000e+00 +9.9999996989115958e-01
4.4999999999999920e+00 +8.3644418977282129e+00 +0.0000000000000000e+00 +4.4999999538469417e+00 -2.4815491695143530e-04 +0.0000000000000000e+00 +9.9999996920956802e-01
4.5499999999999918e+00 +8.3644294209289569e+00 +0.0000000000000000e+00 +4.5499999522902206e+00 -2.5091707905081827e-04 +0.0000000000000000e+00 +9.9999996852030915e-01
4.5999999999999917e+00 +8.3644168060177204e+00 +0.0000000000000000e+00 +4.5999999506988445e+00 -2.5367939640566874e-04 +0.0000000000000000e+00 +9.9999996782338130e-01
4.6499999999999915e+00 +8.3644040529867087e+00 +0.0000000000000000e+00 +4.6499999490724306e+00 -2.5644187028603697e-04 +0.0000000000000000e+00 +9.9999996711878292e-01
4.6999999999999913e+00 +8.3643911618280633e+00 +0.0000000000000000e+00 +4.6999999474105953e+00 -2.5920450194736683e-04 +0.0000000000000000e+00 +9.9999996640651234e-01
4.7499999999999911e+00 +8.3643781325338633e+00 +0.0000000000000000e+00 +4.7499999457129540e+00 -2.6196729263049573e-04 +0.0000000000000000e+00 +9.9999996568656802e-01
4.7999999999999909e+00 +8.3643649650961294e+00 +0.0000000000000000e+00 +4.7999999439791239e+00 -2.6473024356165470e-04 +0.0000000000000000e+00 +9.9999996495894827e-01
4.8499999999999908e+00 +8.3643516595068164e+00 +0.0000000000000000e+00 +4.8499999422087212e+00 -2.6749335595246829e-04 +0.0000000000000000e+00 +9.9999996422365145e-01
4.8999999999999906e+00 +8.3643382157578223e+00 +0.0000000000000000e+00 +4.8999999404013614e+00 -2.7025663099995462e-04 +0.0000000000000000e+00 +9.9999996348067588e-01
4.9499999999999904e+00 +8.3643246338409849e+00 +0.0000000000000000e+00 +4.9499999385566609e+00 -2.7302006988652534e-04 +0.0000000000000000e+00 +9.9999996273001990e-01
4.9999999999999902e+00 +8.3643109137480831e+00 +0.0000000000000000e+00 +4.9999999366742358e+00 -2.7578367377998573e-04 +0.0000000000000000e+00 +9.9999996197168184e-01
5.0499999999999901e+00 +8.3642970554708373e+00 +0.0000000000000000e+00 +5.0499999347537017e+00 -2.7854744383353451e-04 +0.0000000000000000e+00 +9.9999996120565993e-01
5.0999999999999899e+00 +8.3642830590009112e+00 +0.0000000000000000e+00 +5.0999999327946739e+00 -2.8131138118576401e-04 +0.0000000000000000e+00 +9.9999996043195249e-01
5.1499999999999897e+00 +8.3642689243299113e+00 +0.0000000000000000e+00 +5.1499999307967688e+00 -2.8407548696065995e-04 +0.0000000000000000e+00 +9.9999995965055788e-01
5.1999999999999895e+00 +8.3642546514493894e+00 +0.0000000000000000e+00 +5.1999999287596017e+00 -2.8683976226760168e-04 +0.0000000000000000e+00 +9.9999995886147441e-01
5.2499999999999893e+00 +8.3642402403508402e+00 +0.0000000000000000e+00 +5.2499999266827881e+00 -2.8960420820136191e-04 +0.0000000000000000e+00 +9.9999995806470032e-01
5.2999999999999892e+00 +8.3642256910257071e+00 +0.0000000000000000e+00 +5.2999999245659435e+00 -2.9236882584210687e-04 +0.0000000000000000e+00 +9.9999995726023383e-01
5.3499999999999890e+00 +8.3642110034653765e+00 +0.0000000000000000e+00 +5.3499999224086832e+00 -2.9513361625539626e-04 +0.0000000000000000e+00 +9.9999995644807327e-01
5.3999999999999888e+00 +8.3641961776611851e+00 +0.0000000000000000e+00 +5.3999999202106226e+00 -2.9789858049218313e-04 +0.0000000000000000e+00 +9.9999995562821686e-01
5.4499999999999886e+00 +8.3641812136044145e+00 +0.0000000000000000e+00 +5.4499999179713763e+00 -3.0066371958881394e-04 +0.0000000000000000e+00 +9.9999995480066284e-01
5.4999999999999885e+00 +8.3641661112862948e+00 +0.0000000000000000e+00 +5.4999999156905606e+00 -3.0342903456702857e-04 +0.0000000000000000e+00 +9.9999995396540942e-01
5.5499999999999883e+00 +8.3641508706980083e+00 +0.0000000000000000e+00 +5.5499999133677891e+00 -3.0619452643396026e-04 +0.0000000000000000e+00 +9.9999995312245493e-01
5.5999999999999881e+00 +8.3641354918306856e+00 +0.0000000000000000e+00 +5.5999999110026772e+00 -3.0896019618213553e-04 +0.0000000000000000e+00 +9.9999995227179750e-01
5.6499999999999879e+00 +8.3641199746754094e+00 +0.0000000000000000e+00 +5.6499999085948405e+00 -3.1172604478947423e-04 +0.0000000000000000e+00 +9.9999995141343534e-01
5.6999999999999877e+00 +8.3641043192232107e+00 +0.0000000000000000e+00 +5.6999999061438924e+00 -3.1449207321928950e-04 +0.0000000000000000e+00 +9.9999995054736679e-01
5.7499999999999876e+00 +8.3640885254650748e+00 +0.0000000000000000e+00 +5.7499999036494485e+00 -3.1725828242028774e-04 +0.0000000000000000e+00 +9.9999994967358996e-01
5.7999999999999874e+00 +8.3640725933919402e+00 +0.0000000000000000e+00 +5.7999999011111232e+00 -3.2002467332656846e-04 +0.0000000000000000e+00 +9.9999994879210308e-01
5.8499999999999872e+00 +8.3640565229946979e+00 +0.0000000000000000e+00 +5.8499998985285302e+00 -3.2279124685762446e-04 +0.0000000000000000e+00 +9.9999994790290425e-01
5.8999999999999870e+00 +8.3640403142641944e+00 +0.0000000000000000e+00 +5.8999998959012849e+00 -3.2555800391834166e-04 +0.0000000000000000e+00 +9.9999994700599182e-01
