# multipoles
# s[mm] polynom_b[n=0][T/m^n] polynom_b[n=1][T/m^n] polynom_b[n=2][T/m^n] polynom_b[n=3][T/m^n] polynom_b[n=4][T/m^n] polynom_b[n=5][T/m^n] polynom_b[n=6][T/m^n] 
+0.0000000000000000e+00 -5.5369772519851257e-01 +7.2795742718973031e+00 +6.2994966447166059e+00 -1.8180683657919317e+02 -1.5973672858713775e+04 +9.2866603135983483e+05 +9.6059049747667298e+07 
+5.0000000000000003e-02 -5.5369964548411355e-01 +7.2797266241095606e+00 +6.2894844692440399e+00 -1.8124122081304347e+02 -1.5853647840666337e+04 +9.2540905542277533e+05 +9.5327313231690526e+07 
+1.0000000000000001e-01 -5.5370193536947887e-01 +7.2798970289102369e+00 +6.2789665908580270e+00 -1.8061671397140725e+02 -1.5732397793730686e+04 +9.2180977605304378e+05 +9.4589497314312771e+07 
+1.5000000000000002e-01 -5.5370459387250903e-01 +7.2800854788479574e+00 +6.2679569018892689e+00 -1.7993560662919333e+02 -1.5610144761795966e+04 +9.1788286318100314e+05 +9.3846852661705986e+07 
+2.0000000000000001e-01 -5.5370762001110385e-01 +7.2802919664743806e+00 +6.2564692920455176e+00 -1.7920018947931479e+02 -1.5487110723285443e+04 +9.1364298777830484e+05 +9.3100629515820026e+07 
+2.5000000000000000e-01 -5.5371101280318691e-01 +7.2805164843408754e+00 +6.2445176519108045e+00 -1.7841275315226042e+02 -1.5363517677738557e+04 +9.0910482022046146e+05 +9.2352078250868365e+07 
+2.9999999999999999e-01 -5.5371477126670032e-01 +7.2807590249993259e+00 +6.2321158728672179e+00 -1.7757558828949217e+02 -1.5239587652997197e+04 +9.0428303103061812e+05 +9.1602449458767816e+07 
+3.4999999999999998e-01 -5.5371889441958833e-01 +7.2810195810007095e+00 +6.2192778434385216e+00 -1.7669098546085726e+02 -1.5115542596453419e+04 +8.9919229010235809e+05 +9.0852993172766060e+07 
+3.9999999999999997e-01 -5.5372338127982945e-01 +7.2812981448990390e+00 +6.2060174557311258e+00 -1.7576123533717308e+02 -1.4991604557970222e+04 +8.9384726817331812e+05 +9.0104960139560059e+07 
+4.4999999999999996e-01 -5.5372823086541068e-01 +7.2815947092486839e+00 +6.1923486001648733e+00 -1.7478862857615195e+02 -1.4867995539263402e+04 +8.8826263586248795e+05 +8.9359600770286456e+07 
+4.9999999999999994e-01 -5.5373344219432230e-01 +7.2819092666010281e+00 +6.1782851652026620e+00 -1.7377545568805337e+02 -1.4744937494245249e+04 +8.8245306257199508e+05 +8.8618165170336291e+07 
+5.4999999999999993e-01 -5.5373901428458261e-01 +7.2822418095132981e+00 +6.1638410413017253e+00 -1.7272400739827464e+02 -1.4622652429222848e+04 +8.7643321947179781e+05 +8.7881903793864489e+07 
+5.9999999999999998e-01 -5.5374494615423042e-01 +7.2825923305407327e+00 +6.1490301195019121e+00 -1.7163657433414062e+02 -1.4501362366306099e+04 +8.7021777696765726e+05 +8.7152067200071976e+07 
+6.5000000000000002e-01 -5.5375123682130090e-01 +7.2829608222378512e+00 +6.1338662880664838e+00 -1.7051544705846484e+02 -1.4381289257200793e+04 +8.6382140487997560e+05 +8.6429905488670990e+07 
+7.0000000000000007e-01 -5.5375788530387215e-01 +7.2833472771591392e+00 +6.1183634391672701e+00 -1.6936291611481167e+02 -1.4262655154225280e+04 +8.5725877289568353e+05 +8.5716669421321779e+07 
+7.5000000000000011e-01 -5.5376489062000733e-01 +7.2837516878638242e+00 +6.1025354604369975e+00 -1.6818127222043725e+02 -1.4145681995806972e+04 +8.5054455214344105e+05 +8.5013609021872506e+07 
+8.0000000000000016e-01 -5.5377225178781286e-01 +7.2841740469072933e+00 +6.0863962436181875e+00 -1.6697280590479204e+02 -1.4030591820619784e+04 +8.4369341218285274e+05 +8.4321974947630331e+07 
+8.5000000000000020e-01 -5.5377996782538097e-01 +7.2846143468466726e+00 +6.0699596759589802e+00 -1.6573980775282811e+02 -1.3917606558911777e+04 +8.3672002305095771e+05 +8.3643017174324781e+07 
+9.0000000000000024e-01 -5.5378803775084962e-01 +7.2850725802388183e+00 +6.0532396494595249e+00 -1.6448456831615832e+02 -1.3806948258657034e+04 +8.2963905451406154e+05 +8.2977986429871947e+07 
+9.5000000000000029e-01 -5.5379646058235366e-01 +7.2855487396427874e+00 +6.0362500532662429e+00 -1.6320937821605065e+02 -1.3698838899154503e+04 +8.2246517692666862e+05 +8.2328133010975048e+07 
+1.0000000000000002e+00 -5.5380523533804982e-01 +7.2860428176150185e+00 +6.0190047773559820e+00 -1.6191652794151054e+02 -1.3593500475168341e+04 +8.1521305953427299e+05 +8.1694707290103912e+07 
+1.0500000000000003e+00 -5.5381436103611059e-01 +7.2865548067118482e+00 +6.0015177121800170e+00 -1.6060830796728612e+02 -1.3491155000710600e+04 +8.0789737151465414e+05 +8.1078959794610649e+07 
+1.1000000000000003e+00 -5.5382383669471935e-01 +7.2870846994962202e+00 +5.9838027470608370e+00 -1.5928700900557305e+02 -1.3392024454339624e+04 +8.0053278395885683e+05 +8.0482140792661041e+07 
+1.1500000000000004e+00 -5.5383366133208589e-01 +7.2876324885224317e+00 +5.9658737734870435e+00 -1.5795492139886895e+02 -1.3296330874226865e+04 +7.9313396493068326e+05 +7.9905500957854480e+07 
+1.2000000000000004e+00 -5.5384383396641690e-01 +7.2881981663507318e+00 +5.9477446797993645e+00 -1.5661433572386395e+02 -1.3204296213230435e+04 +7.8571558447553904e+05 +7.9350290384601951e+07 
+1.2500000000000004e+00 -5.5385435361595625e-01 +7.2887817255375005e+00 +5.9294293583308875e+00 -1.5526754236948031e+02 -1.3116142532333783e+04 +7.7829231105404359e+05 +7.8817759900188237e+07 
+1.3000000000000005e+00 -5.5386521929894406e-01 +7.2893831586443403e+00 +5.9109416978020999e+00 -1.5391683192555712e+02 -1.3032091791951105e+04 +7.7087881481203472e+05 +7.8309159640270427e+07 
+1.3500000000000005e+00 -5.5387643003364995e-01 +7.2900024582280487e+00 +5.8922955899455047e+00 -1.5256449476477380e+02 -1.2952366035115085e+04 +7.6348976411097287e+05 +7.7825740299935818e+07 
+1.4000000000000006e+00 -5.5388798483836055e-01 +7.2906396168471206e+00 +5.8735049267586819e+00 -1.5121282132132308e+02 -1.2877187312291982e+04 +7.5613982786005561e+05 +7.7368752629435375e+07 
+1.4500000000000006e+00 -5.5389988273135804e-01 +7.2912946270613741e+00 +5.8545835964320236e+00 -1.4986410204569685e+02 -1.2806777563388361e+04 +7.4884367504361901e+05 +7.6939446596691594e+07 
+1.5000000000000007e+00 -5.5391212273096335e-01 +7.2919674814269211e+00 +5.8355454924747336e+00 -1.4852062724474601e+02 -1.2741358882274275e+04 +7.4161597355657362e+05 +7.6539073253061131e+07 
+1.5500000000000007e+00 -5.5392470385550474e-01 +7.2926581725050532e+00 +5.8164045060916738e+00 -1.4718468741120077e+02 -1.2681153288979936e+04 +7.3447139280744118e+05 +7.6168883103544727e+07 
+1.6000000000000008e+00 -5.5393762512331968e-01 +7.2933666928517402e+00 +5.7971745280426452e+00 -1.4585857279644492e+02 -1.2626382793500936e+04 +7.2742460019963025e+05 +7.5830126591133401e+07 
+1.6500000000000008e+00 -5.5395088555277006e-01 +7.2940930350259885e+00 +5.7778694508193373e+00 -1.4454457377492150e+02 -1.2577269453972800e+04 +7.2049026421709522e+05 +7.5524054493341908e+07 
+1.7000000000000008e+00 -5.5396448416222976e-01 +7.2948371915845467e+00 +5.7585031665977997e+00 -1.4324498060597429e+02 -1.2534035314827281e+04 +7.1368305237904203e+05 +7.5251917469182447e+07 
+1.7500000000000009e+00 -5.5397841997008979e-01 +7.2955991550864550e+00 +5.7390895675821829e+00 -1.4196208362667494e+02 -1.2496902418389129e+04 +7.0701763286231679e+05 +7.5014966155452996e+07 
+1.8000000000000009e+00 -5.5399269199474521e-01 +7.2963789180877177e+00 +5.7196425449930874e+00 -1.4069817304873817e+02 -1.2466092783823015e+04 +7.0050867286092043e+05 +7.4814451043502018e+07 
+1.8500000000000010e+00 -5.5400729925463787e-01 +7.2971764731473971e+00 +5.7001759954529208e+00 -1.3945553918189890e+02 -1.2441828572022814e+04 +6.9417084035457287e+05 +7.4651623566280767e+07 
+1.9000000000000010e+00 -5.5402224076818873e-01 +7.2979918128189487e+00 +5.6807038091527859e+00 -1.3823647210246193e+02 -1.2424331764953320e+04 +6.8801880145189422e+05 +7.4527733927065492e+07 
+1.9500000000000011e+00 -5.5403751555386094e-01 +7.2988249296615635e+00 +5.6612398816842120e+00 -1.3704326209989682e+02 -1.2413824491758543e+04 +6.8206722399292712e+05 +7.4444033327851832e+07 
+2.0000000000000009e+00 -5.5405312263010487e-01 +7.2996758162311632e+00 +5.6417981036803031e+00 -1.3587819932816828e+02 -1.2410528744018162e+04 +6.7633077477208048e+05 +7.4401772027435720e+07 
+2.0500000000000007e+00 -5.5406906079927432e-01 +7.3005444359735714e+00 +5.6223895089202331e+00 -1.3474307872549204e+02 -1.2414609270290868e+04 +6.7082091703936073e+05 +7.4401885138070375e+07 
+2.1000000000000005e+00 -5.5408532799852062e-01 +7.3014306309111241e+00 +5.6030143380684123e+00 -1.3363770590169520e+02 -1.2426010603718087e+04 +6.6553618757418822e+05 +7.4444101770675734e+07 
+2.1500000000000004e+00 -5.5410192194853458e-01 +7.3023342114581054e+00 +5.5836703061125732e+00 -1.3256138747525480e+02 -1.2444624590390365e+04 +6.6047186359300988e+05 +7.4527864509930119e+07 
+2.2000000000000002e+00 -5.5411884037004255e-01 +7.3032549880267368e+00 +5.5643551325196601e+00 -1.3151342996371355e+02 -1.2470343194091934e+04 +6.5562322145331698e+05 +7.4652616721959412e+07 
+2.2500000000000000e+00 -5.5413608098376166e-01 +7.3041927710298387e+00 +5.5450665334212390e+00 -1.3049313989471980e+02 -1.2503058292583843e+04 +6.5098553759361536e+05 +7.4817801208110645e+07 
+2.2999999999999998e+00 -5.5415364151042490e-01 +7.3051473708807588e+00 +5.5258022257109092e+00 -1.2949982381404962e+02 -1.2542661779117552e+04 +6.4655408862355922e+05 +7.5022860852787361e+07 
+2.3499999999999996e+00 -5.5417151967077871e-01 +7.3061185979921648e+00 +5.5065599270954770e+00 -1.2853278820904521e+02 -1.2589045571466606e+04 +6.4232415061042760e+05 +7.5267238715598837e+07 
+2.3999999999999995e+00 -5.5418971318557364e-01 +7.3071062627774799e+00 +5.4873373541933335e+00 -1.2759133960327596e+02 -1.2642101556959831e+04 +6.3829099997538456e+05 +7.5550377646462828e+07 
+2.4499999999999993e+00 -5.5420821977558543e-01 +7.3081101756516311e+00 +5.4681322268387254e+00 -1.2667478455477429e+02 -1.2701721713845569e+04 +6.3444991337182582e+05 +7.5871721124541268e+07 
+2.4999999999999991e+00 -5.5422703716156729e-01 +7.3091301470268304e+00 +5.4489422587433820e+00 -1.2578242950438440e+02 -1.2767797848617061e+04 +6.3079616650000506e+05 +7.6230711441449687e+07 
+2.5499999999999989e+00 -5.5424616306431040e-01 +7.3101659873162150e+00 +5.4297651694559494e+00 -1.2491358092222514e+02 -1.2840221932332992e+04 +6.2732503530777583e+05 +7.6626792027979255e+07 
+2.5999999999999988e+00 -5.5426559520460827e-01 +7.3112175069359875e+00 +5.4105986765277256e+00 -1.2406754538555418e+02 -1.2918885874851580e+04 +6.2403179659194057e+05 +7.7059405873558044e+07 
+2.6499999999999986e+00 -5.5428533130325330e-01 +7.3122845162984476e+00 +5.3914404968180865e+00 -1.2324362929794903e+02 -1.3003681576360093e+04 +6.2091172570260160e+05 +7.7527995935061455e+07 
+2.6999999999999984e+00 -5.5430536908104810e-01 +7.3133668258171936e+00 +5.3722883469018496e+00 -1.2244113911441984e+02 -1.3094500921652660e+04 +6.1796009844581445e+05 +7.8032005035124198e+07 
+2.7499999999999982e+00 -5.5432570625880939e-01 +7.3144642459085576e+00 +5.3531399446495884e+00 -1.2165938138201741e+02 -1.3191235834674380e+04 +6.1517219133064942e+05 +7.8570876276635513e+07 
+2.7999999999999980e+00 -5.5434634055736798e-01 +7.3155765869866425e+00 +5.3339930093330477e+00 -1.2089766255679308e+02 -1.3293778277589077e+04 +6.1254328015859763e+05 +7.9144053021019712e+07 
+2.8499999999999979e+00 -5.5436726969753058e-01 +7.3167036594649453e+00 +5.3148452544583424e+00 -1.2015528904045689e+02 -1.3402020056772712e+04 +6.1006864020031691e+05 +7.9750977575814366e+07 
+2.8999999999999977e+00 -5.5438849140015933e-01 +7.3178452737602191e+00 +5.2956944020055206e+00 -1.1943156736900151e+02 -1.3515853207565309e+04 +6.0774354785200814e+05 +8.0391093797930434e+07 
+2.9499999999999975e+00 -5.5441000338607538e-01 +7.3190012402866902e+00 +5.2765381658331050e+00 -1.1872580397129863e+02 -1.3635169546180803e+04 +6.0556327865347057e+05 +8.1063844058550388e+07 
+2.9999999999999973e+00 -5.5443180337613340e-01 +7.3201713694603256e+00 +5.2573742642596191e+00 -1.1803730532786585e+02 -1.3759861009732133e+04 +6.0352310851271416e+05 +8.1768671551903114e+07 
+3.0499999999999972e+00 -5.5445388909119753e-01 +7.3213554716958100e+00 +5.2382004163568148e+00 -1.1736537785365222e+02 -1.3889819558166790e+04 +6.0161831276357686e+05 +8.2505019633666515e+07 
+3.0999999999999970e+00 -5.5447625825210800e-01 +7.3225533574101886e+00 +5.2190143356894811e+00 -1.1670932805947679e+02 -1.4024936999485364e+04 +5.9984416756289464e+05 +8.3272330619062081e+07 
+3.1499999999999968e+00 -5.5449890857975681e-01 +7.3237648370163955e+00 +5.1998137443209940e+00 -1.1606846227546484e+02 -1.4165105376501240e+04 +5.9819594753934618e+05 +8.4070048430014491e+07 
+3.1999999999999966e+00 -5.5452183779499631e-01 +7.3249897209348047e+00 +5.1805963560423276e+00 -1.1544208712169925e+02 -1.4310216505476925e+04 +5.9666892967220640e+05 +8.4897615445156351e+07 
+3.2499999999999964e+00 -5.5454504361869639e-01 +7.3262278195798025e+00 +5.1613598867599508e+00 -1.1482950898079332e+02 -1.4460162261684967e+04 +5.9525838903574820e+05 +8.5754474448446020e+07 
+3.2999999999999963e+00 -5.5456852377176413e-01 +7.3274789433671499e+00 +5.1421020582592272e+00 -1.1423003426086380e+02 -1.4614834678859102e+04 +5.9395960080785397e+05 +8.6640069292188779e+07 
+3.3499999999999961e+00 -5.5459227597507166e-01 +7.3287429027148150e+00 +5.1228205851569815e+00 -1.1364296946390459e+02 -1.4774125599422379e+04 +5.9276784096127539e+05 +8.7553842544627711e+07 
+3.3999999999999959e+00 -5.5461629794949519e-01 +7.3300195080402659e+00 +5.1035131820409347e+00 -1.1306762107165385e+02 -1.4937926864978361e+04 +5.9167838532578910e+05 +8.8495236767292857e+07 
+3.4499999999999957e+00 -5.5464058741595068e-01 +7.3313085697598828e+00 +5.0841775699199250e+00 -1.1250329549139764e+02 -1.5106130492054339e+04 +5.9068650899692078e+05 +8.9463695708856449e+07 
+3.4999999999999956e+00 -5.5466514209531770e-01 +7.3326098982915537e+00 +5.0648114623121332e+00 -1.1194929920399736e+02 -1.5278628294109765e+04 +5.8978748774113052e+05 +9.0458661742700174e+07 
+3.5499999999999954e+00 -5.5468995970851298e-01 +7.3339233040511687e+00 +5.0454125788744157e+00 -1.1140493859248663e+02 -1.5455312252760768e+04 +5.8897659645968629e+05 +9.1479578387487128e+07 
+3.5999999999999952e+00 -5.5471503797642796e-01 +7.3352485974604447e+00 +5.0259786341365134e+00 -1.1086952027825264e+02 -1.5636074210877312e+04 +5.8824911201885808e+05 +9.2525888220105186e+07 
+3.6499999999999950e+00 -5.5474037461997616e-01 +7.3365855889350078e+00 +5.0065073459450646e+00 -1.1034235061118288e+02 -1.5820806103476443e+04 +5.8760030896971654e+05 +9.3597034452692181e+07 
+3.6999999999999948e+00 -5.5476596736006356e-01 +7.3379340888951532e+00 +4.9869964300287037e+00 -1.0982273614707056e+02 -1.6009399806314483e+04 +5.8702546361512656e+05 +9.4692459885713771e+07 
+3.7499999999999947e+00 -5.5479181391761101e-01 +7.3392939077576260e+00 +4.9674436047197208e+00 -1.0930998326925452e+02 -1.6201747269431842e+04 +5.8651985073053208e+05 +9.5811607837032601e+07 
+3.7999999999999945e+00 -5.5481791201351860e-01 +7.3406648559420287e+00 +4.9478465839962364e+00 -1.0880339849023257e+02 -1.6397740326564155e+04 +5.8607874620580138e+05 +9.6953920843027622e+07 
+3.8499999999999943e+00 -5.5484425936871662e-01 +7.3420467438681518e+00 +4.9282030861792769e+00 -1.0830228830658358e+02 -1.6597270923562082e+04 +5.8569742569837323e+05 +9.8118842178776339e+07 
+3.8999999999999941e+00 -5.5487085370410294e-01 +7.3434393819549815e+00 +4.9085108247641438e+00 -1.0780595919056499e+02 -1.6800230887911363e+04 +5.8537116469956841e+05 +9.9305814361667007e+07 
+3.9499999999999940e+00 -5.5489769274061318e-01 +7.3448425806230464e+00 +4.8887675184276311e+00 -1.0731371766908958e+02 -1.7006512178473171e+04 +5.8509523910240969e+05 +1.0051428076566157e+08 
+3.9999999999999938e+00 -5.5492477419916630e-01 +7.3462561502915635e+00 +4.8689708831461562e+00 -1.0682487019841632e+02 -1.7216006684721338e+04 +5.8486492419890652e+05 +1.0174368431130019e+08 
+4.0499999999999936e+00 -5.5495209570515125e-01 +7.3476799093894414e+00 +4.8491175441214329e+00 -1.0633890516308607e+02 -1.7428563332507092e+04 +5.8467625673894479e+05 +1.0299317271357757e+08 
+4.0999999999999934e+00 -5.5497965450158138e-01 +7.3491137047798141e+00 +4.8291993115206502e+00 -1.0585610502122027e+02 -1.7643847577638800e+04 +5.8452865636202623e+05 +1.0426065943111177e+08 
+4.1499999999999932e+00 -5.5500744773577548e-01 +7.3505573895480927e+00 +4.8092066822088535e+00 -1.0537696732207691e+02 -1.7861475655058515e+04 +5.8442246330388053e+05 +1.0554373332823293e+08 
+4.1999999999999931e+00 -5.5503547255504937e-01 +7.3520108167866560e+00 +4.7891301524389958e+00 -1.0490198992702980e+02 -1.8081063783129157e+04 +5.8435802035918948e+05 +1.0683998316909254e+08 
+4.2499999999999929e+00 -5.5506372610671606e-01 +7.3534738395818078e+00 +4.7689602181508848e+00 -1.0443167047909402e+02 -1.8302228172429019e+04 +5.8433566860822309e+05 +1.0814699766892646e+08 
+4.2999999999999927e+00 -5.5509220553809158e-01 +7.3549463110234665e+00 +4.7486873746207694e+00 -1.0396650675285568e+02 -1.8524585004992488e+04 +5.8435575010079250e+05 +1.0946236531603073e+08 
+4.3499999999999925e+00 -5.5512090799650116e-01 +7.3564280842025287e+00 +4.7283021194030326e+00 -1.0350699660741243e+02 -1.8747750527876458e+04 +5.8441860772016866e+05 +1.1078367505287093e+08 
+4.3999999999999924e+00 -5.5514983062926426e-01 +7.3579190122112736e+00 +4.7077949487928219e+00 -1.0305363795253554e+02 -1.8971340953426479e+04 +5.8452458469425642e+05 +1.1210851559029223e+08 
+4.4499999999999922e+00 -5.5517897058369658e-01 +7.3594189481406707e+00 +4.6871563577571083e+00 -1.0260692867759653e+02 -1.9194972447974771e+04 +5.8467402416674723e+05 +1.1343447529403418e+08 
+4.4999999999999920e+00 -5.5520832500712425e-01 +7.3609277450824244e+00 +4.6663768434579964e+00 -1.0216736671038748e+02 -1.9418261241054293e+04 +5.8486726958056365e+05 +1.1475914297647631e+08 
+4.5499999999999918e+00 -5.5523789104686161e-01 +7.3624452561312719e+00 +4.6454469010775830e+00 -1.0173545013507298e+02 -1.9640823503101936e+04 +5.8510466574067017e+05 +1.1608010702984908e+08 
+4.5999999999999917e+00 -5.5526766585024123e-01 +7.3639713343795181e+00 +4.6243570288268225e+00 -1.0131167693297056e+02 -1.9862275486417970e+04 +5.8538655653267715e+05 +1.1739495640984090e+08 
+4.6499999999999915e+00 -5.5529764656457947e-01 +7.3655058329235050e+00 +4.6030977216344082e+00 -1.0089654529119046e+02 -2.0082233344231430e+04 +5.8571328764034226e+05 +1.1870127936450006e+08 
+4.6999999999999913e+00 -5.5532783033719557e-01 +7.3670486048573141e+00 +4.5816594762687535e+00 -1.0049055331707075e+02 -2.0300313288358033e+04 +5.8608520408318262e+05 +1.1999666457580931e+08 
+4.7499999999999911e+00 -5.5535821431540988e-01 +7.3685995032787375e+00 +4.5600327883267182e+00 -1.0009419929863112e+02 -2.0516131484313857e+04 +5.8650265241383936e+05 +1.2127870036496948e+08 
+4.7999999999999909e+00 -5.5538879564653754e-01 +7.3701583812826970e+00 +4.5382081536519072e+00 -9.9707981411873362e+01 -2.0729304108405613e+04 +5.8696597822389356e+05 +1.2254497514432833e+08 
+4.8499999999999908e+00 -5.5541957147790966e-01 +7.3717250919680666e+00 +4.5161760707008813e+00 -9.9332398038592217e+01 -2.0939447401175799e+04 +5.8747552890307631e+05 +1.2379307774246269e+08 
+4.8999999999999906e+00 -5.5545053895683794e-01 +7.3732994884339167e+00 +4.4939270347884541e+00 -9.8967947582837354e+01 -2.1146177515795731e+04 +5.8803165200974129e+05 +1.2502059639301869e+08 
+4.9499999999999904e+00 -5.5548169523063728e-01 +7.3748814237783771e+00 +4.4714515421042851e+00 -9.8615128435459653e+01 -2.1349110626385089e+04 +5.8863469502250722e+05 +1.2622511946740869e+08 
+4.9999999999999902e+00 -5.5551303744661762e-01 +7.3764707511021657e+00 +4.4487400882058976e+00 -9.8274439119553591e+01 -2.1547862885200040e+04 +5.8928500653644581e+05 +1.2740423517472352e+08 
+5.0499999999999901e+00 -5.5554456275209974e-01 +7.3780673235069330e+00 +4.4257831712263211e+00 -9.7946378227784564e+01 -2.1742050512526548e+04 +5.8998293576959451e+05 +1.2855553218336844e+08 
