# field on trajectory
# s[mm] rx[mm] ry[mm] rz[mm] bx[T] by[T] bz[T]
0.0000000000000000e+00 +2.4750000000000001e+00 +0.0000000000000000e+00 +0.0000000000000000e+00 +4.5940239301411335e-19 -5.6046110885879830e-01 +4.1743800532684176e-17
5.0000000000000003e-02 +2.4749999299908230e+00 +0.0000000000000000e+00 +4.9999999999934645e-02 +9.5393331442467847e-19 -5.6046125159161464e-01 +4.3221450258133531e-17
1.0000000000000001e-01 +2.4749997199632556e+00 +0.0000000000000000e+00 +9.9999999999477202e-02 +2.3624979799660432e-18 -5.6046167945982051e-01 +4.4258917105511358e-17
1.5000000000000002e-01 +2.4749993699171910e+00 +0.0000000000000000e+00 +1.4999999999823554e-01 +4.5725535615853573e-18 -5.6046239196807102e-01 +4.4874402428334438e-17
2.0000000000000001e-01 +2.4749988798524516e+00 +0.0000000000000000e+00 +1.9999999999581758e-01 +7.4715564288875791e-18 -5.6046338862104572e-01 +4.5086107736716414e-17
2.5000000000000000e-01 +2.4749982497687881e+00 +0.0000000000000000e+00 +2.4999999999183117e-01 +1.0946962279568792e-17 -5.6046466892344959e-01 +4.4912234602210513e-17
2.9999999999999999e-01 +2.4749974796658805e+00 +0.0000000000000000e+00 +2.9999999998588422e-01 +1.4886226269848676e-17 -5.6046623238001303e-01 +4.4370984562653242e-17
3.4999999999999998e-01 +2.4749965695433387e+00 +0.0000000000000000e+00 +3.4999999997758469e-01 +1.9176803144902564e-17 -5.6046807849549130e-01 +4.3480559027008357e-17
3.9999999999999997e-01 +2.4749955194007009e+00 +0.0000000000000000e+00 +3.9999999996654034e-01 +2.3706147369293730e-17 -5.6047020677466453e-01 +4.2259159180211414e-17
4.4999999999999996e-01 +2.4749943292374361e+00 +0.0000000000000000e+00 +4.4999999995235912e-01 +2.8361713257406352e-17 -5.6047261672233883e-01 +4.0724985888014393e-17
4.9999999999999994e-01 +2.4749929990529420e+00 +0.0000000000000000e+00 +4.9999999993464889e-01 +3.3030955103879446e-17 -5.6047530784334521e-01 +3.8896239601830488e-17
5.4999999999999993e-01 +2.4749915288465458e+00 +0.0000000000000000e+00 +5.4999999991301751e-01 +3.7601327314042692e-17 -5.6047827964254004e-01 +3.6791120263578610e-17
5.9999999999999998e-01 +2.4749899186175059e+00 +0.0000000000000000e+00 +5.9999999988707275e-01 +4.1960284534354451e-17 -5.6048153162480485e-01 +3.4427827210527684e-17
6.5000000000000002e-01 +2.4749881683650092e+00 +0.0000000000000000e+00 +6.4999999985642254e-01 +4.5995281782842194e-17 -5.6048506329504633e-01 +3.1824559080140480e-17
7.0000000000000007e-01 +2.4749862780881737e+00 +0.0000000000000000e+00 +6.9999999982067473e-01 +4.9593774579546530e-17 -5.6048887415819715e-01 +2.8999513714916617e-17
7.5000000000000011e-01 +2.4749842477860478e+00 +0.0000000000000000e+00 +7.4999999977943710e-01 +5.2643219076968550e-17 -5.6049296371921431e-01 +2.5970888067234881e-17
8.0000000000000016e-01 +2.4749820774576090e+00 +0.0000000000000000e+00 +7.9999999973231750e-01 +5.5031072190521678e-17 -5.6049733148308112e-01 +2.2756878104194644e-17
8.5000000000000020e-01 +2.4749797671017668e+00 +0.0000000000000000e+00 +8.4999999967892370e-01 +5.6644791728988053e-17 -5.6050197695480630e-01 +1.9375678712455785e-17
9.0000000000000024e-01 +2.4749773167173603e+00 +0.0000000000000000e+00 +8.9999999961886346e-01 +5.7371836524980134e-17 -5.6050689963942313e-01 +1.5845483603077508e-17
9.5000000000000029e-01 +2.4749747263031598e+00 +0.0000000000000000e+00 +9.4999999955174463e-01 +5.7099666565408165e-17 -5.6051209904199095e-01 +1.2184485216355663e-17
1.0000000000000002e+00 +2.4749719958578664e+00 +0.0000000000000000e+00 +9.9999999947717499e-01 +5.5715743121953726e-17 -5.6051757466759455e-01 +8.4108746266582803e-18
1.0500000000000003e+00 +2.4749691253801123e+00 +0.0000000000000000e+00 +1.0499999993947622e+00 +5.3145569056798349e-17 -5.6052332596721655e-01 +4.5446127055979894e-18
1.1000000000000003e+00 +2.4749661148684607e+00 +0.0000000000000000e+00 +1.0999999993041141e+00 +4.9466809079970848e-17 -5.6052935217535227e-01 +6.1274449026187522e-19
1.1500000000000004e+00 +2.4749629643214059e+00 +0.0000000000000000e+00 +1.1499999992048382e+00 +4.4795168581929273e-17 -5.6053565247239479e-01 -3.3559133747776362e-18
1.2000000000000004e+00 +2.4749596737373745e+00 +0.0000000000000000e+00 +1.1999999990965424e+00 +3.9246353351709910e-17 -5.6054222603875969e-01 -7.3325435909830919e-18
1.2500000000000004e+00 +2.4749562431147236e+00 +0.0000000000000000e+00 +1.2499999989788344e+00 +3.2936069566581623e-17 -5.6054907205488702e-01 -1.1288328060959232e-17
1.3000000000000005e+00 +2.4749526724517432e+00 +0.0000000000000000e+00 +1.2999999988513218e+00 +2.5980023781697803e-17 -5.6055618970123977e-01 -1.5194447743560531e-17
1.3500000000000005e+00 +2.4749489617466551e+00 +0.0000000000000000e+00 +1.3499999987136122e+00 +1.8493922919745448e-17 -5.6056357815830493e-01 -1.9022082508998814e-17
1.4000000000000006e+00 +2.4749451109976137e+00 +0.0000000000000000e+00 +1.3999999985653131e+00 +1.0593474260590900e-17 -5.6057123660659236e-01 -2.2742410993951017e-17
1.4500000000000006e+00 +2.4749411202027054e+00 +0.0000000000000000e+00 +1.4499999984060323e+00 +2.3943854309218193e-18 -5.6057916422663479e-01 -2.6326610456667216e-17
1.5000000000000007e+00 +2.4749369893599500e+00 +0.0000000000000000e+00 +1.4999999982353773e+00 -5.9876356061137310e-18 -5.6058736019898836e-01 -2.9745856632078595e-17
1.5500000000000007e+00 +2.4749327184673002e+00 +0.0000000000000000e+00 +1.5499999980529557e+00 -1.4436880561273675e-17 -5.6059582370423100e-01 -3.2971323586905872e-17
1.6000000000000008e+00 +2.4749283075226414e+00 +0.0000000000000000e+00 +1.5999999978583750e+00 -2.2837640829591712e-17 -5.6060455392296471e-01 -3.5974183574767678e-17
1.6500000000000008e+00 +2.4749237565237925e+00 +0.0000000000000000e+00 +1.6499999976512427e+00 -3.1074207500752437e-17 -5.6061355003581292e-01 -3.8725606891289286e-17
1.7000000000000008e+00 +2.4749190654685060e+00 +0.0000000000000000e+00 +1.6999999974311664e+00 -3.9030871369471474e-17 -5.6062281122342095e-01 -4.1196761729211288e-17
1.7500000000000009e+00 +2.4749142343544683e+00 +0.0000000000000000e+00 +1.7499999971977533e+00 -4.6591922945880720e-17 -5.6063233666645740e-01 -4.3358814033498892e-17
1.8000000000000009e+00 +2.4749092631792999e+00 +0.0000000000000000e+00 +1.7999999969506111e+00 -5.3641652465919791e-17 -5.6064212554561244e-01 -4.5182927356450973e-17
1.8500000000000010e+00 +2.4749041519405552e+00 +0.0000000000000000e+00 +1.8499999966893470e+00 -6.0064349901733029e-17 -5.6065217704159798e-01 -4.6640262712809626e-17
1.9000000000000010e+00 +2.4748989006357234e+00 +0.0000000000000000e+00 +1.8999999964135685e+00 -6.5744304972073521e-17 -5.6066249033514715e-01 -4.7701978434869986e-17
1.9500000000000011e+00 +2.4748935092622277e+00 +0.0000000000000000e+00 +1.9499999961228831e+00 -7.0565807152712845e-17 -5.6067306460701560e-01 -4.8339230027590210e-17
2.0000000000000009e+00 +2.4748879778174269e+00 +0.0000000000000000e+00 +1.9999999958168979e+00 -7.4413145686858822e-17 -5.6068389903797955e-01 -4.8523170023701665e-17
2.0500000000000007e+00 +2.4748823062986136e+00 +0.0000000000000000e+00 +2.0499999954952202e+00 -7.7202123346979372e-17 -5.6069499268945577e-01 -4.8236177991701101e-17
2.1000000000000005e+00 +2.4748764947030168e+00 +0.0000000000000000e+00 +2.0999999951574573e+00 -7.8974597985003187e-17 -5.6070634414535525e-01 -4.7505552355115243e-17
2.1500000000000004e+00 +2.4748705430278006e+00 +0.0000000000000000e+00 +2.1499999948032165e+00 -7.9803941737746439e-17 -5.6071795187022400e-01 -4.6369822519762713e-17
2.2000000000000002e+00 +2.4748644512700655e+00 +0.0000000000000000e+00 +2.1999999944321051e+00 -7.9763527377161298e-17 -5.6072981432862479e-01 -4.4867519200446263e-17
2.2500000000000000e+00 +2.4748582194268476e+00 +0.0000000000000000e+00 +2.2499999940437303e+00 -7.8926728366611399e-17 -5.6074192998513495e-01 -4.3037174546107181e-17
2.2999999999999998e+00 +2.4748518474951200e+00 +0.0000000000000000e+00 +2.2999999936376989e+00 -7.7366918917145661e-17 -5.6075429730434734e-01 -4.0917322264978802e-17
2.3499999999999996e+00 +2.4748453354717936e+00 +0.0000000000000000e+00 +2.3499999932136180e+00 -7.5157474043771193e-17 -5.6076691475086915e-01 -3.8546497749740347e-17
2.3999999999999995e+00 +2.4748386833537159e+00 +0.0000000000000000e+00 +2.3999999927710949e+00 -7.2371769621724958e-17 -5.6077978078932167e-01 -3.5963238202670430e-17
2.4499999999999993e+00 +2.4748318911376730e+00 +0.0000000000000000e+00 +2.4499999923097366e+00 -6.9083182442743748e-17 -5.6079289388434028e-01 -3.3206082760800285e-17
2.4999999999999991e+00 +2.4748249588203888e+00 +0.0000000000000000e+00 +2.4999999918291502e+00 -6.5365090271332985e-17 -5.6080625250057303e-01 -3.0313572621066696e-17
2.5499999999999989e+00 +2.4748178863985260e+00 +0.0000000000000000e+00 +2.5499999913289422e+00 -6.1290871901033898e-17 -5.6081985510268140e-01 -2.7324251165464702e-17
2.5999999999999988e+00 +2.4748106738686864e+00 +0.0000000000000000e+00 +2.5999999908087199e+00 -5.6933907210688721e-17 -5.6083370015533862e-01 -2.4276664086199859e-17
2.6499999999999986e+00 +2.4748033212274114e+00 +0.0000000000000000e+00 +2.6499999902680904e+00 -5.2367577220704702e-17 -5.6084778612323138e-01 -2.1209359510840173e-17
2.6999999999999984e+00 +2.4747958284711822e+00 +0.0000000000000000e+00 +2.6999999897066602e+00 -4.7665264149316067e-17 -5.6086211147105647e-01 -1.8160888127467689e-17
2.7499999999999982e+00 +2.4747881955964197e+00 +0.0000000000000000e+00 +2.7499999891240359e+00 -4.2900351468843841e-17 -5.6087667466352220e-01 -1.5169803309829386e-17
2.7999999999999980e+00 +2.4747804225994856e+00 +0.0000000000000000e+00 +2.7999999885198248e+00 -3.8146223961954122e-17 -5.6089147416534801e-01 -1.2274661242487725e-17
2.8499999999999979e+00 +2.4747725094766828e+00 +0.0000000000000000e+00 +2.8499999878936335e+00 -3.3476267777913901e-17 -5.6090650844126344e-01 -9.5140210459706976e-18
2.8999999999999977e+00 +2.4747644562242557e+00 +0.0000000000000000e+00 +2.8999999872450686e+00 -2.8963870488845035e-17 -5.6092177595600812e-01 -6.9264449019210708e-18
2.9499999999999975e+00 +2.4747562628383899e+00 +0.0000000000000000e+00 +2.9499999865737365e+00 -2.4682421145975772e-17 -5.6093727517433034e-01 -4.5504981782451276e-18
2.9999999999999973e+00 +2.4747479293152130e+00 +0.0000000000000000e+00 +2.9999999858792439e+00 -2.0705310335889934e-17 -5.6095300456098829e-01 -2.4247495542606179e-18
3.0499999999999972e+00 +2.4747394556507962e+00 +0.0000000000000000e+00 +3.0499999851611976e+00 -1.7090999322551547e-17 -5.6096896250258999e-01 -5.7857131053103928e-19
3.0999999999999970e+00 +2.4747308418411524e+00 +0.0000000000000000e+00 +3.0999999844192039e+00 -1.3838226654332795e-17 -5.6098514707312219e-01 +9.9546157509573611e-19
3.1499999999999968e+00 +2.4747220878822387e+00 +0.0000000000000000e+00 +3.1499999836528696e+00 -1.0930799804310829e-17 -5.6100155626843351e-01 +2.3139744736794578e-18
3.1999999999999966e+00 +2.4747131937699556e+00 +0.0000000000000000e+00 +3.1999999828618009e+00 -8.3525259260443568e-18 -5.6101818808439652e-01 +3.3935936749956411e-18
3.2499999999999964e+00 +2.4747041595001478e+00 +0.0000000000000000e+00 +3.2499999820456043e+00 -6.0872118298127196e-18 -5.6103504051690622e-01 +4.2509464443459585e-18
3.2999999999999963e+00 +2.4746949850686057e+00 +0.0000000000000000e+00 +3.2999999812038858e+00 -4.1186639588522896e-18 -5.6105211156188139e-01 +4.9026610793695027e-18
3.3499999999999961e+00 +2.4746856704710645e+00 +0.0000000000000000e+00 +3.3499999803362521e+00 -2.4306883655901565e-18 -5.6106939921526433e-01 +5.3653669668548573e-18
3.3999999999999959e+00 +2.4746762157032052e+00 +0.0000000000000000e+00 +3.3999999794423093e+00 -1.0070906878748673e-18 -5.6108690147302009e-01 +5.6556946395530027e-18
3.4499999999999957e+00 +2.4746666207606554e+00 +0.0000000000000000e+00 +3.4499999785216637e+00 +1.6832387479568729e-19 -5.6110461633113839e-01 +5.7902758329911476e-18
3.4999999999999956e+00 +2.4746568856389897e+00 +0.0000000000000000e+00 +3.4999999775739212e+00 +1.1117505850494073e-18 -5.6112254178563303e-01 +5.7857435422873429e-18
3.5499999999999954e+00 +2.4746470103337299e+00 +0.0000000000000000e+00 +3.5499999765986883e+00 +1.8393851914181930e-18 -5.6114067583254101e-01 +5.6587320789660724e-18
3.5999999999999952e+00 +2.4746369948403459e+00 +0.0000000000000000e+00 +3.5999999755955709e+00 +2.3674239521192600e-18 -5.6115901646792432e-01 +5.4258771277746260e-18
3.6499999999999950e+00 +2.4746268391542556e+00 +0.0000000000000000e+00 +3.6499999745641749e+00 +2.7120636588396671e-18 -5.6117756168786981e-01 +5.1038158035004497e-18
3.6999999999999948e+00 +2.4746165432708263e+00 +0.0000000000000000e+00 +3.6999999735041063e+00 +2.8895016605241269e-18 -5.6119630948848775e-01 +4.7091867077893135e-18
3.7499999999999947e+00 +2.4746061071853740e+00 +0.0000000000000000e+00 +3.7499999724149711e+00 +2.9159358871661145e-18 -5.6121525786591464e-01 +4.2586299859644186e-18
3.7999999999999945e+00 +2.4745955308931653e+00 +0.0000000000000000e+00 +3.7999999712963750e+00 +2.8075648736024274e-18 -5.6123440481631126e-01 +3.7687873838463949e-18
3.8499999999999943e+00 +2.4745848143894169e+00 +0.0000000000000000e+00 +3.8499999701479242e+00 +2.5805877833111599e-18 -5.6125374833586372e-01 +3.2563023045741661e-18
3.8999999999999941e+00 +2.4745739576692962e+00 +0.0000000000000000e+00 +3.8999999689692242e+00 +2.2512044322132742e-18 -5.6127328642078278e-01 +2.7378198654267441e-18
3.9499999999999940e+00 +2.4745629607279223e+00 +0.0000000000000000e+00 +3.9499999677598807e+00 +1.8356153124777178e-18 -5.6129301706730628e-01 +2.2299869546458816e-18
3.9999999999999938e+00 +2.4745518235603661e+00 +0.0000000000000000e+00 +3.9999999665194994e+00 +1.3500216163302409e-18 -5.6131293827169659e-01 +1.7494522882596407e-18
4.0499999999999936e+00 +2.4745405461616512e+00 +0.0000000000000000e+00 +4.0499999652476859e+00 +8.0942666321853102e-19 -5.6133304802315365e-01 +1.3099817304316747e-18
4.0999999999999934e+00 +2.4745291285267532e+00 +0.0000000000000000e+00 +4.0999999639440459e+00 +2.2403972528703758e-19 -5.6135334428253603e-01 +9.1380348940590400e-19
4.1499999999999932e+00 +2.4745175706506020e+00 +0.0000000000000000e+00 +4.1499999626081845e+00 -3.9712886848138711e-19 -5.6137382500360267e-01 +5.6026126984062335e-19
4.1999999999999931e+00 +2.4745058725280811e+00 +0.0000000000000000e+00 +4.1999999612397074e+00 -1.0450692417028029e-18 -5.6139448814009574e-01 +2.4869886569137814e-19
4.2499999999999929e+00 +2.4744940341540280e+00 +0.0000000000000000e+00 +4.2499999598382203e+00 -1.7107719836516978e-18 -5.6141533164574076e-01 -2.1539840793300003e-20
4.2999999999999927e+00 +2.4744820555232363e+00 +0.0000000000000000e+00 +4.2999999584033279e+00 -2.3852281623293103e-18 -5.6143635347424570e-01 -2.5111088007603589e-19
4.3499999999999925e+00 +2.4744699366304537e+00 +0.0000000000000000e+00 +4.3499999569346359e+00 -3.0594293375409351e-18 -5.6145755157929866e-01 -4.4067019633466292e-19
4.3999999999999924e+00 +2.4744576774703848e+00 +0.0000000000000000e+00 +4.3999999554317490e+00 -3.7243675739823590e-18 -5.6147892391456777e-01 -5.9087364846614485e-19
4.4499999999999922e+00 +2.4744452780376900e+00 +0.0000000000000000e+00 +4.4499999538942729e+00 -4.3710354543356715e-18 -5.6150046843370005e-01 -7.0237701109040208e-19
4.4999999999999920e+00 +2.4744327383269873e+00 +0.0000000000000000e+00 +4.4999999523218133e+00 -4.9904260923746094e-18 -5.6152218309032009e-01 -7.7583597555400481e-19
4.5499999999999918e+00 +2.4744200583328522e+00 +0.0000000000000000e+00 +4.5499999507139739e+00 -5.5735331460795465e-18 -5.6154406583802885e-01 -8.1190615093378010e-19
4.5999999999999917e+00 +2.4744072380498174e+00 +0.0000000000000000e+00 +4.5999999490703605e+00 -6.1113508307624912e-18 -5.6156611463040307e-01 -8.1124306504030259e-19
4.6499999999999915e+00 +2.4743942774723751e+00 +0.0000000000000000e+00 +4.6499999473905786e+00 -6.5948739322021128e-18 -5.6158832742099341e-01 -7.7450216542126324e-19
4.6999999999999913e+00 +2.4743811765949757e+00 +0.0000000000000000e+00 +4.6999999456742323e+00 -7.0150978197890017e-18 -5.6161070216332432e-01 -7.0233882036475009e-19
4.7499999999999911e+00 +2.4743679354120300e+00 +0.0000000000000000e+00 +4.7499999439209262e+00 -7.3630184596814773e-18 -5.6163323681089272e-01 -5.9540831990239736e-19
4.7999999999999909e+00 +2.4743545539179079e+00 +0.0000000000000000e+00 +4.7999999421302659e+00 -7.6296324279719212e-18 -5.6165592931716590e-01 -4.5436587681244921e-19
4.8499999999999908e+00 +2.4743410321069406e+00 +0.0000000000000000e+00 +4.8499999403018554e+00 -7.8059369238640448e-18 -5.6167877763558227e-01 -2.7986662762269945e-19
4.8999999999999906e+00 +2.4743273699734201e+00 +0.0000000000000000e+00 +4.8999999384353004e+00 -7.8829297828610768e-18 -5.6170177971954860e-01 -7.2565633613318969e-20
4.9499999999999904e+00 +2.4743135675115999e+00 +0.0000000000000000e+00 +4.9499999365302045e+00 -7.8516094899651776e-18 -5.6172493352243968e-01 +1.6688211818039696e-19
4.9999999999999902e+00 +2.4742996247156959e+00 +0.0000000000000000e+00 +4.9999999345861728e+00 -7.7029751928882129e-18 -5.6174823699759768e-01 +4.3782171396542460e-19
5.0499999999999901e+00 +2.4742855415798863e+00 +0.0000000000000000e+00 +5.0499999326028089e+00 -7.4318411695505731e-18 -5.6177168803760413e-01 +7.3818524306954950e-19
5.0999999999999899e+00 +2.4742713180983125e+00 +0.0000000000000000e+00 +5.0999999305797186e+00 -7.0482794263381189e-18 -5.6179528429211889e-01 +1.0602517927330352e-18
5.1499999999999897e+00 +2.4742569542650799e+00 +0.0000000000000000e+00 +5.1499999285165048e+00 -6.5661748245365528e-18 -5.6181902335008516e-01 +1.3948852840819946e-18
5.1999999999999895e+00 +2.4742424500742577e+00 +0.0000000000000000e+00 +5.1999999264127732e+00 -5.9994103406574504e-18 -5.6184290280046156e-01 +1.7329473031869227e-18
5.2499999999999893e+00 +2.4742278055198805e+00 +0.0000000000000000e+00 +5.2499999242681268e+00 -5.3618670172717196e-18 -5.6186692023222140e-01 +2.0652970427045033e-18
5.2999999999999892e+00 +2.4742130205959483e+00 +0.0000000000000000e+00 +5.2999999220821703e+00 -4.6674239138258510e-18 -5.6189107323435328e-01 +2.3827912435136858e-18
5.3499999999999890e+00 +2.4741980952964271e+00 +0.0000000000000000e+00 +5.3499999198545085e+00 -3.9299580574411198e-18 -5.6191535939586046e-01 +2.6762841363458686e-18
5.3999999999999888e+00 +2.4741830296152498e+00 +0.0000000000000000e+00 +5.3999999175847444e+00 -3.1633443936951650e-18 -5.6193977630576208e-01 +2.9366273834091569e-18
5.4499999999999886e+00 +2.4741678235463165e+00 +0.0000000000000000e+00 +5.4499999152724827e+00 -2.3814557373857486e-18 -5.6196432155309339e-01 +3.1546700200066738e-18
5.4999999999999885e+00 +2.4741524770834955e+00 +0.0000000000000000e+00 +5.4999999129173274e+00 -1.5981627232764738e-18 -5.6198899272690439e-01 +3.3212583961487799e-18
5.5499999999999883e+00 +2.4741369902206234e+00 +0.0000000000000000e+00 +5.5499999105188813e+00 -8.2733375682418129e-19 -5.6201378741626173e-01 +3.4272361181592413e-18
5.5999999999999881e+00 +2.4741213629515055e+00 +0.0000000000000000e+00 +5.5999999080767493e+00 -8.2834964887697046e-20 -5.6203870321024807e-01 +3.4634439902752033e-18
5.6499999999999879e+00 +2.4741055952699180e+00 +0.0000000000000000e+00 +5.6499999055905352e+00 +6.2146985358225935e-19 -5.6206373769796236e-01 +3.4207199562409693e-18
5.6999999999999877e+00 +2.4740896871696063e+00 +0.0000000000000000e+00 +5.6999999030598421e+00 +1.2717192768722655e-18 -5.6208888846851968e-01 +3.2898990408955260e-18
5.7499999999999876e+00 +2.4740736386442874e+00 +0.0000000000000000e+00 +5.7499999004842737e+00 +1.8540543098548690e-18 -5.6211415311105217e-01 +3.0618132917536969e-18
5.7999999999999874e+00 +2.4740574496876500e+00 +0.0000000000000000e+00 +5.7999998978634340e+00 +2.3546184333568497e-18 -5.6213952921470844e-01 +2.7272917205810063e-18
5.8499999999999872e+00 +2.4740411202933541e+00 +0.0000000000000000e+00 +5.8499998951969259e+00 +2.7595576535473897e-18 -5.6216501436865440e-01 +2.2771602449620572e-18
5.8999999999999870e+00 +2.4740246504550334e+00 +0.0000000000000000e+00 +5.8999998924843533e+00 +3.0550205513464894e-18 -5.6219060616207295e-01 +1.7022416298624723e-18
