# field on trajectory
# s[mm] rx[mm] ry[mm] rz[mm] bx[T] by[T] bz[T]
-0.0000000000000000e+00 +8.5269999999999904e+00 +0.0000000000000000e+00 -0.0000000000000000e+00 -3.0952340487062229e-02 -5.8092864367391039e-01 +5.6112733771030779e-03
-5.0000000000000003e-02 +8.5269999309457507e+00 +0.0000000000000000e+00 -4.9999999999936401e-02 -3.0952035866803011e-02 -5.8092812067603161e-01 +5.6112027623324819e-03
-1.0000000000000001e-01 +8.5269997237883199e+00 +0.0000000000000000e+00 -9.9999999999491399e-02 -3.0951747252467906e-02 -5.8092791576759772e-01 +5.6111440158421897e-03
-1.4999999999999999e-01 +8.5269993785295792e+00 +0.0000000000000000e+00 -1.4999999999828301e-01 -3.0951474681954669e-02 -5.8092802839497482e-01 +5.6110970574984242e-03
-2.0000000000000001e-01 +8.5269988951622508e+00 +0.0000000000000000e+00 -1.9999999999593099e-01 -3.0951218193166628e-02 -5.8092845800461268e-01 +5.6110618071685695e-03
-2.5000000000000000e-01 +8.5269982736936107e+00 +0.0000000000000000e+00 -2.4999999999205300e-01 -3.0950977824002666e-02 -5.8092920404286297e-01 +5.6110381847194364e-03
-2.9999999999999999e-01 +8.5269975141200103e+00 +0.0000000000000000e+00 -2.9999999998626797e-01 -3.0950753612367803e-02 -5.8093026595617636e-01 +5.6110261100191352e-03
-3.4999999999999998e-01 +8.5269966164378292e+00 +0.0000000000000000e+00 -3.4999999997819298e-01 -3.0950545596168434e-02 -5.8093164319101653e-01 +5.6110255029362486e-03
-4.0000000000000002e-01 +8.5269955806543294e+00 +0.0000000000000000e+00 -3.9999999996744900e-01 -3.0950353813307758e-02 -5.8093333519377899e-01 +5.6110362833390491e-03
-4.5000000000000001e-01 +8.5269944067658798e+00 +0.0000000000000000e+00 -4.4999999995365297e-01 -3.0950178301694668e-02 -5.8093534141095560e-01 +5.6110583710970675e-03
-5.0000000000000000e-01 +8.5269930947724806e+00 +0.0000000000000000e+00 -4.9999999993642402e-01 -3.0950019099237659e-02 -5.8093766128902569e-01 +5.6110916860800438e-03
-5.5000000000000004e-01 +8.5269916446777607e+00 +0.0000000000000000e+00 -5.4999999991537996e-01 -3.0949876243844630e-02 -5.8094029427445426e-01 +5.6111361481579114e-03
-5.9999999999999998e-01 +8.5269900564744603e+00 +0.0000000000000000e+00 -5.9999999989013997e-01 -3.0949749773428917e-02 -5.8094323981380469e-01 +5.6111916772018525e-03
-6.5000000000000002e-01 +8.5269883301661995e+00 +0.0000000000000000e+00 -6.4999999986032297e-01 -3.0949639725900004e-02 -5.8094649735357029e-01 +5.6112581930827035e-03
-6.9999999999999996e-01 +8.5269864657566394e+00 +0.0000000000000000e+00 -6.9999999982554695e-01 -3.0949546139167977e-02 -5.8095006634025925e-01 +5.6113356156717422e-03
-7.5000000000000000e-01 +8.5269844632421208e+00 +0.0000000000000000e+00 -7.4999999978543097e-01 -3.0949469051146483e-02 -5.8095394622044993e-01 +5.6114238648412159e-03
-8.0000000000000004e-01 +8.5269823226226400e+00 +0.0000000000000000e+00 -7.9999999973959202e-01 -3.0949408499748050e-02 -5.8095813644070671e-01 +5.6115228604635458e-03
-8.4999999999999998e-01 +8.5269800438982202e+00 +0.0000000000000000e+00 -8.4999999968765005e-01 -3.0949364522885374e-02 -5.8096263644760793e-01 +5.6116325224115585e-03
-9.0000000000000002e-01 +8.5269776270688507e+00 +0.0000000000000000e+00 -8.9999999962922395e-01 -3.0949337158471420e-02 -5.8096744568774694e-01 +5.6117527705585191e-03
-9.4999999999999996e-01 +8.5269750721381605e+00 +0.0000000000000000e+00 -9.4999999956393100e-01 -3.0949326444417592e-02 -5.8097256360770344e-01 +5.6118835247778390e-03
-1.0000000000000000e+00 +8.5269723790988792e+00 +0.0000000000000000e+00 -9.9999999949139096e-01 -3.0949332418639813e-02 -5.8097798965415515e-01 +5.6120247049441319e-03
-1.0500000000000000e+00 +8.5269695479546499e+00 +0.0000000000000000e+00 -1.0499999994112199e+00 -3.0949355119049195e-02 -5.8098372327371040e-01 +5.6121762309316158e-03
-1.1000000000000001e+00 +8.5269665787091107e+00 +0.0000000000000000e+00 -1.0999999993230400e+00 -3.0949394583556583e-02 -5.8098976391299162e-01 +5.6123380226149070e-03
-1.1499999999999999e+00 +8.5269634713586093e+00 +0.0000000000000000e+00 -1.1499999992264700e+00 -3.0949450850075413e-02 -5.8099611101869220e-01 +5.6125099998695482e-03
-1.2000000000000000e+00 +8.5269602259031707e+00 +0.0000000000000000e+00 -1.1999999991211201e+00 -3.0949523956517067e-02 -5.8100276403749129e-01 +5.6126920825711971e-03
-1.2500000000000000e+00 +8.5269568423427700e+00 +0.0000000000000000e+00 -1.2499999990066200e+00 -3.0949613940792250e-02 -5.8100972241608317e-01 +5.6128841905958926e-03
-1.3000000000000000e+00 +8.5269533206774195e+00 +0.0000000000000000e+00 -1.2999999988825901e+00 -3.0949720840810886e-02 -5.8101698560117576e-01 +5.6130862438200473e-03
-1.3500000000000001e+00 +8.5269496609071194e+00 +0.0000000000000000e+00 -1.3499999987486300e+00 -3.0949844694482049e-02 -5.8102455303949263e-01 +5.6132981621204491e-03
-1.3999999999999999e+00 +8.5269458630355093e+00 +0.0000000000000000e+00 -1.3999999986043801e+00 -3.0949985539712208e-02 -5.8103242417774281e-01 +5.6135198653739686e-03
-1.4500000000000000e+00 +8.5269419270553009e+00 +0.0000000000000000e+00 -1.4499999984494401e+00 -3.0950143414411355e-02 -5.8104059846273426e-01 +5.6137512734586448e-03
-1.5000000000000000e+00 +8.5269378529737896e+00 +0.0000000000000000e+00 -1.4999999982834400e+00 -3.0950318356482064e-02 -5.8104907534117767e-01 +5.6139923062517956e-03
-1.5500000000000000e+00 +8.5269336407873197e+00 +0.0000000000000000e+00 -1.5499999981060000e+00 -3.0950510403830199e-02 -5.8105785425988177e-01 +5.6142428836318866e-03
-1.6000000000000001e+00 +8.5269292904959002e+00 +0.0000000000000000e+00 -1.5999999979167401e+00 -3.0950719594358592e-02 -5.8106693466564252e-01 +5.6145029254774503e-03
-1.6499999999999999e+00 +8.5269248020995292e+00 +0.0000000000000000e+00 -1.6499999977152600e+00 -3.0950945965968483e-02 -5.8107631600526988e-01 +5.6147723516673633e-03
-1.7000000000000000e+00 +8.5269201755982102e+00 +0.0000000000000000e+00 -1.6999999975011999e+00 -3.0951189556559431e-02 -5.8108599772558844e-01 +5.6150510820808198e-03
-1.7500000000000000e+00 +8.5269154109919292e+00 +0.0000000000000000e+00 -1.7499999972741700e+00 -3.0951450404029149e-02 -5.8109597927343848e-01 +5.6153390365973480e-03
-1.8000000000000000e+00 +8.5269105082843506e+00 +0.0000000000000000e+00 -1.7999999970337901e+00 -3.0951728546271883e-02 -5.8110626009564503e-01 +5.6156361350965106e-03
-1.8500000000000001e+00 +8.5269054674718099e+00 +0.0000000000000000e+00 -1.8499999967796801e+00 -3.0952024021182932e-02 -5.8111683963910565e-01 +5.6159422974587335e-03
-1.8999999999999999e+00 +8.5269002885506797e+00 +0.0000000000000000e+00 -1.8999999965114500e+00 -3.0952336866655373e-02 -5.8112771735073099e-01 +5.6162574435647226e-03
-1.9500000000000000e+00 +8.5268949715282396e+00 +0.0000000000000000e+00 -1.9499999962287300e+00 -3.0952667120575442e-02 -5.8113889267736418e-01 +5.6165814932947122e-03
-2.0000000000000000e+00 +8.5268895164008391e+00 +0.0000000000000000e+00 -1.9999999959311201e+00 -3.0953014820831553e-02 -5.8115036506594497e-01 +5.6169143665300049e-03
-2.0499999999999998e+00 +8.5268839230666291e+00 +0.0000000000000000e+00 -2.0499999956182600e+00 -3.0953379964124082e-02 -5.8116213374845471e-01 +5.6172559893042338e-03
-2.1000000000000001e+00 +8.5268781914164702e+00 +0.0000000000000000e+00 -2.0999999952897199e+00 -3.0953762382247275e-02 -5.8117419709402962e-01 +5.6176063122312945e-03
-2.1499999999999999e+00 +8.5268723214576294e+00 +0.0000000000000000e+00 -2.1499999949451398e+00 -3.0954161865719473e-02 -5.8118655325519264e-01 +5.6179652920617246e-03
-2.2000000000000002e+00 +8.5268663131864706e+00 +0.0000000000000000e+00 -2.1999999945841302e+00 -3.0954578205063824e-02 -5.8119920038455897e-01 +5.6183328855471211e-03
-2.2500000000000000e+00 +8.5268601666030008e+00 +0.0000000000000000e+00 -2.2499999942063100e+00 -3.0955011190802226e-02 -5.8121213663472393e-01 +5.6187090494390713e-03
-2.2999999999999998e+00 +8.5268538817035697e+00 +0.0000000000000000e+00 -2.2999999938113000e+00 -3.0955460613458500e-02 -5.8122536015831994e-01 +5.6190937404896934e-03
-2.3500000000000001e+00 +8.5268474584954692e+00 +0.0000000000000000e+00 -2.3499999933987001e+00 -3.0955926263552251e-02 -5.8123886910790123e-01 +5.6194869154505530e-03
-2.3999999999999999e+00 +8.5268408969750507e+00 +0.0000000000000000e+00 -2.3999999929681501e+00 -3.0956407931608164e-02 -5.8125266163611411e-01 +5.6198885310742470e-03
-2.4500000000000002e+00 +8.5268341971459396e+00 +0.0000000000000000e+00 -2.4499999925192602e+00 -3.0956905408148407e-02 -5.8126673589555655e-01 +5.6202985441130907e-03
-2.5000000000000000e+00 +8.5268273590008903e+00 +0.0000000000000000e+00 -2.4999999920516398e+00 -3.0957418483700282e-02 -5.8128109003891537e-01 +5.6207169113204180e-03
-2.5499999999999998e+00 +8.5268203825435194e+00 +0.0000000000000000e+00 -2.5499999915649201e+00 -3.0957946948787153e-02 -5.8129572221880066e-01 +5.6211435894489908e-03
-2.6000000000000001e+00 +8.5268132677774702e+00 +0.0000000000000000e+00 -2.5999999910586999e+00 -3.0958490593933099e-02 -5.8131063058782806e-01 +5.6215785352517929e-03
-2.6499999999999999e+00 +8.5268060146954703e+00 +0.0000000000000000e+00 -2.6499999905326099e+00 -3.0959049209667504e-02 -5.8132581329870325e-01 +5.6220217054828150e-03
-2.7000000000000002e+00 +8.5267986233047797e+00 +0.0000000000000000e+00 -2.6999999899862699e+00 -3.0959622586514489e-02 -5.8134126850402468e-01 +5.6224730568951902e-03
-2.7500000000000000e+00 +8.5267910936017905e+00 +0.0000000000000000e+00 -2.7499999894192899e+00 -3.0960210515003580e-02 -5.8135699435647958e-01 +5.6229325462430532e-03
-2.7999999999999998e+00 +8.5267834255828294e+00 +0.0000000000000000e+00 -2.7999999888312899e+00 -3.0960812785665277e-02 -5.8137298900876033e-01 +5.6234001302807295e-03
-2.8500000000000001e+00 +8.5267756192552007e+00 +0.0000000000000000e+00 -2.8499999882218900e+00 -3.0961429189026418e-02 -5.8138925061347868e-01 +5.6238757657619352e-03
-2.8999999999999999e+00 +8.5267676746152592e+00 +0.0000000000000000e+00 -2.8999999875907001e+00 -3.0962059515619492e-02 -5.8140577732333487e-01 +5.6243594094413651e-03
-2.9500000000000002e+00 +8.5267595916629908e+00 +0.0000000000000000e+00 -2.9499999869373399e+00 -3.0962703555976568e-02 -5.8142256729100494e-01 +5.6248510180736322e-03
-3.0000000000000000e+00 +8.5267513703984203e+00 +0.0000000000000000e+00 -2.9999999862614302e+00 -3.0963361100630832e-02 -5.8143961866916716e-01 +5.6253505484135076e-03
-3.0499999999999998e+00 +8.5267430108251592e+00 +0.0000000000000000e+00 -3.0499999855625899e+00 -3.0964031940115166e-02 -5.8145692961047613e-01 +5.6258579572156736e-03
-3.1000000000000001e+00 +8.5267345129359509e+00 +0.0000000000000000e+00 -3.0999999848404300e+00 -3.0964715864968299e-02 -5.8147449826767150e-01 +5.6263732012357542e-03
-3.1499999999999999e+00 +8.5267258767344192e+00 +0.0000000000000000e+00 -3.1499999840945798e+00 -3.0965412665725688e-02 -5.8149232279341234e-01 +5.6268962372287403e-03
-3.2000000000000002e+00 +8.5267171022205694e+00 +0.0000000000000000e+00 -3.1999999833246400e+00 -3.0966122132925711e-02 -5.8151040134038690e-01 +5.6274270219500286e-03
-3.2500000000000000e+00 +8.5267081893980503e+00 +0.0000000000000000e+00 -3.2499999825302401e+00 -3.0966844057106618e-02 -5.8152873206125744e-01 +5.6279655121548883e-03
-3.2999999999999998e+00 +8.5266991382632096e+00 +0.0000000000000000e+00 -3.2999999817109900e+00 -3.0967578228811236e-02 -5.8154731310874330e-01 +5.6285116645992629e-03
-3.3500000000000001e+00 +8.5266899488124199e+00 +0.0000000000000000e+00 -3.3499999808665200e+00 -3.0968324438583949e-02 -5.8156614263556461e-01 +5.6290654360392125e-03
-3.3999999999999999e+00 +8.5266806210529502e+00 +0.0000000000000000e+00 -3.3999999799964300e+00 -3.0969082476966121e-02 -5.8158521879435832e-01 +5.6296267832301287e-03
-3.4500000000000002e+00 +8.5266711549811607e+00 +0.0000000000000000e+00 -3.4499999791003502e+00 -3.0969852134505396e-02 -5.8160453973784543e-01 +5.6301956629283183e-03
-3.5000000000000000e+00 +8.5266615505970496e+00 +0.0000000000000000e+00 -3.4999999781778901e+00 -3.0970633201749580e-02 -5.8162410361871897e-01 +5.6307720318899256e-03
-3.5499999999999998e+00 +8.5266518079006293e+00 +0.0000000000000000e+00 -3.5499999772286701e+00 -3.0971425469248266e-02 -5.8164390858967141e-01 +5.6313558468711984e-03
-3.6000000000000001e+00 +8.5266419268882601e+00 +0.0000000000000000e+00 -3.5999999762523198e+00 -3.0972228727554427e-02 -5.8166395280342276e-01 +5.6319470646287624e-03
-3.6499999999999999e+00 +8.5266319075708505e+00 +0.0000000000000000e+00 -3.6499999752484298e+00 -3.0973042767216741e-02 -5.8168423441257955e-01 +5.6325456419182530e-03
-3.6999999999999900e+00 +8.5266217499374797e+00 +0.0000000000000000e+00 -3.6999999742166398e+00 -3.0973867378795095e-02 -5.8170475156991519e-01 +5.6331515354969986e-03
-3.7499999999999898e+00 +8.5266114539917908e+00 +0.0000000000000000e+00 -3.7499999731565601e+00 -3.0974702352845222e-02 -5.8172550242808962e-01 +5.6337647021213405e-03
-3.7999999999999901e+00 +8.5266010197374307e+00 +0.0000000000000000e+00 -3.7999999720678099e+00 -3.0975547479924863e-02 -5.8174648513975968e-01 +5.6343850985476904e-03
-3.8499999999999899e+00 +8.5265904471671092e+00 +0.0000000000000000e+00 -3.8499999709499999e+00 -3.0976402550598539e-02 -5.8176769785766536e-01 +5.6350126815333306e-03
-3.8999999999999901e+00 +8.5265797362881095e+00 +0.0000000000000000e+00 -3.8999999698027499e+00 -3.0977267355426802e-02 -5.8178913873443039e-01 +5.6356474078345419e-03
-3.9499999999999900e+00 +8.5265688870931609e+00 +0.0000000000000000e+00 -3.9499999686256899e+00 -3.0978141684978529e-02 -5.8181080592278822e-01 +5.6362892342087158e-03
-3.9999999999999898e+00 +8.5265578995895304e+00 +0.0000000000000000e+00 -3.9999999674184199e+00 -3.0979025329818752e-02 -5.8183269757535672e-01 +5.6369381174122407e-03
-4.0499999999999901e+00 +8.5265467737735907e+00 +0.0000000000000000e+00 -4.0499999661805601e+00 -3.0979918115700007e-02 -5.8185481172929054e-01 +5.6375940049663304e-03
-4.0999999999999899e+00 +8.5265355096416897e+00 +0.0000000000000000e+00 -4.0999999649117402e+00 -3.0980820009098638e-02 -5.8187714595956574e-01 +5.6382568074481642e-03
-4.1499999999999897e+00 +8.5265241072047502e+00 +0.0000000000000000e+00 -4.1499999636115703e+00 -3.0981731011665646e-02 -5.8189969772550321e-01 +5.6389264261979405e-03
-4.1999999999999904e+00 +8.5265125664518600e+00 +0.0000000000000000e+00 -4.1999999622796604e+00 -3.0982651125061076e-02 -5.8192246448659435e-01 +5.6396027625576087e-03
-4.2499999999999902e+00 +8.5265008873866499e+00 +0.0000000000000000e+00 -4.2499999609156403e+00 -3.0983580350938698e-02 -5.8194544370221968e-01 +5.6402857178681921e-03
-4.2999999999999901e+00 +8.5264890700091200e+00 +0.0000000000000000e+00 -4.2999999595191198e+00 -3.0984518690953623e-02 -5.8196863283178968e-01 +5.6409751934711197e-03
-4.3499999999999899e+00 +8.5264771143192792e+00 +0.0000000000000000e+00 -4.3499999580897200e+00 -3.0985466146760794e-02 -5.8199202933471617e-01 +5.6416710907079559e-03
-4.3999999999999897e+00 +8.5264650203207601e+00 +0.0000000000000000e+00 -4.3999999566270596e+00 -3.0986422720013382e-02 -5.8201563067038420e-01 +5.6423733109201421e-03
-4.4499999999999904e+00 +8.5264527880062797e+00 +0.0000000000000000e+00 -4.4499999551307496e+00 -3.0987388412368953e-02 -5.8203943429826410e-01 +5.6430817554500457e-03
-4.4999999999999902e+00 +8.5264404173794901e+00 +0.0000000000000000e+00 -4.4999999536004101e+00 -3.0988363225480171e-02 -5.8206343767774349e-01 +5.6437963256393605e-03
-4.5499999999999901e+00 +8.5264279084440204e+00 +0.0000000000000000e+00 -4.5499999520356598e+00 -3.0989347160999450e-02 -5.8208763826820997e-01 +5.6445169228299162e-03
-4.5999999999999899e+00 +8.5264152611962292e+00 +0.0000000000000000e+00 -4.5999999504361098e+00 -3.0990340220581971e-02 -5.8211203352910912e-01 +5.6452434483641959e-03
-4.6499999999999897e+00 +8.5264024756361305e+00 +0.0000000000000000e+00 -4.6499999488013897e+00 -3.0991342405881035e-02 -5.8213662091985785e-01 +5.6459758035845376e-03
-4.6999999999999904e+00 +8.5263895517600794e+00 +0.0000000000000000e+00 -4.6999999471311096e+00 -3.0992353718551188e-02 -5.8216139789990273e-01 +5.6467138898336705e-03
-4.7499999999999902e+00 +8.5263764895753393e+00 +0.0000000000000000e+00 -4.7499999454248902e+00 -3.0993374160241938e-02 -5.8218636192860607e-01 +5.6474576084536371e-03
-4.7999999999999901e+00 +8.5263632890782901e+00 +0.0000000000000000e+00 -4.7999999436823400e+00 -3.0994403732607079e-02 -5.8221151046541397e-01 +5.6482068607873939e-03
-4.8499999999999899e+00 +8.5263499502725608e+00 +0.0000000000000000e+00 -4.8499999419030901e+00 -3.0995442437296881e-02 -5.8223684096971751e-01 +5.6489615481774861e-03
-4.8999999999999897e+00 +8.5263364731472393e+00 +0.0000000000000000e+00 -4.8999999400867402e+00 -3.0996490275967348e-02 -5.8226235090101919e-01 +5.6497215719676207e-03
-4.9499999999999904e+00 +8.5263228577168793e+00 +0.0000000000000000e+00 -4.9499999382329296e+00 -3.0997547250263300e-02 -5.8228803771862536e-01 +5.6504868334997559e-03
-4.9999999999999902e+00 +8.5263091039705596e+00 +0.0000000000000000e+00 -4.9999999363412497e+00 -3.0998613361839820e-02 -5.8231389888203799e-01 +5.6512572341178178e-03
-5.0499999999999901e+00 +8.5262952115954196e+00 +0.0000000000000000e+00 -5.0499999344112600e+00 -3.0999688612479360e-02 -5.8233993185309729e-01 +5.6520326751880717e-03
-5.0999999999999899e+00 +8.5262811802713294e+00 +0.0000000000000000e+00 -5.0999999324424596e+00 -3.1000773003967006e-02 -5.8236613409370108e-01 +5.6528130580774409e-03
-5.1499999999999897e+00 +8.5262670100019005e+00 +0.0000000000000000e+00 -5.1499999304344799e+00 -3.1001866537950281e-02 -5.8239250306324009e-01 +5.6535982841291179e-03
-5.1999999999999904e+00 +8.5262527007798798e+00 +0.0000000000000000e+00 -5.1999999283869203e+00 -3.1002969216080738e-02 -5.8241903622118785e-01 +5.6543882546872025e-03
-5.2499999999999902e+00 +8.5262382526088896e+00 +0.0000000000000000e+00 -5.2499999262994104e+00 -3.1004081040004766e-02 -5.8244573102693342e-01 +5.6551828710950771e-03
-5.2999999999999901e+00 +8.5262236654925800e+00 +0.0000000000000000e+00 -5.2999999241715603e+00 -3.1005202011368155e-02 -5.8247258493986453e-01 +5.6559820346962220e-03
-5.3499999999999899e+00 +8.5262089394273097e+00 +0.0000000000000000e+00 -5.3499999220029704e+00 -3.1006332131819147e-02 -5.8249959541942298e-01 +5.6567856468347309e-03
-5.3999999999999897e+00 +8.5261940744130698e+00 +0.0000000000000000e+00 -5.3999999197932702e+00 -3.1007471403003816e-02 -5.8252675992502267e-01 +5.6575936088545256e-03
-5.4499999999999904e+00 +8.5261790704498708e+00 +0.0000000000000000e+00 -5.4499999175420601e+00 -3.1008619826567583e-02 -5.8255407591607433e-01 +5.6584058220996089e-03
-5.4999999999999902e+00 +8.5261639275377092e+00 +0.0000000000000000e+00 -5.4999999152489698e+00 -3.1009777404155170e-02 -5.8258154085198743e-01 +5.6592221879140604e-03
-5.5499999999999901e+00 +8.5261486456802196e+00 +0.0000000000000000e+00 -5.5499999129136004e+00 -3.1010944137409093e-02 -5.8260915219214238e-01 +5.6600426076417725e-03
-5.5999999999999899e+00 +8.5261332248737691e+00 +0.0000000000000000e+00 -5.5999999105355700e+00 -3.1012120027974169e-02 -5.8263690739597240e-01 +5.6608669826272466e-03
-5.6499999999999897e+00 +8.5261176651147306e+00 +0.0000000000000000e+00 -5.6499999081144896e+00 -3.1013305077494523e-02 -5.8266480392290965e-01 +5.6616952142150637e-03
-5.6999999999999904e+00 +8.5261019664103497e+00 +0.0000000000000000e+00 -5.6999999056499897e+00 -3.1014499287608896e-02 -5.8269283923229931e-01 +5.6625272037490650e-03
-5.7499999999999902e+00 +8.5260861287570204e+00 +0.0000000000000000e+00 -5.7499999031416600e+00 -3.1015702659959819e-02 -5.8272101078356797e-01 +5.6633628525739662e-03
-5.7999999999999901e+00 +8.5260701521547198e+00 +0.0000000000000000e+00 -5.7999999005891203e+00 -3.1016915196187499e-02 -5.8274931603611291e-01 +5.6642020620342815e-03
-5.8499999999999899e+00 +8.5260540366070892e+00 +0.0000000000000000e+00 -5.8499998979920003e+00 -3.1018136897929812e-02 -5.8277775244929908e-01 +5.6650447334743162e-03
