# field on trajectory
# s[mm] rx[mm] ry[mm] rz[mm] bx[T] by[T] bz[T]
0.0000000000000000e+00 +8.2850000000000001e+00 +0.0000000000000000e+00 +0.0000000000000000e+00 -3.0975270018539995e-02 -5.7974290070662104e-01 +5.6494019802537012e-03
5.0000000000000003e-02 +8.2849999307516278e+00 +0.0000000000000000e+00 +4.9999999999936068e-02 -3.0975433575264166e-02 -5.7974284746924309e-01 +5.6496074210603915e-03
1.0000000000000001e-01 +8.2849997230065018e+00 +0.0000000000000000e+00 +9.9999999999488498e-02 -3.0975620324123848e-02 -5.7974319461779722e-01 +5.6498156342914239e-03
1.5000000000000002e-01 +8.2849993767645405e+00 +0.0000000000000000e+00 +1.4999999999827368e-01 -3.0975830212452145e-02 -5.7974394129214446e-01 +5.6500266497821862e-03
2.0000000000000001e-01 +8.2849988920255644e+00 +0.0000000000000000e+00 +1.9999999999590798e-01 -3.0976063187583919e-02 -5.7974508663216462e-01 +5.6502404973682021e-03
2.5000000000000000e-01 +8.2849982687893000e+00 +0.0000000000000000e+00 +2.4999999999200778e-01 -3.0976319196855617e-02 -5.7974662977775626e-01 +5.6504572068851342e-03
2.9999999999999999e-01 +8.2849975070553796e+00 +0.0000000000000000e+00 +2.9999999998618943e-01 -3.0976598187605439e-02 -5.7974856986883672e-01 +5.6506768081687987e-03
3.4999999999999998e-01 +8.2849966068233396e+00 +0.0000000000000000e+00 +3.4999999997806930e-01 -3.0976900107173164e-02 -5.7975090604534119e-01 +5.6508993310551590e-03
3.9999999999999997e-01 +8.2849955680926222e+00 +0.0000000000000000e+00 +3.9999999996726371e-01 -3.0977224902900207e-02 -5.7975363744722408e-01 +5.6511248053803349e-03
4.4999999999999996e-01 +8.2849943908625736e+00 +0.0000000000000000e+00 +4.4999999995338902e-01 -3.0977572522129626e-02 -5.7975676321445813e-01 +5.6513532609806056e-03
4.9999999999999994e-01 +8.2849930751324479e+00 +0.0000000000000000e+00 +4.9999999993606159e-01 -3.0977942912206017e-02 -5.7976028248703382e-01 +5.6515847276924118e-03
5.4999999999999993e-01 +8.2849916209014047e+00 +0.0000000000000000e+00 +5.4999999991489767e-01 -3.0978336020475568e-02 -5.7976419440495963e-01 +5.6518192353523710e-03
5.9999999999999998e-01 +8.2849900281685098e+00 +0.0000000000000000e+00 +5.9999999988951369e-01 -3.0978751794286049e-02 -5.7976849810826303e-01 +5.6520568137972665e-03
6.5000000000000002e-01 +8.2849882969327346e+00 +0.0000000000000000e+00 +6.4999999985952595e-01 -3.0979190180986736e-02 -5.7977319273698813e-01 +5.6522974928640661e-03
7.0000000000000007e-01 +8.2849864271929565e+00 +0.0000000000000000e+00 +6.9999999982455074e-01 -3.0979651127928432e-02 -5.7977827743119825e-01 +5.6525413023899096e-03
7.5000000000000011e-01 +8.2849844189479622e+00 +0.0000000000000000e+00 +7.4999999978420429e-01 -3.0980134582463462e-02 -5.7978375133097304e-01 +5.6527882722121336e-03
8.0000000000000016e-01 +8.2849822721964443e+00 +0.0000000000000000e+00 +7.9999999973810287e-01 -3.0980640491945613e-02 -5.7978961357641079e-01 +5.6530384321682638e-03
8.5000000000000020e-01 +8.2849799869370013e+00 +0.0000000000000000e+00 +8.4999999968586282e-01 -3.0981168803730162e-02 -5.7979586330762745e-01 +5.6532918120960150e-03
9.0000000000000024e-01 +8.2849775631681410e+00 +0.0000000000000000e+00 +8.9999999962710031e-01 -3.0981719465173845e-02 -5.7980249966475517e-01 +5.6535484418333152e-03
9.5000000000000029e-01 +8.2849750008882772e+00 +0.0000000000000000e+00 +9.4999999956143155e-01 -3.0982292423634806e-02 -5.7980952178794487e-01 +5.6538083512182825e-03
1.0000000000000002e+00 +8.2849723000957329e+00 +0.0000000000000000e+00 +9.9999999948847274e-01 -3.0982887626472624e-02 -5.7981692881736369e-01 +5.6540715700892537e-03
1.0500000000000003e+00 +8.2849694607887390e+00 +0.0000000000000000e+00 +1.0499999994078402e+00 -3.0983505021048276e-02 -5.7982471989319639e-01 +5.6543381282847761e-03
1.1000000000000003e+00 +8.2849664829654337e+00 +0.0000000000000000e+00 +1.0999999993191498e+00 -3.0984144554724140e-02 -5.7983289415564487e-01 +5.6546080556436167e-03
1.1500000000000004e+00 +8.2849633666238649e+00 +0.0000000000000000e+00 +1.1499999992220180e+00 -3.0984806174863939e-02 -5.7984145074492721e-01 +5.6548813820047590e-03
1.2000000000000004e+00 +8.2849601117619880e+00 +0.0000000000000000e+00 +1.1999999991160608e+00 -3.0985489828832750e-02 -5.7985038880127937e-01 +5.6551581372074212e-03
1.2500000000000004e+00 +8.2849567183776678e+00 +0.0000000000000000e+00 +1.2499999990008943e+00 -3.0986195463996998e-02 -5.7985970746495330e-01 +5.6554383510910508e-03
1.3000000000000005e+00 +8.2849531864686785e+00 +0.0000000000000000e+00 +1.2999999988761346e+00 -3.0986923027724423e-02 -5.7986940587621782e-01 +5.6557220534953333e-03
1.3500000000000005e+00 +8.2849495160327020e+00 +0.0000000000000000e+00 +1.3499999987413975e+00 -3.0987672467384042e-02 -5.7987948317535853e-01 +5.6560092742601832e-03
1.4000000000000006e+00 +8.2849457070673331e+00 +0.0000000000000000e+00 +1.3999999985962994e+00 -3.0988443730346177e-02 -5.7988993850267667e-01 +5.6563000432257766e-03
1.4500000000000006e+00 +8.2849417595700725e+00 +0.0000000000000000e+00 +1.4499999984404561e+00 -3.0989236763982388e-02 -5.7990077099849102e-01 +5.6565943902325269e-03
1.5000000000000007e+00 +8.2849376735383338e+00 +0.0000000000000000e+00 +1.4999999982734835e+00 -3.0990051515665529e-02 -5.7991197980313591e-01 +5.6568923451211055e-03
1.5500000000000007e+00 +8.2849334489694382e+00 +0.0000000000000000e+00 +1.5499999980949977e+00 -3.0990887932769617e-02 -5.7992356405696110e-01 +5.6571939377324425e-03
1.6000000000000008e+00 +8.2849290858606182e+00 +0.0000000000000000e+00 +1.5999999979046144e+00 -3.0991745962669962e-02 -5.7993552290033368e-01 +5.6574991979077300e-03
1.6500000000000008e+00 +8.2849245842090173e+00 +0.0000000000000000e+00 +1.6499999977019497e+00 -3.0992625552743007e-02 -5.7994785547363636e-01 +5.6578081554884306e-03
1.7000000000000008e+00 +8.2849199440116905e+00 +0.0000000000000000e+00 +1.6999999974866193e+00 -3.0993526650366400e-02 -5.7996056091726700e-01 +5.6581208403162706e-03
1.7500000000000009e+00 +8.2849151652656019e+00 +0.0000000000000000e+00 +1.7499999972582392e+00 -3.0994449202918963e-02 -5.7997363837163984e-01 +5.6584372822332607e-03
1.8000000000000009e+00 +8.2849102479676269e+00 +0.0000000000000000e+00 +1.7999999970164251e+00 -3.0995393157780621e-02 -5.7998708697718482e-01 +5.6587575110816886e-03
1.8500000000000010e+00 +8.2849051921145520e+00 +0.0000000000000000e+00 +1.8499999967607925e+00 -3.0996358462332486e-02 -5.8000090587434683e-01 +5.6590815567041314e-03
1.9000000000000010e+00 +8.2848999977030768e+00 +0.0000000000000000e+00 +1.8999999964909575e+00 -3.0997345063956731e-02 -5.8001509420358666e-01 +5.6594094489434464e-03
1.9500000000000011e+00 +8.2848946647298138e+00 +0.0000000000000000e+00 +1.9499999962065355e+00 -3.0998352910036643e-02 -5.8002965110538018e-01 +5.6597412176427938e-03
2.0000000000000009e+00 +8.2848891931912831e+00 +0.0000000000000000e+00 +1.9999999959071422e+00 -3.0999381947956584e-02 -5.8004457572021872e-01 +5.6600768926456319e-03
2.0500000000000007e+00 +8.2848835830839196e+00 +0.0000000000000000e+00 +2.0499999955923931e+00 -3.1000432126702532e-02 -5.8005986694090106e-01 +5.6604165019264610e-03
2.1000000000000005e+00 +8.2848778344040710e+00 +0.0000000000000000e+00 +2.0999999952619040e+00 -3.1001503401663567e-02 -5.8007552266940743e-01 +5.6607600659831078e-03
2.1500000000000004e+00 +8.2848719471479981e+00 +0.0000000000000000e+00 +2.1499999949152899e+00 -3.1002595729829920e-02 -5.8009154056002243e-01 +5.6611076034444978e-03
2.2000000000000002e+00 +8.2848659213118729e+00 +0.0000000000000000e+00 +2.1999999945521669e+00 -3.1003709068192414e-02 -5.8010791826704433e-01 +5.6614591329399427e-03
2.2500000000000000e+00 +8.2848597568917839e+00 +0.0000000000000000e+00 +2.2499999941721502e+00 -3.1004843373742281e-02 -5.8012465344478326e-01 +5.6618146730991461e-03
2.2999999999999998e+00 +8.2848534538837324e+00 +0.0000000000000000e+00 +2.2999999937748550e+00 -3.1005998603471245e-02 -5.8014174374756255e-01 +5.6621742425522004e-03
2.3499999999999996e+00 +8.2848470122836364e+00 +0.0000000000000000e+00 +2.3499999933598970e+00 -3.1007174714371432e-02 -5.8015918682971646e-01 +5.6625378599296080e-03
2.3999999999999995e+00 +8.2848404320873286e+00 +0.0000000000000000e+00 +2.3999999929268911e+00 -3.1008371663435313e-02 -5.8017698034559206e-01 +5.6629055438622818e-03
2.4499999999999993e+00 +8.2848337132905598e+00 +0.0000000000000000e+00 +2.4499999924754530e+00 -3.1009589407655681e-02 -5.8019512194954725e-01 +5.6632773129815534e-03
2.4999999999999991e+00 +8.2848268558889941e+00 +0.0000000000000000e+00 +2.4999999920051974e+00 -3.1010827904025606e-02 -5.8021360929595200e-01 +5.6636531859191814e-03
2.5499999999999989e+00 +8.2848198598782172e+00 +0.0000000000000000e+00 +2.5499999915157399e+00 -3.1012087109538379e-02 -5.8023244003918750e-01 +5.6640331813073664e-03
2.5999999999999988e+00 +8.2848127252537296e+00 +0.0000000000000000e+00 +2.5999999910066953e+00 -3.1013366981187469e-02 -5.8025161183364526e-01 +5.6644173177787492e-03
2.6499999999999986e+00 +8.2848054520109500e+00 +0.0000000000000000e+00 +2.6499999904776788e+00 -3.1014667475966491e-02 -5.8027112233372780e-01 +5.6648056139664213e-03
2.6999999999999984e+00 +8.2847980401452190e+00 +0.0000000000000000e+00 +2.6999999899283051e+00 -3.1015988550869181e-02 -5.8029096919384893e-01 +5.6651980885039366e-03
2.7499999999999982e+00 +8.2847904896517957e+00 +0.0000000000000000e+00 +2.7499999893581895e+00 -3.1017330162889295e-02 -5.8031115006843192e-01 +5.6655947600253165e-03
2.7999999999999980e+00 +8.2847828005258588e+00 +0.0000000000000000e+00 +2.7999999887669467e+00 -3.1018692269020591e-02 -5.8033166261191049e-01 +5.6659956471650603e-03
2.8499999999999979e+00 +8.2847749727625075e+00 +0.0000000000000000e+00 +2.8499999881541918e+00 -3.1020074826256842e-02 -5.8035250447872799e-01 +5.6664007685581488e-03
2.8999999999999977e+00 +8.2847670063567644e+00 +0.0000000000000000e+00 +2.8999999875195397e+00 -3.1021477791591690e-02 -5.8037367332333789e-01 +5.6668101428400562e-03
2.9499999999999975e+00 +8.2847589013035705e+00 +0.0000000000000000e+00 +2.9499999868626050e+00 -3.1022901122018710e-02 -5.8039516680020298e-01 +5.6672237886467572e-03
2.9999999999999973e+00 +8.2847506575977921e+00 +0.0000000000000000e+00 +2.9999999861830022e+00 -3.1024344774531257e-02 -5.8041698256379459e-01 +5.6676417246147347e-03
3.0499999999999972e+00 +8.2847422752342190e+00 +0.0000000000000000e+00 +3.0499999854803459e+00 -3.1025808706122520e-02 -5.8043911826859440e-01 +5.6680639693809879e-03
3.0999999999999970e+00 +8.2847337542075614e+00 +0.0000000000000000e+00 +3.0999999847542510e+00 -3.1027292873785403e-02 -5.8046157156909184e-01 +5.6684905415830406e-03
3.1499999999999968e+00 +8.2847250945124564e+00 +0.0000000000000000e+00 +3.1499999840043316e+00 -3.1028797234512542e-02 -5.8048434011978489e-01 +5.6689214598589473e-03
3.1999999999999966e+00 +8.2847162961434648e+00 +0.0000000000000000e+00 +3.1999999832302026e+00 -3.1030321745296220e-02 -5.8050742157518065e-01 +5.6693567428473023e-03
3.2499999999999964e+00 +8.2847073590950728e+00 +0.0000000000000000e+00 +3.2499999824314783e+00 -3.1031866363128345e-02 -5.8053081358979364e-01 +5.6697964091872522e-03
3.2999999999999963e+00 +8.2846982833616920e+00 +0.0000000000000000e+00 +3.2999999816077730e+00 -3.1033431045000386e-02 -5.8055451381814682e-01 +5.6702404775184970e-03
3.3499999999999961e+00 +8.2846890689376611e+00 +0.0000000000000000e+00 +3.3499999807587009e+00 -3.1035015747903356e-02 -5.8057851991477061e-01 +5.6706889664812979e-03
3.3999999999999959e+00 +8.2846797158172443e+00 +0.0000000000000000e+00 +3.3999999798838760e+00 -3.1036620428827731e-02 -5.8060282953420239e-01 +5.6711418947164990e-03
3.4499999999999957e+00 +8.2846702239946346e+00 +0.0000000000000000e+00 +3.4499999789829130e+00 -3.1038245044763477e-02 -5.8062744033098812e-01 +5.6715992808655125e-03
3.4999999999999956e+00 +8.2846605934639541e+00 +0.0000000000000000e+00 +3.4999999780554258e+00 -3.1039889552699897e-02 -5.8065234995967940e-01 +5.6720611435703465e-03
3.5499999999999954e+00 +8.2846508242192503e+00 +0.0000000000000000e+00 +3.5499999771010282e+00 -3.1041553909625694e-02 -5.8067755607483573e-01 +5.6725275014735989e-03
3.5999999999999952e+00 +8.2846409162545029e+00 +0.0000000000000000e+00 +3.5999999761193346e+00 -3.1043238072528866e-02 -5.8070305633102259e-01 +5.6729983732184824e-03
3.6499999999999950e+00 +8.2846308695636193e+00 +0.0000000000000000e+00 +3.6499999751099588e+00 -3.1044941998396698e-02 -5.8072884838281180e-01 +5.6734737774488146e-03
3.6999999999999948e+00 +8.2846206841404388e+00 +0.0000000000000000e+00 +3.6999999740725142e+00 -3.1046665644215647e-02 -5.8075492988478161e-01 +5.6739537328090320e-03
3.7499999999999947e+00 +8.2846103599787320e+00 +0.0000000000000000e+00 +3.7499999730066151e+00 -3.1048408966971409e-02 -5.8078129849151638e-01 +5.6744382579442046e-03
3.7999999999999945e+00 +8.2845998970721979e+00 +0.0000000000000000e+00 +3.7999999719118751e+00 -3.1050171923648801e-02 -5.8080795185760603e-01 +5.6749273715000379e-03
3.8499999999999943e+00 +8.2845892954144702e+00 +0.0000000000000000e+00 +3.8499999707879078e+00 -3.1051954471231710e-02 -5.8083488763764579e-01 +5.6754210921228813e-03
3.8999999999999941e+00 +8.2845785549991131e+00 +0.0000000000000000e+00 +3.8999999696343264e+00 -3.1053756566703093e-02 -5.8086210348623624e-01 +5.6759194384597344e-03
3.9499999999999940e+00 +8.2845676758196252e+00 +0.0000000000000000e+00 +3.9499999684507450e+00 -3.1055578167044920e-02 -5.8088959705798371e-01 +5.6764224291582623e-03
3.9999999999999938e+00 +8.2845566578694410e+00 +0.0000000000000000e+00 +3.9999999672367768e+00 -3.1057419229238097e-02 -5.8091736600749833e-01 +5.6769300828667978e-03
4.0499999999999936e+00 +8.2845455011419240e+00 +0.0000000000000000e+00 +4.0499999659920354e+00 -3.1059279664144703e-02 -5.8094540792532501e-01 +5.6774424119378957e-03
4.0999999999999934e+00 +8.2845342056303775e+00 +0.0000000000000000e+00 +4.0999999647161331e+00 -3.1061159198154584e-02 -5.8097372014573034e-01 +5.6779594035387950e-03
4.1499999999999932e+00 +8.2845227713280352e+00 +0.0000000000000000e+00 +4.1499999634086846e+00 -3.1063057511539358e-02 -5.8100229993891217e-01 +5.6784810385404815e-03
4.1999999999999931e+00 +8.2845111982280724e+00 +0.0000000000000000e+00 +4.1999999620693025e+00 -3.1064974284570539e-02 -5.8103114457507021e-01 +5.6790072978141204e-03
4.2499999999999929e+00 +8.2844994863235968e+00 +0.0000000000000000e+00 +4.2499999606975996e+00 -3.1066909197519418e-02 -5.8106025132440575e-01 +5.6795381622310502e-03
4.2999999999999927e+00 +8.2844876356076558e+00 +0.0000000000000000e+00 +4.2999999592931886e+00 -3.1068861930657093e-02 -5.8108961745712151e-01 +5.6800736126627650e-03
4.3499999999999925e+00 +8.2844756460732345e+00 +0.0000000000000000e+00 +4.3499999578556832e+00 -3.1070832164254471e-02 -5.8111924024342076e-01 +5.6806136299809244e-03
4.3999999999999924e+00 +8.2844635177132560e+00 +0.0000000000000000e+00 +4.3999999563846961e+00 -3.1072819578582260e-02 -5.8114911695350790e-01 +5.6811581950573292e-03
4.4499999999999922e+00 +8.2844512505205827e+00 +0.0000000000000000e+00 +4.4499999548798401e+00 -3.1074823853910884e-02 -5.8117924485758732e-01 +5.6817072887639193e-03
4.4999999999999920e+00 +8.2844388444880188e+00 +0.0000000000000000e+00 +4.4999999533407280e+00 -3.1076844670510556e-02 -5.8120962122586328e-01 +5.6822608919727714e-03
4.5499999999999918e+00 +8.2844262996083060e+00 +0.0000000000000000e+00 +4.5499999517669716e+00 -3.1078881708651241e-02 -5.8124024332854107e-01 +5.6828189855560908e-03
4.5999999999999917e+00 +8.2844136158741311e+00 +0.0000000000000000e+00 +4.5999999501581845e+00 -3.1080934648602607e-02 -5.8127110843582419e-01 +5.6833815503861979e-03
4.6499999999999915e+00 +8.2844007932781185e+00 +0.0000000000000000e+00 +4.6499999485139787e+00 -3.1083003170634057e-02 -5.8130221381791614e-01 +5.6839485673355269e-03
4.6999999999999913e+00 +8.2843878318128397e+00 +0.0000000000000000e+00 +4.6999999468339668e+00 -3.1085086955014683e-02 -5.8133355674501885e-01 +5.6845200172766092e-03
4.7499999999999911e+00 +8.2843747314708054e+00 +0.0000000000000000e+00 +4.7499999451177608e+00 -3.1087185682013289e-02 -5.8136513448733351e-01 +5.6850958810820747e-03
4.7999999999999909e+00 +8.2843614922444733e+00 +0.0000000000000000e+00 +4.7999999433649734e+00 -3.1089299031898335e-02 -5.8139694431505939e-01 +5.6856761396246562e-03
4.8499999999999908e+00 +8.2843481141262423e+00 +0.0000000000000000e+00 +4.8499999415752164e+00 -3.1091426684937949e-02 -5.8142898349839378e-01 +5.6862607737771451e-03
4.8999999999999906e+00 +8.2843345971084599e+00 +0.0000000000000000e+00 +4.8999999397481027e+00 -3.1093568321399926e-02 -5.8146124930753218e-01 +5.6868497644124256e-03
4.9499999999999904e+00 +8.2843209411834184e+00 +0.0000000000000000e+00 +4.9499999378832440e+00 -3.1095723621551698e-02 -5.8149373901266710e-01 +5.6874430924034394e-03
4.9999999999999902e+00 +8.2843071463433571e+00 +0.0000000000000000e+00 +4.9999999359802514e+00 -3.1097892265660294e-02 -5.8152644988398872e-01 +5.6880407386231922e-03
5.0499999999999901e+00 +8.2842932125804616e+00 +0.0000000000000000e+00 +5.0499999340387376e+00 -3.1100073933992393e-02 -5.8155937919168421e-01 +5.6886426839447392e-03
5.0999999999999899e+00 +8.2842791398868645e+00 +0.0000000000000000e+00 +5.0999999320583145e+00 -3.1102268306814247e-02 -5.8159252420593743e-01 +5.6892489092411781e-03
5.1499999999999897e+00 +8.2842649282546486e+00 +0.0000000000000000e+00 +5.1499999300385939e+00 -3.1104475064391710e-02 -5.8162588219692801e-01 +5.6898593953856507e-03
5.1999999999999895e+00 +8.2842505776758433e+00 +0.0000000000000000e+00 +5.1999999279791869e+00 -3.1106693886990222e-02 -5.8165945043483314e-01 +5.6904741232513224e-03
5.2499999999999893e+00 +8.2842360881424320e+00 +0.0000000000000000e+00 +5.2499999258797052e+00 -3.1108924454874745e-02 -5.8169322618982400e-01 +5.6910930737113863e-03
5.2999999999999892e+00 +8.2842214596463446e+00 +0.0000000000000000e+00 +5.2999999237397599e+00 -3.1111166448309829e-02 -5.8172720673206868e-01 +5.6917162276390477e-03
5.3499999999999890e+00 +8.2842066921794633e+00 +0.0000000000000000e+00 +5.3499999215589629e+00 -3.1113419547559543e-02 -5.8176138933173016e-01 +5.6923435659075143e-03
5.3999999999999888e+00 +8.2841917857336238e+00 +0.0000000000000000e+00 +5.3999999193369250e+00 -3.1115683432887464e-02 -5.8179577125896631e-01 +5.6929750693900071e-03
5.4499999999999886e+00 +8.2841767403006106e+00 +0.0000000000000000e+00 +5.4499999170732583e+00 -3.1117957784556723e-02 -5.8183034978393011e-01 +5.6936107189597320e-03
5.4999999999999885e+00 +8.2841615558721653e+00 +0.0000000000000000e+00 +5.4999999147675736e+00 -3.1120242282829880e-02 -5.8186512217676811e-01 +5.6942504954898788e-03
5.5499999999999883e+00 +8.2841462324399799e+00 +0.0000000000000000e+00 +5.5499999124194819e+00 -3.1122536607969053e-02 -5.8190008570762175e-01 +5.6948943798536171e-03
5.5999999999999881e+00 +8.2841307699957021e+00 +0.0000000000000000e+00 +5.5999999100285942e+00 -3.1124840440235769e-02 -5.8193523764662558e-01 +5.6955423529240923e-03
5.6499999999999879e+00 +8.2841151685309349e+00 +0.0000000000000000e+00 +5.6499999075945206e+00 -3.1127153459891043e-02 -5.8197057526390927e-01 +5.6961943955744065e-03
5.6999999999999877e+00 +8.2840994280372371e+00 +0.0000000000000000e+00 +5.6999999051168730e+00 -3.1129475347195339e-02 -5.8200609582959373e-01 +5.6968504886776216e-03
5.7499999999999876e+00 +8.2840835485061213e+00 +0.0000000000000000e+00 +5.7499999025952615e+00 -3.1131805782408543e-02 -5.8204179661379452e-01 +5.6975106131067462e-03
5.7999999999999874e+00 +8.2840675299290609e+00 +0.0000000000000000e+00 +5.7999999000292970e+00 -3.1134144445789956e-02 -5.8207767488661866e-01 +5.6981747497347321e-03
5.8499999999999872e+00 +8.2840513722974851e+00 +0.0000000000000000e+00 +5.8499998974185905e+00 -3.1136491017598279e-02 -5.8211372791816651e-01 +5.6988428794344610e-03
5.8999999999999870e+00 +8.2840350756027803e+00 +0.0000000000000000e+00 +5.8999998947627521e+00 -3.1138845178091654e-02 -5.8214995297853034e-01 +5.6995149830787427e-03
