# multipoles
# s[mm] polynom_b[n=0][T/m^n] polynom_b[n=1][T/m^n] polynom_b[n=2][T/m^n] polynom_b[n=3][T/m^n] polynom_b[n=4][T/m^n] polynom_b[n=5][T/m^n] polynom_b[n=6][T/m^n] 
+0.0000000000000000e+00 -5.5158753591671938e-01 +7.2234188581412031e+00 +5.4882258224601363e+00 -1.6852843841633344e+01 +3.7108779953879516e+03 -1.3309093655409492e+05 +5.8840356242869794e+06 
-5.0000000000000003e-02 -5.5158875591505196e-01 +7.2234530412336140e+00 +5.4874164666636585e+00 -1.6671347003676392e+01 +3.6670647248298555e+03 -1.3475295370509775e+05 +6.2690097025242839e+06 
-1.0000000000000001e-01 -5.5159038688247941e-01 +7.2235088826240244e+00 +5.4867410041149975e+00 -1.6486596680340583e+01 +3.6115207491653841e+03 -1.3639283868128757e+05 +6.7155293968967116e+06 
-1.5000000000000002e-01 -5.5159242787596163e-01 +7.2235863426869873e+00 +5.4861851070147676e+00 -1.6299234519947369e+01 +3.5445869561646041e+03 -1.3800625263759139e+05 +7.2217423562051915e+06 
-2.0000000000000001e-01 -5.5159487795245921e-01 +7.2236853818050797e+00 +5.4857344445418814e+00 -1.6109902463742490e+01 +3.4666043118213602e+03 -1.3958885432746718e+05 +7.7857957134888638e+06 
-2.5000000000000000e-01 -5.5159773616897978e-01 +7.2238059603538769e+00 +5.4853746905910032e+00 -1.5919242146804429e+01 +3.3779136576514579e+03 -1.4113630496736564e+05 +8.4058374318395890e+06 
-2.9999999999999999e-01 -5.5160100158251113e-01 +7.2239480387134476e+00 +5.4850915131163154e+00 -1.5727895360756870e+01 +3.2788559900569203e+03 -1.4264426448288656e+05 +9.0800144434491843e+06 
-3.4999999999999998e-01 -5.5160467325008233e-01 +7.2241115772614624e+00 +5.4848705832924329e+00 -1.5536503786936560e+01 +3.1697722224446193e+03 -1.4410839362495448e+05 +9.8064742304250430e+06 
-3.9999999999999997e-01 -5.5160875022873768e-01 +7.2242965363778389e+00 +5.4846975719071578e+00 -1.5345709156279490e+01 +3.0510032793878831e+03 -1.4552435278205894e+05 +1.0583364191772716e+07 
-4.4999999999999996e-01 -5.5161323157553854e-01 +7.2245028764399928e+00 +5.4845581498138127e+00 -1.5156153088419986e+01 +2.9228900802305757e+03 -1.4688780317420777e+05 +1.1408831776000090e+07 
-4.9999999999999994e-01 -5.5161811634757552e-01 +7.2247305578262830e+00 +5.4844379895617532e+00 -1.4968477211082844e+01 +2.7857735005977215e+03 -1.4819440595941903e+05 +1.2281024717631523e+07 
-5.4999999999999993e-01 -5.5162340360192719e-01 +7.2249795409156174e+00 +5.4843227588301966e+00 -1.4783323156908331e+01 +2.6399945455777124e+03 -1.4943982219849751e+05 +1.3198089879908530e+07 
-5.9999999999999998e-01 -5.5162909239573110e-01 +7.2252497860868035e+00 +5.4841981320961137e+00 -1.4601332522240311e+01 +2.4858940381746925e+03 -1.5061971327799634e+05 +1.4158175353774795e+07 
-6.5000000000000002e-01 -5.5163518178609627e-01 +7.2255412537215937e+00 +5.4840497755233324e+00 -1.4423147009319527e+01 +2.3238130273207271e+03 -1.5172973964817543e+05 +1.5159427694736212e+07 
-7.0000000000000007e-01 -5.5164167083020288e-01 +7.2258539041961294e+00 +5.4838633651113433e+00 -1.4249408063830682e+01 +2.1540922941058002e+03 -1.5276556386482014e+05 +1.6199995274310838e+07 
-7.5000000000000011e-01 -5.5164855858521489e-01 +7.2261876978912047e+00 +5.4836245707801519e+00 -1.4080757296078538e+01 +1.9770727832122304e+03 -1.5372284712424895e+05 +1.7278025361078300e+07 
-8.0000000000000016e-01 -5.5165584410831270e-01 +7.2265425951882252e+00 +5.4833190620537682e+00 -1.3917836324336104e+01 +1.7930954516958877e+03 -1.5459725051029259e+05 +1.8391665132683318e+07 
-8.5000000000000020e-01 -5.5166352645670602e-01 +7.2269185564655150e+00 +5.4829325105707873e+00 -1.3761286616369958e+01 +1.6025012005525120e+03 -1.5538443633892559e+05 +1.9539062137369614e+07 
-9.0000000000000024e-01 -5.5167160468762555e-01 +7.2273155421055382e+00 +5.4824505885980388e+00 -1.3611749787357615e+01 +1.4056309122296063e+03 -1.5608006569187428e+05 +2.0718364056139126e+07 
-9.5000000000000029e-01 -5.5168007785831197e-01 +7.2277335124878563e+00 +5.4818589669865601e+00 -1.3469867312042860e+01 +1.2028255091128924e+03 -1.5667980078875605e+05 +2.1927718290858697e+07 
-1.0000000000000002e+00 -5.5168894502601484e-01 +7.2281724279940258e+00 +5.4811433152982145e+00 -1.3336280716720619e+01 +9.9442594642502331e+02 -1.5717930344207585e+05 +2.3165272027764939e+07 
-1.0500000000000003e+00 -5.5169820524802282e-01 +7.2286322490074175e+00 +5.4802893068997562e+00 -1.3211631585175498e+01 +7.8077307748670330e+02 -1.5757423495712754e+05 +2.4429173137184657e+07 
-1.1000000000000003e+00 -5.5170785758164187e-01 +7.2291129359097734e+00 +5.4792826148923934e+00 -1.3096561421272797e+01 +5.6220776596350493e+02 -1.5786025724302098e+05 +2.5717569405459717e+07 
-1.1500000000000004e+00 -5.5171790108417185e-01 +7.2296144490839396e+00 +5.4781089085730290e+00 -1.2991711740094651e+01 +3.3907097450790803e+02 -1.5803303216139122e+05 +2.7028607963690229e+07 
-1.2000000000000004e+00 -5.5172833481294647e-01 +7.2301367489144335e+00 +5.4767538600866539e+00 -1.2897724101150514e+01 +1.1170359210055923e+02 -1.5808822120268873e+05 +2.8360436424583804e+07 
-1.2500000000000004e+00 -5.5173915782532013e-01 +7.2306797957845950e+00 +5.4752031420984721e+00 -1.2815240012243828e+01 -1.1955350586314700e+02 -1.5802148620073844e+05 +2.9711202491545185e+07 
-1.3000000000000005e+00 -5.5175036917865361e-01 +7.2312435500796957e+00 +5.4734424258061836e+00 -1.2744901015730777e+01 -3.5435940890406812e+02 -1.5782848879439084e+05 +3.1079053645903278e+07 
-1.3500000000000005e+00 -5.5176196793033994e-01 +7.2318279721852168e+00 +5.4714573843756398e+00 -1.2687348659801614e+01 -5.9237325012148142e+02 -1.5750489047935329e+05 +3.2462137625571955e+07 
-1.4000000000000006e+00 -5.5177395313776001e-01 +7.2324330224874398e+00 +5.4692336863681863e+00 -1.2643224492784899e+01 -8.3325404349796133e+02 -1.5704635280845303e+05 +3.3858601381177418e+07 
-1.4500000000000006e+00 -5.5178632385834980e-01 +7.2330586613719046e+00 +5.4667570074467262e+00 -1.2613170020443640e+01 -1.0766609972898218e+03 -1.5644853762377144e+05 +3.5266593183703393e+07 
-1.5000000000000007e+00 -5.5179907914954507e-01 +7.2337048492287090e+00 +5.4640130197068819e+00 -1.2597826896211361e+01 -1.3222532164062272e+03 -1.5570710563992264e+05 +3.6684260576958045e+07 
-1.5500000000000007e+00 -5.5181221806879732e-01 +7.2343715464450353e+00 +5.4609873952540466e+00 -1.2597836657093014e+01 -1.5696898097506698e+03 -1.5481771841333850e+05 +3.8109751147209786e+07 
-1.6000000000000008e+00 -5.5182573967357229e-01 +7.2350587134109858e+00 +5.4576658058706151e+00 -1.2613840930090010e+01 -1.8186298744189651e+03 -1.5377603680403443e+05 +3.9541212383513600e+07 
-1.6500000000000008e+00 -5.5183964302136090e-01 +7.2357663105158059e+00 +5.4540339246159677e+00 -1.2646481273634414e+01 -2.0687325416159115e+03 -1.5257772228299637e+05 +4.0976792004965015e+07 
-1.7000000000000008e+00 -5.5185392716967174e-01 +7.2364942981513805e+00 +5.4500774250616661e+00 -1.2696399353051708e+01 -2.3196569552385340e+03 -1.5121843537127442e+05 +4.2414637808007769e+07 
-1.7500000000000009e+00 -5.5186859117601628e-01 +7.2372426367096159e+00 +5.4457819786083759e+00 -1.2764236795433703e+01 -2.5710622045907789e+03 -1.4969383696613443e+05 +4.3852897234206639e+07 
-1.8000000000000009e+00 -5.5188363409793884e-01 +7.2380112865836796e+00 +5.4411332590569410e+00 -1.2850635283230824e+01 -2.8226074365836307e+03 -1.4799958742863918e+05 +4.5289718086672142e+07 
-1.8500000000000010e+00 -5.5189905499300185e-01 +7.2388002081654008e+00 +5.4361169406263601e+00 -1.2956236398144744e+01 -3.0739518104573713e+03 -1.4613134805495801e+05 +4.6723248253011487e+07 
-1.9000000000000010e+00 -5.5191485291875864e-01 +7.2396093618537547e+00 +5.4307186934719587e+00 -1.3081682009581176e+01 -3.3247543769358922e+03 -1.4408477771117559e+05 +4.8151634888781756e+07 
-1.9500000000000011e+00 -5.5193102693282015e-01 +7.2404387080421415e+00 +5.4249241948930074e+00 -1.3227613735501993e+01 -3.5746743778492182e+03 -1.4185553735281329e+05 +4.9573026433706395e+07 
-2.0000000000000009e+00 -5.5194757609278433e-01 +7.2412882071292506e+00 +5.4187191169924498e+00 -1.3394673390826357e+01 -3.8233709133854522e+03 -1.3943928631719228e+05 +5.0985570364137419e+07 
-2.0500000000000007e+00 -5.5196449921576174e-01 +7.2421577941943589e+00 +5.4120902168010545e+00 -1.3583124129575083e+01 -4.0705186364245351e+03 -1.3683455050533207e+05 +5.2387474055859864e+07 
-2.1000000000000005e+00 -5.5198179415632687e-01 +7.2430472965275570e+00 +5.4050291743770398e+00 -1.3791731814235812e+01 -4.3158612588533297e+03 -1.3405117804829180e+05 +5.3777238038685784e+07 
-2.1500000000000004e+00 -5.5199945852826948e-01 +7.2439565128297136e+00 +5.3975290527090412e+00 -1.4018892328530272e+01 -4.5591613235746645e+03 -1.3110181774624065e+05 +5.5153448504603893e+07 
-2.2000000000000002e+00 -5.5201748994543454e-01 +7.2448852417991887e+00 +5.3895829221624023e+00 -1.4263001454060861e+01 -4.8001815680434947e+03 -1.2799911919413178e+05 +5.6514692943011664e+07 
-2.2500000000000000e+00 -5.5203588602163911e-01 +7.2458332821386184e+00 +5.3811838460580574e+00 -1.4522455130020036e+01 -5.0386845452823791e+03 -1.2475573070229072e+05 +5.7859557622234769e+07 
-2.2999999999999998e+00 -5.5205464437074159e-01 +7.2468004325486106e+00 +5.3723248931817560e+00 -1.4795649199620543e+01 -5.2744329550218135e+03 -1.2138430135850605e+05 +5.9186629795357250e+07 
-2.3499999999999996e+00 -5.5207376260658980e-01 +7.2477864917353134e+00 +5.3629991277358702e+00 -1.5080979718149425e+01 -5.5071893720328844e+03 -1.1789747849387686e+05 +6.0494495869902372e+07 
-2.3999999999999995e+00 -5.5209323834304314e-01 +7.2487912584009937e+00 +5.3531996140504541e+00 -1.5376842556181575e+01 -5.7367163756282980e+03 -1.1430791100983234e+05 +6.1781742288460702e+07 
-2.4499999999999993e+00 -5.5211306919399084e-01 +7.2498145312516336e+00 +5.3429194200920120e+00 -1.5681633735665399e+01 -5.9627766486182472e+03 -1.1062824650819929e+05 +6.3046956213696793e+07 
-2.4999999999999991e+00 -5.5213325277331471e-01 +7.2508561089931520e+00 +5.3321516097568757e+00 -1.5993749253367131e+01 -6.1851327560858490e+03 -1.0687113282686195e+05 +6.4288723982878298e+07 
-2.5499999999999989e+00 -5.5215378669491288e-01 +7.2519157903306741e+00 +5.3208892484538790e+00 -1.6311585064597562e+01 -6.4035473122114190e+03 -1.0304921812566256e+05 +6.5505632297790311e+07 
-2.5999999999999988e+00 -5.5217466857269526e-01 +7.2529933739736432e+00 +5.3091254013209479e+00 -1.6633537283288796e+01 -6.6177829202191160e+03 -9.9175149280240672e+04 +6.6696267775085188e+07 
-2.6499999999999986e+00 -5.5219589602057895e-01 +7.2540886586300468e+00 +5.2968531334412923e+00 -1.6958001953641880e+01 -6.8276021877691264e+03 -9.5261573722974412e+04 +6.7859217081992045e+07 
-2.6999999999999984e+00 -5.5221746665248306e-01 +7.2552014430099092e+00 +5.2840655077548790e+00 -1.7283375189582916e+01 -7.0327676601670710e+03 -9.1321138327019551e+04 +6.8993066451144308e+07 
-2.7499999999999982e+00 -5.5223937808234713e-01 +7.2563315258246499e+00 +5.2707555892988314e+00 -1.7608053150452278e+01 -7.2330419421867036e+03 -8.7366489576561886e+04 +7.0096402527744934e+07 
-2.7999999999999980e+00 -5.5226162792411360e-01 +7.2574787057836891e+00 +5.2569164418169656e+00 -1.7930431895686180e+01 -7.4281876053422475e+03 -8.3410274814332661e+04 +7.1167811740499571e+07 
-2.8499999999999979e+00 -5.5228421379173309e-01 +7.2586427816021342e+00 +5.2425411289091874e+00 -1.8248907714907183e+01 -7.6179672202023985e+03 -7.9465139448599366e+04 +7.2205880525294423e+07 
-2.8999999999999977e+00 -5.5230713329916992e-01 +7.2598235519899612e+00 +5.2276227147692653e+00 -1.8561876672536609e+01 -7.8021433716855972e+03 -7.5543730753858457e+04 +7.3209195408422217e+07 
-2.9499999999999975e+00 -5.5233038406037882e-01 +7.2610208156659075e+00 +5.2121542602404372e+00 -1.8867735174446352e+01 -7.9804785568246689e+03 -7.1658693222890244e+04 +7.4176342336469948e+07 
-2.9999999999999973e+00 -5.5235396368934475e-01 +7.2622343713421209e+00 +5.1961288296914176e+00 -1.9164879346752002e+01 -8.1527353652811771e+03 -6.7822673657797597e+04 +7.5105907870181292e+07 
-3.0499999999999972e+00 -5.5237786980004278e-01 +7.2634640177362026e+00 +5.1795394847654999e+00 -1.9451705537655300e+01 -8.3186763226270250e+03 -6.4048316984067853e+04 +7.5996478180097401e+07 
-3.0999999999999970e+00 -5.5240210000646683e-01 +7.2647095535669335e+00 +5.1623792883152166e+00 -1.9726610126768740e+01 -8.4780639801731359e+03 -6.0348267911072733e+04 +7.6846639582279295e+07 
-3.1499999999999968e+00 -5.5242665192260187e-01 +7.2659707775524955e+00 +5.1446413003610481e+00 -1.9987989458355784e+01 -8.6306608176261616e+03 -5.6735171439585734e+04 +7.7654977932140097e+07 
-3.1999999999999966e+00 -5.5245152316245782e-01 +7.2672474884107388e+00 +5.1263185842106997e+00 -2.0234239848462973e+01 -8.7762294087488081e+03 -5.3221672829162730e+04 +7.8420079742211714e+07 
-3.2499999999999964e+00 -5.5247671134002951e-01 +7.2685394848643705e+00 +5.1074041984128016e+00 -2.0463757817027943e+01 -8.9145321919380640e+03 -4.9820415606584567e+04 +7.9140530587450713e+07 
-3.2999999999999963e+00 -5.5250221406934708e-01 +7.2698465656347020e+00 +5.0878912069911504e+00 -2.0674939806336759e+01 -9.0453317619778718e+03 -4.6544043987729317e+04 +7.9814917133382767e+07 
-3.3499999999999961e+00 -5.5252802896440489e-01 +7.2711685294436936e+00 +5.0677726659928224e+00 -2.0866182274873854e+01 -9.1683904955498128e+03 -4.3405202071106010e+04 +8.0441824564443156e+07 
-3.3999999999999959e+00 -5.5255415363923044e-01 +7.2725051750170024e+00 +5.0470416363023398e+00 -2.1035881832550796e+01 -9.2834709059583765e+03 -4.0416532677976938e+04 +8.1019839014983818e+07 
-3.4499999999999957e+00 -5.5258058570785928e-01 +7.2738563010786539e+00 +5.0256911788772065e+00 -2.1182435006552044e+01 -9.3903355070996877e+03 -3.7590679349686034e+04 +8.1547546618894920e+07 
-3.4999999999999956e+00 -5.5260732278431968e-01 +7.2752217063565592e+00 +5.0037143519669796e+00 -2.1304238476558616e+01 -9.4887467397303517e+03 -3.4940284366483094e+04 +8.2023533020472661e+07 
-3.5499999999999954e+00 -5.5263436248263176e-01 +7.2766011895748255e+00 +4.9811042117809556e+00 -2.1399688767684555e+01 -9.5784669977168760e+03 -3.2477991265550336e+04 +8.2446383579365775e+07 
-3.5999999999999952e+00 -5.5266170241685697e-01 +7.2779945494651930e+00 +4.9578538200642006e+00 -2.1467182700056618e+01 -9.6592588191427876e+03 -3.0216441194213407e+04 +8.2814684616177484e+07 
-3.6499999999999950e+00 -5.5268934020101024e-01 +7.2794015847559406e+00 +4.9339562297416864e+00 -2.1505116948354750e+01 -9.7308845097491285e+03 -2.8168276494333655e+04 +8.3127020903103456e+07 
-3.6999999999999948e+00 -5.5271727344915689e-01 +7.2808220941787036e+00 +4.9094045013924790e+00 -2.1511888312591857e+01 -9.7931065844056848e+03 -2.6346138514991631e+04 +8.3381978642444864e+07 
-3.7499999999999947e+00 -5.5274549977533316e-01 +7.2822558764620604e+00 +4.8841916896479649e+00 -2.1485893478467634e+01 -9.8456873966106141e+03 -2.4762669469452179e+04 +8.3578142940817773e+07 
-3.7999999999999945e+00 -5.5277401679359073e-01 +7.2837027303439417e+00 +4.8583108506688077e+00 -2.1425529491460882e+01 -9.8883893454312201e+03 -2.3430508700895076e+04 +8.3714099238855004e+07 
-3.8499999999999943e+00 -5.5280282211798226e-01 +7.2851624545566365e+00 +4.8317550399495319e+00 -2.1329193159721680e+01 -9.9209748122692145e+03 -2.2362297515445829e+04 +8.3788432858692721e+07 
-3.8999999999999941e+00 -5.5283191336256188e-01 +7.2866348478348906e+00 +4.8045173128795593e+00 -2.1195281403363698e+01 -9.9432061823923432e+03 -2.1570676235820607e+04 +8.3799729178804234e+07 
-3.9499999999999940e+00 -5.5286128814138824e-01 +7.2881197089175718e+00 +4.7765907238545937e+00 -2.1022191296159182e+01 -9.9548458082873130e+03 -2.1068283977871000e+04 +8.3746573338081226e+07 
-3.9999999999999938e+00 -5.5289094406850781e-01 +7.2896168365412874e+00 +4.7479683253103451e+00 -2.0808319799838443e+01 -9.9556559997589866e+03 -2.0867760808574025e+04 +8.3627550232203484e+07 
-4.0499999999999936e+00 -5.5292087867429940e-01 +7.2911260344939040e+00 +4.7186477386341314e+00 -2.0552524030969643e+01 -9.9455019679695324e+03 -2.0978115983286782e+04 +8.3441883577385396e+07 
-4.0999999999999934e+00 -5.5295108915662572e-01 +7.2926471192977367e+00 +4.6886450843955272e+00 -2.0255480835490754e+01 -9.9246490044783204e+03 -2.1394044767679512e+04 +8.3191250825209931e+07 
-4.1499999999999932e+00 -5.5298157263080616e-01 +7.2941799088301318e+00 +4.6579811959093069e+00 -1.9918320378530918e+01 -9.8934598098722090e+03 -2.2106697177908372e+04 +8.2877919568056479e+07 
-4.1999999999999931e+00 -5.5301232621215968e-01 +7.2957242209654298e+00 +4.6266769059977229e+00 -1.9542172702330390e+01 -9.8522970689069734e+03 -2.3107224381040978e+04 +8.2504157291097656e+07 
-4.2499999999999929e+00 -5.5304334701601399e-01 +7.2972798735804023e+00 +4.5947530492753783e+00 -1.9128167961167346e+01 -9.8015235190514468e+03 -2.4386776591363876e+04 +8.2072231850791395e+07 
-4.2999999999999927e+00 -5.5307463215769492e-01 +7.2988466845477333e+00 +4.5622304588926328e+00 -1.8677436138747549e+01 -9.7415018490606381e+03 -2.5936505476932063e+04 +8.1584410738693804e+07 
-4.3499999999999925e+00 -5.5310617875254109e-01 +7.3004244717416613e+00 +4.5291299711284729e+00 -1.8191107301509817e+01 -9.6725948418226671e+03 -2.7747561988202684e+04 +8.1042962118735164e+07 
-4.3999999999999924e+00 -5.5313798391585545e-01 +7.3020130530352372e+00 +4.4954724157848123e+00 -1.7670311465487845e+01 -9.5951651040347624e+03 -2.9811097530352286e+04 +8.0450152954803169e+07 
-4.4499999999999922e+00 -5.5317004476300446e-01 +7.3036122463009177e+00 +4.4612786329009504e+00 -1.7116178614558098e+01 -9.5095755093833523e+03 -3.2118263841798394e+04 +7.9808251981287554e+07 
-4.4999999999999920e+00 -5.5320235840929244e-01 +7.3052218694109943e+00 +4.4265694527902273e+00 -1.6529838759648484e+01 -9.4161886827516428e+03 -3.4660212346286105e+04 +7.9119526302481428e+07 
-4.5499999999999918e+00 -5.5323492197005864e-01 +7.3068417402355372e+00 +4.3913657109684952e+00 -1.5912421799875849e+01 -9.3153673746536078e+03 -3.7428095513883141e+04 +7.8386243809354112e+07 
-4.5999999999999917e+00 -5.5326773256064676e-01 +7.3084716766444773e+00 +4.3556882450289054e+00 -1.5265057657436378e+01 -9.2074744066453404e+03 -4.0413065561195792e+04 +7.7610672933032751e+07 
-4.6499999999999915e+00 -5.5330078729637444e-01 +7.3101114965068197e+00 +4.3195578869290809e+00 -1.4588876215259072e+01 -9.0928724353567177e+03 -4.3606275079795589e+04 +7.6795080937017724e+07 
-4.6999999999999913e+00 -5.5333408329257849e-01 +7.3117610176918353e+00 +4.2829954731361344e+00 -1.3885007383507030e+01 -8.9719242472746573e+03 -4.6998876421911766e+04 +7.5941735993857622e+07 
-4.7499999999999911e+00 -5.5336761766459452e-01 +7.3134200580663231e+00 +4.2460218396821885e+00 -1.3154580965471935e+01 -8.8449926116965507e+03 -5.0582022898816016e+04 +7.5052906135982454e+07 
-4.7999999999999909e+00 -5.5340138752775780e-01 +7.3150884354933936e+00 +4.2086578232789185e+00 -1.2398726639095864e+01 -8.7124403199889275e+03 -5.4346868807943400e+04 +7.4130859557554692e+07 
-4.8499999999999908e+00 -5.5343538999739272e-01 +7.3167659678428336e+00 +4.1709242588362923e+00 -1.1618574360181368e+01 -8.5746301124653382e+03 -5.8284566205263967e+04 +7.3177864096497133e+07 
-4.8999999999999906e+00 -5.5346962218883389e-01 +7.3184524729750535e+00 +4.1328419836510877e+00 -1.0815253704840702e+01 -8.4319247937744622e+03 -6.2386270302196324e+04 +7.2196188023847103e+07 
-4.9499999999999904e+00 -5.5350408121740680e-01 +7.3201477687545369e+00 +4.0944318335282510e+00 -9.9898944420575440e+00 -8.2846871276414568e+03 -6.6643134705979886e+04 +7.1188099331297070e+07 
-4.9999999999999902e+00 -5.5353876419843728e-01 +7.3218516730422847e+00 +4.0557146453128121e+00 -9.1436262025147403e+00 -8.1332799050799495e+03 -7.1046314191566664e+04 +7.0155866186087102e+07 
-5.0499999999999901e+00 -5.5357366824726306e-01 +7.3235640036986895e+00 +4.0167112586037126e+00 -8.2775785918403617e+00 -7.9780659959234918e+03 -7.5586963822109741e+04 +6.9101757307390124e+07 
