# field on trajectory
# s[mm] rx[mm] ry[mm] rz[mm] bx[T] by[T] bz[T]
0.0000000000000000e+00 +8.5389999999999997e+00 +0.0000000000000000e+00 +0.0000000000000000e+00 -2.8708947211712774e-02 -5.4941518338578854e-01 +5.4277600184345926e-03
5.0000000000000003e-02 +8.5389999311440992e+00 +0.0000000000000000e+00 +4.9999999999936789e-02 -2.8708945385128287e-02 -5.4941535885724446e-01 +5.4268117404036214e-03
1.0000000000000001e-01 +8.5389997245763531e+00 +0.0000000000000000e+00 +9.9999999999494285e-02 -2.8708969003390223e-02 -5.4941594542664485e-01 +5.4258642000574592e-03
1.5000000000000002e-01 +8.5389993802966142e+00 +0.0000000000000000e+00 +1.4999999999829319e-01 -2.8709017951117681e-02 -5.4941694195443336e-01 +5.4249175155700246e-03
2.0000000000000001e-01 +8.5389988983046337e+00 +0.0000000000000000e+00 +1.9999999999595422e-01 -2.8709092112931267e-02 -5.4941834730107442e-01 +5.4239718051152163e-03
2.5000000000000000e-01 +8.5389982786000580e+00 +0.0000000000000000e+00 +2.4999999999209807e-01 -2.8709191373453069e-02 -5.4942016032704888e-01 +5.4230271868669494e-03
2.9999999999999999e-01 +8.5389975211824325e+00 +0.0000000000000000e+00 +2.9999999998634547e-01 -2.8709315617306625e-02 -5.4942237989285747e-01 +5.4220837789991554e-03
3.4999999999999998e-01 +8.5389966260512011e+00 +0.0000000000000000e+00 +3.4999999997831704e-01 -2.8709464729117007e-02 -5.4942500485901902e-01 +5.4211416996858084e-03
3.9999999999999997e-01 +8.5389955932057067e+00 +0.0000000000000000e+00 +3.9999999996763352e-01 -2.8709638593510729e-02 -5.4942803408607022e-01 +5.4202010671009337e-03
4.4999999999999996e-01 +8.5389944226451888e+00 +0.0000000000000000e+00 +4.4999999995391560e-01 -2.8709837095115865e-02 -5.4943146643456653e-01 +5.4192619994186285e-03
4.9999999999999994e-01 +8.5389931143687878e+00 +0.0000000000000000e+00 +4.9999999993678390e-01 -2.8710060118561961e-02 -5.4943530076508185e-01 +5.4183246148130776e-03
5.4999999999999993e-01 +8.5389916683755427e+00 +0.0000000000000000e+00 +5.4999999991585913e-01 -2.8710307548480047e-02 -5.4943953593820682e-01 +5.4173890314585631e-03
5.9999999999999998e-01 +8.5389900846643911e+00 +0.0000000000000000e+00 +5.9999999989076191e-01 -2.8710579269502687e-02 -5.4944417081455132e-01 +5.4164553675294857e-03
6.5000000000000002e-01 +8.5389883632341732e+00 +0.0000000000000000e+00 +6.4999999986111290e-01 -2.8710875166263972e-02 -5.4944920425474220e-01 +5.4155237412003808e-03
7.0000000000000007e-01 +8.5389865040836259e+00 +0.0000000000000000e+00 +6.9999999982653272e-01 -2.8711195123399501e-02 -5.4945463511942427e-01 +5.4145942706459189e-03
7.5000000000000011e-01 +8.5389845072113886e+00 +0.0000000000000000e+00 +7.4999999978664189e-01 -2.8711539025546375e-02 -5.4946046226926037e-01 +5.4136670740409570e-03
8.0000000000000016e-01 +8.5389823726160010e+00 +0.0000000000000000e+00 +7.9999999974106106e-01 -2.8711906757343239e-02 -5.4946668456492975e-01 +5.4127422695605101e-03
8.5000000000000020e-01 +8.5389801002959018e+00 +0.0000000000000000e+00 +8.4999999968941087e-01 -2.8712298203430291e-02 -5.4947330086713042e-01 +5.4118199753798012e-03
9.0000000000000024e-01 +8.5389776902494354e+00 +0.0000000000000000e+00 +8.9999999963131183e-01 -2.8712713248449238e-02 -5.4948031003657638e-01 +5.4109003096742573e-03
9.5000000000000029e-01 +8.5389751424748432e+00 +0.0000000000000000e+00 +9.4999999956638448e-01 -2.8713151777043328e-02 -5.4948771093400028e-01 +5.4099833906195343e-03
1.0000000000000002e+00 +8.5389724569702707e+00 +0.0000000000000000e+00 +9.9999999949424934e-01 -2.8713613673857361e-02 -5.4949550242015033e-01 +5.4090693363915299e-03
1.0500000000000003e+00 +8.5389696337337639e+00 +0.0000000000000000e+00 +1.0499999994145268e+00 -2.8714098823537683e-02 -5.4950368335579292e-01 +5.4081582651663972e-03
1.1000000000000003e+00 +8.5389666727632729e+00 +0.0000000000000000e+00 +1.0999999993268375e+00 -2.8714607110732197e-02 -5.4951225260171055e-01 +5.4072502951205640e-03
1.1500000000000004e+00 +8.5389635740566501e+00 +0.0000000000000000e+00 +1.1499999992308019e+00 -2.8715138420090377e-02 -5.4952120901870316e-01 +5.4063455444307495e-03
1.2000000000000004e+00 +8.5389603376116501e+00 +0.0000000000000000e+00 +1.1999999991260404e+00 -2.8715692636263196e-02 -5.4953055146758700e-01 +5.4054441312739680e-03
1.2500000000000004e+00 +8.5389569634259335e+00 +0.0000000000000000e+00 +1.2499999990121733e+00 -2.8716269643903287e-02 -5.4954027880919498e-01 +5.4045461738275674e-03
1.3000000000000005e+00 +8.5389534514970595e+00 +0.0000000000000000e+00 +1.2999999988888211e+00 -2.8716869327664776e-02 -5.4955038990437644e-01 +5.4036517902692179e-03
1.3500000000000005e+00 +8.5389498018224952e+00 +0.0000000000000000e+00 +1.3499999987556039e+00 -2.8717491572203397e-02 -5.4956088361399735e-01 +5.4027610987769500e-03
1.4000000000000006e+00 +8.5389460143996097e+00 +0.0000000000000000e+00 +1.3999999986121423e+00 -2.8718136262176456e-02 -5.4957175879893949e-01 +5.4018742175291580e-03
1.4500000000000006e+00 +8.5389420892256780e+00 +0.0000000000000000e+00 +1.4499999984580565e+00 -2.8718803282242841e-02 -5.4958301432010148e-01 +5.4009912647046167e-03
1.5000000000000007e+00 +8.5389380262978776e+00 +0.0000000000000000e+00 +1.4999999982929668e+00 -2.8719492517063037e-02 -5.4959464903839750e-01 +5.4001123584825027e-03
1.5500000000000007e+00 +8.5389338256132934e+00 +0.0000000000000000e+00 +1.5499999981164936e+00 -2.8720203851299090e-02 -5.4960666181475848e-01 +5.3992376170424062e-03
1.6000000000000008e+00 +8.5389294871689128e+00 +0.0000000000000000e+00 +1.5999999979282569e+00 -2.8720937169614696e-02 -5.4961905151012991e-01 +5.3983671585643433e-03
1.6500000000000008e+00 +8.5389250109616324e+00 +0.0000000000000000e+00 +1.6499999977278768e+00 -2.8721692356675071e-02 -5.4963181698547403e-01 +5.3975011012287744e-03
1.7000000000000008e+00 +8.5389203969882512e+00 +0.0000000000000000e+00 +1.6999999975149733e+00 -2.8722469297147103e-02 -5.4964495710176886e-01 +5.3966395632166304e-03
1.7500000000000009e+00 +8.5389156452454777e+00 +0.0000000000000000e+00 +1.7499999972891669e+00 -2.8723267875699281e-02 -5.4965847072000740e-01 +5.3957826627093067e-03
1.8000000000000009e+00 +8.5389107557299226e+00 +0.0000000000000000e+00 +1.7999999970500775e+00 -2.8724087977001656e-02 -5.4967235670119874e-01 +5.3949305178886955e-03
1.8500000000000010e+00 +8.5389057284381060e+00 +0.0000000000000000e+00 +1.8499999967973251e+00 -2.8724929485725963e-02 -5.4968661390636675e-01 +5.3940832469371999e-03
1.9000000000000010e+00 +8.5389005633664539e+00 +0.0000000000000000e+00 +1.8999999965305296e+00 -2.8725792286545516e-02 -5.4970124119655139e-01 +5.3932409680377425e-03
1.9500000000000011e+00 +8.5388952605113015e+00 +0.0000000000000000e+00 +1.9499999962493111e+00 -2.8726676264135251e-02 -5.4971623743280695e-01 +5.3924037993737838e-03
2.0000000000000009e+00 +8.5388898198688885e+00 +0.0000000000000000e+00 +1.9999999959532893e+00 -2.8727581303171747e-02 -5.4973160147620304e-01 +5.3915718591293410e-03
2.0500000000000007e+00 +8.5388842414353654e+00 +0.0000000000000000e+00 +2.0499999956420840e+00 -2.8728507297631281e-02 -5.4974733203123971e-01 +5.3907452572101383e-03
2.1000000000000005e+00 +8.5388785252067887e+00 +0.0000000000000000e+00 +2.0999999953153154e+00 -2.8729454178683424e-02 -5.4976342717609139e-01 +5.3899240704068695e-03
2.1500000000000004e+00 +8.5388726711791243e+00 +0.0000000000000000e+00 +2.1499999949726032e+00 -2.8730421886796208e-02 -5.4977988483235962e-01 +5.3891083672315647e-03
2.2000000000000002e+00 +8.5388666793482457e+00 +0.0000000000000000e+00 +2.1999999946135671e+00 -2.8731410362437801e-02 -5.4979670292165994e-01 +5.3882982161963990e-03
2.2500000000000000e+00 +8.5388605497099395e+00 +0.0000000000000000e+00 +2.2499999942378266e+00 -2.8732419546076481e-02 -5.4981387936561954e-01 +5.3874936858137011e-03
2.2999999999999998e+00 +8.5388542822598996e+00 +0.0000000000000000e+00 +2.2999999938450015e+00 -2.8733449378180547e-02 -5.4983141208587827e-01 +5.3866948445959253e-03
2.3499999999999996e+00 +8.5388478769937315e+00 +0.0000000000000000e+00 +2.3499999934347113e+00 -2.8734499799218230e-02 -5.4984929900408763e-01 +5.3859017610556528e-03
2.3999999999999995e+00 +8.5388413339069515e+00 +0.0000000000000000e+00 +2.3999999930065758e+00 -2.8735570749657623e-02 -5.4986753804191191e-01 +5.3851145037055806e-03
2.4499999999999993e+00 +8.5388346529949892e+00 +0.0000000000000000e+00 +2.4499999925602141e+00 -2.8736662169966582e-02 -5.4988612712102569e-01 +5.3843331410585032e-03
2.4999999999999991e+00 +8.5388278342531851e+00 +0.0000000000000000e+00 +2.4999999920952458e+00 -2.8737774000612722e-02 -5.4990506416311624e-01 +5.3835577416273140e-03
2.5499999999999989e+00 +8.5388208776767911e+00 +0.0000000000000000e+00 +2.5499999916112905e+00 -2.8738906182063238e-02 -5.4992434708988081e-01 +5.3827883739249825e-03
2.5999999999999988e+00 +8.5388137832609754e+00 +0.0000000000000000e+00 +2.5999999911079672e+00 -2.8740058654784913e-02 -5.4994397382302929e-01 +5.3820251064645606e-03
2.6499999999999986e+00 +8.5388065510008193e+00 +0.0000000000000000e+00 +2.6499999905848957e+00 -2.8741231359243950e-02 -5.4996394228428092e-01 +5.3812680077591560e-03
2.6999999999999984e+00 +8.5387991808913171e+00 +0.0000000000000000e+00 +2.6999999900416949e+00 -2.8742424235905992e-02 -5.4998425039536614e-01 +5.3805171463219325e-03
2.7499999999999982e+00 +8.5387916729273776e+00 +0.0000000000000000e+00 +2.7499999894779839e+00 -2.8743637225236013e-02 -5.5000489607802550e-01 +5.3797725906660930e-03
2.7999999999999980e+00 +8.5387840271038264e+00 +0.0000000000000000e+00 +2.7999999888933820e+00 -2.8744870267698161e-02 -5.5002587725401020e-01 +5.3790344093048743e-03
2.8499999999999979e+00 +8.5387762434154055e+00 +0.0000000000000000e+00 +2.8499999882875082e+00 -2.8746123303755818e-02 -5.5004719184508089e-01 +5.3783026707515409e-03
2.8999999999999977e+00 +8.5387683218567716e+00 +0.0000000000000000e+00 +2.8999999876599816e+00 -2.8747396273871403e-02 -5.5006883777300786e-01 +5.3775774435193624e-03
2.9499999999999975e+00 +8.5387602624224996e+00 +0.0000000000000000e+00 +2.9499999870104210e+00 -2.8748689118506358e-02 -5.5009081295957185e-01 +5.3768587961216122e-03
2.9999999999999973e+00 +8.5387520651070830e+00 +0.0000000000000000e+00 +2.9999999863384454e+00 -2.8750001778121068e-02 -5.5011311532656193e-01 +5.3761467970715598e-03
3.0499999999999972e+00 +8.5387437299049296e+00 +0.0000000000000000e+00 +3.0499999856436735e+00 -2.8751334193174733e-02 -5.5013574279577682e-01 +5.3754415148824543e-03
3.0999999999999970e+00 +8.5387352568103676e+00 +0.0000000000000000e+00 +3.0999999849257245e+00 -2.8752686304125346e-02 -5.5015869328902378e-01 +5.3747430180675132e-03
3.1499999999999968e+00 +8.5387266458176470e+00 +0.0000000000000000e+00 +3.1499999841842166e+00 -2.8754058051429620e-02 -5.5018196472811876e-01 +5.3740513751399212e-03
3.1999999999999966e+00 +8.5387178969209323e+00 +0.0000000000000000e+00 +3.1999999834187687e+00 -2.8755449375542846e-02 -5.5020555503488666e-01 +5.3733666546128111e-03
3.2499999999999964e+00 +8.5387090101143119e+00 +0.0000000000000000e+00 +3.2499999826289994e+00 -2.8756860216918874e-02 -5.5022946213116031e-01 +5.3726889249992617e-03
3.2999999999999963e+00 +8.5386999853917942e+00 +0.0000000000000000e+00 +3.2999999818145271e+00 -2.8758290516010004e-02 -5.5025368393878027e-01 +5.3720182548122773e-03
3.3499999999999961e+00 +8.5386908227473075e+00 +0.0000000000000000e+00 +3.3499999809749705e+00 -2.8759740213266945e-02 -5.5027821837959523e-01 +5.3713547125647876e-03
3.3999999999999959e+00 +8.5386815221747021e+00 +0.0000000000000000e+00 +3.3999999801099481e+00 -2.8761209249138692e-02 -5.5030306337546209e-01 +5.3706983667696339e-03
3.4499999999999957e+00 +8.5386720836677501e+00 +0.0000000000000000e+00 +3.4499999792190783e+00 -2.8762697564072459e-02 -5.5032821684824407e-01 +5.3700492859395524e-03
3.4999999999999956e+00 +8.5386625072201472e+00 +0.0000000000000000e+00 +3.4999999783019788e+00 -2.8764205098513653e-02 -5.5035367671981250e-01 +5.3694075385871797e-03
3.5499999999999954e+00 +8.5386527928255127e+00 +0.0000000000000000e+00 +3.5499999773582682e+00 -2.8765731792905706e-02 -5.5037944091204483e-01 +5.3687731932250274e-03
3.5999999999999952e+00 +8.5386429404773878e+00 +0.0000000000000000e+00 +3.5999999763875645e+00 -2.8767277587690064e-02 -5.5040550734682614e-01 +5.3681463183654779e-03
3.6499999999999950e+00 +8.5386329501692408e+00 +0.0000000000000000e+00 +3.6499999753894863e+00 -2.8768842423306108e-02 -5.5043187394604787e-01 +5.3675269825207775e-03
3.6999999999999948e+00 +8.5386228218944620e+00 +0.0000000000000000e+00 +3.6999999743636511e+00 -2.8770426240191022e-02 -5.5045853863160688e-01 +5.3669152542030196e-03
3.7499999999999947e+00 +8.5386125556463668e+00 +0.0000000000000000e+00 +3.7499999733096767e+00 -2.8772028978779781e-02 -5.5048549932540780e-01 +5.3663112019241401e-03
3.7999999999999945e+00 +8.5386021514181998e+00 +0.0000000000000000e+00 +3.7999999722271811e+00 -2.8773650579505053e-02 -5.5051275394935972e-01 +5.3657148941959063e-03
3.8499999999999943e+00 +8.5385916092031273e+00 +0.0000000000000000e+00 +3.8499999711157824e+00 -2.8775290982797068e-02 -5.5054030042537849e-01 +5.3651263995299053e-03
3.8999999999999941e+00 +8.5385809289942465e+00 +0.0000000000000000e+00 +3.8999999699750978e+00 -2.8776950129083618e-02 -5.5056813667538451e-01 +5.3645457864375298e-03
3.9499999999999940e+00 +8.5385701107845797e+00 +0.0000000000000000e+00 +3.9499999688047454e+00 -2.8778627958789955e-02 -5.5059626062130451e-01 +5.3639731234299808e-03
3.9999999999999938e+00 +8.5385591545670785e+00 +0.0000000000000000e+00 +3.9999999676043423e+00 -2.8780324412338649e-02 -5.5062467018506955e-01 +5.3634084790182401e-03
4.0499999999999936e+00 +8.5385480603346213e+00 +0.0000000000000000e+00 +4.0499999663735062e+00 -2.8782039414850146e-02 -5.5065336314010449e-01 +5.3628519171725767e-03
4.0999999999999934e+00 +8.5385368280800158e+00 +0.0000000000000000e+00 +4.0999999651118548e+00 -2.8783772830245226e-02 -5.5068233666579247e-01 +5.3623034837013851e-03
4.1499999999999932e+00 +8.5385254577960019e+00 +0.0000000000000000e+00 +4.1499999638190053e+00 -2.8785524507145843e-02 -5.5071158779300722e-01 +5.3617632198734045e-03
4.1999999999999931e+00 +8.5385139494752469e+00 +0.0000000000000000e+00 +4.1999999624945747e+00 -2.8787294294174995e-02 -5.5074111355262512e-01 +5.3612311669583666e-03
4.2499999999999929e+00 +8.5385023031103486e+00 +0.0000000000000000e+00 +4.2499999611381805e+00 -2.8789082039956840e-02 -5.5077091097552344e-01 +5.3607073662270167e-03
4.2999999999999927e+00 +8.5384905186938411e+00 +0.0000000000000000e+00 +4.2999999597494396e+00 -2.8790887593116619e-02 -5.5080097709258125e-01 +5.3601918589511327e-03
4.3499999999999925e+00 +8.5384785962181855e+00 +0.0000000000000000e+00 +4.3499999583279694e+00 -2.8792710802280793e-02 -5.5083130893467924e-01 +5.3596846864035807e-03
4.3999999999999924e+00 +8.5384665356757825e+00 +0.0000000000000000e+00 +4.3999999568733870e+00 -2.8794551516077058e-02 -5.5086190353269882e-01 +5.3591858898583049e-03
4.4499999999999922e+00 +8.5384543370589618e+00 +0.0000000000000000e+00 +4.4499999553853087e+00 -2.8796409583134338e-02 -5.5089275791752212e-01 +5.3586955105903722e-03
4.4999999999999920e+00 +8.5384420003599892e+00 +0.0000000000000000e+00 +4.4999999538633517e+00 -2.8798284852082884e-02 -5.5092386912003133e-01 +5.3582135898760002e-03
4.5499999999999918e+00 +8.5384295255710683e+00 +0.0000000000000000e+00 +4.5499999523071324e+00 -2.8800177171554295e-02 -5.5095523417110936e-01 +5.3577401689925740e-03
4.5999999999999917e+00 +8.5384169126843368e+00 +0.0000000000000000e+00 +4.5999999507162670e+00 -2.8802086390181558e-02 -5.5098685010163828e-01 +5.3572752892186923e-03
4.6499999999999915e+00 +8.5384041616918704e+00 +0.0000000000000000e+00 +4.6499999490903727e+00 -2.8804012356599060e-02 -5.5101871394250068e-01 +5.3568189918341610e-03
4.6999999999999913e+00 +8.5383912725856828e+00 +0.0000000000000000e+00 +4.6999999474290659e+00 -2.8805954919442687e-02 -5.5105082272457750e-01 +5.3563713181200541e-03
4.7499999999999911e+00 +8.5383782453577250e+00 +0.0000000000000000e+00 +4.7499999457319637e+00 -2.8807913927349795e-02 -5.5108317347874902e-01 +5.3559323093587130e-03
4.7999999999999909e+00 +8.5383650799998900e+00 +0.0000000000000000e+00 +4.7999999439986816e+00 -2.8809889228959315e-02 -5.5111576323589440e-01 +5.3555020068337929e-03
4.8499999999999908e+00 +8.5383517765040082e+00 +0.0000000000000000e+00 +4.8499999422288358e+00 -2.8811880672911738e-02 -5.5114858902689146e-01 +5.3550804518302754e-03
4.8999999999999906e+00 +8.5383383348618516e+00 +0.0000000000000000e+00 +4.8999999404220427e+00 -2.8813888107849205e-02 -5.5118164788261548e-01 +5.3546676856345028e-03
4.9499999999999904e+00 +8.5383247550651351e+00 +0.0000000000000000e+00 +4.9499999385779176e+00 -2.8815911382415488e-02 -5.5121493683394063e-01 +5.3542637495342044e-03
4.9999999999999902e+00 +8.5383110371055135e+00 +0.0000000000000000e+00 +4.9999999366960779e+00 -2.8817950345256083e-02 -5.5124845291173730e-01 +5.3538686848185095e-03
5.0499999999999901e+00 +8.5382971809745882e+00 +0.0000000000000000e+00 +5.0499999347761380e+00 -2.8820004845018250e-02 -5.5128219314687499e-01 +5.3534825327779994e-03
5.0999999999999899e+00 +8.5382831866639002e+00 +0.0000000000000000e+00 +5.0999999328177150e+00 -2.8822074730350995e-02 -5.5131615457021865e-01 +5.3531053347047096e-03
5.1499999999999897e+00 +8.5382690541649389e+00 +0.0000000000000000e+00 +5.1499999308204236e+00 -2.8824159849905159e-02 -5.5135033421263113e-01 +5.3527371318921680e-03
5.1999999999999895e+00 +8.5382547834691369e+00 +0.0000000000000000e+00 +5.1999999287838801e+00 -2.8826260052333463e-02 -5.5138472910497160e-01 +5.3523779656354208e-03
5.2499999999999893e+00 +8.5382403745678737e+00 +0.0000000000000000e+00 +5.2499999267076998e+00 -2.8828375186290518e-02 -5.5141933627809470e-01 +5.3520278772310531e-03
5.2999999999999892e+00 +8.5382258274524734e+00 +0.0000000000000000e+00 +5.2999999245914982e+00 -2.8830505100432884e-02 -5.5145415276285192e-01 +5.3516869079772277e-03
5.3499999999999890e+00 +8.5382111421142106e+00 +0.0000000000000000e+00 +5.3499999224348906e+00 -2.8832649643419094e-02 -5.5148917559009036e-01 +5.3513550991736913e-03
5.3999999999999888e+00 +8.5381963185443066e+00 +0.0000000000000000e+00 +5.3999999202374926e+00 -2.8834808663909722e-02 -5.5152440179065199e-01 +5.3510324921218193e-03
5.4499999999999886e+00 +8.5381813567339329e+00 +0.0000000000000000e+00 +5.4499999179989187e+00 -2.8836982010567391e-02 -5.5155982839537443e-01 +5.3507191281246423e-03
5.4999999999999885e+00 +8.5381662566742076e+00 +0.0000000000000000e+00 +5.4999999157187851e+00 -2.8839169532056837e-02 -5.5159545243508934e-01 +5.3504150484868507e-03
5.5499999999999883e+00 +8.5381510183562046e+00 +0.0000000000000000e+00 +5.5499999133967055e+00 -2.8841371077044917e-02 -5.5163127094062414e-01 +5.3501202945148525e-03
5.5999999999999881e+00 +8.5381356417709444e+00 +0.0000000000000000e+00 +5.5999999110322962e+00 -2.8843586494200719e-02 -5.5166728094279982e-01 +5.3498349075167713e-03
5.6499999999999879e+00 +8.5381201269094014e+00 +0.0000000000000000e+00 +5.6499999086251709e+00 -2.8845815632195501e-02 -5.5170347947243115e-01 +5.3495589288024932e-03
5.6999999999999877e+00 +8.5381044737625036e+00 +0.0000000000000000e+00 +5.6999999061749449e+00 -2.8848058339702824e-02 -5.5173986356032734e-01 +5.3492923996836814e-03
5.7499999999999876e+00 +8.5380886823211295e+00 +0.0000000000000000e+00 +5.7499999036812328e+00 -2.8850314465398520e-02 -5.5177643023729039e-01 +5.3490353614738051e-03
5.7999999999999874e+00 +8.5380727525761149e+00 +0.0000000000000000e+00 +5.7999999011436492e+00 -2.8852583857960763e-02 -5.5181317653411588e-01 +5.3487878554881706e-03
5.8499999999999872e+00 +8.5380566845182493e+00 +0.0000000000000000e+00 +5.8499998985618085e+00 -2.8854866366070164e-02 -5.5185009948159236e-01 +5.3485499230439461e-03
5.8999999999999870e+00 +8.5380404781382797e+00 +0.0000000000000000e+00 +5.8999998959353253e+00 -2.8857161838409699e-02 -5.5188719611050052e-01 +5.3483216054601782e-03
