# field on trajectory
# s[mm] rx[mm] ry[mm] rz[mm] bx[T] by[T] bz[T]
0.0000000000000000e+00 +8.5980000000000008e+00 +0.0000000000000000e+00 +0.0000000000000000e+00 -2.9571194866438028e-02 -5.5260514829132246e-01 +5.3439044394867309e-03
-5.0000000000000003e-02 +8.5979999309923230e+00 +0.0000000000000000e+00 -4.9999999999936512e-02 -2.9571023947623502e-02 -5.5260379364846890e-01 +5.3433780486764745e-03
-1.0000000000000001e-01 +8.5979997239694974e+00 +0.0000000000000000e+00 -9.9999999999492051e-02 -2.9570870628659339e-02 -5.5260282013501727e-01 +5.3428610434258480e-03
-1.5000000000000002e-01 +8.5979993789317692e+00 +0.0000000000000000e+00 -1.4999999999828567e-01 -2.9570734995161566e-02 -5.5260222701923567e-01 +5.3423534188695998e-03
-2.0000000000000001e-01 +8.5979988958792859e+00 +0.0000000000000000e+00 -1.9999999999593640e-01 -2.9570617132746731e-02 -5.5260201356941241e-01 +5.3418551701429357e-03
-2.5000000000000000e-01 +8.5979982748120989e+00 +0.0000000000000000e+00 -2.4999999999206329e-01 -2.9570517127031994e-02 -5.5260217905385511e-01 +5.3413662923815124e-03
-2.9999999999999999e-01 +8.5979975157301691e+00 +0.0000000000000000e+00 -2.9999999998628535e-01 -2.9570435063635186e-02 -5.5260272274089084e-01 +5.3408867807214324e-03
-3.4999999999999998e-01 +8.5979966186333598e+00 +0.0000000000000000e+00 -3.4999999997822168e-01 -2.9570371028174842e-02 -5.5260364389886540e-01 +5.3404166302992422e-03
-3.9999999999999997e-01 +8.5979955835214419e+00 +0.0000000000000000e+00 -3.9999999996749125e-01 -2.9570325106270258e-02 -5.5260494179614383e-01 +5.3399558362519266e-03
-4.4999999999999996e-01 +8.5979944103940902e+00 +0.0000000000000000e+00 -4.4999999995371309e-01 -2.9570297383541531e-02 -5.5260661570110980e-01 +5.3395043937169030e-03
-4.9999999999999994e-01 +8.5979930992508873e+00 +0.0000000000000000e+00 -4.9999999993650623e-01 -2.9570287945609664e-02 -5.5260866488216542e-01 +5.3390622978320302e-03
-5.4999999999999993e-01 +8.5979916500913216e+00 +0.0000000000000000e+00 -5.4999999991548976e-01 -2.9570296878096532e-02 -5.5261108860773134e-01 +5.3386295437355905e-03
-5.9999999999999998e-01 +8.5979900629147874e+00 +0.0000000000000000e+00 -5.9999999989028263e-01 -2.9570324266625043e-02 -5.5261388614624651e-01 +5.3382061265662920e-03
-6.5000000000000002e-01 +8.5979883377205848e+00 +0.0000000000000000e+00 -6.4999999986050383e-01 -2.9570370196819063e-02 -5.5261705676616701e-01 +5.3377920414632617e-03
-7.0000000000000007e-01 +8.5979864745079233e+00 +0.0000000000000000e+00 -6.9999999982577232e-01 -2.9570434754303612e-02 -5.5262059973596778e-01 +5.3373872835660542e-03
-7.5000000000000011e-01 +8.5979844732759183e+00 +0.0000000000000000e+00 -7.4999999978570719e-01 -2.9570518024704801e-02 -5.5262451432414050e-01 +5.3369918480146369e-03
-8.0000000000000016e-01 +8.5979823340235928e+00 +0.0000000000000000e+00 -7.9999999973992730e-01 -2.9570620093649944e-02 -5.5262879979919444e-01 +5.3366057299493825e-03
-8.5000000000000020e-01 +8.5979800567498756e+00 +0.0000000000000000e+00 -8.4999999968805173e-01 -2.9570741046767556e-02 -5.5263345542965603e-01 +5.3362289245110755e-03
-9.0000000000000024e-01 +8.5979776414536033e+00 +0.0000000000000000e+00 -8.9999999962969934e-01 -2.9570880969687505e-02 -5.5263848048406872e-01 +5.3358614268409097e-03
-9.5000000000000029e-01 +8.5979750881335217e+00 +0.0000000000000000e+00 -9.4999999956448899e-01 -2.9571039948040969e-02 -5.5264387423099326e-01 +5.3355032320804765e-03
-1.0000000000000002e+00 +8.5979723967882826e+00 +0.0000000000000000e+00 -9.9999999949203977e-01 -2.9571218067460499e-02 -5.5264963593900551e-01 +5.3351543353717668e-03
-1.0500000000000003e+00 +8.5979695674164489e+00 +0.0000000000000000e+00 -1.0499999994119704e+00 -2.9571415413580160e-02 -5.5265576487669987e-01 +5.3348147318571593e-03
-1.1000000000000003e+00 +8.5979666000164876e+00 +0.0000000000000000e+00 -1.0999999993239000e+00 -2.9571632072035454e-02 -5.5266226031268462e-01 +5.3344844166794379e-03
-1.1500000000000004e+00 +8.5979634945867787e+00 +0.0000000000000000e+00 -1.1499999992274472e+00 -2.9571868128463508e-02 -5.5266912151558600e-01 +5.3341633849817603e-03
-1.2000000000000004e+00 +8.5979602511256079e+00 +0.0000000000000000e+00 -1.1999999991222310e+00 -2.9572123668502974e-02 -5.5267634775404473e-01 +5.3338516319076735e-03
-1.2500000000000004e+00 +8.5979568696311706e+00 +0.0000000000000000e+00 -1.2499999990078701e+00 -2.9572398777794252e-02 -5.5268393829671769e-01 +5.3335491526011070e-03
-1.3000000000000005e+00 +8.5979533501015695e+00 +0.0000000000000000e+00 -1.2999999988839832e+00 -2.9572693541979399e-02 -5.5269189241227756e-01 +5.3332559422063688e-03
-1.3500000000000005e+00 +8.5979496925348204e+00 +0.0000000000000000e+00 -1.3499999987501894e+00 -2.9573008046702258e-02 -5.5270020936941122e-01 +5.3329719958681342e-03
-1.4000000000000006e+00 +8.5979458969288451e+00 +0.0000000000000000e+00 -1.3999999986061074e+00 -2.9573342377608502e-02 -5.5270888843682142e-01 +5.3326973087314510e-03
-1.4500000000000006e+00 +8.5979419632814764e+00 +0.0000000000000000e+00 -1.4499999984513556e+00 -2.9573696620345660e-02 -5.5271792888322557e-01 +5.3324318759417396e-03
-1.5000000000000007e+00 +8.5979378915904547e+00 +0.0000000000000000e+00 -1.4999999982855530e+00 -2.9574070860563201e-02 -5.5272732997735552e-01 +5.3321756926447772e-03
-1.5500000000000007e+00 +8.5979336818534335e+00 +0.0000000000000000e+00 -1.5499999981083183e+00 -2.9574465183912560e-02 -5.5273709098795765e-01 +5.3319287539867026e-03
-1.6000000000000008e+00 +8.5979293340679757e+00 +0.0000000000000000e+00 -1.5999999979192701e+00 -2.9574879676047227e-02 -5.5274721118379289e-01 +5.3316910551140144e-03
-1.6500000000000008e+00 +8.5979248482315533e+00 +0.0000000000000000e+00 -1.6499999977180269e+00 -2.9575314422622758e-02 -5.5275768983363560e-01 +5.3314625911735618e-03
-1.7000000000000008e+00 +8.5979202243415482e+00 +0.0000000000000000e+00 -1.6999999975042073e+00 -2.9575769509296836e-02 -5.5276852620627470e-01 +5.3312433573125383e-03
-1.7500000000000009e+00 +8.5979154623952549e+00 +0.0000000000000000e+00 -1.7499999972774301e+00 -2.9576245021729362e-02 -5.5277971957051242e-01 +5.3310333486784921e-03
-1.8000000000000009e+00 +8.5979105623898775e+00 +0.0000000000000000e+00 -1.7999999970373137e+00 -2.9576741045582468e-02 -5.5279126919516430e-01 +5.3308325604193114e-03
-1.8500000000000010e+00 +8.5979055243225311e+00 +0.0000000000000000e+00 -1.8499999967834766e+00 -2.9577257666520591e-02 -5.5280317434905957e-01 +5.3306409876832193e-03
-1.9000000000000010e+00 +8.5979003481902438e+00 +0.0000000000000000e+00 -1.8999999965155372e+00 -2.9577794970210496e-02 -5.5281543430104008e-01 +5.3304586256187796e-03
-1.9500000000000011e+00 +8.5978950339899534e+00 +0.0000000000000000e+00 -1.9499999962331140e+00 -2.9578353042321367e-02 -5.5282804831996124e-01 +5.3302854693748876e-03
-2.0000000000000009e+00 +8.5978895817185084e+00 +0.0000000000000000e+00 -1.9999999959358254e+00 -2.9578931968524850e-02 -5.5284101567469068e-01 +5.3301215141007665e-03
-2.0500000000000007e+00 +8.5978839913726706e+00 +0.0000000000000000e+00 -2.0499999956232897e+00 -2.9579531787129604e-02 -5.5285433539684103e-01 +5.3299667456556650e-03
-2.1000000000000005e+00 +8.5978782629491146e+00 +0.0000000000000000e+00 -2.0999999952951254e+00 -2.9580152346984280e-02 -5.5286800556897142e-01 +5.3298211127379442e-03
-2.1500000000000004e+00 +8.5978723964444246e+00 +0.0000000000000000e+00 -2.1499999949509507e+00 -2.9580793449572915e-02 -5.5288202403638376e-01 +5.3296845547559576e-03
-2.2000000000000002e+00 +8.5978663918551010e+00 +0.0000000000000000e+00 -2.1999999945903839e+00 -2.9581454896380120e-02 -5.5289638864439217e-01 +5.3295570111183419e-03
-2.2500000000000000e+00 +8.5978602491775558e+00 +0.0000000000000000e+00 -2.2499999942130433e+00 -2.9582136488891131e-02 -5.5291109723832155e-01 +5.3294384212340170e-03
-2.2999999999999998e+00 +8.5978539684081152e+00 +0.0000000000000000e+00 -2.2999999938185467e+00 -2.9582838028591716e-02 -5.5292614766350756e-01 +5.3293287245121780e-03
-2.3499999999999996e+00 +8.5978475495430207e+00 +0.0000000000000000e+00 -2.3499999934065126e+00 -2.9583559316968072e-02 -5.5294153776529686e-01 +5.3292278603622942e-03
-2.3999999999999995e+00 +8.5978409925784280e+00 +0.0000000000000000e+00 -2.3999999929765590e+00 -2.9584300155506803e-02 -5.5295726538904566e-01 +5.3291357681940956e-03
-2.4499999999999993e+00 +8.5978342975104098e+00 +0.0000000000000000e+00 -2.4499999925283036e+00 -2.9585060345694851e-02 -5.5297332838012125e-01 +5.3290523874175771e-03
-2.4999999999999991e+00 +8.5978274643349533e+00 +0.0000000000000000e+00 -2.4999999920613649e+00 -2.9585839689019476e-02 -5.5298972458390017e-01 +5.3289776574429919e-03
-2.5499999999999989e+00 +8.5978204930479656e+00 +0.0000000000000000e+00 -2.5499999915753606e+00 -2.9586637986968114e-02 -5.5300645184576880e-01 +5.3289115176808344e-03
-2.5999999999999988e+00 +8.5978133836452670e+00 +0.0000000000000000e+00 -2.5999999910699088e+00 -2.9587455041028381e-02 -5.5302350801112299e-01 +5.3288539075418591e-03
-2.6499999999999986e+00 +8.5978061361225997e+00 +0.0000000000000000e+00 -2.6499999905446270e+00 -2.9588290652687997e-02 -5.5304089092536768e-01 +5.3288047664370487e-03
-2.6999999999999984e+00 +8.5977987504756204e+00 +0.0000000000000000e+00 -2.6999999899991334e+00 -2.9589144623434708e-02 -5.5305859843391669e-01 +5.3287640337776237e-03
-2.7499999999999982e+00 +8.5977912266999077e+00 +0.0000000000000000e+00 -2.7499999894330456e+00 -2.9590016754756261e-02 -5.5307662838219318e-01 +5.3287316489750419e-03
-2.7999999999999980e+00 +8.5977835647909586e+00 +0.0000000000000000e+00 -2.7999999888459812e+00 -2.9590906848140308e-02 -5.5309497861562729e-01 +5.3287075514409817e-03
-2.8499999999999979e+00 +8.5977757647441901e+00 +0.0000000000000000e+00 -2.8499999882375580e+00 -2.9591814705074399e-02 -5.5311364697965970e-01 +5.3286916805873443e-03
-2.8999999999999977e+00 +8.5977678265549411e+00 +0.0000000000000000e+00 -2.8999999876073934e+00 -2.9592740127045832e-02 -5.5313263131973700e-01 +5.3286839758262426e-03
-2.9499999999999975e+00 +8.5977597502184686e+00 +0.0000000000000000e+00 -2.9499999869551052e+00 -2.9593682915541694e-02 -5.5315192948131475e-01 +5.3286843765700028e-03
-2.9999999999999973e+00 +8.5977515357299534e+00 +0.0000000000000000e+00 -2.9999999862803111e+00 -2.9594642872048726e-02 -5.5317153930985596e-01 +5.3286928222311559e-03
-3.0499999999999972e+00 +8.5977431830844981e+00 +0.0000000000000000e+00 -3.0499999855826281e+00 -2.9595619798053318e-02 -5.5319145865083086e-01 +5.3287092522224296e-03
-3.0999999999999970e+00 +8.5977346922771272e+00 +0.0000000000000000e+00 -3.0999999848616739e+00 -2.9596613495041391e-02 -5.5321168534971576e-01 +5.3287336059567548e-03
-3.1499999999999968e+00 +8.5977260633027903e+00 +0.0000000000000000e+00 -3.1499999841170658e+00 -2.9597623764498409e-02 -5.5323221725199623e-01 +5.3287658228472496e-03
-3.1999999999999966e+00 +8.5977172961563575e+00 +0.0000000000000000e+00 -3.1999999833484214e+00 -2.9598650407909231e-02 -5.5325305220316212e-01 +5.3288058423072082e-03
-3.2499999999999964e+00 +8.5977083908326275e+00 +0.0000000000000000e+00 -3.2499999825553574e+00 -2.9599693226758150e-02 -5.5327418804871098e-01 +5.3288536037501156e-03
-3.2999999999999963e+00 +8.5976993473263210e+00 +0.0000000000000000e+00 -3.2999999817374914e+00 -2.9600752022528751e-02 -5.5329562263414633e-01 +5.3289090465896303e-03
-3.3499999999999961e+00 +8.5976901656320841e+00 +0.0000000000000000e+00 -3.3499999808944403e+00 -2.9601826596703892e-02 -5.5331735380497715e-01 +5.3289721102395739e-03
-3.3999999999999959e+00 +8.5976808457444900e+00 +0.0000000000000000e+00 -3.3999999800258212e+00 -2.9602916750765641e-02 -5.5333937940671840e-01 +5.3290427341139398e-03
-3.4499999999999957e+00 +8.5976713876580373e+00 +0.0000000000000000e+00 -3.4499999791312512e+00 -2.9604022286195193e-02 -5.5336169728489082e-01 +5.3291208576268763e-03
-3.4999999999999956e+00 +8.5976617913671536e+00 +0.0000000000000000e+00 -3.4999999782103473e+00 -2.9605143004472857e-02 -5.5338430528502003e-01 +5.3292064201926892e-03
-3.5499999999999954e+00 +8.5976520568661918e+00 +0.0000000000000000e+00 -3.5499999772627264e+00 -2.9606278707077934e-02 -5.5340720125263720e-01 +5.3292993612258340e-03
-3.5999999999999952e+00 +8.5976421841494322e+00 +0.0000000000000000e+00 -3.5999999762880051e+00 -2.9607429195488710e-02 -5.5343038303327752e-01 +5.3293996201409094e-03
-3.6499999999999950e+00 +8.5976321732110872e+00 +0.0000000000000000e+00 -3.6499999752858003e+00 -2.9608594271182391e-02 -5.5345384847248125e-01 +5.3295071363526547e-03
-3.6999999999999948e+00 +8.5976220240452950e+00 +0.0000000000000000e+00 -3.6999999742557286e+00 -2.9609773735634986e-02 -5.5347759541579267e-01 +5.3296218492759400e-03
-3.7499999999999947e+00 +8.5976117366461260e+00 +0.0000000000000000e+00 -3.7499999731974070e+00 -2.9610967390321336e-02 -5.5350162170876038e-01 +5.3297436983257718e-03
-3.7999999999999945e+00 +8.5976013110075780e+00 +0.0000000000000000e+00 -3.7999999721104518e+00 -2.9612175036714969e-02 -5.5352592519693711e-01 +5.3298726229172736e-03
-3.8499999999999943e+00 +8.5975907471235828e+00 +0.0000000000000000e+00 -3.8499999709944794e+00 -2.9613396476288103e-02 -5.5355050372587788e-01 +5.3300085624656858e-03
-3.8999999999999941e+00 +8.5975800449880015e+00 +0.0000000000000000e+00 -3.8999999698491066e+00 -2.9614631510511566e-02 -5.5357535514114331e-01 +5.3301514563863792e-03
-3.9499999999999940e+00 +8.5975692045946275e+00 +0.0000000000000000e+00 -3.9499999686739495e+00 -2.9615879940854718e-02 -5.5360047728829476e-01 +5.3303012440948155e-03
-3.9999999999999938e+00 +8.5975582259371865e+00 +0.0000000000000000e+00 -3.9999999674686242e+00 -2.9617141568785407e-02 -5.5362586801289881e-01 +5.3304578650065684e-03
-4.0499999999999936e+00 +8.5975471090093372e+00 +0.0000000000000000e+00 -4.0499999662327477e+00 -2.9618416211728581e-02 -5.5365152508090010e-01 +5.3306212597926152e-03
-4.0999999999999934e+00 +8.5975358538046720e+00 +0.0000000000000000e+00 -4.0999999649659351e+00 -2.9619703750943225e-02 -5.5367744593975388e-01 +5.3307913741451390e-03
-4.1499999999999932e+00 +8.5975244603167162e+00 +0.0000000000000000e+00 -4.1499999636678035e+00 -2.9621004083647873e-02 -5.5370362795729577e-01 +5.3309681550113893e-03
-4.1999999999999931e+00 +8.5975129285389311e+00 +0.0000000000000000e+00 -4.1999999623379685e+00 -2.9622317107062077e-02 -5.5373006850136441e-01 +5.3311515493383093e-03
-4.2499999999999929e+00 +8.5975012584647139e+00 +0.0000000000000000e+00 -4.2499999609760462e+00 -2.9623642718406489e-02 -5.5375676493980108e-01 +5.3313415040725405e-03
-4.2999999999999927e+00 +8.5974894500873962e+00 +0.0000000000000000e+00 -4.2999999595816520e+00 -2.9624980814902814e-02 -5.5378371464044984e-01 +5.3315379661603816e-03
-4.3499999999999925e+00 +8.5974775034002491e+00 +0.0000000000000000e+00 -4.3499999581544024e+00 -2.9626331293773900e-02 -5.5381091497115742e-01 +5.3317408825477950e-03
-4.3999999999999924e+00 +8.5974654183964780e+00 +0.0000000000000000e+00 -4.3999999566939136e+00 -2.9627694052243733e-02 -5.5383836329977310e-01 +5.3319502001803838e-03
-4.4499999999999922e+00 +8.5974531950692281e+00 +0.0000000000000000e+00 -4.4499999551998002e+00 -2.9629068987537418e-02 -5.5386605699414748e-01 +5.3321658660033661e-03
-4.4999999999999920e+00 +8.5974408334115822e+00 +0.0000000000000000e+00 -4.4999999536716784e+00 -2.9630455996881279e-02 -5.5389399342213419e-01 +5.3323878269615679e-03
-4.5499999999999918e+00 +8.5974283334165644e+00 +0.0000000000000000e+00 -4.5499999521091636e+00 -2.9631854977502835e-02 -5.5392216995158783e-01 +5.3326160299994032e-03
-4.5999999999999917e+00 +8.5974156950771370e+00 +0.0000000000000000e+00 -4.5999999505118714e+00 -2.9633265826630822e-02 -5.5395058395036501e-01 +5.3328504220608638e-03
-4.6499999999999915e+00 +8.5974029183862033e+00 +0.0000000000000000e+00 -4.6499999488794170e+00 -2.9634688441495215e-02 -5.5397923278632288e-01 +5.3330909500894919e-03
-4.6999999999999913e+00 +8.5973900033366100e+00 +0.0000000000000000e+00 -4.6999999472114160e+00 -2.9636122719327279e-02 -5.5400811382732074e-01 +5.3333375610283770e-03
-4.7499999999999911e+00 +8.5973769499211414e+00 +0.0000000000000000e+00 -4.7499999455074837e+00 -2.9637568557359557e-02 -5.5403722444121772e-01 +5.3335902018201266e-03
-4.7999999999999909e+00 +8.5973637581325288e+00 +0.0000000000000000e+00 -4.7999999437672347e+00 -2.9639025852825913e-02 -5.5406656199587490e-01 +5.3338488194068613e-03
-4.8499999999999908e+00 +8.5973504279634465e+00 +0.0000000000000000e+00 -4.8499999419902844e+00 -2.9640494502961547e-02 -5.5409612385915286e-01 +5.3341133607301902e-03
-4.8999999999999906e+00 +8.5973369594065083e+00 +0.0000000000000000e+00 -4.8999999401762482e+00 -2.9641974405003015e-02 -5.5412590739891310e-01 +5.3343837727311966e-03
-4.9499999999999904e+00 +8.5973233524542785e+00 +0.0000000000000000e+00 -4.9499999383247406e+00 -2.9643465456188262e-02 -5.5415590998301700e-01 +5.3346600023504269e-03
-4.9999999999999902e+00 +8.5973096070992625e+00 +0.0000000000000000e+00 -4.9999999364353771e+00 -2.9644967553756615e-02 -5.5418612897932584e-01 +5.3349419965278682e-03
-5.0499999999999901e+00 +8.5972957233339145e+00 +0.0000000000000000e+00 -5.0499999345077713e+00 -2.9646480594948850e-02 -5.5421656175570100e-01 +5.3352297022029324e-03
-5.0999999999999899e+00 +8.5972817011506315e+00 +0.0000000000000000e+00 -5.0999999325415395e+00 -2.9648004477007189e-02 -5.5424720568000330e-01 +5.3355230663144453e-03
-5.1499999999999897e+00 +8.5972675405417629e+00 +0.0000000000000000e+00 -5.1499999305362953e+00 -2.9649539097175305e-02 -5.5427805812009190e-01 +5.3358220358006242e-03
-5.1999999999999895e+00 +8.5972532414996010e+00 +0.0000000000000000e+00 -5.1999999284916534e+00 -2.9651084352698403e-02 -5.5430911644382619e-01 +5.3361265575990625e-03
-5.2499999999999893e+00 +8.5972388040163903e+00 +0.0000000000000000e+00 -5.2499999264072281e+00 -2.9652640140823160e-02 -5.5434037801906466e-01 +5.3364365786467182e-03
-5.2999999999999892e+00 +8.5972242280843236e+00 +0.0000000000000000e+00 -5.2999999242826341e+00 -2.9654206358797813e-02 -5.5437184021366359e-01 +5.3367520458798947e-03
-5.3499999999999890e+00 +8.5972095136955424e+00 +0.0000000000000000e+00 -5.3499999221174859e+00 -2.9655782903872153e-02 -5.5440350039547859e-01 +5.3370729062342170e-03
-5.3999999999999888e+00 +8.5971946608421401e+00 +0.0000000000000000e+00 -5.3999999199113971e+00 -2.9657369673297563e-02 -5.5443535593236315e-01 +5.3373991066446346e-03
-5.4499999999999886e+00 +8.5971796695161604e+00 +0.0000000000000000e+00 -5.4499999176639822e+00 -2.9658966564327028e-02 -5.5446740419216867e-01 +5.3377305940453812e-03
-5.4999999999999885e+00 +8.5971645397096008e+00 +0.0000000000000000e+00 -5.4999999153748558e+00 -2.9660573474215142e-02 -5.5449964254274497e-01 +5.3380673153699794e-03
-5.5499999999999883e+00 +8.5971492714144073e+00 +0.0000000000000000e+00 -5.5499999130436315e+00 -2.9662190300218182e-02 -5.5453206835193969e-01 +5.3384092175512068e-03
-5.5999999999999881e+00 +8.5971338646224833e+00 +0.0000000000000000e+00 -5.5999999106699230e+00 -2.9663816939594058e-02 -5.5456467898759754e-01 +5.3387562475210983e-03
-5.6499999999999879e+00 +8.5971183193256842e+00 +0.0000000000000000e+00 -5.6499999082533447e+00 -2.9665453289602395e-02 -5.5459747181756047e-01 +5.3391083522109101e-03
-5.6999999999999877e+00 +8.5971026355158191e+00 +0.0000000000000000e+00 -5.6999999057935096e+00 -2.9667099247504533e-02 -5.5463044420966834e-01 +5.3394654785511152e-03
-5.7499999999999876e+00 +8.5970868131846547e+00 +0.0000000000000000e+00 -5.7499999032900320e+00 -2.9668754710563565e-02 -5.5466359353175687e-01 +5.3398275734713938e-03
-5.7999999999999874e+00 +8.5970708523239097e+00 +0.0000000000000000e+00 -5.7999999007425256e+00 -2.9670419576044306e-02 -5.5469691715165970e-01 +5.3401945839005958e-03
-5.8499999999999872e+00 +8.5970547529252634e+00 +0.0000000000000000e+00 -5.8499998981506032e+00 -2.9672093741213396e-02 -5.5473041243720589e-01 +5.3405664567667448e-03
