# multipoles
# s[mm] polynom_b[n=0][T/m^n] polynom_b[n=1][T/m^n] polynom_b[n=2][T/m^n] polynom_b[n=3][T/m^n] polynom_b[n=4][T/m^n] polynom_b[n=5][T/m^n] polynom_b[n=6][T/m^n] 
+0.0000000000000000e+00 -5.2764184694203153e-01 +6.9591647555879881e+00 +4.0905361614747147e+00 -9.3979640822984706e+01 -6.9009137418892215e+03 +2.4460275880033121e+05 +3.9215084735396601e+07 
-5.0000000000000003e-02 -5.2764136327775446e-01 +6.9592053555767697e+00 +4.0837790059968615e+00 -9.3762823122610243e+01 -6.7785729242615453e+03 +2.4221118688609631e+05 +3.8555912668540940e+07 
-1.0000000000000001e-01 -5.2764117344943073e-01 +6.9592612447715396e+00 +4.0770125154236876e+00 -9.3503446337575241e+01 -6.6666107278847057e+03 +2.3953643624801579e+05 +3.7962855680895358e+07 
-1.5000000000000002e-01 -5.2764127689874163e-01 +6.9593323955082926e+00 +4.0702377183467062e+00 -9.3203304114719586e+01 -6.5648761102948511e+03 +2.3659252226626818e+05 +3.7434673089413591e+07 
-2.0000000000000001e-01 -5.2764167306739962e-01 +6.9594187801231273e+00 +4.0634556470125318e+00 -9.2864190073644465e+01 -6.4732181348201393e+03 +2.3339346008334050e+05 +3.6970124952624217e+07 
-2.5000000000000000e-01 -5.2764236139712761e-01 +6.9595203709540767e+00 +4.0566673326577858e+00 -9.2487897888501834e+01 -6.3914858342037487e+03 +2.2995326528646657e+05 +3.6567971111545481e+07 
-2.9999999999999999e-01 -5.2764334132965773e-01 +6.9596371403393258e+00 +4.0498738057539700e+00 -9.2076221209259586e+01 -6.3195282225338069e+03 +2.2628595324047920e+05 +3.6226971288954400e+07 
-3.4999999999999998e-01 -5.2764461230673187e-01 +6.9597690606159945e+00 +4.0430760965104087e+00 -9.1630953615188872e+01 -6.2571943096245150e+03 +2.2240553872657375e+05 +3.5945885187614903e+07 
-3.9999999999999997e-01 -5.2764617377010958e-01 +6.9599161041205697e+00 +4.0362752354862597e+00 -9.1153888638072175e+01 -6.2043331161472834e+03 +2.1832603614279366e+05 +3.5723472593531705e+07 
-4.4999999999999996e-01 -5.2764802516155562e-01 +6.9600782431938129e+00 +4.0294722519806072e+00 -9.0646819954180401e+01 -6.1607936266129736e+03 +2.1406146105234639e+05 +3.5558493034931406e+07 
-4.9999999999999994e-01 -5.2765016592286418e-01 +6.9602554501708838e+00 +4.0226681779368567e+00 -9.0111540998282393e+01 -6.1264248991915383e+03 +2.0962582707705937e+05 +3.5449706549569696e+07 
-5.4999999999999993e-01 -5.2765259549583499e-01 +6.9604476973916523e+00 +4.0158640441867437e+00 -8.9549845356799423e+01 -6.1010759629668619e+03 +2.0503314902329663e+05 +3.5395872980254762e+07 
-5.9999999999999998e-01 -5.2765531332226201e-01 +6.9606549571947847e+00 +4.0090608782221109e+00 -8.8963526557455808e+01 -6.0845957590127191e+03 +2.0029744126348788e+05 +3.5395751583855771e+07 
-6.5000000000000002e-01 -5.2765831884397973e-01 +6.9608772019170706e+00 +4.0022597122951886e+00 -8.8354378027950659e+01 -6.0768333555728013e+03 +1.9543271736118061e+05 +3.5448102469000816e+07 
-7.0000000000000007e-01 -5.2766161150283064e-01 +6.9611144038969588e+00 +3.9954615773991402e+00 -8.7724193241461364e+01 -6.0776377847850199e+03 +1.9045299124240081e+05 +3.5551685492556788e+07 
-7.5000000000000011e-01 -5.2766519074065021e-01 +6.9613665354737604e+00 +3.9886675019639166e+00 -8.7074765678263788e+01 -6.0868580179010023e+03 +1.8537227687987045e+05 +3.5705260129615851e+07 
-8.0000000000000016e-01 -5.2766905599930647e-01 +6.9616335689849906e+00 +3.9818785171861464e+00 -8.6407888744690851e+01 -6.1043430953222942e+03 +1.8020458772686275e+05 +3.5907586300960399e+07 
-8.5000000000000020e-01 -5.2767320672067186e-01 +6.9619154767704181e+00 +3.9750956530662211e+00 -8.5725355904769529e+01 -6.1299420263184475e+03 +1.7496393765942263e+05 +3.6157423718733311e+07 
-9.0000000000000024e-01 -5.2767764234663472e-01 +6.9622122311678316e+00 +3.9683199397154456e+00 -8.5028960528492647e+01 -6.1635038212404816e+03 +1.6966433982329123e+05 +3.6453532094699785e+07 
-9.5000000000000029e-01 -5.2768236231909271e-01 +6.9625238045168345e+00 +3.9615524075589610e+00 -8.4320496046379560e+01 -6.2048775052581532e+03 +1.6431980789331804e+05 +3.6794671261442997e+07 
-1.0000000000000002e+00 -5.2768736607996480e-01 +6.9628501691546658e+00 +3.9547940879343764e+00 -8.3601755776789474e+01 -6.2539121235723260e+03 +1.5894435464206972e+05 +3.7179601169171788e+07 
-1.0500000000000003e+00 -5.2769265307117241e-01 +6.9631912974206900e+00 +3.9480460106427282e+00 -8.2874533100692560e+01 -6.3104566804830501e+03 +1.5355199336126505e+05 +3.7607081489889994e+07 
-1.1000000000000003e+00 -5.2769822273465272e-01 +6.9635471616530937e+00 +3.9413092061402240e+00 -8.2140621347415561e+01 -6.3743601994171468e+03 +1.4815673697358940e+05 +3.8075872028793462e+07 
-1.1500000000000004e+00 -5.2770407451235923e-01 +6.9639177341908312e+00 +3.9345847053215692e+00 -8.1401813856353797e+01 -6.4454717116118300e+03 +1.4277259849763580e+05 +3.8584732625674695e+07 
-1.2000000000000004e+00 -5.2771020784625322e-01 +6.9643029873717799e+00 +3.9278735389295996e+00 -8.0659903920295221e+01 -6.5236402505837605e+03 +1.3741359063050986e+05 +3.9132423157203786e+07 
-1.2500000000000004e+00 -5.2771662217830861e-01 +6.9647028935361446e+00 +3.9211767372097479e+00 -7.9916684897739941e+01 -6.6087148305963601e+03 +1.3209372658387906e+05 +3.9717703345624968e+07 
-1.3000000000000005e+00 -5.2772331695051022e-01 +6.9651174250205115e+00 +3.9144953305955754e+00 -7.9173950012532345e+01 -6.7005444722825978e+03 +1.2682701859784237e+05 +4.0339332956312962e+07 
-1.3500000000000005e+00 -5.2773029160487928e-01 +6.9655465541639066e+00 +3.9078303539189259e+00 -7.8433492555316761e+01 -6.7989783166296720e+03 +1.2162747940346035e+05 +4.0996072572077759e+07 
-1.4000000000000006e+00 -5.2773754558340358e-01 +6.9659902533051357e+00 +3.9011828334576517e+00 -7.7697105807428571e+01 -6.9038652671879909e+03 +1.1650912174720925e+05 +4.1686681141884781e+07 
-1.4500000000000006e+00 -5.2774507832812645e-01 +6.9664484947814227e+00 +3.8945538042761814e+00 -7.6966582976399110e+01 -7.0150544740012347e+03 +1.1148595779900189e+05 +4.2409919313346855e+07 
-1.5000000000000007e+00 -5.2775288928108433e-01 +6.9669212509323604e+00 +3.8879442969768792e+00 -7.6243717365513135e+01 -7.1323949546912963e+03 +1.0657200059976010e+05 +4.3164546789929599e+07 
-1.5500000000000007e+00 -5.2776097788431997e-01 +6.9674084940959879e+00 +3.8813553423553628e+00 -7.5530302192240057e+01 -7.2557357408959797e+03 +1.0178126246911070e+05 +4.3949323396927871e+07 
-1.6000000000000008e+00 -5.2776934357989902e-01 +6.9679101966081198e+00 +3.8747879725442669e+00 -7.4828130591970037e+01 -7.3849258945363354e+03 +9.7127755164284594e+04 +4.4763009140242264e+07 
-1.6500000000000008e+00 -5.2777798580990354e-01 +6.9684263308074348e+00 +3.8682432208561859e+00 -7.4138995801048395e+01 -7.5198145094631836e+03 +9.2625491292352162e+04 +4.5604364236319572e+07 
-1.7000000000000008e+00 -5.2778690401641637e-01 +6.9689568690324037e+00 +3.8617221186879336e+00 -7.3464691050589664e+01 -7.6602506269694168e+03 +8.8288483493134961e+04 +4.6472148539225504e+07 
-1.7500000000000009e+00 -5.2779609764154167e-01 +6.9695017836196271e+00 +3.8552256991550604e+00 -7.2807009483749127e+01 -7.8060833320388683e+03 +8.4130743719956125e+04 +4.7365122182720497e+07 
-1.8000000000000009e+00 -5.2780556612739393e-01 +6.9700610469070003e+00 +3.8487549956332110e+00 -7.2167744297042120e+01 -7.9571617207043928e+03 +8.0166284436699352e+04 +4.8282045386073083e+07 
-1.8500000000000010e+00 -5.2781530891608253e-01 +6.9706346312322340e+00 +3.8423110382045138e+00 -7.1548688689728124e+01 -8.1133347927258537e+03 +7.6409118250009007e+04 +4.9221677684069261e+07 
-1.9000000000000010e+00 -5.2782532544976912e-01 +6.9712225089306568e+00 +3.8358948645315372e+00 -7.0951635729938104e+01 -8.2744517549565116e+03 +7.2873256614879981e+04 +5.0182780015945472e+07 
-1.9500000000000011e+00 -5.2783561517058819e-01 +6.9718246523404073e+00 +3.8295075053554233e+00 -7.0378378633766701e+01 -8.4403616239273015e+03 +6.9572712417141345e+04 +5.1164112015983947e+07 
-2.0000000000000009e+00 -5.2784617752069940e-01 +6.9724410337976348e+00 +3.8231499945171574e+00 -6.9830710521332009e+01 -8.6109135026051699e+03 +6.6521497763496474e+04 +5.2164433906646952e+07 
-2.0500000000000007e+00 -5.2785701173471700e-01 +6.9730716084587847e+00 +3.8168195610359095e+00 -6.9309927055258683e+01 -8.7858967928330931e+03 +6.3729476145131499e+04 +5.3182247694116905e+07 
-2.1000000000000005e+00 -5.2786811621631868e-01 +6.9737162578354956e+00 +3.8104985479938382e+00 -6.8815286332760422e+01 -8.9648715004160240e+03 +6.1189467502059619e+04 +5.4215106648367099e+07 
-2.1500000000000004e+00 -5.2787948916129146e-01 +6.9743748437831030e+00 +3.8041656710245282e+00 -6.8345524592158071e+01 -9.1473427706742968e+03 +5.8889910782998842e+04 +5.5260348970381647e+07 
-2.2000000000000002e+00 -5.2789112876542954e-01 +6.9750472281553346e+00 +3.7977996449885802e+00 -6.7899378004061347e+01 -9.3328157251407029e+03 +5.6819244396459988e+04 +5.6315312692329422e+07 
-2.2500000000000000e+00 -5.2790303322454091e-01 +6.9757332728104346e+00 +3.7913791854672203e+00 -6.7475582912824791e+01 -9.5207955026873515e+03 +5.4965908171166273e+04 +5.7377335957288451e+07 
-2.2999999999999998e+00 -5.2791520073442666e-01 +6.9764328396054145e+00 +3.7848830060650851e+00 -6.7072875590218700e+01 -9.7107871975492126e+03 +5.3318341281038251e+04 +5.8443756638280474e+07 
-2.3499999999999996e+00 -5.2792762949091154e-01 +6.9771457903970129e+00 +3.7782898221661196e+00 -6.6689992305824688e+01 -9.9022959438942253e+03 +5.1864982952999482e+04 +5.9511912850332789e+07 
-2.3999999999999995e+00 -5.2794031768982486e-01 +6.9778719870462247e+00 +3.7715783490803574e+00 -6.6325669475887295e+01 -1.0094826878016942e+04 +5.0594273531928731e+04 +6.0579142737446398e+07 
-2.4499999999999993e+00 -5.2795326352701133e-01 +6.9786112914105649e+00 +3.7647273029784967e+00 -6.5978643386175520e+01 -1.0287885158197096e+04 +4.9494652366249669e+04 +6.1642784589561746e+07 
-2.4999999999999991e+00 -5.2796646519830037e-01 +6.9793635653540216e+00 +3.7577153959438303e+00 -6.5647650556024971e+01 -1.0480975832671767e+04 +4.8554560620040065e+04 +6.2700175956314117e+07 
-2.5499999999999989e+00 -5.2797992089953727e-01 +6.9801286707371908e+00 +3.7505213417171976e+00 -6.5331427374345424e+01 -1.0673603995636158e+04 +4.7762438440223661e+04 +6.3748654701858766e+07 
-2.5999999999999988e+00 -5.2799362882660350e-01 +6.9809064694248901e+00 +3.7431238587570923e+00 -6.5028710382716469e+01 -1.0865274867369097e+04 +4.7106727163632924e+04 +6.4785559540976159e+07 
-2.6499999999999986e+00 -5.2800758717534535e-01 +6.9816968232813856e+00 +3.7355016579976654e+00 -6.4738236095447760e+01 -1.1055493466571359e+04 +4.6575867902660779e+04 +6.5808227834183164e+07 
-2.6999999999999984e+00 -5.2802179414163219e-01 +6.9824995941716317e+00 +3.7276334531734387e+00 -6.4458741046100769e+01 -1.1243764886645629e+04 +4.6158301902349733e+04 +6.6813997444256887e+07 
-2.7499999999999982e+00 -5.2803624792135240e-01 +6.9833146439635270e+00 +3.7194979600862506e+00 -6.4188961878392277e+01 -1.1429594279650211e+04 +4.5842471286863758e+04 +6.7800206645523369e+07 
-2.7999999999999980e+00 -5.2805094671037511e-01 +6.9841418345262225e+00 +3.7110738897816895e+00 -6.3927635287550714e+01 -1.1612486665408618e+04 +4.5616818604041495e+04 +6.8764192804046288e+07 
-2.8499999999999979e+00 -5.2806588870461157e-01 +6.9849810277296305e+00 +3.7023399595622641e+00 -6.3673497970073406e+01 -1.1791947236600517e+04 +4.5469786303622510e+04 +6.9703294472700149e+07 
-2.8999999999999977e+00 -5.2808107209993516e-01 +6.9858320854446303e+00 +3.6932748789967507e+00 -6.3425286681851318e+01 -1.1967480978153715e+04 +4.5389817406259703e+04 +7.0614848807782695e+07 
-2.9499999999999975e+00 -5.2809649509225431e-01 +6.9866948695440438e+00 +3.6838573621909294e+00 -6.3181738225557773e+01 -1.2138592992790745e+04 +4.5365355182921907e+04 +7.1496193745996565e+07 
-2.9999999999999973e+00 -5.2811215587748295e-01 +6.9875692419033459e+00 +3.6740661233118659e+00 -6.2941589514946294e+01 -1.2304788389409156e+04 +4.5384843827148798e+04 +7.2344667286992893e+07 
-3.0499999999999972e+00 -5.2812805265151497e-01 +6.9884550643976802e+00 +3.6638798721379651e+00 -6.2703577442647905e+01 -1.2465572160542251e+04 +4.5436727322048828e+04 +7.3157606655417249e+07 
-3.0999999999999970e+00 -5.2814418361028703e-01 +6.9893521989048049e+00 +3.6532773242755270e+00 -6.2466438998358633e+01 -1.2620449449556232e+04 +4.5509450405416654e+04 +7.3932350072313994e+07 
-3.1499999999999968e+00 -5.2816054694970227e-01 +6.9902605073056439e+00 +3.6422371889854745e+00 -6.2228911290088980e+01 -1.2768925238426687e+04 +4.5591458728862010e+04 +7.4666234712532640e+07 
-3.1999999999999966e+00 -5.2817714086570156e-01 +6.9911798514781935e+00 +3.6307381803049794e+00 -6.1989731307682440e+01 -1.2910504628448905e+04 +4.5671196969757963e+04 +7.5356598523107693e+07 
-3.2499999999999964e+00 -5.2819396355420412e-01 +6.9921100933085105e+00 +3.6187590082896279e+00 -6.1747636348289390e+01 -1.3044692622483870e+04 +4.5737112223343545e+04 +7.6000778824094713e+07 
-3.2999999999999963e+00 -5.2821101321114095e-01 +6.9930510946794442e+00 +3.6062783836274868e+00 -6.1501363584800743e+01 -1.3170994236905846e+04 +4.5777650574269224e+04 +7.6596113017650440e+07 
-3.3499999999999961e+00 -5.2822828803246202e-01 +6.9940027174790727e+00 +3.5932750195502177e+00 -6.1249650383258270e+01 -1.3288914559183891e+04 +4.5781259596304000e+04 +7.7139939000994638e+07 
-3.3999999999999959e+00 -5.2824578621410068e-01 +6.9949648235931354e+00 +3.5797276252304497e+00 -6.0991234015820098e+01 -1.3397958566016950e+04 +4.5736386070826637e+04 +7.7629593923223272e+07 
-3.4499999999999957e+00 -5.2826350595200289e-01 +6.9959372749155460e+00 +3.5656149111577395e+00 -6.0724852079015704e+01 -1.3497631270312233e+04 +4.5631479381901576e+04 +7.8062415184159040e+07 
-3.4999999999999956e+00 -5.2828144544211952e-01 +6.9969199333356835e+00 +3.5509155877281255e+00 -6.0449241975589025e+01 -1.3587437683282908e+04 +4.5454987261832212e+04 +7.8435740182350680e+07 
-3.5499999999999954e+00 -5.2829960288039479e-01 +6.9979126607506732e+00 +3.5356083637921003e+00 -6.0163141415502480e+01 -1.3666882778337394e+04 +4.5195359897210743e+04 +7.8746906079252571e+07 
-3.5999999999999952e+00 -5.2831797646278722e-01 +6.9989153190550013e+00 +3.5196719492412281e+00 -5.9865287998731588e+01 -1.3735471552137031e+04 +4.4841046525970254e+04 +7.8993250180667445e+07 
-3.6499999999999950e+00 -5.2833656438525400e-01 +6.9999277701479619e+00 +3.5030850534264872e+00 -5.9554419511253762e+01 -1.3792708992148529e+04 +4.4380497849158834e+04 +7.9172109757377237e+07 
-3.6999999999999948e+00 -5.2835536484375056e-01 +7.0009498759312629e+00 +3.4858263842233828e+00 -5.9229273828138282e+01 -1.3838100045491999e+04 +4.3802165212516193e+04 +7.9280821813276306e+07 
-3.7499999999999947e+00 -5.2837437603424198e-01 +7.0019814983065736e+00 +3.4678746507553635e+00 -5.8888588821523754e+01 -1.3871149691207222e+04 +4.3094499896008223e+04 +7.9316723561258852e+07 
-3.7999999999999945e+00 -5.2839359615268477e-01 +7.0030224991818049e+00 +3.4492085595984077e+00 -5.8531102610184298e+01 -1.3891362843763658e+04 +4.2245955127957524e+04 +7.9277151807529986e+07 
-3.8499999999999943e+00 -5.2841302339504870e-01 +7.0040727404628775e+00 +3.4298068193225277e+00 -5.8155553223187695e+01 -1.3898244470017124e+04 +4.1244983321075590e+04 +7.9159443707001030e+07 
-3.8999999999999941e+00 -5.2843265595729216e-01 +7.0051320840587401e+00 +3.4096481356042245e+00 -5.7760678805937303e+01 -1.3891299461836516e+04 +4.0080037767964692e+04 +7.8960935931288376e+07 
-3.9499999999999940e+00 -5.2845249203539135e-01 +7.0062003918859599e+00 +3.3887112167523430e+00 -5.7345217814054045e+01 -1.3870032781912061e+04 +3.8739574253145765e+04 +7.8678965632958338e+07 
-3.9999999999999938e+00 -5.2847252982532056e-01 +7.0072775258549163e+00 +3.3669747696701173e+00 -5.6907908428664300e+01 -1.3833949351411902e+04 +3.7212046206657069e+04 +7.8310869682202399e+07 
-4.0499999999999936e+00 -5.2849276746168550e-01 +7.0083633540352652e+00 +3.3444260100464995e+00 -5.6447880263240030e+01 -1.3782746713443192e+04 +3.5489025117944169e+04 +7.7855105906371340e+07 
-4.0999999999999934e+00 -5.2851320283564196e-01 +7.0094577603878232e+00 +3.3210863216407485e+00 -5.5965810164929074e+01 -1.3716883630054213e+04 +3.3574789115724700e+04 +7.7314528399528787e+07 
-4.1499999999999932e+00 -5.2853383377793772e-01 +7.0105606307052168e+00 +3.2969856848952408e+00 -5.5462760609113886e+01 -1.3637006732754489e+04 +3.1476874789576214e+04 +7.6693066565751240e+07 
-4.1999999999999931e+00 -5.2855465811935254e-01 +7.0116718507814113e+00 +3.2721540856510178e+00 -5.4939794128912354e+01 -1.3543762794413791e+04 +2.9202819135302925e+04 +7.5994650755858317e+07 
-4.2499999999999929e+00 -5.2857567369066571e-01 +7.0127913064048402e+00 +3.2466215096239854e+00 -5.4397973029203207e+01 -1.3437798587882209e+04 +2.6760157260572647e+04 +7.5223211335030869e+07 
-4.2999999999999927e+00 -5.2859687832265823e-01 +7.0139188833660784e+00 +3.2204179421526309e+00 -5.3838359696762573e+01 -1.3319760868914367e+04 +2.4156424910786140e+04 +7.4382678527237177e+07 
-4.3499999999999925e+00 -5.2861826984610794e-01 +7.0150544674552187e+00 +3.1935733685221650e+00 -5.3262016496163767e+01 -1.3190296397921926e+04 +2.1399157641197642e+04 +7.3476982613165691e+07 
-4.3999999999999924e+00 -5.2863984609179415e-01 +7.0161979444568479e+00 +3.1661177733172479e+00 -5.2670005564777135e+01 -1.3050051907808314e+04 +1.8495889116852282e+04 +7.2510053655221522e+07 
-4.4499999999999922e+00 -5.2866160489050962e-01 +7.0173492001604103e+00 +3.1380811442980963e+00 -5.2063389230952161e+01 -1.2899674224430331e+04 +1.5454154537457935e+04 +7.1485822373160198e+07 
-4.4999999999999920e+00 -5.2868354407304241e-01 +7.0185081203493196e+00 +3.1094934675517449e+00 -5.1443229577631541e+01 -1.2739810120142296e+04 +1.2281487072822485e+04 +7.0408219093958676e+07 
-4.5499999999999918e+00 -5.2870566147017095e-01 +7.0196745908071305e+00 +3.0803847279202894e+00 -5.0810588687801548e+01 -1.2571106337169213e+04 +8.9854198745376161e+03 +6.9281173956419036e+07 
-4.5999999999999917e+00 -5.2872795491269164e-01 +7.0208484973163667e+00 +3.0507849128516074e+00 -5.0166528601085311e+01 -1.2394209682474873e+04 +5.5734857093475575e+03 +6.8108617516733363e+07 
-4.6499999999999915e+00 -5.2875042223139046e-01 +7.0220297256561928e+00 +3.0207240090216598e+00 -4.9512111212747833e+01 -1.2209766949178022e+04 +2.0532161250229951e+03 +6.6894480262980796e+07 
-4.6999999999999913e+00 -5.2877306125705781e-01 +7.0232181616074891e+00 +2.9902320026405538e+00 -4.8848398491794384e+01 -1.2018424906569271e+04 -1.5678567276079600e+03 +6.5642692484430932e+07 
-4.7499999999999911e+00 -5.2879586982049898e-01 +7.0244136909459227e+00 +2.9593388837407799e+00 -4.8176452185138309e+01 -1.1820830433591362e+04 -5.2822025718473451e+03 +6.4357185233098954e+07 
-4.7999999999999909e+00 -5.2881884575249627e-01 +7.0256161994476694e+00 +2.9280746378329625e+00 -4.7497334066921091e+01 -1.1617630281995838e+04 -9.0822908891710867e+03 +6.3041888686497308e+07 
-4.8499999999999908e+00 -5.2884198688385031e-01 +7.0268255728872537e+00 +2.8964692538956749e+00 -4.6812105828663789e+01 -1.1409471296096539e+04 -1.2960591925007813e+04 +6.1700733643218488e+07 
-4.8999999999999906e+00 -5.2886529104534286e-01 +7.0280416970373603e+00 +2.8645527181177788e+00 -4.6121829100176434e+01 -1.1197000246779691e+04 -1.6909576390563372e+04 +6.0337650413528964e+07 
-4.9499999999999904e+00 -5.2888875606778429e-01 +7.0292644576655610e+00 +2.8323550216537856e+00 -4.5427565285209560e+01 -1.0980864033581447e+04 -2.0921716934035670e+04 +5.8956570157813467e+07 
-4.9999999999999902e+00 -5.2891237978196159e-01 +7.0304937405417514e+00 +2.7999061517960451e+00 -4.4730375892526354e+01 -1.0761709452704863e+04 -2.4989485327330367e+04 +5.7561423344996363e+07 
-5.0499999999999901e+00 -5.2893616001866839e-01 +7.0317294314320193e+00 +2.7672360976364581e+00 -4.4031322266363325e+01 -1.0540183348421331e+04 -2.9105354740734874e+04 +5.6156140765277207e+07 
