# trajectory
# s[mm] rx[mm] ry[mm] rz[mm] px[rad] py[rad] pz[rad]
0.0000000000000000e+00 +8.2850000000000001e+00 +0.0000000000000000e+00 +0.0000000000000000e+00 +0.0000000000000000e+00 +0.0000000000000000e+00 +1.0000000000000000e+00
5.0000000000000003e-02 +8.2849999310723987e+00 +0.0000000000000000e+00 +4.9999999999936658e-02 -2.7571029179183672e-06 +0.0000000000000000e+00 +9.9999999999619915e-01
1.0000000000000001e-01 +8.2849997242898095e+00 +0.0000000000000000e+00 +9.9999999999493216e-02 -5.5141998096316157e-06 +0.0000000000000000e+00 +9.9999999998479672e-01
1.5000000000000002e-01 +8.2849993796524846e+00 +0.0000000000000000e+00 +1.4999999999828961e-01 -8.2712926410100024e-06 +0.0000000000000000e+00 +9.9999999996579281e-01
2.0000000000000001e-01 +8.2849988971605804e+00 +0.0000000000000000e+00 +1.9999999999594578e-01 -1.1028383373737436e-05 +0.0000000000000000e+00 +9.9999999993918731e-01
2.5000000000000000e-01 +8.2849982768141501e+00 +0.0000000000000000e+00 +2.4999999999208164e-01 -1.3785473965311559e-05 +0.0000000000000000e+00 +9.9999999990498023e-01
2.9999999999999999e-01 +8.2849975186131530e+00 +0.0000000000000000e+00 +2.9999999998631710e-01 -1.6542566369043843e-05 +0.0000000000000000e+00 +9.9999999986317167e-01
3.4999999999999998e-01 +8.2849966225574505e+00 +0.0000000000000000e+00 +3.4999999997827208e-01 -1.9299662534059674e-05 +0.0000000000000000e+00 +9.9999999981376142e-01
3.9999999999999997e-01 +8.2849955886468045e+00 +0.0000000000000000e+00 +3.9999999996756652e-01 -2.2056764405298445e-05 +0.0000000000000000e+00 +9.9999999975674947e-01
4.4999999999999996e-01 +8.2849944168808829e+00 +0.0000000000000000e+00 +4.4999999995382034e-01 -2.4813873923513645e-05 +0.0000000000000000e+00 +9.9999999969213571e-01
4.9999999999999994e-01 +8.2849931072592540e+00 +0.0000000000000000e+00 +4.9999999993665339e-01 -2.7570993025272944e-05 +0.0000000000000000e+00 +9.9999999961992003e-01
5.4999999999999993e-01 +8.2849916597813884e+00 +0.0000000000000000e+00 +5.4999999991568560e-01 -3.0328123642958280e-05 +0.0000000000000000e+00 +9.9999999954010232e-01
5.9999999999999998e-01 +8.2849900744466645e+00 +0.0000000000000000e+00 +5.9999999989053687e-01 -3.3085267704765947e-05 +0.0000000000000000e+00 +9.9999999945268236e-01
6.5000000000000002e-01 +8.2849883512543609e+00 +0.0000000000000000e+00 +6.4999999986082713e-01 -3.5842427134706680e-05 +0.0000000000000000e+00 +9.9999999935766004e-01
7.0000000000000007e-01 +8.2849864902036625e+00 +0.0000000000000000e+00 +6.9999999982617622e-01 -3.8599603852605757e-05 +0.0000000000000000e+00 +9.9999999925503513e-01
7.5000000000000011e-01 +8.2849844912936561e+00 +0.0000000000000000e+00 +7.4999999978620391e-01 -4.1356799774103059e-05 +0.0000000000000000e+00 +9.9999999914480742e-01
8.0000000000000016e-01 +8.2849823545233328e+00 +0.0000000000000000e+00 +7.9999999974053015e-01 -4.4114016810653175e-05 +0.0000000000000000e+00 +9.9999999902697667e-01
8.5000000000000020e-01 +8.2849800798915911e+00 +0.0000000000000000e+00 +8.4999999968877482e-01 -4.6871256869525486e-05 +0.0000000000000000e+00 +9.9999999890154256e-01
9.0000000000000024e-01 +8.2849776673972304e+00 +0.0000000000000000e+00 +8.9999999963055766e-01 -4.9628521853804242e-05 +0.0000000000000000e+00 +9.9999999876850487e-01
9.5000000000000029e-01 +8.2849751170389574e+00 +0.0000000000000000e+00 +9.4999999956549852e-01 -5.2385813662388646e-05 +0.0000000000000000e+00 +9.9999999862786326e-01
1.0000000000000002e+00 +8.2849724288153848e+00 +0.0000000000000000e+00 +9.9999999949321716e-01 -5.5143134189992956e-05 +0.0000000000000000e+00 +9.9999999847961740e-01
1.0500000000000003e+00 +8.2849696027250275e+00 +0.0000000000000000e+00 +1.0499999994133336e+00 -5.7900485327146545e-05 +0.0000000000000000e+00 +9.9999999832376696e-01
1.1000000000000003e+00 +8.2849666387663099e+00 +0.0000000000000000e+00 +1.0999999993254672e+00 -6.0657868960194001e-05 +0.0000000000000000e+00 +9.9999999816031149e-01
1.1500000000000004e+00 +8.2849635369375587e+00 +0.0000000000000000e+00 +1.1499999992292380e+00 -6.3415286971295199e-05 +0.0000000000000000e+00 +9.9999999798925066e-01
1.2000000000000004e+00 +8.2849602972370082e+00 +0.0000000000000000e+00 +1.1999999991242656e+00 -6.6172741238425405e-05 +0.0000000000000000e+00 +9.9999999781058413e-01
1.2500000000000004e+00 +8.2849569196627986e+00 +0.0000000000000000e+00 +1.2499999990101696e+00 -6.8930233635375334e-05 +0.0000000000000000e+00 +9.9999999762431147e-01
1.3000000000000005e+00 +8.2849534042129775e+00 +0.0000000000000000e+00 +1.2999999988865698e+00 -7.1687766031751249e-05 +0.0000000000000000e+00 +9.9999999743043211e-01
1.3500000000000005e+00 +8.2849497508854970e+00 +0.0000000000000000e+00 +1.3499999987530860e+00 -7.4445340292975028e-05 +0.0000000000000000e+00 +9.9999999722894561e-01
1.4000000000000006e+00 +8.2849459596782182e+00 +0.0000000000000000e+00 +1.3999999986093377e+00 -7.7202958280284250e-05 +0.0000000000000000e+00 +9.9999999701985154e-01
1.4500000000000006e+00 +8.2849420305889083e+00 +0.0000000000000000e+00 +1.4499999984549443e+00 -7.9960621850732298e-05 +0.0000000000000000e+00 +9.9999999680314944e-01
1.5000000000000007e+00 +8.2849379636152420e+00 +0.0000000000000000e+00 +1.4999999982895258e+00 -8.2718332857188403e-05 +0.0000000000000000e+00 +9.9999999657883865e-01
1.5500000000000007e+00 +8.2849337587548018e+00 +0.0000000000000000e+00 +1.5499999981127015e+00 -8.5476093148337750e-05 +0.0000000000000000e+00 +9.9999999634691872e-01
1.6000000000000008e+00 +8.2849294160050757e+00 +0.0000000000000000e+00 +1.5999999979240909e+00 -8.8233904568681549e-05 +0.0000000000000000e+00 +9.9999999610738899e-01
1.6500000000000008e+00 +8.2849249353634615e+00 +0.0000000000000000e+00 +1.6499999977233135e+00 -9.0991768958537128e-05 +0.0000000000000000e+00 +9.9999999586024890e-01
1.7000000000000008e+00 +8.2849203168272663e+00 +0.0000000000000000e+00 +1.6999999975099889e+00 -9.3749688154037998e-05 +0.0000000000000000e+00 +9.9999999560549790e-01
1.7500000000000009e+00 +8.2849155603937028e+00 +0.0000000000000000e+00 +1.7499999972837363e+00 -9.6507663987133928e-05 +0.0000000000000000e+00 +9.9999999534313533e-01
1.8000000000000009e+00 +8.2849106660598935e+00 +0.0000000000000000e+00 +1.7999999970441753e+00 -9.9265698285591017e-05 +0.0000000000000000e+00 +9.9999999507316051e-01
1.8500000000000010e+00 +8.2849056338228699e+00 +0.0000000000000000e+00 +1.8499999967909253e+00 -1.0202379287299183e-04 +0.0000000000000000e+00 +9.9999999479557278e-01
1.9000000000000010e+00 +8.2849004636795716e+00 +0.0000000000000000e+00 +1.8999999965236056e+00 -1.0478194956873538e-04 +0.0000000000000000e+00 +9.9999999451037147e-01
1.9500000000000011e+00 +8.2848951556268471e+00 +0.0000000000000000e+00 +1.9499999962418355e+00 -1.0754017018803730e-04 +0.0000000000000000e+00 +9.9999999421755581e-01
2.0000000000000009e+00 +8.2848897096614564e+00 +0.0000000000000000e+00 +1.9999999959452344e+00 -1.1029845654192986e-04 +0.0000000000000000e+00 +9.9999999391712513e-01
2.0500000000000007e+00 +8.2848841257800672e+00 +0.0000000000000000e+00 +2.0499999956334212e+00 -1.1305681043698722e-04 +0.0000000000000000e+00 +9.9999999360907865e-01
2.1000000000000005e+00 +8.2848784039792562e+00 +0.0000000000000000e+00 +2.0999999953060153e+00 -1.1581523367230239e-04 +0.0000000000000000e+00 +9.9999999329341571e-01
2.1500000000000004e+00 +8.2848725442555136e+00 +0.0000000000000000e+00 +2.1499999949626361e+00 -1.1857372803646411e-04 +0.0000000000000000e+00 +9.9999999297013542e-01
2.2000000000000002e+00 +8.2848665466052367e+00 +0.0000000000000000e+00 +2.1999999946029023e+00 -1.2133229530728212e-04 +0.0000000000000000e+00 +9.9999999263923700e-01
2.2500000000000000e+00 +8.2848604110247379e+00 +0.0000000000000000e+00 +2.2499999942264330e+00 -1.2409093725178721e-04 +0.0000000000000000e+00 +9.9999999230071956e-01
2.2999999999999998e+00 +8.2848541375102389e+00 +0.0000000000000000e+00 +2.2999999938328473e+00 -1.2684965562623123e-04 +0.0000000000000000e+00 +9.9999999195458233e-01
2.3499999999999996e+00 +8.2848477260578726e+00 +0.0000000000000000e+00 +2.3499999934217644e+00 -1.2960845217608723e-04 +0.0000000000000000e+00 +9.9999999160082442e-01
2.3999999999999995e+00 +8.2848411766636882e+00 +0.0000000000000000e+00 +2.3999999929928029e+00 -1.3236732863604949e-04 +0.0000000000000000e+00 +9.9999999123944505e-01
2.4499999999999993e+00 +8.2848344893236483e+00 +0.0000000000000000e+00 +2.4499999925455818e+00 -1.3512628673003352e-04 +0.0000000000000000e+00 +9.9999999087044322e-01
2.4999999999999991e+00 +8.2848276640336262e+00 +0.0000000000000000e+00 +2.4999999920797200e+00 -1.3788532817117621e-04 +0.0000000000000000e+00 +9.9999999049381805e-01
2.5499999999999989e+00 +8.2848207007894139e+00 +0.0000000000000000e+00 +2.5499999915948366e+00 -1.4064445466183581e-04 +0.0000000000000000e+00 +9.9999999010956864e-01
2.5999999999999988e+00 +8.2848135995867143e+00 +0.0000000000000000e+00 +2.5999999910905500e+00 -1.4340366789359203e-04 +0.0000000000000000e+00 +9.9999998971769399e-01
2.6499999999999986e+00 +8.2848063604211504e+00 +0.0000000000000000e+00 +2.6499999905664788e+00 -1.4616296954724604e-04 +0.0000000000000000e+00 +9.9999998931819312e-01
2.6999999999999984e+00 +8.2847989832882583e+00 +0.0000000000000000e+00 +2.6999999900222420e+00 -1.4892236129282059e-04 +0.0000000000000000e+00 +9.9999998891106512e-01
2.7499999999999982e+00 +8.2847914681834922e+00 +0.0000000000000000e+00 +2.7499999894574580e+00 -1.5168184478956003e-04 +0.0000000000000000e+00 +9.9999998849630889e-01
2.7999999999999980e+00 +8.2847838151022231e+00 +0.0000000000000000e+00 +2.7999999888717455e+00 -1.5444142168593032e-04 +0.0000000000000000e+00 +9.9999998807392354e-01
2.8499999999999979e+00 +8.2847760240397399e+00 +0.0000000000000000e+00 +2.8499999882647229e+00 -1.5720109361961915e-04 +0.0000000000000000e+00 +9.9999998764390796e-01
2.8999999999999977e+00 +8.2847680949912501e+00 +0.0000000000000000e+00 +2.8999999876360087e+00 -1.5996086221753593e-04 +0.0000000000000000e+00 +9.9999998720626115e-01
2.9499999999999975e+00 +8.2847600279518794e+00 +0.0000000000000000e+00 +2.9499999869852216e+00 -1.6272072909581181e-04 +0.0000000000000000e+00 +9.9999998676098201e-01
2.9999999999999973e+00 +8.2847518229166752e+00 +0.0000000000000000e+00 +2.9999999863119795e+00 -1.6548069585979987e-04 +0.0000000000000000e+00 +9.9999998630806952e-01
3.0499999999999972e+00 +8.2847434798806017e+00 +0.0000000000000000e+00 +3.0499999856159010e+00 -1.6824076410407496e-04 +0.0000000000000000e+00 +9.9999998584752248e-01
3.0999999999999970e+00 +8.2847349988385464e+00 +0.0000000000000000e+00 +3.0999999848966042e+00 -1.7100093541243391e-04 +0.0000000000000000e+00 +9.9999998537933987e-01
3.1499999999999968e+00 +8.2847263797853170e+00 +0.0000000000000000e+00 +3.1499999841537076e+00 -1.7376121135789549e-04 +0.0000000000000000e+00 +9.9999998490352049e-01
3.1999999999999966e+00 +8.2847176227156414e+00 +0.0000000000000000e+00 +3.1999999833868289e+00 -1.7652159350270045e-04 +0.0000000000000000e+00 +9.9999998442006333e-01
3.2499999999999964e+00 +8.2847087276241709e+00 +0.0000000000000000e+00 +3.2499999825955865e+00 -1.7928208339831157e-04 +0.0000000000000000e+00 +9.9999998392896705e-01
3.2999999999999963e+00 +8.2846996945054805e+00 +0.0000000000000000e+00 +3.2999999817795982e+00 -1.8204268258541372e-04 +0.0000000000000000e+00 +9.9999998343023067e-01
3.3499999999999961e+00 +8.2846905233540653e+00 +0.0000000000000000e+00 +3.3499999809384819e+00 -1.8480339259391388e-04 +0.0000000000000000e+00 +9.9999998292385284e-01
3.3999999999999959e+00 +8.2846812141643476e+00 +0.0000000000000000e+00 +3.3999999800718559e+00 -1.8756421494294117e-04 +0.0000000000000000e+00 +9.9999998240983246e-01
3.4499999999999957e+00 +8.2846717669306731e+00 +0.0000000000000000e+00 +3.4499999791793377e+00 -1.9032515114084689e-04 +0.0000000000000000e+00 +9.9999998188816819e-01
3.4999999999999956e+00 +8.2846621816473114e+00 +0.0000000000000000e+00 +3.4999999782605453e+00 -1.9308620268520456e-04 +0.0000000000000000e+00 +9.9999998135885892e-01
3.5499999999999954e+00 +8.2846524583084573e+00 +0.0000000000000000e+00 +3.5499999773150961e+00 -1.9584737106280992e-04 +0.0000000000000000e+00 +9.9999998082190333e-01
3.5999999999999952e+00 +8.2846425969082329e+00 +0.0000000000000000e+00 +3.5999999763426080e+00 -1.9860865774968099e-04 +0.0000000000000000e+00 +9.9999998027730019e-01
3.6499999999999950e+00 +8.2846325974406856e+00 +0.0000000000000000e+00 +3.6499999753426988e+00 -2.0137006421105813e-04 +0.0000000000000000e+00 +9.9999997972504828e-01
3.6999999999999948e+00 +8.2846224598997917e+00 +0.0000000000000000e+00 +3.6999999743149856e+00 -2.0413159190140398e-04 +0.0000000000000000e+00 +9.9999997916514627e-01
3.7499999999999947e+00 +8.2846121842794513e+00 +0.0000000000000000e+00 +3.7499999732590861e+00 -2.0689324226440357e-04 +0.0000000000000000e+00 +9.9999997859759282e-01
3.7999999999999945e+00 +8.2846017705734969e+00 +0.0000000000000000e+00 +3.7999999721746174e+00 -2.0965501673296432e-04 +0.0000000000000000e+00 +9.9999997802238660e-01
3.8499999999999943e+00 +8.2845912187756863e+00 +0.0000000000000000e+00 +3.8499999710611972e+00 -2.1241691672921608e-04 +0.0000000000000000e+00 +9.9999997743952640e-01
3.8999999999999941e+00 +8.2845805288797081e+00 +0.0000000000000000e+00 +3.8999999699184427e+00 -2.1517894366451109e-04 +0.0000000000000000e+00 +9.9999997684901076e-01
3.9499999999999940e+00 +8.2845697008791799e+00 +0.0000000000000000e+00 +3.9499999687459706e+00 -2.1794109893942410e-04 +0.0000000000000000e+00 +9.9999997625083836e-01
3.9999999999999938e+00 +8.2845587347676517e+00 +0.0000000000000000e+00 +3.9999999675433986e+00 -2.2070338394375230e-04 +0.0000000000000000e+00 +9.9999997564500775e-01
4.0499999999999936e+00 +8.2845476305386008e+00 +0.0000000000000000e+00 +4.0499999663103434e+00 -2.2346580005639383e-04 +0.0000000000000000e+00 +9.9999997503151772e-01
4.0999999999999934e+00 +8.2845363881854386e+00 +0.0000000000000000e+00 +4.0999999650464227e+00 -2.2622834864401061e-04 +0.0000000000000000e+00 +9.9999997441036670e-01
4.1499999999999932e+00 +8.2845250077015056e+00 +0.0000000000000000e+00 +4.1499999637512524e+00 -2.2899103105969117e-04 +0.0000000000000000e+00 +9.9999997378155336e-01
4.1999999999999931e+00 +8.2845134890800782e+00 +0.0000000000000000e+00 +4.1999999624244504e+00 -2.3175384864282904e-04 +0.0000000000000000e+00 +9.9999997314507627e-01
4.2499999999999929e+00 +8.2845018323143655e+00 +0.0000000000000000e+00 +4.2499999610656323e+00 -2.3451680271912280e-04 +0.0000000000000000e+00 +9.9999997250093409e-01
4.2999999999999927e+00 +8.2844900373975090e+00 +0.0000000000000000e+00 +4.2999999596744161e+00 -2.3727989460057606e-04 +0.0000000000000000e+00 +9.9999997184912526e-01
4.3499999999999925e+00 +8.2844781043225861e+00 +0.0000000000000000e+00 +4.3499999582504172e+00 -2.4004312558549757e-04 +0.0000000000000000e+00 +9.9999997118964834e-01
4.3999999999999924e+00 +8.2844660330826105e+00 +0.0000000000000000e+00 +4.3999999567932528e+00 -2.4280649695850105e-04 +0.0000000000000000e+00 +9.9999997052250189e-01
4.4499999999999922e+00 +8.2844538236705301e+00 +0.0000000000000000e+00 +4.4499999553025393e+00 -2.4557000999050535e-04 +0.0000000000000000e+00 +9.9999996984768447e-01
4.4999999999999920e+00 +8.2844414760792304e+00 +0.0000000000000000e+00 +4.4999999537778930e+00 -2.4833366593873433e-04 +0.0000000000000000e+00 +9.9999996916519451e-01
4.5499999999999918e+00 +8.2844289903015333e+00 +0.0000000000000000e+00 +4.5499999522189309e+00 -2.5109746604671699e-04 +0.0000000000000000e+00 +9.9999996847503059e-01
4.5999999999999917e+00 +8.2844163663302020e+00 +0.0000000000000000e+00 +4.5999999506252687e+00 -2.5386141154428734e-04 +0.0000000000000000e+00 +9.9999996777719113e-01
4.6499999999999915e+00 +8.2844036041579354e+00 +0.0000000000000000e+00 +4.6499999489965225e+00 -2.5662550364758448e-04 +0.0000000000000000e+00 +9.9999996707167471e-01
4.6999999999999913e+00 +8.2843907037773743e+00 +0.0000000000000000e+00 +4.6999999473323086e+00 -2.5938974355905261e-04 +0.0000000000000000e+00 +9.9999996635847976e-01
4.7499999999999911e+00 +8.2843776651810970e+00 +0.0000000000000000e+00 +4.7499999456322426e+00 -2.6215413246744094e-04 +0.0000000000000000e+00 +9.9999996563760474e-01
4.7999999999999909e+00 +8.2843644883616250e+00 +0.0000000000000000e+00 +4.7999999438959406e+00 -2.6491867154780375e-04 +0.0000000000000000e+00 +9.9999996490904808e-01
4.8499999999999908e+00 +8.2843511733114195e+00 +0.0000000000000000e+00 +4.8499999421230191e+00 -2.6768336196150038e-04 +0.0000000000000000e+00 +9.9999996417280823e-01
4.8999999999999906e+00 +8.2843377200228865e+00 +0.0000000000000000e+00 +4.8999999403130934e+00 -2.7044820485619522e-04 +0.0000000000000000e+00 +9.9999996342888353e-01
4.9499999999999904e+00 +8.2843241284883735e+00 +0.0000000000000000e+00 +4.9499999384657789e+00 -2.7321320136585765e-04 +0.0000000000000000e+00 +9.9999996267727254e-01
4.9999999999999902e+00 +8.2843103987001712e+00 +0.0000000000000000e+00 +4.9999999365806920e+00 -2.7597835261076206e-04 +0.0000000000000000e+00 +9.9999996191797369e-01
5.0499999999999901e+00 +8.2842965306505150e+00 +0.0000000000000000e+00 +5.0499999346574480e+00 -2.7874365969748791e-04 +0.0000000000000000e+00 +9.9999996115098533e-01
5.0999999999999899e+00 +8.2842825243315854e+00 +0.0000000000000000e+00 +5.0999999326956624e+00 -2.8150912371891959e-04 +0.0000000000000000e+00 +9.9999996037630579e-01
5.1499999999999897e+00 +8.2842683797355097e+00 +0.0000000000000000e+00 +5.1499999306949507e+00 -2.8427474575424655e-04 +0.0000000000000000e+00 +9.9999995959393362e-01
5.1999999999999895e+00 +8.2842540968543599e+00 +0.0000000000000000e+00 +5.1999999286549281e+00 -2.8704052686896308e-04 +0.0000000000000000e+00 +9.9999995880386705e-01
5.2499999999999893e+00 +8.2842396756801548e+00 +0.0000000000000000e+00 +5.2499999265752093e+00 -2.8980646811486852e-04 +0.0000000000000000e+00 +9.9999995800610453e-01
5.2999999999999892e+00 +8.2842251162048619e+00 +0.0000000000000000e+00 +5.2999999244554097e+00 -2.9257257053006710e-04 +0.0000000000000000e+00 +9.9999995720064450e-01
5.3499999999999890e+00 +8.2842104184203986e+00 +0.0000000000000000e+00 +5.3499999222951446e+00 -2.9533883513896788e-04 +0.0000000000000000e+00 +9.9999995638748518e-01
5.3999999999999888e+00 +8.2841955823186293e+00 +0.0000000000000000e+00 +5.3999999200940296e+00 -2.9810526295228490e-04 +0.0000000000000000e+00 +9.9999995556662502e-01
5.4499999999999886e+00 +8.2841806078913667e+00 +0.0000000000000000e+00 +5.4499999178516791e+00 -3.0087185496703703e-04 +0.0000000000000000e+00 +9.9999995473806236e-01
5.4999999999999885e+00 +8.2841654951303791e+00 +0.0000000000000000e+00 +5.4999999155677077e+00 -3.0363861216654799e-04 +0.0000000000000000e+00 +9.9999995390179552e-01
5.5499999999999883e+00 +8.2841502440273818e+00 +0.0000000000000000e+00 +5.5499999132417299e+00 -3.0640553552044623e-04 +0.0000000000000000e+00 +9.9999995305782274e-01
5.5999999999999881e+00 +8.2841348545740416e+00 +0.0000000000000000e+00 +5.5999999108733611e+00 -3.0917262598466506e-04 +0.0000000000000000e+00 +9.9999995220614246e-01
5.6499999999999879e+00 +8.2841193267619815e+00 +0.0000000000000000e+00 +5.6499999084622159e+00 -3.1193988450144248e-04 +0.0000000000000000e+00 +9.9999995134675301e-01
5.6999999999999877e+00 +8.2841036605827743e+00 +0.0000000000000000e+00 +5.6999999060079078e+00 -3.1470731199932124e-04 +0.0000000000000000e+00 +9.9999995047965262e-01
5.7499999999999876e+00 +8.2840878560279485e+00 +0.0000000000000000e+00 +5.7499999035100524e+00 -3.1747490939314883e-04 +0.0000000000000000e+00 +9.9999994960483962e-01
5.7999999999999874e+00 +8.2840719130889884e+00 +0.0000000000000000e+00 +5.7999999009682632e+00 -3.2024267758407732e-04 +0.0000000000000000e+00 +9.9999994872231235e-01
5.8499999999999872e+00 +8.2840558317573301e+00 +0.0000000000000000e+00 +5.8499998983821548e+00 -3.2301061745956344e-04 +0.0000000000000000e+00 +9.9999994783206902e-01
5.8999999999999870e+00 +8.2840396120243671e+00 +0.0000000000000000e+00 +5.8999998957513418e+00 -3.2577872989336849e-04 +0.0000000000000000e+00 +9.9999994693410810e-01
