# field on trajectory
# s[mm] rx[mm] ry[mm] rz[mm] bx[T] by[T] bz[T]
-0.0000000000000000e+00 +8.5270000000000206e+00 +0.0000000000000000e+00 -0.0000000000000000e+00 -3.0419528699236732e-02 -5.7691305014515259e-01 +5.6289311961771112e-03
-5.0000000000000003e-02 +8.5269999273587000e+00 +0.0000000000000000e+00 -5.1282051281982703e-02 -3.0419916817503265e-02 -5.7692225259604535e-01 +5.6286626141610410e-03
-1.0000000000000001e-01 +8.5269997094401297e+00 +0.0000000000000000e+00 -1.0256410256355400e-01 -3.0420327151553510e-02 -5.7693187054214956e-01 +5.6284003593686177e-03
-1.4999999999999999e-01 +8.5269993462388793e+00 +0.0000000000000000e+00 -1.5384615384430200e-01 -3.0420759616084075e-02 -5.7694190241104659e-01 +5.6281444377048661e-03
-2.0000000000000001e-01 +8.5269988377622195e+00 +0.0000000000000000e+00 -2.0512820512381499e-01 -3.0421214125787681e-02 -5.7695234663024098e-01 +5.6278948550742350e-03
-2.5000000000000000e-01 +8.5269981840028795e+00 +0.0000000000000000e+00 -2.5641025640168202e-01 -3.0421690595363728e-02 -5.7696320162736525e-01 +5.6276516173826164e-03
-2.9999999999999999e-01 +8.5269973849644902e+00 +0.0000000000000000e+00 -3.0769230767749101e-01 -3.0422188939508259e-02 -5.7697446582998835e-01 +5.6274147305354245e-03
-3.4999999999999998e-01 +8.5269964406470500e+00 +0.0000000000000000e+00 -3.5897435895083102e-01 -3.0422709072919690e-02 -5.7698613766572460e-01 +5.6271842004386877e-03
-4.0000000000000002e-01 +8.5269953510505694e+00 +0.0000000000000000e+00 -4.1025641022129000e-01 -3.0423250910297284e-02 -5.7699821556220665e-01 +5.6269600329987655e-03
-4.5000000000000001e-01 +8.5269941161714105e+00 +0.0000000000000000e+00 -4.6153846148845601e-01 -3.0423814366342554e-02 -5.7701069794711235e-01 +5.6267422341226047e-03
-5.0000000000000000e-01 +8.5269927360132005e+00 +0.0000000000000000e+00 -5.1282051275191798e-01 -3.0424399355754979e-02 -5.7702358324808301e-01 +5.6265308097169222e-03
-5.5000000000000004e-01 +8.5269912105795793e+00 +0.0000000000000000e+00 -5.6410256401126402e-01 -3.0425005793234771e-02 -5.7703686989277680e-01 +5.6263257656887318e-03
-5.9999999999999998e-01 +8.5269895398632798e+00 +0.0000000000000000e+00 -6.1538461526608301e-01 -3.0425633593487159e-02 -5.7705055630895208e-01 +5.6261271079461658e-03
-6.5000000000000002e-01 +8.5269877238679292e+00 +0.0000000000000000e+00 -6.6666666651596296e-01 -3.0426282671213726e-02 -5.7706464092430210e-01 +5.6259348423968198e-03
-6.9999999999999996e-01 +8.5269857625899004e+00 +0.0000000000000000e+00 -7.1794871776049296e-01 -3.0426952941119613e-02 -5.7707912216659252e-01 +5.6257489749491170e-03
-7.5000000000000000e-01 +8.5269836560364602e+00 +0.0000000000000000e+00 -7.6923076899926102e-01 -3.0427644317906212e-02 -5.7709399846352250e-01 +5.6255695115109226e-03
-8.0000000000000004e-01 +8.5269814042003400e+00 +0.0000000000000000e+00 -8.2051282023185501e-01 -3.0428356716281225e-02 -5.7710926824291908e-01 +5.6253964579914550e-03
-8.4999999999999998e-01 +8.5269790070851705e+00 +0.0000000000000000e+00 -8.7179487145786405e-01 -3.0429090050948578e-02 -5.7712492993254283e-01 +5.6252298202993682e-03
-9.0000000000000002e-01 +8.5269764646909607e+00 +0.0000000000000000e+00 -9.2307692267687602e-01 -3.0429844236614108e-02 -5.7714098196019847e-01 +5.6250696043438266e-03
-9.4999999999999996e-01 +8.5269737770140601e+00 +0.0000000000000000e+00 -9.7435897388848103e-01 -3.0430619187985525e-02 -5.7715742275373461e-01 +5.6249158160345042e-03
-1.0000000000000000e+00 +8.5269709440617607e+00 +0.0000000000000000e+00 -1.0256410250922601e+00 -3.0431414819766647e-02 -5.7717425074093320e-01 +5.6247684612804761e-03
-1.0500000000000000e+00 +8.5269679658304103e+00 +0.0000000000000000e+00 -1.0769230762878199e+00 -3.0432231046665974e-02 -5.7719146434967494e-01 +5.6246275459918560e-03
-1.1000000000000001e+00 +8.5269648423163709e+00 +0.0000000000000000e+00 -1.1282051274747300e+00 -3.0433067783392324e-02 -5.7720906200785604e-01 +5.6244930760789699e-03
-1.1499999999999999e+00 +8.5269615735232893e+00 +0.0000000000000000e+00 -1.1794871786525800e+00 -3.0433924944651917e-02 -5.7722704214333409e-01 +5.6243650574517882e-03
-1.2000000000000000e+00 +8.5269581594511692e+00 +0.0000000000000000e+00 -1.2307692298209700e+00 -3.0434802445152682e-02 -5.7724540318400874e-01 +5.6242434960207446e-03
-1.2500000000000000e+00 +8.5269546000999998e+00 +0.0000000000000000e+00 -1.2820512809794800e+00 -3.0435700199602726e-02 -5.7726414355779532e-01 +5.6241283976964556e-03
-1.3000000000000000e+00 +8.5269508954661397e+00 +0.0000000000000000e+00 -1.3333333321277101e+00 -3.0436618122711822e-02 -5.7728326169265187e-01 +5.6240197683899906e-03
-1.3500000000000001e+00 +8.5269470455568808e+00 +0.0000000000000000e+00 -1.3846153832652299e+00 -3.0437556129185524e-02 -5.7730275601646919e-01 +5.6239176140117537e-03
-1.3999999999999999e+00 +8.5269430503649293e+00 +0.0000000000000000e+00 -1.4358974343916400e+00 -3.0438514133735217e-02 -5.7732262495726216e-01 +5.6238219404734025e-03
-1.4500000000000000e+00 +8.5269389098939392e+00 +0.0000000000000000e+00 -1.4871794855065199e+00 -3.0439492051068068e-02 -5.7734286694297876e-01 +5.6237327536859177e-03
-1.5000000000000000e+00 +8.5269346241439106e+00 +0.0000000000000000e+00 -1.5384615366094700e+00 -3.0440489795892662e-02 -5.7736348040160790e-01 +5.6236500595606949e-03
-1.5500000000000000e+00 +8.5269301931148203e+00 +0.0000000000000000e+00 -1.5897435877000701e+00 -3.0441507282917602e-02 -5.7738446376115393e-01 +5.6235738640092563e-03
-1.6000000000000001e+00 +8.5269256168030605e+00 +0.0000000000000000e+00 -1.6410256387779201e+00 -3.0442544426852826e-02 -5.7740581544966207e-01 +5.6235041729435229e-03
-1.6499999999999999e+00 +8.5269208952158806e+00 +0.0000000000000000e+00 -1.6923076898425899e+00 -3.0443601142403919e-02 -5.7742753389510959e-01 +5.6234409922747012e-03
-1.7000000000000000e+00 +8.5269160283460206e+00 +0.0000000000000000e+00 -1.7435897408936800e+00 -3.0444677344281992e-02 -5.7744961752559676e-01 +5.6233843279152006e-03
-1.7500000000000000e+00 +8.5269110161934805e+00 +0.0000000000000000e+00 -1.7948717919307799e+00 -3.0445772947195169e-02 -5.7747206476918389e-01 +5.6233341857769743e-03
-1.8000000000000000e+00 +8.5269058587655309e+00 +0.0000000000000000e+00 -1.8461538429534701e+00 -3.0446887865848482e-02 -5.7749487405388800e-01 +5.6232905717715134e-03
-1.8500000000000001e+00 +8.5269005560585391e+00 +0.0000000000000000e+00 -1.8974358939613500e+00 -3.0448022014950990e-02 -5.7751804380782368e-01 +5.6232534918112115e-03
-1.8999999999999999e+00 +8.5268951080688602e+00 +0.0000000000000000e+00 -1.9487179449540000e+00 -3.0449175309211474e-02 -5.7754157245911775e-01 +5.6232229518085285e-03
-1.9500000000000000e+00 +8.5268895148037700e+00 +0.0000000000000000e+00 -1.9999999959310100e+00 -3.0450347663334092e-02 -5.7756545843582774e-01 +5.6231989576751617e-03
-2.0000000000000000e+00 +8.5268838253941794e+00 +0.0000000000000000e+00 -2.0508474532398102e+00 -3.0451528812504104e-02 -5.7758949300190743e-01 +5.6231816293044242e-03
-2.0499999999999998e+00 +8.5268779929429002e+00 +0.0000000000000000e+00 -2.1016949105324101e+00 -3.0452728508478386e-02 -5.7761387436866474e-01 +5.6231707101131109e-03
-2.1000000000000001e+00 +8.5268720174499304e+00 +0.0000000000000000e+00 -2.1525423678083899e+00 -3.0453946643647357e-02 -5.7763859958576291e-01 +5.6231661680593405e-03
-2.1499999999999999e+00 +8.5268658989189099e+00 +0.0000000000000000e+00 -2.2033898250673700e+00 -3.0455183110401032e-02 -5.7766366570284722e-01 +5.6231679711011241e-03
-2.2000000000000002e+00 +8.5268596373498404e+00 +0.0000000000000000e+00 -2.2542372823089400e+00 -3.0456437801131865e-02 -5.7768906976960033e-01 +5.6231760871969108e-03
-2.2500000000000000e+00 +8.5268532327390893e+00 +0.0000000000000000e+00 -2.3050847395326799e+00 -3.0457710608234868e-02 -5.7771480883574211e-01 +5.6231904843055880e-03
-2.2999999999999998e+00 +8.5268466850902804e+00 +0.0000000000000000e+00 -2.3559321967382099e+00 -3.0459001424103325e-02 -5.7774087995094658e-01 +5.6232111303856644e-03
-2.3500000000000001e+00 +8.5268399943961395e+00 +0.0000000000000000e+00 -2.4067796539251201e+00 -3.0460310141135982e-02 -5.7776728016497914e-01 +5.6232379933966164e-03
-2.3999999999999999e+00 +8.5268331606675893e+00 +0.0000000000000000e+00 -2.4576271110930099e+00 -3.0461636651725639e-02 -5.7779400652747559e-01 +5.6232710412967265e-03
-2.4500000000000002e+00 +8.5268261838973594e+00 +0.0000000000000000e+00 -2.5084745682414700e+00 -3.0462980848273542e-02 -5.7782105608821843e-01 +5.6233102420458047e-03
-2.5000000000000000e+00 +8.5268190640890698e+00 +0.0000000000000000e+00 -2.5593220253701001e+00 -3.0464342623177973e-02 -5.7784842589691610e-01 +5.6233555636029976e-03
-2.5499999999999998e+00 +8.5268118012427294e+00 +0.0000000000000000e+00 -2.6101694824785100e+00 -3.0465721868840008e-02 -5.7787611300331110e-01 +5.6234069739278889e-03
-2.6000000000000001e+00 +8.5268043953510606e+00 +0.0000000000000000e+00 -2.6610169395662799e+00 -3.0467118477664989e-02 -5.7790411445721046e-01 +5.6234644409807744e-03
-2.6499999999999999e+00 +8.5267968464213499e+00 +0.0000000000000000e+00 -2.7118643966330200e+00 -3.0468532342053985e-02 -5.7793242730831607e-01 +5.6235279327210052e-03
-2.7000000000000002e+00 +8.5267891544535797e+00 +0.0000000000000000e+00 -2.7627118536783102e+00 -3.0469963354412426e-02 -5.7796104860639375e-01 +5.6235974171086446e-03
-2.7500000000000000e+00 +8.5267813194441295e+00 +0.0000000000000000e+00 -2.8135593107017698e+00 -3.0471411407148732e-02 -5.7798997540124308e-01 +5.6236728621041837e-03
-2.7999999999999998e+00 +8.5267733413966198e+00 +0.0000000000000000e+00 -2.8644067677029899e+00 -3.0472876392670042e-02 -5.7801920474261426e-01 +5.6237542356677344e-03
-2.8500000000000001e+00 +8.5267652203074196e+00 +0.0000000000000000e+00 -2.9152542246815600e+00 -3.0474358203388025e-02 -5.7804873368032039e-01 +5.6238415057601084e-03
-2.8999999999999999e+00 +8.5267569561765395e+00 +0.0000000000000000e+00 -2.9661016816370900e+00 -3.0475856731714570e-02 -5.7807855926415186e-01 +5.6239346403419953e-03
-2.9500000000000002e+00 +8.5267485490112396e+00 +0.0000000000000000e+00 -3.0169491385691698e+00 -3.0477371870060412e-02 -5.7810867854384929e-01 +5.6240336073736978e-03
-3.0000000000000000e+00 +8.5267399988042598e+00 +0.0000000000000000e+00 -3.0677965954773900e+00 -3.0478903510843872e-02 -5.7813908856926999e-01 +5.6241383748167799e-03
-3.0499999999999998e+00 +8.5267313055555896e+00 +0.0000000000000000e+00 -3.1186440523613599e+00 -3.0480451546482139e-02 -5.7816978639022110e-01 +5.6242489106324012e-03
-3.1000000000000001e+00 +8.5267224692688597e+00 +0.0000000000000000e+00 -3.1694915092206801e+00 -3.0482015869392885e-02 -5.7820076905648621e-01 +5.6243651827816068e-03
-3.1499999999999999e+00 +8.5267134899368102e+00 +0.0000000000000000e+00 -3.2203389660549400e+00 -3.0483596372000005e-02 -5.7823203361793774e-01 +5.6244871592264255e-03
-3.2000000000000002e+00 +8.5267043675703498e+00 +0.0000000000000000e+00 -3.2711864228637300e+00 -3.0485192946722122e-02 -5.7826357712431264e-01 +5.6246148079276579e-03
-3.2500000000000000e+00 +8.5266951021658297e+00 +0.0000000000000000e+00 -3.3220338796466700e+00 -3.0486805485985653e-02 -5.7829539662546359e-01 +5.6247480968473693e-03
-3.2999999999999998e+00 +8.5266856937196298e+00 +0.0000000000000000e+00 -3.3728813364033301e+00 -3.0488433882219074e-02 -5.7832748917124721e-01 +5.6248869939477687e-03
-3.3500000000000001e+00 +8.5266761422317394e+00 +0.0000000000000000e+00 -3.4237287931333298e+00 -3.0490078027851471e-02 -5.7835985181149530e-01 +5.6250314671909491e-03
-3.3999999999999999e+00 +8.5266664477057894e+00 +0.0000000000000000e+00 -3.4745762498362600e+00 -3.0491737815312669e-02 -5.7839248159601575e-01 +5.6251814845388838e-03
-3.4500000000000002e+00 +8.5266566101381596e+00 +0.0000000000000000e+00 -3.5254237065117100e+00 -3.0493413137037548e-02 -5.7842537557467433e-01 +5.6253370139542399e-03
-3.5000000000000000e+00 +8.5266466295324808e+00 +0.0000000000000000e+00 -3.5762711631592898e+00 -3.0495103885460353e-02 -5.7845853079728471e-01 +5.6254980233992943e-03
-3.5499999999999998e+00 +8.5266365058887494e+00 +0.0000000000000000e+00 -3.6271186197785901e+00 -3.0496809953019004e-02 -5.7849194431369044e-01 +5.6256644808367479e-03
-3.6000000000000001e+00 +8.5266262391996896e+00 +0.0000000000000000e+00 -3.6779660763692101e+00 -3.0498531232156685e-02 -5.7852561317379292e-01 +5.6258363542300025e-03
-3.6499999999999999e+00 +8.5266158294762100e+00 +0.0000000000000000e+00 -3.7288135329307499e+00 -3.0500267615311702e-02 -5.7855953442735619e-01 +5.6260136115412413e-03
-3.6999999999999900e+00 +8.5266052767074108e+00 +0.0000000000000000e+00 -3.7796609894627999e+00 -3.0502018994933430e-02 -5.7859370512431318e-01 +5.6261962207344394e-03
-3.7499999999999898e+00 +8.5265945809042005e+00 +0.0000000000000000e+00 -3.8305084459649699e+00 -3.0503785263465082e-02 -5.7862812231443106e-01 +5.6263841497720740e-03
-3.7999999999999901e+00 +8.5265837420592998e+00 +0.0000000000000000e+00 -3.8813559024368498e+00 -3.0505566313359531e-02 -5.7866278304761720e-01 +5.6265773666181514e-03
-3.8499999999999899e+00 +8.5265727601727104e+00 +0.0000000000000000e+00 -3.9322033588780299e+00 -3.0507362037069378e-02 -5.7869768437372460e-01 +5.6267758392362730e-03
-3.8999999999999901e+00 +8.5265616352480702e+00 +0.0000000000000000e+00 -3.9830508152881201e+00 -3.0509172327048358e-02 -5.7873282334257847e-01 +5.6269795355899169e-03
-3.9499999999999900e+00 +8.5265503672853793e+00 +0.0000000000000000e+00 -4.0338982716667102e+00 -3.0510997066610743e-02 -5.7876819699580351e-01 +5.6271884230611295e-03
-3.9999999999999898e+00 +8.5265389562773599e+00 +0.0000000000000000e+00 -4.0847457280134103e+00 -3.0512836032782174e-02 -5.7880380227942108e-01 +5.6274024622686670e-03
-4.0499999999999901e+00 +8.5265274022313005e+00 +0.0000000000000000e+00 -4.1355931843278002e+00 -3.0514688934005569e-02 -5.7883963607762523e-01 +5.6276216094664905e-03
-4.0999999999999899e+00 +8.5265157051508105e+00 +0.0000000000000000e+00 -4.1864406406094901e+00 -3.0516555477581270e-02 -5.7887569527360816e-01 +5.6278458208363176e-03
-4.1499999999999897e+00 +8.5265038650250098e+00 +0.0000000000000000e+00 -4.2372880968580704e+00 -3.0518435370814209e-02 -5.7891197675067207e-01 +5.6280750525611644e-03
-4.1999999999999904e+00 +8.5264918818611495e+00 +0.0000000000000000e+00 -4.2881355530731398e+00 -3.0520328321000885e-02 -5.7894847739197985e-01 +5.6283092608228943e-03
-4.2499999999999902e+00 +8.5264797556556005e+00 +0.0000000000000000e+00 -4.3389830092543002e+00 -3.0522234035440788e-02 -5.7898519408077453e-01 +5.6285484018043933e-03
-4.2999999999999901e+00 +8.5264674864120007e+00 +0.0000000000000000e+00 -4.3898304654011504e+00 -3.0524152221429190e-02 -5.7902212370024297e-01 +5.6287924316882169e-03
-4.3499999999999899e+00 +8.5264550741303502e+00 +0.0000000000000000e+00 -4.4406779215132799e+00 -3.0526082586261293e-02 -5.7905926313359690e-01 +5.6290413066574048e-03
-4.3999999999999897e+00 +8.5264425188070199e+00 +0.0000000000000000e+00 -4.4915253775902899e+00 -3.0528024837232274e-02 -5.7909660926407380e-01 +5.6292949828954907e-03
-4.4499999999999904e+00 +8.5264298204419902e+00 +0.0000000000000000e+00 -4.5423728336317897e+00 -3.0529978681634238e-02 -5.7913415897488052e-01 +5.6295534165859444e-03
-4.4999999999999902e+00 +8.5264169790425495e+00 +0.0000000000000000e+00 -4.5932202896373502e+00 -3.0531943826754768e-02 -5.7917190914916461e-01 +5.6298165639119069e-03
-4.5499999999999901e+00 +8.5264039945941494e+00 +0.0000000000000000e+00 -4.6440677456066002e+00 -3.0533919979888340e-02 -5.7920985667023894e-01 +5.6300843810583902e-03
-4.5999999999999899e+00 +8.5263908671149693e+00 +0.0000000000000000e+00 -4.6949152015391098e+00 -3.0535906848314656e-02 -5.7924799842115993e-01 +5.6303568242081405e-03
-4.6499999999999897e+00 +8.5263775965941004e+00 +0.0000000000000000e+00 -4.7457626574344998e+00 -3.0537904139323058e-02 -5.7928633128520501e-01 +5.6306338495463347e-03
-4.6999999999999904e+00 +8.5263641830315500e+00 +0.0000000000000000e+00 -4.7966101132923500e+00 -3.0539911560196652e-02 -5.7932485214556273e-01 +5.6309154132575491e-03
-4.7499999999999902e+00 +8.5263506264309399e+00 +0.0000000000000000e+00 -4.8474575691122697e+00 -3.0541928818215037e-02 -5.7936355788538985e-01 +5.6312014715262995e-03
-4.7999999999999901e+00 +8.5263369267886393e+00 +0.0000000000000000e+00 -4.8983050248938502e+00 -3.0543955620658633e-02 -5.7940244538789398e-01 +5.6314919805378876e-03
-4.8499999999999899e+00 +8.5263230841010191e+00 +0.0000000000000000e+00 -4.9491524806366902e+00 -3.0545991674805706e-02 -5.7944151153627776e-01 +5.6317868964778379e-03
-4.8999999999999897e+00 +8.5263090983826295e+00 +0.0000000000000000e+00 -4.9999999363403900e+00 -3.0548036687924975e-02 -5.7948075321359938e-01 +5.6320861755305204e-03
-4.9499999999999904e+00 +8.5262950649157592e+00 +0.0000000000000000e+00 -5.0505049848957304e+00 -3.0550076509601114e-02 -5.7951990132120801e-01 +5.6323877151262247e-03
-4.9999999999999902e+00 +8.5262808896768494e+00 +0.0000000000000000e+00 -5.1010100334114901e+00 -3.0552124594605549e-02 -5.7955921647747277e-01 +5.6326934731591562e-03
-5.0499999999999901e+00 +8.5262665726659197e+00 +0.0000000000000000e+00 -5.1515150818872497e+00 -3.0554180656079979e-02 -5.7959869562809274e-01 +5.6330034066946894e-03
-5.0999999999999899e+00 +8.5262521138793108e+00 +0.0000000000000000e+00 -5.2020201303226203e+00 -3.0556244407165152e-02 -5.7963833571878975e-01 +5.6333174727986983e-03
-5.1499999999999897e+00 +8.5262375133206696e+00 +0.0000000000000000e+00 -5.2525251787172103e+00 -3.0558315560996360e-02 -5.7967813369522292e-01 +5.6336356285367466e-03
-5.1999999999999904e+00 +8.5262227709863492e+00 +0.0000000000000000e+00 -5.3030302270706198e+00 -3.0560393830709236e-02 -5.7971808650310019e-01 +5.6339578309751726e-03
-5.2499999999999902e+00 +8.5262078868836397e+00 +0.0000000000000000e+00 -5.3535352753824403e+00 -3.0562478929432368e-02 -5.7975819108803883e-01 +5.6342840371797192e-03
-5.2999999999999901e+00 +8.5261928610125306e+00 +0.0000000000000000e+00 -5.4040403236522803e+00 -3.0564570570294509e-02 -5.7979844439570460e-01 +5.6346142042169155e-03
-5.3499999999999899e+00 +8.5261776933584805e+00 +0.0000000000000000e+00 -5.4545453718797399e+00 -3.0566668466427482e-02 -5.7983884337186853e-01 +5.6349482891546281e-03
-5.3999999999999897e+00 +8.5261623839360308e+00 +0.0000000000000000e+00 -5.5050504200644301e+00 -3.0568772330948592e-02 -5.7987938496206903e-01 +5.6352862490587526e-03
-5.4499999999999904e+00 +8.5261469327415398e+00 +0.0000000000000000e+00 -5.5555554682059496e+00 -3.0570881876979431e-02 -5.7992006611197655e-01 +5.6356280409968033e-03
-5.4999999999999902e+00 +8.5261313397750200e+00 +0.0000000000000000e+00 -5.6060605163038897e+00 -3.0572996817637223e-02 -5.7996088376722599e-01 +5.6359736220362557e-03
-5.5499999999999901e+00 +8.5261156050328299e+00 +0.0000000000000000e+00 -5.6565655643578596e+00 -3.0575116866037495e-02 -5.8000183487347057e-01 +5.6363229492450975e-03
-5.5999999999999899e+00 +8.5260997285186004e+00 +0.0000000000000000e+00 -5.7070706123674597e+00 -3.0577241735289765e-02 -5.8004291637629957e-01 +5.6366759796910131e-03
-5.6499999999999897e+00 +8.5260837102287006e+00 +0.0000000000000000e+00 -5.7575756603323001e+00 -3.0579371138503217e-02 -5.8008412522134845e-01 +5.6370326704424751e-03
-5.6999999999999904e+00 +8.5260675501704100e+00 +0.0000000000000000e+00 -5.8080807082519703e+00 -3.0581504788779402e-02 -5.8012545835415941e-01 +5.6373929785673753e-03
-5.7499999999999902e+00 +8.5260512483400799e+00 +0.0000000000000000e+00 -5.8585857561260797e+00 -3.0583642399220907e-02 -5.8016691272034937e-01 +5.6377568611346756e-03
-5.7999999999999901e+00 +8.5260348047340795e+00 +0.0000000000000000e+00 -5.9090908039542303e+00 -3.0585783682926877e-02 -5.8020848526552538e-01 +5.6381242752135859e-03
-5.8499999999999899e+00 +8.5260182193524106e+00 +0.0000000000000000e+00 -5.9595958517360303e+00 -3.0587928352991515e-02 -5.8025017293525549e-01 +5.6384951778732919e-03
