# multipoles
# s[mm] polynom_b[n=0][T/m^n] polynom_b[n=1][T/m^n] polynom_b[n=2][T/m^n] polynom_b[n=3][T/m^n] polynom_b[n=4][T/m^n] polynom_b[n=5][T/m^n] polynom_b[n=6][T/m^n] 
-0.0000000000000000e+00 -5.2273512347206175e-01 +6.8545626489934159e+00 +5.5561190116511776e+00 +2.3123760526436481e+01 -6.9037758764651508e+03 -5.8726020190739143e+05 +3.3715661762340844e+07 
-5.0000000000000003e-02 -5.2273503193232562e-01 +6.8545914759475641e+00 +5.5528402177834266e+00 +2.3313164604089874e+01 -6.8294087721001270e+03 -5.8857739402809157e+05 +3.3196498902175821e+07 
-1.0000000000000001e-01 -5.2273533152005081e-01 +6.8546417654589611e+00 +5.5490045544757276e+00 +2.3488575524770866e+01 -6.7527109533521389e+03 -5.8972755055585550e+05 +3.2660593766626619e+07 
-1.4999999999999999e-01 -5.2273602140449016e-01 +6.8547134500143407e+00 +5.5446235919049585e+00 +2.3650617044224997e+01 -6.6739651253866859e+03 -5.9071653661796625e+05 +3.2109856312546331e+07 
-2.0000000000000001e-01 -5.2273710075485369e-01 +6.8548064620988773e+00 +5.5397089046522794e+00 +2.3799913018217001e+01 -6.5934541130071038e+03 -5.9155021815307264e+05 +3.1546197306971978e+07 
-2.5000000000000000e-01 -5.2273856874044522e-01 +6.8549207341987390e+00 +5.5342720632126863e+00 +2.3937087276415060e+01 -6.5114606297644632e+03 -5.9223446081618231e+05 +3.0971526756751411e+07 
-2.9999999999999999e-01 -5.2274042453053060e-01 +6.8550561988026075e+00 +5.5283246410424063e+00 +2.4062763606852606e+01 -6.4282674683220703e+03 -5.9277513001401362e+05 +3.0387755199287381e+07 
-3.4999999999999998e-01 -5.2274266729440622e-01 +6.8552127883977061e+00 +5.5218782097369132e+00 +2.4177565866466189e+01 -6.3441573727448558e+03 -5.9317809162684483e+05 +2.9796792845198650e+07 
-4.0000000000000002e-01 -5.2274529620139731e-01 +6.8553904354740354e+00 +5.5149443427203071e+00 +2.4282117844412767e+01 -6.2594131373562241e+03 -5.9344921102289006e+05 +2.9200550247424606e+07 
-4.5000000000000001e-01 -5.2274831042086334e-01 +6.8555890725213118e+00 +5.5075346118059336e+00 +2.4377043368288170e+01 -6.1743175106836625e+03 -5.9359435386214708e+05 +2.8600937637858894e+07 
-5.0000000000000000e-01 -5.2275170912213553e-01 +6.8558086320295715e+00 +5.4996605892917509e+00 +2.4462966289923123e+01 -6.0891532547227871e+03 -5.9361938600632525e+05 +2.7999865339533262e+07 
-5.5000000000000004e-01 -5.2275549147456701e-01 +6.8560490464913642e+00 +5.4913338488465850e+00 +2.4540510390436001e+01 -6.0042031743237631e+03 -5.9353017274012335e+05 +2.7399243984455988e+07 
-5.9999999999999998e-01 -5.2275965664759738e-01 +6.8563102483983602e+00 +5.4825659620664515e+00 +2.4610299516611683e+01 -5.9197500066528719e+03 -5.9333257988184562e+05 +2.6800983699976698e+07 
-6.5000000000000002e-01 -5.2276420381061262e-01 +6.8565921702433448e+00 +5.4733685022232992e+00 +2.4672957503132192e+01 -5.8360765482786637e+03 -5.9303247314315068e+05 +2.6206995070037249e+07 
-6.9999999999999996e-01 -5.2276913213306453e-01 +6.8568947445208330e+00 +5.4637530415559095e+00 +2.4729108154270818e+01 -5.7534655581328252e+03 -5.9263571803073620e+05 +2.5619188383897740e+07 
-7.5000000000000000e-01 -5.2277444078435320e-01 +6.8572179037233001e+00 +5.4537311538384783e+00 +2.4779375385490823e+01 -5.6721998428492734e+03 -5.9214818092918117e+05 +2.5039474274701238e+07 
-8.0000000000000004e-01 -5.2278012893398618e-01 +6.8575615803457115e+00 +5.4433144106622739e+00 +2.4824383040501683e+01 -5.5925621459876947e+03 -5.9157572765061643e+05 +2.4469762934706632e+07 
-8.4999999999999998e-01 -5.2278619575142216e-01 +6.8579257068854957e+00 +5.4325143854191511e+00 +2.4864754907358925e+01 -5.5148352621028380e+03 -5.9092422359265469e+05 +2.3911964906373873e+07 
-9.0000000000000002e-01 -5.2279264040615081e-01 +6.8583102158354805e+00 +5.4213426494312849e+00 +2.4901114988301249e+01 -5.4393019310172986e+03 -5.9019953588971065e+05 +2.3367990368983164e+07 
-9.4999999999999996e-01 -5.2279946206772543e-01 +6.8587150396944647e+00 +5.4098107779886595e+00 +2.4934087066411003e+01 -5.3662449990766700e+03 -5.8940752986619424e+05 +2.2839750214629058e+07 
-1.0000000000000000e+00 -5.2280665990561936e-01 +6.8591401109596628e+00 +5.3979303421382516e+00 +2.4964295042756284e+01 -5.2959471988090472e+03 -5.8855407189524965e+05 +2.2329154573761884e+07 
-1.0500000000000000e+00 -5.2281423308940544e-01 +6.8595853621267953e+00 +5.3857129146884208e+00 +2.4992362905291554e+01 -5.2286913102875887e+03 -5.8764502905433183e+05 +2.1838113892152075e+07 
-1.1000000000000001e+00 -5.2282218078867415e-01 +6.8600507256949008e+00 +5.3731700682050736e+00 +2.5018914529897049e+01 -5.1647601075465982e+03 -5.8668626748301357e+05 +2.1368538580056146e+07 
-1.1499999999999999e+00 -5.2283050217299853e-01 +6.8605361341623379e+00 +5.3603133784224584e+00 +2.5044573867063740e+01 -5.1044364524326629e+03 -5.8568365398972284e+05 +2.0922339648807384e+07 
-1.2000000000000000e+00 -5.2283919641195709e-01 +6.8610415200277224e+00 +5.3471544142310465e+00 +2.5069964886438925e+01 -5.0480030204516088e+03 -5.8464305555443361e+05 +2.0501426845680773e+07 
-1.2500000000000000e+00 -5.2284826267517626e-01 +6.8615668157910665e+00 +5.3337047503819512e+00 +2.5095711535411645e+01 -4.9957426461854839e+03 -5.8357033899015817e+05 +2.0107710993606839e+07 
-1.3000000000000000e+00 -5.2285770013231248e-01 +6.8621119539518869e+00 +5.3199759594578184e+00 +2.5122437814809565e+01 -4.9479381071275975e+03 -5.8247137158818718e+05 +1.9743102538278602e+07 
-1.3500000000000001e+00 -5.2286750795296466e-01 +6.8626768670097658e+00 +5.3059796141215818e+00 +2.5150767762791222e+01 -4.9048721822093366e+03 -5.8135202096347278e+05 +1.9409511932315659e+07 
-1.3999999999999999e+00 -5.2287768530684686e-01 +6.8632614874642881e+00 +5.2917272869796745e+00 +2.5181325445724550e+01 -4.8668276504783826e+03 -5.8021815499306459e+05 +1.9108849635500059e+07 
-1.4500000000000000e+00 -5.2288823136361395e-01 +6.8638657478187621e+00 +5.2772305506803443e+00 +2.5214734808755040e+01 -4.8340872946593072e+03 -5.7907564056532353e+05 +1.8843026143037409e+07 
-1.5000000000000000e+00 -5.2289914529296500e-01 +6.8644895805719592e+00 +5.2625009781573198e+00 +2.5251620025163998e+01 -4.8069339032912603e+03 -5.7793034649895632e+05 +1.8613951984139815e+07 
-1.5500000000000000e+00 -5.2291042626461703e-01 +6.8651329182268901e+00 +5.2475501422845996e+00 +2.5292605128762261e+01 -4.7856502603343470e+03 -5.7678814050250105e+05 +1.8423537645577148e+07 
-1.6000000000000001e+00 -5.2292207344832475e-01 +6.8657956932838760e+00 +5.2323896161921386e+00 +2.5338314296709022e+01 -4.7705191658895628e+03 -5.7565489149478311e+05 +1.8273693761958551e+07 
-1.6499999999999999e+00 -5.2293408601376601e-01 +6.8664778382454417e+00 +5.2170309693924706e+00 +2.5389371649566311e+01 -4.7618233188653412e+03 -5.7453646794410865e+05 +1.8166330269392692e+07 
-1.7000000000000000e+00 -5.2294646313077353e-01 +6.8671792856128508e+00 +5.2014857782316808e+00 +2.5446401395625536e+01 -4.7598456019030391e+03 -5.7343873910048744e+05 +1.8103358345672105e+07 
-1.7500000000000000e+00 -5.2295920396911311e-01 +6.8678999678884125e+00 +5.1857656134090382e+00 +2.5510027730010361e+01 -4.7648687480978515e+03 -5.7236757412093994e+05 +1.8086688170730989e+07 
-1.8000000000000000e+00 -5.2297230769853253e-01 +6.8686398175758718e+00 +5.1698820484220827e+00 +2.5580874838576239e+01 -4.7771755664064140e+03 -5.7132884216135147e+05 +1.8118230440665465e+07 
-1.8500000000000001e+00 -5.2298577348885056e-01 +6.8693987671762722e+00 +5.1538466533225975e+00 +2.5659567040461585e+01 -4.7970487745792043e+03 -5.7032841349032498e+05 +1.8199895244235955e+07 
-1.8999999999999999e+00 -5.2299960050993721e-01 +6.8701767491920807e+00 +5.1376710043251812e+00 +2.5746728630471672e+01 -4.8247712544447286e+03 -5.6937215821531473e+05 +1.8333593772214409e+07 
-1.9500000000000000e+00 -5.2301378793156350e-01 +6.8709736961283490e+00 +5.1213666709639574e+00 +2.5842983846688281e+01 -4.8606257117919440e+03 -5.6846594604540861e+05 +1.8521236043361321e+07 
-2.0000000000000000e+00 -5.2302820991462307e-01 +6.8717825312734711e+00 +5.1050813318060282e+00 +2.5947873071547342e+01 -4.9043735345811137e+03 -5.6762140394113725e+05 +1.8761723199454885e+07 
-2.0499999999999998e+00 -5.2304298326097842e-01 +6.8726097857286987e+00 +5.0886709717699601e+00 +2.6062018290734635e+01 -4.9560037198387236e+03 -5.6683012704115559e+05 +1.9054704848086759e+07 
-2.1000000000000001e+00 -5.2305810583044809e-01 +6.8734552983479649e+00 +5.0721258731782104e+00 +2.6185092744613595e+01 -5.0151228228017453e+03 -5.6609029057688732e+05 +1.9397740267148022e+07 
-2.1499999999999999e+00 -5.2307357548286360e-01 +6.8743189079896254e+00 +5.0554363227355577e+00 +2.6316769523842382e+01 -5.0813375101359725e+03 -5.6540006864154618e+05 +1.9788389459301200e+07 
-2.2000000000000002e+00 -5.2308939007806543e-01 +6.8752004535063840e+00 +5.0385926022826020e+00 +2.6456721959497496e+01 -5.1542543197245741e+03 -5.6475763729167206e+05 +2.0224211568830881e+07 
-2.2500000000000000e+00 -5.2310554747597193e-01 +6.8760997737577840e+00 +5.0215850007290941e+00 +2.6604623108988822e+01 -5.2334799783889066e+03 -5.6416117031250021e+05 +2.0702767009919859e+07 
-2.2999999999999998e+00 -5.2312204553640917e-01 +6.8770167075989912e+00 +5.0044037978803448e+00 +2.6760146241674327e+01 -5.3186209679643662e+03 -5.6360884329810902e+05 +2.1221614542828508e+07 
-2.3500000000000001e+00 -5.2313888211933246e-01 +6.8779510938885391e+00 +4.9870392807395145e+00 +2.6922964490612941e+01 -5.4092839624221024e+03 -5.6309883069884451e+05 +2.1778314218629926e+07 
-2.3999999999999999e+00 -5.2315605508455676e-01 +6.8789027714862385e+00 +4.9694817324565808e+00 +2.7092750954505856e+01 -5.5050755363456610e+03 -5.6262930668978393e+05 +2.2370425433419798e+07 
-2.4500000000000002e+00 -5.2317356229205580e-01 +6.8798715792519589e+00 +4.9517214395948805e+00 +2.7269178735077610e+01 -5.6056023515619527e+03 -5.6219844547370193e+05 +2.2995508154521298e+07 
-2.5000000000000000e+00 -5.2319140160170907e-01 +6.8808573560440776e+00 +4.9337486837824303e+00 +2.7451921018799901e+01 -5.7104709379851356e+03 -5.6180442198998644e+05 +2.3651121463049360e+07 
-2.5499999999999998e+00 -5.2320957087345976e-01 +6.8818599407245040e+00 +4.9155537520160753e+00 +2.7640650845774857e+01 -5.8192879730377281e+03 -5.6144540993921435e+05 +2.4334825445953138e+07 
-2.6000000000000001e+00 -5.2322806796729127e-01 +6.8828791721564411e+00 +4.8971269269910191e+00 +2.7835041218624607e+01 -5.9316600102614048e+03 -5.6111958275955368e+05 +2.5044179323103670e+07 
-2.6499999999999999e+00 -5.2324689074311204e-01 +6.8839148892016517e+00 +4.8784584949656908e+00 +2.8034765208697717e+01 -6.0471937047248566e+03 -5.6082511443557905e+05 +2.5776743020516284e+07 
-2.7000000000000002e+00 -5.2326603706086872e-01 +6.8849669307226868e+00 +4.8595387381996726e+00 +2.8239495859047008e+01 -6.1654956025474548e+03 -5.6056017872536206e+05 +2.6530075724097248e+07 
-2.7500000000000000e+00 -5.2328550478057367e-01 +6.8860351355849279e+00 +4.8403579443642659e+00 +2.8448906101624978e+01 -6.2861723942040226e+03 -5.6032294847268134e+05 +2.7301737589499105e+07 
-2.7999999999999998e+00 -5.2330529176215379e-01 +6.8871193426534596e+00 +4.8209063938085492e+00 +2.8662668896592354e+01 -6.4088305738921808e+03 -5.6011159678340319e+05 +2.8089287447208699e+07 
-2.8500000000000001e+00 -5.2332539586564009e-01 +6.8882193907939975e+00 +4.8011743741318345e+00 +2.8880457172853724e+01 -6.5330768260345085e+03 -5.5992429648353823e+05 +2.8890285396151733e+07 
-2.8999999999999999e+00 -5.2334581495101751e-01 +6.8893351188728671e+00 +4.7811521687821354e+00 +2.9101943840116594e+01 -6.6585177311116931e+03 -5.5975922024410183e+05 +2.9702290860601604e+07 
-2.9500000000000002e+00 -5.2336654687823958e-01 +6.8904663657596190e+00 +4.7608300619070176e+00 +2.9326801688837971e+01 -6.7847598773871723e+03 -5.5961453978381935e+05 +3.0522863276149936e+07 
-3.0000000000000000e+00 -5.2338758950736408e-01 +6.8916129703196782e+00 +4.7401983379947330e+00 +2.9554703668122599e+01 -6.9114098712891191e+03 -5.5948842809486075e+05 +3.1349562234127551e+07 
-3.0499999999999998e+00 -5.2340894069840593e-01 +6.8927747714264198e+00 +4.7192472809120316e+00 +2.9785322408879448e+01 -7.0380742958855044e+03 -5.5937905556912895e+05 +3.2179947142964497e+07 
-3.1000000000000001e+00 -5.2343059831137717e-01 +6.8939516079458496e+00 +4.6979671771872153e+00 +3.0018330844037319e+01 -7.1643598058606576e+03 -5.5928459507232206e+05 +3.3011577892942384e+07 
-3.1499999999999999e+00 -5.2345256020634878e-01 +6.8951433187536262e+00 +4.6763483093782225e+00 +3.0253401510536715e+01 -7.2898729504963885e+03 -5.5920321623871638e+05 +3.3842013669522017e+07 
-3.2000000000000002e+00 -5.2347482424329383e-01 +6.8963497427200027e+00 +4.6543809635014934e+00 +3.0490207167604297e+01 -7.4142203690231008e+03 -5.5913309049641760e+05 +3.4668814251185775e+07 
-3.2500000000000000e+00 -5.2349738828226600e-01 +6.8975707187176916e+00 +4.6320554210959335e+00 +3.0728420470385355e+01 -7.5370085818064726e+03 -5.5907238843820791e+05 +3.5489538620989516e+07 
-3.2999999999999998e+00 -5.2352025018335735e-01 +6.8988060856220459e+00 +4.6093619691577734e+00 +3.0967713959927401e+01 -7.6578442521697443e+03 -5.5901927970411512e+05 +3.6301746710585542e+07 
-3.3500000000000001e+00 -5.2354340780661979e-01 +6.9000556823095112e+00 +4.5862908911661302e+00 +3.1207760131823029e+01 -7.7763339518374887e+03 -5.5897193356174917e+05 +3.7102997845103823e+07 
-3.3999999999999999e+00 -5.2356685901209399e-01 +6.9013193476546348e+00 +4.5628324715203252e+00 +3.1448231552397743e+01 -7.8920842706797794e+03 -5.5892851984745637e+05 +3.7890851446082234e+07 
-3.4500000000000002e+00 -5.2359060165988047e-01 +6.9025969205341520e+00 +4.5389769958784925e+00 +3.1688800701028065e+01 -8.0047018374094623e+03 -5.5888720771893079e+05 +3.8662867215459891e+07 
-3.5000000000000000e+00 -5.2361463361001925e-01 +6.9038882398279764e+00 +4.5147147468069226e+00 +3.1929139904774843e+01 -8.1137931939247401e+03 -5.5884616499827197e+05 +3.9416604254392765e+07 
-3.5499999999999998e+00 -5.2363895272259897e-01 +6.9051931444150316e+00 +4.4900360101258538e+00 +3.2168921544017159e+01 -8.2189649678950336e+03 -5.5880356003552664e+05 +4.0149622235973060e+07 
-3.6000000000000001e+00 -5.2366355685774613e-01 +6.9065114731755077e+00 +4.4649310685247539e+00 +3.2407817917528625e+01 -8.3198237024015671e+03 -5.5875756042298465e+05 +4.0859480260922715e+07 
-3.6499999999999999e+00 -5.2368844387548408e-01 +6.9078430649914724e+00 +4.4393902079555039e+00 +3.2645501253315935e+01 -8.4159760273298252e+03 -5.5870633319827204e+05 +4.1543738009555012e+07 
-3.6999999999999900e+00 -5.2371361163598174e-01 +6.9091877587446451e+00 +4.4134037126273169e+00 +3.2881643777365923e+01 -8.5070285245457235e+03 -5.5864804538248549e+05 +4.2199954833863497e+07 
-3.7499999999999898e+00 -5.2373905799926135e-01 +6.9105453933198353e+00 +4.3869618666200596e+00 +3.3115917577392423e+01 -8.5925877725451464e+03 -5.5858086281741690e+05 +4.2825690064758398e+07 
-3.7999999999999901e+00 -5.2376478082548206e-01 +6.9119158076005487e+00 +4.3600549551008791e+00 +3.3347994790481771e+01 -8.6722603731958679e+03 -5.5850295180083567e+05 +4.3418503165032975e+07 
-3.8499999999999899e+00 -5.2379077797473328e-01 +6.9132988404740692e+00 +4.3326732598735189e+00 +3.3577547376108065e+01 -8.7456528444515207e+03 -5.5841247710604419e+05 +4.3975953054929420e+07 
-3.8999999999999901e+00 -5.2381704730711875e-01 +6.9146943308281710e+00 +4.3048070680683690e+00 +3.3804247266436953e+01 -8.8123718381741601e+03 -5.5830760329763067e+05 +4.4495599524531253e+07 
-3.9499999999999900e+00 -5.2384358664790354e-01 +6.9161021166191006e+00 +4.2764479685721550e+00 +3.4027791582002337e+01 -8.8720541660981708e+03 -5.5818669130136189e+05 +4.4975176275980189e+07 
-3.9999999999999898e+00 -5.2387039341780883e-01 +6.9175220156055106e+00 +4.2476030869119841e+00 +3.4248185954837432e+01 -8.9246957798948315e+03 -5.5805023488904466e+05 +4.5414499026327863e+07 
-4.0499999999999901e+00 -5.2389746477674315e-01 +6.9189538280332457e+00 +4.2182898109943512e+00 +3.4465642911774566e+01 -8.9705285261768113e+03 -5.5790004211637215e+05 +4.5814755313104220e+07 
-4.0999999999999899e+00 -5.2392479788030599e-01 +6.9203973536535228e+00 +4.1885257126308497e+00 +3.4680378726302422e+01 -9.0097883519426778e+03 -5.5773794019510027e+05 +4.6177156609252885e+07 
-4.1499999999999897e+00 -5.2395238988419379e-01 +6.9218523922150386e+00 +4.1583283631243493e+00 +3.4892609760834077e+01 -9.0427111919037343e+03 -5.5756575705037697e+05 +4.6502914311118446e+07 
-4.1999999999999904e+00 -5.2398023794399395e-01 +6.9233187434665924e+00 +4.1277153359659122e+00 +3.5102552371752346e+01 -9.0695330347224226e+03 -5.5738532054533577e+05 +4.6793240162431546e+07 
-4.2499999999999902e+00 -5.2400833921535706e-01 +6.9247962071546691e+00 +4.0967042034747863e+00 +3.5310422978260455e+01 -9.0904898479142885e+03 -5.5719845897617692e+05 +4.7049345804426014e+07 
-4.2999999999999901e+00 -5.2403669085387461e-01 +6.9262845830280213e+00 +4.0653125353733914e+00 +3.5516437897612704e+01 -9.1058175185294440e+03 -5.5700699977395206e+05 +4.7272442296470344e+07 
-4.3499999999999899e+00 -5.2406529001518620e-01 +6.9277836708311584e+00 +4.0335579060757398e+00 +3.5720813601665007e+01 -9.1157520663166815e+03 -5.5681277161257644e+05 +4.7463741620106332e+07 
-4.3999999999999897e+00 -5.2409413385493742e-01 +6.9292932703094818e+00 +4.0014578864681418e+00 +3.5923766506870599e+01 -9.1205294138829631e+03 -5.5661760264797509e+05 +4.7624455093350746e+07 
-4.4499999999999904e+00 -5.2412321952875396e-01 +6.9308131812056697e+00 +3.9690300487168897e+00 +3.6125513122687558e+01 -9.1203855211070531e+03 -5.5642332176597358e+05 +4.7755794299435295e+07 
-4.4999999999999902e+00 -5.2415254419220902e-01 +6.9323432032633043e+00 +3.9362919646669847e+00 +3.6326269900138939e+01 -9.1155563362882021e+03 -5.5623175731085741e+05 +4.7858970730569281e+07 
-4.5499999999999901e+00 -5.2418210500101980e-01 +6.9338831362238524e+00 +3.9032612047640693e+00 +3.6526253354960410e+01 -9.1062777683658660e+03 -5.5604473812865012e+05 +4.7935195612292834e+07 
-4.5999999999999899e+00 -5.2421189911068544e-01 +6.9354327798257955e+00 +3.8699553420013055e+00 +3.6725680111092856e+01 -9.0927858020622352e+03 -5.5586409389983490e+05 +4.7985680709120847e+07 
-4.6499999999999897e+00 -5.2424192367690992e-01 +6.9369919338085628e+00 +3.8363919501907535e+00 +3.6924766721911126e+01 -9.0753164431527057e+03 -5.5569165366745298e+05 +4.8011637924776956e+07 
-4.6999999999999904e+00 -5.2427217585529817e-01 +6.9385603979103427e+00 +3.8025885985830286e+00 +3.7123729764197179e+01 -9.0541055653888634e+03 -5.5552924659307953e+05 +4.8014278239182323e+07 
-4.7499999999999902e+00 -5.2430265280143340e-01 +6.9401379718683538e+00 +3.7685628584164332e+00 +3.7322785847048294e+01 -9.0293891081444872e+03 -5.5537870210613054e+05 +4.7994813123115607e+07 
-4.7999999999999901e+00 -5.2433335167095385e-01 +6.9417244554139304e+00 +3.7343323017492795e+00 +3.7522151783822991e+01 -9.0014030263894820e+03 -5.5524185121648828e+05 +4.7954454129399642e+07 
-4.8499999999999899e+00 -5.2436426961949700e-01 +6.9433196482822845e+00 +3.6999145009910417e+00 +3.7722044201161573e+01 -8.9703832861416577e+03 -5.5512052334137796e+05 +4.7894412894390061e+07 
-4.8999999999999897e+00 -5.2439540380256189e-01 +6.9449233502056416e+00 +3.6653270275484870e+00 +3.7922679828843251e+01 -8.9365658293224169e+03 -5.5501654869735346e+05 +4.7815900901741050e+07 
-4.9499999999999904e+00 -5.2442653957599372e-01 +6.9465244702762945e+00 +3.6308222675696746e+00 +3.8122905636620708e+01 -8.9004394878399198e+03 -5.5493225628815894e+05 +4.7720829069219947e+07 
-4.9999999999999902e+00 -5.2445788309255947e-01 +6.9481335912434812e+00 +3.5961846725079165e+00 +3.8324290996843082e+01 -8.8620170050400502e+03 -5.5486868431876076e+05 +4.7609917063808158e+07 
-5.0499999999999901e+00 -5.2448943156491057e-01 +6.9497505168518003e+00 +3.5614314579039519e+00 +3.8527048561594206e+01 -8.8215295063862377e+03 -5.5482762829721416e+05 +4.7484351523025781e+07 
