# multipoles
# s[mm] polynom_b[n=0][T/m^n] polynom_b[n=1][T/m^n] polynom_b[n=2][T/m^n] polynom_b[n=3][T/m^n] polynom_b[n=4][T/m^n] polynom_b[n=5][T/m^n] polynom_b[n=6][T/m^n] 
+0.0000000000000000e+00 -5.7904173008973081e-01 +7.5932994119630299e+00 +5.9847051869534740e+00 -3.7357977755741040e+01 -8.8398595221724299e+03 -2.4077356532198843e+05 +6.7156159251542941e+07 
+5.0000000000000003e-02 -5.7903895713504994e-01 +7.5932995882868592e+00 +5.9880125499006240e+00 -3.7809559021445615e+01 -8.9167006539523391e+03 -2.3720161158211957e+05 +6.7552008576594412e+07 
+1.0000000000000001e-01 -5.7903655960420841e-01 +7.5933198635014003e+00 +5.9910387697561491e+00 -3.8227752708456045e+01 -8.9973808344502904e+03 -2.3384259032968062e+05 +6.7971377364313230e+07 
+1.5000000000000002e-01 -5.7903453660091342e-01 +7.5933601649118199e+00 +5.9937708663386058e+00 -3.8612684823291993e+01 -9.0816207508466705e+03 -2.3069588234689995e+05 +6.8412696654152766e+07 
+2.0000000000000001e-01 -5.7903288722890056e-01 +7.5934204198273871e+00 +5.9961958609311363e+00 -3.8964481511893624e+01 -9.1691411279142267e+03 -2.2776086728514024e+05 +6.8874397735729128e+07 
+2.5000000000000000e-01 -5.7903161059192265e-01 +7.5935005555537085e+00 +5.9983007748979471e+00 -3.9283268733417351e+01 -9.2596626947838686e+03 -2.2503692636109801e+05 +6.9354911934468150e+07 
+2.9999999999999999e-01 -5.7903070579372395e-01 +7.5936004994003685e+00 +6.0000726245590412e+00 -3.9569172594375708e+01 -9.3529060437130920e+03 -2.2252343953487600e+05 +6.9852669653182402e+07 
+3.4999999999999998e-01 -5.7903017193810635e-01 +7.5937201786753459e+00 +6.0014984343298217e+00 -3.9822319093371824e+01 -9.4485919912733734e+03 -2.2021978772271710e+05 +7.0366102825956002e+07 
+3.9999999999999997e-01 -5.7903000812885141e-01 +7.5938595206861432e+00 +6.0025652211716851e+00 -4.0042834186534755e+01 -9.5464411499230246e+03 -2.1812535216735944e+05 +7.0893642002860442e+07 
+4.4999999999999996e-01 -5.7903021346978367e-01 +7.5940184527458960e+00 +6.0032600068475581e+00 -4.0230844037003635e+01 -9.6461742643211746e+03 -2.1623951239080940e+05 +7.1433718635372832e+07 
+4.9999999999999994e-01 -5.7903078706472022e-01 +7.5941969021613245e+00 +6.0035698084661329e+00 -4.0386474510071253e+01 -9.7475119510450550e+03 -2.1456165041043170e+05 +7.1984763301630422e+07 
+5.4999999999999993e-01 -5.7903172801751313e-01 +7.5943947962468856e+00 +6.0034816470862609e+00 -4.0509851762906251e+01 -9.8501749408679461e+03 -2.1309114583508472e+05 +7.2545207377598345e+07 
+5.9999999999999998e-01 -5.7903303543203211e-01 +7.5946120623128746e+00 +6.0029825429141415e+00 -4.0601101745691579e+01 -9.9538839350843809e+03 -2.1182738000428968e+05 +7.3113482020542234e+07 
+6.5000000000000002e-01 -5.7903470841215110e-01 +7.5948486276728513e+00 +6.0020595148872387e+00 -4.0660350517704195e+01 -1.0058359607548784e+04 -2.1076973336560358e+05 +7.3688018222715408e+07 
+7.0000000000000007e-01 -5.7903674606175959e-01 +7.5951044196403359e+00 +6.0006995808970691e+00 -4.0687724114951450e+01 -1.0163322601276579e+04 -2.0991758654140003e+05 +7.4267246765021145e+07 
+7.5000000000000011e-01 -5.7903914748477492e-01 +7.5953793655292179e+00 +5.9988897613592220e+00 -4.0683348550299463e+01 -1.0268493629378092e+04 -2.0927032038184936e+05 +7.4849598904454082e+07 
+8.0000000000000016e-01 -5.7904191178511477e-01 +7.5956733926563746e+00 +5.9966170736350239e+00 -4.0647349929595109e+01 -1.0373593322771920e+04 -2.0882731499728744e+05 +7.5433505346101850e+07 
+8.5000000000000020e-01 -5.7904503806674001e-01 +7.5959864283364462e+00 +5.9938685400135849e+00 -4.0579854241500158e+01 -1.0478342448924639e+04 -2.0858795145200961e+05 +7.6017397731203705e+07 
+9.0000000000000024e-01 -5.7904852543358953e-01 +7.5963183998870853e+00 +5.9906311755949213e+00 -4.0480987568656424e+01 -1.0582461575821751e+04 -2.0855161005765523e+05 +7.6599706331786916e+07 
+9.5000000000000029e-01 -5.7905237298964296e-01 +7.5966692346253568e+00 +5.9868920003366579e+00 -4.0350875928213291e+01 -1.0685671410562107e+04 -2.0871767173149297e+05 +7.7178862391625613e+07 
+1.0000000000000002e+00 -5.7905657983890069e-01 +7.5970388598716143e+00 +5.9826380344362127e+00 -4.0189645471388062e+01 -1.0787692661784984e+04 -2.0908551617667411e+05 +7.7753297146381497e+07 
+1.0500000000000003e+00 -5.7906114508534723e-01 +7.5974272029456138e+00 +5.9778562933685357e+00 -3.9997422255910180e+01 -1.0888245918464116e+04 -2.0965452405181405e+05 +7.8321441051809013e+07 
+1.1000000000000003e+00 -5.7906606783301129e-01 +7.5978341911694551e+00 +5.9725337963159184e+00 -3.9774332432210727e+01 -1.0987051859394176e+04 -2.1042407516063011e+05 +7.8881725133474529e+07 
+1.1500000000000004e+00 -5.7907134718594255e-01 +7.5982597518617432e+00 +5.9666575646538265e+00 -3.9520501975048695e+01 -1.1083831234722182e+04 -2.1139355078165920e+05 +7.9432580943457767e+07 
+1.2000000000000004e+00 -5.7907698224816395e-01 +7.5987038123509638e+00 +5.9602146115292589e+00 -3.9236057229941736e+01 -1.1178304565073864e+04 -2.1256232917820095e+05 +7.9972438454694092e+07 
+1.2500000000000004e+00 -5.7908297212376347e-01 +7.5991662999566900e+00 +5.9531919589690183e+00 -3.8921124144545807e+01 -1.1270192616409598e+04 -2.1392979192193667e+05 +8.0499729322904661e+07 
+1.3000000000000005e+00 -5.7908931591680091e-01 +7.5996471420055220e+00 +5.9455766215016332e+00 -3.8575828924121829e+01 -1.1359215950740272e+04 -2.1549531848690097e+05 +8.1012883815249592e+07 
+1.3500000000000005e+00 -5.7909601273138478e-01 +7.6001462658267904e+00 +5.9373556190279002e+00 -3.8200297865783966e+01 -1.1445095273745635e+04 -2.1725828756713364e+05 +8.1510333168215007e+07 
+1.4000000000000006e+00 -5.7910306167161829e-01 +7.6006635987440747e+00 +5.9285159684514381e+00 -3.7794656988085634e+01 -1.1527551215982598e+04 -2.1921808023345959e+05 +8.1990508131140023e+07 
+1.4500000000000006e+00 -5.7911046184162351e-01 +7.6011990680884862e+00 +5.9190446871488716e+00 -3.7359032591367331e+01 -1.1606304418648922e+04 -2.2137407523582730e+05 +8.2451839515995771e+07 
+1.5000000000000007e+00 -5.7911821234554717e-01 +7.6017526011919401e+00 +5.9089287935294035e+00 -3.6893550980078956e+01 -1.1681075546507476e+04 -2.2372565131925806e+05 +8.2892758279968992e+07 
+1.5500000000000007e+00 -5.7912631228752942e-01 +7.6023241253826352e+00 +5.8981553032238629e+00 -3.6398338280899274e+01 -1.1751585199355732e+04 -2.2627218868784647e+05 +8.3311694977796420e+07 
+1.6000000000000008e+00 -5.7913476077174464e-01 +7.6029135679964108e+00 +5.8867112347460369e+00 -3.5873520884382167e+01 -1.1817554049233380e+04 -2.2901306548452599e+05 +8.3707080630852759e+07 
+1.6500000000000008e+00 -5.7914355690236141e-01 +7.6035208563661500e+00 +5.8745836029871468e+00 -3.5319225054637180e+01 -1.1878702672024405e+04 -2.3194766081147263e+05 +8.4077345618323207e+07 
+1.7000000000000008e+00 -5.7915269978358430e-01 +7.6041459178262185e+00 +5.8617594265229078e+00 -3.4735577067124957e+01 -1.1934751741818764e+04 -2.3507535377885221e+05 +8.4420920975797713e+07 
+1.7500000000000009e+00 -5.7916218851961376e-01 +7.6047886797164974e+00 +5.8482257208048729e+00 -3.4122703398343162e+01 -1.1985421853087644e+04 -2.3839552186128290e+05 +8.4736237222605497e+07 
+1.8000000000000009e+00 -5.7917202221468445e-01 +7.6054490693731145e+00 +5.8339695050684632e+00 -3.3480730340990149e+01 -1.2030433702406925e+04 -2.4190754405529710e+05 +8.5021725563032955e+07 
+1.8500000000000010e+00 -5.7918219997301790e-01 +7.6061270141358426e+00 +5.8189777929596396e+00 -3.2809784304022770e+01 -1.2069507829853523e+04 -2.4561079844608638e+05 +8.5275816124786273e+07 
+1.9000000000000010e+00 -5.7919272089887031e-01 +7.6068224413473677e+00 +5.8032376023659458e+00 -3.2109991788354485e+01 -1.2102364897541132e+04 -2.4950466238105745e+05 +8.5496939888834164e+07 
+1.9500000000000011e+00 -5.7920358409650574e-01 +7.6075352783490411e+00 +5.7867359496591186e+00 -3.1381479202118413e+01 -1.2128725523728612e+04 -2.5358851403023431e+05 +8.5683527528334543e+07 
+2.0000000000000009e+00 -5.7921478867018095e-01 +7.6082654524846873e+00 +5.7694598478991601e+00 -3.0624373026192604e+01 -1.2148310237904376e+04 -2.5786173097506133e+05 +8.5834009116820544e+07 
+2.0500000000000007e+00 -5.7922633355748998e-01 +7.6090128849350513e+00 +5.7514012656757147e+00 -2.9838988355573317e+01 -1.2160919451860467e+04 -2.6232225567641668e+05 +8.5947244198862612e+07 
+2.1000000000000005e+00 -5.7923821702961698e-01 +7.6097774667408613e+00 +5.7325722411588025e+00 -2.9026436291881559e+01 -1.2166669896037334e+04 -2.6696209044745768e+05 +8.6023785282001287e+07 
+2.1500000000000004e+00 -5.7925043719133251e-01 +7.6105590800444221e+00 +5.7129899197788143e+00 -2.8188038230687457e+01 -1.2165757023213755e+04 -2.7177169999182894e+05 +8.6064605053328186e+07 
+2.2000000000000002e+00 -5.7926299214740073e-01 +7.6113576069940034e+00 +5.6926714435703429e+00 -2.7325115786898458e+01 -1.2158376192648266e+04 -2.7674154727766977e+05 +8.6070675563844532e+07 
+2.2500000000000000e+00 -5.7927588000260677e-01 +7.6121729297334157e+00 +5.6716339562941895e+00 -2.6438990392447458e+01 -1.2144722811066293e+04 -2.8186209671019285e+05 +8.6042969186222032e+07 
+2.2999999999999998e+00 -5.7928909886173829e-01 +7.6130049304095211e+00 +5.6498946001834858e+00 -2.5530983582399745e+01 -1.2124992242619772e+04 -2.8712381189280265e+05 +8.5982457999796346e+07 
+2.3499999999999996e+00 -5.7930264682959609e-01 +7.6138534911704534e+00 +5.6274705174236299e+00 -2.4602416944177289e+01 -1.2099379848347804e+04 -2.9251715592950938e+05 +8.5890114055697933e+07 
+2.3999999999999995e+00 -5.7931652201100736e-01 +7.6147184941587156e+00 +5.6043788537423875e+00 -2.3654611814788137e+01 -1.2068081089651929e+04 -2.9803259401335113e+05 +8.5766910097757980e+07 
+2.4499999999999993e+00 -5.7933072251080675e-01 +7.6155998215226370e+00 +5.5806367531393715e+00 -2.2688889766481466e+01 -1.2031291371845686e+04 -3.0366058936364559e+05 +8.5613818455791220e+07 
+2.4999999999999991e+00 -5.7934524643381735e-01 +7.6164973554091420e+00 +5.5562613565494532e+00 -2.1706572298814883e+01 -1.1989206025167750e+04 -3.0939160580980300e+05 +8.5431810979912058e+07 
+2.5499999999999989e+00 -5.7936009188489201e-01 +7.6174109779659371e+00 +5.5312698082734215e+00 -2.0708980942553360e+01 -1.1942020469637688e+04 -3.1521610688151536e+05 +8.5221860120732427e+07 
+2.5999999999999988e+00 -5.7937525696889924e-01 +7.6183405713398500e+00 +5.5056792532102055e+00 -1.9697437181986761e+01 -1.1889930134563767e+04 -3.2112455648459878e+05 +8.4984938362793073e+07 
+2.6499999999999986e+00 -5.7939073979070965e-01 +7.6192860176782276e+00 +5.4795068348931357e+00 -1.8673262519524943e+01 -1.1833130415422054e+04 -3.2710741835040686e+05 +8.4722017974728361e+07 
+2.6999999999999984e+00 -5.7940653845519774e-01 +7.6202471991255312e+00 +5.4527696962714298e+00 -1.7637778330280337e+01 -1.1771816694561390e+04 -3.3315515724278969e+05 +8.4434071142704353e+07 
+2.7499999999999982e+00 -5.7942265106726210e-01 +7.6212239978318195e+00 +5.4254849822479319e+00 -1.6592306213581843e+01 -1.1706184398963327e+04 -3.3925823607798014e+05 +8.4122070323407054e+07 
+2.7999999999999980e+00 -5.7943907573181086e-01 +7.6222162959413229e+00 +5.3976698382519261e+00 -1.5538167539275303e+01 -1.1636428975653167e+04 -3.4540711957217444e+05 +8.3786988128820434e+07 
+2.8499999999999979e+00 -5.7945581055374573e-01 +7.6232239756040148e+00 +5.3693414062087914e+00 -1.4476683897464564e+01 -1.1562745767655841e+04 -3.5159227066096093e+05 +8.3429796429559410e+07 
+2.8999999999999977e+00 -5.7947285363799617e-01 +7.6242469189636974e+00 +5.3405168326612547e+00 -1.3409176628671199e+01 -1.1485330255556588e+04 -3.5780415428743546e+05 +8.3051468076013014e+07 
+2.9499999999999975e+00 -5.7949020308949351e-01 +7.6252850081689703e+00 +5.3112132615559400e+00 -1.2336967270292041e+01 -1.1404377835352476e+04 -3.6403323374255176e+05 +8.2652975287985012e+07 
+2.9999999999999973e+00 -5.7950785701318708e-01 +7.6263381253611113e+00 +5.2814478391351898e+00 -1.1261377058680598e+01 -1.1320083967402959e+04 -3.7026997476913716e+05 +8.2235290726189986e+07 
+3.0499999999999972e+00 -5.7952581351401433e-01 +7.6274061526921582e+00 +5.2512377080619883e+00 -1.0183727678507825e+01 -1.1232644018410097e+04 -3.7650483936760918e+05 +8.1799386430547059e+07 
+3.0999999999999970e+00 -5.7954407069694647e-01 +7.6284889723041172e+00 +5.2206000155666699e+00 -9.1053403872944596e+00 -1.1142253475223486e+04 -3.8272829308857070e+05 +8.1346235236885026e+07 
+3.1499999999999968e+00 -5.7956262666695313e-01 +7.6295864663424835e+00 +5.1895519070110527e+00 -8.0275366189509718e+00 -1.1049107770964751e+04 -3.8893079987909610e+05 +8.0876809603694946e+07 
+3.1999999999999966e+00 -5.7958147952900718e-01 +7.6306985169526405e+00 +5.1581105270680272e+00 -6.9516377782821417e+00 -1.0953402321089343e+04 -3.9510282400339207e+05 +8.0392081871458650e+07 
+3.2499999999999964e+00 -5.7960062738811025e-01 +7.6318250062773494e+00 +5.1262930240014821e+00 -5.8789651870005439e+00 -1.0855332636166620e+04 -4.0123483029508480e+05 +7.9893025015625611e+07 
+3.2999999999999963e+00 -5.7962006834925395e-01 +7.6329658164617342e+00 +5.0941165430303617e+00 -4.8108402617162769e+00 -1.0755094140115916e+04 -4.0731728278922400e+05 +7.9380611404349983e+07 
+3.3499999999999961e+00 -5.7963980051742725e-01 +7.6341208296474452e+00 +5.0615982279968899e+00 -3.7485842806350034e+00 -1.0652882224480883e+04 -4.1334064664551994e+05 +7.8855813204542547e+07 
+3.3999999999999959e+00 -5.7965982199767874e-01 +7.6352899279777962e+00 +5.0287552313834816e+00 -2.6935186086033611e+00 -1.0548892505033695e+04 -4.1929538621838402e+05 +7.8319604061486199e+07 
+3.4499999999999957e+00 -5.7968013089499915e-01 +7.6364729935960325e+00 +4.9956046951600515e+00 -1.6469646094041885e+00 -1.0443320321893569e+04 -4.2517196584856178e+05 +7.7772955786808506e+07 
+3.4999999999999956e+00 -5.7970072531442818e-01 +7.6376699086406585e+00 +4.9621637677135357e+00 -6.1024345488812137e-01 -1.0336361175598571e+04 -4.3096085144332144e+05 +7.7216841223227426e+07 
+3.5499999999999954e+00 -5.7972160336101386e-01 +7.6388805552530812e+00 +4.9284495986341508e+00 +4.1532353690781898e-01 -1.0228210605672790e+04 -4.3665250759579398e+05 +7.6652233501209155e+07 
+3.5999999999999952e+00 -5.7974276313978323e-01 +7.6401048155758184e+00 +4.8944793323023967e+00 +1.4284149985017760e+00 -1.0119064005568358e+04 -4.4223739847293368e+05 +7.6080104738787770e+07 
+3.6499999999999950e+00 -5.7976420275581475e-01 +7.6413425717435768e+00 +4.8602701210920536e+00 +2.4277098786041846e+00 -1.0009116983279746e+04 -4.4770599081881152e+05 +7.5501428498728961e+07 
+3.6999999999999948e+00 -5.7978592031415155e-01 +7.6425937058973989e+00 +4.8258391107347585e+00 +3.4118868353108427e+00 -9.8985649698642446e+03 -4.5304874887336232e+05 +7.4917177151779652e+07 
+3.7499999999999947e+00 -5.7980791391986786e-01 +7.6438581001722454e+00 +4.7912034506115555e+00 +4.3796247831975421e+00 -9.7876034847238880e+03 -4.5825613901350443e+05 +7.4328323625178561e+07 
+3.7999999999999945e+00 -5.7983018167804079e-01 +7.6451356367063035e+00 +4.7563802899078800e+00 +5.3296024675057199e+00 -9.6764280455009284e+03 -4.6331862607669993e+05 +7.3735840847160190e+07 
+3.8499999999999943e+00 -5.7985272169375646e-01 +7.6464261976350576e+00 +4.7213867789902055e+00 +6.2604987395361968e+00 -9.5652342005797345e+03 -4.6822667576965102e+05 +7.3140701942412451e+07 
+3.8999999999999941e+00 -5.7987553207209452e-01 +7.6477296650907247e+00 +4.6862400656396836e+00 +7.1709925718985721e+00 -9.4542174234475515e+03 -4.7297075475215365e+05 +7.2543879510930851e+07 
+3.9499999999999940e+00 -5.7989861091816364e-01 +7.6490459212080300e+00 +4.6509573022052271e+00 +8.0597628031553619e+00 -9.3435733106493099e+03 -4.7754132846161502e+05 +7.1946346977435410e+07 
+3.9999999999999938e+00 -5.7992195633705801e-01 +7.6503748481197258e+00 +4.6155556378746692e+00 +8.9254883496975133e+00 -9.2334973717626362e+03 -4.8192886295169446e+05 +7.1349077172947422e+07 
+4.0499999999999936e+00 -5.7994556630180860e-01 +7.6517163154148413e+00 +4.5800506224633821e+00 +9.7671928783453499e+00 -9.1241660296472110e+03 -4.8612635341679247e+05 +7.0752973804242969e+07 
+4.0999999999999934e+00 -5.7996943825642533e-01 +7.6530701357767619e+00 +4.5444519737481821e+00 +1.0585336125939975e+01 -9.0156938877685388e+03 -4.9013732663455175e+05 +7.0158772093987867e+07 
+4.1499999999999932e+00 -5.7999356951247583e-01 +7.6544361059316319e+00 +4.5087681133824891e+00 +1.1380752495263005e+01 -8.9081838598116137e+03 -4.9396806220700307e+05 +6.9567193118322641e+07 
+4.1999999999999931e+00 -5.8001795738152928e-01 +7.6558140226092100e+00 +4.4730074629618946e+00 +1.2154276211375144e+01 -8.8017388578868085e+03 -4.9762483825640887e+05 +6.8978957951687858e+07 
+4.2499999999999929e+00 -5.8004259917517487e-01 +7.6572036825356475e+00 +4.4371784475728848e+00 +1.2906741652733004e+01 -8.6964618909417350e+03 -5.0111393422034098e+05 +6.8394788332220376e+07 
+4.2999999999999927e+00 -5.8006749220496412e-01 +7.6586048824388708e+00 +4.4012894854532592e+00 +1.3638983114998963e+01 -8.5924557823295072e+03 -5.0444162884359976e+05 +6.7815404741453156e+07 
+4.3499999999999925e+00 -5.8009263378249243e-01 +7.6600174190460413e+00 +4.3653490023211958e+00 +1.4351834930039651e+01 -8.4898235599774616e+03 -5.0761420123481395e+05 +6.7241529056853801e+07 
+4.3999999999999924e+00 -5.8011802121931455e-01 +7.6614410890834517e+00 +4.3293654164889963e+00 +1.5046131433978122e+01 -8.3886680507973342e+03 -5.1063793044626917e+05 +6.6673881794337027e+07 
+4.4499999999999922e+00 -5.8014365182703453e-01 +7.6628756892750358e+00 +4.2933471551881297e+00 +1.5722707075820699e+01 -8.2890923263475652e+03 -5.1351909655959957e+05 +6.6113185138662413e+07 
+4.4999999999999920e+00 -5.8016952291719071e-01 +7.6643210163476789e+00 +4.2573026340116868e+00 +1.6382396154231031e+01 -8.1911991445970762e+03 -5.1626397835640871e+05 +6.5560159159475803e+07 
+4.5499999999999918e+00 -5.8019563180139233e-01 +7.6657768670244186e+00 +4.2212402808403082e+00 +1.7026033149352763e+01 -8.0950915954473267e+03 -5.1887885624702368e+05 +6.5015526173410185e+07 
+4.5999999999999917e+00 -5.8022197579118462e-01 +7.6672430380298655e+00 +4.1851685122482927e+00 +1.7654452426555686e+01 -8.0008724625522709e+03 -5.2137000954292063e+05 +6.4480006423762217e+07 
+4.6499999999999915e+00 -5.8024855219815963e-01 +7.6687193260883300e+00 +4.1490957536980337e+00 +1.8268488385208052e+01 -7.9086447759282382e+03 -5.2374371797902143e+05 +6.3954321844231337e+07 
+4.6999999999999913e+00 -5.8027535833387678e-01 +7.6702055279195660e+00 +4.1130304247945793e+00 +1.8868975591403110e+01 -7.8185114069418296e+03 -5.2600626263148349e+05 +6.3439193299397774e+07 
+4.7499999999999911e+00 -5.8030239150991214e-01 +7.6717014402488823e+00 +4.0769809478726771e+00 +1.9456748370841673e+01 -7.7305752971726897e+03 -5.2816392260237527e+05 +6.2935342114019752e+07 
+4.7999999999999909e+00 -5.8032964903782380e-01 +7.6732068597960943e+00 +4.0409557434854984e+00 +2.0032641273313999e+01 -7.6449393535646377e+03 -5.3022297889352927e+05 +6.2443489433571652e+07 
+4.8499999999999908e+00 -5.8035712822917784e-01 +7.6747215832820173e+00 +4.0049632323901196e+00 +2.0597488788053873e+01 -7.5617064745646830e+03 -5.3218971199008706e+05 +6.1964356295309439e+07 
+4.8999999999999906e+00 -5.8038482639554068e-01 +7.6762454074252098e+00 +3.9690118369706133e+00 +2.1152125484057041e+01 -7.4809796162474659e+03 -5.3407040304556827e+05 +6.1498664178987779e+07 
+4.9499999999999904e+00 -5.8041274084846861e-01 +7.6777781289478799e+00 +3.9331099774927578e+00 +2.1697385770688253e+01 -7.4028616725475104e+03 -5.3587133192060457e+05 +6.1047134129729278e+07 
+4.9999999999999902e+00 -5.8044086889951141e-01 +7.6793195445654501e+00 +3.8972660741242739e+00 +2.2234104335886023e+01 -7.3274555393337614e+03 -5.3759878084765375e+05 +6.0610487221818529e+07 
+5.0499999999999901e+00 -5.8046920786023071e-01 +7.6808694509976458e+00 +3.8614885489819173e+00 +2.2763115659687308e+01 -7.2548641649303272e+03 -5.3925903028091404e+05 +6.0189444890985109e+07 
