# field on trajectory
# s[mm] rx[mm] ry[mm] rz[mm] bx[T] by[T] bz[T]
0.0000000000000000e+00 +8.2850000000000001e+00 +0.0000000000000000e+00 +0.0000000000000000e+00 -2.8218296968192613e-02 -5.2640139431450483e-01 +4.7233991408786443e-03
5.0000000000000003e-02 +8.2849999308482101e+00 +0.0000000000000000e+00 +4.9999999999936241e-02 -2.8218932969430413e-02 -5.2640063292967265e-01 +4.7216572703537183e-03
1.0000000000000001e-01 +8.2849997233929571e+00 +0.0000000000000000e+00 +9.9999999999489914e-02 -2.8219590884422087e-02 -5.2640021757735966e-01 +4.7199268169173378e-03
1.5000000000000002e-01 +8.2849993776343496e+00 +0.0000000000000000e+00 +1.4999999999827848e-01 -2.8220270596559779e-02 -5.2640014753177078e-01 +4.7182079149500847e-03
2.0000000000000001e-01 +8.2849988935724070e+00 +0.0000000000000000e+00 +1.9999999999591939e-01 -2.8220971989236787e-02 -5.2640042206712623e-01 +4.7165006988330385e-03
2.5000000000000000e-01 +8.2849982712070567e+00 +0.0000000000000000e+00 +2.4999999999203007e-01 -2.8221694945847510e-02 -5.2640104045766078e-01 +4.7148053029477856e-03
2.9999999999999999e-01 +8.2849975105381350e+00 +0.0000000000000000e+00 +2.9999999998622795e-01 -2.8222439349787489e-02 -5.2640200197762499e-01 +4.7131218616764236e-03
3.4999999999999998e-01 +8.2849966115653917e+00 +0.0000000000000000e+00 +3.4999999997813047e-01 -2.8223205084453289e-02 -5.2640330590128370e-01 +4.7114505094015590e-03
3.9999999999999997e-01 +8.2849955742884838e+00 +0.0000000000000000e+00 +3.9999999996735508e-01 -2.8223992033242426e-02 -5.2640495150291755e-01 +4.7097913805063266e-03
4.4999999999999996e-01 +8.2849943987069778e+00 +0.0000000000000000e+00 +4.4999999995351925e-01 -2.8224800079553431e-02 -5.2640693805682204e-01 +4.7081446093743835e-03
4.9999999999999994e-01 +8.2849930848203517e+00 +0.0000000000000000e+00 +4.9999999993624034e-01 -2.8225629106785687e-02 -5.2640926483730821e-01 +4.7065103303899174e-03
5.4999999999999993e-01 +8.2849916326279960e+00 +0.0000000000000000e+00 +5.4999999991513582e-01 -2.8226478998339490e-02 -5.2641193111870155e-01 +4.7048886779376513e-03
5.9999999999999998e-01 +8.2849900421292073e+00 +0.0000000000000000e+00 +5.9999999988982300e-01 -2.8227349637615924e-02 -5.2641493617534330e-01 +4.7032797864028494e-03
6.5000000000000002e-01 +8.2849883133231987e+00 +0.0000000000000000e+00 +6.4999999985991930e-01 -2.8228240908016854e-02 -5.2641827928159035e-01 +4.7016837901713258e-03
7.0000000000000007e-01 +8.2849864462090910e+00 +0.0000000000000000e+00 +6.9999999982504224e-01 -2.8229152692944896e-02 -5.2642195971181416e-01 +4.7001008236294420e-03
7.5000000000000011e-01 +8.2849844407859177e+00 +0.0000000000000000e+00 +7.4999999978480902e-01 -2.8230084875803332e-02 -5.2642597674040170e-01 +4.6985310211641110e-03
8.0000000000000016e-01 +8.2849822970526219e+00 +0.0000000000000000e+00 +7.9999999973883718e-01 -2.8231037339996119e-02 -5.2643032964175562e-01 +4.6969745171628208e-03
8.5000000000000020e-01 +8.2849800150080615e+00 +0.0000000000000000e+00 +8.4999999968674400e-01 -2.8232009968927777e-02 -5.2643501769029322e-01 +4.6954314460136114e-03
9.0000000000000024e-01 +8.2849775946510054e+00 +0.0000000000000000e+00 +8.9999999962814681e-01 -2.8233002646003418e-02 -5.2644004016044788e-01 +4.6939019421051052e-03
9.5000000000000029e-01 +8.2849750359801320e+00 +0.0000000000000000e+00 +9.4999999956266290e-01 -2.8234015254628625e-02 -5.2644539632666787e-01 +4.6923861398264939e-03
1.0000000000000002e+00 +8.2849723389940362e+00 +0.0000000000000000e+00 +9.9999999948990959e-01 -2.8235047678209495e-02 -5.2645108546341746e-01 +4.6908841735675555e-03
1.0500000000000003e+00 +8.2849695036912205e+00 +0.0000000000000000e+00 +1.0499999994095042e+00 -2.8236099800152532e-02 -5.2645710684517544e-01 +4.6893961777186525e-03
1.1000000000000003e+00 +8.2849665300701059e+00 +0.0000000000000000e+00 +1.0999999993210641e+00 -2.8237171503864612e-02 -5.2646345974643693e-01 +4.6879222866707468e-03
1.1500000000000004e+00 +8.2849634181290224e+00 +0.0000000000000000e+00 +1.1499999992242063e+00 -2.8238262672752954e-02 -5.2647014344171217e-01 +4.6864626348153814e-03
1.2000000000000004e+00 +8.2849601678662133e+00 +0.0000000000000000e+00 +1.1999999991185482e+00 -2.8239373190225084e-02 -5.2647715720552668e-01 +4.6850173565447205e-03
1.2500000000000004e+00 +8.2849567792798364e+00 +0.0000000000000000e+00 +1.2499999990037070e+00 -2.8240502939688761e-02 -5.2648450031242200e-01 +4.6835865862515239e-03
1.3000000000000005e+00 +8.2849532523679628e+00 +0.0000000000000000e+00 +1.2999999988792998e+00 -2.8241651804551949e-02 -5.2649217203695542e-01 +4.6821704583291657e-03
1.3500000000000005e+00 +8.2849495871285761e+00 +0.0000000000000000e+00 +1.3499999987449440e+00 -2.8242819668222785e-02 -5.2650017165369867e-01 +4.6807691071716418e-03
1.4000000000000006e+00 +8.2849457835595750e+00 +0.0000000000000000e+00 +1.3999999986002567e+00 -2.8244006414109513e-02 -5.2650849843724024e-01 +4.6793826671735674e-03
1.4500000000000006e+00 +8.2849418416587710e+00 +0.0000000000000000e+00 +1.4499999984448548e+00 -2.8245211925620461e-02 -5.2651715166218349e-01 +4.6780112727301884e-03
1.5000000000000007e+00 +8.2849377614238922e+00 +0.0000000000000000e+00 +1.4999999982783556e+00 -2.8246436086163978e-02 -5.2652613060314812e-01 +4.6766550582373802e-03
1.5500000000000007e+00 +8.2849335428525777e+00 +0.0000000000000000e+00 +1.5499999981003763e+00 -2.8247678779148414e-02 -5.2653543453476903e-01 +4.6753141580916620e-03
1.6000000000000008e+00 +8.2849291859423850e+00 +0.0000000000000000e+00 +1.5999999979105337e+00 -2.8248939887982022e-02 -5.2654506273169643e-01 +4.6739887066901903e-03
1.6500000000000008e+00 +8.2849246906907830e+00 +0.0000000000000000e+00 +1.6499999977084450e+00 -2.8250219296073013e-02 -5.2655501446859709e-01 +4.6726788384307723e-03
1.7000000000000008e+00 +8.2849200570951584e+00 +0.0000000000000000e+00 +1.6999999974937270e+00 -2.8251516886829399e-02 -5.2656528902015354e-01 +4.6713846877118725e-03
1.7500000000000009e+00 +8.2849152851528096e+00 +0.0000000000000000e+00 +1.7499999972659968e+00 -2.8252832543659026e-02 -5.2657588566106306e-01 +4.6701063889326077e-03
1.8000000000000009e+00 +8.2849103748609547e+00 +0.0000000000000000e+00 +1.7999999970248712e+00 -2.8254166149969506e-02 -5.2658680366603960e-01 +4.6688440764927654e-03
1.8500000000000010e+00 +8.2849053262167249e+00 +0.0000000000000000e+00 +1.8499999967699672e+00 -2.8255517589168160e-02 -5.2659804230981266e-01 +4.6675978847927962e-03
1.9000000000000010e+00 +8.2849001392171662e+00 +0.0000000000000000e+00 +1.8999999965009016e+00 -2.8256886744662028e-02 -5.2660960086712783e-01 +4.6663679482338320e-03
1.9500000000000011e+00 +8.2848948138592426e+00 +0.0000000000000000e+00 +1.9499999962172911e+00 -2.8258273499857708e-02 -5.2662147861274577e-01 +4.6651544012176749e-03
2.0000000000000009e+00 +8.2848893501398351e+00 +0.0000000000000000e+00 +1.9999999959187529e+00 -2.8259677738161484e-02 -5.2663367482144441e-01 +4.6639573781468192e-03
2.0500000000000007e+00 +8.2848837480557371e+00 +0.0000000000000000e+00 +2.0499999956049035e+00 -2.8261099344197325e-02 -5.2664618858481704e-01 +4.6627769954710602e-03
2.1000000000000005e+00 +8.2848780076036626e+00 +0.0000000000000000e+00 +2.0999999952753599e+00 -2.8262538207462010e-02 -5.2665901826167727e-01 +4.6616132978273229e-03
2.1500000000000004e+00 +8.2848721287802398e+00 +0.0000000000000000e+00 +2.1499999949297384e+00 -2.8263994218671134e-02 -5.2667216202765244e-01 +4.6604663118998309e-03
2.2000000000000002e+00 +8.2848661115820157e+00 +0.0000000000000000e+00 +2.1999999945676558e+00 -2.8265467268540952e-02 -5.2668561805838032e-01 +4.6593360643735022e-03
2.2500000000000000e+00 +8.2848599560054552e+00 +0.0000000000000000e+00 +2.2499999941887285e+00 -2.8266957247788462e-02 -5.2669938452951104e-01 +4.6582225819339516e-03
2.2999999999999998e+00 +8.2848536620469400e+00 +0.0000000000000000e+00 +2.2999999937925732e+00 -2.8268464047131393e-02 -5.2671345961670590e-01 +4.6571258912674988e-03
2.3499999999999996e+00 +8.2848472297027733e+00 +0.0000000000000000e+00 +2.3499999933788067e+00 -2.8269987557288268e-02 -5.2672784149563723e-01 +4.6560460190611741e-03
2.3999999999999995e+00 +8.2848406589691770e+00 +0.0000000000000000e+00 +2.3999999929470452e+00 -2.8271527668978391e-02 -5.2674252834198843e-01 +4.6549829920027189e-03
2.4499999999999993e+00 +8.2848339498422927e+00 +0.0000000000000000e+00 +2.4499999924969056e+00 -2.8273084272921897e-02 -5.2675751833145279e-01 +4.6539368367805875e-03
2.4999999999999991e+00 +8.2848271023181805e+00 +0.0000000000000000e+00 +2.4999999920280036e+00 -2.8274657259839804e-02 -5.2677280963973572e-01 +4.6529075800839665e-03
2.5499999999999989e+00 +8.2848201163928241e+00 +0.0000000000000000e+00 +2.5499999915399560e+00 -2.8276246520453987e-02 -5.2678840044255049e-01 +4.6518952486027569e-03
2.5999999999999988e+00 +8.2848129920621272e+00 +0.0000000000000000e+00 +2.5999999910323792e+00 -2.8277851945487233e-02 -5.2680428891562248e-01 +4.6508998690275990e-03
2.6499999999999986e+00 +8.2848057293219171e+00 +0.0000000000000000e+00 +2.6499999905048894e+00 -2.8279473425663258e-02 -5.2682047323468550e-01 +4.6499214680498667e-03
2.6999999999999984e+00 +8.2847983281679394e+00 +0.0000000000000000e+00 +2.6999999899571026e+00 -2.8281110851706766e-02 -5.2683695157548416e-01 +4.6489600723616728e-03
2.7499999999999982e+00 +8.2847907885958652e+00 +0.0000000000000000e+00 +2.7499999893886353e+00 -2.8282764114343446e-02 -5.2685372211377068e-01 +4.6480157086558746e-03
2.7999999999999980e+00 +8.2847831106012890e+00 +0.0000000000000000e+00 +2.7999999887991032e+00 -2.8284433104300000e-02 -5.2687078302530899e-01 +4.6470884036260828e-03
2.8499999999999979e+00 +8.2847752941797275e+00 +0.0000000000000000e+00 +2.8499999881881228e+00 -2.8286117712304163e-02 -5.2688813248586897e-01 +4.6461781839666570e-03
2.8999999999999977e+00 +8.2847673393266241e+00 +0.0000000000000000e+00 +2.8999999875553102e+00 -2.8287817829084759e-02 -5.2690576867123162e-01 +4.6452850763727170e-03
2.9499999999999975e+00 +8.2847592460373445e+00 +0.0000000000000000e+00 +2.9499999869002811e+00 -2.8289533345371713e-02 -5.2692368975718573e-01 +4.6444091075401456e-03
2.9999999999999973e+00 +8.2847510143071794e+00 +0.0000000000000000e+00 +2.9999999862226514e+00 -2.8291264151896069e-02 -5.2694189391952750e-01 +4.6435503041655909e-03
3.0499999999999972e+00 +8.2847426441313470e+00 +0.0000000000000000e+00 +3.0499999855220370e+00 -2.8293010139390024e-02 -5.2696037933406226e-01 +4.6427086929464812e-03
3.0999999999999970e+00 +8.2847341355049906e+00 +0.0000000000000000e+00 +3.0999999847980537e+00 -2.8294771198586942e-02 -5.2697914417660308e-01 +4.6418843005810112e-03
3.1499999999999968e+00 +8.2847254884231791e+00 +0.0000000000000000e+00 +3.1499999840503174e+00 -2.8296547220221440e-02 -5.2699818662297038e-01 +4.6410771537681618e-03
3.1999999999999966e+00 +8.2847167028809103e+00 +0.0000000000000000e+00 +3.1999999832784440e+00 -2.8298338095029324e-02 -5.2701750484899190e-01 +4.6402872792076985e-03
3.2499999999999964e+00 +8.2847077788731092e+00 +0.0000000000000000e+00 +3.2499999824820489e+00 -2.8300143713747672e-02 -5.2703709703050317e-01 +4.6395147036001807e-03
3.2999999999999963e+00 +8.2846987163946277e+00 +0.0000000000000000e+00 +3.2999999816607479e+00 -2.8301963967114867e-02 -5.2705696134334612e-01 +4.6387594536469578e-03
3.3499999999999961e+00 +8.2846895154402471e+00 +0.0000000000000000e+00 +3.3499999808141565e+00 -2.8303798745870596e-02 -5.2707709596336993e-01 +4.6380215560501816e-03
3.3999999999999959e+00 +8.2846801760046791e+00 +0.0000000000000000e+00 +3.3999999799418901e+00 -2.8305647940755890e-02 -5.2709749906643022e-01 +4.6373010375128070e-03
3.4499999999999957e+00 +8.2846706980825608e+00 +0.0000000000000000e+00 +3.4499999790435640e+00 -2.8307511442513148e-02 -5.2711816882838869e-01 +4.6365979247385983e-03
3.4999999999999956e+00 +8.2846610816684620e+00 +0.0000000000000000e+00 +3.4999999781187938e+00 -2.8309389141886174e-02 -5.2713910342511383e-01 +4.6359122444321350e-03
3.5499999999999954e+00 +8.2846513267568831e+00 +0.0000000000000000e+00 +3.5499999771671948e+00 -2.8311280929620212e-02 -5.2716030103247924e-01 +4.6352440232988110e-03
3.5999999999999952e+00 +8.2846414333422551e+00 +0.0000000000000000e+00 +3.5999999761883825e+00 -2.8313186696461906e-02 -5.2718175982636528e-01 +4.6345932880448443e-03
3.6499999999999950e+00 +8.2846314014189399e+00 +0.0000000000000000e+00 +3.6499999751819718e+00 -2.8315106333159437e-02 -5.2720347798265665e-01 +4.6339600653772794e-03
3.6999999999999948e+00 +8.2846212309812319e+00 +0.0000000000000000e+00 +3.6999999741475778e+00 -2.8317039730462446e-02 -5.2722545367724416e-01 +4.6333443820039911e-03
3.7499999999999947e+00 +8.2846109220233579e+00 +0.0000000000000000e+00 +3.7499999730848157e+00 -2.8318986779122136e-02 -5.2724768508602360e-01 +4.6327462646336961e-03
3.7999999999999945e+00 +8.2846004745394755e+00 +0.0000000000000000e+00 +3.7999999719933006e+00 -2.8320947369891252e-02 -5.2727017038489521e-01 +4.6321657399759474e-03
3.8499999999999943e+00 +8.2845898885236782e+00 +0.0000000000000000e+00 +3.8499999708726476e+00 -2.8322921393524152e-02 -5.2729290774976434e-01 +4.6316028347411428e-03
3.8999999999999941e+00 +8.2845791639699922e+00 +0.0000000000000000e+00 +3.8999999697224710e+00 -2.8324908740776783e-02 -5.2731589535654100e-01 +4.6310575756405344e-03
3.9499999999999940e+00 +8.2845683008723778e+00 +0.0000000000000000e+00 +3.9499999685423859e+00 -2.8326909302406746e-02 -5.2733913138113842e-01 +4.6305299893862235e-03
3.9999999999999938e+00 +8.2845572992247298e+00 +0.0000000000000000e+00 +3.9999999673320072e+00 -2.8328922969173310e-02 -5.2736261399947504e-01 +4.6300201026911745e-03
4.0499999999999936e+00 +8.2845461590208789e+00 +0.0000000000000000e+00 +4.0499999660909500e+00 -2.8330949621128088e-02 -5.2738634128411876e-01 +4.6295279368930358e-03
4.0999999999999934e+00 +8.2845348802545917e+00 +0.0000000000000000e+00 +4.0999999648188279e+00 -2.8332989095486531e-02 -5.2741031089422796e-01 +4.6290534918254685e-03
4.1499999999999932e+00 +8.2845234629195694e+00 +0.0000000000000000e+00 +4.1499999635152562e+00 -2.8335041218754929e-02 -5.2743452038560990e-01 +4.6285967619464994e-03
4.1999999999999931e+00 +8.2845119070094526e+00 +0.0000000000000000e+00 +4.1999999621798496e+00 -2.8337105817439621e-02 -5.2745896731407194e-01 +4.6281577417147017e-03
4.2499999999999929e+00 +8.2845002125178180e+00 +0.0000000000000000e+00 +4.2499999608122225e+00 -2.8339182718047078e-02 -5.2748364923542423e-01 +4.6277364255891814e-03
4.2999999999999927e+00 +8.2844883794381818e+00 +0.0000000000000000e+00 +4.2999999594119886e+00 -2.8341271747083709e-02 -5.2750856370547683e-01 +4.6273328080295682e-03
4.3499999999999925e+00 +8.2844764077639983e+00 +0.0000000000000000e+00 +4.3499999579787625e+00 -2.8343372731056020e-02 -5.2753370828004165e-01 +4.6269468834960175e-03
4.3999999999999924e+00 +8.2844642974886593e+00 +0.0000000000000000e+00 +4.3999999565121586e+00 -2.8345485496470427e-02 -5.2755908051493050e-01 +4.6265786464492059e-03
4.4499999999999922e+00 +8.2844520486055000e+00 +0.0000000000000000e+00 +4.4499999550117915e+00 -2.8347609869833371e-02 -5.2758467796595510e-01 +4.6262280913503210e-03
4.4999999999999920e+00 +8.2844396611077968e+00 +0.0000000000000000e+00 +4.4999999534772748e+00 -2.8349745677651205e-02 -5.2761049818892836e-01 +4.6258952126610586e-03
4.5499999999999918e+00 +8.2844271349887642e+00 +0.0000000000000000e+00 +4.5499999519082222e+00 -2.8351892746430195e-02 -5.2763653873966188e-01 +4.6255800048436097e-03
4.5999999999999917e+00 +8.2844144702415612e+00 +0.0000000000000000e+00 +4.5999999503042481e+00 -2.8354050902676516e-02 -5.2766279717396702e-01 +4.6252824623606720e-03
4.6499999999999915e+00 +8.2844016668592886e+00 +0.0000000000000000e+00 +4.6499999486649664e+00 -2.8356219972896203e-02 -5.2768927104765473e-01 +4.6250025796754305e-03
4.6999999999999913e+00 +8.2843887248349901e+00 +0.0000000000000000e+00 +4.6999999469899905e+00 -2.8358399783595136e-02 -5.2771595791653458e-01 +4.6247403512515500e-03
4.7499999999999911e+00 +8.2843756441616563e+00 +0.0000000000000000e+00 +4.7499999452789341e+00 -2.8360590161279040e-02 -5.2774285533641485e-01 +4.6244957715531818e-03
4.7999999999999909e+00 +8.2843624248322190e+00 +0.0000000000000000e+00 +4.7999999435314118e+00 -2.8362790932453436e-02 -5.2776996086310224e-01 +4.6242688350449541e-03
4.8499999999999908e+00 +8.2843490668395567e+00 +0.0000000000000000e+00 +4.8499999417470363e+00 -2.8365001923623599e-02 -5.2779727205240201e-01 +4.6240595361919587e-03
4.8999999999999906e+00 +8.2843355701764949e+00 +0.0000000000000000e+00 +4.8999999399254213e+00 -2.8367222961294597e-02 -5.2782478646011655e-01 +4.6238678694597562e-03
4.9499999999999904e+00 +8.2843219348358055e+00 +0.0000000000000000e+00 +4.9499999380661803e+00 -2.8369453871971206e-02 -5.2785250164204689e-01 +4.6236938293143653e-03
4.9999999999999902e+00 +8.2843081608102054e+00 +0.0000000000000000e+00 +4.9999999361689262e+00 -2.8371694482157931e-02 -5.2788041515399076e-01 +4.6235374102222560e-03
5.0499999999999901e+00 +8.2842942480923618e+00 +0.0000000000000000e+00 +5.0499999342332726e+00 -2.8373944618358942e-02 -5.2790852455174297e-01 +4.6233986066503462e-03
5.0999999999999899e+00 +8.2842801966748887e+00 +0.0000000000000000e+00 +5.0999999322588332e+00 -2.8376204107078098e-02 -5.2793682739109593e-01 +4.6232774130660027e-03
5.1499999999999897e+00 +8.2842660065503502e+00 +0.0000000000000000e+00 +5.1499999302452206e+00 -2.8378472774818888e-02 -5.2796532122783779e-01 +4.6231738239370214e-03
5.1999999999999895e+00 +8.2842516777112607e+00 +0.0000000000000000e+00 +5.1999999281920486e+00 -2.8380750448084399e-02 -5.2799400361775339e-01 +4.6230878337316372e-03
5.2499999999999893e+00 +8.2842372101500850e+00 +0.0000000000000000e+00 +5.2499999260989290e+00 -2.8383036953377364e-02 -5.2802287211662402e-01 +4.6230194369185082e-03
5.2999999999999892e+00 +8.2842226038592379e+00 +0.0000000000000000e+00 +5.2999999239654754e+00 -2.8385332117200027e-02 -5.2805192428022640e-01 +4.6229686279667106e-03
5.3499999999999890e+00 +8.2842078588310866e+00 +0.0000000000000000e+00 +5.3499999217913006e+00 -2.8387635766054235e-02 -5.2808115766433250e-01 +4.6229354013457447e-03
5.3999999999999888e+00 +8.2841929750579499e+00 +0.0000000000000000e+00 +5.3999999195760173e+00 -2.8389947726441329e-02 -5.2811056982471027e-01 +4.6229197515255159e-03
5.4499999999999886e+00 +8.2841779525321009e+00 +0.0000000000000000e+00 +5.4499999173192384e+00 -2.8392267824862157e-02 -5.2814015831712213e-01 +4.6229216729763312e-03
5.4999999999999885e+00 +8.2841627912457660e+00 +0.0000000000000000e+00 +5.4999999150205765e+00 -2.8394595887817065e-02 -5.2816992069732560e-01 +4.6229411601689026e-03
5.5499999999999883e+00 +8.2841474911911259e+00 +0.0000000000000000e+00 +5.5499999126796435e+00 -2.8396931741805832e-02 -5.2819985452107276e-01 +4.6229782075743395e-03
5.5999999999999881e+00 +8.2841320523603166e+00 +0.0000000000000000e+00 +5.5999999102960523e+00 -2.8399275213327677e-02 -5.2822995734410938e-01 +4.6230328096641344e-03
5.6499999999999879e+00 +8.2841164747454297e+00 +0.0000000000000000e+00 +5.6499999078694154e+00 -2.8401626128881256e-02 -5.2826022672217610e-01 +4.6231049609101659e-03
5.6999999999999877e+00 +8.2841007583385107e+00 +0.0000000000000000e+00 +5.6999999053993449e+00 -2.8403984314964575e-02 -5.2829066021100646e-01 +4.6231946557846867e-03
5.7499999999999876e+00 +8.2840849031315642e+00 +0.0000000000000000e+00 +5.7499999028854525e+00 -2.8406349598075045e-02 -5.2832125536632812e-01 +4.6233018887603290e-03
5.7999999999999874e+00 +8.2840689091165540e+00 +0.0000000000000000e+00 +5.7999999003273510e+00 -2.8408721804709363e-02 -5.2835200974386076e-01 +4.6234266543100887e-03
5.8499999999999872e+00 +8.2840527762853977e+00 +0.0000000000000000e+00 +5.8499998977246523e+00 -2.8411100761363588e-02 -5.2838292089931893e-01 +4.6235689469073214e-03
5.8999999999999870e+00 +8.2840365046299755e+00 +0.0000000000000000e+00 +5.8999998950769683e+00 -2.8413486294533080e-02 -5.2841398638840831e-01 +4.6237287610257456e-03
