# trajectory
# s[mm] rx[mm] ry[mm] rz[mm] px[rad] py[rad] pz[rad]
0.0000000000000000e+00 +8.5980000000000008e+00 +0.0000000000000000e+00 +0.0000000000000000e+00 +0.0000000000000000e+00 +0.0000000000000000e+00 +1.0000000000000000e+00
-5.0000000000000003e-02 +8.5979999311457771e+00 +0.0000000000000000e+00 -4.9999999999936789e-02 +2.7541695339542061e-06 +0.0000000000000000e+00 +9.9999999999620726e-01
-1.0000000000000001e-01 +8.5979997245829693e+00 +0.0000000000000000e+00 -9.9999999999494299e-02 +5.5083436915075104e-06 +0.0000000000000000e+00 +9.9999999998482902e-01
-1.5000000000000002e-01 +8.5979993803112968e+00 +0.0000000000000000e+00 -1.4999999999829328e-01 +8.2625244721547469e-06 +0.0000000000000000e+00 +9.9999999996586530e-01
-2.0000000000000001e-01 +8.5979988983303777e+00 +0.0000000000000000e+00 -1.9999999999595441e-01 +1.1016713872358920e-05 +0.0000000000000000e+00 +9.9999999993931599e-01
-2.5000000000000000e-01 +8.5979982786397322e+00 +0.0000000000000000e+00 -2.4999999999209843e-01 +1.3770913885551309e-05 +0.0000000000000000e+00 +9.9999999990518096e-01
-2.9999999999999999e-01 +8.5979975212387796e+00 +0.0000000000000000e+00 -2.9999999998634608e-01 +1.6525126502131553e-05 +0.0000000000000000e+00 +9.9999999986346011e-01
-3.4999999999999998e-01 +8.5979966261268395e+00 +0.0000000000000000e+00 -3.4999999997831799e-01 +1.9279353709467748e-05 +0.0000000000000000e+00 +9.9999999981415322e-01
-3.9999999999999997e-01 +8.5979955933031320e+00 +0.0000000000000000e+00 -3.9999999996763491e-01 +2.2033597491896539e-05 +0.0000000000000000e+00 +9.9999999975726028e-01
-4.4999999999999996e-01 +8.5979944227667797e+00 +0.0000000000000000e+00 -4.4999999995391754e-01 +2.4787859830723214e-05 +0.0000000000000000e+00 +9.9999999969278097e-01
-4.9999999999999994e-01 +8.5979931145168056e+00 +0.0000000000000000e+00 -4.9999999993678657e-01 +2.7542142704221790e-05 +0.0000000000000000e+00 +9.9999999962071517e-01
-5.4999999999999993e-01 +8.5979916685521331e+00 +0.0000000000000000e+00 -5.4999999991586257e-01 +3.0296448087635108e-05 +0.0000000000000000e+00 +9.9999999954106256e-01
-5.9999999999999998e-01 +8.5979900848715882e+00 +0.0000000000000000e+00 -5.9999999989076636e-01 +3.3050777953174919e-05 +0.0000000000000000e+00 +9.9999999945382301e-01
-6.5000000000000002e-01 +8.5979883634738972e+00 +0.0000000000000000e+00 -6.4999999986111845e-01 +3.5805134270021981e-05 +0.0000000000000000e+00 +9.9999999935899619e-01
-7.0000000000000007e-01 +8.5979865043576886e+00 +0.0000000000000000e+00 -6.9999999982653949e-01 +3.8559519004326137e-05 +0.0000000000000000e+00 +9.9999999925658178e-01
-7.5000000000000011e-01 +8.5979845075214918e+00 +0.0000000000000000e+00 -7.4999999978665011e-01 +4.1313934119206420e-05 +0.0000000000000000e+00 +9.9999999914657944e-01
-8.0000000000000016e-01 +8.5979823729637381e+00 +0.0000000000000000e+00 -7.9999999974107094e-01 +4.4068381574751118e-05 +0.0000000000000000e+00 +9.9999999902898884e-01
-8.5000000000000020e-01 +8.5979801006827632e+00 +0.0000000000000000e+00 -8.4999999968942253e-01 +4.6822863328017887e-05 +0.0000000000000000e+00 +9.9999999890380975e-01
-9.0000000000000024e-01 +8.5979776906768013e+00 +0.0000000000000000e+00 -8.9999999963132538e-01 +4.9577381333033818e-05 +0.0000000000000000e+00 +9.9999999877104162e-01
-9.5000000000000029e-01 +8.5979751429439926e+00 +0.0000000000000000e+00 -9.4999999956640013e-01 +5.2331937540795525e-05 +0.0000000000000000e+00 +9.9999999863068412e-01
-1.0000000000000002e+00 +8.5979724574823777e+00 +0.0000000000000000e+00 -9.9999999949426732e-01 +5.5086533899269251e-05 +0.0000000000000000e+00 +9.9999999848273691e-01
-1.0500000000000003e+00 +8.5979696342899015e+00 +0.0000000000000000e+00 -1.0499999994145472e+00 +5.7841172353390922e-05 +0.0000000000000000e+00 +9.9999999832719944e-01
-1.1000000000000003e+00 +8.5979666733644091e+00 +0.0000000000000000e+00 -1.0999999993268605e+00 +6.0595854845066253e-05 +0.0000000000000000e+00 +9.9999999816407126e-01
-1.1500000000000004e+00 +8.5979635747036500e+00 +0.0000000000000000e+00 -1.1499999992308279e+00 +6.3350583313170832e-05 +0.0000000000000000e+00 +9.9999999799335182e-01
-1.2000000000000004e+00 +8.5979603383052794e+00 +0.0000000000000000e+00 -1.1999999991260693e+00 +6.6105359693550191e-05 +0.0000000000000000e+00 +9.9999999781504079e-01
-1.2500000000000004e+00 +8.5979569641668512e+00 +0.0000000000000000e+00 -1.2499999990122053e+00 +6.8860185919019900e-05 +0.0000000000000000e+00 +9.9999999762913749e-01
-1.3000000000000005e+00 +8.5979534522858252e+00 +0.0000000000000000e+00 -1.2999999988888564e+00 +7.1615063919365634e-05 +0.0000000000000000e+00 +9.9999999743564139e-01
-1.3500000000000005e+00 +8.5979498026595653e+00 +0.0000000000000000e+00 -1.3499999987556428e+00 +7.4369995621343269e-05 +0.0000000000000000e+00 +9.9999999723455191e-01
-1.4000000000000006e+00 +8.5979460152853360e+00 +0.0000000000000000e+00 -1.3999999986121849e+00 +7.7124982948678969e-05 +0.0000000000000000e+00 +9.9999999702586850e-01
-1.4500000000000006e+00 +8.5979420901603110e+00 +0.0000000000000000e+00 -1.4499999984581031e+00 +7.9880027822069261e-05 +0.0000000000000000e+00 +9.9999999680959062e-01
-1.5000000000000007e+00 +8.5979380272815629e+00 +0.0000000000000000e+00 -1.4999999982930174e+00 +8.2635132159181098e-05 +0.0000000000000000e+00 +9.9999999658571748e-01
-1.5500000000000007e+00 +8.5979338266460719e+00 +0.0000000000000000e+00 -1.5499999981165482e+00 +8.5390297874651940e-05 +0.0000000000000000e+00 +9.9999999635424852e-01
-1.6000000000000008e+00 +8.5979294882507205e+00 +0.0000000000000000e+00 -1.5999999979283157e+00 +8.8145526880089868e-05 +0.0000000000000000e+00 +9.9999999611518309e-01
-1.6500000000000008e+00 +8.5979250120922970e+00 +0.0000000000000000e+00 -1.6499999977279400e+00 +9.0900821084073630e-05 +0.0000000000000000e+00 +9.9999999586852040e-01
-1.7000000000000008e+00 +8.5979203981674939e+00 +0.0000000000000000e+00 -1.6999999975150413e+00 +9.3656182392152731e-05 +0.0000000000000000e+00 +9.9999999561425978e-01
-1.7500000000000009e+00 +8.5979156464729076e+00 +0.0000000000000000e+00 -1.7499999972892395e+00 +9.6411612706847493e-05 +0.0000000000000000e+00 +9.9999999535240047e-01
-1.8000000000000009e+00 +8.5979107570050406e+00 +0.0000000000000000e+00 -1.7999999970501548e+00 +9.9167113927649156e-05 +0.0000000000000000e+00 +9.9999999508294179e-01
-1.8500000000000010e+00 +8.5979057297603010e+00 +0.0000000000000000e+00 -1.8499999967974070e+00 +1.0192268795101994e-04 +0.0000000000000000e+00 +9.9999999480588286e-01
-1.9000000000000010e+00 +8.5979005647350011e+00 +0.0000000000000000e+00 -1.8999999965306162e+00 +1.0467833667039313e-04 +0.0000000000000000e+00 +9.9999999452122290e-01
-1.9500000000000011e+00 +8.5978952619253572e+00 +0.0000000000000000e+00 -1.9499999962494026e+00 +1.0743406197617314e-04 +0.0000000000000000e+00 +9.9999999422896113e-01
-2.0000000000000009e+00 +8.5978898213274952e+00 +0.0000000000000000e+00 -1.9999999959533856e+00 +1.1018986575573557e-04 +0.0000000000000000e+00 +9.9999999392909666e-01
-2.0500000000000007e+00 +8.5978842429374431e+00 +0.0000000000000000e+00 -2.0499999956421853e+00 +1.1294574989303010e-04 +0.0000000000000000e+00 +9.9999999362162872e-01
-2.1000000000000005e+00 +8.5978785267511366e+00 +0.0000000000000000e+00 -2.0999999953154216e+00 +1.1570171626421101e-04 +0.0000000000000000e+00 +9.9999999330655631e-01
-2.1500000000000004e+00 +8.5978726727644155e+00 +0.0000000000000000e+00 -2.1499999949727142e+00 +1.1845776673326773e-04 +0.0000000000000000e+00 +9.9999999298387865e-01
-2.2000000000000002e+00 +8.5978666809730306e+00 +0.0000000000000000e+00 -2.1999999946136826e+00 +1.2121390315162770e-04 +0.0000000000000000e+00 +9.9999999265359474e-01
-2.2500000000000000e+00 +8.5978605513726372e+00 +0.0000000000000000e+00 -2.2499999942379469e+00 +1.2397012735815635e-04 +0.0000000000000000e+00 +9.9999999231570369e-01
-2.2999999999999998e+00 +8.5978542839588012e+00 +0.0000000000000000e+00 -2.2999999938451263e+00 +1.2672644117915730e-04 +0.0000000000000000e+00 +9.9999999197020450e-01
-2.3499999999999996e+00 +8.5978478787269950e+00 +0.0000000000000000e+00 -2.3499999934348406e+00 +1.2948284642837229e-04 +0.0000000000000000e+00 +9.9999999161709618e-01
-2.3999999999999995e+00 +8.5978413356726033e+00 +0.0000000000000000e+00 -2.3999999930067091e+00 +1.3223934490698132e-04 +0.0000000000000000e+00 +9.9999999125637773e-01
-2.4499999999999993e+00 +8.5978346547909208e+00 +0.0000000000000000e+00 -2.4499999925603513e+00 +1.3499593840360266e-04 +0.0000000000000000e+00 +9.9999999088804825e-01
-2.4999999999999991e+00 +8.5978278360771512e+00 +0.0000000000000000e+00 -2.4999999920953870e+00 +1.3775262869429291e-04 +0.0000000000000000e+00 +9.9999999051210653e-01
-2.5499999999999989e+00 +8.5978208795264095e+00 +0.0000000000000000e+00 -2.5499999916114353e+00 +1.4050941754254712e-04 +0.0000000000000000e+00 +9.9999999012855167e-01
-2.5999999999999988e+00 +8.5978137851337255e+00 +0.0000000000000000e+00 -2.5999999911081155e+00 +1.4326630669929876e-04 +0.0000000000000000e+00 +9.9999998973738258e-01
-2.6499999999999986e+00 +8.5978065528940384e+00 +0.0000000000000000e+00 -2.6499999905850466e+00 +1.4602329790291982e-04 +0.0000000000000000e+00 +9.9999998933859813e-01
-2.6999999999999984e+00 +8.5977991828022056e+00 +0.0000000000000000e+00 -2.6999999900418481e+00 +1.4878039287922085e-04 +0.0000000000000000e+00 +9.9999998893219721e-01
-2.7499999999999982e+00 +8.5977916748529939e+00 +0.0000000000000000e+00 -2.7499999894781393e+00 +1.5153759334145104e-04 +0.0000000000000000e+00 +9.9999998851817873e-01
-2.7999999999999980e+00 +8.5977840290410850e+00 +0.0000000000000000e+00 -2.7999999888935392e+00 +1.5429490099029821e-04 +0.0000000000000000e+00 +9.9999998809654156e-01
-2.8499999999999979e+00 +8.5977762453610787e+00 +0.0000000000000000e+00 -2.8499999882876668e+00 +1.5705231751388893e-04 +0.0000000000000000e+00 +9.9999998766728460e-01
-2.8999999999999977e+00 +8.5977683238074896e+00 +0.0000000000000000e+00 -2.8999999876601410e+00 +1.5980984458778850e-04 +0.0000000000000000e+00 +9.9999998723040662e-01
-2.9499999999999975e+00 +8.5977602643747488e+00 +0.0000000000000000e+00 -2.9499999870105804e+00 +1.6256748387500104e-04 +0.0000000000000000e+00 +9.9999998678590640e-01
-2.9999999999999973e+00 +8.5977520670572041e+00 +0.0000000000000000e+00 -2.9999999863386044e+00 +1.6532523702596954e-04 +0.0000000000000000e+00 +9.9999998633378284e-01
-3.0499999999999972e+00 +8.5977437318491212e+00 +0.0000000000000000e+00 -3.0499999856438316e+00 +1.6808310567857589e-04 +0.0000000000000000e+00 +9.9999998587403460e-01
-3.0999999999999970e+00 +8.5977352587446845e+00 +0.0000000000000000e+00 -3.0999999849258808e+00 +1.7084109145814089e-04 +0.0000000000000000e+00 +9.9999998540666057e-01
-3.1499999999999968e+00 +8.5977266477379963e+00 +0.0000000000000000e+00 -3.1499999841843707e+00 +1.7359919597742440e-04 +0.0000000000000000e+00 +9.9999998493165942e-01
-3.1999999999999966e+00 +8.5977178988230811e+00 +0.0000000000000000e+00 -3.1999999834189197e+00 +1.7635742083662524e-04 +0.0000000000000000e+00 +9.9999998444902993e-01
-3.2499999999999964e+00 +8.5977090119938815e+00 +0.0000000000000000e+00 -3.2499999826291464e+00 +1.7911576762338132e-04 +0.0000000000000000e+00 +9.9999998395877077e-01
-3.2999999999999963e+00 +8.5976999872442601e+00 +0.0000000000000000e+00 -3.2999999818146692e+00 +1.8187423791276970e-04 +0.0000000000000000e+00 +9.9999998346088070e-01
-3.3499999999999961e+00 +8.5976908245680050e+00 +0.0000000000000000e+00 -3.3499999809751069e+00 +1.8463283326730656e-04 +0.0000000000000000e+00 +9.9999998295535830e-01
-3.3999999999999959e+00 +8.5976815239588227e+00 +0.0000000000000000e+00 -3.3999999801100778e+00 +1.8739155523694726e-04 +0.0000000000000000e+00 +9.9999998244220234e-01
-3.4499999999999957e+00 +8.5976720854103448e+00 +0.0000000000000000e+00 -3.4499999792192000e+00 +1.9015040535908640e-04 +0.0000000000000000e+00 +9.9999998192141148e-01
-3.4999999999999956e+00 +8.5976625089161249e+00 +0.0000000000000000e+00 -3.4999999783020916e+00 +1.9290938515855783e-04 +0.0000000000000000e+00 +9.9999998139298441e-01
-3.5499999999999954e+00 +8.5976527944696421e+00 +0.0000000000000000e+00 -3.5499999773583713e+00 +1.9566849614763469e-04 +0.0000000000000000e+00 +9.9999998085691966e-01
-3.5999999999999952e+00 +8.5976429420642990e+00 +0.0000000000000000e+00 -3.5999999763876565e+00 +1.9842773982602948e-04 +0.0000000000000000e+00 +9.9999998031321591e-01
-3.6499999999999950e+00 +8.5976329516934236e+00 +0.0000000000000000e+00 -3.6499999753895653e+00 +2.0118711768089400e-04 +0.0000000000000000e+00 +9.9999997976187172e-01
-3.6999999999999948e+00 +8.5976228233502709e+00 +0.0000000000000000e+00 -3.6999999743637160e+00 +2.0394663118681949e-04 +0.0000000000000000e+00 +9.9999997920288564e-01
-3.7499999999999947e+00 +8.5976125570280200e+00 +0.0000000000000000e+00 -3.7499999733097265e+00 +2.0670628180583661e-04 +0.0000000000000000e+00 +9.9999997863625634e-01
-3.7999999999999945e+00 +8.5976021527197801e+00 +0.0000000000000000e+00 -3.7999999722272144e+00 +2.0946607098741547e-04 +0.0000000000000000e+00 +9.9999997806198238e-01
-3.8499999999999943e+00 +8.5975916104185881e+00 +0.0000000000000000e+00 -3.8499999711157975e+00 +2.1222600016846562e-04 +0.0000000000000000e+00 +9.9999997748006220e-01
-3.8999999999999941e+00 +8.5975809301174060e+00 +0.0000000000000000e+00 -3.8999999699750934e+00 +2.1498607077333616e-04 +0.0000000000000000e+00 +9.9999997689049447e-01
-3.9499999999999940e+00 +8.5975701118091301e+00 +0.0000000000000000e+00 -3.9499999688047196e+00 +2.1774628421381568e-04 +0.0000000000000000e+00 +9.9999997629327764e-01
-3.9999999999999938e+00 +8.5975591554865822e+00 +0.0000000000000000e+00 -3.9999999676042939e+00 +2.2050664188913235e-04 +0.0000000000000000e+00 +9.9999997568841026e-01
-4.0499999999999936e+00 +8.5975480611425148e+00 +0.0000000000000000e+00 -4.0499999663734334e+00 +2.2326714518593066e-04 +0.0000000000000000e+00 +9.9999997507589078e-01
-4.0999999999999934e+00 +8.5975368287696128e+00 +0.0000000000000000e+00 -4.0999999651117554e+00 +2.2602779547801561e-04 +0.0000000000000000e+00 +9.9999997445571764e-01
-4.1499999999999932e+00 +8.5975254583604936e+00 +0.0000000000000000e+00 -4.1499999638188774e+00 +2.2878859412609677e-04 +0.0000000000000000e+00 +9.9999997382788941e-01
-4.1999999999999931e+00 +8.5975139499077056e+00 +0.0000000000000000e+00 -4.1999999624944166e+00 +2.3154954247776516e-04 +0.0000000000000000e+00 +9.9999997319240452e-01
-4.2499999999999929e+00 +8.5975023034037292e+00 +0.0000000000000000e+00 -4.2499999611379904e+00 +2.3431064186749318e-04 +0.0000000000000000e+00 +9.9999997254926132e-01
-4.2999999999999927e+00 +8.5974905188409796e+00 +0.0000000000000000e+00 -4.2999999597492149e+00 +2.3707189361663470e-04 +0.0000000000000000e+00 +9.9999997189845835e-01
-4.3499999999999925e+00 +8.5974785962118059e+00 +0.0000000000000000e+00 -4.3499999583277082e+00 +2.3983329903342495e-04 +0.0000000000000000e+00 +9.9999997123999407e-01
-4.3999999999999924e+00 +8.5974665355084934e+00 +0.0000000000000000e+00 -4.3999999568730868e+00 +2.4259485941298067e-04 +0.0000000000000000e+00 +9.9999997057386680e-01
-4.4499999999999922e+00 +8.5974543367232616e+00 +0.0000000000000000e+00 -4.4499999553849676e+00 +2.4535657603730001e-04 +0.0000000000000000e+00 +9.9999996990007500e-01
-4.4999999999999920e+00 +8.5974419998482645e+00 +0.0000000000000000e+00 -4.4999999538629671e+00 +2.4811845017526260e-04 +0.0000000000000000e+00 +9.9999996921861700e-01
-4.5499999999999918e+00 +8.5974295248755972e+00 +0.0000000000000000e+00 -4.5499999523067016e+00 +2.5088048308262955e-04 +0.0000000000000000e+00 +9.9999996852949125e-01
-4.5999999999999917e+00 +8.5974169117972892e+00 +0.0000000000000000e+00 -4.5999999507157883e+00 +2.5364267600204335e-04 +0.0000000000000000e+00 +9.9999996783269607e-01
-4.6499999999999915e+00 +8.5974041606053095e+00 +0.0000000000000000e+00 -4.6499999490898434e+00 +2.5640503016302808e-04 +0.0000000000000000e+00 +9.9999996712822981e-01
-4.6999999999999913e+00 +8.5973912712915652e+00 +0.0000000000000000e+00 -4.6999999474284833e+00 +2.5916754678198924e-04 +0.0000000000000000e+00 +9.9999996641609090e-01
-4.7499999999999911e+00 +8.5973782438479027e+00 +0.0000000000000000e+00 -4.7499999457313242e+00 +2.6193022706221377e-04 +0.0000000000000000e+00 +9.9999996569627758e-01
-4.7999999999999909e+00 +8.5973650782661100e+00 +0.0000000000000000e+00 -4.7999999439979826e+00 +2.6469307219387017e-04 +0.0000000000000000e+00 +9.9999996496878829e-01
-4.8499999999999908e+00 +8.5973517745379162e+00 +0.0000000000000000e+00 -4.8499999422280746e+00 +2.6745608335400833e-04 +0.0000000000000000e+00 +9.9999996423362125e-01
-4.8999999999999906e+00 +8.5973383326549886e+00 +0.0000000000000000e+00 -4.8999999404212167e+00 +2.7021926170655962e-04 +0.0000000000000000e+00 +9.9999996349077480e-01
-4.9499999999999904e+00 +8.5973247526089391e+00 +0.0000000000000000e+00 -4.9499999385770241e+00 +2.7298260840233698e-04 +0.0000000000000000e+00 +9.9999996274024727e-01
-4.9999999999999902e+00 +8.5973110343913230e+00 +0.0000000000000000e+00 -4.9999999366951133e+00 +2.7574612457903470e-04 +0.0000000000000000e+00 +9.9999996198203689e-01
-5.0499999999999901e+00 +8.5972971779936369e+00 +0.0000000000000000e+00 -5.0499999347750997e+00 +2.7850981136122856e-04 +0.0000000000000000e+00 +9.9999996121614199e-01
-5.0999999999999899e+00 +8.5972831834073240e+00 +0.0000000000000000e+00 -5.0999999328165995e+00 +2.8127366986037579e-04 +0.0000000000000000e+00 +9.9999996044256079e-01
-5.1499999999999897e+00 +8.5972690506237708e+00 +0.0000000000000000e+00 -5.1499999308192281e+00 +2.8403770117481505e-04 +0.0000000000000000e+00 +9.9999995966129163e-01
-5.1999999999999895e+00 +8.5972547796343086e+00 +0.0000000000000000e+00 -5.1999999287826011e+00 +2.8680190638976646e-04 +0.0000000000000000e+00 +9.9999995887233273e-01
-5.2499999999999893e+00 +8.5972403704302156e+00 +0.0000000000000000e+00 -5.2499999267063338e+00 +2.8956628657733153e-04 +0.0000000000000000e+00 +9.9999995807568232e-01
-5.2999999999999892e+00 +8.5972258230027165e+00 +0.0000000000000000e+00 -5.2999999245900415e+00 +2.9233084279649317e-04 +0.0000000000000000e+00 +9.9999995727133861e-01
-5.3499999999999890e+00 +8.5972111373429847e+00 +0.0000000000000000e+00 -5.3499999224333399e+00 +2.9509557609311570e-04 +0.0000000000000000e+00 +9.9999995645929984e-01
-5.3999999999999888e+00 +8.5971963134421383e+00 +0.0000000000000000e+00 -5.3999999202358433e+00 +2.9786048749994476e-04 +0.0000000000000000e+00 +9.9999995563956434e-01
-5.4499999999999886e+00 +8.5971813512912476e+00 +0.0000000000000000e+00 -5.4499999179971681e+00 +3.0062557803660746e-04 +0.0000000000000000e+00 +9.9999995481213022e-01
-5.4999999999999885e+00 +8.5971662508813314e+00 +0.0000000000000000e+00 -5.4999999157169279e+00 +3.0339084870961214e-04 +0.0000000000000000e+00 +9.9999995397699570e-01
-5.5499999999999883e+00 +8.5971510122033568e+00 +0.0000000000000000e+00 -5.5499999133947391e+00 +3.0615630051234854e-04 +0.0000000000000000e+00 +9.9999995313415901e-01
-5.5999999999999881e+00 +8.5971356352482449e+00 +0.0000000000000000e+00 -5.5999999110302152e+00 +3.0892193442508763e-04 +0.0000000000000000e+00 +9.9999995228361838e-01
-5.6499999999999879e+00 +8.5971201200068634e+00 +0.0000000000000000e+00 -5.6499999086229717e+00 +3.1168775141498172e-04 +0.0000000000000000e+00 +9.9999995142537190e-01
-5.6999999999999877e+00 +8.5971044664700358e+00 +0.0000000000000000e+00 -5.6999999061726232e+00 +3.1445375243606438e-04 +0.0000000000000000e+00 +9.9999995055941782e-01
-5.7499999999999876e+00 +8.5970886746285373e+00 +0.0000000000000000e+00 -5.7499999036787850e+00 +3.1721993842925036e-04 +0.0000000000000000e+00 +9.9999994968575434e-01
-5.7999999999999874e+00 +8.5970727444730954e+00 +0.0000000000000000e+00 -5.7999999011410708e+00 +3.1998631032233567e-04 +0.0000000000000000e+00 +9.9999994880437959e-01
-5.8499999999999872e+00 +8.5970566759943914e+00 +0.0000000000000000e+00 -5.8499998985590951e+00 +3.2275286902999742e-04 +0.0000000000000000e+00 +9.9999994791529168e-01
