# multipoles
# s[mm] polynom_b[n=0][T/m^n] polynom_b[n=1][T/m^n] polynom_b[n=2][T/m^n] polynom_b[n=3][T/m^n] polynom_b[n=4][T/m^n] polynom_b[n=5][T/m^n] polynom_b[n=6][T/m^n] 
-0.0000000000000000e+00 -5.2393450516788376e-01 +6.8907902913270238e+00 +3.8460105715518855e+00 +1.6767489470385042e+00 +2.8323142640327536e+04 -4.8054075163255888e+05 -1.7353664654630986e+08 
-5.0000000000000003e-02 -5.2393507165682507e-01 +6.8907962508263898e+00 +3.8443514328133999e+00 +1.9431782668636017e+00 +2.8375484219754446e+04 -4.8291516644835460e+05 -1.7388354985312814e+08 
-1.0000000000000001e-01 -5.2393601930248002e-01 +6.8908218072912737e+00 +3.8426106012029444e+00 +2.2093846733501583e+00 +2.8418873896721685e+04 -4.8516835790051776e+05 -1.7417425294855553e+08 
-1.4999999999999999e-01 -5.2393734714088791e-01 +6.8908669363823014e+00 +3.8407757553094424e+00 +2.4750899456776501e+00 +2.8453656455804627e+04 -4.8730145647548494e+05 -1.7441093082350942e+08 
-2.0000000000000001e-01 -5.2393905420804687e-01 +6.8909316137582319e+00 +3.8388345792285916e+00 +2.7400159781631297e+00 +2.8480176528291700e+04 -4.8931559360871546e+05 -1.7459575741996771e+08 
-2.5000000000000000e-01 -5.2394113954005384e-01 +6.8910158150831968e+00 +3.8367747537579624e+00 +3.0038844781903524e+00 +2.8498778835320572e+04 -4.9121189923158381e+05 -1.7473090729363281e+08 
-2.9999999999999999e-01 -5.2394360217296843e-01 +6.8911195160185272e+00 +3.8345839629209166e+00 +3.2664172966199310e+00 +2.8509808012896141e+04 -4.9299150443277246e+05 -1.7481855443475467e+08 
-3.4999999999999998e-01 -5.2394644114286437e-01 +6.8912426922238836e+00 +3.8322498864048291e+00 +3.5273363933011610e+00 +2.8513608811073402e+04 -4.9465554123681097e+05 -1.7486087359948045e+08 
-4.0000000000000002e-01 -5.2394965548585815e-01 +6.8913853193651819e+00 +3.8297602084581115e+00 +3.7863634908286370e+00 +2.8510525853537445e+04 -4.9620513967465202e+05 -1.7486003867765623e+08 
-4.5000000000000001e-01 -5.2395324423808809e-01 +6.8915473731031902e+00 +3.8271026090715661e+00 +4.0432205632033007e+00 +2.8500903885178901e+04 -4.9764143188241881e+05 -1.7481822440461347e+08 
-5.0000000000000000e-01 -5.2395720643568167e-01 +6.8917288291030649e+00 +3.8242647732782178e+00 +4.2976294379476760e+00 +2.8485087505838183e+04 -4.9896554880212084e+05 -1.7473760450738549e+08 
-5.5000000000000004e-01 -5.2396154111476478e-01 +6.8919296630282849e+00 +3.8212343820543282e+00 +4.5493120295728335e+00 +2.8463421431423019e+04 -5.0017862203785870e+05 -1.7462035352385148e+08 
-5.9999999999999998e-01 -5.2396624731156116e-01 +6.8921498505443388e+00 +3.8179991179116861e+00 +4.7979902140308930e+00 +2.8436250331507854e+04 -5.0128178295162070e+05 -1.7446864566233113e+08 
-6.5000000000000002e-01 -5.2397132406223057e-01 +6.8923893673152099e+00 +3.8145466623394273e+00 +5.0433859522462710e+00 +2.8403918905018872e+04 -5.0227616354929726e+05 -1.7428465534014910e+08 
-6.9999999999999996e-01 -5.2397677040301693e-01 +6.8926481890087707e+00 +3.8108646997232136e+00 +5.2852210757860858e+00 +2.8366771769935018e+04 -5.0316289480430988e+05 -1.7407055641582409e+08 
-7.5000000000000000e-01 -5.2398258537008424e-01 +6.8929262912892852e+00 +3.8069409106182168e+00 +5.5232175960625094e+00 +2.8325153653437224e+04 -5.0394310914333089e+05 -1.7382852351546463e+08 
-8.0000000000000004e-01 -5.2398876799973515e-01 +6.8932236498269139e+00 +3.8027629799383234e+00 +5.7570973123008278e+00 +2.8279409156000631e+04 -5.0461793728269922e+05 -1.7356073037059367e+08 
-8.4999999999999998e-01 -5.2399531732819238e-01 +6.8935402402881412e+00 +3.7983185883456385e+00 +5.9865822015652670e+00 +2.8229883000053742e+04 -5.0518851136967761e+05 -1.7326935157132798e+08 
-9.0000000000000002e-01 -5.2400223239173671e-01 +6.8938760383409310e+00 +3.7935954196921182e+00 +6.2113942095994359e+00 +2.8176919818875944e+04 -5.0565596329816052e+05 -1.7295656109309629e+08 
-9.4999999999999996e-01 -5.2400951222668624e-01 +6.8942310196560710e+00 +3.7885811570737782e+00 +6.4312551892541707e+00 +2.8120864266093409e+04 -5.0602142418578174e+05 -1.7262453305047250e+08 
-1.0000000000000000e+00 -5.2401715586928610e-01 +6.8946051599028682e+00 +3.7832634811117405e+00 +6.6458870983300518e+00 +2.8062061062146171e+04 -5.0628602605212340e+05 -1.7227544201141876e+08 
-1.0500000000000000e+00 -5.2402516235589780e-01 +6.8949984347525159e+00 +3.7776300765012611e+00 +6.8550118260906645e+00 +2.8000854820459583e+04 -5.0645090029255429e+05 -1.7191146183246094e+08 
-1.1000000000000001e+00 -5.2403353072288017e-01 +6.8954108198769131e+00 +3.7716686252542004e+00 +7.0583512688045786e+00 +2.7937590221779359e+04 -5.0651717838720814e+05 -1.7153476680823335e+08 
-1.1499999999999999e+00 -5.2404226000657217e-01 +6.8958422909482255e+00 +3.7653668111071354e+00 +7.2556273409312038e+00 +2.7872611905222835e+04 -5.0648599196171307e+05 -1.7114753096945262e+08 
-1.2000000000000000e+00 -5.2405134924334162e-01 +6.8962928236408150e+00 +3.7587123162230522e+00 +7.4465618893067482e+00 +2.7806264551118340e+04 -5.0635847206506273e+05 -1.7075192862490687e+08 
-1.2500000000000000e+00 -5.2406079746957190e-01 +6.8967623936267168e+00 +3.7516928223269801e+00 +7.6308768850112392e+00 +2.7738892850333934e+04 -5.0613575076346542e+05 -1.7035013414656955e+08 
-1.3000000000000000e+00 -5.2407060372171110e-01 +6.8972509765845018e+00 +3.7442960153566038e+00 +7.8082940596934298e+00 +2.7670841383672174e+04 -5.0581895817759010e+05 -1.6994432118044847e+08 
-1.3500000000000001e+00 -5.2408076703611994e-01 +6.8977585481866681e+00 +3.7365095764158247e+00 +7.9785354128169406e+00 +2.7602454859708894e+04 -5.0540922656372067e+05 -1.6953666422392899e+08 
-1.3999999999999999e+00 -5.2409128644928460e-01 +6.8982850841113983e+00 +3.7283211878105251e+00 +8.1413227417415506e+00 +2.7534077959381488e+04 -5.0490768655792304e+05 -1.6912933760756266e+08 
-1.4500000000000000e+00 -5.2410216099764662e-01 +6.8988305600393343e+00 +3.7197185349087865e+00 +8.2963777691465186e+00 +2.7466055277646923e+04 -5.0431546815638535e+05 -1.6872451506793043e+08 
-1.5000000000000000e+00 -5.2411338971766108e-01 +6.8993949516435311e+00 +3.7106892978305499e+00 +8.4434225510442413e+00 +2.7398731553266785e+04 -5.0363370408577612e+05 -1.6832437131970978e+08 
-1.5500000000000000e+00 -5.2412497164582050e-01 +6.8999782346096064e+00 +3.7012211611270014e+00 +8.5821786516127219e+00 +2.7332451403413659e+04 -5.0286352300840925e+05 -1.6793108025261226e+08 
-1.6000000000000001e+00 -5.2413690581866601e-01 +6.9005803846152043e+00 +3.6913018097149131e+00 +8.7123679915284065e+00 +2.7267559443655169e+04 -5.0200605653494218e+05 -1.6754681577287439e+08 
-1.6499999999999999e+00 -5.2414919127264226e-01 +6.9012013773429910e+00 +3.6809189227674284e+00 +8.8337123067361887e+00 +2.7204400438353881e+04 -5.0106243471398565e+05 -1.6717375276949254e+08 
-1.7000000000000000e+00 -5.2416182704435199e-01 +6.9018411884758430e+00 +3.6700601864658489e+00 +8.9459333432892194e+00 +2.7143318966330771e+04 -5.0003378767349798e+05 -1.6681406488994983e+08 
-1.7500000000000000e+00 -5.2417481217034068e-01 +6.9024997936975225e+00 +3.6587132834932818e+00 +9.0487528431870423e+00 +2.7084659698447762e+04 -4.9892124551417306e+05 -1.6646992639538991e+08 
-1.8000000000000000e+00 -5.2418814568711480e-01 +6.9031771686947101e+00 +3.6468658946142796e+00 +9.1418924485163053e+00 +2.7028767368268502e+04 -4.9772593748146441e+05 -1.6614351201040488e+08 
-1.8500000000000001e+00 -5.2420182663129522e-01 +6.9038732891520418e+00 +3.6345057059768084e+00 +9.2250739044242920e+00 +2.6975986553115006e+04 -4.9644899365243904e+05 -1.6583699536139098e+08 
-1.8999999999999999e+00 -5.2421585403950088e-01 +6.9045881307569585e+00 +3.6216203998401575e+00 +9.2980188671816819e+00 +2.6926661943839554e+04 -4.9509154337090184e+05 -1.6555255087278649e+08 
-1.9500000000000000e+00 -5.2423022694829158e-01 +6.9053216692002710e+00 +3.6081976587512865e+00 +9.3604488789872171e+00 +2.6881138223892980e+04 -4.9365471501714003e+05 -1.6529235292022166e+08 
-2.0000000000000000e+00 -5.2424481803680156e-01 +6.9060674036479535e+00 +3.5943494594438881e+00 +9.4118180040021890e+00 +2.6840014212723301e+04 -4.9215327845889347e+05 -1.6505994358814964e+08 
-2.0499999999999998e+00 -5.2425974577467016e-01 +6.9068313320432404e+00 +3.5799703159203400e+00 +9.4530659797771452e+00 +2.6802827596200441e+04 -4.9057899747329723e+05 -1.6485262449409449e+08 
-2.1000000000000001e+00 -5.2427500808756622e-01 +6.9076132879353231e+00 +3.5650700948926541e+00 +9.4846875983672518e+00 +2.6769437645959690e+04 -4.8893602377807035e+05 -1.6466949826065642e+08 
-2.1499999999999999e+00 -5.2429060290115936e-01 +6.9084131048761952e+00 +3.5496586663218439e+00 +9.5071775548144473e+00 +2.6739703540078193e+04 -4.8722850831471925e+05 -1.6450966685345623e+08 
-2.2000000000000002e+00 -5.2430652814114354e-01 +6.9092306164187391e+00 +3.5337458970413453e+00 +9.5210305309716219e+00 +2.6713484546440199e+04 -4.8546060194087360e+05 -1.6437223286139008e+08 
-2.2500000000000000e+00 -5.2432278173325708e-01 +6.9100656561135398e+00 +3.5173416562211535e+00 +9.5267413017514802e+00 +2.6690639864917292e+04 -4.8363645622171980e+05 -1.6425629839720020e+08 
-2.2999999999999998e+00 -5.2433936160320094e-01 +6.9109180575128910e+00 +3.5004558127624925e+00 +9.5248046085744864e+00 +2.6671028707495901e+04 -4.8176022251462081e+05 -1.6416096567265859e+08 
-2.3500000000000001e+00 -5.2435626567675975e-01 +6.9117876541705536e+00 +3.4830982348784900e+00 +9.5157151353744531e+00 +2.6654510305150729e+04 -4.7983605166890944e+05 -1.6408533702590591e+08 
-2.3999999999999999e+00 -5.2437349187959525e-01 +6.9126742796391039e+00 +3.4652787904894664e+00 +9.4999676427692563e+00 +2.6640943889875613e+04 -4.7786809519694687e+05 -1.6402851477906057e+08 
-2.4500000000000002e+00 -5.2439103813751642e-01 +6.9135777674719128e+00 +3.4470073483381123e+00 +9.4780568621610044e+00 +2.6630188679193783e+04 -4.7586050433949393e+05 -1.6398960118022284e+08 
-2.5000000000000000e+00 -5.2440890237625848e-01 +6.9144979512217697e+00 +3.4282937765272301e+00 +9.4504775763281454e+00 +2.6622103902247130e+04 -4.7381743081644172e+05 -1.6396769853831550e+08 
-2.5499999999999998e+00 -5.2442708252160042e-01 +6.9154346644442857e+00 +3.4091479440970343e+00 +9.4177244490376140e+00 +2.6616548767905104e+04 -4.7174302529688407e+05 -1.6396190903884482e+08 
-2.6000000000000001e+00 -5.2444557649936596e-01 +6.9163877406921541e+00 +3.3895797179890441e+00 +9.3802922943427784e+00 +2.6613382534943976e+04 -4.6964143977312383e+05 -1.6397133517977208e+08 
-2.6499999999999999e+00 -5.2446438223529412e-01 +6.9173570135195304e+00 +3.3695989657500256e+00 +9.3386758738806961e+00 +2.6612464451983815e+04 -4.6751682576206385e+05 -1.6399507941195515e+08 
-2.7000000000000002e+00 -5.2448349765519731e-01 +6.9183423164826854e+00 +3.3492155577243623e+00 +9.2933698765034833e+00 +2.6613653687685168e+04 -4.6537333420858439e+05 -1.6403224362718078e+08 
-2.7500000000000000e+00 -5.2450292068489845e-01 +6.9193434831323621e+00 +3.3284393599199520e+00 +9.2448692254174798e+00 +2.6616809530388011e+04 -4.6321511797295290e+05 -1.6408193053482229e+08 
-2.7999999999999998e+00 -5.2452264925019043e-01 +6.9203603470270476e+00 +3.3072802404544444e+00 +9.1936685518207852e+00 +2.6621791210225627e+04 -4.6104632756072079e+05 -1.6414324244602156e+08 
-2.8500000000000001e+00 -5.2454268127693371e-01 +6.9213927417192451e+00 +3.2857480691167917e+00 +9.1402627263971468e+00 +2.6628457911049478e+04 -4.5887111540062982e+05 -1.6421528135130781e+08 
-2.8999999999999999e+00 -5.2456301469095290e-01 +6.9224405007650729e+00 +3.2638527120917025e+00 +9.0851464964832669e+00 +2.6636668914851689e+04 -4.5669363295924506e+05 -1.6429714990503576e+08 
-2.9500000000000002e+00 -5.2458364741803065e-01 +6.9235034577184358e+00 +3.2416040358026312e+00 +9.0288147074208638e+00 +2.6646283496625107e+04 -4.5451803249548125e+05 -1.6438795071249795e+08 
-3.0000000000000000e+00 -5.2460457738407862e-01 +6.9245814461336739e+00 +3.2190119104002455e+00 +8.9717621994169949e+00 +2.6657160829273456e+04 -4.5234846626126720e+05 -1.6448678568111548e+08 
-3.0499999999999998e+00 -5.2462580251494506e-01 +6.9256742995664018e+00 +3.1960862019053322e+00 +8.9144837622617921e+00 +2.6669160200964747e+04 -4.5018908605878125e+05 -1.6459275750855336e+08 
-3.1000000000000001e+00 -5.2464732073646603e-01 +6.9267818515716026e+00 +3.1728367780473841e+00 +8.8574742330868936e+00 +2.6682140846249818e+04 -4.4804404413377872e+05 -1.6470496850015771e+08 
-3.1499999999999999e+00 -5.2466912997456550e-01 +6.9279039357032595e+00 +3.1492735068184685e+00 +8.8012284914490380e+00 +2.6695961999510946e+04 -4.4591749307921540e+05 -1.6482252098422188e+08 
-3.2000000000000002e+00 -5.2469122815503633e-01 +6.9290403855167488e+00 +3.1254062543063612e+00 +8.7462413714827818e+00 +2.6710482943465457e+04 -4.4381358510238916e+05 -1.6494451760276681e+08 
-3.2500000000000000e+00 -5.2471361320379151e-01 +6.9301910345671462e+00 +3.1012448890787168e+00 +8.6930077284398060e+00 +2.6725562892016635e+04 -4.4173647262351803e+05 -1.6507006052317375e+08 
-3.2999999999999998e+00 -5.2473628304673781e-01 +6.9313557164075759e+00 +3.0767992772408053e+00 +8.6420225064200817e+00 +2.6741061125747256e+04 -4.3969030880766979e+05 -1.6519825236040401e+08 
-3.3500000000000001e+00 -5.2475923560977289e-01 +6.9325342645915971e+00 +3.0520792865540924e+00 +8.5937806334035489e+00 +2.6756836880845669e+04 -4.3767924667025957e+05 -1.6532819542954335e+08 
-3.3999999999999999e+00 -5.2478246881876267e-01 +6.9337265126757917e+00 +3.0270947827518544e+00 +8.5487769282033010e+00 +2.6772749447308819e+04 -4.3570743836453411e+05 -1.6545899240218621e+08 
-3.4500000000000002e+00 -5.2480598059964811e-01 +6.9349322942127705e+00 +3.0018556346118603e+00 +8.5075063752393341e+00 +2.6788658034165350e+04 -4.3377903742099169e+05 -1.6558974540596548e+08 
-3.5000000000000000e+00 -5.2482976887829813e-01 +6.9361514427562785e+00 +2.9763717064379183e+00 +8.4704639225511755e+00 +2.6804421968874773e+04 -4.3189819707915228e+05 -1.6571955735735449e+08 
-3.5499999999999998e+00 -5.2485383158063936e-01 +6.9373837918587746e+00 +2.9506528672686199e+00 +8.4381445726873814e+00 +2.6819900449342862e+04 -4.3006907104066992e+05 -1.6584753028668806e+08 
-3.6000000000000001e+00 -5.2487816663263120e-01 +6.9386291750754197e+00 +2.9247089819655043e+00 +8.4110432251091574e+00 +2.6834952788938612e+04 -4.2829581218634144e+05 -1.6597276701391017e+08 
-3.6499999999999999e+00 -5.2490277196011614e-01 +6.9398874259577630e+00 +2.8985499162223212e+00 +8.3896549318171854e+00 +2.6849438275550197e+04 -4.2658257464068051e+05 -1.6609437017071307e+08 
-3.6999999999999900e+00 -5.2492764548910609e-01 +6.9411583780587671e+00 +2.8721855380742549e+00 +8.3744746911843464e+00 +2.6863216135442817e+04 -4.2493351212773140e+05 -1.6621144197751752e+08 
-3.7499999999999898e+00 -5.2495278514545063e-01 +6.9424418649310162e+00 +2.8456257129068541e+00 +8.3659975227948884e+00 +2.6876145662264160e+04 -4.2335277854555094e+05 -1.6632308508786991e+08 
-3.7999999999999901e+00 -5.2497818885513381e-01 +6.9437377201250579e+00 +2.8188803068469328e+00 +8.3647185279934622e+00 +2.6888086132562461e+04 -4.2184452848621568e+05 -1.6642840205116946e+08 
-3.8499999999999899e+00 -5.2500385454408838e-01 +6.9450457771942578e+00 +2.7919591849222876e+00 +8.3711327050382547e+00 +2.6898896851833215e+04 -4.2041291572095221e+05 -1.6652649560592330e+08 
-3.8999999999999901e+00 -5.2502978013822610e-01 +6.9463658696887531e+00 +2.7648722125514609e+00 +8.3857351824476520e+00 +2.6908437111062914e+04 -4.1906209510601213e+05 -1.6661646837214625e+08 
-3.9499999999999900e+00 -5.2505596353719008e-01 +6.9476978305466188e+00 +2.7376288557289326e+00 +8.4089827355229882e+00 +2.6916575984376570e+04 -4.1779584824313561e+05 -1.6669747746547151e+08 
-3.9999999999999898e+00 -5.2508240233520020e-01 +6.9490414817497363e+00 +2.7102341397219636e+00 +8.4408728210580666e+00 +2.6923301955153933e+04 -4.1661368632684619e+05 -1.6676937055040538e+08 
-4.0499999999999901e+00 -5.2510909392941418e-01 +6.9503966364080219e+00 +2.6826903409442719e+00 +8.4810970631906706e+00 +2.6928683324337602e+04 -4.1551238140439219e+05 -1.6683246770373768e+08 
-4.0999999999999899e+00 -5.2513603571375789e-01 +6.9517631074056583e+00 +2.6549996998101064e+00 +8.5293412734239595e+00 +2.6932789766072969e+04 -4.1448865897482185e+05 -1.6688709748867035e+08 
-4.1499999999999897e+00 -5.2516322508223645e-01 +6.9531407076272354e+00 +2.6271644525065998e+00 +8.5852912389293827e+00 +2.6935691069184577e+04 -4.1353924437520205e+05 -1.6693358924367589e+08 
-4.1999999999999904e+00 -5.2519065942876564e-01 +6.9545292499547147e+00 +2.5991868419792228e+00 +8.6486328498844820e+00 +2.6937456836854213e+04 -4.1266086379656103e+05 -1.6697227104268169e+08 
-4.2499999999999902e+00 -5.2521833614730262e-01 +6.9559285472740955e+00 +2.5710691047729988e+00 +8.7190518176507830e+00 +2.6938156847426711e+04 -4.1185024197707692e+05 -1.6700347215351620e+08 
-4.2999999999999901e+00 -5.2524625263177294e-01 +6.9573384124702367e+00 +2.5428134809524283e+00 +8.7962338969394729e+00 +2.6937860784529912e+04 -4.1110410404557444e+05 -1.6702752120825788e+08 
-4.3499999999999899e+00 -5.2527440627611122e-01 +6.9587586584242880e+00 +2.5144222077195901e+00 +8.8798649778033774e+00 +2.6936638407175371e+04 -4.1041917624440341e+05 -1.6704474734114170e+08 
-4.3999999999999897e+00 -5.2530279447430073e-01 +6.9601890980223029e+00 +2.4858975266248393e+00 +8.9696307431456450e+00 +2.6934559355978698e+04 -4.0979218315229070e+05 -1.6705547888330498e+08 
-4.4499999999999904e+00 -5.2533141462027833e-01 +6.9616295441480869e+00 +2.4572416752549491e+00 +9.0652169526166197e+00 +2.6931693383167712e+04 -4.0921984998533729e+05 -1.6706004494101170e+08 
-4.4999999999999902e+00 -5.2536026410795222e-01 +6.9630798096869650e+00 +2.4284568957276620e+00 +9.1663093021090063e+00 +2.6928110114073959e+04 -4.0869890148809267e+05 -1.6705877374677044e+08 
-4.5499999999999901e+00 -5.2538934033134777e-01 +6.9645397075219648e+00 +2.3995454241817500e+00 +9.2725935572132485e+00 +2.6923879335063240e+04 -4.0822606297592446e+05 -1.6705199462160552e+08 
-4.5999999999999899e+00 -5.2541864068430033e-01 +6.9660090505375063e+00 +2.3705095034624764e+00 +9.3837554218390142e+00 +2.6919070656063472e+04 -4.0779805928600725e+05 -1.6704003571431866e+08 
-4.6499999999999897e+00 -5.2544816256080018e-01 +6.9674876516182360e+00 +2.3413513686838843e+00 +9.4994805675478950e+00 +2.6913753890259835e+04 -4.0741161500091461e+05 -1.6702322652668762e+08 
-4.6999999999999904e+00 -5.2547790335480848e-01 +6.9689753236477570e+00 +2.3120732633722834e+00 +9.6194547081436017e+00 +2.6907998626687062e+04 -4.0706345512574812e+05 -1.6700189505979431e+08 
-4.7499999999999902e+00 -5.2550786046023634e-01 +6.9704718795092511e+00 +2.2826774274179029e+00 +9.7433635444118263e+00 +2.6901874550852521e+04 -4.0675030451137293e+05 -1.6697636996295667e+08 
-4.7999999999999901e+00 -5.2553803127103416e-01 +6.9719771320899193e+00 +2.2531660989820916e+00 +9.8708926082469315e+00 +2.6895451395985299e+04 -4.0646888671131834e+05 -1.6694698021353692e+08 
-4.8499999999999899e+00 -5.2556841318116654e-01 +6.9734908942716158e+00 +2.2235415194686872e+00 +1.0001727624518544e+01 +2.6888798805351689e+04 -4.0621592684024287e+05 -1.6691405417367089e+08 
-4.8999999999999897e+00 -5.2559900358445855e-01 +6.9750129789393798e+00 +2.1938059281351028e+00 +1.0135554181596685e+01 +2.6881986486394937e+04 -4.0598814895185421e+05 -1.6687792066677740e+08 
-4.9499999999999904e+00 -5.2562959181201896e-01 +6.9765328598156326e+00 +2.1641632882910478e+00 +1.0271122700758788e+01 +2.6875130731487243e+04 -4.0578359759676916e+05 -1.6683917951319996e+08 
-4.9999999999999902e+00 -5.2566038061393794e-01 +6.9780605833971574e+00 +2.1344155353797030e+00 +1.0409024224639563e+01 +2.6868254432004520e+04 -4.0559744766742602e+05 -1.6679792026216787e+08 
-5.0499999999999901e+00 -5.2569136743643752e-01 +6.9795959663248786e+00 +2.1045648660158425e+00 +1.0548950631294478e+01 +2.6861425823850594e+04 -4.0542648882545182e+05 -1.6675446462758470e+08 
