# field on trajectory
# s[mm] rx[mm] ry[mm] rz[mm] bx[T] by[T] bz[T]
0.0000000000000000e+00 +8.5269999999999992e+00 +0.0000000000000000e+00 +0.0000000000000000e+00 -2.9788666759204430e-02 -5.7833415468207405e-01 +6.0811388500250198e-03
5.0000000000000003e-02 +8.5269999309312823e+00 +0.0000000000000000e+00 +4.9999999999936394e-02 -2.9788443361747758e-02 -5.7833623195327355e-01 +6.0811449745174486e-03
1.0000000000000001e-01 +8.5269997237247868e+00 +0.0000000000000000e+00 +9.9999999999491135e-02 -2.9788240480683851e-02 -5.7833869823869366e-01 +6.0811501325285355e-03
1.5000000000000002e-01 +8.5269993783799229e+00 +0.0000000000000000e+00 +1.4999999999828262e-01 -2.9788058088153602e-02 -5.7834155229533002e-01 +6.0811543029448559e-03
2.0000000000000001e-01 +8.5269988948960087e+00 +0.0000000000000000e+00 +1.9999999999592916e-01 -2.9787896156298507e-02 -5.7834479288019636e-01 +6.0811574646531651e-03
2.5000000000000000e-01 +8.5269982732722696e+00 +0.0000000000000000e+00 +2.4999999999204908e-01 -2.9787754657260791e-02 -5.7834841875032417e-01 +6.0811595965404039e-03
2.9999999999999999e-01 +8.5269975135078404e+00 +0.0000000000000000e+00 +2.9999999998626076e-01 -2.9787633563183362e-02 -5.7835242866276282e-01 +6.0811606774936614e-03
3.4999999999999998e-01 +8.5269966156017638e+00 +0.0000000000000000e+00 +3.4999999997818249e-01 -2.9787532846209972e-02 -5.7835682137458022e-01 +6.0811606864001697e-03
3.9999999999999997e-01 +8.5269955795529899e+00 +0.0000000000000000e+00 +3.9999999996743263e-01 -2.9787452478485230e-02 -5.7836159564285994e-01 +6.0811596021472965e-03
4.4999999999999996e-01 +8.5269944053603783e+00 +0.0000000000000000e+00 +4.4999999995362944e-01 -2.9787392432154652e-02 -5.7836675022470518e-01 +6.0811574036225063e-03
4.9999999999999994e-01 +8.5269930930226980e+00 +0.0000000000000000e+00 +4.9999999993639122e-01 -2.9787352679364738e-02 -5.7837228387723472e-01 +6.0811540697133706e-03
5.4999999999999993e-01 +8.5269916425386292e+00 +0.0000000000000000e+00 +5.4999999991533621e-01 -2.9787333192262982e-02 -5.7837819535758539e-01 +6.0811495793075300e-03
5.9999999999999998e-01 +8.5269900539067578e+00 +0.0000000000000000e+00 +5.9999999989008279e-01 -2.9787333942997995e-02 -5.7838448342290993e-01 +6.0811439112926939e-03
6.5000000000000002e-01 +8.5269883271255811e+00 +0.0000000000000000e+00 +6.4999999986024914e-01 -2.9787354903719501e-02 -5.7839114683037840e-01 +6.0811370445566114e-03
7.0000000000000007e-01 +8.5269864621935092e+00 +0.0000000000000000e+00 +6.9999999982545347e-01 -2.9787396046578450e-02 -5.7839818433717771e-01 +6.0811289579870646e-03
7.5000000000000011e-01 +8.5269844591088617e+00 +0.0000000000000000e+00 +7.4999999978531406e-01 -2.9787457343727036e-02 -5.7840559470051112e-01 +6.0811196304718504e-03
8.0000000000000016e-01 +8.5269823178698676e+00 +0.0000000000000000e+00 +7.9999999973944913e-01 -2.9787538767318732e-02 -5.7841337667759785e-01 +6.0811090408987648e-03
8.5000000000000020e-01 +8.5269800384746688e+00 +0.0000000000000000e+00 +8.4999999968747675e-01 -2.9787640289508425e-02 -5.7842152902567334e-01 +6.0810971681555803e-03
9.0000000000000024e-01 +8.5269776209213166e+00 +0.0000000000000000e+00 +8.9999999962901522e-01 -2.9787761882452385e-02 -5.7843005050198915e-01 +6.0810839911300428e-03
9.5000000000000029e-01 +8.5269750652077771e+00 +0.0000000000000000e+00 +9.4999999956368264e-01 -2.9787903518308387e-02 -5.7843893986381212e-01 +6.0810694887098449e-03
1.0000000000000002e+00 +8.5269723713319259e+00 +0.0000000000000000e+00 +9.9999999949109708e-01 -2.9788065169235704e-02 -5.7844819586842611e-01 +6.0810536397826100e-03
1.0500000000000003e+00 +8.5269695392915530e+00 +0.0000000000000000e+00 +1.0499999994108766e+00 -2.9788246807395249e-02 -5.7845781727312928e-01 +6.0810364232358836e-03
1.1000000000000003e+00 +8.5269665690843617e+00 +0.0000000000000000e+00 +1.0999999993226395e+00 -2.9788448404949538e-02 -5.7846780283523480e-01 +6.0810178179571137e-03
1.1500000000000004e+00 +8.5269634607079645e+00 +0.0000000000000000e+00 +1.1499999992260035e+00 -2.9788669934062827e-02 -5.7847815131207236e-01 +6.0809978028336324e-03
1.2000000000000004e+00 +8.5269602141598906e+00 +0.0000000000000000e+00 +1.1999999991205867e+00 -2.9788911366901101e-02 -5.7848886146098566e-01 +6.0809763567526388e-03
1.2500000000000004e+00 +8.5269568294375819e+00 +0.0000000000000000e+00 +1.2499999990060073e+00 -2.9789172675632199e-02 -5.7849993203933403e-01 +6.0809534586011935e-03
1.3000000000000005e+00 +8.5269533065383953e+00 +0.0000000000000000e+00 +1.2999999988818833e+00 -2.9789453832425775e-02 -5.7851136180449081e-01 +6.0809290872661853e-03
1.3500000000000005e+00 +8.5269496454596005e+00 +0.0000000000000000e+00 +1.3499999987478324e+00 -2.9789754809453475e-02 -5.7852314951384431e-01 +6.0809032216343362e-03
1.4000000000000006e+00 +8.5269458461983803e+00 +0.0000000000000000e+00 +1.3999999986034726e+00 -2.9790075578888894e-02 -5.7853529392479752e-01 +6.0808758405921605e-03
1.4500000000000006e+00 +8.5269419087518354e+00 +0.0000000000000000e+00 +1.4499999984484218e+00 -2.9790416112907680e-02 -5.7854779379476684e-01 +6.0808469230259751e-03
1.5000000000000007e+00 +8.5269378331169801e+00 +0.0000000000000000e+00 +1.4999999982822978e+00 -2.9790776383687576e-02 -5.7856064788118367e-01 +6.0808164478218631e-03
1.5500000000000007e+00 +8.5269336192907446e+00 +0.0000000000000000e+00 +1.5499999981047186e+00 -2.9791156363408473e-02 -5.7857385494149249e-01 +6.0807843938656646e-03
1.6000000000000008e+00 +8.5269292672699724e+00 +0.0000000000000000e+00 +1.5999999979153019e+00 -2.9791556024252500e-02 -5.7858741373315248e-01 +6.0807507400429707e-03
1.6500000000000008e+00 +8.5269247770514269e+00 +0.0000000000000000e+00 +1.6499999977136655e+00 -2.9791975338404029e-02 -5.7860132301363609e-01 +6.0807154652390873e-03
1.7000000000000008e+00 +8.5269201486317865e+00 +0.0000000000000000e+00 +1.6999999974994269e+00 -2.9792414278049753e-02 -5.7861558154042902e-01 +6.0806785483390330e-03
1.7500000000000009e+00 +8.5269153820076440e+00 +0.0000000000000000e+00 +1.7499999972722038e+00 -2.9792872815378773e-02 -5.7863018807103073e-01 +6.0806399682275265e-03
1.8000000000000009e+00 +8.5269104771755106e+00 +0.0000000000000000e+00 +1.7999999970316141e+00 -2.9793350922582607e-02 -5.7864514136295331e-01 +6.0805997037889524e-03
1.8500000000000010e+00 +8.5269054341318160e+00 +0.0000000000000000e+00 +1.8499999967772753e+00 -2.9793848571855266e-02 -5.7866044017372231e-01 +6.0805577339073710e-03
1.9000000000000010e+00 +8.5269002528729043e+00 +0.0000000000000000e+00 +1.8999999965088050e+00 -2.9794365735393291e-02 -5.7867608326087594e-01 +6.0805140374664713e-03
1.9500000000000011e+00 +8.5268949333950399e+00 +0.0000000000000000e+00 +1.9499999962258205e+00 -2.9794902385395904e-02 -5.7869206938196549e-01 +6.0804685933495911e-03
2.0000000000000009e+00 +8.5268894756944054e+00 +0.0000000000000000e+00 +1.9999999959279398e+00 -2.9795458494064890e-02 -5.7870839729455370e-01 +6.0804213804396623e-03
2.0500000000000007e+00 +8.5268838797670998e+00 +0.0000000000000000e+00 +2.0499999956147796e+00 -2.9796034017249333e-02 -5.7872506559865045e-01 +6.0803723825594300e-03
2.1000000000000005e+00 +8.5268781456091425e+00 +0.0000000000000000e+00 +2.0999999952859580e+00 -2.9796628845378138e-02 -5.7874207226400776e-01 +6.0803216032921060e-03
2.1500000000000004e+00 +8.5268722732164708e+00 +0.0000000000000000e+00 +2.1499999949410920e+00 -2.9797242852525063e-02 -5.7875941510282281e-01 +6.0802690511609506e-03
2.2000000000000002e+00 +8.5268662625849441e+00 +0.0000000000000000e+00 +2.1999999945797990e+00 -2.9797875912763960e-02 -5.7877709192730398e-01 +6.0802147346890947e-03
2.2500000000000000e+00 +8.5268601137103381e+00 +0.0000000000000000e+00 +2.2499999942016964e+00 -2.9798527900168577e-02 -5.7879510054967043e-01 +6.0801586623995393e-03
2.2999999999999998e+00 +8.5268538265883524e+00 +0.0000000000000000e+00 +2.2999999938064013e+00 -2.9799198688812555e-02 -5.7881343878215163e-01 +6.0801008428151629e-03
2.3499999999999996e+00 +8.5268474012146083e+00 +0.0000000000000000e+00 +2.3499999933935309e+00 -2.9799888152769242e-02 -5.7883210443698863e-01 +6.0800412844587122e-03
2.3999999999999995e+00 +8.5268408375846452e+00 +0.0000000000000000e+00 +2.3999999929627025e+00 -2.9800596166111665e-02 -5.7885109532643197e-01 +6.0799799958528153e-03
2.4499999999999993e+00 +8.5268341356939281e+00 +0.0000000000000000e+00 +2.4499999925135332e+00 -2.9801322602912388e-02 -5.7887040926274302e-01 +6.0799169855199845e-03
2.4999999999999991e+00 +8.5268272955378457e+00 +0.0000000000000000e+00 +2.4999999920456397e+00 -2.9802067337243419e-02 -5.7889004405819255e-01 +6.0798522619825981e-03
2.5499999999999989e+00 +8.5268203171117065e+00 +0.0000000000000000e+00 +2.5499999915586393e+00 -2.9802830243176096e-02 -5.7890999752506178e-01 +6.0797858337629310e-03
2.5999999999999988e+00 +8.5268132004107446e+00 +0.0000000000000000e+00 +2.5999999910521492e+00 -2.9803611194781008e-02 -5.7893026747564091e-01 +6.0797177093831365e-03
2.6499999999999986e+00 +8.5268059454301177e+00 +0.0000000000000000e+00 +2.6499999905257856e+00 -2.9804410066127909e-02 -5.7895085172222960e-01 +6.0796478973652521e-03
2.6999999999999984e+00 +8.5267985521649106e+00 +0.0000000000000000e+00 +2.6999999899791658e+00 -2.9805226731285529e-02 -5.7897174807713736e-01 +6.0795764062312021e-03
2.7499999999999982e+00 +8.5267910206101316e+00 +0.0000000000000000e+00 +2.7499999894119065e+00 -2.9806061064321595e-02 -5.7899295435268128e-01 +6.0795032445028069e-03
2.7999999999999980e+00 +8.5267833507607165e+00 +0.0000000000000000e+00 +2.7999999888236244e+00 -2.9806912939302641e-02 -5.7901446836118897e-01 +6.0794284207017733e-03
2.8499999999999979e+00 +8.5267755426115261e+00 +0.0000000000000000e+00 +2.8499999882139364e+00 -2.9807782230293952e-02 -5.7903628791499551e-01 +6.0793519433496954e-03
2.8999999999999977e+00 +8.5267675961573488e+00 +0.0000000000000000e+00 +2.8999999875824591e+00 -2.9808668811359431e-02 -5.7905841082644482e-01 +6.0792738209680770e-03
2.9499999999999975e+00 +8.5267595113928998e+00 +0.0000000000000000e+00 +2.9499999869288089e+00 -2.9809572556561519e-02 -5.7908083490788820e-01 +6.0791940620783030e-03
2.9999999999999973e+00 +8.5267512883128234e+00 +0.0000000000000000e+00 +2.9999999862526026e+00 -2.9810493339961081e-02 -5.7910355797168633e-01 +6.0791126752016613e-03
3.0499999999999972e+00 +8.5267429269116928e+00 +0.0000000000000000e+00 +3.0499999855534563e+00 -2.9811431035617324e-02 -5.7912657783020638e-01 +6.0790296688593443e-03
3.0999999999999970e+00 +8.5267344271840102e+00 +0.0000000000000000e+00 +3.0999999848309865e+00 -2.9812385517587688e-02 -5.7914989229582381e-01 +6.0789450515724413e-03
3.1499999999999968e+00 +8.5267257891242068e+00 +0.0000000000000000e+00 +3.1499999840848099e+00 -2.9813356659927712e-02 -5.7917349918092165e-01 +6.0788588318619469e-03
3.1999999999999966e+00 +8.5267170127266425e+00 +0.0000000000000000e+00 +3.1999999833145423e+00 -2.9814344336690980e-02 -5.7919739629788936e-01 +6.0787710182487603e-03
3.2499999999999964e+00 +8.5267080979856118e+00 +0.0000000000000000e+00 +3.2499999825198000e+00 -2.9815348421929018e-02 -5.7922158145912439e-01 +6.0786816192536881e-03
3.2999999999999963e+00 +8.5266990448953361e+00 +0.0000000000000000e+00 +3.2999999817001995e+00 -2.9816368789691124e-02 -5.7924605247702932e-01 +6.0785906433974421e-03
3.3499999999999961e+00 +8.5266898534499713e+00 +0.0000000000000000e+00 +3.3499999808553569e+00 -2.9817405314024371e-02 -5.7927080716401580e-01 +6.0784980992006528e-03
3.3999999999999959e+00 +8.5266805236436056e+00 +0.0000000000000000e+00 +3.3999999799848881e+00 -2.9818457868973414e-02 -5.7929584333249984e-01 +6.0784039951838550e-03
3.4499999999999957e+00 +8.5266710554702581e+00 +0.0000000000000000e+00 +3.4499999790884091e+00 -2.9819526328580440e-02 -5.7932115879490453e-01 +6.0783083398674980e-03
3.4999999999999956e+00 +8.5266614489238819e+00 +0.0000000000000000e+00 +3.4999999781655355e+00 -2.9820610566885071e-02 -5.7934675136365832e-01 +6.0782111417719579e-03
3.5499999999999954e+00 +8.5266517039983647e+00 +0.0000000000000000e+00 +3.5499999772158839e+00 -2.9821710457924200e-02 -5.7937261885119662e-01 +6.0781124094175069e-03
3.5999999999999952e+00 +8.5266418206875283e+00 +0.0000000000000000e+00 +3.5999999762390695e+00 -2.9822825875731970e-02 -5.7939875906995897e-01 +6.0780121513243574e-03
3.6499999999999950e+00 +8.5266317989851306e+00 +0.0000000000000000e+00 +3.6499999752347083e+00 -2.9823956694339650e-02 -5.7942516983239190e-01 +6.0779103760126340e-03
3.6999999999999948e+00 +8.5266216388848601e+00 +0.0000000000000000e+00 +3.6999999742024161e+00 -2.9825102787775476e-02 -5.7945184895094537e-01 +6.0778070920023833e-03
3.7499999999999947e+00 +8.5266113403803470e+00 +0.0000000000000000e+00 +3.7499999731418083e+00 -2.9826264030064636e-02 -5.7947879423807624e-01 +6.0777023078135766e-03
3.7999999999999945e+00 +8.5266009034651553e+00 +0.0000000000000000e+00 +3.7999999720525004e+00 -2.9827440295229102e-02 -5.7950600350624470e-01 +6.0775960319661166e-03
3.8499999999999943e+00 +8.5265903281327855e+00 +0.0000000000000000e+00 +3.8499999709341077e+00 -2.9828631457287546e-02 -5.7953347456791615e-01 +6.0774882729798252e-03
3.8999999999999941e+00 +8.5265796143766757e+00 +0.0000000000000000e+00 +3.8999999697862462e+00 -2.9829837390255270e-02 -5.7956120523556043e-01 +6.0773790393744646e-03
3.9499999999999940e+00 +8.5265687621902035e+00 +0.0000000000000000e+00 +3.9499999686085308e+00 -2.9831057968144066e-02 -5.7958919332165126e-01 +6.0772683396697197e-03
3.9999999999999938e+00 +8.5265577715666829e+00 +0.0000000000000000e+00 +3.9999999674005768e+00 -2.9832293064962143e-02 -5.7961743663866694e-01 +6.0771561823852105e-03
4.0499999999999936e+00 +8.5265466424993690e+00 +0.0000000000000000e+00 +4.0499999661619999e+00 -2.9833542557046566e-02 -5.7964593286572008e-01 +6.0770425786507674e-03
4.0999999999999934e+00 +8.5265353749814548e+00 +0.0000000000000000e+00 +4.0999999648924144e+00 -2.9834806330062580e-02 -5.7967467914844883e-01 +6.0769275500373605e-03
4.1499999999999932e+00 +8.5265239690060746e+00 +0.0000000000000000e+00 +4.1499999635914353e+00 -2.9836084272008928e-02 -5.7970367249912313e-01 +6.0768111207264832e-03
4.1999999999999931e+00 +8.5265124245663024e+00 +0.0000000000000000e+00 +4.1999999622586781e+00 -2.9837376270885698e-02 -5.7973290993001214e-01 +6.0766933148998833e-03
4.2499999999999929e+00 +8.5265007416551555e+00 +0.0000000000000000e+00 +4.2499999608937582e+00 -2.9838682214694441e-02 -5.7976238845338468e-01 +6.0765741567396095e-03
4.2999999999999927e+00 +8.5264889202655940e+00 +0.0000000000000000e+00 +4.2999999594962901e+00 -2.9840001991438159e-02 -5.7979210508150936e-01 +6.0764536704279856e-03
4.3499999999999925e+00 +8.5264769603905197e+00 +0.0000000000000000e+00 +4.3499999580658884e+00 -2.9841335489121421e-02 -5.7982205682665244e-01 +6.0763318801476535e-03
4.3999999999999924e+00 +8.5264648620227774e+00 +0.0000000000000000e+00 +4.3999999566021675e+00 -2.9842682595750406e-02 -5.7985224070108043e-01 +6.0762088100815674e-03
4.4499999999999922e+00 +8.5264526251551587e+00 +0.0000000000000000e+00 +4.4499999551047420e+00 -2.9844043199332898e-02 -5.7988265371705749e-01 +6.0760844844130069e-03
4.4999999999999920e+00 +8.5264402497803999e+00 +0.0000000000000000e+00 +4.4999999535732274e+00 -2.9845417187878451e-02 -5.7991329288684590e-01 +6.0759589273255950e-03
4.5499999999999918e+00 +8.5264277358911826e+00 +0.0000000000000000e+00 +4.5499999520072372e+00 -2.9846804449398388e-02 -5.7994415522270581e-01 +6.0758321630032973e-03
4.5999999999999917e+00 +8.5264150834801349e+00 +0.0000000000000000e+00 +4.5999999504063860e+00 -2.9848204871905794e-02 -5.7997523773689486e-01 +6.0757042156304548e-03
4.6499999999999915e+00 +8.5264022925398333e+00 +0.0000000000000000e+00 +4.6499999487702883e+00 -2.9849618343415735e-02 -5.8000653744166775e-01 +6.0755751093917705e-03
4.6999999999999913e+00 +8.5263893630628012e+00 +0.0000000000000000e+00 +4.6999999470985587e+00 -2.9851044751945128e-02 -5.8003805134927622e-01 +6.0754448684723385e-03
4.7499999999999911e+00 +8.5263762950415121e+00 +0.0000000000000000e+00 +4.7499999453908108e+00 -2.9852483985512927e-02 -5.8006977647196867e-01 +6.0753135170576464e-03
4.7999999999999909e+00 +8.5263630884683881e+00 +0.0000000000000000e+00 +4.7999999436466592e+00 -2.9853935932140165e-02 -5.8010170982198994e-01 +6.0751810793335951e-03
4.8499999999999908e+00 +8.5263497433358033e+00 +0.0000000000000000e+00 +4.8499999418657174e+00 -2.9855400479849949e-02 -5.8013384841158033e-01 +6.0750475794864979e-03
4.8999999999999906e+00 +8.5263362596360803e+00 +0.0000000000000000e+00 +4.8999999400476000e+00 -2.9856877516667556e-02 -5.8016618925297647e-01 +6.0749130417031075e-03
4.9499999999999904e+00 +8.5263226373614938e+00 +0.0000000000000000e+00 +4.9499999381919206e+00 -2.9858366930620509e-02 -5.8019872935840933e-01 +6.0747774901706141e-03
4.9999999999999902e+00 +8.5263088765042738e+00 +0.0000000000000000e+00 +4.9999999362982930e+00 -2.9859868609738594e-02 -5.8023146574010653e-01 +6.0746409490766567e-03
5.0499999999999901e+00 +8.5262949770565992e+00 +0.0000000000000000e+00 +5.0499999343663307e+00 -2.9861382442053937e-02 -5.8026439541028940e-01 +6.0745034426093521e-03
5.0999999999999899e+00 +8.5262809390106060e+00 +0.0000000000000000e+00 +5.0999999323956473e+00 -2.9862908315601063e-02 -5.8029751538117402e-01 +6.0743649949572855e-03
5.1499999999999897e+00 +8.5262667623583823e+00 +0.0000000000000000e+00 +5.1499999303858566e+00 -2.9864446118416956e-02 -5.8033082266497094e-01 +6.0742256303095363e-03
5.1999999999999895e+00 +8.5262524470919736e+00 +0.0000000000000000e+00 +5.1999999283365721e+00 -2.9865995738541096e-02 -5.8036431427388424e-01 +6.0740853728556794e-03
5.2499999999999893e+00 +8.5262379932033809e+00 +0.0000000000000000e+00 +5.2499999262474075e+00 -2.9867557064015525e-02 -5.8039798722011160e-01 +6.0739442467858014e-03
5.2999999999999892e+00 +8.5262234006845610e+00 +0.0000000000000000e+00 +5.2999999241179756e+00 -2.9869129982884931e-02 -5.8043183851584423e-01 +6.0738022762905170e-03
5.3499999999999890e+00 +8.5262086695274277e+00 +0.0000000000000000e+00 +5.3499999219478900e+00 -2.9870714383196641e-02 -5.8046586517326659e-01 +6.0736594855609694e-03
5.3999999999999888e+00 +8.5261937997238544e+00 +0.0000000000000000e+00 +5.3999999197367634e+00 -2.9872310153000754e-02 -5.8050006420455513e-01 +6.0735158987888513e-03
5.4499999999999886e+00 +8.5261787912656732e+00 +0.0000000000000000e+00 +5.4499999174842095e+00 -2.9873917180350158e-02 -5.8053443262187965e-01 +6.0733715401664161e-03
5.4999999999999885e+00 +8.5261636441446758e+00 +0.0000000000000000e+00 +5.4999999151898411e+00 -2.9875535353300571e-02 -5.8056896743740094e-01 +6.0732264338864781e-03
5.5499999999999883e+00 +8.5261483583526125e+00 +0.0000000000000000e+00 +5.5499999128532709e+00 -2.9877164559910612e-02 -5.8060366566327237e-01 +6.0730806041424399e-03
5.5999999999999881e+00 +8.5261329338811951e+00 +0.0000000000000000e+00 +5.5999999104741116e+00 -2.9878804688241899e-02 -5.8063852431163887e-01 +6.0729340751282954e-03
5.6499999999999879e+00 +8.5261173707220994e+00 +0.0000000000000000e+00 +5.6499999080519760e+00 -2.9880455626359031e-02 -5.8067354039463626e-01 +6.0727868710386337e-03
5.6999999999999877e+00 +8.5261016688669606e+00 +0.0000000000000000e+00 +5.6999999055864778e+00 -2.9882117262329699e-02 -5.8070871092439114e-01 +6.0726390160686693e-03
5.7499999999999876e+00 +8.5260858283073784e+00 +0.0000000000000000e+00 +5.7499999030772289e+00 -2.9883789484224734e-02 -5.8074403291302101e-01 +6.0724905344142419e-03
5.7999999999999874e+00 +8.5260698490349167e+00 +0.0000000000000000e+00 +5.7999999005238410e+00 -2.9885472180118149e-02 -5.8077950337263395e-01 +6.0723414502718252e-03
5.8499999999999872e+00 +8.5260537310411024e+00 +0.0000000000000000e+00 +5.8499998979259278e+00 -2.9887165238087217e-02 -5.8081511931532748e-01 +6.0721917878385455e-03
5.8999999999999870e+00 +8.5260374743174303e+00 +0.0000000000000000e+00 +5.8999998952831012e+00 -2.9888868546212477e-02 -5.8085087775318911e-01 +6.0720415713121896e-03
