# trajectory
# s[mm] rx[mm] ry[mm] rz[mm] px[rad] py[rad] pz[rad]
0.0000000000000000e+00 +8.5389999999999997e+00 +0.0000000000000000e+00 +0.0000000000000000e+00 +0.0000000000000000e+00 +0.0000000000000000e+00 +1.0000000000000000e+00
5.0000000000000003e-02 +8.5389999308521602e+00 +0.0000000000000000e+00 +4.9999999999936241e-02 -2.7659129074222484e-06 +0.0000000000000000e+00 +9.9999999999617484e-01
1.0000000000000001e-01 +8.5389997234087573e+00 +0.0000000000000000e+00 +9.9999999999489969e-02 -5.5318228733015348e-06 +0.0000000000000000e+00 +9.9999999998469946e-01
1.5000000000000002e-01 +8.5389993776698923e+00 +0.0000000000000000e+00 +1.4999999999827868e-01 -8.2977316602105117e-06 +0.0000000000000000e+00 +9.9999999996557387e-01
2.0000000000000001e-01 +8.5389988936355810e+00 +0.0000000000000000e+00 +1.9999999999591986e-01 -1.1063641028306244e-05 +0.0000000000000000e+00 +9.9999999993879796e-01
2.5000000000000000e-01 +8.5389982713057506e+00 +0.0000000000000000e+00 +2.4999999999203099e-01 -1.3829552735330290e-05 +0.0000000000000000e+00 +9.9999999990437172e-01
2.9999999999999999e-01 +8.5389975106802396e+00 +0.0000000000000000e+00 +2.9999999998622950e-01 -1.6595468536608785e-05 +0.0000000000000000e+00 +9.9999999986229515e-01
3.4999999999999998e-01 +8.5389966117587992e+00 +0.0000000000000000e+00 +3.4999999997813297e-01 -1.9361390185052521e-05 +0.0000000000000000e+00 +9.9999999981256826e-01
3.9999999999999997e-01 +8.5389955745410937e+00 +0.0000000000000000e+00 +3.9999999996735880e-01 -2.2127319431157035e-05 +0.0000000000000000e+00 +9.9999999975519083e-01
4.4999999999999996e-01 +8.5389943990267003e+00 +0.0000000000000000e+00 +4.4999999995352452e-01 -2.4893258023002687e-05 +0.0000000000000000e+00 +9.9999999969016284e-01
4.9999999999999994e-01 +8.5389930852151075e+00 +0.0000000000000000e+00 +4.9999999993624755e-01 -2.7659207706254737e-05 +0.0000000000000000e+00 +9.9999999961748409e-01
5.4999999999999993e-01 +8.5389916331057165e+00 +0.0000000000000000e+00 +5.4999999991514537e-01 -3.0425170224163440e-05 +0.0000000000000000e+00 +9.9999999953715446e-01
5.9999999999999998e-01 +8.5389900426978418e+00 +0.0000000000000000e+00 +5.9999999988983543e-01 -3.3191147317564114e-05 +0.0000000000000000e+00 +9.9999999944917384e-01
6.5000000000000002e-01 +8.5389883139907123e+00 +0.0000000000000000e+00 +6.4999999985993517e-01 -3.5957140724877228e-05 +0.0000000000000000e+00 +9.9999999935354200e-01
7.0000000000000007e-01 +8.5389864469834684e+00 +0.0000000000000000e+00 +6.9999999982506211e-01 -3.8723152182108483e-05 +0.0000000000000000e+00 +9.9999999925025873e-01
7.5000000000000011e-01 +8.5389844416751650e+00 +0.0000000000000000e+00 +7.4999999978483356e-01 -4.1489183422848892e-05 +0.0000000000000000e+00 +9.9999999913932380e-01
8.0000000000000016e-01 +8.5389822980647683e+00 +0.0000000000000000e+00 +7.9999999973886693e-01 -4.4255236178274863e-05 +0.0000000000000000e+00 +9.9999999902073700e-01
8.5000000000000020e-01 +8.5389800161511591e+00 +0.0000000000000000e+00 +8.4999999968677964e-01 -4.7021312177148270e-05 +0.0000000000000000e+00 +9.9999999889449809e-01
9.0000000000000024e-01 +8.5389775959331331e+00 +0.0000000000000000e+00 +8.9999999962818911e-01 -4.9787413145816545e-05 +0.0000000000000000e+00 +9.9999999876060675e-01
9.5000000000000029e-01 +8.5389750374093989e+00 +0.0000000000000000e+00 +9.4999999956271275e-01 -5.2553540808212757e-05 +0.0000000000000000e+00 +9.9999999861906264e-01
1.0000000000000002e+00 +8.5389723405785780e+00 +0.0000000000000000e+00 +9.9999999948996787e-01 -5.5319696885855687e-05 +0.0000000000000000e+00 +9.9999999846986554e-01
1.0500000000000003e+00 +8.5389695054392067e+00 +0.0000000000000000e+00 +1.0499999994095717e+00 -5.8085883097849916e-05 +0.0000000000000000e+00 +9.9999999831301511e-01
1.1000000000000003e+00 +8.5389665319897361e+00 +0.0000000000000000e+00 +1.0999999993211418e+00 -6.0852101160885888e-05 +0.0000000000000000e+00 +9.9999999814851093e-01
1.1500000000000004e+00 +8.5389634202285301e+00 +0.0000000000000000e+00 +1.1499999992242953e+00 -6.3618352789240000e-05 +0.0000000000000000e+00 +9.9999999797635264e-01
1.2000000000000004e+00 +8.5389601701538691e+00 +0.0000000000000000e+00 +1.1999999991186494e+00 -6.6384639694774697e-05 +0.0000000000000000e+00 +9.9999999779653981e-01
1.2500000000000004e+00 +8.5389567817639449e+00 +0.0000000000000000e+00 +1.2499999990038215e+00 -6.9150963586938512e-05 +0.0000000000000000e+00 +9.9999999760907210e-01
1.3000000000000005e+00 +8.5389532550568656e+00 +0.0000000000000000e+00 +1.2999999988794289e+00 -7.1917326172766201e-05 +0.0000000000000000e+00 +9.9999999741394907e-01
1.3500000000000005e+00 +8.5389495900306542e+00 +0.0000000000000000e+00 +1.3499999987450888e+00 -7.4683729156878759e-05 +0.0000000000000000e+00 +9.9999999721117028e-01
1.4000000000000006e+00 +8.5389457866832483e+00 +0.0000000000000000e+00 +1.3999999986004183e+00 -7.7450174241483545e-05 +0.0000000000000000e+00 +9.9999999700073527e-01
1.4500000000000006e+00 +8.5389418450125003e+00 +0.0000000000000000e+00 +1.4499999984450347e+00 -8.0216663126374347e-05 +0.0000000000000000e+00 +9.9999999678264351e-01
1.5000000000000007e+00 +8.5389377650161773e+00 +0.0000000000000000e+00 +1.4999999982785550e+00 -8.2983197508931439e-05 +0.0000000000000000e+00 +9.9999999655689453e-01
1.5500000000000007e+00 +8.5389335466919629e+00 +0.0000000000000000e+00 +1.5499999981005965e+00 -8.5749779084121701e-05 +0.0000000000000000e+00 +9.9999999632348779e-01
1.6000000000000008e+00 +8.5389291900374538e+00 +0.0000000000000000e+00 +1.5999999979107762e+00 -8.8516409544498660e-05 +0.0000000000000000e+00 +9.9999999608242274e-01
1.6500000000000008e+00 +8.5389246950501647e+00 +0.0000000000000000e+00 +1.6499999977087112e+00 -9.1283090580202600e-05 +0.0000000000000000e+00 +9.9999999583369881e-01
1.7000000000000008e+00 +8.5389200617275254e+00 +0.0000000000000000e+00 +1.6999999974940185e+00 -9.4049823878960585e-05 +0.0000000000000000e+00 +9.9999999557731545e-01
1.7500000000000009e+00 +8.5389152900668783e+00 +0.0000000000000000e+00 +1.7499999972663152e+00 -9.6816611126086615e-05 +0.0000000000000000e+00 +9.9999999531327199e-01
1.8000000000000009e+00 +8.5389103800654862e+00 +0.0000000000000000e+00 +1.7999999970252181e+00 -9.9583454004481631e-05 +0.0000000000000000e+00 +9.9999999504156789e-01
1.8500000000000010e+00 +8.5389053317205228e+00 +0.0000000000000000e+00 +1.8499999967703442e+00 -1.0235035419463363e-04 +0.0000000000000000e+00 +9.9999999476220258e-01
1.9000000000000010e+00 +8.5389001450290820e+00 +0.0000000000000000e+00 +1.8999999965013106e+00 -1.0511731337461775e-04 +0.0000000000000000e+00 +9.9999999447517529e-01
1.9500000000000011e+00 +8.5388948199881742e+00 +0.0000000000000000e+00 +1.9499999962177341e+00 -1.0788433322009630e-04 +0.0000000000000000e+00 +9.9999999418048535e-01
2.0000000000000009e+00 +8.5388893565947210e+00 +0.0000000000000000e+00 +1.9999999959192314e+00 -1.1065141540431889e-04 +0.0000000000000000e+00 +9.9999999387813221e-01
2.0500000000000007e+00 +8.5388837548455658e+00 +0.0000000000000000e+00 +2.0499999956054196e+00 -1.1341856159781730e-04 +0.0000000000000000e+00 +9.9999999356811498e-01
2.1000000000000005e+00 +8.5388780147374668e+00 +0.0000000000000000e+00 +2.0999999952759154e+00 -1.1618577346504872e-04 +0.0000000000000000e+00 +9.9999999325043309e-01
2.1500000000000004e+00 +8.5388721362670967e+00 +0.0000000000000000e+00 +2.1499999949303352e+00 -1.1895305266103893e-04 +0.0000000000000000e+00 +9.9999999292508568e-01
2.2000000000000002e+00 +8.5388661194310504e+00 +0.0000000000000000e+00 +2.1999999945682962e+00 -1.2172040083107720e-04 +0.0000000000000000e+00 +9.9999999259207206e-01
2.2500000000000000e+00 +8.5388599642258374e+00 +0.0000000000000000e+00 +2.2499999941894147e+00 -1.2448781961071635e-04 +0.0000000000000000e+00 +9.9999999225139147e-01
2.2999999999999998e+00 +8.5388536706478853e+00 +0.0000000000000000e+00 +2.2999999937933073e+00 -1.2725531062577283e-04 +0.0000000000000000e+00 +9.9999999190304301e-01
2.3499999999999996e+00 +8.5388472386935437e+00 +0.0000000000000000e+00 +2.3499999933795910e+00 -1.3002287549232673e-04 +0.0000000000000000e+00 +9.9999999154702601e-01
2.3999999999999995e+00 +8.5388406683590787e+00 +0.0000000000000000e+00 +2.3999999929478819e+00 -1.3279051581672194e-04 +0.0000000000000000e+00 +9.9999999118333949e-01
2.4499999999999993e+00 +8.5388339596406784e+00 +0.0000000000000000e+00 +2.4499999924977969e+00 -1.3555823319556608e-04 +0.0000000000000000e+00 +9.9999999081198276e-01
2.4999999999999991e+00 +8.5388271125344488e+00 +0.0000000000000000e+00 +2.4999999920289522e+00 -1.3832602921573067e-04 +0.0000000000000000e+00 +9.9999999043295484e-01
2.5499999999999989e+00 +8.5388201270364199e+00 +0.0000000000000000e+00 +2.5499999915409646e+00 -1.4109390545435110e-04 +0.0000000000000000e+00 +9.9999999004625495e-01
2.5999999999999988e+00 +8.5388130031425398e+00 +0.0000000000000000e+00 +2.5999999910334499e+00 -1.4386186347882675e-04 +0.0000000000000000e+00 +9.9999998965188219e-01
2.6499999999999986e+00 +8.5388057408486819e+00 +0.0000000000000000e+00 +2.6499999905060250e+00 -1.4662990484682099e-04 +0.0000000000000000e+00 +9.9999998924983557e-01
2.6999999999999984e+00 +8.5387983401506400e+00 +0.0000000000000000e+00 +2.6999999899583056e+00 -1.4939803110626131e-04 +0.0000000000000000e+00 +9.9999998884011421e-01
2.7499999999999982e+00 +8.5387908010441311e+00 +0.0000000000000000e+00 +2.7499999893899085e+00 -1.5216624379533930e-04 +0.0000000000000000e+00 +9.9999998842271720e-01
2.7999999999999980e+00 +8.5387831235247944e+00 +0.0000000000000000e+00 +2.7999999888004496e+00 -1.5493454444251073e-04 +0.0000000000000000e+00 +9.9999998799764356e-01
2.8499999999999979e+00 +8.5387753075881960e+00 +0.0000000000000000e+00 +2.8499999881895453e+00 -1.5770293456649563e-04 +0.0000000000000000e+00 +9.9999998756489228e-01
2.8999999999999977e+00 +8.5387673532298223e+00 +0.0000000000000000e+00 +2.8999999875568112e+00 -1.6047141567627826e-04 +0.0000000000000000e+00 +9.9999998712446247e-01
2.9499999999999975e+00 +8.5387592604450866e+00 +0.0000000000000000e+00 +2.9499999869018634e+00 -1.6323998927110725e-04 +0.0000000000000000e+00 +9.9999998667635304e-01
2.9999999999999973e+00 +8.5387510292293278e+00 +0.0000000000000000e+00 +2.9999999862243181e+00 -1.6600865684049561e-04 +0.0000000000000000e+00 +9.9999998622056296e-01
3.0499999999999972e+00 +8.5387426595778102e+00 +0.0000000000000000e+00 +3.0499999855237916e+00 -1.6877741986422078e-04 +0.0000000000000000e+00 +9.9999998575709126e-01
3.0999999999999970e+00 +8.5387341514857251e+00 +0.0000000000000000e+00 +3.0999999847998994e+00 -1.7154627981232466e-04 +0.0000000000000000e+00 +9.9999998528593692e-01
3.1499999999999968e+00 +8.5387255049481894e+00 +0.0000000000000000e+00 +3.1499999840522572e+00 -1.7431523814511368e-04 +0.0000000000000000e+00 +9.9999998480709884e-01
3.1999999999999966e+00 +8.5387167199602469e+00 +0.0000000000000000e+00 +3.1999999832804811e+00 -1.7708429631315884e-04 +0.0000000000000000e+00 +9.9999998432057591e-01
3.2499999999999964e+00 +8.5387077965168707e+00 +0.0000000000000000e+00 +3.2499999824841868e+00 -1.7985345575729575e-04 +0.0000000000000000e+00 +9.9999998382636712e-01
3.2999999999999963e+00 +8.5386987346129608e+00 +0.0000000000000000e+00 +3.2999999816629897e+00 -1.8262271790862471e-04 +0.0000000000000000e+00 +9.9999998332447138e-01
3.3499999999999961e+00 +8.5386895342433444e+00 +0.0000000000000000e+00 +3.3499999808165057e+00 -1.8539208418851062e-04 +0.0000000000000000e+00 +9.9999998281488744e-01
3.3999999999999959e+00 +8.5386801954027813e+00 +0.0000000000000000e+00 +3.3999999799443503e+00 -1.8816155600858323e-04 +0.0000000000000000e+00 +9.9999998229761433e-01
3.4499999999999957e+00 +8.5386707180859602e+00 +0.0000000000000000e+00 +3.4499999790461389e+00 -1.9093113477073700e-04 +0.0000000000000000e+00 +9.9999998177265081e-01
3.4999999999999956e+00 +8.5386611022874987e+00 +0.0000000000000000e+00 +3.4999999781214872e+00 -1.9370082186713125e-04 +0.0000000000000000e+00 +9.9999998123999567e-01
3.5499999999999954e+00 +8.5386513480019453e+00 +0.0000000000000000e+00 +3.5499999771700104e+00 -1.9647061868019013e-04 +0.0000000000000000e+00 +9.9999998069964791e-01
3.5999999999999952e+00 +8.5386414552237788e+00 +0.0000000000000000e+00 +3.5999999761913237e+00 -1.9924052658260271e-04 +0.0000000000000000e+00 +9.9999998015160618e-01
3.6499999999999950e+00 +8.5386314239474128e+00 +0.0000000000000000e+00 +3.6499999751850427e+00 -2.0201054693732296e-04 +0.0000000000000000e+00 +9.9999997959586939e-01
3.6999999999999948e+00 +8.5386212541671895e+00 +0.0000000000000000e+00 +3.6999999741507823e+00 -2.0478068109756986e-04 +0.0000000000000000e+00 +9.9999997903243620e-01
3.7499999999999947e+00 +8.5386109458773838e+00 +0.0000000000000000e+00 +3.7499999730881579e+00 -2.0755093040682738e-04 +0.0000000000000000e+00 +9.9999997846130551e-01
3.7999999999999945e+00 +8.5386004990722064e+00 +0.0000000000000000e+00 +3.7999999719967845e+00 -2.1032129619884450e-04 +0.0000000000000000e+00 +9.9999997788247608e-01
3.8499999999999943e+00 +8.5385899137458008e+00 +0.0000000000000000e+00 +3.8499999708762771e+00 -2.1309177979763534e-04 +0.0000000000000000e+00 +9.9999997729594658e-01
3.8999999999999941e+00 +8.5385791898922427e+00 +0.0000000000000000e+00 +3.8999999697262506e+00 -2.1586238251747908e-04 +0.0000000000000000e+00 +9.9999997670171581e-01
3.9499999999999940e+00 +8.5385683275055424e+00 +0.0000000000000000e+00 +3.9499999685463201e+00 -2.1863310566292002e-04 +0.0000000000000000e+00 +9.9999997609978242e-01
3.9999999999999938e+00 +8.5385573265796477e+00 +0.0000000000000000e+00 +3.9999999673361004e+00 -2.2140395052876766e-04 +0.0000000000000000e+00 +9.9999997549014519e-01
4.0499999999999936e+00 +8.5385461871084392e+00 +0.0000000000000000e+00 +4.0499999660952062e+00 -2.2417491839995992e-04 +0.0000000000000000e+00 +9.9999997487280279e-01
4.0999999999999934e+00 +8.5385349090857368e+00 +0.0000000000000000e+00 +4.0999999648232519e+00 -2.2694601055005850e-04 +0.0000000000000000e+00 +9.9999997424775389e-01
4.1499999999999932e+00 +8.5385234925052931e+00 +0.0000000000000000e+00 +4.1499999635198526e+00 -2.2971722823974432e-04 +0.0000000000000000e+00 +9.9999997361499726e-01
4.1999999999999931e+00 +8.5385119373608003e+00 +0.0000000000000000e+00 +4.1999999621846227e+00 -2.3248857271668068e-04 +0.0000000000000000e+00 +9.9999997297453147e-01
4.2499999999999929e+00 +8.5385002436458883e+00 +0.0000000000000000e+00 +4.2499999608171768e+00 -2.3526004521551332e-04 +0.0000000000000000e+00 +9.9999997232635529e-01
4.2999999999999927e+00 +8.5384884113541251e+00 +0.0000000000000000e+00 +4.2999999594171294e+00 -2.3803164695787034e-04 +0.0000000000000000e+00 +9.9999997167046728e-01
4.3499999999999925e+00 +8.5384764404790179e+00 +0.0000000000000000e+00 +4.3499999579840951e+00 -2.4080337915236228e-04 +0.0000000000000000e+00 +9.9999997100686600e-01
4.3999999999999924e+00 +8.5384643310140156e+00 +0.0000000000000000e+00 +4.3999999565176875e+00 -2.4357524299458203e-04 +0.0000000000000000e+00 +9.9999997033555021e-01
4.4499999999999922e+00 +8.5384520829525048e+00 +0.0000000000000000e+00 +4.4499999550175211e+00 -2.4634723966710496e-04 +0.0000000000000000e+00 +9.9999996965651849e-01
4.4999999999999920e+00 +8.5384396962878153e+00 +0.0000000000000000e+00 +4.4999999534832105e+00 -2.4911937033948874e-04 +0.0000000000000000e+00 +9.9999996896976939e-01
4.5499999999999918e+00 +8.5384271710132182e+00 +0.0000000000000000e+00 +4.5499999519143692e+00 -2.5189163616827341e-04 +0.0000000000000000e+00 +9.9999996827530158e-01
4.5999999999999917e+00 +8.5384145071219262e+00 +0.0000000000000000e+00 +4.5999999503106119e+00 -2.5466403829698146e-04 +0.0000000000000000e+00 +9.9999996757311349e-01
4.6499999999999915e+00 +8.5384017046070966e+00 +0.0000000000000000e+00 +4.6499999486715522e+00 -2.5743657785611766e-04 +0.0000000000000000e+00 +9.9999996686320380e-01
4.6999999999999913e+00 +8.5383887634618301e+00 +0.0000000000000000e+00 +4.6999999469968037e+00 -2.6020925596316908e-04 +0.0000000000000000e+00 +9.9999996614557118e-01
4.7499999999999911e+00 +8.5383756836791722e+00 +0.0000000000000000e+00 +4.7499999452859809e+00 -2.6298207372260521e-04 +0.0000000000000000e+00 +9.9999996542021408e-01
4.7999999999999909e+00 +8.5383624652521117e+00 +0.0000000000000000e+00 +4.7999999435386966e+00 -2.6575503222587779e-04 +0.0000000000000000e+00 +9.9999996468713104e-01
4.8499999999999908e+00 +8.5383491081735858e+00 +0.0000000000000000e+00 +4.8499999417545654e+00 -2.6852813255142082e-04 +0.0000000000000000e+00 +9.9999996394632062e-01
4.8999999999999906e+00 +8.5383356124364749e+00 +0.0000000000000000e+00 +4.8999999399331999e+00 -2.7130137576465057e-04 +0.0000000000000000e+00 +9.9999996319778128e-01
4.9499999999999904e+00 +8.5383219780336095e+00 +0.0000000000000000e+00 +4.9499999380742148e+00 -2.7407476291796558e-04 +0.0000000000000000e+00 +9.9999996244151168e-01
4.9999999999999902e+00 +8.5383082049577670e+00 +0.0000000000000000e+00 +4.9999999361772227e+00 -2.7684829505074653e-04 +0.0000000000000000e+00 +9.9999996167751026e-01
5.0499999999999901e+00 +8.5382942932016714e+00 +0.0000000000000000e+00 +5.0499999342418374e+00 -2.7962197318935638e-04 +0.0000000000000000e+00 +9.9999996090577548e-01
5.0999999999999899e+00 +8.5382802427579971e+00 +0.0000000000000000e+00 +5.0999999322676715e+00 -2.8239579834714020e-04 +0.0000000000000000e+00 +9.9999996012630588e-01
5.1499999999999897e+00 +8.5382660536193686e+00 +0.0000000000000000e+00 +5.1499999302543387e+00 -2.8516977152442518e-04 +0.0000000000000000e+00 +9.9999995933910002e-01
5.1999999999999895e+00 +8.5382517257783608e+00 +0.0000000000000000e+00 +5.1999999282014526e+00 -2.8794389370852058e-04 +0.0000000000000000e+00 +9.9999995854415635e-01
5.2499999999999893e+00 +8.5382372592274987e+00 +0.0000000000000000e+00 +5.2499999261086252e+00 -2.9071816587371779e-04 +0.0000000000000000e+00 +9.9999995774147332e-01
5.2999999999999892e+00 +8.5382226539592576e+00 +0.0000000000000000e+00 +5.2999999239754709e+00 -2.9349258898129019e-04 +0.0000000000000000e+00 +9.9999995693104937e-01
5.3499999999999890e+00 +8.5382079099660686e+00 +0.0000000000000000e+00 +5.3499999218016017e+00 -2.9626716397949314e-04 +0.0000000000000000e+00 +9.9999995611288295e-01
5.3999999999999888e+00 +8.5381930272403128e+00 +0.0000000000000000e+00 +5.3999999195866302e+00 -2.9904189180356405e-04 +0.0000000000000000e+00 +9.9999995528697261e-01
5.4499999999999886e+00 +8.5381780057743253e+00 +0.0000000000000000e+00 +5.4499999173301701e+00 -3.0181677337572208e-04 +0.0000000000000000e+00 +9.9999995445331680e-01
5.4999999999999885e+00 +8.5381628455603966e+00 +0.0000000000000000e+00 +5.4999999150318333e+00 -3.0459180960516839e-04 +0.0000000000000000e+00 +9.9999995361191385e-01
5.5499999999999883e+00 +8.5381475465907712e+00 +0.0000000000000000e+00 +5.5499999126912325e+00 -3.0736700138808595e-04 +0.0000000000000000e+00 +9.9999995276276232e-01
5.5999999999999881e+00 +8.5381321088576492e+00 +0.0000000000000000e+00 +5.5999999103079805e+00 -3.1014234960763951e-04 +0.0000000000000000e+00 +9.9999995190586055e-01
5.6499999999999879e+00 +8.5381165323531878e+00 +0.0000000000000000e+00 +5.6499999078816892e+00 -3.1291785513397552e-04 +0.0000000000000000e+00 +9.9999995104120698e-01
5.6999999999999877e+00 +8.5381008170695001e+00 +0.0000000000000000e+00 +5.6999999054119712e+00 -3.1569351882422217e-04 +0.0000000000000000e+00 +9.9999995016880006e-01
5.7499999999999876e+00 +8.5380849629986564e+00 +0.0000000000000000e+00 +5.7499999028984394e+00 -3.1846934152248926e-04 +0.0000000000000000e+00 +9.9999994928863822e-01
5.7999999999999874e+00 +8.5380689701326844e+00 +0.0000000000000000e+00 +5.7999999003407057e+00 -3.2124532405986825e-04 +0.0000000000000000e+00 +9.9999994840071982e-01
5.8499999999999872e+00 +8.5380528384635728e+00 +0.0000000000000000e+00 +5.8499998977383818e+00 -3.2402146725443205e-04 +0.0000000000000000e+00 +9.9999994750504329e-01
5.8999999999999870e+00 +8.5380365679832675e+00 +0.0000000000000000e+00 +5.8999998950910806e+00 -3.2679777191123511e-04 +0.0000000000000000e+00 +9.9999994660160696e-01
