# field on trajectory
# s[mm] rx[mm] ry[mm] rz[mm] bx[T] by[T] bz[T]
0.0000000000000000e+00 +8.2850000000000001e+00 +0.0000000000000000e+00 +0.0000000000000000e+00 -2.6652172632480712e-02 -5.2493656707237402e-01 +5.2310899214880980e-03
5.0000000000000003e-02 +8.2849999307982785e+00 +0.0000000000000000e+00 +4.9999999999936144e-02 -2.6652248705070686e-02 -5.2493633458255529e-01 +5.2313006312670919e-03
1.0000000000000001e-01 +8.2849997231931365e+00 +0.0000000000000000e+00 +9.9999999999489192e-02 -2.6652343202569848e-02 -5.2493647662866771e-01 +5.2315138636273946e-03
1.5000000000000002e-01 +8.2849993771845387e+00 +0.0000000000000000e+00 +1.4999999999827601e-01 -2.6652456110759604e-02 -5.2493699245358127e-01 +5.2317296200131078e-03
2.0000000000000001e-01 +8.2849988927723484e+00 +0.0000000000000000e+00 +1.9999999999591350e-01 -2.6652587415422330e-02 -5.2493788130018404e-01 +5.2319479018684278e-03
2.5000000000000000e-01 +8.2849982699563309e+00 +0.0000000000000000e+00 +2.4999999999201855e-01 -2.6652737102341461e-02 -5.2493914241138084e-01 +5.2321687106376327e-03
2.9999999999999999e-01 +8.2849975087361543e+00 +0.0000000000000000e+00 +2.9999999998620802e-01 -2.6652905157301433e-02 -5.2494077503009473e-01 +5.2323920477651015e-03
3.4999999999999998e-01 +8.2849966091113867e+00 +0.0000000000000000e+00 +3.4999999997809883e-01 -2.6653091566087687e-02 -5.2494277839926495e-01 +5.2326179146952988e-03
3.9999999999999997e-01 +8.2849955710815006e+00 +0.0000000000000000e+00 +3.9999999996730784e-01 -2.6653296314486659e-02 -5.2494515176184819e-01 +5.2328463128727800e-03
4.4999999999999996e-01 +8.2849943946458708e+00 +0.0000000000000000e+00 +4.4999999995345186e-01 -2.6653519388285810e-02 -5.2494789436081857e-01 +5.2330772437421871e-03
4.9999999999999994e-01 +8.2849930798037743e+00 +0.0000000000000000e+00 +4.9999999993614780e-01 -2.6653760773273590e-02 -5.2495100543916673e-01 +5.2333107087482612e-03
5.4999999999999993e-01 +8.2849916265543904e+00 +0.0000000000000000e+00 +5.4999999991501247e-01 -2.6654020455239416e-02 -5.2495448423989954e-01 +5.2335467093358240e-03
5.9999999999999998e-01 +8.2849900348968024e+00 +0.0000000000000000e+00 +5.9999999988966279e-01 -2.6654298419973743e-02 -5.2495833000604231e-01 +5.2337852469497882e-03
6.5000000000000002e-01 +8.2849883048299962e+00 +0.0000000000000000e+00 +6.4999999985971546e-01 -2.6654594653267978e-02 -5.2496254198063508e-01 +5.2340263230351586e-03
7.0000000000000007e-01 +8.2849864363528614e+00 +0.0000000000000000e+00 +6.9999999982478744e-01 -2.6654909140914500e-02 -5.2496711940673546e-01 +5.2342699390370241e-03
7.5000000000000011e-01 +8.2849844294641901e+00 +0.0000000000000000e+00 +7.4999999978449550e-01 -2.6655241868706690e-02 -5.2497206152741771e-01 +5.2345160964005662e-03
8.0000000000000016e-01 +8.2849822841626803e+00 +0.0000000000000000e+00 +7.9999999973845637e-01 -2.6655592822438887e-02 -5.2497736758577174e-01 +5.2347647965710559e-03
8.5000000000000020e-01 +8.2849800004469341e+00 +0.0000000000000000e+00 +8.4999999968628681e-01 -2.6655961987906408e-02 -5.2498303682490421e-01 +5.2350160409938423e-03
9.0000000000000024e-01 +8.2849775783154538e+00 +0.0000000000000000e+00 +8.9999999962760369e-01 -2.6656349350905530e-02 -5.2498906848793758e-01 +5.2352698311143734e-03
9.5000000000000029e-01 +8.2849750177666515e+00 +0.0000000000000000e+00 +9.4999999956202363e-01 -2.6656754897233483e-02 -5.2499546181801071e-01 +5.2355261683781767e-03
1.0000000000000002e+00 +8.2849723187988413e+00 +0.0000000000000000e+00 +9.9999999948916340e-01 -2.6657178612688466e-02 -5.2500221605827835e-01 +5.2357850542308730e-03
1.0500000000000003e+00 +8.2849694814102417e+00 +0.0000000000000000e+00 +1.0499999994086398e+00 -2.6657620483069626e-02 -5.2500933045191112e-01 +5.2360464901181607e-03
1.1000000000000003e+00 +8.2849665055989785e+00 +0.0000000000000000e+00 +1.0999999993200693e+00 -2.6658080494177037e-02 -5.2501680424209551e-01 +5.2363104774858366e-03
1.1500000000000004e+00 +8.2849633913630800e+00 +0.0000000000000000e+00 +1.1499999992230687e+00 -2.6658558631811768e-02 -5.2502463667203370e-01 +5.2365770177797760e-03
1.2000000000000004e+00 +8.2849601387004803e+00 +0.0000000000000000e+00 +1.1999999991172545e+00 -2.6659054881775768e-02 -5.2503282698494302e-01 +5.2368461124459370e-03
1.2500000000000004e+00 +8.2849567476090211e+00 +0.0000000000000000e+00 +1.2499999990022435e+00 -2.6659569229871980e-02 -5.2504137442405718e-01 +5.2371177629303772e-03
1.3000000000000005e+00 +8.2849532180864500e+00 +0.0000000000000000e+00 +1.2999999988776523e+00 -2.6660101661904231e-02 -5.2505027823262462e-01 +5.2373919706792203e-03
1.3500000000000005e+00 +8.2849495501304169e+00 +0.0000000000000000e+00 +1.3499999987430973e+00 -2.6660652163677301e-02 -5.2505953765390989e-01 +5.2376687371386921e-03
1.4000000000000006e+00 +8.2849457437384828e+00 +0.0000000000000000e+00 +1.3999999985981950e+00 -2.6661220720996880e-02 -5.2506915193119152e-01 +5.2379480637550933e-03
1.4500000000000006e+00 +8.2849417989081111e+00 +0.0000000000000000e+00 +1.4499999984425622e+00 -2.6661807319669602e-02 -5.2507912030776438e-01 +5.2382299519748146e-03
1.5000000000000007e+00 +8.2849377156366746e+00 +0.0000000000000000e+00 +1.4999999982758152e+00 -2.6662411945502989e-02 -5.2508944202693775e-01 +5.2385144032443239e-03
1.5500000000000007e+00 +8.2849334939214518e+00 +0.0000000000000000e+00 +1.5499999980975705e+00 -2.6663034584305495e-02 -5.2510011633203646e-01 +5.2388014190101811e-03
1.6000000000000008e+00 +8.2849291337596291e+00 +0.0000000000000000e+00 +1.5999999979074444e+00 -2.6663675221886462e-02 -5.2511114246639934e-01 +5.2390910007190294e-03
1.6500000000000008e+00 +8.2849246351482986e+00 +0.0000000000000000e+00 +1.6499999977050535e+00 -2.6664333844056160e-02 -5.2512251967338042e-01 +5.2393831498175857e-03
1.7000000000000008e+00 +8.2849199980844599e+00 +0.0000000000000000e+00 +1.6999999974900140e+00 -2.6665010436625749e-02 -5.2513424719634894e-01 +5.2396778677526665e-03
1.7500000000000009e+00 +8.2849152225650222e+00 +0.0000000000000000e+00 +1.7499999972619422e+00 -2.6665704985407261e-02 -5.2514632427868768e-01 +5.2399751559711518e-03
1.8000000000000009e+00 +8.2849103085868006e+00 +0.0000000000000000e+00 +1.7999999970204543e+00 -2.6666417476213664e-02 -5.2515875016379510e-01 +5.2402750159200222e-03
1.8500000000000010e+00 +8.2849052561465193e+00 +0.0000000000000000e+00 +1.8499999967651668e+00 -2.6667147894858776e-02 -5.2517152409508283e-01 +5.2405774490463294e-03
1.9000000000000010e+00 +8.2849000652408105e+00 +0.0000000000000000e+00 +1.8999999964956957e+00 -2.6667896227157321e-02 -5.2518464531597819e-01 +5.2408824567972108e-03
1.9500000000000011e+00 +8.2848947358662155e+00 +0.0000000000000000e+00 +1.9499999962116574e+00 -2.6668662458924890e-02 -5.2519811306992159e-01 +5.2411900406198857e-03
2.0000000000000009e+00 +8.2848892680191835e+00 +0.0000000000000000e+00 +1.9999999959126680e+00 -2.6669446575977959e-02 -5.2521192660036764e-01 +5.2415002019616588e-03
2.0500000000000007e+00 +8.2848836616960710e+00 +0.0000000000000000e+00 +2.0499999955983434e+00 -2.6670248560838810e-02 -5.2522608495020395e-01 +5.2418129416184093e-03
2.1000000000000005e+00 +8.2848779168931461e+00 +0.0000000000000000e+00 +2.0999999952682997e+00 -2.6671068382850324e-02 -5.2524058636000248e-01 +5.2421282577801579e-03
2.1500000000000004e+00 +8.2848720336065842e+00 +0.0000000000000000e+00 +2.1499999949221533e+00 -2.6671906008060839e-02 -5.2525542886976628e-01 +5.2424461479856086e-03
2.2000000000000002e+00 +8.2848660118324737e+00 +0.0000000000000000e+00 +2.1999999945595197e+00 -2.6672761402519202e-02 -5.2527061051950885e-01 +5.2427666097736719e-03
2.2500000000000000e+00 +8.2848598515668108e+00 +0.0000000000000000e+00 +2.2499999941800151e+00 -2.6673634532274747e-02 -5.2528612934925734e-01 +5.2430896406834718e-03
2.2999999999999998e+00 +8.2848535528055045e+00 +0.0000000000000000e+00 +2.2999999937832549e+00 -2.6674525363377194e-02 -5.2530198339904788e-01 +5.2434152382543463e-03
2.3499999999999996e+00 +8.2848471155443750e+00 +0.0000000000000000e+00 +2.3499999933688556e+00 -2.6675433861876714e-02 -5.2531817070892972e-01 +5.2437434000258566e-03
2.3999999999999995e+00 +8.2848405397791556e+00 +0.0000000000000000e+00 +2.3999999929364328e+00 -2.6676359993823867e-02 -5.2533468931896110e-01 +5.2440741235378029e-03
2.4499999999999993e+00 +8.2848338255054887e+00 +0.0000000000000000e+00 +2.4499999924856022e+00 -2.6677303725269580e-02 -5.2535153726921280e-01 +5.2444074063302069e-03
2.4999999999999991e+00 +8.2848269727189336e+00 +0.0000000000000000e+00 +2.4999999920159794e+00 -2.6678265022265103e-02 -5.2536871259976559e-01 +5.2447432459433521e-03
2.5499999999999989e+00 +8.2848199814149623e+00 +0.0000000000000000e+00 +2.5499999915271800e+00 -2.6679243850862018e-02 -5.2538621335071012e-01 +5.2450816399177563e-03
2.5999999999999988e+00 +8.2848128515889599e+00 +0.0000000000000000e+00 +2.5999999910188198e+00 -2.6680240177112194e-02 -5.2540403756214704e-01 +5.2454225857942009e-03
2.6499999999999986e+00 +8.2848055832362277e+00 +0.0000000000000000e+00 +2.6499999904905143e+00 -2.6681253967067772e-02 -5.2542218327418777e-01 +5.2457660811137379e-03
2.6999999999999984e+00 +8.2847981763519805e+00 +0.0000000000000000e+00 +2.6999999899418787e+00 -2.6682285186781125e-02 -5.2544064852695282e-01 +5.2461121234176778e-03
2.7499999999999982e+00 +8.2847906309313508e+00 +0.0000000000000000e+00 +2.7499999893725291e+00 -2.6683333802304879e-02 -5.2545943136057238e-01 +5.2464607102476147e-03
2.7999999999999980e+00 +8.2847829469693863e+00 +0.0000000000000000e+00 +2.7999999887820803e+00 -2.6684399779691784e-02 -5.2547852981518561e-01 +5.2468118391454186e-03
2.8499999999999979e+00 +8.2847751244610528e+00 +0.0000000000000000e+00 +2.8499999881701479e+00 -2.6685483084994813e-02 -5.2549794193094157e-01 +5.2471655076532595e-03
2.8999999999999977e+00 +8.2847671634012308e+00 +0.0000000000000000e+00 +2.8999999875363471e+00 -2.6686583684267080e-02 -5.2551766574799708e-01 +5.2475217133135981e-03
2.9499999999999975e+00 +8.2847590637847190e+00 +0.0000000000000000e+00 +2.9499999868802931e+00 -2.6687701543561784e-02 -5.2553769930651872e-01 +5.2478804536691976e-03
2.9999999999999973e+00 +8.2847508256062383e+00 +0.0000000000000000e+00 +2.9999999862016011e+00 -2.6688836628932275e-02 -5.2555804064668099e-01 +5.2482417262631311e-03
3.0499999999999972e+00 +8.2847424488604240e+00 +0.0000000000000000e+00 +3.0499999854998863e+00 -2.6689988906431910e-02 -5.2557868780866657e-01 +5.2486055286387907e-03
3.0999999999999970e+00 +8.2847339335418315e+00 +0.0000000000000000e+00 +3.0999999847747639e+00 -2.6691158342114121e-02 -5.2559963883266636e-01 +5.2489718583398886e-03
3.1499999999999968e+00 +8.2847252796449382e+00 +0.0000000000000000e+00 +3.1499999840258486e+00 -2.6692344902032362e-02 -5.2562089175887949e-01 +5.2493407129104693e-03
3.1999999999999966e+00 +8.2847164871641414e+00 +0.0000000000000000e+00 +3.1999999832527553e+00 -2.6693548552240091e-02 -5.2564244462751208e-01 +5.2497120898949085e-03
3.2499999999999964e+00 +8.2847075560937586e+00 +0.0000000000000000e+00 +3.2499999824550989e+00 -2.6694769258790708e-02 -5.2566429547877791e-01 +5.2500859868379263e-03
3.2999999999999963e+00 +8.2846984864280273e+00 +0.0000000000000000e+00 +3.2999999816324945e+00 -2.6696006987737581e-02 -5.2568644235289819e-01 +5.2504624012845924e-03
3.3499999999999961e+00 +8.2846892781611086e+00 +0.0000000000000000e+00 +3.3499999807845566e+00 -2.6697261705133989e-02 -5.2570888329010146e-01 +5.2508413307803363e-03
3.3999999999999959e+00 +8.2846799312870871e+00 +0.0000000000000000e+00 +3.3999999799109002e+00 -2.6698533377033113e-02 -5.2573161633062204e-01 +5.2512227728709416e-03
3.4499999999999957e+00 +8.2846704457999678e+00 +0.0000000000000000e+00 +3.4499999790111393e+00 -2.6699821969488016e-02 -5.2575463951470225e-01 +5.2516067251025681e-03
3.4999999999999956e+00 +8.2846608216936826e+00 +0.0000000000000000e+00 +3.4999999780848889e+00 -2.6701127448551583e-02 -5.2577795088258938e-01 +5.2519931850217444e-03
3.5499999999999954e+00 +8.2846510589620834e+00 +0.0000000000000000e+00 +3.5499999771317636e+00 -2.6702449780276544e-02 -5.2580154847453831e-01 +5.2523821501753920e-03
3.5999999999999952e+00 +8.2846411575989496e+00 +0.0000000000000000e+00 +3.5999999761513779e+00 -2.6703788930715417e-02 -5.2582543033080897e-01 +5.2527736181108070e-03
3.6499999999999950e+00 +8.2846311175979839e+00 +0.0000000000000000e+00 +3.6499999751433458e+00 -2.6705144865920492e-02 -5.2584959449166757e-01 +5.2531675863756871e-03
3.6999999999999948e+00 +8.2846209389528163e+00 +0.0000000000000000e+00 +3.6999999741072815e+00 -2.6706517551943816e-02 -5.2587403899738572e-01 +5.2535640525181396e-03
3.7499999999999947e+00 +8.2846106216570021e+00 +0.0000000000000000e+00 +3.7499999730427995e+00 -2.6707906954837143e-02 -5.2589876188824036e-01 +5.2539630140866680e-03
3.7999999999999945e+00 +8.2846001657040222e+00 +0.0000000000000000e+00 +3.7999999719495139e+00 -2.6709313040651959e-02 -5.2592376120451412e-01 +5.2543644686301998e-03
3.8499999999999943e+00 +8.2845895710872863e+00 +0.0000000000000000e+00 +3.8499999708270387e+00 -2.6710735775439365e-02 -5.2594903498649370e-01 +5.2547684136980749e-03
3.8999999999999941e+00 +8.2845788378001295e+00 +0.0000000000000000e+00 +3.8999999696749881e+00 -2.6712175125250190e-02 -5.2597458127447139e-01 +5.2551748468400699e-03
3.9499999999999940e+00 +8.2845679658358176e+00 +0.0000000000000000e+00 +3.9499999684929761e+00 -2.6713631056134824e-02 -5.2600039810874399e-01 +5.2555837656063946e-03
3.9999999999999938e+00 +8.2845569551875435e+00 +0.0000000000000000e+00 +3.9999999672806164e+00 -2.6715103534143279e-02 -5.2602648352961223e-01 +5.2559951675476974e-03
4.0499999999999936e+00 +8.2845458058484294e+00 +0.0000000000000000e+00 +4.0499999660375225e+00 -2.6716592501152825e-02 -5.2605283544562764e-01 +5.2564090499804452e-03
4.0999999999999934e+00 +8.2845345178115295e+00 +0.0000000000000000e+00 +4.0999999647633087e+00 -2.6718097802351227e-02 -5.2607945123833255e-01 +5.2568254092829024e-03
4.1499999999999932e+00 +8.2845230910698238e+00 +0.0000000000000000e+00 +4.1499999634575886e+00 -2.6719619258754618e-02 -5.2610632815751734e-01 +5.2572442415987830e-03
4.1999999999999931e+00 +8.2845115256162281e+00 +0.0000000000000000e+00 +4.1999999621199757e+00 -2.6721156691380022e-02 -5.2613346345297707e-01 +5.2576655430718652e-03
4.2499999999999929e+00 +8.2844998214435872e+00 +0.0000000000000000e+00 +4.2499999607500829e+00 -2.6722709921245359e-02 -5.2616085437450932e-01 +5.2580893098459619e-03
4.2999999999999927e+00 +8.2844879785446803e+00 +0.0000000000000000e+00 +4.2999999593475247e+00 -2.6724278769369537e-02 -5.2618849817191371e-01 +5.2585155380649225e-03
4.3499999999999925e+00 +8.2844759969122173e+00 +0.0000000000000000e+00 +4.3499999579119137e+00 -2.6725863056772360e-02 -5.2621639209499282e-01 +5.2589442238726433e-03
4.3999999999999924e+00 +8.2844638765388456e+00 +0.0000000000000000e+00 +4.3999999564428629e+00 -2.6727462604474648e-02 -5.2624453339355248e-01 +5.2593753634130385e-03
4.4499999999999922e+00 +8.2844516174171456e+00 +0.0000000000000000e+00 +4.4499999549399858e+00 -2.6729077233498162e-02 -5.2627291931739917e-01 +5.2598089528300409e-03
4.4999999999999920e+00 +8.2844392195396317e+00 +0.0000000000000000e+00 +4.4999999534028960e+00 -2.6730706764865678e-02 -5.2630154711634192e-01 +5.2602449882676126e-03
4.5499999999999918e+00 +8.2844266828987578e+00 +0.0000000000000000e+00 +4.5499999518312064e+00 -2.6732351019600999e-02 -5.2633041404019154e-01 +5.2606834658697130e-03
4.5999999999999917e+00 +8.2844140074869124e+00 +0.0000000000000000e+00 +4.5999999502245297e+00 -2.6734009818728942e-02 -5.2635951733876030e-01 +5.2611243817803164e-03
4.6499999999999915e+00 +8.2844011932964214e+00 +0.0000000000000000e+00 +4.6499999485824786e+00 -2.6735682983275395e-02 -5.2638885426186144e-01 +5.2615677321433919e-03
4.6999999999999913e+00 +8.2843882403195526e+00 +0.0000000000000000e+00 +4.6999999469046667e+00 -2.6737370334267284e-02 -5.2641842205930922e-01 +5.2620135131029025e-03
4.7499999999999911e+00 +8.2843751485485075e+00 +0.0000000000000000e+00 +4.7499999451907060e+00 -2.6739071692732635e-02 -5.2644821798091890e-01 +5.2624617208027981e-03
4.7999999999999909e+00 +8.2843619179754331e+00 +0.0000000000000000e+00 +4.7999999434402092e+00 -2.6740786879700575e-02 -5.2647823927650628e-01 +5.2629123513870148e-03
4.8499999999999908e+00 +8.2843485485924120e+00 +0.0000000000000000e+00 +4.8499999416527890e+00 -2.6742515716201329e-02 -5.2650848319588739e-01 +5.2633654009994636e-03
4.8999999999999906e+00 +8.2843350403914719e+00 +0.0000000000000000e+00 +4.8999999398280583e+00 -2.6744258023266267e-02 -5.2653894698887849e-01 +5.2638208657840250e-03
4.9499999999999904e+00 +8.2843213933645803e+00 +0.0000000000000000e+00 +4.9499999379656288e+00 -2.6746013621927904e-02 -5.2656962790529571e-01 +5.2642787418845424e-03
4.9999999999999902e+00 +8.2843076075036475e+00 +0.0000000000000000e+00 +4.9999999360651133e+00 -2.6747782333219915e-02 -5.2660052319495498e-01 +5.2647390254448286e-03
5.0499999999999901e+00 +8.2842936828005289e+00 +0.0000000000000000e+00 +5.0499999341261237e+00 -2.6749563978177147e-02 -5.2663163010767156e-01 +5.2652017126086342e-03
5.0999999999999899e+00 +8.2842796192470214e+00 +0.0000000000000000e+00 +5.0999999321482719e+00 -2.6751358377835648e-02 -5.2666294589326024e-01 +5.2656667995196697e-03
5.1499999999999897e+00 +8.2842654168348702e+00 +0.0000000000000000e+00 +5.1499999301311705e+00 -2.6753165353232706e-02 -5.2669446780153495e-01 +5.2661342823215867e-03
5.1999999999999895e+00 +8.2842510755557637e+00 +0.0000000000000000e+00 +5.1999999280744316e+00 -2.6754984725406789e-02 -5.2672619308230773e-01 +5.2666041571579727e-03
5.2499999999999893e+00 +8.2842365954013388e+00 +0.0000000000000000e+00 +5.2499999259776668e+00 -2.6756816315397662e-02 -5.2675811898539016e-01 +5.2670764201723412e-03
5.2999999999999892e+00 +8.2842219763631775e+00 +0.0000000000000000e+00 +5.2999999238404882e+00 -2.6758659944246282e-02 -5.2679024276059128e-01 +5.2675510675081342e-03
5.3499999999999890e+00 +8.2842072184328099e+00 +0.0000000000000000e+00 +5.3499999216625067e+00 -2.6760515432994965e-02 -5.2682256165771946e-01 +5.2680280953087176e-03
5.3999999999999888e+00 +8.2841923216017150e+00 +0.0000000000000000e+00 +5.3999999194433350e+00 -2.6762382602687269e-02 -5.2685507292658018e-01 +5.2685074997173642e-03
5.4499999999999886e+00 +8.2841772858613201e+00 +0.0000000000000000e+00 +5.4499999171825841e+00 -2.6764261274368078e-02 -5.2688777381697671e-01 +5.2689892768772563e-03
5.4999999999999885e+00 +8.2841621112030062e+00 +0.0000000000000000e+00 +5.4999999148798651e+00 -2.6766151269083601e-02 -5.2692066157870998e-01 +5.2694734229314826e-03
5.5499999999999883e+00 +8.2841467976180994e+00 +0.0000000000000000e+00 +5.5499999125347905e+00 -2.6768052407881392e-02 -5.2695373346157914e-01 +5.2699599340230267e-03
5.5999999999999881e+00 +8.2841313450978831e+00 +0.0000000000000000e+00 +5.5999999101469706e+00 -2.6769964511810365e-02 -5.2698698671537814e-01 +5.2704488062947589e-03
5.6499999999999879e+00 +8.2841157536335874e+00 +0.0000000000000000e+00 +5.6499999077160172e+00 -2.6771887401920807e-02 -5.2702041858990067e-01 +5.2709400358894364e-03
5.6999999999999877e+00 +8.2841000232163999e+00 +0.0000000000000000e+00 +5.6999999052415404e+00 -2.6773820899264399e-02 -5.2705402633493470e-01 +5.2714336189497030e-03
5.7499999999999876e+00 +8.2840841538374583e+00 +0.0000000000000000e+00 +5.7499999027231521e+00 -2.6775764824894226e-02 -5.2708780720026638e-01 +5.2719295516180662e-03
5.7999999999999874e+00 +8.2840681454878577e+00 +0.0000000000000000e+00 +5.7999999001604632e+00 -2.6777718999864829e-02 -5.2712175843567655e-01 +5.2724278300369078e-03
5.8499999999999872e+00 +8.2840519981586453e+00 +0.0000000000000000e+00 +5.8499998975530847e+00 -2.6779683245232125e-02 -5.2715587729094326e-01 +5.2729284503484665e-03
5.8999999999999870e+00 +8.2840357118408274e+00 +0.0000000000000000e+00 +5.8999998949006267e+00 -2.6781657382053552e-02 -5.2719016101583993e-01 +5.2734314086948465e-03
