# field on trajectory
# s[mm] rx[mm] ry[mm] rz[mm] bx[T] by[T] bz[T]
0.0000000000000000e+00 +8.5389999999999997e+00 +0.0000000000000000e+00 +0.0000000000000000e+00 -2.9620211000662582e-02 -5.5177159896405403e-01 +4.9626140790669220e-03
-5.0000000000000003e-02 +8.5389999308487372e+00 +0.0000000000000000e+00 -4.9999999999936241e-02 -2.9619591464030891e-02 -5.5177279598355056e-01 +4.9644483096851419e-03
-1.0000000000000001e-01 +8.5389997233947348e+00 +0.0000000000000000e+00 -9.9999999999489941e-02 -2.9618992965987963e-02 -5.5177434630620537e-01 +4.9662947135160722e-03
-1.5000000000000002e-01 +8.5389993776376034e+00 +0.0000000000000000e+00 -1.4999999999827851e-01 -2.9618415464356597e-02 -5.5177624907291467e-01 +4.9681531136778730e-03
-2.0000000000000001e-01 +8.5389988935768670e+00 +0.0000000000000000e+00 -1.9999999999591944e-01 -2.9617858916960251e-02 -5.5177850342459178e-01 +4.9700233332891329e-03
-2.5000000000000000e-01 +8.5389982712119590e+00 +0.0000000000000000e+00 -2.4999999999203013e-01 -2.9617323281623083e-02 -5.5178110850216622e-01 +4.9719051954688741e-03
-2.9999999999999999e-01 +8.5389975105422273e+00 +0.0000000000000000e+00 -2.9999999998622801e-01 -2.9616808516169931e-02 -5.5178406344658426e-01 +4.9737985233365371e-03
-3.4999999999999998e-01 +8.5389966115669313e+00 +0.0000000000000000e+00 -3.4999999997813053e-01 -2.9616314578426343e-02 -5.5178736739880851e-01 +4.9757031400119896e-03
-3.9999999999999997e-01 +8.5389955742852433e+00 +0.0000000000000000e+00 -3.9999999996735508e-01 -2.9615841426218537e-02 -5.5179101949981813e-01 +4.9776188686155003e-03
-4.4999999999999996e-01 +8.5389943986962482e+00 +0.0000000000000000e+00 -4.4999999995351903e-01 -2.9615389017373397e-02 -5.5179501889060811e-01 +4.9795455322677517e-03
-4.9999999999999994e-01 +8.5389930847989426e+00 +0.0000000000000000e+00 -4.9999999993623984e-01 -2.9614957309718495e-02 -5.5179936471218982e-01 +4.9814829540898208e-03
-5.4999999999999993e-01 +8.5389916325922375e+00 +0.0000000000000000e+00 -5.4999999991513482e-01 -2.9614546261082057e-02 -5.5180405610559080e-01 +4.9834309572031783e-03
-5.9999999999999998e-01 +8.5389900420749569e+00 +0.0000000000000000e+00 -5.9999999988982144e-01 -2.9614155829292981e-02 -5.5180909221185370e-01 +4.9853893647296846e-03
-6.5000000000000002e-01 +8.5389883132458380e+00 +0.0000000000000000e+00 -6.4999999985991697e-01 -2.9613785972180829e-02 -5.5181447217203805e-01 +4.9873579997915789e-03
-7.0000000000000007e-01 +8.5389864461035341e+00 +0.0000000000000000e+00 -6.9999999982503880e-01 -2.9613436647575798e-02 -5.5182019512721758e-01 +4.9893366855114805e-03
-7.5000000000000011e-01 +8.5389844406466100e+00 +0.0000000000000000e+00 -7.4999999978480425e-01 -2.9613107813308746e-02 -5.5182626021848324e-01 +4.9913252450123676e-03
-8.0000000000000016e-01 +8.5389822968735452e+00 +0.0000000000000000e+00 -7.9999999973883074e-01 -2.9612799427211161e-02 -5.5183266658693997e-01 +4.9933235014175932e-03
-8.5000000000000020e-01 +8.5389800147827337e+00 +0.0000000000000000e+00 -8.4999999968673545e-01 -2.9612511447115200e-02 -5.5183941337370868e-01 +4.9953312778508582e-03
-9.0000000000000024e-01 +8.5389775943724846e+00 +0.0000000000000000e+00 -8.9999999962813571e-01 -2.9612243830853646e-02 -5.5184649971992550e-01 +4.9973483974362250e-03
-9.5000000000000029e-01 +8.5389750356410214e+00 +0.0000000000000000e+00 -9.4999999956264869e-01 -2.9611996536259864e-02 -5.5185392476674122e-01 +4.9993746832980831e-03
-1.0000000000000002e+00 +8.5389723385864844e+00 +0.0000000000000000e+00 -9.9999999948989171e-01 -2.9611769521167911e-02 -5.5186168765532195e-01 +5.0014099585611819e-03
-1.0500000000000003e+00 +8.5389695032069266e+00 +0.0000000000000000e+00 -1.0499999994094820e+00 -2.9611562743412447e-02 -5.5186978752684901e-01 +5.0034540463505901e-03
-1.1000000000000003e+00 +8.5389665295003176e+00 +0.0000000000000000e+00 -1.0999999993210368e+00 -2.9611376160828717e-02 -5.5187822352251714e-01 +5.0055067697917024e-03
-1.1500000000000004e+00 +8.5389634174645437e+00 +0.0000000000000000e+00 -1.1499999992241732e+00 -2.9611209731252613e-02 -5.5188699478353720e-01 +5.0075679520102468e-03
-1.2000000000000004e+00 +8.5389601670974056e+00 +0.0000000000000000e+00 -1.1999999991185084e+00 -2.9611063412520618e-02 -5.5189610045113391e-01 +5.0096374161322484e-03
-1.2500000000000004e+00 +8.5389567783966225e+00 +0.0000000000000000e+00 -1.2499999990036597e+00 -2.9610937162469833e-02 -5.5190553966654587e-01 +5.0117149852840562e-03
-1.3000000000000005e+00 +8.5389532513598265e+00 +0.0000000000000000e+00 -1.2999999988792439e+00 -2.9610830938937929e-02 -5.5191531157102736e-01 +5.0138004825923113e-03
-1.3500000000000005e+00 +8.5389495859845699e+00 +0.0000000000000000e+00 -1.3499999987448783e+00 -2.9610744699763179e-02 -5.5192541530584494e-01 +5.0158937311839584e-03
-1.4000000000000006e+00 +8.5389457822683195e+00 +0.0000000000000000e+00 -1.3999999986001799e+00 -2.9610678402784470e-02 -5.5193585001228085e-01 +5.0179945541862260e-03
-1.4500000000000006e+00 +8.5389418402084605e+00 +0.0000000000000000e+00 -1.4499999984447656e+00 -2.9610632005841249e-02 -5.5194661483163054e-01 +5.0201027747266329e-03
-1.5000000000000007e+00 +8.5389377598022946e+00 +0.0000000000000000e+00 -1.4999999982782526e+00 -2.9610605466773562e-02 -5.5195770890520335e-01 +5.0222182159329739e-03
-1.5500000000000007e+00 +8.5389335410470402e+00 +0.0000000000000000e+00 -1.5499999981002577e+00 -2.9610598743421996e-02 -5.5196913137432257e-01 +5.0243407009333170e-03
-1.6000000000000008e+00 +8.5389291839398354e+00 +0.0000000000000000e+00 -1.5999999979103978e+00 -2.9610611793627738e-02 -5.5198088138032464e-01 +5.0264700528559877e-03
-1.6500000000000008e+00 +8.5389246884777350e+00 +0.0000000000000000e+00 -1.6499999977082900e+00 -2.9610644575232534e-02 -5.5199295806455961e-01 +5.0286060948295875e-03
-1.7000000000000008e+00 +8.5389200546577122e+00 +0.0000000000000000e+00 -1.6999999974935511e+00 -2.9610697046078677e-02 -5.5200536056839167e-01 +5.0307486499829596e-03
-1.7500000000000009e+00 +8.5389152824766565e+00 +0.0000000000000000e+00 -1.7499999972657980e+00 -2.9610769164009055e-02 -5.5201808803319707e-01 +5.0328975414451992e-03
-1.8000000000000009e+00 +8.5389103719313795e+00 +0.0000000000000000e+00 -1.7999999970246476e+00 -2.9610860886867058e-02 -5.5203113960036587e-01 +5.0350525923456438e-03
-1.8500000000000010e+00 +8.5389053230186089e+00 +0.0000000000000000e+00 -1.8499999967697165e+00 -2.9610972172496645e-02 -5.5204451441130153e-01 +5.0372136258138665e-03
-1.9000000000000010e+00 +8.5389001357349930e+00 +0.0000000000000000e+00 -1.8999999965006213e+00 -2.9611102978742330e-02 -5.5205821160741930e-01 +5.0393804649796672e-03
-1.9500000000000011e+00 +8.5388948100770996e+00 +0.0000000000000000e+00 -1.9499999962169792e+00 -2.9611253263449155e-02 -5.5207223033014829e-01 +5.0415529329730785e-03
-2.0000000000000009e+00 +8.5388893460414135e+00 +0.0000000000000000e+00 -1.9999999959184063e+00 -2.9611422984462701e-02 -5.5208656972093018e-01 +5.0437308529243394e-03
-2.0500000000000007e+00 +8.5388837436243410e+00 +0.0000000000000000e+00 -2.0499999956045194e+00 -2.9611612097364466e-02 -5.5210122874030421e-01 +5.0459140558319236e-03
-2.1000000000000005e+00 +8.5388780028222069e+00 +0.0000000000000000e+00 -2.0999999952749353e+00 -2.9611820548678343e-02 -5.5211620562516273e-01 +5.0481024041665410e-03
-2.1500000000000004e+00 +8.5388721236312595e+00 +0.0000000000000000e+00 -2.1499999949292703e+00 -2.9612048282664692e-02 -5.5213149843149634e-01 +5.0502957682669958e-03
-2.2000000000000002e+00 +8.5388661060476636e+00 +0.0000000000000000e+00 -2.1999999945671411e+00 -2.9612295243584972e-02 -5.5214710521530430e-01 +5.0524940184721459e-03
-2.2500000000000000e+00 +8.5388599500675078e+00 +0.0000000000000000e+00 -2.2499999941881641e+00 -2.9612561375701865e-02 -5.5216302403259854e-01 +5.0546970251208918e-03
-2.2999999999999998e+00 +8.5388536556868022e+00 +0.0000000000000000e+00 -2.2999999937919560e+00 -2.9612846623279180e-02 -5.5217925293939951e-01 +5.0569046585521539e-03
-2.3499999999999996e+00 +8.5388472229014809e+00 +0.0000000000000000e+00 -2.3499999933781326e+00 -2.9613150930581991e-02 -5.5219578999173924e-01 +5.0591167891048663e-03
-2.3999999999999995e+00 +8.5388406517073960e+00 +0.0000000000000000e+00 -2.3999999929463107e+00 -2.9613474241876634e-02 -5.5221263324565972e-01 +5.0613332871179660e-03
-2.4499999999999993e+00 +8.5388339421003288e+00 +0.0000000000000000e+00 -2.4499999924961067e+00 -2.9613816501430665e-02 -5.5222978075721230e-01 +5.0635540229303595e-03
-2.4999999999999991e+00 +8.5388270940759785e+00 +0.0000000000000000e+00 -2.4999999920271363e+00 -2.9614177653513010e-02 -5.5224723058245817e-01 +5.0657788668809411e-03
-2.5499999999999989e+00 +8.5388201076299737e+00 +0.0000000000000000e+00 -2.5499999915390159e+00 -2.9614557642393929e-02 -5.5226498077746822e-01 +5.0680076893085445e-03
-2.5999999999999988e+00 +8.5388129827578645e+00 +0.0000000000000000e+00 -2.5999999910313618e+00 -2.9614956412345031e-02 -5.5228302939832263e-01 +5.0702403605519626e-03
-2.6499999999999986e+00 +8.5388057194551266e+00 +0.0000000000000000e+00 -2.6499999905037903e+00 -2.9615373907639353e-02 -5.5230137450111050e-01 +5.0724767509499006e-03
-2.6999999999999984e+00 +8.5387983177171627e+00 +0.0000000000000000e+00 -2.6999999899559173e+00 -2.9615810072551312e-02 -5.5232001414192955e-01 +5.0747167308409823e-03
-2.7499999999999982e+00 +8.5387907775392993e+00 +0.0000000000000000e+00 -2.7499999893873586e+00 -2.9616264851356846e-02 -5.5233894637688741e-01 +5.0769601705637395e-03
-2.7999999999999980e+00 +8.5387830989167917e+00 +0.0000000000000000e+00 -2.7999999887977300e+00 -2.9616738188333339e-02 -5.5235816926209835e-01 +5.0792069404565808e-03
-2.8499999999999979e+00 +8.5387752818448224e+00 +0.0000000000000000e+00 -2.8499999881866480e+00 -2.9617230027759716e-02 -5.5237768085368699e-01 +5.0814569108577927e-03
-2.8999999999999977e+00 +8.5387673263185011e+00 +0.0000000000000000e+00 -2.8999999875537279e+00 -2.9617740313916448e-02 -5.5239747920778470e-01 +5.0837099521055217e-03
-2.9499999999999975e+00 +8.5387592323328647e+00 +0.0000000000000000e+00 -2.9499999868985860e+00 -2.9618268991085567e-02 -5.5241756238053130e-01 +5.0859659345377532e-03
-2.9999999999999973e+00 +8.5387509998828808e+00 +0.0000000000000000e+00 -2.9999999862208377e+00 -2.9618816003550746e-02 -5.5243792842807438e-01 +5.0882247284923078e-03
-3.0499999999999972e+00 +8.5387426289634423e+00 +0.0000000000000000e+00 -3.0499999855200990e+00 -2.9619381295597259e-02 -5.5245857540656873e-01 +5.0904862043068240e-03
-3.0999999999999970e+00 +8.5387341195693764e+00 +0.0000000000000000e+00 -3.0999999847959852e+00 -2.9619964811512082e-02 -5.5247950137217694e-01 +5.0927502323187390e-03
-3.1499999999999968e+00 +8.5387254716954377e+00 +0.0000000000000000e+00 -3.1499999840481121e+00 -2.9620566495583846e-02 -5.5250070438106880e-01 +5.0950166828652842e-03
-3.1999999999999966e+00 +8.5387166853363112e+00 +0.0000000000000000e+00 -3.1999999832760953e+00 -2.9621186292102954e-02 -5.5252218248942087e-01 +5.0972854262834643e-03
-3.2499999999999964e+00 +8.5387077604866128e+00 +0.0000000000000000e+00 -3.2499999824795500e+00 -2.9621824145361540e-02 -5.5254393375341648e-01 +5.0995563329100449e-03
-3.2999999999999963e+00 +8.5386986971408909e+00 +0.0000000000000000e+00 -3.2999999816580918e+00 -2.9622479999653530e-02 -5.5256595622924565e-01 +5.1018292730815405e-03
-3.3499999999999961e+00 +8.5386894952936263e+00 +0.0000000000000000e+00 -3.3499999808113361e+00 -2.9623153799274670e-02 -5.5258824797310457e-01 +5.1041041171341990e-03
-3.3999999999999959e+00 +8.5386801549392324e+00 +0.0000000000000000e+00 -3.3999999799388978e+00 -2.9623845488522538e-02 -5.5261080704119592e-01 +5.1063807354039840e-03
-3.4499999999999957e+00 +8.5386706760720532e+00 +0.0000000000000000e+00 -3.4499999790403928e+00 -2.9624555011696585e-02 -5.5263363148972844e-01 +5.1086589982265737e-03
-3.4999999999999956e+00 +8.5386610586863689e+00 +0.0000000000000000e+00 -3.4999999781154356e+00 -2.9625282313098199e-02 -5.5265671937491667e-01 +5.1109387759373306e-03
-3.5499999999999954e+00 +8.5386513027763922e+00 +0.0000000000000000e+00 -3.5499999771636417e+00 -2.9626027337030673e-02 -5.5268006875298048e-01 +5.1132199388712954e-03
-3.5999999999999952e+00 +8.5386414083362698e+00 +0.0000000000000000e+00 -3.5999999761846264e+00 -2.9626790027799280e-02 -5.5270367768014572e-01 +5.1155023573631843e-03
-3.6499999999999950e+00 +8.5386313753600849e+00 +0.0000000000000000e+00 -3.6499999751780043e+00 -2.9627570329711254e-02 -5.5272754421264270e-01 +5.1177859017473449e-03
-3.6999999999999948e+00 +8.5386212038418563e+00 +0.0000000000000000e+00 -3.6999999741433904e+00 -2.9628368187075906e-02 -5.5275166640670748e-01 +5.1200704423577789e-03
-3.7499999999999947e+00 +8.5386108937755374e+00 +0.0000000000000000e+00 -3.7499999730803997e+00 -2.9629183544204546e-02 -5.5277604231858091e-01 +5.1223558495280975e-03
-3.7999999999999945e+00 +8.5386004451550175e+00 +0.0000000000000000e+00 -3.7999999719886470e+00 -2.9630016345410619e-02 -5.5280067000450828e-01 +5.1246419935915303e-03
-3.8499999999999943e+00 +8.5385898579741237e+00 +0.0000000000000000e+00 -3.8499999708677470e+00 -2.9630866535009633e-02 -5.5282554752073942e-01 +5.1269287448808942e-03
-3.8999999999999941e+00 +8.5385791322266211e+00 +0.0000000000000000e+00 -3.8999999697173147e+00 -2.9631734057319271e-02 -5.5285067292352830e-01 +5.1292159737285929e-03
-3.9499999999999940e+00 +8.5385682679062125e+00 +0.0000000000000000e+00 -3.9499999685369640e+00 -2.9632618856659378e-02 -5.5287604426913317e-01 +5.1315035504665924e-03
-3.9999999999999938e+00 +8.5385572650065384e+00 +0.0000000000000000e+00 -3.9999999673263100e+00 -2.9633520877351990e-02 -5.5290165961381621e-01 +5.1337913454264110e-03
-4.0499999999999936e+00 +8.5385461235211793e+00 +0.0000000000000000e+00 -4.0499999660849673e+00 -2.9634440029555276e-02 -5.5292751688757702e-01 +5.1360792320152560e-03
-4.0999999999999934e+00 +8.5385348434436530e+00 +0.0000000000000000e+00 -4.0999999648125494e+00 -2.9635376086763608e-02 -5.5295361351535188e-01 +5.1383670959445045e-03
-4.1499999999999932e+00 +8.5385234247674191e+00 +0.0000000000000000e+00 -4.1499999635086713e+00 -2.9636328788303856e-02 -5.5297994679581164e-01 +5.1406548260013625e-03
-4.1999999999999931e+00 +8.5385118674858766e+00 +0.0000000000000000e+00 -4.1999999621729476e+00 -2.9637297873501278e-02 -5.5300651402762846e-01 +5.1429423109726957e-03
-4.2499999999999929e+00 +8.5385001715923661e+00 +0.0000000000000000e+00 -4.2499999608049919e+00 -2.9638283081679425e-02 -5.5303331250947518e-01 +5.1452294396450238e-03
-4.2999999999999927e+00 +8.5384883370801727e+00 +0.0000000000000000e+00 -4.2999999594044187e+00 -2.9639284152160019e-02 -5.5306033954002487e-01 +5.1475161008045179e-03
-4.3499999999999925e+00 +8.5384763639425199e+00 +0.0000000000000000e+00 -4.3499999579708426e+00 -2.9640300824262916e-02 -5.5308759241795091e-01 +5.1498021832369891e-03
-4.3999999999999924e+00 +8.5384642521725773e+00 +0.0000000000000000e+00 -4.3999999565038772e+00 -2.9641332837305995e-02 -5.5311506844192693e-01 +5.1520875757278713e-03
-4.4499999999999922e+00 +8.5384520017634600e+00 +0.0000000000000000e+00 -4.4499999550031362e+00 -2.9642379930605037e-02 -5.5314276491062586e-01 +5.1543721670622260e-03
-4.4999999999999920e+00 +8.5384396127082240e+00 +0.0000000000000000e+00 -4.4999999534682331e+00 -2.9643441843473742e-02 -5.5317067912272022e-01 +5.1566558460247247e-03
-4.5499999999999918e+00 +8.5384270849998742e+00 +0.0000000000000000e+00 -4.5499999518987826e+00 -2.9644518315223502e-02 -5.5319880837688240e-01 +5.1589385013996406e-03
-4.5999999999999917e+00 +8.5384144186313584e+00 +0.0000000000000000e+00 -4.5999999502943973e+00 -2.9645609085163428e-02 -5.5322714997178224e-01 +5.1612200219708394e-03
-4.6499999999999915e+00 +8.5384016135955747e+00 +0.0000000000000000e+00 -4.6499999486546919e+00 -2.9646713892600218e-02 -5.5325570120609013e-01 +5.1635002965217764e-03
-4.6999999999999913e+00 +8.5383886698853662e+00 +0.0000000000000000e+00 -4.6999999469792799e+00 -2.9647832476838065e-02 -5.5328445937847315e-01 +5.1657792138354716e-03
-4.7499999999999911e+00 +8.5383755874935243e+00 +0.0000000000000000e+00 -4.7499999452677741e+00 -2.9648964577178590e-02 -5.5331342178759779e-01 +5.1680566626945276e-03
-4.7999999999999909e+00 +8.5383623664127892e+00 +0.0000000000000000e+00 -4.7999999435197882e+00 -2.9650109932920735e-02 -5.5334258573212813e-01 +5.1703325318810962e-03
-4.8499999999999908e+00 +8.5383490066358512e+00 +0.0000000000000000e+00 -4.8499999417349358e+00 -2.9651268283360680e-02 -5.5337194851072513e-01 +5.1726067101768693e-03
-4.8999999999999906e+00 +8.5383355081553525e+00 +0.0000000000000000e+00 -4.8999999399128296e+00 -2.9652439367791796e-02 -5.5340150742204841e-01 +5.1748790863630975e-03
-4.9499999999999904e+00 +8.5383218709638822e+00 +0.0000000000000000e+00 -4.9499999380530832e+00 -2.9653622925504490e-02 -5.5343125976475394e-01 +5.1771495492205482e-03
-4.9999999999999902e+00 +8.5383080950539831e+00 +0.0000000000000000e+00 -4.9999999361553105e+00 -2.9654818695786164e-02 -5.5346120283749489e-01 +5.1794179875295134e-03
-5.0499999999999901e+00 +8.5382941804181520e+00 +0.0000000000000000e+00 -5.0499999342191231e+00 -2.9656026417921113e-02 -5.5349133393892058e-01 +5.1816842900698021e-03
-5.0999999999999899e+00 +8.5382801270488358e+00 +0.0000000000000000e+00 -5.0999999322441347e+00 -2.9657245831190473e-02 -5.5352165036767742e-01 +5.1839483456207185e-03
-5.1499999999999897e+00 +8.5382659349384351e+00 +0.0000000000000000e+00 -5.1499999302299591e+00 -2.9658476674872061e-02 -5.5355214942240738e-01 +5.1862100429610758e-03
-5.1999999999999895e+00 +8.5382516040793046e+00 +0.0000000000000000e+00 -5.1999999281762079e+00 -2.9659718688240355e-02 -5.5358282840174866e-01 +5.1884692708691555e-03
-5.2499999999999893e+00 +8.5382371344637562e+00 +0.0000000000000000e+00 -5.2499999260824941e+00 -2.9660971610566376e-02 -5.5361368460433502e-01 +5.1907259181227291e-03
-5.2999999999999892e+00 +8.5382225260840556e+00 +0.0000000000000000e+00 -5.2999999239484303e+00 -2.9662235181117620e-02 -5.5364471532879511e-01 +5.1929798734990278e-03
-5.3499999999999890e+00 +8.5382077789324260e+00 +0.0000000000000000e+00 -5.3499999217736294e+00 -2.9663509139157961e-02 -5.5367591787375292e-01 +5.1952310257747485e-03
-5.3999999999999888e+00 +8.5381928930010442e+00 +0.0000000000000000e+00 -5.3999999195577040e+00 -2.9664793223947532e-02 -5.5370728953782766e-01 +5.1974792637260337e-03
-5.4499999999999886e+00 +8.5381778682820499e+00 +0.0000000000000000e+00 -5.4499999173002660e+00 -2.9666087174742714e-02 -5.5373882761963267e-01 +5.1997244761284658e-03
-5.4999999999999885e+00 +8.5381627047675366e+00 +0.0000000000000000e+00 -5.4999999150009282e+00 -2.9667390730795981e-02 -5.5377052941777549e-01 +5.2019665517570608e-03
-5.5499999999999883e+00 +8.5381474024495585e+00 +0.0000000000000000e+00 -5.5499999126593025e+00 -2.9668703631355840e-02 -5.5380239223085848e-01 +5.2042053793862576e-03
-5.5999999999999881e+00 +8.5381319613201292e+00 +0.0000000000000000e+00 -5.5999999102750015e+00 -2.9670025615666742e-02 -5.5383441335747685e-01 +5.2064408477899091e-03
-5.6499999999999879e+00 +8.5381163813712231e+00 +0.0000000000000000e+00 -5.6499999078476373e+00 -2.9671356422968996e-02 -5.5386659009621997e-01 +5.2086728457412688e-03
-5.6999999999999877e+00 +8.5381006625947737e+00 +0.0000000000000000e+00 -5.6999999053768216e+00 -2.9672695792498687e-02 -5.5389891974567018e-01 +5.2109012620129899e-03
-5.7499999999999876e+00 +8.5380848049826792e+00 +0.0000000000000000e+00 -5.7499999028621671e+00 -2.9674043463487572e-02 -5.5393139960440285e-01 +5.2131259853771114e-03
-5.7999999999999874e+00 +8.5380688085267984e+00 +0.0000000000000000e+00 -5.7999999003032849e+00 -2.9675399175163032e-02 -5.5396402697098668e-01 +5.2153469046050498e-03
-5.8499999999999872e+00 +8.5380526732189548e+00 +0.0000000000000000e+00 -5.8499998976997869e+00 -2.9676762666747888e-02 -5.5399679914398170e-01 +5.2175639084675891e-03
