# multipoles
# s[mm] polynom_b[n=0][T/m^n] polynom_b[n=1][T/m^n] polynom_b[n=2][T/m^n] polynom_b[n=3][T/m^n] polynom_b[n=4][T/m^n] polynom_b[n=5][T/m^n] polynom_b[n=6][T/m^n] 
+0.0000000000000000e+00 -5.2411115994004853e-01 +6.8972781614367369e+00 +4.6988859190172665e+00 -7.5637070167086975e+01 +7.1323898370153790e+02 +1.7076917219578798e+05 +1.4610917725110289e+07 
-5.0000000000000003e-02 -5.2410970769122656e-01 +6.8971534253570752e+00 +4.7047723121636116e+00 -7.6041342775521912e+01 +6.4528417613262627e+02 +1.7310512716809413e+05 +1.5074471052234154e+07 
-1.0000000000000001e-01 -5.2410860320387775e-01 +6.8970464653653183e+00 +4.7097243883207813e+00 -7.6408695976428291e+01 +5.9115178619147252e+02 +1.7520189150500897e+05 +1.5450898703276737e+07 
-1.5000000000000002e-01 -5.2410784606164540e-01 +6.8969572777496140e+00 +4.7137568491357840e+00 -7.6739973866433928e+01 +5.5045746996416938e+02 +1.7706585352071203e+05 +1.5742661051205035e+07 
-2.0000000000000001e-01 -5.2410743584819364e-01 +6.8968858587996031e+00 +4.7168843970359831e+00 -7.7036020579524106e+01 +5.2281686024626629e+02 +1.7870340184228634e+05 +1.5952218636683410e+07 
-2.5000000000000000e-01 -5.2410737214722469e-01 +6.8968322048052038e+00 +4.7191217383453949e+00 -7.7297680236553376e+01 +5.0784548504220680e+02 +1.8012092498893320e+05 +1.6082032705524603e+07 
-2.9999999999999999e-01 -5.2410765454241037e-01 +6.8967963120561580e+00 +4.7204835710512372e+00 -7.7525796937074603e+01 +5.0515909983492259e+02 +1.8132481134309192e+05 +1.6134562954042062e+07 
-3.4999999999999998e-01 -5.2410828261748055e-01 +6.8967781768481853e+00 +4.7209846010059602e+00 -7.7721214994829765e+01 +5.1437324033151708e+02 +1.8232145102152022e+05 +1.6112270594422003e+07 
-3.9999999999999997e-01 -5.2410925595613844e-01 +6.8967777954734277e+00 +4.7206395259628451e+00 -7.7884778562860802e+01 +5.3510366701960311e+02 +1.8311723286424359e+05 +1.6017615295125436e+07 
-4.4999999999999996e-01 -5.2411057414215312e-01 +6.8967951642260203e+00 +4.7194630531049189e+00 -7.8017331845796775e+01 +5.6696588050297703e+02 +1.8371854610349849e+05 +1.5853058499142572e+07 
-4.9999999999999994e-01 -5.2411223675926910e-01 +6.8968302794023622e+00 +4.7174698821126713e+00 -7.8119719135927028e+01 +6.0957558591572979e+02 +1.8413178078136253e+05 +1.5621060259963250e+07 
-5.4999999999999993e-01 -5.2411424339125612e-01 +6.8968831372989134e+00 +4.7146747145844898e+00 -7.8192784680354251e+01 +6.6254843272298262e+02 +1.8436332645740881e+05 +1.5324081022634897e+07 
-5.9999999999999998e-01 -5.2411659362190810e-01 +6.8969537342122651e+00 +4.7110922532567390e+00 -7.8237372732968950e+01 +7.2550004504037668e+02 +1.8441957286537442e+05 +1.4964581378558889e+07 
-6.5000000000000002e-01 -5.2411928703502020e-01 +6.8970420664431948e+00 +4.7067371984632871e+00 -7.8254327678135056e+01 +7.9804610770723798e+02 +1.8430691073627819e+05 +1.4545021528376598e+07 
-7.0000000000000007e-01 -5.2412232321442331e-01 +6.8971481302886781e+00 +4.7016242544718398e+00 -7.8244493733441786e+01 +8.7980219481439508e+02 +1.8403172948060214e+05 +1.4067862435199622e+07 
-7.5000000000000011e-01 -5.2412570174392936e-01 +6.8972719220501366e+00 +4.6957681186872877e+00 -7.8208715269032894e+01 +9.7038407476786756e+02 +1.8360041974591441e+05 +1.3535563713259138e+07 
-8.0000000000000016e-01 -5.2412942220740399e-01 +6.8974134380281731e+00 +4.6891834960137624e+00 -7.8147836604491971e+01 +1.0694073034567004e+03 +1.8301937178880032e+05 +1.2950586451684833e+07 
-8.5000000000000020e-01 -5.2413348418870320e-01 +6.8975726745261063e+00 +4.6818850863245904e+00 -7.8062702135269305e+01 +1.1764875776532303e+03 +1.8229497644156075e+05 +1.2315390768293140e+07 
-9.0000000000000024e-01 -5.2413788727171073e-01 +6.8977496278445507e+00 +4.6738875920292973e+00 -7.7954156136458991e+01 +1.2912405239373854e+03 +1.8143362361525893e+05 +1.1632437256908627e+07 
-9.5000000000000029e-01 -5.2414263104031300e-01 +6.8979442942886049e+00 +4.6652057129328979e+00 -7.7823043029766197e+01 +1.4132818390540365e+03 +1.8044170436043863e+05 +1.0904186042654349e+07 
-1.0000000000000002e+00 -5.2414771507842284e-01 +6.8981566701619537e+00 +4.6558541511207023e+00 -7.7670207161064084e+01 +1.5422271559099297e+03 +1.7932560913786016e+05 +1.0133097685109681e+07 
-1.0500000000000003e+00 -5.2415313896996829e-01 +6.8983867517694044e+00 +4.6458476084137938e+00 -7.7496492894448224e+01 +1.6776921161669745e+03 +1.7809172854052889e+05 +9.3216326803336516e+06 
-1.1000000000000003e+00 -5.2415890229888595e-01 +6.8986345354170222e+00 +4.6352007854611763e+00 -7.7302744628292615e+01 +1.8192923924265829e+03 +1.7674645346899479e+05 +8.4722513155591991e+06 
-1.1500000000000004e+00 -5.2416500464912152e-01 +6.8989000174109139e+00 +4.6239283818890167e+00 -7.7089806726743333e+01 +1.9666436825042072e+03 +1.7529617449557054e+05 +7.5874137178369779e+06 
-1.2000000000000004e+00 -5.2417144560466256e-01 +6.8991831940584110e+00 +4.6120451019283060e+00 -7.6858523586207525e+01 +2.1193615635900683e+03 +1.7374728248275991e+05 +6.6695808101304881e+06 
-1.2500000000000004e+00 -5.2417822474948150e-01 +6.8994840616665858e+00 +4.5995656442447332e+00 -7.6609739565758716e+01 +2.2770617593957845e+03 +1.7210616797022708e+05 +5.7212125449132398e+06 
-1.3000000000000005e+00 -5.2418534166757769e-01 +6.8998026165424129e+00 +4.5865047099935090e+00 -7.6344298992177130e+01 +2.4393599263697865e+03 +1.7037922122068945e+05 +4.7447693227075348e+06 
-1.3500000000000005e+00 -5.2419279594298074e-01 +6.9001388549975831e+00 +4.5728770026357646e+00 -7.6063046358929839e+01 +2.6058716609787712e+03 +1.6857283385382828e+05 +3.7427119413736034e+06 
-1.4000000000000006e+00 -5.2420058715970563e-01 +6.9004927733388994e+00 +4.5586972204796634e+00 -7.5766825937269516e+01 +2.7762126945320756e+03 +1.6669339566569048e+05 +2.7175003057214613e+06 
-1.4500000000000006e+00 -5.2420871490180909e-01 +6.9008643678772295e+00 +4.5439800666792980e+00 -7.5456482133838762e+01 +2.9499986304945724e+03 +1.6474729754598168e+05 +1.6715951660316424e+06 
-1.5000000000000007e+00 -5.2421717875335139e-01 +6.9012536349223037e+00 +4.5287402419729448e+00 -7.5132859283599700e+01 +3.1268451360840545e+03 +1.6274092978216731e+05 +6.0745685294700682e+05 
-1.5500000000000007e+00 -5.2422597829840489e-01 +6.9016605707846255e+00 +4.5129924468405687e+00 -7.4796801726587347e+01 +3.3063678851201398e+03 +1.6068068269351960e+05 -4.7245435076409526e+05 
-1.6000000000000008e+00 -5.2423511312106563e-01 +6.9020851717759246e+00 +4.4967513830414276e+00 -7.4449153826089173e+01 +3.4881825184669469e+03 +1.5857294678158563e+05 -1.5656779461523904e+06 
-1.6500000000000008e+00 -5.2424458280544806e-01 +6.9025274342081371e+00 +4.4800317532840150e+00 -7.4090759928255295e+01 +3.6719046482672647e+03 +1.5642411239288838e+05 -2.6697532307086256e+06 
-1.7000000000000008e+00 -5.2425438693566462e-01 +6.9029873543921196e+00 +4.4628482571930652e+00 -7.3722464300537382e+01 +3.8571499696856285e+03 +1.5424056919190497e+05 -3.7822200606150953e+06 
-1.7500000000000009e+00 -5.2426452509585919e-01 +6.9034649286415624e+00 +4.4452155968857641e+00 -7.3345111308325073e+01 +4.0435341144774607e+03 +1.5202870766277253e+05 -4.9006178806158770e+06 
-1.8000000000000009e+00 -5.2427499687018364e-01 +6.9039601532672368e+00 +4.4271484735585842e+00 -7.2959545157552554e+01 +4.2306727368549655e+03 +1.4979491692472875e+05 -6.0224862808624897e+06 
-1.8500000000000010e+00 -5.2428580184280937e-01 +6.9044730245834272e+00 +4.4086615896089363e+00 -7.2566610183382309e+01 +4.4181814536358524e+03 +1.4754558718245584e+05 -7.1453645785941342e+06 
-1.9000000000000010e+00 -5.2429693959791890e-01 +6.9050035389024300e+00 +4.3897696458497428e+00 -7.2167150595901091e+01 +4.6056759340432809e+03 +1.4528710754189838e+05 -8.2667924836067026e+06 
-1.9500000000000011e+00 -5.2430840971971493e-01 +6.9055516925383049e+00 +4.3704873448141299e+00 -7.1762010664685462e+01 +4.7927717936296240e+03 +1.4302586764102351e+05 -9.3843093194035720e+06 
-2.0000000000000009e+00 -5.2432021179241828e-01 +6.9061174818045119e+00 +4.3508293893555097e+00 -7.1352034587821549e+01 +4.9790846406658811e+03 +1.4076825643691060e+05 -1.0495454361731945e+07 
-2.0500000000000007e+00 -5.2433234519035365e-01 +6.9067008843919782e+00 +4.3308085669774510e+00 -7.0937928154274786e+01 +5.1642988685222608e+03 +1.3851945705083013e+05 -1.1598224746441308e+07 
-2.1000000000000005e+00 -5.2434480844771647e-01 +6.9073017990461372e+00 +4.3104304120363404e+00 -7.0519890573682375e+01 +5.3483734102992230e+03 +1.3628004479411014e+05 -1.2692438267867791e+07 
-2.1500000000000004e+00 -5.2435759988852426e-01 +6.9079201036534954e+00 +4.2896987494393146e+00 -7.0098006473495332e+01 +5.5313359145364038e+03 +1.3404949283106648e+05 -1.3778366574354904e+07 
-2.2000000000000002e+00 -5.2437071783683853e-01 +6.9085556761068494e+00 +4.2686174094300471e+00 -6.9672360720636462e+01 +5.7132138932661901e+03 +1.3182727625500038e+05 -1.4856280422091434e+07 
-2.2500000000000000e+00 -5.2438416061669157e-01 +6.9092083942964058e+00 +4.2471902151508791e+00 -6.9243038066800352e+01 +5.8940350430029685e+03 +1.2961286924744000e+05 -1.5926451781299261e+07 
-2.2999999999999998e+00 -5.2439792655215123e-01 +6.9098781361141706e+00 +4.2254209937543443e+00 -6.8810123313229113e+01 +6.0738269569053609e+03 +1.2740574637387502e+05 -1.6989151945572942e+07 
-2.3499999999999996e+00 -5.2441201396728976e-01 +6.9105647794497136e+00 +4.2033135712870067e+00 -6.8373701151018054e+01 +6.2526172565702145e+03 +1.2520538131652103e+05 -1.8044652396412943e+07 
-2.3999999999999995e+00 -5.2442642118619309e-01 +6.9112682021970180e+00 +4.1808717741516448e+00 -6.7933856433885111e+01 +6.4304335519167489e+03 +1.2301124909142744e+05 -1.9093224524869822e+07 
-2.4499999999999993e+00 -5.2444114653296303e-01 +6.9119882822466945e+00 +4.1580994291275575e+00 -6.7490673870028616e+01 +6.6073034484771943e+03 +1.2082282354990455e+05 -2.0135139715964187e+07 
-2.4999999999999991e+00 -5.2445618833169749e-01 +6.9127248974926330e+00 +4.1350003610167070e+00 -6.7044238275807032e+01 +6.7832545979683819e+03 +1.1863957939592606e+05 -2.1170669639307410e+07 
-2.5499999999999989e+00 -5.2447154490652415e-01 +6.9134779258267214e+00 +4.1115783975392404e+00 -6.6594634385625426e+01 +6.9583145782318443e+03 +1.1646099071891219e+05 -2.2200085483997520e+07 
-2.5999999999999988e+00 -5.2448721458157188e-01 +6.9142472451411834e+00 +4.0878373648661777e+00 -6.6141946927862477e+01 +7.1325110067208498e+03 +1.1428653154461279e+05 -2.3223658697167855e+07 
-2.6499999999999986e+00 -5.2450319568097248e-01 +6.9150327333305404e+00 +4.0637810873717584e+00 -6.5686260716703444e+01 +7.3058715528420917e+03 +1.1211567662337763e+05 -2.4241661089691285e+07 
-2.6999999999999984e+00 -5.2451948652888802e-01 +6.9158342682875960e+00 +4.0394133936059440e+00 -6.5227660479479908e+01 +7.4784237692034249e+03 +1.0994789998800521e+05 -2.5254363668734424e+07 
-2.7499999999999982e+00 -5.2453608544947017e-01 +6.9166517279069479e+00 +4.0147381079703699e+00 -6.4766231012110481e+01 +7.6501953218500839e+03 +1.0778267627481144e+05 -2.6262038210141428e+07 
-2.7999999999999980e+00 -5.2455299076690209e-01 +6.9174849900814417e+00 +3.9897590586301863e+00 -6.4302057018666503e+01 +7.8212137785901041e+03 +1.0561947933763379e+05 -2.7264955841006983e+07 
-2.8499999999999979e+00 -5.2457020080534866e-01 +6.9183339327057016e+00 +3.9644800690402060e+00 -6.3835223277809547e+01 +7.9915068310701954e+03 +1.0345778370743901e+05 -2.8263388511496846e+07 
-2.8999999999999977e+00 -5.2458771388901781e-01 +6.9191984336746728e+00 +3.9389049684555384e+00 -6.3365814563207643e+01 +8.1611020136861443e+03 +1.0129706385026671e+05 -2.9257607104167551e+07 
-2.9499999999999975e+00 -5.2460552834209406e-01 +6.9200783708824858e+00 +3.9130375799768857e+00 -6.2893915612072142e+01 +8.3300270322669730e+03 +9.9136793972635496e+04 -3.0247883682054337e+07 
-2.9999999999999973e+00 -5.2462364248880056e-01 +6.9209736222243707e+00 +3.8868817321175184e+00 -6.2419611189931814e+01 +8.4983094425937925e+03 +9.6976448498457001e+04 -3.1234489275041841e+07 
-3.0499999999999972e+00 -5.2464205465334790e-01 +6.9218840655946225e+00 +3.8604412497993925e+00 -6.1942986021816175e+01 +8.6659768969691868e+03 +9.4815501559882396e+04 -3.2217695568211362e+07 
-3.0999999999999970e+00 -5.2466076315997401e-01 +6.9228095788899626e+00 +3.8337199604327803e+00 -6.1464124928635044e+01 +8.8330569848372670e+03 +9.2653428107923814e+04 -3.3197773830297634e+07 
-3.1499999999999968e+00 -5.2467976633290292e-01 +6.9237500400031484e+00 +3.8067216880938530e+00 -6.0983112551562741e+01 +8.9995773828748479e+03 +9.0489701594805723e+04 -3.4174995914701559e+07 
-3.1999999999999966e+00 -5.2469906249639087e-01 +6.9247053268310665e+00 +3.7794502605232592e+00 -6.0500033706350635e+01 +9.1655656706406426e+03 +8.8323796974490368e+04 -3.5149633020054847e+07 
-3.2499999999999964e+00 -5.2471864997467965e-01 +6.9256753172686789e+00 +3.7519095016159749e+00 -6.0014973106855649e+01 +9.3310495317169843e+03 +8.6155188313443025e+04 -3.6121957049916416e+07 
-3.2999999999999963e+00 -5.2473852709204571e-01 +6.9266598892118800e+00 +3.7241032400223681e+00 -5.9528015517217717e+01 +9.4960565190016860e+03 +8.3983350183347022e+04 -3.7092239014135420e+07 
-3.3499999999999961e+00 -5.2475869217275772e-01 +6.9276589205572421e+00 +3.6960353011699190e+00 -5.9039245717760515e+01 +9.6606142771506475e+03 +8.1807757279044046e+04 -3.8060750559139021e+07 
-3.3999999999999959e+00 -5.2477914354109145e-01 +6.9286722891991861e+00 +3.6677095107776228e+00 -5.8548748394825736e+01 +9.8247504387061035e+03 +7.9627883543548567e+04 -3.9027763232826129e+07 
-3.4499999999999957e+00 -5.2479987952133145e-01 +6.9296998730342061e+00 +3.6391296940470155e+00 -5.8056608316504835e+01 +9.9884926579512939e+03 +7.7443203618028521e+04 -3.9993548759334691e+07 
-3.4999999999999956e+00 -5.2482089843777724e-01 +6.9307415499576548e+00 +3.6102996780679293e+00 -5.7562910201350661e+01 +1.0151868530190521e+04 +7.5253191756386281e+04 -4.0958378429190226e+07 
-3.5499999999999954e+00 -5.2484219861472781e-01 +6.9317971978663717e+00 +3.5812232885704711e+00 -5.7067738824422364e+01 +1.0314905690795042e+04 +7.3057322700290024e+04 -4.1922523819302373e+07 
-3.5999999999999952e+00 -5.2486377837649301e-01 +6.9328666946560293e+00 +3.5519043512685777e+00 -5.6571178910230806e+01 +1.0477631778552568e+04 +7.0855070795457548e+04 -4.2886256536083438e+07 
-3.6499999999999950e+00 -5.2488563604738936e-01 +6.9339499182230959e+00 +3.5223466920591546e+00 -5.6073315217528481e+01 +1.0640074426487023e+04 +6.8645910710890283e+04 -4.3849848143925749e+07 
-3.6999999999999948e+00 -5.2490776995174271e-01 +6.9350467464620253e+00 +3.4925541377075020e+00 -5.5574232421184774e+01 +1.0802261241880877e+04 +6.6429316447254329e+04 -4.4813570025082946e+07 
-3.7499999999999947e+00 -5.2493017841388068e-01 +6.9361570572709237e+00 +3.4625305132135531e+00 -5.5074015340466815e+01 +1.0964219885649558e+04 +6.4204763207628304e+04 -4.5777693941216469e+07 
-3.7999999999999945e+00 -5.2495285975813744e-01 +6.9372807285446676e+00 +3.4322796443460115e+00 -5.4572748660270562e+01 +1.1125977991230353e+04 +6.1971725105970458e+04 -4.6742491443028949e+07 
-3.8499999999999943e+00 -5.2497581230885637e-01 +6.9384176381805478e+00 +3.4018053566382429e+00 -5.4070517174420246e+01 +1.1287563208415446e+04 +5.9729677216918644e+04 -4.7708234230006859e+07 
-3.8999999999999941e+00 -5.2499903439039064e-01 +6.9395676640719213e+00 +3.3711114767958854e+00 -5.3567405513052435e+01 +1.1449003146266881e+04 +5.7478093295776889e+04 -4.8675193686494343e+07 
-3.9499999999999940e+00 -5.2502252432710395e-01 +6.9407306841165592e+00 +3.3402018320409370e+00 -5.3063498474065987e+01 +1.1610325406191836e+04 +5.5216448436177037e+04 -4.9643641170162037e+07 
-3.9999999999999938e+00 -5.2504628044334012e-01 +6.9419065762112258e+00 +3.3090802448826135e+00 -5.2558880835782389e+01 +1.1771557719300197e+04 +5.2944217733202662e+04 -5.0613848919676691e+07 
-4.0499999999999936e+00 -5.2507030092283757e-01 +6.9430952127161296e+00 +3.2777506424985190e+00 -5.2053698375718476e+01 +1.1932720464793327e+04 +5.0661584127881775e+04 -5.1586013870783620e+07 
-4.0999999999999934e+00 -5.2509458338715143e-01 +6.9442964360542661e+00 +3.2462177700469317e+00 -5.1548319649989210e+01 +1.2093806184742374e+04 +4.8371307123017432e+04 -5.2560056856265828e+07 
-4.1499999999999932e+00 -5.2511912531741067e-01 +6.9455100792117985e+00 +3.2144867133610280e+00 -5.1043165106569148e+01 +1.2254800480067739e+04 +4.6076729948910732e+04 -5.3535832957457282e+07 
-4.1999999999999931e+00 -5.2514392419474121e-01 +6.9467359751745033e+00 +3.1825625570714373e+00 -5.0538655221603321e+01 +1.2415688990628591e+04 +4.3781196113682599e+04 -5.4513197537473738e+07 
-4.2499999999999929e+00 -5.2516897750026825e-01 +6.9479739569301255e+00 +3.1504503860026740e+00 -5.0035210531044129e+01 +1.2576457343595917e+04 +4.1488049526686642e+04 -5.5492005846001230e+07 
-4.2999999999999927e+00 -5.2519428271512514e-01 +6.9492238574644611e+00 +3.1181552844506109e+00 -4.9533251507120845e+01 +1.2737091193441522e+04 +3.9200633611655350e+04 -5.6472113366081655e+07 
-4.3499999999999925e+00 -5.2521983732045963e-01 +6.9504855097642304e+00 +3.0856823404432698e+00 -4.9033198654444739e+01 +1.2897576083562057e+04 +3.6922292032848258e+04 -5.7453374795707799e+07 
-4.3999999999999924e+00 -5.2524563879739383e-01 +6.9517587468156909e+00 +3.0530366358933962e+00 -4.8535472470517377e+01 +1.3057897730981484e+04 +3.4656368412802753e+04 -5.8435646035902061e+07 
-4.4499999999999922e+00 -5.2527168462709006e-01 +6.9530434016075802e+00 +3.0202232606575983e+00 -4.8040493556903300e+01 +1.3218041628838857e+04 +3.2406207216826831e+04 -5.9418781442341462e+07 
-4.4999999999999920e+00 -5.2529797229067277e-01 +6.9543393071226083e+00 +2.9872472967233579e+00 -4.7548682266754675e+01 +1.3377993494762330e+04 +3.0175150845179323e+04 -6.0402636936302200e+07 
-4.5499999999999918e+00 -5.2532449926929070e-01 +6.9556462963486556e+00 +2.9541138308313575e+00 -4.7060459182410618e+01 +1.3537738908896094e+04 +2.7966543619760138e+04 -6.1387067474044725e+07 
-4.5999999999999917e+00 -5.2535126304408797e-01 +6.9569642022706271e+00 +2.9208279483600865e+00 -4.6576244762071312e+01 +1.3697263495970690e+04 +2.5783728802213369e+04 -6.2371928347623669e+07 
-4.6499999999999915e+00 -5.2537826109622088e-01 +6.9582928578752181e+00 +2.8873947368296871e+00 -4.6096459545735669e+01 +1.3856552818533828e+04 +2.3630050332475821e+04 -6.3357074409019664e+07 
-4.6999999999999913e+00 -5.2540549090682753e-01 +6.9596320961461622e+00 +2.8538192805211220e+00 -4.5621523962277045e+01 +1.4015592530094274e+04 +2.1508851246114857e+04 -6.4342361144890897e+07 
-4.7499999999999911e+00 -5.2543294995707157e-01 +6.9609817500701512e+00 +2.8201066681834210e+00 -4.5151858559873943e+01 +1.4174368162239989e+04 +1.9423475508640564e+04 -6.5327643211271748e+07 
-4.7999999999999909e+00 -5.2546063572808244e-01 +6.9623416526311850e+00 +2.7862619823519568e+00 -4.4687883802686642e+01 +1.4332865418287704e+04 +1.7377266472684874e+04 -6.6312776443952143e+07 
-4.8499999999999908e+00 -5.2548854570103232e-01 +6.9637116368150300e+00 +2.7522903135335151e+00 -4.4230020212708716e+01 +1.4491069781317545e+04 +1.5373567856539275e+04 -6.7297615170080855e+07 
-4.8999999999999906e+00 -5.2551667735705621e-01 +6.9650915356045608e+00 +2.7181967456130032e+00 -4.3778688219855013e+01 +1.4648966918611883e+04 +1.3415722691209381e+04 -6.8282014987427711e+07 
-4.9499999999999904e+00 -5.2554502817731086e-01 +6.9664811819866843e+00 +2.6839863663948358e+00 -4.3334308422795353e+01 +1.4806542389915832e+04 +1.1507075361327743e+04 -6.9265830760402828e+07 
-4.9999999999999902e+00 -5.2557359564294548e-01 +6.9678804089426523e+00 +2.6496642625723248e+00 -4.2897301197005241e+01 +1.4963781786788626e+04 +9.6509684076324320e+03 -7.0248917576941594e+07 
-5.0499999999999901e+00 -5.2560237723511216e-01 +6.9692890494568429e+00 +2.6152355216731298e+00 -4.2468087058364937e+01 +1.5120670677865843e+04 +7.8507455203345462e+03 -7.1231130370790139e+07 
