# multipoles
# s[mm] polynom_b[n=0][T/m^n] polynom_b[n=1][T/m^n] polynom_b[n=2][T/m^n] polynom_b[n=3][T/m^n] polynom_b[n=4][T/m^n] polynom_b[n=5][T/m^n] polynom_b[n=6][T/m^n] 
+0.0000000000000000e+00 -5.2626545653088364e-01 +6.9064694047471074e+00 +4.3788154632984151e+00 -5.5809914447758942e+01 +1.3733583436377023e+04 +1.1388049160118446e+05 -7.2520348827454984e+07 
+5.0000000000000003e-02 -5.2626564230874040e-01 +6.9064344871087595e+00 +4.3861053380484005e+00 -5.5627039091864248e+01 +1.3605609210044417e+04 +1.1264690897703059e+05 -7.1814988409707278e+07 
+1.0000000000000001e-01 -5.2626617007717713e-01 +6.9064178557125011e+00 +4.3930152155083064e+00 -5.5421823359151922e+01 +1.3479130874936878e+04 +1.1122878747265796e+05 -7.1126149616220817e+07 
+1.5000000000000002e-01 -5.2626703908210992e-01 +6.9064194556365237e+00 +4.3995389398133264e+00 -5.5194433644412051e+01 +1.3354237214835863e+04 +1.0962925474413774e+05 -7.0454093387529761e+07 
+2.0000000000000001e-01 -5.2626824856943755e-01 +6.9064392319618388e+00 +4.4056703493654972e+00 -5.4945036441334011e+01 +1.3231017165318992e+04 +1.0785143929575200e+05 -6.9799081676106215e+07 
+2.5000000000000000e-01 -5.2626979778510252e-01 +6.9064771297665137e+00 +4.4114032873069702e+00 -5.4673798103127496e+01 +1.3109559537287576e+04 +1.0589846851293325e+05 -6.9161375604515567e+07 
+2.9999999999999999e-01 -5.2627168597503238e-01 +6.9065330941335841e+00 +4.4167315909969345e+00 -5.4380885161771836e+01 +1.2989953296763664e+04 +1.0377347125300173e+05 -6.8541237335903406e+07 
+3.4999999999999998e-01 -5.2627391238519394e-01 +6.9066070701405113e+00 +4.4216491026511129e+00 -5.4066463902719278e+01 +1.2872287274982522e+04 +1.0147957438022022e+05 -6.7938928110770494e+07 
+3.9999999999999997e-01 -5.2627647626156060e-01 +6.9066990028722328e+00 +4.4261496624592116e+00 -5.3730700892198627e+01 +1.2756650359517696e+04 +9.9019907071880109e+04 -6.7354709554360375e+07 
+4.4999999999999996e-01 -5.2627937685012383e-01 +6.9068088374084260e+00 +4.4302271109416385e+00 -5.3373762464053399e+01 +1.2643131430791982e+04 +9.6397596627949970e+04 -6.6788843250436328e+07 
+4.9999999999999994e-01 -5.2628261339687543e-01 +6.9069365188335263e+00 +4.4338752859316308e+00 -5.2995815126804104e+01 +1.2531819439860359e+04 +9.3615771808742356e+04 -6.6241591250409938e+07 
+5.4999999999999993e-01 -5.2628618514785430e-01 +6.9070819922308377e+00 +4.4370880309515703e+00 -5.2597025310266496e+01 +1.2422803184385994e+04 +9.0677560695004533e+04 -6.5713214572266869e+07 
+5.9999999999999998e-01 -5.2629009134908433e-01 +6.9072452026840798e+00 +4.4398591843528532e+00 -5.2177559449156938e+01 +1.2316171597779459e+04 +8.7586091470484724e+04 -6.5203975134078473e+07 
+6.5000000000000002e-01 -5.2629433124661285e-01 +6.9074260952780326e+00 +4.4421825856140345e+00 -5.1737583992400118e+01 +1.2212013586610199e+04 +8.4344492407350379e+04 -6.4714134687017389e+07 
+7.0000000000000007e-01 -5.2629890408650326e-01 +6.9076246150980358e+00 +4.4440520742930740e+00 -5.1277265394892787e+01 +1.2110418054661968e+04 +8.0955891863789308e+04 -6.4243954961152807e+07 
+7.5000000000000011e-01 -5.2630380911484276e-01 +6.9078407072302435e+00 +4.4454614917247470e+00 -5.0796770115618450e+01 +1.2011473854878413e+04 +7.7423418212017743e+04 -6.3793697330266811e+07 
+8.0000000000000016e-01 -5.2630904557772273e-01 +6.9080743167630008e+00 +4.4464046771502064e+00 -5.0296264687213736e+01 +1.1915269899264851e+04 +7.3750200462897352e+04 -6.3363623579953402e+07 
+8.5000000000000020e-01 -5.2631461272123947e-01 +6.9083253887806881e+00 +4.4468754682832143e+00 -4.9775915450461362e+01 +1.1821895135351071e+04 +6.9939366028482968e+04 -6.2953995711498499e+07 
+9.0000000000000024e-01 -5.2632050979153089e-01 +6.9085938683756263e+00 +4.4468677072101670e+00 -4.9235889048138048e+01 +1.1731438399113973e+04 +6.5994044805387850e+04 -6.2565075000828817e+07 
+9.5000000000000029e-01 -5.2632673603472835e-01 +6.9088797006348441e+00 +4.4463752322508565e+00 -4.8676351889635953e+01 +1.1643988623634941e+04 +6.1917364800080824e+04 -6.2197123358900495e+07 
+1.0000000000000002e+00 -5.2633329069697621e-01 +6.9091828306484002e+00 +4.4453918816919851e+00 -4.8097470474341414e+01 +1.1559634741888447e+04 +5.7712454716272878e+04 -6.1850402695706084e+07 
+1.0500000000000003e+00 -5.2634017302444758e-01 +6.9095032035086996e+00 +4.4439114962791244e+00 -4.7499411379372653e+01 +1.1478465620575436e+04 +5.3382443913660296e+04 -6.1525174474413157e+07 
+1.1000000000000003e+00 -5.2634738226331990e-01 +6.9098407643054269e+00 +4.4419279145259898e+00 -4.6882341049504866e+01 +1.1400570188501588e+04 +4.8930460676040035e+04 -6.1221700584478445e+07 
+1.1500000000000004e+00 -5.2635491765979436e-01 +6.9101954581327867e+00 +4.4394349773001140e+00 -4.6246426080127016e+01 +1.1326037304358479e+04 +4.4359634475487132e+04 -6.0940242418013528e+07 
+1.2000000000000004e+00 -5.2636277846006729e-01 +6.9105672300831005e+00 +4.4364265212479035e+00 -4.5591832973636613e+01 +1.1254955947747989e+04 +3.9673094048375882e+04 -6.0681062212851651e+07 
+1.2500000000000004e+00 -5.2637096391037075e-01 +6.9109560252507531e+00 +4.4328963875498433e+00 -4.4918728288052883e+01 +1.1187414968210267e+04 +3.4873968558842309e+04 -6.0444421297879495e+07 
+1.3000000000000005e+00 -5.2637947325693901e-01 +6.9113617887327781e+00 +4.4288384146443676e+00 -4.4227278663246089e+01 +1.1123503294015072e+04 +2.9965387827793882e+04 -6.0230581554050326e+07 
+1.3500000000000005e+00 -5.2638830574602868e-01 +6.9117844656225893e+00 +4.4242464427998227e+00 -4.3517650569400374e+01 +1.1063309800239591e+04 +2.4950480281542445e+04 -6.0039804491018429e+07 
+1.4000000000000006e+00 -5.2639746062388593e-01 +6.9122240010195961e+00 +4.4191143076631949e+00 -4.2790010695923101e+01 +1.1006923488810449e+04 +1.9832376129092823e+04 -5.9872352484262332e+07 
+1.4500000000000006e+00 -5.2640693713680320e-01 +6.9126803400212458e+00 +4.4134358508363496e+00 -4.2044525623194680e+01 +1.0954433196540140e+04 +1.4614204659329975e+04 -5.9728486777467996e+07 
+1.5000000000000007e+00 -5.2641673453107229e-01 +6.9131534277266686e+00 +4.4072049115639675e+00 -4.1281361975086455e+01 +1.0905927822397813e+04 +9.2990954938457835e+03 -5.9608469032112598e+07 
+1.5500000000000007e+00 -5.2642685205299133e-01 +6.9136432092341442e+00 +4.4004153270153541e+00 -4.0500686317903636e+01 +1.0861496327773060e+04 +3.8901777784763231e+03 -5.9512561357478157e+07 
+1.6000000000000008e+00 -5.2643728894887976e-01 +6.9141496296486409e+00 +4.3930609362774256e+00 -3.9702665462464601e+01 +1.0821227614278765e+04 -1.6094173668990090e+03 -5.9441025428315111e+07 
+1.6500000000000008e+00 -5.2644804446508053e-01 +6.9146726340680251e+00 +4.3851355801310676e+00 -3.8887465900494888e+01 +1.0785210540046251e+04 -7.1965614777080755e+03 -5.9394122639608152e+07 
+1.7000000000000008e+00 -5.2645911784792598e-01 +6.9152121675994866e+00 +4.3766330951068326e+00 -3.8055254481308083e+01 +1.0753534075154294e+04 -1.2868123165465162e+04 -5.9372115132517435e+07 
+1.7500000000000009e+00 -5.2647050834378517e-01 +6.9157681753458107e+00 +4.3675473215596865e+00 -3.7206197851226882e+01 +1.0726287088205449e+04 -1.8620972721082027e+04 -5.9375264371137343e+07 
+1.8000000000000009e+00 -5.2648221519902461e-01 +6.9163406024114380e+00 +4.3578720970894613e+00 -3.6340462688035807e+01 +1.0703558521168045e+04 -2.4451980240042642e+04 -5.9403832314351134e+07 
+1.8500000000000010e+00 -5.2649423766003489e-01 +6.9169293939048968e+00 +4.3476012613767550e+00 -3.5458215816996280e+01 +1.0685437257093161e+04 -3.0358014610902323e+04 -5.9458080515107632e+07 
+1.9000000000000010e+00 -5.2650657497321018e-01 +6.9175344949307389e+00 +4.3367286524548279e+00 -3.4559623865539621e+01 +1.0672012222382233e+04 -3.6335946405389353e+04 -5.9538270818501569e+07 
+1.9500000000000011e+00 -5.2651922638496440e-01 +6.9181558506016803e+00 +4.3252481092630450e+00 -3.3644853776247885e+01 +1.0663372319955351e+04 -4.2382643613553621e+04 -5.9644664916132383e+07 
+2.0000000000000009e+00 -5.2653219114172412e-01 +6.9187934060260368e+00 +4.3131534709208204e+00 -3.2714072273688707e+01 +1.0659606444640944e+04 -4.8494976081401372e+04 -5.9777524435357302e+07 
+2.0500000000000007e+00 -5.2654546831521964e-01 +6.9194471003825697e+00 +4.3004407758137875e+00 -3.1767597900688294e+01 +1.0660777685759858e+04 -5.4669272991396610e+04 -5.9937007178075463e+07 
+2.1000000000000005e+00 -5.2655905627836419e-01 +6.9201168442318757e+00 +4.2871150381632201e+00 -3.0806393679577706e+01 +1.0666849918371514e+04 -6.0899487053354402e+04 -6.0122869571891539e+07 
+2.1500000000000004e+00 -5.2657295322937947e-01 +6.9208025397565978e+00 +4.2731835671786165e+00 -2.9831593544179583e+01 +1.0677763347924731e+04 -6.7178926219413319e+04 -6.0334772086925931e+07 
+2.2000000000000002e+00 -5.2658715736650485e-01 +6.9215040891414290e+00 +4.2586536737562666e+00 -2.8844331477051295e+01 +1.0693458131714971e+04 -7.3500898147558852e+04 -6.0572374857697971e+07 
+2.2500000000000000e+00 -5.2660166688797572e-01 +6.9222213945705233e+00 +4.2435326660386483e+00 -2.7845741436393030e+01 +1.0713874500186037e+04 -7.9858710646990847e+04 -6.0835338507397346e+07 
+2.2999999999999998e+00 -5.2661647999204508e-01 +6.9229543582313910e+00 +4.2278278534425917e+00 -2.6836957495656890e+01 +1.0738952650080555e+04 -8.6245670625072351e+04 -6.1123323435581915e+07 
+2.3499999999999996e+00 -5.2663159487699496e-01 +6.9237028823089251e+00 +4.2115465484926542e+00 -2.5819113608071863e+01 +1.0768632696304385e+04 -9.2655085965033708e+04 -6.1435989497686245e+07 
+2.3999999999999995e+00 -5.2664700974108647e-01 +6.9244668689887314e+00 +4.1946960582973185e+00 -2.4793343741056720e+01 +1.0802854900100761e+04 -9.9080264454239965e+04 -6.1772997540015168e+07 
+2.4499999999999993e+00 -5.2666272278262449e-01 +6.9252462204599716e+00 +4.1772836954321662e+00 -2.3760781996356879e+01 +1.0841559378505081e+04 -1.0551451277272699e+05 -6.2134007446504779e+07 
+2.4999999999999991e+00 -5.2667873219988670e-01 +6.9260408389088255e+00 +4.1593167665225215e+00 -2.2722562334371943e+01 +1.0884686404662356e+04 -1.1195113878683135e+05 -6.2518680139936455e+07 
+2.5499999999999989e+00 -5.2669503619120306e-01 +6.9268506265246765e+00 +4.1408025851182257e+00 -2.1679818841716354e+01 +1.0932176069414216e+04 -1.1838344930928308e+05 -6.2926675329397120e+07 
+2.5999999999999988e+00 -5.2671163295488754e-01 +6.9276754854934701e+00 +4.1217484604274102e+00 -2.0633685441484424e+01 +1.0983968581172327e+04 -1.2480475254084545e+05 -6.3357653519823276e+07 
+2.6499999999999986e+00 -5.2672852068927034e-01 +6.9285153180072498e+00 +4.1021617025241524e+00 -1.9585296304150134e+01 +1.1040004128498009e+04 -1.3120835461597485e+05 -6.3811275097765952e+07 
+2.6999999999999984e+00 -5.2674569759269807e-01 +6.9293700262531095e+00 +4.0820496231306631e+00 -1.8535785380087695e+01 +1.1100222850937838e+04 -1.3758756351513497e+05 -6.4287200100059740e+07 
+2.7499999999999982e+00 -5.2676316186351602e-01 +6.9302395124227720e+00 +4.0614195319369699e+00 -1.7486286801455016e+01 +1.1164564947961671e+04 -1.4393568571505876e+05 -6.4785088989960335e+07 
+2.7999999999999980e+00 -5.2678091170008834e-01 +6.9311236787042896e+00 +4.0402787401472642e+00 -1.6437934532826265e+01 +1.1232970578128563e+04 -1.5024602910448235e+05 -6.5304601951959111e+07 
+2.8499999999999979e+00 -5.2679894530078974e-01 +6.9320224272906730e+00 +4.0186345590203203e+00 -1.5391862738713288e+01 +1.1305379904463769e+04 -1.5651189990802249e+05 -6.5845399226971984e+07 
+2.8999999999999977e+00 -5.2681726086399783e-01 +6.9329356603723946e+00 +3.9964942995296759e+00 -1.4349205468516169e+01 +1.1381733090131287e+04 -1.6272660531008200e+05 -6.6407141026629053e+07 
+2.9499999999999975e+00 -5.2683585658810939e-01 +6.9338632801396045e+00 +3.9738652736497926e+00 -1.3311096751434643e+01 +1.1461970281443530e+04 -1.6888345266122458e+05 -6.6989487487831756e+07 
+2.9999999999999973e+00 -5.2685473067152755e-01 +6.9348051887837476e+00 +3.9507547932985130e+00 -1.2278670657113983e+01 +1.1546031623227749e+04 -1.7497574899789816e+05 -6.7592098725996003e+07 
+3.0499999999999972e+00 -5.2687388131265067e-01 +6.9357612884988615e+00 +3.9271701685080060e+00 -1.1253061347188899e+01 +1.1633857312022308e+04 -1.8099680063284936e+05 -6.8214635212021023e+07 
+3.0999999999999970e+00 -5.2689330670990742e-01 +6.9367314814755519e+00 +3.9031187122309721e+00 -1.0235402853854803e+01 +1.1725387471616084e+04 -1.8693991487735149e+05 -6.8856756944320530e+07 
+3.1499999999999968e+00 -5.2691300506172867e-01 +6.9377156699075133e+00 +3.8786077374845802e+00 -9.2268293094901157e+00 +1.1820562219253023e+04 -1.9279839829919834e+05 -6.9518123863493755e+07 
+3.1999999999999966e+00 -5.2693297456654042e-01 +6.9387137559853427e+00 +3.8536445541732216e+00 -8.2284747211528195e+00 +1.1919321764401968e+04 -1.9856555846392742e+05 -7.0198396561633080e+07 
+3.2499999999999964e+00 -5.2695321342280421e-01 +6.9397256419041122e+00 +3.8282364774010373e+00 -7.2414732767127790e+00 +1.2021606175858327e+04 -2.0423470145776140e+05 -7.0897234681065023e+07 
+3.2999999999999963e+00 -5.2697371982896479e-01 +6.9407512298569065e+00 +3.8023908181071215e+00 -6.2669590671327979e+00 +1.2127355635042619e+04 -2.0979913418701105e+05 -7.1614298625145867e+07 
+3.3499999999999961e+00 -5.2699449198349479e-01 +6.9417904220363882e+00 +3.7761148906818796e+00 -5.3060661722212554e+00 +1.2236510234269208e+04 -2.1525216363112224e+05 -7.2349248211568162e+07 
+3.3999999999999959e+00 -5.2701552808486052e-01 +6.9428431206375558e+00 +3.7494160070430183e+00 -4.3599287516715322e+00 +1.2349010133796928e+04 -2.2058709615165382e+05 -7.3101743719475910e+07 
+3.4499999999999957e+00 -5.2703682633154592e-01 +6.9439092278505825e+00 +3.7223014814187434e+00 -3.4296807731737515e+00 +1.2464795431940904e+04 -2.2579723964772109e+05 -7.3871445015327185e+07 
+3.4999999999999956e+00 -5.2705838492203438e-01 +6.9449886458749219e+00 +3.6947786260241928e+00 -2.5164565742059533e+00 +1.2583806288721684e+04 -2.3087589902760883e+05 -7.4658012407621458e+07 
+3.5499999999999954e+00 -5.2708020205482653e-01 +6.9460812769004425e+00 +3.6668547554036426e+00 -1.6213900992970744e+00 +1.2705982798523672e+04 -2.3581638240994993e+05 -7.5461105750509009e+07 
+3.5999999999999952e+00 -5.2710227592843550e-01 +6.9471870231234520e+00 +3.6385371852970980e+00 -7.4561555058137152e-01 +1.2831265026011588e+04 -2.4061199581572748e+05 -7.6280384709760606e+07 
+3.6499999999999950e+00 -5.2712460474136191e-01 +6.9483057867360385e+00 +3.6098332275423113e+00 +1.0973303952308373e-01 +1.2959593146928677e+04 -2.4525604664810226e+05 -7.7115509720739096e+07 
+3.6999999999999948e+00 -5.2714718669213656e-01 +6.9494374699345007e+00 +3.5807501985351009e+00 +9.4352146788483915e-01 +1.3090907215181853e+04 -2.4974184091440900e+05 -7.7966140402014509e+07 
+3.7499999999999947e+00 -5.2717001997928015e-01 +6.9505819749135798e+00 +3.5512954121564215e+00 +1.7546156030316280e+00 +1.3225147350820953e+04 -2.5406268523333498e+05 -7.8831936811720431e+07 
+3.7999999999999945e+00 -5.2719310280133480e-01 +6.9517392038664081e+00 +3.5214761842275699e+00 +2.5418813741244954e+00 +1.3362253630919435e+04 -2.5821188670880633e+05 -7.9712558751998335e+07 
+3.8499999999999943e+00 -5.2721643335683788e-01 +6.9529090589884701e+00 +3.4912998294483053e+00 +3.3041846163787070e+00 +1.3502166161517594e+04 -2.6218275167802186e+05 -8.0607666219380721e+07 
+3.8999999999999941e+00 -5.2724000984434360e-01 +6.9540914424727545e+00 +3.4607736641521178e+00 +4.0403912669917910e+00 +1.3644825006969921e+04 -2.6596858732925012e+05 -8.1516918932836428e+07 
+3.9499999999999940e+00 -5.2726383046240188e-01 +6.9552862565156852e+00 +3.4299050028192237e+00 +4.7493671197630807e+00 +1.3790170287764982e+04 -2.6956269966117037e+05 -8.2439977016811818e+07 
+3.9999999999999938e+00 -5.2728789340959337e-01 +6.9564934033107679e+00 +3.3987011650441965e+00 +5.4299780927230472e+00 +1.3938141984388334e+04 -2.7295839569463790e+05 -8.3376499639671698e+07 
+4.0499999999999936e+00 -5.2731219677945729e-01 +6.9577127694205645e+00 +3.3671708526124493e+00 +6.0813883699006501e+00 +1.4088644513208079e+04 -2.7615084220603143e+05 -8.4325923303939089e+07 
+4.0999999999999934e+00 -5.2733673824528160e-01 +6.9589441721354026e+00 +3.3353291594941714e+00 +6.7039759271850823e+00 +1.4241424436918334e+04 -2.7914275514396717e+05 -8.5286697134634539e+07 
+4.1499999999999932e+00 -5.2736151537525577e-01 +6.9601874097173404e+00 +3.3031930107529712e+00 +7.2984266531244195e+00 +1.4396185036904812e+04 -2.8193876496925851e+05 -8.6256999894000009e+07 
+4.1999999999999931e+00 -5.2738652573755340e-01 +6.9614422804266267e+00 +3.2707793293026910e+00 +7.8654265227652482e+00 +1.4552629649346254e+04 -2.8454350300679181e+05 -8.7235010700005442e+07 
+4.2499999999999929e+00 -5.2741176690034619e-01 +6.9627085825216906e+00 +3.2381050371349427e+00 +8.4056615638207539e+00 +1.4710461635791844e+04 -2.8696160095337295e+05 -8.8218908839223877e+07 
+4.2999999999999927e+00 -5.2743723643182749e-01 +6.9639861142614743e+00 +3.2051870599118479e+00 +8.9198177987878271e+00 +1.4869384258516320e+04 -2.8919769053276739e+05 -8.9206872927794233e+07 
+4.3499999999999925e+00 -5.2746293190017624e-01 +6.9652746739037230e+00 +3.1720423209587127e+00 +9.4085812865700476e+00 +1.5029100840799763e+04 -2.9125640374895860e+05 -9.0197081986292258e+07 
+4.3999999999999924e+00 -5.2748885087357500e-01 +6.9665740597056125e+00 +3.1386877438885001e+00 +9.8726381172587185e+00 +1.5189314699892977e+04 -2.9314237291392987e+05 -9.1187715000829354e+07 
+4.4499999999999922e+00 -5.2751499092020804e-01 +6.9678840699226683e+00 +3.1051402527568621e+00 +1.0312674436551093e+01 +1.5349729137743796e+04 -2.9486023077405151e+05 -9.2176950838621691e+07 
+4.4999999999999920e+00 -5.2754134960824928e-01 +6.9692045028095766e+00 +3.0714167700373345e+00 +1.0729376432428650e+01 +1.5510047498545782e+04 -2.9641461048083776e+05 -9.3162968652623549e+07 
+4.5499999999999918e+00 -5.2756792450588474e-01 +6.9705351566201337e+00 +3.0375342197428301e+00 +1.1123430316158764e+01 +1.5669973088103801e+04 -2.9781014535399876e+05 -9.4143947345696867e+07 
+4.5999999999999917e+00 -5.2759471318129159e-01 +6.9718758296089636e+00 +3.0035095256971593e+00 +1.1495522274597326e+01 +1.5829209208887440e+04 -2.9905146858438029e+05 -9.5118065769389510e+07 
+4.6499999999999915e+00 -5.2762171320265405e-01 +6.9732263200260807e+00 +2.9693596122202930e+00 +1.1846338665403444e+01 +1.5987459152688201e+04 -3.0014321472139878e+05 -9.6083502707212359e+07 
+4.6999999999999913e+00 -5.2764892213813752e-01 +6.9745864261238681e+00 +2.9351014006956730e+00 +1.2176565754178119e+01 +1.6144426292973192e+04 -3.0109001761891099e+05 -9.7038437507829756e+07 
+4.7499999999999911e+00 -5.2767633755593069e-01 +6.9759559461528138e+00 +2.9007518171313902e+00 +1.2486889881210496e+01 +1.6299813873189587e+04 -3.0189651176733698e+05 -9.7981048618855938e+07 
+4.7999999999999909e+00 -5.2770395702419159e-01 +6.9773346783604744e+00 +2.8663277822455568e+00 +1.2777997491884381e+01 +1.6453325280150868e+04 -3.0256733249944670e+05 -9.8909515458399355e+07 
+4.8499999999999908e+00 -5.2773177811110905e-01 +6.9787224209934529e+00 +2.8318462229782946e+00 +1.3050575078891264e+01 +1.6604663727912146e+04 -3.0310711560566205e+05 -9.9822016257183388e+07 
+4.8999999999999906e+00 -5.2775979838482667e-01 +6.9801189723000912e+00 +2.7973240581823848e+00 +1.3305309047097696e+01 +1.6753532653847331e+04 -3.0352049613444286e+05 -1.0071673077544899e+08 
+4.9499999999999904e+00 -5.2778801541352605e-01 +6.9815241305240248e+00 +2.7627782143132102e+00 +1.3542885992169055e+01 +1.6899635284111289e+04 -3.0381211074341636e+05 -1.0159183732073922e+08 
+4.9999999999999902e+00 -5.2781642676536200e-01 +6.9829376939108148e+00 +2.7282256134049874e+00 +1.3763992427905746e+01 +1.7042674965216076e+04 -3.0398659543923452e+05 -1.0244551501756045e+08 
+5.0499999999999901e+00 -5.2784503000849514e-01 +6.9843594607012420e+00 +2.6936831793740641e+00 +1.3969315047903288e+01 +1.7182354989652555e+04 -3.0404858770249790e+05 -1.0327594261283797e+08 
