# trajectory
# s[mm] rx[mm] ry[mm] rz[mm] px[rad] py[rad] pz[rad]
0.0000000000000000e+00 +8.3650000000000002e+00 +0.0000000000000000e+00 +0.0000000000000000e+00 +0.0000000000000000e+00 +0.0000000000000000e+00 +1.0000000000000000e+00
-5.0000000000000003e-02 +8.3649999309696010e+00 +0.0000000000000000e+00 -4.9999999999936463e-02 +2.7612171621711495e-06 +0.0000000000000000e+00 +9.9999999999618783e-01
-1.0000000000000001e-01 +8.3649997238781513e+00 +0.0000000000000000e+00 -9.9999999999491718e-02 +5.5224423222331084e-06 +0.0000000000000000e+00 +9.9999999998475131e-01
-1.5000000000000002e-01 +8.3649993787252033e+00 +0.0000000000000000e+00 -1.4999999999828453e-01 +8.2836773990475777e-06 +0.0000000000000000e+00 +9.9999999996569033e-01
-2.0000000000000001e-01 +8.3649988955102135e+00 +0.0000000000000000e+00 -1.9999999999593368e-01 +1.1044924307112014e-05 +0.0000000000000000e+00 +9.9999999993900479e-01
-2.5000000000000000e-01 +8.3649982742325424e+00 +0.0000000000000000e+00 -2.4999999999205794e-01 +1.3806184956559719e-05 +0.0000000000000000e+00 +9.9999999990469457e-01
-2.9999999999999999e-01 +8.3649975148914564e+00 +0.0000000000000000e+00 -2.9999999998627608e-01 +1.6567461253159927e-05 +0.0000000000000000e+00 +9.9999999986275956e-01
-3.4999999999999998e-01 +8.3649966174861241e+00 +0.0000000000000000e+00 -3.4999999997820680e-01 +1.9328755098317883e-05 +0.0000000000000000e+00 +9.9999999981319954e-01
-3.9999999999999997e-01 +8.3649955820156219e+00 +0.0000000000000000e+00 -3.9999999996746893e-01 +2.2090068389074941e-05 +0.0000000000000000e+00 +9.9999999975601439e-01
-4.4999999999999996e-01 +8.3649944084789301e+00 +0.0000000000000000e+00 -4.4999999995368117e-01 +2.4851403018108638e-05 +0.0000000000000000e+00 +9.9999999969120379e-01
-4.9999999999999994e-01 +8.3649930968749331e+00 +0.0000000000000000e+00 -4.9999999993646221e-01 +2.7612760873732786e-05 +0.0000000000000000e+00 +9.9999999961876762e-01
-5.4999999999999993e-01 +8.3649916472024231e+00 +0.0000000000000000e+00 -5.4999999991543080e-01 +3.0374143839897554e-05 +0.0000000000000000e+00 +9.9999999953870555e-01
-5.9999999999999998e-01 +8.3649900594600979e+00 +0.0000000000000000e+00 -5.9999999989020569e-01 +3.3135553796189550e-05 +0.0000000000000000e+00 +9.9999999945101736e-01
-6.5000000000000002e-01 +8.3649883336465614e+00 +0.0000000000000000e+00 -6.4999999986040546e-01 +3.5896992617831914e-05 +0.0000000000000000e+00 +9.9999999935570283e-01
-7.0000000000000007e-01 +8.3649864697603231e+00 +0.0000000000000000e+00 -6.9999999982564887e-01 +3.8658462175684390e-05 +0.0000000000000000e+00 +9.9999999925276151e-01
-7.5000000000000011e-01 +8.3649844677998004e+00 +0.0000000000000000e+00 -7.4999999978555454e-01 +4.1419964336243418e-05 +0.0000000000000000e+00 +9.9999999914219317e-01
-8.0000000000000016e-01 +8.3649823277633146e+00 +0.0000000000000000e+00 -7.9999999973974112e-01 +4.4181500961642214e-05 +0.0000000000000000e+00 +9.9999999902399739e-01
-8.5000000000000020e-01 +8.3649800496490982e+00 +0.0000000000000000e+00 -8.4999999968782713e-01 +4.6943073909650848e-05 +0.0000000000000000e+00 +9.9999999889817381e-01
-9.0000000000000024e-01 +8.3649776334552879e+00 +0.0000000000000000e+00 -8.9999999962943134e-01 +4.9704685033676334e-05 +0.0000000000000000e+00 +9.9999999876472201e-01
-9.5000000000000029e-01 +8.3649750791799278e+00 +0.0000000000000000e+00 -9.4999999956417225e-01 +5.2466336182762708e-05 +0.0000000000000000e+00 +9.9999999862364164e-01
-1.0000000000000002e+00 +8.3649723868209716e+00 +0.0000000000000000e+00 -9.9999999949166840e-01 +5.5228029201591117e-05 +0.0000000000000000e+00 +9.9999999847493226e-01
-1.0500000000000003e+00 +8.3649695563762787e+00 +0.0000000000000000e+00 -1.0499999994115383e+00 +5.7989765930479885e-05 +0.0000000000000000e+00 +9.9999999831859343e-01
-1.1000000000000003e+00 +8.3649665878436181e+00 +0.0000000000000000e+00 -1.0999999993234006e+00 +6.0751548205384613e-05 +0.0000000000000000e+00 +9.9999999815462459e-01
-1.1500000000000004e+00 +8.3649634812206681e+00 +0.0000000000000000e+00 -1.1499999992268737e+00 +6.3513377857898236e-05 +0.0000000000000000e+00 +9.9999999798302530e-01
-1.2000000000000004e+00 +8.3649602365050129e+00 +0.0000000000000000e+00 -1.1999999991215760e+00 +6.6275256715251133e-05 +0.0000000000000000e+00 +9.9999999780379500e-01
-1.2500000000000004e+00 +8.3649568536941459e+00 +0.0000000000000000e+00 -1.2499999990071260e+00 +6.9037186600311181e-05 +0.0000000000000000e+00 +9.9999999761693326e-01
-1.3000000000000005e+00 +8.3649533327854719e+00 +0.0000000000000000e+00 -1.2999999988831421e+00 +7.1799169331583851e-05 +0.0000000000000000e+00 +9.9999999742243950e-01
-1.3500000000000005e+00 +8.3649496737763016e+00 +0.0000000000000000e+00 -1.3499999987492428e+00 +7.4561206723212272e-05 +0.0000000000000000e+00 +9.9999999722031307e-01
-1.4000000000000006e+00 +8.3649458766638585e+00 +0.0000000000000000e+00 -1.3999999986050462e+00 +7.7323300584977337e-05 +0.0000000000000000e+00 +9.9999999701055342e-01
-1.4500000000000006e+00 +8.3649419414452719e+00 +0.0000000000000000e+00 -1.4499999984501708e+00 +8.0085452722297750e-05 +0.0000000000000000e+00 +9.9999999679315998e-01
-1.5000000000000007e+00 +8.3649378681175843e+00 +0.0000000000000000e+00 -1.4999999982842349e+00 +8.2847664936230129e-05 +0.0000000000000000e+00 +9.9999999656813210e-01
-1.5500000000000007e+00 +8.3649336566777475e+00 +0.0000000000000000e+00 -1.5499999981068568e+00 +8.5609939023469076e-05 +0.0000000000000000e+00 +9.9999999633546910e-01
-1.6000000000000008e+00 +8.3649293071226207e+00 +0.0000000000000000e+00 -1.5999999979176547e+00 +8.8372276776347230e-05 +0.0000000000000000e+00 +9.9999999609517032e-01
-1.6500000000000008e+00 +8.3649248194489783e+00 +0.0000000000000000e+00 -1.6499999977162467e+00 +9.1134679982835405e-05 +0.0000000000000000e+00 +9.9999999584723498e-01
-1.7000000000000008e+00 +8.3649201936535018e+00 +0.0000000000000000e+00 -1.6999999975022511e+00 +9.3897150426542600e-05 +0.0000000000000000e+00 +9.9999999559166253e-01
-1.7500000000000009e+00 +8.3649154297327861e+00 +0.0000000000000000e+00 -1.7499999972752858e+00 +9.6659689886716111e-05 +0.0000000000000000e+00 +9.9999999532845218e-01
-1.8000000000000009e+00 +8.3649105276833335e+00 +0.0000000000000000e+00 -1.7999999970349689e+00 +9.9422300138241610e-05 +0.0000000000000000e+00 +9.9999999505760317e-01
-1.8500000000000010e+00 +8.3649054875015629e+00 +0.0000000000000000e+00 -1.8499999967809186e+00 +1.0218498295164321e-04 +0.0000000000000000e+00 +9.9999999477911472e-01
-1.9000000000000010e+00 +8.3649003091838008e+00 +0.0000000000000000e+00 -1.8999999965127530e+00 +1.0494774009308356e-04 +0.0000000000000000e+00 +9.9999999449298604e-01
-1.9500000000000011e+00 +8.3648949927262866e+00 +0.0000000000000000e+00 -1.9499999962300898e+00 +1.0771057332436387e-04 +0.0000000000000000e+00 +9.9999999419921637e-01
-2.0000000000000009e+00 +8.3648895381251709e+00 +0.0000000000000000e+00 -1.9999999959325472e+00 +1.1047348440292405e-04 +0.0000000000000000e+00 +9.9999999389780481e-01
-2.0500000000000007e+00 +8.3648839453765191e+00 +0.0000000000000000e+00 -2.0499999956197428e+00 +1.1323647508157774e-04 +0.0000000000000000e+00 +9.9999999358875058e-01
-2.1000000000000005e+00 +8.3648782144763079e+00 +0.0000000000000000e+00 -2.0999999952912947e+00 +1.1599954710559748e-04 +0.0000000000000000e+00 +9.9999999327205280e-01
-2.1500000000000004e+00 +8.3648723454204248e+00 +0.0000000000000000e+00 -2.1499999949468207e+00 +1.1876270220979977e-04 +0.0000000000000000e+00 +9.9999999294771058e-01
-2.2000000000000002e+00 +8.3648663382046742e+00 +0.0000000000000000e+00 -2.1999999945859385e+00 +1.2152594211828020e-04 +0.0000000000000000e+00 +9.9999999261572303e-01
-2.2500000000000000e+00 +8.3648601928247714e+00 +0.0000000000000000e+00 -2.2499999942082658e+00 +1.2428926854441343e-04 +0.0000000000000000e+00 +9.9999999227608916e-01
-2.2999999999999998e+00 +8.3648539092763485e+00 +0.0000000000000000e+00 -2.2999999938134201e+00 +1.2705268319085334e-04 +0.0000000000000000e+00 +9.9999999192880817e-01
-2.3499999999999996e+00 +8.3648474875549539e+00 +0.0000000000000000e+00 -2.3499999934010192e+00 +1.2981618774953303e-04 +0.0000000000000000e+00 +9.9999999157387898e-01
-2.3999999999999995e+00 +8.3648409276560471e+00 +0.0000000000000000e+00 -2.3999999929706806e+00 +1.3257978390166487e-04 +0.0000000000000000e+00 +9.9999999121130068e-01
-2.4499999999999993e+00 +8.3648342295750080e+00 +0.0000000000000000e+00 -2.4499999925220219e+00 +1.3534347331774061e-04 +0.0000000000000000e+00 +9.9999999084107238e-01
-2.4999999999999991e+00 +8.3648273933071327e+00 +0.0000000000000000e+00 -2.4999999920546605e+00 +1.3810725765753140e-04 +0.0000000000000000e+00 +9.9999999046319299e-01
-2.5499999999999989e+00 +8.3648204188476321e+00 +0.0000000000000000e+00 -2.5499999915682139e+00 +1.4087113857008782e-04 +0.0000000000000000e+00 +9.9999999007766149e-01
-2.5999999999999988e+00 +8.3648133061916372e+00 +0.0000000000000000e+00 -2.5999999910622993e+00 +1.4363511769373998e-04 +0.0000000000000000e+00 +9.9999998968447679e-01
-2.6499999999999986e+00 +8.3648060553341974e+00 +0.0000000000000000e+00 -2.6499999905365339e+00 +1.4639919665609759e-04 +0.0000000000000000e+00 +9.9999998928363787e-01
-2.6999999999999984e+00 +8.3647986662702802e+00 +0.0000000000000000e+00 -2.6999999899905354e+00 +1.4916337707404992e-04 +0.0000000000000000e+00 +9.9999998887514374e-01
-2.7499999999999982e+00 +8.3647911389947716e+00 +0.0000000000000000e+00 -2.7499999894239209e+00 +1.5192766055376590e-04 +0.0000000000000000e+00 +9.9999998845899329e-01
-2.7999999999999980e+00 +8.3647834735024791e+00 +0.0000000000000000e+00 -2.7999999888363072e+00 +1.5469204869069425e-04 +0.0000000000000000e+00 +9.9999998803518531e-01
-2.8499999999999979e+00 +8.3647756697881306e+00 +0.0000000000000000e+00 -2.8499999882273115e+00 +1.5745654306956338e-04 +0.0000000000000000e+00 +9.9999998760371878e-01
-2.8999999999999977e+00 +8.3647677278463739e+00 +0.0000000000000000e+00 -2.8999999875965510e+00 +1.6022114526438152e-04 +0.0000000000000000e+00 +9.9999998716459260e-01
-2.9499999999999975e+00 +8.3647596476717805e+00 +0.0000000000000000e+00 -2.9499999869436428e+00 +1.6298585683843680e-04 +0.0000000000000000e+00 +9.9999998671780554e-01
-2.9999999999999973e+00 +8.3647514292588419e+00 +0.0000000000000000e+00 -2.9999999862682039e+00 +1.6575067934429722e-04 +0.0000000000000000e+00 +9.9999998626335640e-01
-3.0499999999999972e+00 +8.3647430726019714e+00 +0.0000000000000000e+00 -3.0499999855698507e+00 +1.6851561432381073e-04 +0.0000000000000000e+00 +9.9999998580124416e-01
-3.0999999999999970e+00 +8.3647345776955095e+00 +0.0000000000000000e+00 -3.0999999848482003e+00 +1.7128066330810525e-04 +0.0000000000000000e+00 +9.9999998533146750e-01
-3.1499999999999968e+00 +8.3647259445337152e+00 +0.0000000000000000e+00 -3.1499999841028696e+00 +1.7404582781758879e-04 +0.0000000000000000e+00 +9.9999998485402519e-01
-3.1999999999999966e+00 +8.3647171731107761e+00 +0.0000000000000000e+00 -3.1999999833334751e+00 +1.7681110936194937e-04 +0.0000000000000000e+00 +9.9999998436891613e-01
-3.2499999999999964e+00 +8.3647082634208036e+00 +0.0000000000000000e+00 -3.2499999825396335e+00 +1.7957650944015513e-04 +0.0000000000000000e+00 +9.9999998387613898e-01
-3.2999999999999963e+00 +8.3646992154578328e+00 +0.0000000000000000e+00 -3.2999999817209611e+00 +1.8234202954045442e-04 +0.0000000000000000e+00 +9.9999998337569251e-01
-3.3499999999999961e+00 +8.3646900292158257e+00 +0.0000000000000000e+00 -3.3499999808770746e+00 +1.8510767114037570e-04 +0.0000000000000000e+00 +9.9999998286757541e-01
-3.3999999999999959e+00 +8.3646807046886700e+00 +0.0000000000000000e+00 -3.3999999800075908e+00 +1.8787343570672769e-04 +0.0000000000000000e+00 +9.9999998235178644e-01
-3.4499999999999957e+00 +8.3646712418701821e+00 +0.0000000000000000e+00 -3.4499999791121256e+00 +1.9063932469559939e-04 +0.0000000000000000e+00 +9.9999998182832428e-01
-3.4999999999999956e+00 +8.3646616407541039e+00 +0.0000000000000000e+00 -3.4999999781902953e+00 +1.9340533955236009e-04 +0.0000000000000000e+00 +9.9999998129718770e-01
-3.5499999999999954e+00 +8.3646519013341063e+00 +0.0000000000000000e+00 -3.5499999772417166e+00 +1.9617148171165936e-04 +0.0000000000000000e+00 +9.9999998075837526e-01
-3.5999999999999952e+00 +8.3646420236037873e+00 +0.0000000000000000e+00 -3.5999999762660049e+00 +1.9893775259742722e-04 +0.0000000000000000e+00 +9.9999998021188563e-01
-3.6499999999999950e+00 +8.3646320075566774e+00 +0.0000000000000000e+00 -3.6499999752627770e+00 +2.0170415362287400e-04 +0.0000000000000000e+00 +9.9999997965771747e-01
-3.6999999999999948e+00 +8.3646218531862324e+00 +0.0000000000000000e+00 -3.6999999742316487e+00 +2.0447068619049052e-04 +0.0000000000000000e+00 +9.9999997909586946e-01
-3.7499999999999947e+00 +8.3646115604858426e+00 +0.0000000000000000e+00 -3.7499999731722360e+00 +2.0723735169204802e-04 +0.0000000000000000e+00 +9.9999997852634026e-01
-3.7999999999999945e+00 +8.3646011294488254e+00 +0.0000000000000000e+00 -3.7999999720841546e+00 +2.1000415150859822e-04 +0.0000000000000000e+00 +9.9999997794912843e-01
-3.8499999999999943e+00 +8.3645905600684305e+00 +0.0000000000000000e+00 -3.8499999709670205e+00 +2.1277108701047337e-04 +0.0000000000000000e+00 +9.9999997736423252e-01
-3.8999999999999941e+00 +8.3645798523378403e+00 +0.0000000000000000e+00 -3.8999999698204495e+00 +2.1553815955728626e-04 +0.0000000000000000e+00 +9.9999997677165109e-01
-3.9499999999999940e+00 +8.3645690062501679e+00 +0.0000000000000000e+00 -3.9499999686440574e+00 +2.1830537049793021e-04 +0.0000000000000000e+00 +9.9999997617138281e-01
-3.9999999999999938e+00 +8.3645580217984605e+00 +0.0000000000000000e+00 -3.9999999674374598e+00 +2.2107272117057915e-04 +0.0000000000000000e+00 +9.9999997556342612e-01
-4.0499999999999936e+00 +8.3645468989756999e+00 +0.0000000000000000e+00 -4.0499999662002724e+00 +2.2384021290256363e-04 +0.0000000000000000e+00 +9.9999997494777970e-01
-4.0999999999999934e+00 +8.3645356377747984e+00 +0.0000000000000000e+00 -4.0999999649321097e+00 +2.2660784700900680e-04 +0.0000000000000000e+00 +9.9999997432444199e-01
-4.1499999999999932e+00 +8.3645242381886042e+00 +0.0000000000000000e+00 -4.1499999636325882e+00 +2.2937562479146044e-04 +0.0000000000000000e+00 +9.9999997369341154e-01
-4.1999999999999931e+00 +8.3645127002099020e+00 +0.0000000000000000e+00 -4.1999999623013231e+00 +2.3214354753778093e-04 +0.0000000000000000e+00 +9.9999997305468680e-01
-4.2499999999999929e+00 +8.3645010238314121e+00 +0.0000000000000000e+00 -4.2499999609379291e+00 +2.3491161652212930e-04 +0.0000000000000000e+00 +9.9999997240826632e-01
-4.2999999999999927e+00 +8.3644892090457912e+00 +0.0000000000000000e+00 -4.2999999595420215e+00 +2.3767983300497118e-04 +0.0000000000000000e+00 +9.9999997175414856e-01
-4.3499999999999925e+00 +8.3644772558456317e+00 +0.0000000000000000e+00 -4.3499999581132158e+00 +2.4044819823307688e-04 +0.0000000000000000e+00 +9.9999997109233207e-01
-4.3999999999999924e+00 +8.3644651642234678e+00 +0.0000000000000000e+00 -4.3999999566511265e+00 +2.4321671343952139e-04 +0.0000000000000000e+00 +9.9999997042281519e-01
-4.4499999999999922e+00 +8.3644529341717675e+00 +0.0000000000000000e+00 -4.4499999551553691e+00 +2.4598537984368434e-04 +0.0000000000000000e+00 +9.9999996974559646e-01
-4.4999999999999920e+00 +8.3644405656829424e+00 +0.0000000000000000e+00 -4.4999999536255579e+00 +2.4875419865124992e-04 +0.0000000000000000e+00 +9.9999996906067434e-01
-4.5499999999999918e+00 +8.3644280587493416e+00 +0.0000000000000000e+00 -4.5499999520613077e+00 +2.5152317105420717e-04 +0.0000000000000000e+00 +9.9999996836804717e-01
-4.5999999999999917e+00 +8.3644154133632576e+00 +0.0000000000000000e+00 -4.5999999504622338e+00 +2.5429229823084961e-04 +0.0000000000000000e+00 +9.9999996766771349e-01
-4.6499999999999915e+00 +8.3644026295169205e+00 +0.0000000000000000e+00 -4.6499999488279506e+00 +2.5706158134577555e-04 +0.0000000000000000e+00 +9.9999996695967164e-01
-4.6999999999999913e+00 +8.3643897072025055e+00 +0.0000000000000000e+00 -4.6999999471580729e+00 +2.5983102154988793e-04 +0.0000000000000000e+00 +9.9999996624392007e-01
-4.7499999999999911e+00 +8.3643766464121292e+00 +0.0000000000000000e+00 -4.7499999454522142e+00 +2.6260061998039437e-04 +0.0000000000000000e+00 +9.9999996552045711e-01
-4.7999999999999909e+00 +8.3643634471378512e+00 +0.0000000000000000e+00 -4.7999999437099898e+00 +2.6537037776080708e-04 +0.0000000000000000e+00 +9.9999996478928121e-01
-4.8499999999999908e+00 +8.3643501093716779e+00 +0.0000000000000000e+00 -4.8499999419310136e+00 +2.6814029600094293e-04 +0.0000000000000000e+00 +9.9999996405039071e-01
-4.8999999999999906e+00 +8.3643366331055589e+00 +0.0000000000000000e+00 -4.8999999401148999e+00 +2.7091037579692349e-04 +0.0000000000000000e+00 +9.9999996330378405e-01
-4.9499999999999904e+00 +8.3643230183313886e+00 +0.0000000000000000e+00 -4.9499999382612634e+00 +2.7368061823117491e-04 +0.0000000000000000e+00 +9.9999996254945944e-01
-4.9999999999999902e+00 +8.3643092650410082e+00 +0.0000000000000000e+00 -4.9999999363697176e+00 +2.7645102437242794e-04 +0.0000000000000000e+00 +9.9999996178741535e-01
-5.0499999999999901e+00 +8.3642953732262058e+00 +0.0000000000000000e+00 -5.0499999344398763e+00 +2.7922159527571806e-04 +0.0000000000000000e+00 +9.9999996101765010e-01
-5.0999999999999899e+00 +8.3642813428787175e+00 +0.0000000000000000e+00 -5.0999999324713539e+00 +2.8199233198238522e-04 +0.0000000000000000e+00 +9.9999996024016202e-01
-5.1499999999999897e+00 +8.3642671739902266e+00 +0.0000000000000000e+00 -5.1499999304637640e+00 +2.8476323552007404e-04 +0.0000000000000000e+00 +9.9999995945494946e-01
-5.1999999999999895e+00 +8.3642528665523681e+00 +0.0000000000000000e+00 -5.1999999284167204e+00 +2.8753430690273363e-04 +0.0000000000000000e+00 +9.9999995866201075e-01
-5.2499999999999893e+00 +8.3642384205567222e+00 +0.0000000000000000e+00 -5.2499999263298367e+00 +2.9030554713061776e-04 +0.0000000000000000e+00 +9.9999995786134421e-01
-5.2999999999999892e+00 +8.3642238359948244e+00 +0.0000000000000000e+00 -5.2999999242027265e+00 +2.9307695719028469e-04 +0.0000000000000000e+00 +9.9999995705294809e-01
-5.3499999999999890e+00 +8.3642091128581573e+00 +0.0000000000000000e+00 -5.3499999220350025e+00 +2.9584853805459711e-04 +0.0000000000000000e+00 +9.9999995623682070e-01
-5.3999999999999888e+00 +8.3641942511381568e+00 +0.0000000000000000e+00 -5.3999999198262794e+00 +2.9862029068272234e-04 +0.0000000000000000e+00 +9.9999995541296038e-01
-5.4499999999999886e+00 +8.3641792508262114e+00 +0.0000000000000000e+00 -5.4499999175761698e+00 +3.0139221602013217e-04 +0.0000000000000000e+00 +9.9999995458136537e-01
-5.4999999999999885e+00 +8.3641641119136612e+00 +0.0000000000000000e+00 -5.4999999152842873e+00 +3.0416431499860272e-04 +0.0000000000000000e+00 +9.9999995374203399e-01
-5.5499999999999883e+00 +8.3641488343918020e+00 +0.0000000000000000e+00 -5.5499999129502449e+00 +3.0693658853621467e-04 +0.0000000000000000e+00 +9.9999995289496446e-01
-5.5999999999999881e+00 +8.3641334182518836e+00 +0.0000000000000000e+00 -5.5999999105736551e+00 +3.0970903753735303e-04 +0.0000000000000000e+00 +9.9999995204015513e-01
-5.6499999999999879e+00 +8.3641178634851094e+00 +0.0000000000000000e+00 -5.6499999081541317e+00 +3.1248166289270723e-04 +0.0000000000000000e+00 +9.9999995117760421e-01
-5.6999999999999877e+00 +8.3641021700826403e+00 +0.0000000000000000e+00 -5.6999999056912865e+00 +3.1525446547927101e-04 +0.0000000000000000e+00 +9.9999995030731004e-01
-5.7499999999999876e+00 +8.3640863380355928e+00 +0.0000000000000000e+00 -5.7499999031847331e+00 +3.1802744616034242e-04 +0.0000000000000000e+00 +9.9999994942927073e-01
-5.7999999999999874e+00 +8.3640703673350423e+00 +0.0000000000000000e+00 -5.7999999006340843e+00 +3.2080060578552389e-04 +0.0000000000000000e+00 +9.9999994854348462e-01
-5.8499999999999872e+00 +8.3640542579720183e+00 +0.0000000000000000e+00 -5.8499998980389520e+00 +3.2357394519072198e-04 +0.0000000000000000e+00 +9.9999994764994993e-01
