# trajectory
# s[mm] rx[mm] ry[mm] rz[mm] px[rad] py[rad] pz[rad]
0.0000000000000000e+00 +8.3650000000000002e+00 +0.0000000000000000e+00 +0.0000000000000000e+00 +0.0000000000000000e+00 +0.0000000000000000e+00 +1.0000000000000000e+00
-5.0000000000000003e-02 +8.3649999309523224e+00 +0.0000000000000000e+00 -4.9999999999936436e-02 +2.7619075937611731e-06 +0.0000000000000000e+00 +9.9999999999618594e-01
-1.0000000000000001e-01 +8.3649997238091771e+00 +0.0000000000000000e+00 -9.9999999999491468e-02 +5.5238189962755943e-06 +0.0000000000000000e+00 +9.9999999998474376e-01
-1.5000000000000002e-01 +8.3649993785703263e+00 +0.0000000000000000e+00 -1.4999999999828367e-01 +8.2857361325076517e-06 +0.0000000000000000e+00 +9.9999999996567335e-01
-2.0000000000000001e-01 +8.3649988952354359e+00 +0.0000000000000000e+00 -1.9999999999593165e-01 +1.1047660922516146e-05 +0.0000000000000000e+00 +9.9999999993897470e-01
-2.5000000000000000e-01 +8.3649982738040745e+00 +0.0000000000000000e+00 -2.4999999999205400e-01 +1.3809595281454371e-05 +0.0000000000000000e+00 +9.9999999990464761e-01
-2.9999999999999999e-01 +8.3649975142757160e+00 +0.0000000000000000e+00 -2.9999999998626925e-01 +1.6571541119570211e-05 +0.0000000000000000e+00 +9.9999999986269206e-01
-3.4999999999999998e-01 +8.3649966166497389e+00 +0.0000000000000000e+00 -3.4999999997819603e-01 +1.9333500342206221e-05 +0.0000000000000000e+00 +9.9999999981310794e-01
-3.9999999999999997e-01 +8.3649955809254273e+00 +0.0000000000000000e+00 -3.9999999996745289e-01 +2.2095474849799707e-05 +0.0000000000000000e+00 +9.9999999975589504e-01
-4.4999999999999996e-01 +8.3649944071019675e+00 +0.0000000000000000e+00 -4.4999999995365836e-01 +2.4857466537882822e-05 +0.0000000000000000e+00 +9.9999999969105324e-01
-4.9999999999999994e-01 +8.3649930951784555e+00 +0.0000000000000000e+00 -4.9999999993643102e-01 +2.7619477297082646e-05 +0.0000000000000000e+00 +9.9999999961858232e-01
-5.4999999999999993e-01 +8.3649916451538893e+00 +0.0000000000000000e+00 -5.4999999991538939e-01 +3.0381509013121267e-05 +0.0000000000000000e+00 +9.9999999953848207e-01
-5.9999999999999998e-01 +8.3649900570271747e+00 +0.0000000000000000e+00 -5.9999999989015207e-01 +3.3143563566815872e-05 +0.0000000000000000e+00 +9.9999999945075224e-01
-6.5000000000000002e-01 +8.3649883307971216e+00 +0.0000000000000000e+00 -6.4999999986033752e-01 +3.5905642834078831e-05 +0.0000000000000000e+00 +9.9999999935539252e-01
-7.0000000000000007e-01 +8.3649864664624474e+00 +0.0000000000000000e+00 -6.9999999982556416e-01 +3.8667748685917774e-05 +0.0000000000000000e+00 +9.9999999925240268e-01
-7.5000000000000011e-01 +8.3649844640217772e+00 +0.0000000000000000e+00 -7.4999999978545062e-01 +4.1429882988435684e-05 +0.0000000000000000e+00 +9.9999999914178250e-01
-8.0000000000000016e-01 +8.3649823234736420e+00 +0.0000000000000000e+00 -7.9999999973961522e-01 +4.4192047602830972e-05 +0.0000000000000000e+00 +9.9999999902353154e-01
-8.5000000000000020e-01 +8.3649800448164804e+00 +0.0000000000000000e+00 -8.4999999968767659e-01 +4.6954244385397564e-05 +0.0000000000000000e+00 +9.9999999889764957e-01
-9.0000000000000024e-01 +8.3649776280486368e+00 +0.0000000000000000e+00 -8.9999999962925303e-01 +4.9716475187524993e-05 +0.0000000000000000e+00 +9.9999999876413614e-01
-9.5000000000000029e-01 +8.3649750731683632e+00 +0.0000000000000000e+00 -9.4999999956396297e-01 +5.2478741855698469e-05 +0.0000000000000000e+00 +9.9999999862299094e-01
-1.0000000000000002e+00 +8.3649723801738212e+00 +0.0000000000000000e+00 -9.9999999949142493e-01 +5.5241046231498957e-05 +0.0000000000000000e+00 +9.9999999847421350e-01
-1.0500000000000003e+00 +8.3649695490630798e+00 +0.0000000000000000e+00 -1.0499999994112572e+00 +5.8003390151603279e-05 +0.0000000000000000e+00 +9.9999999831780351e-01
-1.1000000000000003e+00 +8.3649665798341157e+00 +0.0000000000000000e+00 -1.0999999993230780e+00 +6.0765775447784183e-05 +0.0000000000000000e+00 +9.9999999815376039e-01
-1.1500000000000004e+00 +8.3649634724848152e+00 +0.0000000000000000e+00 -1.1499999992265060e+00 +6.3528203946910418e-05 +0.0000000000000000e+00 +9.9999999798208383e-01
-1.2000000000000004e+00 +8.3649602270129719e+00 +0.0000000000000000e+00 -1.1999999991211592e+00 +6.6290677470946845e-05 +0.0000000000000000e+00 +9.9999999780277327e-01
-1.2500000000000004e+00 +8.3649568434162873e+00 +0.0000000000000000e+00 -1.2499999990066559e+00 +6.9053197836954465e-05 +0.0000000000000000e+00 +9.9999999761582814e-01
-1.3000000000000005e+00 +8.3649533216923757e+00 +0.0000000000000000e+00 -1.2999999988826145e+00 +7.1815766857090554e-05 +0.0000000000000000e+00 +9.9999999742124801e-01
-1.3500000000000005e+00 +8.3649496618387591e+00 +0.0000000000000000e+00 -1.3499999987486533e+00 +7.4578386338608718e-05 +0.0000000000000000e+00 +9.9999999721903232e-01
-1.4000000000000006e+00 +8.3649458638528706e+00 +0.0000000000000000e+00 -1.3999999986043905e+00 +7.7341058083858975e-05 +0.0000000000000000e+00 +9.9999999700918052e-01
-1.4500000000000006e+00 +8.3649419277320511e+00 +0.0000000000000000e+00 -1.4499999984494440e+00 +8.0103783890287834e-05 +0.0000000000000000e+00 +9.9999999679169205e-01
-1.5000000000000007e+00 +8.3649378534735508e+00 +0.0000000000000000e+00 -1.4999999982834322e+00 +8.2866565550438379e-05 +0.0000000000000000e+00 +9.9999999656656635e-01
-1.5500000000000007e+00 +8.3649336410745345e+00 +0.0000000000000000e+00 -1.5499999981059733e+00 +8.5629404851950348e-05 +0.0000000000000000e+00 +9.9999999633380265e-01
-1.6000000000000008e+00 +8.3649292905320749e+00 +0.0000000000000000e+00 -1.5999999979166852e+00 +8.8392303577560215e-05 +0.0000000000000000e+00 +9.9999999609340051e-01
-1.6500000000000008e+00 +8.3649248018431557e+00 +0.0000000000000000e+00 -1.6499999977151860e+00 +9.1155263505101261e-05 +0.0000000000000000e+00 +9.9999999584535915e-01
-1.7000000000000008e+00 +8.3649201750046736e+00 +0.0000000000000000e+00 -1.6999999975010938e+00 +9.3918286407503648e-05 +0.0000000000000000e+00 +9.9999999558967789e-01
-1.7500000000000009e+00 +8.3649154100134346e+00 +0.0000000000000000e+00 -1.7499999972740266e+00 +9.6681374052794521e-05 +0.0000000000000000e+00 +9.9999999532635608e-01
-1.8000000000000009e+00 +8.3649105068661598e+00 +0.0000000000000000e+00 -1.7999999970336020e+00 +9.9444528204098060e-05 +0.0000000000000000e+00 +9.9999999505539305e-01
-1.8500000000000010e+00 +8.3649054655594774e+00 +0.0000000000000000e+00 -1.8499999967794385e+00 +1.0220775061963557e-04 +0.0000000000000000e+00 +9.9999999477678803e-01
-1.9000000000000010e+00 +8.3649002860899309e+00 +0.0000000000000000e+00 -1.8999999965111536e+00 +1.0497104305272556e-04 +0.0000000000000000e+00 +9.9999999449054022e-01
-1.9500000000000011e+00 +8.3648949684539762e+00 +0.0000000000000000e+00 -1.9499999962283652e+00 +1.0773440725178383e-04 +0.0000000000000000e+00 +9.9999999419664887e-01
-2.0000000000000009e+00 +8.3648895126479808e+00 +0.0000000000000000e+00 -1.9999999959306911e+00 +1.1049784496032352e-04 +0.0000000000000000e+00 +9.9999999389511329e-01
-2.0500000000000007e+00 +8.3648839186682267e+00 +0.0000000000000000e+00 -2.0499999956177493e+00 +1.1326135791672374e-04 +0.0000000000000000e+00 +9.9999999358593261e-01
-2.1000000000000005e+00 +8.3648781865109072e+00 +0.0000000000000000e+00 -2.0999999952891573e+00 +1.1602494785168344e-04 +0.0000000000000000e+00 +9.9999999326910594e-01
-2.1500000000000004e+00 +8.3648723161721303e+00 +0.0000000000000000e+00 -2.1499999949445328e+00 +1.1878861648567530e-04 +0.0000000000000000e+00 +9.9999999294463249e-01
-2.2000000000000002e+00 +8.3648663076479188e+00 +0.0000000000000000e+00 -2.1999999945834934e+00 +1.2155236552871428e-04 +0.0000000000000000e+00 +9.9999999261251138e-01
-2.2500000000000000e+00 +8.3648601609342084e+00 +0.0000000000000000e+00 -2.2499999942056568e+00 +1.2431619668035776e-04 +0.0000000000000000e+00 +9.9999999227274183e-01
-2.2999999999999998e+00 +8.3648538760268529e+00 +0.0000000000000000e+00 -2.2999999938106401e+00 +1.2708011162970549e-04 +0.0000000000000000e+00 +9.9999999192532285e-01
-2.3499999999999996e+00 +8.3648474529216212e+00 +0.0000000000000000e+00 -2.3499999933980615e+00 +1.2984411205539976e-04 +0.0000000000000000e+00 +9.9999999157025354e-01
-2.3999999999999995e+00 +8.3648408916141950e+00 +0.0000000000000000e+00 -2.3999999929675382e+00 +1.3260819962562537e-04 +0.0000000000000000e+00 +9.9999999120753291e-01
-2.4499999999999993e+00 +8.3648341921001776e+00 +0.0000000000000000e+00 -2.4499999925186873e+00 +1.3537237599810974e-04 +0.0000000000000000e+00 +9.9999999083716007e-01
-2.4999999999999991e+00 +8.3648273543750875e+00 +0.0000000000000000e+00 -2.4999999920511264e+00 +1.3813664282012289e-04 +0.0000000000000000e+00 +9.9999999045913412e-01
-2.5499999999999989e+00 +8.3648203784343611e+00 +0.0000000000000000e+00 -2.5499999915644729e+00 +1.4090100172847760e-04 +0.0000000000000000e+00 +9.9999999007345397e-01
-2.5999999999999988e+00 +8.3648132642733533e+00 +0.0000000000000000e+00 -2.5999999910583442e+00 +1.4366545434952937e-04 +0.0000000000000000e+00 +9.9999998968011872e-01
-2.6499999999999986e+00 +8.3648060118873371e+00 +0.0000000000000000e+00 -2.6499999905323572e+00 +1.4643000229917649e-04 +0.0000000000000000e+00 +9.9999998927912737e-01
-2.6999999999999984e+00 +8.3647986212715075e+00 +0.0000000000000000e+00 -2.6999999899861291e+00 +1.4919464718286013e-04 +0.0000000000000000e+00 +9.9999998887047881e-01
-2.7499999999999982e+00 +8.3647910924209761e+00 +0.0000000000000000e+00 -2.7499999894192775e+00 +1.5195939059556434e-04 +0.0000000000000000e+00 +9.9999998845417193e-01
-2.7999999999999980e+00 +8.3647834253307778e+00 +0.0000000000000000e+00 -2.7999999888314187e+00 +1.5472423412181616e-04 +0.0000000000000000e+00 +9.9999998803020584e-01
-2.8499999999999979e+00 +8.3647756199958678e+00 +0.0000000000000000e+00 -2.8499999882221703e+00 +1.5748917933568557e-04 +0.0000000000000000e+00 +9.9999998759857933e-01
-2.8999999999999977e+00 +8.3647676764111232e+00 +0.0000000000000000e+00 -2.8999999875911491e+00 +1.6025422780078561e-04 +0.0000000000000000e+00 +9.9999998715929139e-01
-2.9499999999999975e+00 +8.3647595945713409e+00 +0.0000000000000000e+00 -2.9499999869379718e+00 +1.6301938107027240e-04 +0.0000000000000000e+00 +9.9999998671234080e-01
-2.9999999999999973e+00 +8.3647513744712434e+00 +0.0000000000000000e+00 -2.9999999862622553e+00 +1.6578464068684517e-04 +0.0000000000000000e+00 +9.9999998625772657e-01
-3.0499999999999972e+00 +8.3647430161054750e+00 +0.0000000000000000e+00 -3.0499999855636166e+00 +1.6855000818274634e-04 +0.0000000000000000e+00 +9.9999998579544747e-01
-3.0999999999999970e+00 +8.3647345194686018e+00 +0.0000000000000000e+00 -3.0999999848416722e+00 +1.7131548507976150e-04 +0.0000000000000000e+00 +9.9999998532550238e-01
-3.1499999999999968e+00 +8.3647258845551171e+00 +0.0000000000000000e+00 -3.1499999840960391e+00 +1.7408107288921948e-04 +0.0000000000000000e+00 +9.9999998484789010e-01
-3.1999999999999966e+00 +8.3647171113594379e+00 +0.0000000000000000e+00 -3.1999999833263337e+00 +1.7684677311199243e-04 +0.0000000000000000e+00 +9.9999998436260951e-01
-3.2499999999999964e+00 +8.3647081998759063e+00 +0.0000000000000000e+00 -3.2499999825321724e+00 +1.7961258723849579e-04 +0.0000000000000000e+00 +9.9999998386965938e-01
-3.2999999999999963e+00 +8.3646991500987902e+00 +0.0000000000000000e+00 -3.2999999817131718e+00 +1.8237851674868832e-04 +0.0000000000000000e+00 +9.9999998336903839e-01
-3.3499999999999961e+00 +8.3646899620222843e+00 +0.0000000000000000e+00 -3.3499999808689482e+00 +1.8514456311207223e-04 +0.0000000000000000e+00 +9.9999998286074543e-01
-3.3999999999999959e+00 +8.3646806356405072e+00 +0.0000000000000000e+00 -3.3999999799991185e+00 +1.8791072778769308e-04 +0.0000000000000000e+00 +9.9999998234477927e-01
-3.4499999999999957e+00 +8.3646711709475081e+00 +0.0000000000000000e+00 -3.4499999791032985e+00 +1.9067701222413990e-04 +0.0000000000000000e+00 +9.9999998182113858e-01
-3.4999999999999956e+00 +8.3646615679372633e+00 +0.0000000000000000e+00 -3.4999999781811044e+00 +1.9344341785954524e-04 +0.0000000000000000e+00 +9.9999998128982215e-01
-3.5499999999999954e+00 +8.3646518266036782e+00 +0.0000000000000000e+00 -3.5499999772321527e+00 +1.9620994612158511e-04 +0.0000000000000000e+00 +9.9999998075082863e-01
-3.5999999999999952e+00 +8.3646419469405835e+00 +0.0000000000000000e+00 -3.5999999762560595e+00 +1.9897659842747905e-04 +0.0000000000000000e+00 +9.9999998020415670e-01
-3.6499999999999950e+00 +8.3646319289417441e+00 +0.0000000000000000e+00 -3.6499999752524404e+00 +2.0174337618399020e-04 +0.0000000000000000e+00 +9.9999997964980514e-01
-3.6999999999999948e+00 +8.3646217726008505e+00 +0.0000000000000000e+00 -3.6999999742209120e+00 +2.0451028078742530e-04 +0.0000000000000000e+00 +9.9999997908777261e-01
-3.7499999999999947e+00 +8.3646114779115273e+00 +0.0000000000000000e+00 -3.7499999731610898e+00 +2.0727731362363465e-04 +0.0000000000000000e+00 +9.9999997851805766e-01
-3.7999999999999945e+00 +8.3646010448673280e+00 +0.0000000000000000e+00 -3.7999999720725897e+00 +2.1004447606801218e-04 +0.0000000000000000e+00 +9.9999997794065909e-01
-3.8499999999999943e+00 +8.3645904734617371e+00 +0.0000000000000000e+00 -3.8499999709550274e+00 +2.1281176948549556e-04 +0.0000000000000000e+00 +9.9999997735557544e-01
-3.8999999999999941e+00 +8.3645797636881731e+00 +0.0000000000000000e+00 -3.8999999698080190e+00 +2.1557919523056609e-04 +0.0000000000000000e+00 +9.9999997676280539e-01
-3.9499999999999940e+00 +8.3645689155399854e+00 +0.0000000000000000e+00 -3.9499999686311797e+00 +2.1834675464724876e-04 +0.0000000000000000e+00 +9.9999997616234748e-01
-3.9999999999999938e+00 +8.3645579290104575e+00 +0.0000000000000000e+00 -3.9999999674241256e+00 +2.2111444906911231e-04 +0.0000000000000000e+00 +9.9999997555420028e-01
-4.0499999999999936e+00 +8.3645468040928055e+00 +0.0000000000000000e+00 -4.0499999661864718e+00 +2.2388227981915565e-04 +0.0000000000000000e+00 +9.9999997493836246e-01
-4.0999999999999934e+00 +8.3645355407801816e+00 +0.0000000000000000e+00 -4.0999999649178340e+00 +2.2665024820855924e-04 +0.0000000000000000e+00 +9.9999997431483256e-01
-4.1499999999999932e+00 +8.3645241390656704e+00 +0.0000000000000000e+00 -4.1499999636178275e+00 +2.2941835553543619e-04 +0.0000000000000000e+00 +9.9999997368360916e-01
-4.1999999999999931e+00 +8.3645125989422926e+00 +0.0000000000000000e+00 -4.1999999622860669e+00 +2.3218660308471889e-04 +0.0000000000000000e+00 +9.9999997304469079e-01
-4.2499999999999929e+00 +8.3645009204030050e+00 +0.0000000000000000e+00 -4.2499999609221684e+00 +2.3495499212815890e-04 +0.0000000000000000e+00 +9.9999997239807592e-01
-4.2999999999999927e+00 +8.3644891034407003e+00 +0.0000000000000000e+00 -4.2999999595257465e+00 +2.3772352392432706e-04 +0.0000000000000000e+00 +9.9999997174376321e-01
-4.3499999999999925e+00 +8.3644771480482110e+00 +0.0000000000000000e+00 -4.3499999580964168e+00 +2.4049219971861345e-04 +0.0000000000000000e+00 +9.9999997108175098e-01
-4.3999999999999924e+00 +8.3644650542183072e+00 +0.0000000000000000e+00 -4.3999999566337937e+00 +2.4326102074322735e-04 +0.0000000000000000e+00 +9.9999997041203792e-01
-4.4499999999999922e+00 +8.3644528219436953e+00 +0.0000000000000000e+00 -4.4499999551374927e+00 +2.4602998821719735e-04 +0.0000000000000000e+00 +9.9999996973462246e-01
-4.4999999999999920e+00 +8.3644404512170247e+00 +0.0000000000000000e+00 -4.4999999536071282e+00 +2.4879910334637119e-04 +0.0000000000000000e+00 +9.9999996904950306e-01
-4.5499999999999918e+00 +8.3644279420308809e+00 +0.0000000000000000e+00 -4.5499999520423149e+00 +2.5156836732341596e-04 +0.0000000000000000e+00 +9.9999996835667826e-01
-4.5999999999999917e+00 +8.3644152943777925e+00 +0.0000000000000000e+00 -4.5999999504426672e+00 +2.5433778132781792e-04 +0.0000000000000000e+00 +9.9999996765614640e-01
-4.6499999999999915e+00 +8.3644025082502278e+00 +0.0000000000000000e+00 -4.6499999488078005e+00 +2.5710734652588260e-04 +0.0000000000000000e+00 +9.9999996694790605e-01
-4.6999999999999913e+00 +8.3643895836405999e+00 +0.0000000000000000e+00 -4.6999999471373295e+00 +2.5987706407073482e-04 +0.0000000000000000e+00 +9.9999996623195564e-01
-4.7499999999999911e+00 +8.3643765205412617e+00 +0.0000000000000000e+00 -4.7499999454308677e+00 +2.6264693510231855e-04 +0.0000000000000000e+00 +9.9999996550829362e-01
-4.7999999999999909e+00 +8.3643633189445126e+00 +0.0000000000000000e+00 -4.7999999436880305e+00 +2.6541696074739709e-04 +0.0000000000000000e+00 +9.9999996477691833e-01
-4.8499999999999908e+00 +8.3643499788425917e+00 +0.0000000000000000e+00 -4.8499999419084316e+00 +2.6818714211955286e-04 +0.0000000000000000e+00 +9.9999996403782820e-01
-4.8999999999999906e+00 +8.3643365002276866e+00 +0.0000000000000000e+00 -4.8999999400916847e+00 +2.7095748031918753e-04 +0.0000000000000000e+00 +9.9999996329102170e-01
-4.9499999999999904e+00 +8.3643228830919281e+00 +0.0000000000000000e+00 -4.9499999382374051e+00 +2.7372797643352196e-04 +0.0000000000000000e+00 +9.9999996253649714e-01
-4.9999999999999902e+00 +8.3643091274273935e+00 +0.0000000000000000e+00 -4.9999999363452057e+00 +2.7649863153659626e-04 +0.0000000000000000e+00 +9.9999996177425299e-01
-5.0499999999999901e+00 +8.3642952332261071e+00 +0.0000000000000000e+00 -5.0499999344147017e+00 +2.7926944668926962e-04 +0.0000000000000000e+00 +9.9999996100428767e-01
-5.0999999999999899e+00 +8.3642812004800398e+00 +0.0000000000000000e+00 -5.0999999324455061e+00 +2.8204042293922054e-04 +0.0000000000000000e+00 +9.9999996022659954e-01
-5.1499999999999897e+00 +8.3642670291811108e+00 +0.0000000000000000e+00 -5.1499999304372333e+00 +2.8481156132094648e-04 +0.0000000000000000e+00 +9.9999995944118691e-01
-5.1999999999999895e+00 +8.3642527193211880e+00 +0.0000000000000000e+00 -5.1999999283894960e+00 +2.8758286285576420e-04 +0.0000000000000000e+00 +9.9999995864804814e-01
-5.2499999999999893e+00 +8.3642382708920895e+00 +0.0000000000000000e+00 -5.2499999263019088e+00 +2.9035432855180945e-04 +0.0000000000000000e+00 +9.9999995784718154e-01
-5.2999999999999892e+00 +8.3642236838855801e+00 +0.0000000000000000e+00 -5.2999999241740854e+00 +2.9312595940403716e-04 +0.0000000000000000e+00 +9.9999995703858557e-01
-5.3499999999999890e+00 +8.3642089582933803e+00 +0.0000000000000000e+00 -5.3499999220056385e+00 +2.9589775639422128e-04 +0.0000000000000000e+00 +9.9999995622225846e-01
-5.3999999999999888e+00 +8.3641940941071571e+00 +0.0000000000000000e+00 -5.3999999197961817e+00 +2.9866972049095482e-04 +0.0000000000000000e+00 +9.9999995539819853e-01
-5.4499999999999886e+00 +8.3641790913185314e+00 +0.0000000000000000e+00 -5.4499999175453286e+00 +3.0144185264964984e-04 +0.0000000000000000e+00 +9.9999995456640423e-01
-5.4999999999999885e+00 +8.3641639499190763e+00 +0.0000000000000000e+00 -5.4999999152526931e+00 +3.0421415381253738e-04 +0.0000000000000000e+00 +9.9999995372687378e-01
-5.5499999999999883e+00 +8.3641486699003185e+00 +0.0000000000000000e+00 -5.5499999129178876e+00 +3.0698662490866749e-04 +0.0000000000000000e+00 +9.9999995287960552e-01
-5.5999999999999881e+00 +8.3641332512537385e+00 +0.0000000000000000e+00 -5.5999999105405251e+00 +3.0975926685390914e-04 +0.0000000000000000e+00 +9.9999995202459768e-01
-5.6499999999999879e+00 +8.3641176939707709e+00 +0.0000000000000000e+00 -5.6499999081202184e+00 +3.1253208055095026e-04 +0.0000000000000000e+00 +9.9999995116184870e-01
-5.6999999999999877e+00 +8.3641019980428055e+00 +0.0000000000000000e+00 -5.6999999056565809e+00 +3.1530506688929759e-04 +0.0000000000000000e+00 +9.9999995029135669e-01
-5.7499999999999876e+00 +8.3640861634611898e+00 +0.0000000000000000e+00 -5.7499999031492255e+00 +3.1807822674527681e-04 +0.0000000000000000e+00 +9.9999994941312009e-01
-5.7999999999999874e+00 +8.3640701902172250e+00 +0.0000000000000000e+00 -5.7999999005977640e+00 +3.2085156098203240e-04 +0.0000000000000000e+00 +9.9999994852713714e-01
-5.8499999999999872e+00 +8.3640540783021713e+00 +0.0000000000000000e+00 -5.8499998980018102e+00 +3.2362507044952763e-04 +0.0000000000000000e+00 +9.9999994763340605e-01
