# trajectory
# s[mm] rx[mm] ry[mm] rz[mm] px[rad] py[rad] pz[rad]
0.0000000000000000e+00 +8.3650000000000002e+00 +0.0000000000000000e+00 +0.0000000000000000e+00 +0.0000000000000000e+00 +0.0000000000000000e+00 +1.0000000000000000e+00
-5.0000000000000003e-02 +8.3649999308377385e+00 +0.0000000000000000e+00 -4.9999999999936227e-02 +2.7664904919884722e-06 +0.0000000000000000e+00 +9.9999999999617328e-01
-1.0000000000000001e-01 +8.3649997233509303e+00 +0.0000000000000000e+00 -9.9999999999489775e-02 +5.5329821967153121e-06 +0.0000000000000000e+00 +9.9999999998469302e-01
-1.5000000000000002e-01 +8.3649993775394691e+00 +0.0000000000000000e+00 -1.4999999999827796e-01 +8.2994768894623235e-06 +0.0000000000000000e+00 +9.9999999996555933e-01
-2.0000000000000001e-01 +8.3649988934031612e+00 +0.0000000000000000e+00 -1.9999999999591811e-01 +1.1065976342502326e-05 +0.0000000000000000e+00 +9.9999999993877209e-01
-2.5000000000000000e-01 +8.3649982709417259e+00 +0.0000000000000000e+00 -2.4999999999202757e-01 +1.3832482325099251e-05 +0.0000000000000000e+00 +9.9999999990433119e-01
-2.9999999999999999e-01 +8.3649975101547902e+00 +0.0000000000000000e+00 -2.9999999998622368e-01 +1.6598996603508218e-05 +0.0000000000000000e+00 +9.9999999986223664e-01
-3.4999999999999998e-01 +8.3649966110418976e+00 +0.0000000000000000e+00 -3.4999999997812370e-01 +1.9365520940975621e-05 +0.0000000000000000e+00 +9.9999999981248833e-01
-3.9999999999999997e-01 +8.3649955736024992e+00 +0.0000000000000000e+00 -3.9999999996734492e-01 +2.2132057097739206e-05 +0.0000000000000000e+00 +9.9999999975508602e-01
-4.4999999999999996e-01 +8.3649943978359609e+00 +0.0000000000000000e+00 -4.4999999995350470e-01 +2.4898606831028174e-05 +0.0000000000000000e+00 +9.9999999969002973e-01
-4.9999999999999994e-01 +8.3649930837415596e+00 +0.0000000000000000e+00 -4.9999999993622035e-01 +2.7665171895063237e-05 +0.0000000000000000e+00 +9.9999999961731922e-01
-5.4999999999999993e-01 +8.3649916313184853e+00 +0.0000000000000000e+00 -5.4999999991510906e-01 +3.0431754041056720e-05 +0.0000000000000000e+00 +9.9999999953695429e-01
-5.9999999999999998e-01 +8.3649900405658411e+00 +0.0000000000000000e+00 -5.9999999988978814e-01 +3.3198355017212639e-05 +0.0000000000000000e+00 +9.9999999944893470e-01
-6.5000000000000002e-01 +8.3649883114826409e+00 +0.0000000000000000e+00 -6.4999999985987489e-01 +3.5964976568726781e-05 +0.0000000000000000e+00 +9.9999999935326034e-01
-7.0000000000000007e-01 +8.3649864440678119e+00 +0.0000000000000000e+00 -6.9999999982498662e-01 +3.8731620437786792e-05 +0.0000000000000000e+00 +9.9999999924993088e-01
-7.5000000000000011e-01 +8.3649844383201959e+00 +0.0000000000000000e+00 -7.4999999978474041e-01 +4.1498288363572246e-05 +0.0000000000000000e+00 +9.9999999913894611e-01
-8.0000000000000016e-01 +8.3649822942385459e+00 +0.0000000000000000e+00 -7.9999999973875358e-01 +4.4264982082254741e-05 +0.0000000000000000e+00 +9.9999999902030579e-01
-8.5000000000000020e-01 +8.3649800118215296e+00 +0.0000000000000000e+00 -8.4999999968664341e-01 +4.7031703326997971e-05 +0.0000000000000000e+00 +9.9999999889400959e-01
-9.0000000000000024e-01 +8.3649775910677260e+00 +0.0000000000000000e+00 -8.9999999962802701e-01 +4.9798453827957812e-05 +0.0000000000000000e+00 +9.9999999876005718e-01
-9.5000000000000029e-01 +8.3649750319756304e+00 +0.0000000000000000e+00 -9.4999999956252157e-01 +5.2565235312282398e-05 +0.0000000000000000e+00 +9.9999999861844824e-01
-1.0000000000000002e+00 +8.3649723345436495e+00 +0.0000000000000000e+00 -9.9999999948974427e-01 +5.5332049504112206e-05 +0.0000000000000000e+00 +9.9999999846918242e-01
-1.0500000000000003e+00 +8.3649694987701064e+00 +0.0000000000000000e+00 -1.0499999994093123e+00 +5.8098898124580130e-05 +0.0000000000000000e+00 +9.9999999831225928e-01
-1.1000000000000003e+00 +8.3649665246532354e+00 +0.0000000000000000e+00 -1.0999999993208427e+00 +6.0865782891811561e-05 +0.0000000000000000e+00 +9.9999999814767848e-01
-1.1500000000000004e+00 +8.3649634121911856e+00 +0.0000000000000000e+00 -1.1499999992239525e+00 +6.3632705520924468e-05 +0.0000000000000000e+00 +9.9999999797543959e-01
-1.2000000000000004e+00 +8.3649601613820224e+00 +0.0000000000000000e+00 -1.1999999991182588e+00 +6.6399667724029496e-05 +0.0000000000000000e+00 +9.9999999779554227e-01
-1.2500000000000004e+00 +8.3649567722237244e+00 +0.0000000000000000e+00 -1.2499999990033790e+00 +6.9166671210230010e-05 +0.0000000000000000e+00 +9.9999999760798597e-01
-1.3000000000000005e+00 +8.3649532447141848e+00 +0.0000000000000000e+00 -1.2999999988789299e+00 +7.1933717685622198e-05 +0.0000000000000000e+00 +9.9999999741277035e-01
-1.3500000000000005e+00 +8.3649495788512116e+00 +0.0000000000000000e+00 -1.3499999987445284e+00 +7.4700808853295133e-05 +0.0000000000000000e+00 +9.9999999720989474e-01
-1.4000000000000006e+00 +8.3649457746325275e+00 +0.0000000000000000e+00 -1.3999999985997915e+00 +7.7467946413330865e-05 +0.0000000000000000e+00 +9.9999999699935882e-01
-1.4500000000000006e+00 +8.3649418320557700e+00 +0.0000000000000000e+00 -1.4499999984443364e+00 +8.0235132062804492e-05 +0.0000000000000000e+00 +9.9999999678116203e-01
-1.5000000000000007e+00 +8.3649377511184912e+00 +0.0000000000000000e+00 -1.4999999982777799e+00 +8.3002367495784240e-05 +0.0000000000000000e+00 +9.9999999655530369e-01
-1.5500000000000007e+00 +8.3649335318181617e+00 +0.0000000000000000e+00 -1.5499999980997390e+00 +8.5769654403331530e-05 +0.0000000000000000e+00 +9.9999999632178338e-01
-1.6000000000000008e+00 +8.3649291741521647e+00 +0.0000000000000000e+00 -1.5999999979098305e+00 +8.8536994473501087e-05 +0.0000000000000000e+00 +9.9999999608060053e-01
-1.6500000000000008e+00 +8.3649246781178004e+00 +0.0000000000000000e+00 -1.6499999977076714e+00 +9.1304389391340968e-05 +0.0000000000000000e+00 +9.9999999583175447e-01
-1.7000000000000008e+00 +8.3649200437122833e+00 +0.0000000000000000e+00 -1.6999999974928783e+00 +9.4071840838892655e-05 +0.0000000000000000e+00 +9.9999999557524466e-01
-1.7500000000000009e+00 +8.3649152709327463e+00 +0.0000000000000000e+00 -1.7499999972650682e+00 +9.6839350495191165e-05 +0.0000000000000000e+00 +9.9999999531107042e-01
-1.8000000000000009e+00 +8.3649103597762355e+00 +0.0000000000000000e+00 -1.7999999970238576e+00 +9.9606920036265090e-05 +0.0000000000000000e+00 +9.9999999503923109e-01
-1.8500000000000010e+00 +8.3649053102397168e+00 +0.0000000000000000e+00 -1.8499999967688634e+00 +1.0237455113513668e-04 +0.0000000000000000e+00 +9.9999999475972601e-01
-1.9000000000000010e+00 +8.3649001223200692e+00 +0.0000000000000000e+00 -1.8999999964997023e+00 +1.0514224546182191e-04 +0.0000000000000000e+00 +9.9999999447255450e-01
-1.9500000000000011e+00 +8.3648947960140898e+00 +0.0000000000000000e+00 -1.9499999962159911e+00 +1.0791000468333056e-04 +0.0000000000000000e+00 +9.9999999417771579e-01
-2.0000000000000009e+00 +8.3648893313184924e+00 +0.0000000000000000e+00 -1.9999999959173462e+00 +1.1067783046366631e-04 +0.0000000000000000e+00 +9.9999999387520921e-01
-2.0500000000000007e+00 +8.3648837282299073e+00 +0.0000000000000000e+00 -2.0499999956033843e+00 +1.1344572446351318e-04 +0.0000000000000000e+00 +9.9999999356503411e-01
-2.1000000000000005e+00 +8.3648779867448813e+00 +0.0000000000000000e+00 -2.0999999952737221e+00 +1.1621368833678592e-04 +0.0000000000000000e+00 +9.9999999324718958e-01
-2.1500000000000004e+00 +8.3648721068598810e+00 +0.0000000000000000e+00 -2.1499999949279758e+00 +1.1898172372718038e-04 +0.0000000000000000e+00 +9.9999999292167496e-01
-2.2000000000000002e+00 +8.3648660885712900e+00 +0.0000000000000000e+00 -2.1999999945657618e+00 +1.2174983226785994e-04 +0.0000000000000000e+00 +9.9999999258848937e-01
-2.2500000000000000e+00 +8.3648599318754080e+00 +0.0000000000000000e+00 -2.2499999941866968e+00 +1.2451801558145559e-04 +0.0000000000000000e+00 +9.9999999224763214e-01
-2.2999999999999998e+00 +8.3648536367684585e+00 +0.0000000000000000e+00 -2.2999999937903972e+00 +1.2728627528006600e-04 +0.0000000000000000e+00 +9.9999999189910227e-01
-2.3499999999999996e+00 +8.3648472032465815e+00 +0.0000000000000000e+00 -2.3499999933764792e+00 +1.3005461296525749e-04 +0.0000000000000000e+00 +9.9999999154289898e-01
-2.3999999999999995e+00 +8.3648406313058370e+00 +0.0000000000000000e+00 -2.3999999929445592e+00 +1.3282303022806415e-04 +0.0000000000000000e+00 +9.9999999117902150e-01
-2.4499999999999993e+00 +8.3648339209422069e+00 +0.0000000000000000e+00 -2.4499999924942535e+00 +1.3559152864898790e-04 +0.0000000000000000e+00 +9.9999999080746882e-01
-2.4999999999999991e+00 +8.3648270721515932e+00 +0.0000000000000000e+00 -2.4999999920251783e+00 +1.3836010979799846e-04 +0.0000000000000000e+00 +9.9999999042824017e-01
-2.5499999999999989e+00 +8.3648200849298213e+00 +0.0000000000000000e+00 -2.5499999915369496e+00 +1.4112877523453346e-04 +0.0000000000000000e+00 +9.9999999004133455e-01
-2.5999999999999988e+00 +8.3648129592726388e+00 +0.0000000000000000e+00 -2.5999999910291836e+00 +1.4389752650749850e-04 +0.0000000000000000e+00 +9.9999998964675108e-01
-2.6499999999999986e+00 +8.3648056951757148e+00 +0.0000000000000000e+00 -2.6499999905014966e+00 +1.4666636515526708e-04 +0.0000000000000000e+00 +9.9999998924448885e-01
-2.6999999999999984e+00 +8.3647982926346423e+00 +0.0000000000000000e+00 -2.6999999899535045e+00 +1.4943529270568080e-04 +0.0000000000000000e+00 +9.9999998883454688e-01
-2.7499999999999982e+00 +8.3647907516449376e+00 +0.0000000000000000e+00 -2.7499999893848233e+00 +1.5220431067604931e-04 +0.0000000000000000e+00 +9.9999998841692417e-01
-2.7999999999999980e+00 +8.3647830722020426e+00 +0.0000000000000000e+00 -2.7999999887950691e+00 +1.5497342057315032e-04 +0.0000000000000000e+00 +9.9999998799161971e-01
-2.8499999999999979e+00 +8.3647752543013230e+00 +0.0000000000000000e+00 -2.8499999881838574e+00 +1.5774262389322969e-04 +0.0000000000000000e+00 +9.9999998755863251e-01
-2.8999999999999977e+00 +8.3647672979380712e+00 +0.0000000000000000e+00 -2.8999999875508040e+00 +1.6051192212200149e-04 +0.0000000000000000e+00 +9.9999998711796168e-01
-2.9499999999999975e+00 +8.3647592031075035e+00 +0.0000000000000000e+00 -2.9499999868955253e+00 +1.6328131673464793e-04 +0.0000000000000000e+00 +9.9999998666960599e-01
-2.9999999999999973e+00 +8.3647509698047653e+00 +0.0000000000000000e+00 -2.9999999862176367e+00 +1.6605080919581953e-04 +0.0000000000000000e+00 +9.9999998621356456e-01
-3.0499999999999972e+00 +8.3647425980249288e+00 +0.0000000000000000e+00 -3.0499999855167537e+00 +1.6882040095963507e-04 +0.0000000000000000e+00 +9.9999998574983628e-01
-3.0999999999999970e+00 +8.3647340877629901e+00 +0.0000000000000000e+00 -3.0999999847924919e+00 +1.7159009346968160e-04 +0.0000000000000000e+00 +9.9999998527842004e-01
-3.1499999999999968e+00 +8.3647254390138777e+00 +0.0000000000000000e+00 -3.1499999840444675e+00 +1.7435988815901453e-04 +0.0000000000000000e+00 +9.9999998479931484e-01
-3.1999999999999966e+00 +8.3647166517724472e+00 +0.0000000000000000e+00 -3.1999999832722952e+00 +1.7712978645015762e-04 +0.0000000000000000e+00 +9.9999998431251946e-01
-3.2499999999999964e+00 +8.3647077260334832e+00 +0.0000000000000000e+00 -3.2499999824755910e+00 +1.7989978975510305e-04 +0.0000000000000000e+00 +9.9999998381803290e-01
-3.2999999999999963e+00 +8.3646986617916994e+00 +0.0000000000000000e+00 -3.2999999816539702e+00 +1.8266989947531137e-04 +0.0000000000000000e+00 +9.9999998331585394e-01
-3.3499999999999961e+00 +8.3646894590417400e+00 +0.0000000000000000e+00 -3.3499999808070480e+00 +1.8544011700171158e-04 +0.0000000000000000e+00 +9.9999998280598157e-01
-3.3999999999999959e+00 +8.3646801177781800e+00 +0.0000000000000000e+00 -3.3999999799344400e+00 +1.8821044371470117e-04 +0.0000000000000000e+00 +9.9999998228841447e-01
-3.4499999999999957e+00 +8.3646706379955251e+00 +0.0000000000000000e+00 -3.4499999790357614e+00 +1.9098088098414611e-04 +0.0000000000000000e+00 +9.9999998176315152e-01
-3.4999999999999956e+00 +8.3646610196882154e+00 +0.0000000000000000e+00 -3.4999999781106270e+00 +1.9375143016938084e-04 +0.0000000000000000e+00 +9.9999998123019163e-01
-3.5499999999999954e+00 +8.3646512628506198e+00 +0.0000000000000000e+00 -3.5499999771586523e+00 +1.9652209261920831e-04 +0.0000000000000000e+00 +9.9999998068953355e-01
-3.5999999999999952e+00 +8.3646413674770432e+00 +0.0000000000000000e+00 -3.5999999761794523e+00 +1.9929286967190006e-04 +0.0000000000000000e+00 +9.9999998014117608e-01
-3.6499999999999950e+00 +8.3646313335617215e+00 +0.0000000000000000e+00 -3.6499999751726420e+00 +2.0206376265519618e-04 +0.0000000000000000e+00 +9.9999997958511788e-01
-3.6999999999999948e+00 +8.3646211610988246e+00 +0.0000000000000000e+00 -3.6999999741378358e+00 +2.0483477288630529e-04 +0.0000000000000000e+00 +9.9999997902135784e-01
-3.7499999999999947e+00 +8.3646108500824567e+00 +0.0000000000000000e+00 -3.7499999730746492e+00 +2.0760590167190460e-04 +0.0000000000000000e+00 +9.9999997844989474e-01
-3.7999999999999945e+00 +8.3646004005066601e+00 +0.0000000000000000e+00 -3.7999999719826967e+00 +2.1037715030813994e-04 +0.0000000000000000e+00 +9.9999997787072725e-01
-3.8499999999999943e+00 +8.3645898123654074e+00 +0.0000000000000000e+00 -3.8499999708615933e+00 +2.1314852008062573e-04 +0.0000000000000000e+00 +9.9999997728385415e-01
-3.8999999999999941e+00 +8.3645790856526112e+00 +0.0000000000000000e+00 -3.8999999697109535e+00 +2.1592001226444497e-04 +0.0000000000000000e+00 +9.9999997668927409e-01
-3.9499999999999940e+00 +8.3645682203621199e+00 +0.0000000000000000e+00 -3.9499999685303919e+00 +2.1869162812414937e-04 +0.0000000000000000e+00 +9.9999997608698588e-01
-3.9999999999999938e+00 +8.3645572164877162e+00 +0.0000000000000000e+00 -3.9999999673195235e+00 +2.2146336891375919e-04 +0.0000000000000000e+00 +9.9999997547698805e-01
-4.0499999999999936e+00 +8.3645460740231243e+00 +0.0000000000000000e+00 -4.0499999660779622e+00 +2.2423523587669612e-04 +0.0000000000000000e+00 +9.9999997485927938e-01
-4.0999999999999934e+00 +8.3645347929620044e+00 +0.0000000000000000e+00 -4.0999999648053231e+00 +2.2700723024504345e-04 +0.0000000000000000e+00 +9.9999997423385856e-01
-4.1499999999999932e+00 +8.3645233732979563e+00 +0.0000000000000000e+00 -4.1499999635012195e+00 +2.2977935323880645e-04 +0.0000000000000000e+00 +9.9999997360072423e-01
-4.1999999999999931e+00 +8.3645118150245175e+00 +0.0000000000000000e+00 -4.1999999621652666e+00 +2.3255160606584497e-04 +0.0000000000000000e+00 +9.9999997295987508e-01
-4.2499999999999929e+00 +8.3645001181351670e+00 +0.0000000000000000e+00 -4.2499999607970782e+00 +2.3532398992187365e-04 +0.0000000000000000e+00 +9.9999997231130966e-01
-4.2999999999999927e+00 +8.3644882826233218e+00 +0.0000000000000000e+00 -4.2999999593962688e+00 +2.3809650599046172e-04 +0.0000000000000000e+00 +9.9999997165502663e-01
-4.3499999999999925e+00 +8.3644763084823435e+00 +0.0000000000000000e+00 -4.3499999579624520e+00 +2.4086915544303315e-04 +0.0000000000000000e+00 +9.9999997099102467e-01
-4.3999999999999924e+00 +8.3644641957055352e+00 +0.0000000000000000e+00 -4.3999999564952423e+00 +2.4364193943886658e-04 +0.0000000000000000e+00 +9.9999997031930232e-01
-4.4499999999999922e+00 +8.3644519442861380e+00 +0.0000000000000000e+00 -4.4499999549942535e+00 +2.4641485912509537e-04 +0.0000000000000000e+00 +9.9999996963985827e-01
-4.4999999999999920e+00 +8.3644395542173413e+00 +0.0000000000000000e+00 -4.4999999534590991e+00 +2.4918791563670757e-04 +0.0000000000000000e+00 +9.9999996895269094e-01
-4.5499999999999918e+00 +8.3644270254922759e+00 +0.0000000000000000e+00 -4.5499999518893937e+00 +2.5196111009654596e-04 +0.0000000000000000e+00 +9.9999996825779902e-01
-4.5999999999999917e+00 +8.3644143581040140e+00 +0.0000000000000000e+00 -4.5999999502847499e+00 +2.5473444361530796e-04 +0.0000000000000000e+00 +9.9999996755518117e-01
-4.6499999999999915e+00 +8.3644015520455781e+00 +0.0000000000000000e+00 -4.6499999486447825e+00 +2.5750791729154575e-04 +0.0000000000000000e+00 +9.9999996684483583e-01
-4.6999999999999913e+00 +8.3643886073099321e+00 +0.0000000000000000e+00 -4.6999999469691049e+00 +2.6028153221166613e-04 +0.0000000000000000e+00 +9.9999996612676156e-01
-4.7499999999999911e+00 +8.3643755238899864e+00 +0.0000000000000000e+00 -4.7499999452573300e+00 +2.6305528944993065e-04 +0.0000000000000000e+00 +9.9999996540095692e-01
-4.7999999999999909e+00 +8.3643623017785984e+00 +0.0000000000000000e+00 -4.7999999435090714e+00 +2.6582919006845553e-04 +0.0000000000000000e+00 +9.9999996466742036e-01
-4.8499999999999908e+00 +8.3643489409685721e+00 +0.0000000000000000e+00 -4.8499999417239428e+00 +2.6860323511721169e-04 +0.0000000000000000e+00 +9.9999996392615054e-01
-4.8999999999999906e+00 +8.3643354414526616e+00 +0.0000000000000000e+00 -4.8999999399015577e+00 +2.7137742563402472e-04 +0.0000000000000000e+00 +9.9999996317714590e-01
-4.9499999999999904e+00 +8.3643218032235680e+00 +0.0000000000000000e+00 -4.9499999380415289e+00 +2.7415176264457481e-04 +0.0000000000000000e+00 +9.9999996242040501e-01
-4.9999999999999902e+00 +8.3643080262739389e+00 +0.0000000000000000e+00 -4.9999999361434693e+00 +2.7692624716239687e-04 +0.0000000000000000e+00 +9.9999996165592631e-01
-5.0499999999999901e+00 +8.3642941105963757e+00 +0.0000000000000000e+00 -5.0499999342069923e+00 +2.7970088018888046e-04 +0.0000000000000000e+00 +9.9999996088370824e-01
-5.0999999999999899e+00 +8.3642800561834285e+00 +0.0000000000000000e+00 -5.0999999322317109e+00 +2.8247566271326975e-04 +0.0000000000000000e+00 +9.9999996010374936e-01
-5.1499999999999897e+00 +8.3642658630275974e+00 +0.0000000000000000e+00 -5.1499999302172377e+00 +2.8525059571266357e-04 +0.0000000000000000e+00 +9.9999995931604813e-01
-5.1999999999999895e+00 +8.3642515311213330e+00 +0.0000000000000000e+00 -5.1999999281631863e+00 +2.8802568015201530e-04 +0.0000000000000000e+00 +9.9999995852060308e-01
-5.2499999999999893e+00 +8.3642370604570413e+00 +0.0000000000000000e+00 -5.2499999260691688e+00 +2.9080091698413285e-04 +0.0000000000000000e+00 +9.9999995771741257e-01
-5.2999999999999892e+00 +8.3642224510270786e+00 +0.0000000000000000e+00 -5.2999999239347986e+00 +2.9357630714967888e-04 +0.0000000000000000e+00 +9.9999995690647514e-01
-5.3499999999999890e+00 +8.3642077028237551e+00 +0.0000000000000000e+00 -5.3499999217596876e+00 +2.9635185157717047e-04 +0.0000000000000000e+00 +9.9999995608778924e-01
-5.3999999999999888e+00 +8.3641928158393348e+00 +0.0000000000000000e+00 -5.3999999195434487e+00 +2.9912755118297930e-04 +0.0000000000000000e+00 +9.9999995526135321e-01
-5.4499999999999886e+00 +8.3641777900660355e+00 +0.0000000000000000e+00 -5.4499999172856937e+00 +3.0190340687133156e-04 +0.0000000000000000e+00 +9.9999995442716560e-01
-5.4999999999999885e+00 +8.3641626254960304e+00 +0.0000000000000000e+00 -5.4999999149860361e+00 +3.0467941953430793e-04 +0.0000000000000000e+00 +9.9999995358522475e-01
-5.5499999999999883e+00 +8.3641473221214504e+00 +0.0000000000000000e+00 -5.5499999126440871e+00 +3.0745559005184353e-04 +0.0000000000000000e+00 +9.9999995273552911e-01
-5.5999999999999881e+00 +8.3641318799343800e+00 +0.0000000000000000e+00 -5.5999999102594593e+00 +3.1023191929172803e-04 +0.0000000000000000e+00 +9.9999995187807711e-01
-5.6499999999999879e+00 +8.3641162989268611e+00 +0.0000000000000000e+00 -5.6499999078317655e+00 +3.1300840810960539e-04 +0.0000000000000000e+00 +9.9999995101286721e-01
-5.6999999999999877e+00 +8.3641005790908949e+00 +0.0000000000000000e+00 -5.6999999053606167e+00 +3.1578505734897411e-04 +0.0000000000000000e+00 +9.9999995013989773e-01
-5.7499999999999876e+00 +8.3640847204184379e+00 +0.0000000000000000e+00 -5.7499999028456257e+00 +3.1856186784118702e-04 +0.0000000000000000e+00 +9.9999994925916713e-01
-5.7999999999999874e+00 +8.3640687229014095e+00 +0.0000000000000000e+00 -5.7999999002864042e+00 +3.2133884040545124e-04 +0.0000000000000000e+00 +9.9999994837067374e-01
-5.8499999999999872e+00 +8.3640525865316828e+00 +0.0000000000000000e+00 -5.8499998976825642e+00 +3.2411597584882827e-04 +0.0000000000000000e+00 +9.9999994747441601e-01
