# field on trajectory
# s[mm] rx[mm] ry[mm] rz[mm] bx[T] by[T] bz[T]
0.0000000000000000e+00 +8.5269999999999992e+00 +0.0000000000000000e+00 +0.0000000000000000e+00 -2.8914848632864032e-02 -5.5543718569576495e-01 +5.0547964685182748e-03
5.0000000000000003e-02 +8.5269999307065198e+00 +0.0000000000000000e+00 +4.9999999999935978e-02 -2.8915539428688412e-02 -5.5543390124817460e-01 +5.0539609452447459e-03
1.0000000000000001e-01 +8.5269997228266146e+00 +0.0000000000000000e+00 +9.9999999999487832e-02 -2.8916247925749289e-02 -5.5543094864640508e-01 +5.0531336811331061e-03
1.5000000000000002e-01 +8.5269993763610206e+00 +0.0000000000000000e+00 +1.4999999999827146e-01 -2.8916974206569326e-02 -5.5542832751364790e-01 +5.0523147375803696e-03
2.0000000000000001e-01 +8.5269988913103933e+00 +0.0000000000000000e+00 +1.9999999999590273e-01 -2.8917718353672146e-02 -5.5542603747310948e-01 +5.0515041759838846e-03
2.5000000000000000e-01 +8.5269982676753013e+00 +0.0000000000000000e+00 +2.4999999999199751e-01 -2.8918480449582333e-02 -5.5542407814801265e-01 +5.0507020577413211e-03
2.9999999999999999e-01 +8.5269975054562348e+00 +0.0000000000000000e+00 +2.9999999998617172e-01 -2.8919260576825499e-02 -5.5542244916159333e-01 +5.0499084442506897e-03
3.4999999999999998e-01 +8.5269966046536005e+00 +0.0000000000000000e+00 +3.4999999997804127e-01 -2.8920058817928310e-02 -5.5542115013710358e-01 +5.0491233969103553e-03
3.9999999999999997e-01 +8.5269955652677218e+00 +0.0000000000000000e+00 +3.9999999996722202e-01 -2.8920875255418553e-02 -5.5542018069781018e-01 +5.0483469771190406e-03
4.4999999999999996e-01 +8.5269943872988421e+00 +0.0000000000000000e+00 +4.4999999995332990e-01 -2.8921709971825145e-02 -5.5541954046699393e-01 +5.0475792462758443e-03
4.9999999999999994e-01 +8.5269930707471193e+00 +0.0000000000000000e+00 +4.9999999993598082e-01 -2.8922563049678218e-02 -5.5541922906795183e-01 +5.0468202657802446e-03
5.4999999999999993e-01 +8.5269916156126335e+00 +0.0000000000000000e+00 +5.4999999991479065e-01 -2.8923434571509133e-02 -5.5541924612399463e-01 +5.0460700970321104e-03
5.9999999999999998e-01 +8.5269900218953776e+00 +0.0000000000000000e+00 +5.9999999988937525e-01 -2.8924324619850523e-02 -5.5541959125844809e-01 +5.0453288014317170e-03
6.5000000000000002e-01 +8.5269882895952680e+00 +0.0000000000000000e+00 +6.4999999985935064e-01 -2.8925233277236378e-02 -5.5542026409465362e-01 +5.0445964403797519e-03
7.0000000000000007e-01 +8.5269864187121343e+00 +0.0000000000000000e+00 +6.9999999982433259e-01 -2.8926160626202010e-02 -5.5542126425596561e-01 +5.0438730752773164e-03
7.5000000000000011e-01 +8.5269844092457294e+00 +0.0000000000000000e+00 +7.4999999978393705e-01 -2.8927106749284177e-02 -5.5542259136575489e-01 +5.0431587675259593e-03
8.0000000000000016e-01 +8.5269822611957213e+00 +0.0000000000000000e+00 +7.9999999973777991e-01 -2.8928071729021083e-02 -5.5542424504740606e-01 +5.0424535785276604e-03
8.5000000000000020e-01 +8.5269799745616961e+00 +0.0000000000000000e+00 +8.4999999968547701e-01 -2.8929055647952437e-02 -5.5542622492431848e-01 +5.0417575696848566e-03
9.0000000000000024e-01 +8.5269775493431617e+00 +0.0000000000000000e+00 +8.9999999962664412e-01 -2.8930058588619485e-02 -5.5542853061990660e-01 +5.0410708024004533e-03
9.5000000000000029e-01 +8.5269749855395425e+00 +0.0000000000000000e+00 +9.4999999956089720e-01 -2.8931080633565056e-02 -5.5543116175759910e-01 +5.0403933380778242e-03
1.0000000000000002e+00 +8.5269722831501813e+00 +0.0000000000000000e+00 +9.9999999948785212e-01 -2.8932121865333612e-02 -5.5543411796083897e-01 +5.0397252381208279e-03
1.0500000000000003e+00 +8.5269694421743409e+00 +0.0000000000000000e+00 +1.0499999994071247e+00 -2.8933182366471320e-02 -5.5543739885308474e-01 +5.0390665639338207e-03
1.1000000000000003e+00 +8.5269664626112025e+00 +0.0000000000000000e+00 +1.0999999993183307e+00 -2.8934262219525986e-02 -5.5544100405780827e-01 +5.0384173769216561e-03
1.1500000000000004e+00 +8.5269633444598671e+00 +0.0000000000000000e+00 +1.1499999992210861e+00 -2.8935361507047289e-02 -5.5544493319849708e-01 +5.0377777384897149e-03
1.2000000000000004e+00 +8.5269600877193543e+00 +0.0000000000000000e+00 +1.1999999991150065e+00 -2.8936480311586608e-02 -5.5544918589865200e-01 +5.0371477100438870e-03
1.2500000000000004e+00 +8.5269566923886018e+00 +0.0000000000000000e+00 +1.2499999989997079e+00 -2.8937618715697236e-02 -5.5545376178178951e-01 +5.0365273529906105e-03
1.3000000000000005e+00 +8.5269531584664691e+00 +0.0000000000000000e+00 +1.2999999988748059e+00 -2.8938776801934324e-02 -5.5545866047143999e-01 +5.0359167287368639e-03
1.3500000000000005e+00 +8.5269494859517341e+00 +0.0000000000000000e+00 +1.3499999987399163e+00 -2.8939954652855000e-02 -5.5546388159114801e-01 +5.0353158986901798e-03
1.4000000000000006e+00 +8.5269456748430930e+00 +0.0000000000000000e+00 +1.3999999985946547e+00 -2.8941152351018320e-02 -5.5546942476447303e-01 +5.0347249242586609e-03
1.4500000000000006e+00 +8.5269417251391637e+00 +0.0000000000000000e+00 +1.4499999984386371e+00 -2.8942369978985395e-02 -5.5547528961498827e-01 +5.0341438668509821e-03
1.5000000000000007e+00 +8.5269376368384826e+00 +0.0000000000000000e+00 +1.4999999982714791e+00 -2.8943607619319401e-02 -5.5548147576628204e-01 +5.0335727878764091e-03
1.5500000000000007e+00 +8.5269334099395078e+00 +0.0000000000000000e+00 +1.5499999980927963e+00 -2.8944865354585618e-02 -5.5548798284195644e-01 +5.0330117487447958e-03
1.6000000000000008e+00 +8.5269290444406138e+00 +0.0000000000000000e+00 +1.5999999979022046e+00 -2.8946143267351482e-02 -5.5549481046562799e-01 +5.0324608108666125e-03
1.6500000000000008e+00 +8.5269245403400973e+00 +0.0000000000000000e+00 +1.6499999976993194e+00 -2.8947441440186635e-02 -5.5550195826092785e-01 +5.0319200356529446e-03
1.7000000000000008e+00 +8.5269198976361746e+00 +0.0000000000000000e+00 +1.6999999974837563e+00 -2.8948759955662949e-02 -5.5550942585150054e-01 +5.0313894845154987e-03
1.7500000000000009e+00 +8.5269151163269843e+00 +0.0000000000000000e+00 +1.7499999972551312e+00 -2.8950098896354585e-02 -5.5551721286100531e-01 +5.0308692188666231e-03
1.8000000000000009e+00 +8.5269101964105811e+00 +0.0000000000000000e+00 +1.7999999970130593e+00 -2.8951458344838029e-02 -5.5552531891311652e-01 +5.0303593001193208e-03
1.8500000000000010e+00 +8.5269051378849454e+00 +0.0000000000000000e+00 +1.8499999967571565e+00 -2.8952838383692173e-02 -5.5553374363152130e-01 +5.0298597896872395e-03
1.9000000000000010e+00 +8.5268999407479722e+00 +0.0000000000000000e+00 +1.8999999964870382e+00 -2.8954239095498255e-02 -5.5554248663992112e-01 +5.0293707489847007e-03
1.9500000000000011e+00 +8.5268946049974819e+00 +0.0000000000000000e+00 +1.9499999962023198e+00 -2.8955660562840053e-02 -5.5555154756203273e-01 +5.0288922394267086e-03
2.0000000000000009e+00 +8.5268891306312131e+00 +0.0000000000000000e+00 +1.9999999959026169e+00 -2.8957102868303795e-02 -5.5556092602158547e-01 +5.0284243224289525e-03
2.0500000000000007e+00 +8.5268835176468265e+00 +0.0000000000000000e+00 +2.0499999955875450e+00 -2.8958566043583843e-02 -5.5557062139714997e-01 +5.0279670552817709e-03
2.1000000000000005e+00 +8.5268777660419026e+00 +0.0000000000000000e+00 +2.0999999952567192e+00 -2.8960049916798555e-02 -5.5558063208661335e-01 +5.0275204787719784e-03
2.1500000000000004e+00 +8.5268718758139439e+00 +0.0000000000000000e+00 +2.1499999949097552e+00 -2.8961554265172443e-02 -5.5559095624269983e-01 +5.0270846295609973e-03
2.2000000000000002e+00 +8.5268658469603729e+00 +0.0000000000000000e+00 +2.1999999945462685e+00 -2.8963078865930348e-02 -5.5560159201814696e-01 +5.0266595443109090e-03
2.2500000000000000e+00 +8.5268596794785374e+00 +0.0000000000000000e+00 +2.2499999941658744e+00 -2.8964623496297335e-02 -5.5561253756570306e-01 +5.0262452596844679e-03
2.2999999999999998e+00 +8.5268533733657073e+00 +0.0000000000000000e+00 +2.2999999937681879e+00 -2.8966187933498658e-02 -5.5562379103812776e-01 +5.0258418123450988e-03
2.3499999999999996e+00 +8.5268469286190740e+00 +0.0000000000000000e+00 +2.3499999933528244e+00 -2.8967771954759605e-02 -5.5563535058819236e-01 +5.0254492389569024e-03
2.3999999999999995e+00 +8.5268403452357528e+00 +0.0000000000000000e+00 +2.3999999929193989e+00 -2.8969375337305488e-02 -5.5564721436867970e-01 +5.0250675761846775e-03
2.4499999999999993e+00 +8.5268336232127844e+00 +0.0000000000000000e+00 +2.4499999924675269e+00 -2.8970997858361498e-02 -5.5565938053238262e-01 +5.0246968606939028e-03
2.4999999999999991e+00 +8.5268267625471328e+00 +0.0000000000000000e+00 +2.4999999919968237e+00 -2.8972639295152619e-02 -5.5567184723210605e-01 +5.0243371291507659e-03
2.5499999999999989e+00 +8.5268197632356877e+00 +0.0000000000000000e+00 +2.5499999915069043e+00 -2.8974299424903614e-02 -5.5568461262066504e-01 +5.0239884182221610e-03
2.5999999999999988e+00 +8.5268126252752641e+00 +0.0000000000000000e+00 +2.5999999909973837e+00 -2.8975978024838825e-02 -5.5569767485088473e-01 +5.0236507645756850e-03
2.6499999999999986e+00 +8.5268053486626041e+00 +0.0000000000000000e+00 +2.6499999904678768e+00 -2.8977674872182183e-02 -5.5571103207560235e-01 +5.0233242048796671e-03
2.6999999999999984e+00 +8.5267979333943735e+00 +0.0000000000000000e+00 +2.6999999899179987e+00 -2.8979389744157053e-02 -5.5572468244766327e-01 +5.0230087758031464e-03
2.7499999999999982e+00 +8.5267903794671671e+00 +0.0000000000000000e+00 +2.7499999893473643e+00 -2.8981122417986213e-02 -5.5573862411992514e-01 +5.0227045140159134e-03
2.7999999999999980e+00 +8.5267826868775050e+00 +0.0000000000000000e+00 +2.7999999887555891e+00 -2.8982872670891696e-02 -5.5575285524525353e-01 +5.0224114561884768e-03
2.8499999999999979e+00 +8.5267748556218379e+00 +0.0000000000000000e+00 +2.8499999881422875e+00 -2.8984640280094766e-02 -5.5576737397652554e-01 +5.0221296389921016e-03
2.8999999999999977e+00 +8.5267668856965440e+00 +0.0000000000000000e+00 +2.8999999875070746e+00 -2.8986425022815798e-02 -5.5578217846662725e-01 +5.0218590990988021e-03
2.9499999999999975e+00 +8.5267587770979283e+00 +0.0000000000000000e+00 +2.9499999868495648e+00 -2.8988226676274174e-02 -5.5579726686845410e-01 +5.0215998731813491e-03
2.9999999999999973e+00 +8.5267505298222268e+00 +0.0000000000000000e+00 +2.9999999861693731e+00 -2.8990045017688253e-02 -5.5581263733491115e-01 +5.0213519979132757e-03
3.0499999999999972e+00 +8.5267421438656044e+00 +0.0000000000000000e+00 +3.0499999854661146e+00 -2.8991879824275219e-02 -5.5582828801891337e-01 +5.0211155099688905e-03
3.0999999999999970e+00 +8.5267336192241565e+00 +0.0000000000000000e+00 +3.0999999847394033e+00 -2.8993730873251067e-02 -5.5584421707338338e-01 +5.0208904460232713e-03
3.1499999999999968e+00 +8.5267249558939078e+00 +0.0000000000000000e+00 +3.1499999839888542e+00 -2.8995597941830417e-02 -5.5586042265125402e-01 +5.0206768427522846e-03
3.1999999999999966e+00 +8.5267161538708152e+00 +0.0000000000000000e+00 +3.1999999832140822e+00 -2.8997480807226542e-02 -5.5587690290546621e-01 +5.0204747368325859e-03
3.2499999999999964e+00 +8.5267072131507664e+00 +0.0000000000000000e+00 +3.2499999824147014e+00 -2.8999379246651177e-02 -5.5589365598896978e-01 +5.0202841649416253e-03
3.2999999999999963e+00 +8.5266981337295835e+00 +0.0000000000000000e+00 +3.2999999815903265e+00 -2.9001293037314517e-02 -5.5591068005472366e-01 +5.0201051637576571e-03
3.3499999999999961e+00 +8.5266889156030174e+00 +0.0000000000000000e+00 +3.3499999807405718e+00 -2.9003221956425070e-02 -5.5592797325569376e-01 +5.0199377699597413e-03
3.3999999999999959e+00 +8.5266795587667534e+00 +0.0000000000000000e+00 +3.3999999798650520e+00 -2.9005165781189588e-02 -5.5594553374485522e-01 +5.0197820202277600e-03
3.4499999999999957e+00 +8.5266700632164092e+00 +0.0000000000000000e+00 +3.4499999789633811e+00 -2.9007124288813014e-02 -5.5596335967519117e-01 +5.0196379512424090e-03
3.4999999999999956e+00 +8.5266604289475385e+00 +0.0000000000000000e+00 +3.4999999780351736e+00 -2.9009097256498327e-02 -5.5598144919969172e-01 +5.0195055996852212e-03
3.5499999999999954e+00 +8.5266506559556277e+00 +0.0000000000000000e+00 +3.5499999770800437e+00 -2.9011084461446530e-02 -5.5599980047135644e-01 +5.0193850022385526e-03
3.5999999999999952e+00 +8.5266407442360972e+00 +0.0000000000000000e+00 +3.5999999760976058e+00 -2.9013085680856494e-02 -5.5601841164319088e-01 +5.0192761955856124e-03
3.6499999999999950e+00 +8.5266306937843055e+00 +0.0000000000000000e+00 +3.6499999750874741e+00 -2.9015100691924926e-02 -5.5603728086820903e-01 +5.0191792164104489e-03
3.6999999999999948e+00 +8.5266205045955434e+00 +0.0000000000000000e+00 +3.6999999740492622e+00 -2.9017129271846250e-02 -5.5605640629943143e-01 +5.0190941013979699e-03
3.7499999999999947e+00 +8.5266101766650380e+00 +0.0000000000000000e+00 +3.7499999729825846e+00 -2.9019171197812534e-02 -5.5607578608988628e-01 +5.0190208872339442e-03
3.7999999999999945e+00 +8.5265997099879556e+00 +0.0000000000000000e+00 +3.7999999718870554e+00 -2.9021226247013390e-02 -5.5609541839260856e-01 +5.0189596106049988e-03
3.8499999999999943e+00 +8.5265891045593971e+00 +0.0000000000000000e+00 +3.8499999707622883e+00 -2.9023294196635924e-02 -5.5611530136064080e-01 +5.0189103081986477e-03
3.8999999999999941e+00 +8.5265783603744012e+00 +0.0000000000000000e+00 +3.8999999696078973e+00 -2.9025374823864587e-02 -5.5613543314703096e-01 +5.0188730167032708e-03
3.9499999999999940e+00 +8.5265674774279461e+00 +0.0000000000000000e+00 +3.9499999684234961e+00 -2.9027467905881142e-02 -5.5615581190483476e-01 +5.0188477728081472e-03
3.9999999999999938e+00 +8.5265564557149460e+00 +0.0000000000000000e+00 +3.9999999672086983e+00 -2.9029573219864564e-02 -5.5617643578711340e-01 +5.0188346132034392e-03
4.0499999999999936e+00 +8.5265452952302567e+00 +0.0000000000000000e+00 +4.0499999659631181e+00 -2.9031690562871464e-02 -5.5619730289916391e-01 +5.0188335685051686e-03
4.0999999999999934e+00 +8.5265339959686699e+00 +0.0000000000000000e+00 +4.0999999646863685e+00 -2.9033819811479011e-02 -5.5621841115520432e-01 +5.0188446450298392e-03
4.1499999999999932e+00 +8.5265225579249204e+00 +0.0000000000000000e+00 +4.1499999633780638e+00 -2.9035960862144966e-02 -5.5623975842168227e-01 +5.0188678430192358e-03
4.1999999999999931e+00 +8.5265109810936810e+00 +0.0000000000000000e+00 +4.1999999620378174e+00 -2.9038113611327281e-02 -5.5626134256504656e-01 +5.0189031627154356e-03
4.2499999999999929e+00 +8.5264992654695675e+00 +0.0000000000000000e+00 +4.2499999606652432e+00 -2.9040277955484167e-02 -5.5628316145174639e-01 +5.0189506043607874e-03
4.2999999999999927e+00 +8.5264874110471354e+00 +0.0000000000000000e+00 +4.2999999592599538e+00 -2.9042453791074112e-02 -5.5630521294823099e-01 +5.0190101681979104e-03
4.3499999999999925e+00 +8.5264754178208815e+00 +0.0000000000000000e+00 +4.3499999578215629e+00 -2.9044641014555835e-02 -5.5632749492094946e-01 +5.0190818544696763e-03
4.3999999999999924e+00 +8.5264632857852476e+00 +0.0000000000000000e+00 +4.3999999563496841e+00 -2.9046839522388353e-02 -5.5635000523635070e-01 +5.0191656634191928e-03
4.4499999999999922e+00 +8.5264510149346187e+00 +0.0000000000000000e+00 +4.4499999548439302e+00 -2.9049049211030981e-02 -5.5637274176088236e-01 +5.0192615952897998e-03
4.4999999999999920e+00 +8.5264386052633192e+00 +0.0000000000000000e+00 +4.4999999533039148e+00 -2.9051269976943340e-02 -5.5639570236099134e-01 +5.0193696503250578e-03
4.5499999999999918e+00 +8.5264260567656223e+00 +0.0000000000000000e+00 +4.5499999517292506e+00 -2.9053501716585328e-02 -5.5641888490312297e-01 +5.0194898287687206e-03
4.5999999999999917e+00 +8.5264133694357422e+00 +0.0000000000000000e+00 +4.5999999501195514e+00 -2.9055744326417231e-02 -5.5644228725372180e-01 +5.0196221308647492e-03
4.6499999999999915e+00 +8.5264005432678420e+00 +0.0000000000000000e+00 +4.6499999484744299e+00 -2.9057997702899640e-02 -5.5646590727922851e-01 +5.0197665568572740e-03
4.6999999999999913e+00 +8.5263875782560277e+00 +0.0000000000000000e+00 +4.6999999467934988e+00 -2.9060261742493494e-02 -5.5648974284608377e-01 +5.0199231069905925e-03
4.7499999999999911e+00 +8.5263744743943501e+00 +0.0000000000000000e+00 +4.7499999450763708e+00 -2.9062536341660106e-02 -5.5651379182072358e-01 +5.0200917815091716e-03
4.7999999999999909e+00 +8.5263612316768125e+00 +0.0000000000000000e+00 +4.7999999433226588e+00 -2.9064821396861184e-02 -5.5653805206958273e-01 +5.0202725806576072e-03
4.8499999999999908e+00 +8.5263478500973591e+00 +0.0000000000000000e+00 +4.8499999415319763e+00 -2.9067116804558805e-02 -5.5656252145909269e-01 +5.0204655046806393e-03
4.8999999999999906e+00 +8.5263343296498864e+00 +0.0000000000000000e+00 +4.8999999397039353e+00 -2.9069422461215456e-02 -5.5658719785567956e-01 +5.0206705538231172e-03
4.9499999999999904e+00 +8.5263206703282357e+00 +0.0000000000000000e+00 +4.9499999378381485e+00 -2.9071738263294036e-02 -5.5661207912576860e-01 +5.0208877283300073e-03
4.9999999999999902e+00 +8.5263068721262005e+00 +0.0000000000000000e+00 +4.9999999359342286e+00 -2.9074064107257873e-02 -5.5663716313577871e-01 +5.0211170284463697e-03
5.0499999999999901e+00 +8.5262929350375209e+00 +0.0000000000000000e+00 +5.0499999339917885e+00 -2.9076399889570725e-02 -5.5666244775212548e-01 +5.0213584544173406e-03
5.0999999999999899e+00 +8.5262788590558891e+00 +0.0000000000000000e+00 +5.0999999320104399e+00 -2.9078745506696837e-02 -5.5668793084121959e-01 +5.0216120064881398e-03
5.1499999999999897e+00 +8.5262646441749474e+00 +0.0000000000000000e+00 +5.1499999299897956e+00 -2.9081100855100850e-02 -5.5671361026946653e-01 +5.0218776849040364e-03
5.1999999999999895e+00 +8.5262502903882886e+00 +0.0000000000000000e+00 +5.1999999279294675e+00 -2.9083465831247962e-02 -5.5673948390326700e-01 +5.0221554899103548e-03
5.2499999999999893e+00 +8.5262357976894574e+00 +0.0000000000000000e+00 +5.2499999258290684e+00 -2.9085840331603798e-02 -5.5676554960901614e-01 +5.0224454217524476e-03
5.2999999999999892e+00 +8.5262211660719487e+00 +0.0000000000000000e+00 +5.2999999236882100e+00 -2.9088224252634506e-02 -5.5679180525310235e-01 +5.0227474806756964e-03
5.3499999999999890e+00 +8.5262063955292131e+00 +0.0000000000000000e+00 +5.3499999215065044e+00 -2.9090617490806762e-02 -5.5681824870190888e-01 +5.0230616669254928e-03
5.3999999999999888e+00 +8.5261914860546515e+00 +0.0000000000000000e+00 +5.3999999192835642e+00 -2.9093019942587738e-02 -5.5684487782181247e-01 +5.0233879807472237e-03
5.4499999999999886e+00 +8.5261764376416220e+00 +0.0000000000000000e+00 +5.4499999170190003e+00 -2.9095431504445164e-02 -5.5687169047918228e-01 +5.0237264223862684e-03
5.4999999999999885e+00 +8.5261612502834332e+00 +0.0000000000000000e+00 +5.4999999147124257e+00 -2.9097852072847312e-02 -5.5689868454038094e-01 +5.0240769920879783e-03
5.5499999999999883e+00 +8.5261459239733490e+00 +0.0000000000000000e+00 +5.5499999123634520e+00 -2.9100281544263026e-02 -5.5692585787176430e-01 +5.0244396900976703e-03
5.5999999999999881e+00 +8.5261304587045910e+00 +0.0000000000000000e+00 +5.5999999099716904e+00 -2.9102719815161712e-02 -5.5695320833967898e-01 +5.0248145166606048e-03
5.6499999999999879e+00 +8.5261148544703360e+00 +0.0000000000000000e+00 +5.6499999075367526e+00 -2.9105166782013376e-02 -5.5698073381046542e-01 +5.0252014720219857e-03
5.6999999999999877e+00 +8.5260991112637150e+00 +0.0000000000000000e+00 +5.6999999050582506e+00 -2.9107622341288615e-02 -5.5700843215045459e-01 +5.0256005564269495e-03
5.7499999999999876e+00 +8.5260832290778161e+00 +0.0000000000000000e+00 +5.7499999025357962e+00 -2.9110086389458615e-02 -5.5703630122596925e-01 +5.0260117701205328e-03
5.7999999999999874e+00 +8.5260672079056885e+00 +0.0000000000000000e+00 +5.7999998999690003e+00 -2.9112558822995245e-02 -5.5706433890332330e-01 +5.0264351133476907e-03
5.8499999999999872e+00 +8.5260510477403351e+00 +0.0000000000000000e+00 +5.8499998973574749e+00 -2.9115039538370968e-02 -5.5709254304882183e-01 +5.0268705863532551e-03
5.8999999999999870e+00 +8.5260347485747179e+00 +0.0000000000000000e+00 +5.8999998947008310e+00 -2.9117528432058896e-02 -5.5712091152875987e-01 +5.0273181893819409e-03
