# field on trajectory
# s[mm] rx[mm] ry[mm] rz[mm] bx[T] by[T] bz[T]
0.0000000000000000e+00 +8.2850000000000001e+00 +0.0000000000000000e+00 +0.0000000000000000e+00 -2.6959664237276446e-02 -5.2413503193435740e-01 +4.9950983582413774e-03
-5.0000000000000003e-02 +8.2849999311458671e+00 +0.0000000000000000e+00 -4.9999999999936789e-02 -2.6959267774541457e-02 -5.2413581852805580e-01 +4.9960085580394269e-03
-1.0000000000000001e-01 +8.2849997245833151e+00 +0.0000000000000000e+00 -9.9999999999494299e-02 -2.6958894917762453e-02 -5.2413699283034476e-01 +4.9969259360381430e-03
-1.5000000000000002e-01 +8.2849993803120352e+00 +0.0000000000000000e+00 -1.4999999999829328e-01 -2.6958545622603657e-02 -5.2413855395826792e-01 +4.9978504204250254e-03
-2.0000000000000001e-01 +8.2849988983316170e+00 +0.0000000000000000e+00 -1.9999999999595441e-01 -2.6958219844730232e-02 -5.2414050102888510e-01 +4.9987819393879180e-03
-2.5000000000000000e-01 +8.2849982786415488e+00 +0.0000000000000000e+00 -2.4999999999209846e-01 -2.6957917539808311e-02 -5.2414283315927401e-01 +4.9997204211150031e-03
-2.9999999999999999e-01 +8.2849975212412179e+00 +0.0000000000000000e+00 -2.9999999998634608e-01 -2.6957638663505017e-02 -5.2414554946652847e-01 +5.0006657937948082e-03
-3.4999999999999998e-01 +8.2849966261299102e+00 +0.0000000000000000e+00 -3.4999999997831804e-01 -2.6957383171488429e-02 -5.2414864906775915e-01 +5.0016179856161762e-03
-3.9999999999999997e-01 +8.2849955933068120e+00 +0.0000000000000000e+00 -3.9999999996763502e-01 -2.6957151019427628e-02 -5.2415213108009362e-01 +5.0025769247682827e-03
-4.4999999999999996e-01 +8.2849944227710086e+00 +0.0000000000000000e+00 -4.4999999995391765e-01 -2.6956942162992686e-02 -5.2415599462067652e-01 +5.0035425394406264e-03
-4.9999999999999994e-01 +8.2849931145214839e+00 +0.0000000000000000e+00 -4.9999999993678668e-01 -2.6956756557854730e-02 -5.2416023880666918e-01 +5.0045147578230203e-03
-5.4999999999999993e-01 +8.2849916685571241e+00 +0.0000000000000000e+00 -5.4999999991586279e-01 -2.6956594159685879e-02 -5.2416486275525009e-01 +5.0054935081055877e-03
-5.9999999999999998e-01 +8.2849900848767142e+00 +0.0000000000000000e+00 -5.9999999989076658e-01 -2.6956454924159306e-02 -5.2416986558361411e-01 +5.0064787184787539e-03
-6.5000000000000002e-01 +8.2849883634789396e+00 +0.0000000000000000e+00 -6.4999999986111867e-01 -2.6956338806949229e-02 -5.2417524640897317e-01 +5.0074703171332580e-03
-7.0000000000000007e-01 +8.2849865043623865e+00 +0.0000000000000000e+00 -6.9999999982653971e-01 -2.6956245763730940e-02 -5.2418100434855608e-01 +5.0084682322601246e-03
-7.5000000000000011e-01 +8.2849845075255413e+00 +0.0000000000000000e+00 -7.4999999978665033e-01 -2.6956175750180802e-02 -5.2418713851960874e-01 +5.0094723920506767e-03
-8.0000000000000016e-01 +8.2849823729667929e+00 +0.0000000000000000e+00 -7.9999999974107117e-01 -2.6956128721976252e-02 -5.2419364803939383e-01 +5.0104827246965217e-03
-8.5000000000000020e-01 +8.2849801006844324e+00 +0.0000000000000000e+00 -8.4999999968942264e-01 -2.6956104634795825e-02 -5.2420053202519035e-01 +5.0114991583895489e-03
-9.0000000000000024e-01 +8.2849776906766497e+00 +0.0000000000000000e+00 -8.9999999963132549e-01 -2.6956103444319184e-02 -5.2420778959429537e-01 +5.0125216213219278e-03
-9.5000000000000029e-01 +8.2849751429415388e+00 +0.0000000000000000e+00 -9.4999999956640013e-01 -2.6956125106227087e-02 -5.2421541986402198e-01 +5.0135500416861028e-03
-1.0000000000000002e+00 +8.2849724574770942e+00 +0.0000000000000000e+00 -9.9999999949426710e-01 -2.6956169576201429e-02 -5.2422342195170035e-01 +5.0145843476747812e-03
-1.0500000000000003e+00 +8.2849696342812145e+00 +0.0000000000000000e+00 -1.0499999994145470e+00 -2.6956236809925257e-02 -5.2423179497467765e-01 +5.0156244674809366e-03
-1.1000000000000003e+00 +8.2849666733516987e+00 +0.0000000000000000e+00 -1.0999999993268601e+00 -2.6956326763082752e-02 -5.2424053805031789e-01 +5.0166703292978034e-03
-1.1500000000000004e+00 +8.2849635746862500e+00 +0.0000000000000000e+00 -1.1499999992308270e+00 -2.6956439391359284e-02 -5.2424965029600201e-01 +5.0177218613188610e-03
-1.2000000000000004e+00 +8.2849603382824757e+00 +0.0000000000000000e+00 -1.1999999991260681e+00 -2.6956574650441385e-02 -5.2425913082912778e-01 +5.0187789917378513e-03
-1.2500000000000004e+00 +8.2849569641378835e+00 +0.0000000000000000e+00 -1.2499999990122037e+00 -2.6956732496016780e-02 -5.2426897876711032e-01 +5.0198416487487523e-03
-1.3000000000000005e+00 +8.2849534522498871e+00 +0.0000000000000000e+00 -1.2999999988888544e+00 -2.6956912883774387e-02 -5.2427919322738104e-01 +5.0209097605457805e-03
-1.3500000000000005e+00 +8.2849498026158024e+00 +0.0000000000000000e+00 -1.3499999987556404e+00 -2.6957115769404336e-02 -5.2428977332738913e-01 +5.0219832553233916e-03
-1.4000000000000006e+00 +8.2849460152328493e+00 +0.0000000000000000e+00 -1.3999999986121818e+00 -2.6957341108597987e-02 -5.2430071818459978e-01 +5.0230620612762723e-03
-1.4500000000000006e+00 +8.2849420900981521e+00 +0.0000000000000000e+00 -1.4499999984580991e+00 -2.6957588857047909e-02 -5.2431202691649559e-01 +5.0241461065993276e-03
-1.5000000000000007e+00 +8.2849380272087405e+00 +0.0000000000000000e+00 -1.4999999982930126e+00 -2.6957858970447942e-02 -5.2432369864057637e-01 +5.0252353194876849e-03
-1.5500000000000007e+00 +8.2849338265615486e+00 +0.0000000000000000e+00 -1.5499999981165424e+00 -2.6958151404493189e-02 -5.2433573247435850e-01 +5.0263296281366967e-03
-1.6000000000000008e+00 +8.2849294881534128e+00 +0.0000000000000000e+00 -1.5999999979283088e+00 -2.6958466114879981e-02 -5.2434812753537574e-01 +5.0274289607419127e-03
-1.6500000000000008e+00 +8.2849250119810787e+00 +0.0000000000000000e+00 -1.6499999977279318e+00 -2.6958803057305955e-02 -5.2436088294117766e-01 +5.0285332454991002e-03
-1.7000000000000008e+00 +8.2849203980411925e+00 +0.0000000000000000e+00 -1.6999999975150315e+00 -2.6959162187470052e-02 -5.2437399780933269e-01 +5.0296424106042164e-03
-1.7500000000000009e+00 +8.2849156463303100e+00 +0.0000000000000000e+00 -1.7499999972892282e+00 -2.6959543461072485e-02 -5.2438747125742513e-01 +5.0307563842534294e-03
-1.8000000000000009e+00 +8.2849107568448925e+00 +0.0000000000000000e+00 -1.7999999970501417e+00 -2.6959946833814773e-02 -5.2440130240305549e-01 +5.0318750946430893e-03
-1.8500000000000010e+00 +8.2849057295813040e+00 +0.0000000000000000e+00 -1.8499999967973921e+00 -2.6960372261399808e-02 -5.2441549036384294e-01 +5.0329984699697293e-03
-1.9000000000000010e+00 +8.2849005645358176e+00 +0.0000000000000000e+00 -1.8999999965305994e+00 -2.6960819699531780e-02 -5.2443003425742285e-01 +5.0341264384300786e-03
-1.9500000000000011e+00 +8.2848952617046123e+00 +0.0000000000000000e+00 -1.9499999962493832e+00 -2.6961289103916222e-02 -5.2444493320144736e-01 +5.0352589282210321e-03
-2.0000000000000009e+00 +8.2848898210837749e+00 +0.0000000000000000e+00 -1.9999999959533639e+00 -2.6961780430260054e-02 -5.2446018631358571e-01 +5.0363958675396616e-03
-2.0500000000000007e+00 +8.2848842426692961e+00 +0.0000000000000000e+00 -2.0499999956421608e+00 -2.6962293611838731e-02 -5.2447579253797927e-01 +5.0375371873238890e-03
-2.1000000000000005e+00 +8.2848785264570761e+00 +0.0000000000000000e+00 -2.0999999953153941e+00 -2.6962828492197648e-02 -5.2449175012460247e-01 +5.0386828294744944e-03
-2.1500000000000004e+00 +8.2848726724429227e+00 +0.0000000000000000e+00 -2.1499999949726836e+00 -2.6963384892450103e-02 -5.2450805714989757e-01 +5.0398327386330490e-03
-2.2000000000000002e+00 +8.2848666806225513e+00 +0.0000000000000000e+00 -2.1999999946136488e+00 -2.6963962633710068e-02 -5.2452471169031922e-01 +5.0409868594412230e-03
-2.2500000000000000e+00 +8.2848605509915867e+00 +0.0000000000000000e+00 -2.2499999942379092e+00 -2.6964561537092181e-02 -5.2454171182233489e-01 +5.0421451365407757e-03
-2.2999999999999998e+00 +8.2848542835455632e+00 +0.0000000000000000e+00 -2.2999999938450846e+00 -2.6965181423711678e-02 -5.2455905562242433e-01 +5.0433075145735421e-03
-2.3499999999999996e+00 +8.2848478782799226e+00 +0.0000000000000000e+00 -2.3499999934347944e+00 -2.6965822114684367e-02 -5.2457674116707831e-01 +5.0444739381814343e-03
-2.3999999999999995e+00 +8.2848413351900199e+00 +0.0000000000000000e+00 -2.3999999930066584e+00 -2.6966483431126620e-02 -5.2459476653280013e-01 +5.0456443520064329e-03
-2.4499999999999993e+00 +8.2848346542711173e+00 +0.0000000000000000e+00 -2.4499999925602958e+00 -2.6967165194155329e-02 -5.2461312979610442e-01 +5.0468187006905687e-03
-2.4999999999999991e+00 +8.2848278355183922e+00 +0.0000000000000000e+00 -2.4999999920953262e+00 -2.6967867224887889e-02 -5.2463182903351668e-01 +5.0479969288759283e-03
-2.5499999999999989e+00 +8.2848208789269311e+00 +0.0000000000000000e+00 -2.5499999916113687e+00 -2.6968589344442150e-02 -5.2465086232157387e-01 +5.0491789812046337e-03
-2.5999999999999988e+00 +8.2848137844917318e+00 +0.0000000000000000e+00 -2.5999999911080427e+00 -2.6969331373936391e-02 -5.2467022773682281e-01 +5.0503648023188458e-03
-2.6499999999999986e+00 +8.2848065522077086e+00 +0.0000000000000000e+00 -2.6499999905849676e+00 -2.6970093134489309e-02 -5.2468992335582187e-01 +5.0515543368607413e-03
-2.6999999999999984e+00 +8.2847991820696851e+00 +0.0000000000000000e+00 -2.6999999900417624e+00 -2.6970874447219968e-02 -5.2470994725513886e-01 +5.0527475294725272e-03
-2.7499999999999982e+00 +8.2847916740724017e+00 +0.0000000000000000e+00 -2.7499999894780465e+00 -2.6971675133247795e-02 -5.2473029751135203e-01 +5.0539443247964123e-03
-2.7999999999999980e+00 +8.2847840282105114e+00 +0.0000000000000000e+00 -2.7999999888934384e+00 -2.6972495013692522e-02 -5.2475097220104894e-01 +5.0551446674746078e-03
-2.8499999999999979e+00 +8.2847762444785840e+00 +0.0000000000000000e+00 -2.8499999882875575e+00 -2.6973333909674158e-02 -5.2477196940082727e-01 +5.0563485021493156e-03
-2.8999999999999977e+00 +8.2847683228711002e+00 +0.0000000000000000e+00 -2.8999999876600229e+00 -2.6974191642312986e-02 -5.2479328718729368e-01 +5.0575557734627331e-03
-2.9499999999999975e+00 +8.2847602633824611e+00 +0.0000000000000000e+00 -2.9499999870104534e+00 -2.6975068032729515e-02 -5.2481492363706328e-01 +5.0587664260570240e-03
-2.9999999999999973e+00 +8.2847520660069804e+00 +0.0000000000000000e+00 -2.9999999863384681e+00 -2.6975962902044452e-02 -5.2483687682676128e-01 +5.0599804045743275e-03
-3.0499999999999972e+00 +8.2847437307388923e+00 +0.0000000000000000e+00 -3.0499999856436855e+00 -2.6976876071378678e-02 -5.2485914483302021e-01 +5.0611976536567432e-03
-3.0999999999999970e+00 +8.2847352575723452e+00 +0.0000000000000000e+00 -3.0999999849257240e+00 -2.6977807361853214e-02 -5.2488172573248193e-01 +5.0624181179463228e-03
-3.1499999999999968e+00 +8.2847266465014062e+00 +0.0000000000000000e+00 -3.1499999841842028e+00 -2.6978756594589180e-02 -5.2490461760179530e-01 +5.0636417420850737e-03
-3.1999999999999966e+00 +8.2847178975200624e+00 +0.0000000000000000e+00 -3.1999999834187403e+00 -2.6979723590707803e-02 -5.2492781851761794e-01 +5.0648684707149264e-03
-3.2499999999999964e+00 +8.2847090106222172e+00 +0.0000000000000000e+00 -3.2499999826289550e+00 -2.6980708171330324e-02 -5.2495132655661447e-01 +5.0660982484777460e-03
-3.2999999999999963e+00 +8.2846999858016943e+00 +0.0000000000000000e+00 -3.2999999818144654e+00 -2.6981710157578054e-02 -5.2497513979545773e-01 +5.0673310200153275e-03
-3.3499999999999961e+00 +8.2846908230522374e+00 +0.0000000000000000e+00 -3.3499999809748897e+00 -2.6982729370572264e-02 -5.2499925631082633e-01 +5.0685667299693732e-03
-3.3999999999999959e+00 +8.2846815223675101e+00 +0.0000000000000000e+00 -3.3999999801098464e+00 -2.6983765631434186e-02 -5.2502367417940687e-01 +5.0698053229814872e-03
-3.4499999999999957e+00 +8.2846720837410981e+00 +0.0000000000000000e+00 -3.4499999792189540e+00 -2.6984818761285022e-02 -5.2504839147789206e-01 +5.0710467436931818e-03
-3.4999999999999956e+00 +8.2846625071665052e+00 +0.0000000000000000e+00 -3.4999999783018301e+00 -2.6985888581245843e-02 -5.2507340628298149e-01 +5.0722909367458546e-03
-3.5499999999999954e+00 +8.2846527926371625e+00 +0.0000000000000000e+00 -3.5499999773580933e+00 -2.6986974912437619e-02 -5.2509871667138008e-01 +5.0735378467807821e-03
-3.5999999999999952e+00 +8.2846429401464174e+00 +0.0000000000000000e+00 -3.5999999763873616e+00 -2.6988077575981144e-02 -5.2512432071979953e-01 +5.0747874184391183e-03
-3.6499999999999950e+00 +8.2846329496875448e+00 +0.0000000000000000e+00 -3.6499999753892531e+00 -2.6989196392997055e-02 -5.2515021650495675e-01 +5.0760395963618844e-03
-3.6999999999999948e+00 +8.2846228212537394e+00 +0.0000000000000000e+00 -3.6999999743633856e+00 -2.6990331184605740e-02 -5.2517640210357430e-01 +5.0772943251899535e-03
-3.7499999999999947e+00 +8.2846125548381231e+00 +0.0000000000000000e+00 -3.7499999733093770e+00 -2.6991481771927412e-02 -5.2520287559237944e-01 +5.0785515495640580e-03
-3.7999999999999945e+00 +8.2846021504337397e+00 +0.0000000000000000e+00 -3.7999999722268449e+00 -2.6992647976081925e-02 -5.2522963504810527e-01 +5.0798112141247692e-03
-3.8499999999999943e+00 +8.2845916080335584e+00 +0.0000000000000000e+00 -3.8499999711154071e+00 -2.6993829618188893e-02 -5.2525667854748881e-01 +5.0810732635124863e-03
-3.8999999999999941e+00 +8.2845809276304738e+00 +0.0000000000000000e+00 -3.8999999699746812e+00 -2.6995026519367592e-02 -5.2528400416727195e-01 +5.0823376423674458e-03
-3.9499999999999940e+00 +8.2845701092173076e+00 +0.0000000000000000e+00 -3.9499999688042848e+00 -2.6996238500736916e-02 -5.2531160998420090e-01 +5.0836042953296915e-03
-3.9999999999999938e+00 +8.2845591527868070e+00 +0.0000000000000000e+00 -3.9999999676038351e+00 -2.6997465383415391e-02 -5.2533949407502512e-01 +5.0848731670390850e-03
-4.0499999999999936e+00 +8.2845480583316462e+00 +0.0000000000000000e+00 -4.0499999663729502e+00 -2.6998707004026037e-02 -5.2536765435906563e-01 +5.0861441991594449e-03
-4.0999999999999934e+00 +8.2845368258444267e+00 +0.0000000000000000e+00 -4.0999999651112464e+00 -2.6999963261211443e-02 -5.2539608812590977e-01 +5.0874173214509235e-03
-4.1499999999999932e+00 +8.2845254553176773e+00 +0.0000000000000000e+00 -4.1499999638183418e+00 -2.7001234069119376e-02 -5.2542479250771423e-01 +5.0886924606974703e-03
-4.1999999999999931e+00 +8.2845139467438571e+00 +0.0000000000000000e+00 -4.1999999624938535e+00 -2.7002519341897773e-02 -5.2545376463663651e-01 +5.0899695436826316e-03
-4.2499999999999929e+00 +8.2845023001153528e+00 +0.0000000000000000e+00 -4.2499999611373980e+00 -2.7003818993694778e-02 -5.2548300164483619e-01 +5.0912484971895660e-03
-4.2999999999999927e+00 +8.2844905154244852e+00 +0.0000000000000000e+00 -4.2999999597485923e+00 -2.7005132938658732e-02 -5.2551250066447375e-01 +5.0925292480010131e-03
-4.3499999999999925e+00 +8.2844785926635023e+00 +0.0000000000000000e+00 -4.3499999583270537e+00 -2.7006461090938152e-02 -5.2554225882771133e-01 +5.0938117228992892e-03
-4.3999999999999924e+00 +8.2844665318245863e+00 +0.0000000000000000e+00 -4.3999999568723993e+00 -2.7007803364681716e-02 -5.2557227326671097e-01 +5.0950958486662753e-03
-4.4499999999999922e+00 +8.2844543328998519e+00 +0.0000000000000000e+00 -4.4499999553842455e+00 -2.7009159674038271e-02 -5.2560254111363525e-01 +5.0963815520833925e-03
-4.4999999999999920e+00 +8.2844419958813464e+00 +0.0000000000000000e+00 -4.4999999538622095e+00 -2.7010529933156838e-02 -5.2563305950064731e-01 +5.0976687599316095e-03
-4.5499999999999918e+00 +8.2844295207610532e+00 +0.0000000000000000e+00 -4.5499999523059076e+00 -2.7011914056186546e-02 -5.2566382555990954e-01 +5.0989573989914071e-03
-4.5999999999999917e+00 +8.2844169075308880e+00 +0.0000000000000000e+00 -4.5999999507149560e+00 -2.7013311957276697e-02 -5.2569483642358494e-01 +5.1002473960427876e-03
-4.6499999999999915e+00 +8.2844041561827026e+00 +0.0000000000000000e+00 -4.6499999490889712e+00 -2.7014723550576686e-02 -5.2572608922383435e-01 +5.1015386778652406e-03
-4.6999999999999913e+00 +8.2843912667082868e+00 +0.0000000000000000e+00 -4.6999999474275693e+00 -2.7016148750236075e-02 -5.2575758109281923e-01 +5.1028311712377466e-03
-4.7499999999999911e+00 +8.2843782390993663e+00 +0.0000000000000000e+00 -4.7499999457303677e+00 -2.7017587470404485e-02 -5.2578930916269839e-01 +5.1041248029387535e-03
-4.7999999999999909e+00 +8.2843650733476064e+00 +0.0000000000000000e+00 -4.7999999439969816e+00 -2.7019039625231663e-02 -5.2582127056562988e-01 +5.1054194997461697e-03
-4.8499999999999908e+00 +8.2843517694446085e+00 +0.0000000000000000e+00 -4.8499999422270275e+00 -2.7020505128867483e-02 -5.2585346243377007e-01 +5.1067151884373538e-03
-4.8999999999999906e+00 +8.2843383273819153e+00 +0.0000000000000000e+00 -4.8999999404201207e+00 -2.7021983895461853e-02 -5.2588588189927232e-01 +5.1080117957890926e-03
-4.9499999999999904e+00 +8.2843247471510093e+00 +0.0000000000000000e+00 -4.9499999385758784e+00 -2.7023475839164774e-02 -5.2591852609428857e-01 +5.1093092485775928e-03
-4.9999999999999902e+00 +8.2843110287433142e+00 +0.0000000000000000e+00 -4.9999999366939152e+00 -2.7024980874126324e-02 -5.2595139215096809e-01 +5.1106074735784678e-03
-5.0499999999999901e+00 +8.2842971721501950e+00 +0.0000000000000000e+00 -5.0499999347738473e+00 -2.7026498914496641e-02 -5.2598447720145591e-01 +5.1119063975667298e-03
-5.0999999999999899e+00 +8.2842831773629602e+00 +0.0000000000000000e+00 -5.0999999328152903e+00 -2.7028029874425909e-02 -5.2601777837789609e-01 +5.1132059473167762e-03
-5.1499999999999897e+00 +8.2842690443728593e+00 +0.0000000000000000e+00 -5.1499999308178603e+00 -2.7029573668064352e-02 -5.2605129281242713e-01 +5.1145060496023600e-03
-5.1999999999999895e+00 +8.2842547731710869e+00 +0.0000000000000000e+00 -5.1999999287811720e+00 -2.7031130209562219e-02 -5.2608501763718463e-01 +5.1158066311965990e-03
-5.2499999999999893e+00 +8.2842403637487827e+00 +0.0000000000000000e+00 -5.2499999267048416e+00 -2.7032699413069825e-02 -5.2611894998430042e-01 +5.1171076188719546e-03
-5.2999999999999892e+00 +8.2842258160970328e+00 +0.0000000000000000e+00 -5.2999999245884837e+00 -2.7034281192737458e-02 -5.2615308698590169e-01 +5.1184089394002144e-03
-5.3499999999999890e+00 +8.2842111302068684e+00 +0.0000000000000000e+00 -5.3499999224317136e+00 -2.7035875462715419e-02 -5.2618742577411104e-01 +5.1197105195524848e-03
-5.3999999999999888e+00 +8.2841963060692656e+00 +0.0000000000000000e+00 -5.3999999202341469e+00 -2.7037482137154029e-02 -5.2622196348104577e-01 +5.1210122860991802e-03
-5.4499999999999886e+00 +8.2841813436751526e+00 +0.0000000000000000e+00 -5.4499999179953988e+00 -2.7039101130203580e-02 -5.2625669723881896e-01 +5.1223141658100014e-03
-5.4999999999999885e+00 +8.2841662430154024e+00 +0.0000000000000000e+00 -5.4999999157150832e+00 -2.7040732356014386e-02 -5.2629162417953779e-01 +5.1236160854539279e-03
-5.5499999999999883e+00 +8.2841510040808402e+00 +0.0000000000000000e+00 -5.5499999133928162e+00 -2.7042375728736672e-02 -5.2632674143530311e-01 +5.1249179717992085e-03
-5.5999999999999881e+00 +8.2841356268622377e+00 +0.0000000000000000e+00 -5.5999999110282115e+00 -2.7044031162520667e-02 -5.2636204613821080e-01 +5.1262197516133432e-03
-5.6499999999999879e+00 +8.2841201113503207e+00 +0.0000000000000000e+00 -5.6499999086208845e+00 -2.7045698571516563e-02 -5.2639753542035006e-01 +5.1275213516630697e-03
-5.6999999999999877e+00 +8.2841044575357650e+00 +0.0000000000000000e+00 -5.6999999061704498e+00 -2.7047377869874469e-02 -5.2643320641380309e-01 +5.1288226987143588e-03
-5.7499999999999876e+00 +8.2840886654091985e+00 +0.0000000000000000e+00 -5.7499999036765210e+00 -2.7049068971744458e-02 -5.2646905625064588e-01 +5.1301237195323897e-03
-5.7999999999999874e+00 +8.2840727349612031e+00 +0.0000000000000000e+00 -5.7999999011387136e+00 -2.7050771791276532e-02 -5.2650508206294711e-01 +5.1314243408815451e-03
-5.8499999999999872e+00 +8.2840566661823125e+00 +0.0000000000000000e+00 -5.8499998985566410e+00 -2.7052486242620598e-02 -5.2654128098276798e-01 +5.1327244895253967e-03
