# trajectory
# s[mm] rx[mm] ry[mm] rz[mm] px[rad] py[rad] pz[rad]
0.0000000000000000e+00 +8.5980000000000008e+00 +0.0000000000000000e+00 +0.0000000000000000e+00 +0.0000000000000000e+00 +0.0000000000000000e+00 +1.0000000000000000e+00
-5.0000000000000003e-02 +8.5979999310714472e+00 +0.0000000000000000e+00 -4.9999999999936644e-02 +2.7571435893033071e-06 +0.0000000000000000e+00 +9.9999999999619904e-01
-1.0000000000000001e-01 +8.5979997242854811e+00 +0.0000000000000000e+00 -9.9999999999493189e-02 +5.5142968453781970e-06 +0.0000000000000000e+00 +9.9999999998479627e-01
-1.5000000000000002e-01 +8.5979993796415695e+00 +0.0000000000000000e+00 -1.4999999999828956e-01 +8.2714617140100011e-06 +0.0000000000000000e+00 +9.9999999996579148e-01
-2.0000000000000001e-01 +8.5979988971390835e+00 +0.0000000000000000e+00 -1.9999999999594564e-01 +1.1028640136657042e-05 +0.0000000000000000e+00 +9.9999999993918454e-01
-2.5000000000000000e-01 +8.5979982767772967e+00 +0.0000000000000000e+00 -2.4999999999208133e-01 +1.3785834050450723e-05 +0.0000000000000000e+00 +9.9999999990497535e-01
-2.9999999999999999e-01 +8.5979975185553865e+00 +0.0000000000000000e+00 -2.9999999998631649e-01 +1.6543045388195620e-05 +0.0000000000000000e+00 +9.9999999986316379e-01
-3.4999999999999998e-01 +8.5979966224724347e+00 +0.0000000000000000e+00 -3.4999999997827103e-01 +1.9300276078369572e-05 +0.0000000000000000e+00 +9.9999999981374965e-01
-3.9999999999999997e-01 +8.5979955885274251e+00 +0.0000000000000000e+00 -3.9999999996756475e-01 +2.2057528045123769e-05 +0.0000000000000000e+00 +9.9999999975673270e-01
-4.4999999999999996e-01 +8.5979944167192439e+00 +0.0000000000000000e+00 -4.4999999995381756e-01 +2.4814803208282847e-05 +0.0000000000000000e+00 +9.9999999969211273e-01
-4.9999999999999994e-01 +8.5979931070466851e+00 +0.0000000000000000e+00 -4.9999999993664929e-01 +2.7572103483344963e-05 +0.0000000000000000e+00 +9.9999999961988950e-01
-5.4999999999999993e-01 +8.5979916595084447e+00 +0.0000000000000000e+00 -5.4999999991567983e-01 +3.0329430781481898e-05 +0.0000000000000000e+00 +9.9999999954006280e-01
-5.9999999999999998e-01 +8.5979900741031248e+00 +0.0000000000000000e+00 -5.9999999989052888e-01 +3.3086787009539137e-05 +0.0000000000000000e+00 +9.9999999945263229e-01
-6.5000000000000002e-01 +8.5979883508292296e+00 +0.0000000000000000e+00 -6.4999999986081636e-01 +3.5844174070035957e-05 +0.0000000000000000e+00 +9.9999999935759765e-01
-7.0000000000000007e-01 +8.5979864896851712e+00 +0.0000000000000000e+00 -6.9999999982616190e-01 +3.8601593861165517e-05 +0.0000000000000000e+00 +9.9999999925495853e-01
-7.5000000000000011e-01 +8.5979844906692655e+00 +0.0000000000000000e+00 -7.4999999978618537e-01 +4.1359048276794930e-05 +0.0000000000000000e+00 +9.9999999914471460e-01
-8.0000000000000016e-01 +8.5979823537797344e+00 +0.0000000000000000e+00 -7.9999999974050651e-01 +4.4116539206465369e-05 +0.0000000000000000e+00 +9.9999999902686554e-01
-8.5000000000000020e-01 +8.5979800790147056e+00 +0.0000000000000000e+00 -8.4999999968874507e-01 +4.6874068535392129e-05 +0.0000000000000000e+00 +9.9999999890141089e-01
-9.0000000000000024e-01 +8.5979776663722109e+00 +0.0000000000000000e+00 -8.9999999963052080e-01 +4.9631638144464734e-05 +0.0000000000000000e+00 +9.9999999876835033e-01
-9.5000000000000029e-01 +8.5979751158501898e+00 +0.0000000000000000e+00 -9.4999999956545333e-01 +5.2389249910247000e-05 +0.0000000000000000e+00 +9.9999999862768330e-01
-1.0000000000000002e+00 +8.5979724274464875e+00 +0.0000000000000000e+00 -9.9999999949316232e-01 +5.5146905704977125e-05 +0.0000000000000000e+00 +9.9999999847940946e-01
-1.0500000000000003e+00 +8.5979696011588551e+00 +0.0000000000000000e+00 -1.0499999994132674e+00 +5.7904607396567782e-05 +0.0000000000000000e+00 +9.9999999832352826e-01
-1.1000000000000003e+00 +8.5979666369849514e+00 +0.0000000000000000e+00 -1.0999999993253882e+00 +6.0662356848606189e-05 +0.0000000000000000e+00 +9.9999999816003926e-01
-1.1500000000000004e+00 +8.5979635349223429e+00 +0.0000000000000000e+00 -1.1499999992291443e+00 +6.3420155920354182e-05 +0.0000000000000000e+00 +9.9999999798894190e-01
-1.2000000000000004e+00 +8.5979602949685017e+00 +0.0000000000000000e+00 -1.1999999991241554e+00 +6.6178006466748322e-05 +0.0000000000000000e+00 +9.9999999781023574e-01
-1.2500000000000004e+00 +8.5979569171208077e+00 +0.0000000000000000e+00 -1.2499999990100410e+00 +6.8935910338399934e-05 +0.0000000000000000e+00 +9.9999999762392011e-01
-1.3000000000000005e+00 +8.5979534013765484e+00 +0.0000000000000000e+00 -1.2999999988864206e+00 +7.1693869381595244e-05 +0.0000000000000000e+00 +9.9999999742999457e-01
-1.3500000000000005e+00 +8.5979497477329190e+00 +0.0000000000000000e+00 -1.3499999987529137e+00 +7.4451885438295393e-05 +0.0000000000000000e+00 +9.9999999722845845e-01
-1.4000000000000006e+00 +8.5979459561870240e+00 +0.0000000000000000e+00 -1.3999999986091396e+00 +7.7209960346136556e-05 +0.0000000000000000e+00 +9.9999999701931108e-01
-1.4500000000000006e+00 +8.5979420267358737e+00 +0.0000000000000000e+00 -1.4499999984547178e+00 +7.9968095938430029e-05 +0.0000000000000000e+00 +9.9999999680255192e-01
-1.5000000000000007e+00 +8.5979379593763881e+00 +0.0000000000000000e+00 -1.4999999982892678e+00 +8.2726294044162249e-05 +0.0000000000000000e+00 +9.9999999657818028e-01
-1.5500000000000007e+00 +8.5979337541053962e+00 +0.0000000000000000e+00 -1.5499999981124088e+00 +8.5484556487994950e-05 +0.0000000000000000e+00 +9.9999999634619541e-01
-1.6000000000000008e+00 +8.5979294109196367e+00 +0.0000000000000000e+00 -1.5999999979237605e+00 +8.8242885090265171e-05 +0.0000000000000000e+00 +9.9999999610659673e-01
-1.6500000000000008e+00 +8.5979249298157541e+00 +0.0000000000000000e+00 -1.6499999977229416e+00 +9.1001281666985354e-05 +0.0000000000000000e+00 +9.9999999585938348e-01
-1.7000000000000008e+00 +8.5979203107903057e+00 +0.0000000000000000e+00 -1.6999999975095719e+00 +9.3759748029843438e-05 +0.0000000000000000e+00 +9.9999999560455499e-01
-1.7500000000000009e+00 +8.5979155538397567e+00 +0.0000000000000000e+00 -1.7499999972832703e+00 +9.6518285986202913e-05 +0.0000000000000000e+00 +9.9999999534211037e-01
-1.8000000000000009e+00 +8.5979106589604832e+00 +0.0000000000000000e+00 -1.7999999970436560e+00 +9.9276897339102888e-05 +0.0000000000000000e+00 +9.9999999507204895e-01
-1.8500000000000010e+00 +8.5979056261487692e+00 +0.0000000000000000e+00 -1.8499999967903482e+00 +1.0203558388725817e-04 +0.0000000000000000e+00 +9.9999999479436996e-01
-1.9000000000000010e+00 +8.5979004554008114e+00 +0.0000000000000000e+00 -1.8999999965229659e+00 +1.0479434742505937e-04 +0.0000000000000000e+00 +9.9999999450907251e-01
-1.9500000000000011e+00 +8.5978951467127143e+00 +0.0000000000000000e+00 -1.9499999962411283e+00 +1.0755318974257291e-04 +0.0000000000000000e+00 +9.9999999421615582e-01
-2.0000000000000009e+00 +8.5978897000804952e+00 +0.0000000000000000e+00 -1.9999999959444543e+00 +1.1031211262554115e-04 +0.0000000000000000e+00 +9.9999999391561900e-01
-2.0500000000000007e+00 +8.5978841155000794e+00 +0.0000000000000000e+00 -2.0499999956325632e+00 +1.1307111785512098e-04 +0.0000000000000000e+00 +9.9999999360746128e-01
-2.1000000000000005e+00 +8.5978783929673064e+00 +0.0000000000000000e+00 -2.0999999953050734e+00 +1.1583020720500806e-04 +0.0000000000000000e+00 +9.9999999329168165e-01
-2.1500000000000004e+00 +8.5978725324779273e+00 +0.0000000000000000e+00 -2.1499999949616040e+00 +1.1858938243856095e-04 +0.0000000000000000e+00 +9.9999999296827924e-01
-2.2000000000000002e+00 +8.5978665340276024e+00 +0.0000000000000000e+00 -2.1999999946017739e+00 +1.2134864530853982e-04 +0.0000000000000000e+00 +9.9999999263725314e-01
-2.2500000000000000e+00 +8.5978603976119068e+00 +0.0000000000000000e+00 -2.2499999942252020e+00 +1.2410799755710643e-04 +0.0000000000000000e+00 +9.9999999229860248e-01
-2.2999999999999998e+00 +8.5978541232263286e+00 +0.0000000000000000e+00 -2.2999999938315070e+00 +1.2686744091582427e-04 +0.0000000000000000e+00 +9.9999999195232625e-01
-2.3499999999999996e+00 +8.5978477108662688e+00 +0.0000000000000000e+00 -2.3499999934203073e+00 +1.2962697710565852e-04 +0.0000000000000000e+00 +9.9999999159842345e-01
-2.3999999999999995e+00 +8.5978411605270431e+00 +0.0000000000000000e+00 -2.3999999929912219e+00 +1.3238660783697622e-04 +0.0000000000000000e+00 +9.9999999123689309e-01
-2.4499999999999993e+00 +8.5978344722038820e+00 +0.0000000000000000e+00 -2.4499999925438694e+00 +1.3514633480954624e-04 +0.0000000000000000e+00 +9.9999999086773417e-01
-2.4999999999999991e+00 +8.5978276458919307e+00 +0.0000000000000000e+00 -2.4999999920778682e+00 +1.3790615971253937e-04 +0.0000000000000000e+00 +9.9999999049094568e-01
-2.5499999999999989e+00 +8.5978206815862510e+00 +0.0000000000000000e+00 -2.5499999915928369e+00 +1.4066608422452835e-04 +0.0000000000000000e+00 +9.9999999010652652e-01
-2.5999999999999988e+00 +8.5978135792818211e+00 +0.0000000000000000e+00 -2.5999999910883935e+00 +1.4342611001348800e-04 +0.0000000000000000e+00 +9.9999998971447557e-01
-2.6499999999999986e+00 +8.5978063389735340e+00 +0.0000000000000000e+00 -2.6499999905641571e+00 +1.4618623873679520e-04 +0.0000000000000000e+00 +9.9999998931479184e-01
-2.6999999999999984e+00 +8.5977989606562044e+00 +0.0000000000000000e+00 -2.6999999900197458e+00 +1.4894647204122897e-04 +0.0000000000000000e+00 +9.9999998890747421e-01
-2.7499999999999982e+00 +8.5977914443245602e+00 +0.0000000000000000e+00 -2.7499999894547775e+00 +1.5170681156297051e-04 +0.0000000000000000e+00 +9.9999998849252159e-01
-2.7999999999999980e+00 +8.5977837899732510e+00 +0.0000000000000000e+00 -2.7999999888688709e+00 +1.5446725892760325e-04 +0.0000000000000000e+00 +9.9999998806993284e-01
-2.8499999999999979e+00 +8.5977759975968429e+00 +0.0000000000000000e+00 -2.8499999882616436e+00 +1.5722781575011293e-04 +0.0000000000000000e+00 +9.9999998763970688e-01
-2.8999999999999977e+00 +8.5977680671898238e+00 +0.0000000000000000e+00 -2.8999999876327140e+00 +1.5998848363488763e-04 +0.0000000000000000e+00 +9.9999998720184247e-01
-2.9499999999999975e+00 +8.5977599987466018e+00 +0.0000000000000000e+00 -2.9499999869817004e+00 +1.6274926417571777e-04 +0.0000000000000000e+00 +9.9999998675633839e-01
-2.9999999999999973e+00 +8.5977517922615032e+00 +0.0000000000000000e+00 -2.9999999863082207e+00 +1.6551015895579626e-04 +0.0000000000000000e+00 +9.9999998630319353e-01
-3.0499999999999972e+00 +8.5977434477287762e+00 +0.0000000000000000e+00 -3.0499999856118927e+00 +1.6827116954771848e-04 +0.0000000000000000e+00 +9.9999998584240668e-01
-3.0999999999999970e+00 +8.5977349651425925e+00 +0.0000000000000000e+00 -3.0999999848923343e+00 +1.7103229751348230e-04 +0.0000000000000000e+00 +9.9999998537397650e-01
-3.1499999999999968e+00 +8.5977263444970440e+00 +0.0000000000000000e+00 -3.1499999841491633e+00 +1.7379354440448820e-04 +0.0000000000000000e+00 +9.9999998489790187e-01
-3.1999999999999966e+00 +8.5977175857861443e+00 +0.0000000000000000e+00 -3.1999999833819972e+00 +1.7655491176153922e-04 +0.0000000000000000e+00 +9.9999998441418148e-01
-3.2499999999999964e+00 +8.5977086890038343e+00 +0.0000000000000000e+00 -3.2499999825904538e+00 +1.7931640111484113e-04 +0.0000000000000000e+00 +9.9999998392281408e-01
-3.2999999999999963e+00 +8.5976996541439750e+00 +0.0000000000000000e+00 -3.2999999817741510e+00 +1.8207801398400234e-04 +0.0000000000000000e+00 +9.9999998342379837e-01
-3.3499999999999961e+00 +8.5976904812003525e+00 +0.0000000000000000e+00 -3.3499999809327061e+00 +1.8483975187803399e-04 +0.0000000000000000e+00 +9.9999998291713299e-01
-3.3999999999999959e+00 +8.5976811701666787e+00 +0.0000000000000000e+00 -3.3999999800657368e+00 +1.8760161629535003e-04 +0.0000000000000000e+00 +9.9999998240281673e-01
-3.4499999999999957e+00 +8.5976717210365905e+00 +0.0000000000000000e+00 -3.4499999791728602e+00 +1.9036360872376720e-04 +0.0000000000000000e+00 +9.9999998188084815e-01
-3.4999999999999956e+00 +8.5976621338036487e+00 +0.0000000000000000e+00 -3.4999999782536939e+00 +1.9312573064050512e-04 +0.0000000000000000e+00 +9.9999998135122603e-01
-3.5499999999999954e+00 +8.5976524084613430e+00 +0.0000000000000000e+00 -3.5499999773078552e+00 +1.9588798351218627e-04 +0.0000000000000000e+00 +9.9999998081394892e-01
-3.5999999999999952e+00 +8.5976425450030902e+00 +0.0000000000000000e+00 -3.5999999763349613e+00 +1.9865036879483606e-04 +0.0000000000000000e+00 +9.9999998026901549e-01
-3.6499999999999950e+00 +8.5976325434222325e+00 +0.0000000000000000e+00 -3.6499999753346293e+00 +2.0141288793388290e-04 +0.0000000000000000e+00 +9.9999997971642429e-01
-3.6999999999999948e+00 +8.5976224037120410e+00 +0.0000000000000000e+00 -3.6999999743064760e+00 +2.0417554236415813e-04 +0.0000000000000000e+00 +9.9999997915617389e-01
-3.7499999999999947e+00 +8.5976121258657159e+00 +0.0000000000000000e+00 -3.7499999732501190e+00 +2.0693833350989615e-04 +0.0000000000000000e+00 +9.9999997858826295e-01
-3.7999999999999945e+00 +8.5976017098763862e+00 +0.0000000000000000e+00 -3.7999999721651747e+00 +2.0970126278473442e-04 +0.0000000000000000e+00 +9.9999997801269003e-01
-3.8499999999999943e+00 +8.5975911557371116e+00 +0.0000000000000000e+00 -3.8499999710512602e+00 +2.1246433159171347e-04 +0.0000000000000000e+00 +9.9999997742945368e-01
-3.8999999999999941e+00 +8.5975804634408792e+00 +0.0000000000000000e+00 -3.8999999699079924e+00 +2.1522754132327697e-04 +0.0000000000000000e+00 +9.9999997683855246e-01
-3.9499999999999940e+00 +8.5975696329806084e+00 +0.0000000000000000e+00 -3.9499999687349878e+00 +2.1799089336127172e-04 +0.0000000000000000e+00 +9.9999997623998493e-01
-3.9999999999999938e+00 +8.5975586643491493e+00 +0.0000000000000000e+00 -3.9999999675318629e+00 +2.2075438907694772e-04 +0.0000000000000000e+00 +9.9999997563374954e-01
-4.0499999999999936e+00 +8.5975475575392846e+00 +0.0000000000000000e+00 -4.0499999662982349e+00 +2.2351802983079744e-04 +0.0000000000000000e+00 +9.9999997501984483e-01
-4.0999999999999934e+00 +8.5975363125437276e+00 +0.0000000000000000e+00 -4.0999999650337200e+00 +2.2628181697078816e-04 +0.0000000000000000e+00 +9.9999997439826926e-01
-4.1499999999999932e+00 +8.5975249293551261e+00 +0.0000000000000000e+00 -4.1499999637379341e+00 +2.2904575183059421e-04 +0.0000000000000000e+00 +9.9999997376902139e-01
-4.1999999999999931e+00 +8.5975134079660602e+00 +0.0000000000000000e+00 -4.1999999624104944e+00 +2.3180983572943629e-04 +0.0000000000000000e+00 +9.9999997313209965e-01
-4.2499999999999929e+00 +8.5975017483690461e+00 +0.0000000000000000e+00 -4.2499999610510164e+00 +2.3457406997208144e-04 +0.0000000000000000e+00 +9.9999997248750250e-01
-4.2999999999999927e+00 +8.5974899505565343e+00 +0.0000000000000000e+00 -4.2999999596591163e+00 +2.3733845584884313e-04 +0.0000000000000000e+00 +9.9999997183522837e-01
-4.3499999999999925e+00 +8.5974780145209113e+00 +0.0000000000000000e+00 -4.3499999582344113e+00 +2.4010299463558119e-04 +0.0000000000000000e+00 +9.9999997117527561e-01
-4.3999999999999924e+00 +8.5974659402544997e+00 +0.0000000000000000e+00 -4.3999999567765160e+00 +2.4286768759370183e-04 +0.0000000000000000e+00 +9.9999997050764278e-01
-4.4499999999999922e+00 +8.5974537277495600e+00 +0.0000000000000000e+00 -4.4499999552850475e+00 +2.4563253597015771e-04 +0.0000000000000000e+00 +9.9999996983232819e-01
-4.4999999999999920e+00 +8.5974413769982903e+00 +0.0000000000000000e+00 -4.4999999537596214e+00 +2.4839754099744777e-04 +0.0000000000000000e+00 +9.9999996914933031e-01
-4.5499999999999918e+00 +8.5974288879928285e+00 +0.0000000000000000e+00 -4.5499999521998529e+00 +2.5116270389361747e-04 +0.0000000000000000e+00 +9.9999996845864758e-01
-4.5999999999999917e+00 +8.5974162607252502e+00 +0.0000000000000000e+00 -4.5999999506053584e+00 +2.5392802586225857e-04 +0.0000000000000000e+00 +9.9999996776027833e-01
-4.6499999999999915e+00 +8.5974034951875709e+00 +0.0000000000000000e+00 -4.6499999489757533e+00 +2.5669350809250926e-04 +0.0000000000000000e+00 +9.9999996705422090e-01
-4.6999999999999913e+00 +8.5973905913717488e+00 +0.0000000000000000e+00 -4.6999999473106531e+00 +2.5945915175905408e-04 +0.0000000000000000e+00 +9.9999996634047372e-01
-4.7499999999999911e+00 +8.5973775492696838e+00 +0.0000000000000000e+00 -4.7499999456096731e+00 +2.6222495802212401e-04 +0.0000000000000000e+00 +9.9999996561903515e-01
-4.7999999999999909e+00 +8.5973643688732171e+00 +0.0000000000000000e+00 -4.7999999438724288e+00 +2.6499092802749637e-04 +0.0000000000000000e+00 +9.9999996488990350e-01
-4.8499999999999908e+00 +8.5973510501741330e+00 +0.0000000000000000e+00 -4.8499999420985356e+00 +2.6775706290649477e-04 +0.0000000000000000e+00 +9.9999996415307713e-01
-4.8999999999999906e+00 +8.5973375931641591e+00 +0.0000000000000000e+00 -4.8999999402876089e+00 +2.7052336377598931e-04 +0.0000000000000000e+00 +9.9999996340855424e-01
-4.9499999999999904e+00 +8.5973239978349696e+00 +0.0000000000000000e+00 -4.9499999384392632e+00 +2.7328983173839633e-04 +0.0000000000000000e+00 +9.9999996265633329e-01
-4.9999999999999902e+00 +8.5973102641781818e+00 +0.0000000000000000e+00 -4.9999999365531140e+00 +2.7605646788167850e-04 +0.0000000000000000e+00 +9.9999996189641260e-01
-5.0499999999999901e+00 +8.5972963921853598e+00 +0.0000000000000000e+00 -5.0499999346287758e+00 +2.7882327327934483e-04 +0.0000000000000000e+00 +9.9999996112879042e-01
-5.0999999999999899e+00 +8.5972823818480144e+00 +0.0000000000000000e+00 -5.0999999326658640e+00 +2.8159024899045062e-04 +0.0000000000000000e+00 +9.9999996035346506e-01
-5.1499999999999897e+00 +8.5972682331576049e+00 +0.0000000000000000e+00 -5.1499999306639932e+00 +2.8435739605959750e-04 +0.0000000000000000e+00 +9.9999995957043486e-01
-5.1999999999999895e+00 +8.5972539461055355e+00 +0.0000000000000000e+00 -5.1999999286227787e+00 +2.8712471551693328e-04 +0.0000000000000000e+00 +9.9999995877969805e-01
-5.2499999999999893e+00 +8.5972395206831624e+00 +0.0000000000000000e+00 -5.2499999265418342e+00 +2.8989220837815206e-04 +0.0000000000000000e+00 +9.9999995798125296e-01
-5.2999999999999892e+00 +8.5972249568817904e+00 +0.0000000000000000e+00 -5.2999999244207752e+00 +2.9265987564449411e-04 +0.0000000000000000e+00 +9.9999995717509771e-01
-5.3499999999999890e+00 +8.5972102546926745e+00 +0.0000000000000000e+00 -5.3499999222592152e+00 +2.9542771830274597e-04 +0.0000000000000000e+00 +9.9999995636123074e-01
-5.3999999999999888e+00 +8.5971954141070199e+00 +0.0000000000000000e+00 -5.3999999200567697e+00 +2.9819573732524032e-04 +0.0000000000000000e+00 +9.9999995553965015e-01
-5.4499999999999886e+00 +8.5971804351159857e+00 +0.0000000000000000e+00 -5.4499999178130523e+00 +3.0096393366985601e-04 +0.0000000000000000e+00 +9.9999995471035430e-01
-5.4999999999999885e+00 +8.5971653177106813e+00 +0.0000000000000000e+00 -5.4999999155276766e+00 +3.0373230828001797e-04 +0.0000000000000000e+00 +9.9999995387334140e-01
-5.5499999999999883e+00 +8.5971500618821715e+00 +0.0000000000000000e+00 -5.5499999132002573e+00 +3.0650086208469722e-04 +0.0000000000000000e+00 +9.9999995302860967e-01
-5.5999999999999881e+00 +8.5971346676214715e+00 +0.0000000000000000e+00 -5.5999999108304088e+00 +3.0926959599841093e-04 +0.0000000000000000e+00 +9.9999995217615734e-01
-5.6499999999999879e+00 +8.5971191349195539e+00 +0.0000000000000000e+00 -5.6499999084177448e+00 +3.1203851092122216e-04 +0.0000000000000000e+00 +9.9999995131598263e-01
-5.6999999999999877e+00 +8.5971034637673469e+00 +0.0000000000000000e+00 -5.6999999059618789e+00 +3.1480760773874009e-04 +0.0000000000000000e+00 +9.9999995044808376e-01
-5.7499999999999876e+00 +8.5970876541557342e+00 +0.0000000000000000e+00 -5.7499999034624247e+00 +3.1757688732211983e-04 +0.0000000000000000e+00 +9.9999994957245897e-01
-5.7999999999999874e+00 +8.5970717060755550e+00 +0.0000000000000000e+00 -5.7999999009189960e+00 +3.2034635052806241e-04 +0.0000000000000000e+00 +9.9999994868910647e-01
-5.8499999999999872e+00 +8.5970556195176080e+00 +0.0000000000000000e+00 -5.8499998983312063e+00 +3.2311599819881480e-04 +0.0000000000000000e+00 +9.9999994779802437e-01
