# trajectory
# s[mm] rx[mm] ry[mm] rz[mm] px[rad] py[rad] pz[rad]
0.0000000000000000e+00 +8.2850000000000001e+00 +0.0000000000000000e+00 +0.0000000000000000e+00 +0.0000000000000000e+00 +0.0000000000000000e+00 +1.0000000000000000e+00
-5.0000000000000003e-02 +8.2849999310354825e+00 +0.0000000000000000e+00 -4.9999999999936581e-02 +2.7585840875551294e-06 +0.0000000000000000e+00 +9.9999999999619515e-01
-1.0000000000000001e-01 +8.2849997241412368e+00 +0.0000000000000000e+00 -9.9999999999492675e-02 +5.5171894879435566e-06 +0.0000000000000000e+00 +9.9999999998478040e-01
-1.5000000000000002e-01 +8.2849993793161474e+00 +0.0000000000000000e+00 -1.4999999999828778e-01 +8.2758181146963626e-06 +0.0000000000000000e+00 +9.9999999996575550e-01
-2.0000000000000001e-01 +8.2849988965590065e+00 +0.0000000000000000e+00 -1.9999999999594140e-01 +1.1034471875508640e-05 +0.0000000000000000e+00 +9.9999999993912025e-01
-2.5000000000000000e-01 +8.2849982758685101e+00 +0.0000000000000000e+00 -2.4999999999207298e-01 +1.3793152672239578e-05 +0.0000000000000000e+00 +9.9999999990487454e-01
-2.9999999999999999e-01 +8.2849975172432586e+00 +0.0000000000000000e+00 -2.9999999998630200e-01 +1.6551862400912558e-05 +0.0000000000000000e+00 +9.9999999986301802e-01
-3.4999999999999998e-01 +8.2849966206817580e+00 +0.0000000000000000e+00 -3.4999999997824793e-01 +1.9310602951715242e-05 +0.0000000000000000e+00 +9.9999999981355037e-01
-3.9999999999999997e-01 +8.2849955861824185e+00 +0.0000000000000000e+00 -3.9999999996753022e-01 +2.2069376208999657e-05 +0.0000000000000000e+00 +9.9999999975647136e-01
-4.4999999999999996e-01 +8.2849944137435596e+00 +0.0000000000000000e+00 -4.4999999995376821e-01 +2.4828184051282289e-05 +0.0000000000000000e+00 +9.9999999969178066e-01
-4.9999999999999994e-01 +8.2849931033634050e+00 +0.0000000000000000e+00 -4.9999999993658140e-01 +2.7587028351244165e-05 +0.0000000000000000e+00 +9.9999999961947794e-01
-5.4999999999999993e-01 +8.2849916550400859e+00 +0.0000000000000000e+00 -5.4999999991558912e-01 +3.0345910975730948e-05 +0.0000000000000000e+00 +9.9999999953956287e-01
-5.9999999999999998e-01 +8.2849900687716378e+00 +0.0000000000000000e+00 -5.9999999989041075e-01 +3.3104833785753013e-05 +0.0000000000000000e+00 +9.9999999945203499e-01
-6.5000000000000002e-01 +8.2849883445560071e+00 +0.0000000000000000e+00 -6.4999999986066570e-01 +3.5863798636485549e-05 +0.0000000000000000e+00 +9.9999999935689399e-01
-7.0000000000000007e-01 +8.2849864823910426e+00 +0.0000000000000000e+00 -6.9999999982597327e-01 +3.8622807377268635e-05 +0.0000000000000000e+00 +9.9999999925413940e-01
-7.5000000000000011e-01 +8.2849844822745062e+00 +0.0000000000000000e+00 -7.4999999978595278e-01 +4.1381861851607323e-05 +0.0000000000000000e+00 +9.9999999914377080e-01
-8.0000000000000016e-01 +8.2849823442040638e+00 +0.0000000000000000e+00 -7.9999999974022351e-01 +4.4140963897171736e-05 +0.0000000000000000e+00 +9.9999999902578773e-01
-8.5000000000000020e-01 +8.2849800681772923e+00 +0.0000000000000000e+00 -8.4999999968840467e-01 +4.6900115345797138e-05 +0.0000000000000000e+00 +9.9999999890018965e-01
-9.0000000000000024e-01 +8.2849776541916746e+00 +0.0000000000000000e+00 -8.9999999963011557e-01 +4.9659318023484032e-05 +0.0000000000000000e+00 +9.9999999876697609e-01
-9.5000000000000029e-01 +8.2849751022446050e+00 +0.0000000000000000e+00 -9.4999999956497538e-01 +5.2418573750398237e-05 +0.0000000000000000e+00 +9.9999999862614664e-01
-1.0000000000000002e+00 +8.2849724123333850e+00 +0.0000000000000000e+00 -9.9999999949260332e-01 +5.5177884340870969e-05 +0.0000000000000000e+00 +9.9999999847770060e-01
-1.0500000000000003e+00 +8.2849695844552258e+00 +0.0000000000000000e+00 -1.0499999994126186e+00 +5.7937251603398934e-05 +0.0000000000000000e+00 +9.9999999832163755e-01
-1.1000000000000003e+00 +8.2849666186072497e+00 +0.0000000000000000e+00 -1.0999999993246401e+00 +6.0696677340644405e-05 +0.0000000000000000e+00 +9.9999999815795682e-01
-1.1500000000000004e+00 +8.2849635147864866e+00 +0.0000000000000000e+00 -1.1499999992282872e+00 +6.3456163349435307e-05 +0.0000000000000000e+00 +9.9999999798665784e-01
-1.2000000000000004e+00 +8.2849602729898795e+00 +0.0000000000000000e+00 -1.1999999991231789e+00 +6.6215711420765291e-05 +0.0000000000000000e+00 +9.9999999780773996e-01
-1.2500000000000004e+00 +8.2849568932142805e+00 +0.0000000000000000e+00 -1.2499999990089341e+00 +6.8975323339793833e-05 +0.0000000000000000e+00 +9.9999999762120262e-01
-1.3000000000000005e+00 +8.2849533754564515e+00 +0.0000000000000000e+00 -1.2999999988851720e+00 +7.1735000885846291e-05 +0.0000000000000000e+00 +9.9999999742704504e-01
-1.3500000000000005e+00 +8.2849497197130688e+00 +0.0000000000000000e+00 -1.3499999987515117e+00 +7.4494745832414012e-05 +0.0000000000000000e+00 +9.9999999722526667e-01
-1.4000000000000006e+00 +8.2849459259807166e+00 +0.0000000000000000e+00 -1.3999999986075717e+00 +7.7254559947154388e-05 +0.0000000000000000e+00 +9.9999999701586673e-01
-1.4500000000000006e+00 +8.2849419942558917e+00 +0.0000000000000000e+00 -1.4499999984529712e+00 +8.0014444991890948e-05 +0.0000000000000000e+00 +9.9999999679884455e-01
-1.5000000000000007e+00 +8.2849379245350061e+00 +0.0000000000000000e+00 -1.4999999982873291e+00 +8.2774402722613454e-05 +0.0000000000000000e+00 +9.9999999657419936e-01
-1.5500000000000007e+00 +8.2849337168143791e+00 +0.0000000000000000e+00 -1.5499999981102641e+00 +8.5534434889477956e-05 +0.0000000000000000e+00 +9.9999999634193049e-01
-1.6000000000000008e+00 +8.2849293710902465e+00 +0.0000000000000000e+00 -1.5999999979213950e+00 +8.8294543236806875e-05 +0.0000000000000000e+00 +9.9999999610203705e-01
-1.6500000000000008e+00 +8.2849248873587555e+00 +0.0000000000000000e+00 -1.6499999977203408e+00 +9.1054729503089093e-05 +0.0000000000000000e+00 +9.9999999585451838e-01
-1.7000000000000008e+00 +8.2849202656159679e+00 +0.0000000000000000e+00 -1.6999999975067199e+00 +9.3814995420980012e-05 +0.0000000000000000e+00 +9.9999999559937358e-01
-1.7500000000000009e+00 +8.2849155058578567e+00 +0.0000000000000000e+00 -1.7499999972801510e+00 +9.6575342717301644e-05 +0.0000000000000000e+00 +9.9999999533660189e-01
-1.8000000000000009e+00 +8.2849106080803114e+00 +0.0000000000000000e+00 -1.7999999970402529e+00 +9.9335773113042698e-05 +0.0000000000000000e+00 +9.9999999506620241e-01
-1.8500000000000010e+00 +8.2849055722791327e+00 +0.0000000000000000e+00 -1.8499999967866441e+00 +1.0209628832335864e-04 +0.0000000000000000e+00 +9.9999999478817425e-01
-1.9000000000000010e+00 +8.2849003984500378e+00 +0.0000000000000000e+00 -1.8999999965189431e+00 +1.0485689005757178e-04 +0.0000000000000000e+00 +9.9999999450251664e-01
-1.9500000000000011e+00 +8.2848950865886568e+00 +0.0000000000000000e+00 -1.9499999962367687e+00 +1.0761758001917133e-04 +0.0000000000000000e+00 +9.9999999420922858e-01
-2.0000000000000009e+00 +8.2848896366905365e+00 +0.0000000000000000e+00 -1.9999999959397390e+00 +1.1037835990581350e-04 +0.0000000000000000e+00 +9.9999999390830918e-01
-2.0500000000000007e+00 +8.2848840487511382e+00 +0.0000000000000000e+00 -2.0499999956274726e+00 +1.1313923140914876e-04 +0.0000000000000000e+00 +9.9999999359975755e-01
-2.1000000000000005e+00 +8.2848783227658398e+00 +0.0000000000000000e+00 -2.0999999952995876e+00 +1.1590019621292081e-04 +0.0000000000000000e+00 +9.9999999328357270e-01
-2.1500000000000004e+00 +8.2848724587299341e+00 +0.0000000000000000e+00 -2.1499999949557025e+00 +1.1866125599106563e-04 +0.0000000000000000e+00 +9.9999999295975361e-01
-2.2000000000000002e+00 +8.2848664566386301e+00 +0.0000000000000000e+00 -2.1999999945954358e+00 +1.2142241240753871e-04 +0.0000000000000000e+00 +9.9999999262829931e-01
-2.2500000000000000e+00 +8.2848603164870553e+00 +0.0000000000000000e+00 -2.2499999942184052e+00 +1.2418366711631506e-04 +0.0000000000000000e+00 +9.9999999228920888e-01
-2.2999999999999998e+00 +8.2848540382702538e+00 +0.0000000000000000e+00 -2.2999999938242293e+00 +1.2694502176138935e-04 +0.0000000000000000e+00 +9.9999999194248124e-01
-2.3499999999999996e+00 +8.2848476219831877e+00 +0.0000000000000000e+00 -2.3499999934125260e+00 +1.2970647797677586e-04 +0.0000000000000000e+00 +9.9999999158811526e-01
-2.3999999999999995e+00 +8.2848410676207376e+00 +0.0000000000000000e+00 -2.3999999929829134e+00 +1.3246803738650855e-04 +0.0000000000000000e+00 +9.9999999122611005e-01
-2.4499999999999993e+00 +8.2848343751777023e+00 +0.0000000000000000e+00 -2.4499999925350098e+00 +1.3522970160464122e-04 +0.0000000000000000e+00 +9.9999999085646440e-01
-2.4999999999999991e+00 +8.2848275446488024e+00 +0.0000000000000000e+00 -2.4999999920684326e+00 +1.3799147223524742e-04 +0.0000000000000000e+00 +9.9999999047917731e-01
-2.5499999999999989e+00 +8.2848205760286788e+00 +0.0000000000000000e+00 -2.5499999915828000e+00 +1.4075335087242053e-04 +0.0000000000000000e+00 +9.9999999009424767e-01
-2.5999999999999988e+00 +8.2848134693118887e+00 +0.0000000000000000e+00 -2.5999999910777301e+00 +1.4351533910027383e-04 +0.0000000000000000e+00 +9.9999998970167425e-01
-2.6499999999999986e+00 +8.2848062244929146e+00 +0.0000000000000000e+00 -2.6499999905528400e+00 +1.4627743849294055e-04 +0.0000000000000000e+00 +9.9999998930145606e-01
-2.6999999999999984e+00 +8.2847988415661593e+00 +0.0000000000000000e+00 -2.6999999900077478e+00 +1.4903965061457389e-04 +0.0000000000000000e+00 +9.9999998889359187e-01
-2.7499999999999982e+00 +8.2847913205259474e+00 +0.0000000000000000e+00 -2.7499999894420717e+00 +1.5180197701934701e-04 +0.0000000000000000e+00 +9.9999998847808047e-01
-2.7999999999999980e+00 +8.2847836613665269e+00 +0.0000000000000000e+00 -2.7999999888554288e+00 +1.5456441925145318e-04 +0.0000000000000000e+00 +9.9999998805492074e-01
-2.8499999999999979e+00 +8.2847758640820661e+00 +0.0000000000000000e+00 -2.8499999882474363e+00 +1.5732697884510575e-04 +0.0000000000000000e+00 +9.9999998762411146e-01
-2.8999999999999977e+00 +8.2847679286666605e+00 +0.0000000000000000e+00 -2.8999999876177123e+00 +1.6008965732453815e-04 +0.0000000000000000e+00 +9.9999998718565142e-01
-2.9499999999999975e+00 +8.2847598551143271e+00 +0.0000000000000000e+00 -2.9499999869658740e+00 +1.6285245620400397e-04 +0.0000000000000000e+00 +9.9999998673953938e-01
-2.9999999999999973e+00 +8.2847516434190087e+00 +0.0000000000000000e+00 -2.9999999862915385e+00 +1.6561537698777699e-04 +0.0000000000000000e+00 +9.9999998628577402e-01
-3.0499999999999972e+00 +8.2847432935745715e+00 +0.0000000000000000e+00 -3.0499999855943236e+00 +1.6837842117015125e-04 +0.0000000000000000e+00 +9.9999998582435423e-01
-3.0999999999999970e+00 +8.2847348055748107e+00 +0.0000000000000000e+00 -3.0999999848738464e+00 +1.7114159023544096e-04 +0.0000000000000000e+00 +9.9999998535527868e-01
-3.1499999999999968e+00 +8.2847261794134432e+00 +0.0000000000000000e+00 -3.1499999841297242e+00 +1.7390488565798064e-04 +0.0000000000000000e+00 +9.9999998487854602e-01
-3.1999999999999966e+00 +8.2847174150841152e+00 +0.0000000000000000e+00 -3.1999999833615735e+00 +1.7666830890212509e-04 +0.0000000000000000e+00 +9.9999998439415494e-01
-3.2499999999999964e+00 +8.2847085125803979e+00 +0.0000000000000000e+00 -3.2499999825690118e+00 +1.7943186142224947e-04 +0.0000000000000000e+00 +9.9999998390210421e-01
-3.2999999999999963e+00 +8.2846994718957934e+00 +0.0000000000000000e+00 -3.2999999817516561e+00 +1.8219554466274924e-04 +0.0000000000000000e+00 +9.9999998340239238e-01
-3.3499999999999961e+00 +8.2846902930237292e+00 +0.0000000000000000e+00 -3.3499999809091232e+00 +1.8495936005804022e-04 +0.0000000000000000e+00 +9.9999998289501824e-01
-3.3999999999999959e+00 +8.2846809759575617e+00 +0.0000000000000000e+00 -3.3999999800410303e+00 +1.8772330903255865e-04 +0.0000000000000000e+00 +9.9999998237998033e-01
-3.4499999999999957e+00 +8.2846715206905763e+00 +0.0000000000000000e+00 -3.4499999791469937e+00 +1.9048739300076115e-04 +0.0000000000000000e+00 +9.9999998185727723e-01
-3.4999999999999956e+00 +8.2846619272159892e+00 +0.0000000000000000e+00 -3.4999999782266302e+00 +1.9325161336712477e-04 +0.0000000000000000e+00 +9.9999998132690759e-01
-3.5499999999999954e+00 +8.2846521955269434e+00 +0.0000000000000000e+00 -3.5499999772795565e+00 +1.9601597152614701e-04 +0.0000000000000000e+00 +9.9999998078887009e-01
-3.5999999999999952e+00 +8.2846423256165167e+00 +0.0000000000000000e+00 -3.5999999763053894e+00 +1.9878046886234575e-04 +0.0000000000000000e+00 +9.9999998024316328e-01
-3.6499999999999950e+00 +8.2846323174777154e+00 +0.0000000000000000e+00 -3.6499999753037451e+00 +2.0154510675025943e-04 +0.0000000000000000e+00 +9.9999997968978560e-01
-3.6999999999999948e+00 +8.2846221711034769e+00 +0.0000000000000000e+00 -3.6999999742742400e+00 +2.0430988655444689e-04 +0.0000000000000000e+00 +9.9999997912873573e-01
-3.7499999999999947e+00 +8.2846118864866725e+00 +0.0000000000000000e+00 -3.7499999732164908e+00 +2.0707480962948749e-04 +0.0000000000000000e+00 +9.9999997856001221e-01
-3.7999999999999945e+00 +8.2846014636201044e+00 +0.0000000000000000e+00 -3.7999999721301134e+00 +2.0983987731998109e-04 +0.0000000000000000e+00 +9.9999997798361351e-01
-3.8499999999999943e+00 +8.2845909024965074e+00 +0.0000000000000000e+00 -3.8499999710147241e+00 +2.1260509096054800e-04 +0.0000000000000000e+00 +9.9999997739953816e-01
-3.8999999999999941e+00 +8.2845802031085523e+00 +0.0000000000000000e+00 -3.8999999698699392e+00 +2.1537045187582907e-04 +0.0000000000000000e+00 +9.9999997680778474e-01
-3.9499999999999940e+00 +8.2845693654488421e+00 +0.0000000000000000e+00 -3.9499999686953746e+00 +2.1813596138048563e-04 +0.0000000000000000e+00 +9.9999997620835168e-01
-3.9999999999999938e+00 +8.2845583895099146e+00 +0.0000000000000000e+00 -3.9999999674906466e+00 +2.2090162077919955e-04 +0.0000000000000000e+00 +9.9999997560123743e-01
-4.0499999999999936e+00 +8.2845472752842433e+00 +0.0000000000000000e+00 -4.0499999662553705e+00 +2.2366743136645749e-04 +0.0000000000000000e+00 +9.9999997498644055e-01
-4.0999999999999934e+00 +8.2845360227642360e+00 +0.0000000000000000e+00 -4.0999999649891627e+00 +2.2643339442417822e-04 +0.0000000000000000e+00 +9.9999997436395938e-01
-4.1499999999999932e+00 +8.2845246319422383e+00 +0.0000000000000000e+00 -4.1499999636916387e+00 +2.2919951121934005e-04 +0.0000000000000000e+00 +9.9999997373379246e-01
-4.1999999999999931e+00 +8.2845131028105303e+00 +0.0000000000000000e+00 -4.1999999623624138e+00 +2.3196578300376504e-04 +0.0000000000000000e+00 +9.9999997309593813e-01
-4.2499999999999929e+00 +8.2845014353613333e+00 +0.0000000000000000e+00 -4.2499999610011043e+00 +2.3473221101411897e-04 +0.0000000000000000e+00 +9.9999997245039496e-01
-4.2999999999999927e+00 +8.2844896295868047e+00 +0.0000000000000000e+00 -4.2999999596073248e+00 +2.3749879647191145e-04 +0.0000000000000000e+00 +9.9999997179716127e-01
-4.3499999999999925e+00 +8.2844776854790414e+00 +0.0000000000000000e+00 -4.3499999581806916e+00 +2.4026554058349586e-04 +0.0000000000000000e+00 +9.9999997113623540e-01
-4.3999999999999924e+00 +8.2844656030300818e+00 +0.0000000000000000e+00 -4.3999999567208201e+00 +2.4303244454006935e-04 +0.0000000000000000e+00 +9.9999997046761580e-01
-4.4499999999999922e+00 +8.2844533822319040e+00 +0.0000000000000000e+00 -4.4499999552273248e+00 +2.4579950951767284e-04 +0.0000000000000000e+00 +9.9999996979130090e-01
-4.4999999999999920e+00 +8.2844410230764272e+00 +0.0000000000000000e+00 -4.4999999536998221e+00 +2.4856673667719102e-04 +0.0000000000000000e+00 +9.9999996910728906e-01
-4.5499999999999918e+00 +8.2844285255555139e+00 +0.0000000000000000e+00 -4.5499999521379255e+00 +2.5133412716435232e-04 +0.0000000000000000e+00 +9.9999996841557859e-01
-4.5999999999999917e+00 +8.2844158896609699e+00 +0.0000000000000000e+00 -4.5999999505412514e+00 +2.5410168210972896e-04 +0.0000000000000000e+00 +9.9999996771616784e-01
-4.6499999999999915e+00 +8.2844031153845439e+00 +0.0000000000000000e+00 -4.6499999489094144e+00 +2.5686940262873689e-04 +0.0000000000000000e+00 +9.9999996700905525e-01
-4.6999999999999913e+00 +8.2843902027179297e+00 +0.0000000000000000e+00 -4.6999999472420289e+00 +2.5963728982163588e-04 +0.0000000000000000e+00 +9.9999996629423904e-01
-4.7499999999999911e+00 +8.2843771516527660e+00 +0.0000000000000000e+00 -4.7499999455387103e+00 +2.6240534477352928e-04 +0.0000000000000000e+00 +9.9999996557171766e-01
-4.7999999999999909e+00 +8.2843639621806382e+00 +0.0000000000000000e+00 -4.7999999437990724e+00 +2.6517356855436429e-04 +0.0000000000000000e+00 +9.9999996484148934e-01
-4.8499999999999908e+00 +8.2843506342930784e+00 +0.0000000000000000e+00 -4.8499999420227304e+00 +2.6794196221893176e-04 +0.0000000000000000e+00 +9.9999996410355252e-01
-4.8999999999999906e+00 +8.2843371679815672e+00 +0.0000000000000000e+00 -4.8999999402092991e+00 +2.7071052680686621e-04 +0.0000000000000000e+00 +9.9999996335790542e-01
-4.9499999999999904e+00 +8.2843235632375318e+00 +0.0000000000000000e+00 -4.9499999383583928e+00 +2.7347926334264595e-04 +0.0000000000000000e+00 +9.9999996260454627e-01
-4.9999999999999902e+00 +8.2843098200523499e+00 +0.0000000000000000e+00 -4.9999999364696253e+00 +2.7624817283559283e-04 +0.0000000000000000e+00 +9.9999996184347351e-01
-5.0499999999999901e+00 +8.2842959384173493e+00 +0.0000000000000000e+00 -5.0499999345426110e+00 +2.7901725627987238e-04 +0.0000000000000000e+00 +9.9999996107468536e-01
-5.0999999999999899e+00 +8.2842819183238063e+00 +0.0000000000000000e+00 -5.0999999325769645e+00 +2.8178651465449373e-04 +0.0000000000000000e+00 +9.9999996029818006e-01
-5.1499999999999897e+00 +8.2842677597629510e+00 +0.0000000000000000e+00 -5.1499999305723003e+00 +2.8455594892330970e-04 +0.0000000000000000e+00 +9.9999995951395593e-01
-5.1999999999999895e+00 +8.2842534627259656e+00 +0.0000000000000000e+00 -5.1999999285282321e+00 +2.8732556003501663e-04 +0.0000000000000000e+00 +9.9999995872201120e-01
-5.2499999999999893e+00 +8.2842390272039843e+00 +0.0000000000000000e+00 -5.2499999264443735e+00 +2.9009534892315446e-04 +0.0000000000000000e+00 +9.9999995792234420e-01
-5.2999999999999892e+00 +8.2842244531880951e+00 +0.0000000000000000e+00 -5.2999999243203382e+00 +2.9286531650610660e-04 +0.0000000000000000e+00 +9.9999995711495304e-01
-5.3499999999999890e+00 +8.2842097406693398e+00 +0.0000000000000000e+00 -5.3499999221557397e+00 +2.9563546368710004e-04 +0.0000000000000000e+00 +9.9999995629983607e-01
-5.3999999999999888e+00 +8.2841948896387176e+00 +0.0000000000000000e+00 -5.3999999199501927e+00 +2.9840579135420521e-04 +0.0000000000000000e+00 +9.9999995547699161e-01
-5.4499999999999886e+00 +8.2841799000871816e+00 +0.0000000000000000e+00 -5.4499999177033098e+00 +3.0117630038033601e-04 +0.0000000000000000e+00 +9.9999995464641778e-01
-5.4999999999999885e+00 +8.2841647720056422e+00 +0.0000000000000000e+00 -5.4999999154147057e+00 +3.0394699162324975e-04 +0.0000000000000000e+00 +9.9999995380811280e-01
-5.5499999999999883e+00 +8.2841495053849687e+00 +0.0000000000000000e+00 -5.5499999130839930e+00 +3.0671786592554722e-04 +0.0000000000000000e+00 +9.9999995296207500e-01
-5.5999999999999881e+00 +8.2841341002159865e+00 +0.0000000000000000e+00 -5.5999999107107845e+00 +3.0948892411467250e-04 +0.0000000000000000e+00 +9.9999995210830250e-01
-5.6499999999999879e+00 +8.2841185564894797e+00 +0.0000000000000000e+00 -5.6499999082946939e+00 +3.1226016700291299e-04 +0.0000000000000000e+00 +9.9999995124679364e-01
-5.6999999999999877e+00 +8.2841028741961953e+00 +0.0000000000000000e+00 -5.6999999058353348e+00 +3.1503159538739944e-04 +0.0000000000000000e+00 +9.9999995037754652e-01
-5.7499999999999876e+00 +8.2840870533268376e+00 +0.0000000000000000e+00 -5.7499999033323199e+00 +3.1780321005010586e-04 +0.0000000000000000e+00 +9.9999994950055937e-01
-5.7999999999999874e+00 +8.2840710938720736e+00 +0.0000000000000000e+00 -5.7999999007852621e+00 +3.2057501175784944e-04 +0.0000000000000000e+00 +9.9999994861583041e-01
-5.8499999999999872e+00 +8.2840549958225314e+00 +0.0000000000000000e+00 -5.8499998981937740e+00 +3.2334700126229060e-04 +0.0000000000000000e+00 +9.9999994772335787e-01
