# field on trajectory
# s[mm] rx[mm] ry[mm] rz[mm] bx[T] by[T] bz[T]
0.0000000000000000e+00 +8.3650000000000002e+00 +0.0000000000000000e+00 +0.0000000000000000e+00 -3.0842744128253559e-02 -5.5327094860733106e-01 +5.4873042735696913e-03
5.0000000000000003e-02 +8.3649999311233287e+00 +0.0000000000000000e+00 +4.9999999999936748e-02 -3.0842536661392625e-02 -5.5327013223012511e-01 +5.4845803935831315e-03
1.0000000000000001e-01 +8.3649997244934333e+00 +0.0000000000000000e+00 +9.9999999999493966e-02 -3.0842357552023716e-02 -5.5326973264536750e-01 +5.4818578798771890e-03
1.5000000000000002e-01 +8.3649993801104152e+00 +0.0000000000000000e+00 +1.4999999999829217e-01 -3.0842206814321232e-02 -5.5326974884088820e-01 +5.4791369756528466e-03
2.0000000000000001e-01 +8.3649988979742691e+00 +0.0000000000000000e+00 +1.9999999999595180e-01 -3.0842084462460579e-02 -5.5327017980453552e-01 +5.4764179241110619e-03
2.5000000000000000e-01 +8.3649982780848866e+00 +0.0000000000000000e+00 +2.4999999999209338e-01 -3.0841990510618204e-02 -5.5327102452417631e-01 +5.4737009684527977e-03
2.9999999999999999e-01 +8.3649975204420581e+00 +0.0000000000000000e+00 +2.9999999998633736e-01 -3.0841924972971543e-02 -5.5327228198769718e-01 +5.4709863518790577e-03
3.4999999999999998e-01 +8.3649966250454710e+00 +0.0000000000000000e+00 +3.4999999997830422e-01 -3.0841887863699104e-02 -5.5327395118300260e-01 +5.4682743175909140e-03
3.9999999999999997e-01 +8.3649955918947096e+00 +0.0000000000000000e+00 +3.9999999996761443e-01 -3.0841879196980292e-02 -5.5327603109801593e-01 +5.4655651087895211e-03
4.4999999999999996e-01 +8.3649944209892571e+00 +0.0000000000000000e+00 +4.4999999995388840e-01 -3.0841898986995617e-02 -5.5327852072067885e-01 +5.4628589686761828e-03
4.9999999999999994e-01 +8.3649931123284915e+00 +0.0000000000000000e+00 +4.9999999993674665e-01 -3.0841947247926497e-02 -5.5328141903895234e-01 +5.4601561404523493e-03
5.4999999999999993e-01 +8.3649916659116936e+00 +0.0000000000000000e+00 +5.4999999991580961e-01 -3.0842023993955338e-02 -5.5328472504081450e-01 +5.4574568673196574e-03
5.9999999999999998e-01 +8.3649900817380392e+00 +0.0000000000000000e+00 +5.9999999989069774e-01 -3.0842129239265575e-02 -5.5328843771426284e-01 +5.4547613924799702e-03
6.5000000000000002e-01 +8.3649883598066026e+00 +0.0000000000000000e+00 +6.4999999986103141e-01 -3.0842262998041551e-02 -5.5329255604731242e-01 +5.4520699591353939e-03
7.0000000000000007e-01 +8.3649865001163608e+00 +0.0000000000000000e+00 +6.9999999982643113e-01 -3.0842425284468605e-02 -5.5329707902799774e-01 +5.4493828104883180e-03
7.5000000000000011e-01 +8.3649845026661858e+00 +0.0000000000000000e+00 +7.4999999978651721e-01 -3.0842616112732986e-02 -5.5330200564437027e-01 +5.4467001897414383e-03
8.0000000000000016e-01 +8.3649823674548518e+00 +0.0000000000000000e+00 +7.9999999974091007e-01 -3.0842835497021930e-02 -5.5330733488450001e-01 +5.4440223400977934e-03
8.5000000000000020e-01 +8.3649800944810320e+00 +0.0000000000000000e+00 +8.4999999968923012e-01 -3.0843083451523600e-02 -5.5331306573647498e-01 +5.4413495047607920e-03
9.0000000000000024e-01 +8.3649776837432999e+00 +0.0000000000000000e+00 +8.9999999963109778e-01 -3.0843359990427081e-02 -5.5331919718840172e-01 +5.4386819269342445e-03
9.5000000000000029e-01 +8.3649751352401278e+00 +0.0000000000000000e+00 +9.4999999956613324e-01 -3.0843665127922370e-02 -5.5332572822840387e-01 +5.4360198498223889e-03
1.0000000000000002e+00 +8.3649724489698905e+00 +0.0000000000000000e+00 +9.9999999949395690e-01 -3.0843998878200440e-02 -5.5333265784462360e-01 +5.4333635166299282e-03
1.0500000000000003e+00 +8.3649696249308629e+00 +0.0000000000000000e+00 +1.0499999994141891e+00 -3.0844361255453107e-02 -5.5333998502522042e-01 +5.4307131705620577e-03
1.1000000000000003e+00 +8.3649666631212192e+00 +0.0000000000000000e+00 +1.0999999993264502e+00 -3.0844752273873111e-02 -5.5334770875837203e-01 +5.4280690548244911e-03
1.1500000000000004e+00 +8.3649635635390389e+00 +0.0000000000000000e+00 +1.1499999992303602e+00 -3.0845171947654099e-02 -5.5335582803227334e-01 +5.4254314126235001e-03
1.2000000000000004e+00 +8.3649603261822989e+00 +0.0000000000000000e+00 +1.1999999991255397e+00 -3.0845620290990625e-02 -5.5336434183513739e-01 +5.4228004871659337e-03
1.2500000000000004e+00 +8.3649569510488799e+00 +0.0000000000000000e+00 +1.2499999990116086e+00 -3.0846097318078095e-02 -5.5337324915519426e-01 +5.4201765216592580e-03
1.3000000000000005e+00 +8.3649534381365633e+00 +0.0000000000000000e+00 +1.2999999988881872e+00 -3.0846603043112795e-02 -5.5338254898069250e-01 +5.4175597593115812e-03
1.3500000000000005e+00 +8.3649497874430345e+00 +0.0000000000000000e+00 +1.3499999987548956e+00 -3.0847137480291872e-02 -5.5339224029989653e-01 +5.4149504433316864e-03
1.4000000000000006e+00 +8.3649459989658812e+00 +0.0000000000000000e+00 +1.3999999986113543e+00 -3.0847700643813383e-02 -5.5340232210108986e-01 +5.4123488169290634e-03
1.4500000000000006e+00 +8.3649420727025916e+00 +0.0000000000000000e+00 +1.4499999984571830e+00 -3.0848292547876188e-02 -5.5341279337257221e-01 +5.4097551233139316e-03
1.5000000000000007e+00 +8.3649380086505598e+00 +0.0000000000000000e+00 +1.4999999982920020e+00 -3.0848913206680012e-02 -5.5342365310266062e-01 +5.4071696056972761e-03
1.5500000000000007e+00 +8.3649338068070822e+00 +0.0000000000000000e+00 +1.5499999981154313e+00 -3.0849562634425443e-02 -5.5343490027969000e-01 +5.4045925072908792e-03
1.6000000000000008e+00 +8.3649294671693575e+00 +0.0000000000000000e+00 +1.5999999979270909e+00 -3.0850240845313855e-02 -5.5344653389201159e-01 +5.4020240713073507e-03
1.6500000000000008e+00 +8.3649249897344902e+00 +0.0000000000000000e+00 +1.6499999977266009e+00 -3.0850947853547504e-02 -5.5345855292799440e-01 +5.3994645409601574e-03
1.7000000000000008e+00 +8.3649203744994871e+00 +0.0000000000000000e+00 +1.6999999975135811e+00 -3.0851683673329435e-02 -5.5347095637602439e-01 +5.3969141594636463e-03
1.7500000000000009e+00 +8.3649156214612610e+00 +0.0000000000000000e+00 +1.7499999972876517e+00 -3.0852448318863513e-02 -5.5348374322450344e-01 +5.3943731700330901e-03
1.8000000000000009e+00 +8.3649107306166286e+00 +0.0000000000000000e+00 +1.7999999970484322e+00 -3.0853241804354396e-02 -5.5349691246185206e-01 +5.3918418158846980e-03
1.8500000000000010e+00 +8.3649057019623090e+00 +0.0000000000000000e+00 +1.8499999967955427e+00 -3.0854064144007574e-02 -5.5351046307650609e-01 +5.3893203402356664e-03
1.9000000000000010e+00 +8.3649005354949306e+00 +0.0000000000000000e+00 +1.8999999965286030e+00 -3.0854915352029309e-02 -5.5352439405691878e-01 +5.3868089863041962e-03
1.9500000000000011e+00 +8.3648952312110243e+00 +0.0000000000000000e+00 +1.9499999962472327e+00 -3.0855795442626646e-02 -5.5353870439155994e-01 +5.3843079973095263e-03
2.0000000000000009e+00 +8.3648897891070266e+00 +0.0000000000000000e+00 +1.9999999959510519e+00 -3.0856704430007424e-02 -5.5355339306891616e-01 +5.3818176164719634e-03
2.0500000000000007e+00 +8.3648842091792801e+00 +0.0000000000000000e+00 +2.0499999956396802e+00 -3.0857642280971417e-02 -5.5356845887080408e-01 +5.3793380771453795e-03
2.1000000000000005e+00 +8.3648784914240348e+00 +0.0000000000000000e+00 +2.0999999953127371e+00 -3.0858608772683680e-02 -5.5358389975230460e-01 +5.3768695732145004e-03
2.1500000000000004e+00 +8.3648726358374450e+00 +0.0000000000000000e+00 +2.1499999949698423e+00 -3.0859603634901048e-02 -5.5359971346182646e-01 +5.3744122886974759e-03
2.2000000000000002e+00 +8.3648666424155760e+00 +0.0000000000000000e+00 +2.1999999946106152e+00 -3.0860626597380886e-02 -5.5361589774779130e-01 +5.3719664076133863e-03
2.2500000000000000e+00 +8.3648605111543954e+00 +0.0000000000000000e+00 +2.2499999942346758e+00 -3.0861677389881107e-02 -5.5363245035863262e-01 +5.3695321139822800e-03
2.2999999999999998e+00 +8.3648542420497840e+00 +0.0000000000000000e+00 +2.2999999938416433e+00 -3.0862755742160151e-02 -5.5364936904279727e-01 +5.3671095918251940e-03
2.3499999999999996e+00 +8.3648478350975282e+00 +0.0000000000000000e+00 +2.3499999934311373e+00 -3.0863861383976978e-02 -5.5366665154874417e-01 +5.3646990251641534e-03
2.3999999999999995e+00 +8.3648412902933256e+00 +0.0000000000000000e+00 +2.3999999930027767e+00 -3.0864994045091035e-02 -5.5368429562494448e-01 +5.3623005980222068e-03
2.4499999999999993e+00 +8.3648346076327833e+00 +0.0000000000000000e+00 +2.4499999925561813e+00 -3.0866153455262224e-02 -5.5370229901988122e-01 +5.3599144944234296e-03
2.4999999999999991e+00 +8.3648277871114196e+00 +0.0000000000000000e+00 +2.4999999920909701e+00 -3.0867339344250913e-02 -5.5372065948204829e-01 +5.3575408983929478e-03
2.5499999999999989e+00 +8.3648208287246621e+00 +0.0000000000000000e+00 +2.5499999916067626e+00 -3.0868551441817937e-02 -5.5373937475995172e-01 +5.3551799939569530e-03
2.5999999999999988e+00 +8.3648137324678515e+00 +0.0000000000000000e+00 +2.5999999911031781e+00 -3.0869789477724511e-02 -5.5375844260210805e-01 +5.3528319651427207e-03
2.6499999999999986e+00 +8.3648064983362413e+00 +0.0000000000000000e+00 +2.6499999905798357e+00 -3.0871053181732246e-02 -5.5377786075704438e-01 +5.3504969959786187e-03
2.6999999999999984e+00 +8.3647991263249963e+00 +0.0000000000000000e+00 +2.6999999900363543e+00 -3.0872342283603194e-02 -5.5379762697329982e-01 +5.3481752704941446e-03
2.7499999999999982e+00 +8.3647916164291942e+00 +0.0000000000000000e+00 +2.7499999894723532e+00 -3.0873656513099718e-02 -5.5381773899942188e-01 +5.3458669727199154e-03
2.7999999999999980e+00 +8.3647839686438292e+00 +0.0000000000000000e+00 +2.7999999888874512e+00 -3.0874995599984571e-02 -5.5383819458396932e-01 +5.3435722866877087e-03
2.8499999999999979e+00 +8.3647761829638068e+00 +0.0000000000000000e+00 +2.8499999882812670e+00 -3.0876359274020805e-02 -5.5385899147551054e-01 +5.3412913964304637e-03
2.8999999999999977e+00 +8.3647682593839505e+00 +0.0000000000000000e+00 +2.8999999876534202e+00 -3.0877747264971819e-02 -5.5388012742262305e-01 +5.3390244859823060e-03
2.9499999999999975e+00 +8.3647601978989972e+00 +0.0000000000000000e+00 +2.9499999870035287e+00 -3.0879159302601277e-02 -5.5390160017389400e-01 +5.3367717393785572e-03
2.9999999999999973e+00 +8.3647519985036016e+00 +0.0000000000000000e+00 +2.9999999863312121e+00 -3.0880595116673161e-02 -5.5392340747791979e-01 +5.3345333406557647e-03
3.0499999999999972e+00 +8.3647436611923336e+00 +0.0000000000000000e+00 +3.0499999856360889e+00 -3.0882054436951679e-02 -5.5394554708330523e-01 +5.3323094738517065e-03
3.0999999999999970e+00 +8.3647351859596792e+00 +0.0000000000000000e+00 +3.0999999849177775e+00 -3.0883536993201299e-02 -5.5396801673866392e-01 +5.3301003230054166e-03
3.1499999999999968e+00 +8.3647265728000466e+00 +0.0000000000000000e+00 +3.1499999841758966e+00 -3.0885042515186735e-02 -5.5399081419261786e-01 +5.3279060721571859e-03
3.1999999999999966e+00 +8.3647178217077585e+00 +0.0000000000000000e+00 +3.1999999834100645e+00 -3.0886570732672865e-02 -5.5401393719379666e-01 +5.3257269053486019e-03
3.2499999999999964e+00 +8.3647089326770594e+00 +0.0000000000000000e+00 +3.2499999826199000e+00 -3.0888121375424814e-02 -5.5403738349083831e-01 +5.3235630066225522e-03
3.2999999999999963e+00 +8.3646999057021105e+00 +0.0000000000000000e+00 +3.2999999818050214e+00 -3.0889694173207843e-02 -5.5406115083238805e-01 +5.3214145600232465e-03
3.3499999999999961e+00 +8.3646907407769948e+00 +0.0000000000000000e+00 +3.3499999809650469e+00 -3.0891288855787364e-02 -5.5408523696709855e-01 +5.3192817495962205e-03
3.3999999999999959e+00 +8.3646814378957135e+00 +0.0000000000000000e+00 +3.3999999800995950e+00 -3.0892905152928977e-02 -5.5410963964362914e-01 +5.3171647593883735e-03
3.4499999999999957e+00 +8.3646719970521932e+00 +0.0000000000000000e+00 +3.4499999792082838e+00 -3.0894542794398346e-02 -5.5413435661064658e-01 +5.3150637734479733e-03
3.4999999999999956e+00 +8.3646624182402789e+00 +0.0000000000000000e+00 +3.4999999782907314e+00 -3.0896201509961283e-02 -5.5415938561682399e-01 +5.3129789758246714e-03
3.5499999999999954e+00 +8.3646527014537408e+00 +0.0000000000000000e+00 +3.5499999773465563e+00 -3.0897881029383671e-02 -5.5418472441084088e-01 +5.3109105505695278e-03
3.5999999999999952e+00 +8.3646428466862677e+00 +0.0000000000000000e+00 +3.5999999763753761e+00 -3.0899581082431449e-02 -5.5421037074138202e-01 +5.3088586817350179e-03
3.6499999999999950e+00 +8.3646328539314752e+00 +0.0000000000000000e+00 +3.6499999753768089e+00 -3.0901301398870634e-02 -5.5423632235713938e-01 +5.3068235533750572e-03
3.6999999999999948e+00 +8.3646227231829027e+00 +0.0000000000000000e+00 +3.6999999743504723e+00 -3.0903041708467260e-02 -5.5426257700680948e-01 +5.3048053495450250e-03
3.7499999999999947e+00 +8.3646124544340132e+00 +0.0000000000000000e+00 +3.7499999732959846e+00 -3.0904801740987382e-02 -5.5428913243909472e-01 +5.3028042543017580e-03
3.7999999999999945e+00 +8.3646020476781953e+00 +0.0000000000000000e+00 +3.7999999722129632e+00 -3.0906581226197043e-02 -5.5431598640270152e-01 +5.3008204517035942e-03
3.8499999999999943e+00 +8.3645915029087625e+00 +0.0000000000000000e+00 +3.8499999711010258e+00 -3.0908379893862303e-02 -5.5434313664634294e-01 +5.2988541258103695e-03
3.8999999999999941e+00 +8.3645808201189542e+00 +0.0000000000000000e+00 +3.8999999699597900e+00 -3.0910197473749138e-02 -5.5437058091873481e-01 +5.2969054606834438e-03
3.9499999999999940e+00 +8.3645699993019385e+00 +0.0000000000000000e+00 +3.9499999687888732e+00 -3.0912033695623502e-02 -5.5439831696859843e-01 +5.2949746403857219e-03
3.9999999999999938e+00 +8.3645590404508088e+00 +0.0000000000000000e+00 +3.9999999675878932e+00 -3.0913888289251266e-02 -5.5442634254465872e-01 +5.2930618489816610e-03
4.0499999999999936e+00 +8.3645479435585894e+00 +0.0000000000000000e+00 +4.0499999663564674e+00 -3.0915761007104841e-02 -5.5445465529046889e-01 +5.2911672495454124e-03
4.0999999999999934e+00 +8.3645367086182301e+00 +0.0000000000000000e+00 +4.0999999650942129e+00 -3.0917651692483492e-02 -5.5448325242888452e-01 +5.2892909211848015e-03
4.1499999999999932e+00 +8.3645253356226110e+00 +0.0000000000000000e+00 +4.1499999638007470e+00 -3.0919560211394175e-02 -5.5451213107758490e-01 +5.2874329220166192e-03
4.1999999999999931e+00 +8.3645138245645416e+00 +0.0000000000000000e+00 +4.1999999624756867e+00 -3.0921486429844998e-02 -5.5454128835425320e-01 +5.2855933101585524e-03
4.2499999999999929e+00 +8.3645021754367619e+00 +0.0000000000000000e+00 +4.2499999611186494e+00 -3.0923430213845186e-02 -5.5457072137657204e-01 +5.2837721437291509e-03
4.2999999999999927e+00 +8.3644903882319444e+00 +0.0000000000000000e+00 +4.2999999597292513e+00 -3.0925391429405095e-02 -5.5460042726222536e-01 +5.2819694808478391e-03
4.3499999999999925e+00 +8.3644784629426940e+00 +0.0000000000000000e+00 +4.3499999583071105e+00 -3.0927369942536288e-02 -5.5463040312889711e-01 +5.2801853796348970e-03
4.3999999999999924e+00 +8.3644663995615467e+00 +0.0000000000000000e+00 +4.3999999568518433e+00 -3.0929365619251508e-02 -5.5466064609427124e-01 +5.2784198982114717e-03
4.4499999999999922e+00 +8.3644541980809723e+00 +0.0000000000000000e+00 +4.4499999553630660e+00 -3.0931378325564744e-02 -5.5469115327603291e-01 +5.2766730946995615e-03
4.4999999999999920e+00 +8.3644418584933771e+00 +0.0000000000000000e+00 +4.4999999538403959e+00 -3.0933407927491153e-02 -5.5472192179186453e-01 +5.2749450272220073e-03
4.5499999999999918e+00 +8.3644293807910977e+00 +0.0000000000000000e+00 +4.5499999522834491e+00 -3.0935454291047226e-02 -5.5475294875944936e-01 +5.2732357539025023e-03
4.5999999999999917e+00 +8.3644167649664105e+00 +0.0000000000000000e+00 +4.5999999506918430e+00 -3.0937517282250641e-02 -5.5478423129646881e-01 +5.2715453328655744e-03
4.6499999999999915e+00 +8.3644040110115281e+00 +0.0000000000000000e+00 +4.6499999490651938e+00 -3.0939596767120440e-02 -5.5481576652060349e-01 +5.2698738222365874e-03
4.6999999999999913e+00 +8.3643911189185971e+00 +0.0000000000000000e+00 +4.6999999474031169e+00 -3.0941692611676924e-02 -5.5484755154953180e-01 +5.2682212801417249e-03
4.7499999999999911e+00 +8.3643780886797057e+00 +0.0000000000000000e+00 +4.7499999457052295e+00 -3.0943804681941769e-02 -5.5487958350093014e-01 +5.2665877647080049e-03
4.7999999999999909e+00 +8.3643649202868779e+00 +0.0000000000000000e+00 +4.7999999439711480e+00 -3.0945932843937971e-02 -5.5491185949247257e-01 +5.2649733340632649e-03
4.8499999999999908e+00 +8.3643516137320777e+00 +0.0000000000000000e+00 +4.8499999422004878e+00 -3.0948076963689886e-02 -5.5494437664183105e-01 +5.2633780463361424e-03
4.8999999999999906e+00 +8.3643381690072083e+00 +0.0000000000000000e+00 +4.8999999403928660e+00 -3.0950236907223296e-02 -5.5497713206667421e-01 +5.2618019596561011e-03
4.9499999999999904e+00 +8.3643245861041162e+00 +0.0000000000000000e+00 +4.9499999385478972e+00 -3.0952412540565351e-02 -5.5501012288466722e-01 +5.2602451321533943e-03
4.9999999999999902e+00 +8.3643108650145859e+00 +0.0000000000000000e+00 +4.9999999366651986e+00 -3.0954603729744672e-02 -5.5504334621347218e-01 +5.2587076219590819e-03
5.0499999999999901e+00 +8.3642970057303465e+00 +0.0000000000000000e+00 +5.0499999347443847e+00 -3.0956810340791265e-02 -5.5507679917074693e-01 +5.2571894872050166e-03
5.0999999999999899e+00 +8.3642830082430688e+00 +0.0000000000000000e+00 +5.0999999327850727e+00 -3.0959032239736672e-02 -5.5511047887414577e-01 +5.2556907860238375e-03
5.1499999999999897e+00 +8.3642688725443666e+00 +0.0000000000000000e+00 +5.1499999307868771e+00 -3.0961269292613846e-02 -5.5514438244131781e-01 +5.2542115765489674e-03
5.1999999999999895e+00 +8.3642545986258003e+00 +0.0000000000000000e+00 +5.1999999287494134e+00 -3.0963521365457328e-02 -5.5517850698990812e-01 +5.2527519169146136e-03
5.2499999999999893e+00 +8.3642401864788720e+00 +0.0000000000000000e+00 +5.2499999266722979e+00 -3.0965788324303103e-02 -5.5521284963755613e-01 +5.2513118652557480e-03
5.2999999999999892e+00 +8.3642256360950338e+00 +0.0000000000000000e+00 +5.2999999245551450e+00 -3.0968070035188752e-02 -5.5524740750189638e-01 +5.2498914797081209e-03
5.3499999999999890e+00 +8.3642109474656792e+00 +0.0000000000000000e+00 +5.3499999223975712e+00 -3.0970366364153391e-02 -5.5528217770055766e-01 +5.2484908184082402e-03
5.3999999999999888e+00 +8.3641961205821520e+00 +0.0000000000000000e+00 +5.3999999201991908e+00 -3.0972677177237742e-02 -5.5531715735116249e-01 +5.2471099394933770e-03
5.4499999999999886e+00 +8.3641811554357428e+00 +0.0000000000000000e+00 +5.4499999179596186e+00 -3.0975002340484094e-02 -5.5535234357132746e-01 +5.2457489011015516e-03
5.4999999999999885e+00 +8.3641660520176924e+00 +0.0000000000000000e+00 +5.4999999156784698e+00 -3.0977341719936394e-02 -5.5538773347866255e-01 +5.2444077613715383e-03
5.5499999999999883e+00 +8.3641508103191882e+00 +0.0000000000000000e+00 +5.5499999133553599e+00 -3.0979695181640208e-02 -5.5542332419077067e-01 +5.2430865784428545e-03
5.5999999999999881e+00 +8.3641354303313697e+00 +0.0000000000000000e+00 +5.5999999109899035e+00 -3.0982062591642753e-02 -5.5545911282524818e-01 +5.2417854104557515e-03
5.6499999999999879e+00 +8.3641199120453269e+00 +0.0000000000000000e+00 +5.6499999085817159e+00 -3.0984443815992933e-02 -5.5549509649968265e-01 +5.2405043155512223e-03
5.6999999999999877e+00 +8.3641042554520997e+00 +0.0000000000000000e+00 +5.6999999061304107e+00 -3.0986838720741372e-02 -5.5553127233165567e-01 +5.2392433518709839e-03
5.7499999999999876e+00 +8.3640884605426820e+00 +0.0000000000000000e+00 +5.7499999036356035e+00 -3.0989247171940380e-02 -5.5556763743873927e-01 +5.2380025775574778e-03
5.7999999999999874e+00 +8.3640725273080196e+00 +0.0000000000000000e+00 +5.7999999010969079e+00 -3.0991669035644008e-02 -5.5560418893849750e-01 +5.2367820507538687e-03
5.8499999999999872e+00 +8.3640564557390125e+00 +0.0000000000000000e+00 +5.8499998985139383e+00 -3.0994104177908068e-02 -5.5564092394848652e-01 +5.2355818296040335e-03
5.8999999999999870e+00 +8.3640402458265140e+00 +0.0000000000000000e+00 +5.8999998958863094e+00 -3.0996552464790151e-02 -5.5567783958625216e-01 +5.2344019722525567e-03
