# field on trajectory
# s[mm] rx[mm] ry[mm] rz[mm] bx[T] by[T] bz[T]
0.0000000000000000e+00 +8.5980000000000008e+00 +0.0000000000000000e+00 +0.0000000000000000e+00 -3.0607971533737618e-02 -5.7796393552787229e-01 +5.7568484976911576e-03
5.0000000000000003e-02 +8.5979999309031694e+00 +0.0000000000000000e+00 +4.9999999999936345e-02 -3.0608040261029625e-02 -5.7796424689477022e-01 +5.7576268074080580e-03
1.0000000000000001e-01 +8.5979997236126096e+00 +0.0000000000000000e+00 +9.9999999999490732e-02 -3.0608129742043518e-02 -5.7796494465107973e-01 +5.7584102374535415e-03
1.5000000000000002e-01 +8.5979993781281543e+00 +0.0000000000000000e+00 +1.4999999999828123e-01 -3.0608239937439347e-02 -5.7796602810542441e-01 +5.7591987178761761e-03
2.0000000000000001e-01 +8.5979988944495442e+00 +0.0000000000000000e+00 +1.9999999999592588e-01 -3.0608370807878305e-02 -5.7796749656644408e-01 +5.7599921787248928e-03
2.5000000000000000e-01 +8.5979982725764295e+00 +0.0000000000000000e+00 +2.4999999999204270e-01 -3.0608522314022644e-02 -5.7796934934279642e-01 +5.7607905500489717e-03
2.9999999999999999e-01 +8.5979975125083659e+00 +0.0000000000000000e+00 +2.9999999998624977e-01 -3.0608694416535697e-02 -5.7797158574315521e-01 +5.7615937618980383e-03
3.4999999999999998e-01 +8.5979966142448205e+00 +0.0000000000000000e+00 +3.4999999997816511e-01 -3.0608887076081781e-02 -5.7797420507621267e-01 +5.7624017443220505e-03
3.9999999999999997e-01 +8.5979955777851647e+00 +0.0000000000000000e+00 +3.9999999996740671e-01 -3.0609100253326187e-02 -5.7797720665067609e-01 +5.7632144273712738e-03
4.4999999999999996e-01 +8.5979944031286824e+00 +0.0000000000000000e+00 +4.4999999995359263e-01 -3.0609333908935131e-02 -5.7798058977527167e-01 +5.7640317410962913e-03
4.9999999999999994e-01 +8.5979930902745636e+00 +0.0000000000000000e+00 +4.9999999993634087e-01 -3.0609588003575751e-02 -5.7798435375874069e-01 +5.7648536155479818e-03
5.4999999999999993e-01 +8.5979916392219096e+00 +0.0000000000000000e+00 +5.4999999991526938e-01 -3.0609862497915998e-02 -5.7798849790984264e-01 +5.7656799807775071e-03
5.9999999999999998e-01 +8.5979900499697290e+00 +0.0000000000000000e+00 +5.9999999988999619e-01 -3.0610157352624626e-02 -5.7799302153735233e-01 +5.7665107668363018e-03
6.5000000000000002e-01 +8.5979883225169402e+00 +0.0000000000000000e+00 +6.4999999986013934e-01 -3.0610472528371190e-02 -5.7799792395006189e-01 +5.7673459037760610e-03
7.0000000000000007e-01 +8.5979864568623707e+00 +0.0000000000000000e+00 +6.9999999982531680e-01 -3.0610807985825963e-02 -5.7800320445677988e-01 +5.7681853216487392e-03
7.5000000000000011e-01 +8.5979844530047593e+00 +0.0000000000000000e+00 +7.4999999978514642e-01 -3.0611163685659894e-02 -5.7800886236633131e-01 +5.7690289505065240e-03
8.0000000000000016e-01 +8.5979823109427507e+00 +0.0000000000000000e+00 +7.9999999973924618e-01 -3.0611539588544609e-02 -5.7801489698755804e-01 +5.7698767204018373e-03
8.5000000000000020e-01 +8.5979800306749041e+00 +0.0000000000000000e+00 +8.4999999968723405e-01 -3.0611935655152314e-02 -5.7802130762931736e-01 +5.7707285613873118e-03
9.0000000000000024e-01 +8.5979776121996867e+00 +0.0000000000000000e+00 +8.9999999962872790e-01 -3.0612351846155815e-02 -5.7802809360048335e-01 +5.7715844035157908e-03
9.5000000000000029e-01 +8.5979750555154748e+00 +0.0000000000000000e+00 +9.4999999956334558e-01 -3.0612788122228410e-02 -5.7803525420994661e-01 +5.7724441768403139e-03
1.0000000000000002e+00 +8.5979723606205560e+00 +0.0000000000000000e+00 +9.9999999949070506e-01 -3.0613244444043931e-02 -5.7804278876661330e-01 +5.7733078114141079e-03
1.0500000000000003e+00 +8.5979695275131309e+00 +0.0000000000000000e+00 +1.0499999994104241e+00 -3.0613720772276642e-02 -5.7805069657940611e-01 +5.7741752372905599e-03
1.1000000000000003e+00 +8.5979665561913077e+00 +0.0000000000000000e+00 +1.0999999993221206e+00 -3.0614217067601215e-02 -5.7805897695726327e-01 +5.7750463845232299e-03
1.1500000000000004e+00 +8.5979634466531056e+00 +0.0000000000000000e+00 +1.1499999992254124e+00 -3.0614733290692704e-02 -5.7806762920913957e-01 +5.7759211831658278e-03
1.2000000000000004e+00 +8.5979601988964571e+00 +0.0000000000000000e+00 +1.1999999991199173e+00 -3.0615269402226464e-02 -5.7807665264400521e-01 +5.7767995632721997e-03
1.2500000000000004e+00 +8.5979568129192039e+00 +0.0000000000000000e+00 +1.2499999990052528e+00 -3.0615825362878178e-02 -5.7808604657084628e-01 +5.7776814548963140e-03
1.3000000000000005e+00 +8.5979532887191006e+00 +0.0000000000000000e+00 +1.2999999988810371e+00 -3.0616401133323777e-02 -5.7809581029866519e-01 +5.7785667880922648e-03
1.3500000000000005e+00 +8.5979496262938113e+00 +0.0000000000000000e+00 +1.3499999987468876e+00 -3.0616996674239397e-02 -5.7810594313647912e-01 +5.7794554929142521e-03
1.4000000000000006e+00 +8.5979458256409149e+00 +0.0000000000000000e+00 +1.3999999986024221e+00 -3.0617611946301315e-02 -5.7811644439332099e-01 +5.7803474994165601e-03
1.4500000000000006e+00 +8.5979418867578996e+00 +0.0000000000000000e+00 +1.4499999984472582e+00 -3.0618246910186008e-02 -5.7812731337824030e-01 +5.7812427376535691e-03
1.5000000000000007e+00 +8.5979378096421666e+00 +0.0000000000000000e+00 +1.4999999982810135e+00 -3.0618901526569976e-02 -5.7813854940030107e-01 +5.7821411376797185e-03
1.5500000000000007e+00 +8.5979335942910300e+00 +0.0000000000000000e+00 +1.5499999981033057e+00 -3.0619575756129815e-02 -5.7815015176858275e-01 +5.7830426295495145e-03
1.6000000000000008e+00 +8.5979292407017152e+00 +0.0000000000000000e+00 +1.5999999979137525e+00 -3.0620269559542133e-02 -5.7816211979218102e-01 +5.7839471433175161e-03
1.6500000000000008e+00 +8.5979247488713604e+00 +0.0000000000000000e+00 +1.6499999977119710e+00 -3.0620982897483481e-02 -5.7817445278020552e-01 +5.7848546090383118e-03
1.7000000000000008e+00 +8.5979201187970169e+00 +0.0000000000000000e+00 +1.6999999974975792e+00 -3.0621715730630373e-02 -5.7818715004178267e-01 +5.7857649567665259e-03
1.7500000000000009e+00 +8.5979153504756489e+00 +0.0000000000000000e+00 +1.7499999972701945e+00 -3.0622468019659208e-02 -5.7820021088605278e-01 +5.7866781165567920e-03
1.8000000000000009e+00 +8.5979104439041336e+00 +0.0000000000000000e+00 +1.7999999970294340e+00 -3.0623239725246235e-02 -5.7821363462217179e-01 +5.7875940184637471e-03
1.8500000000000010e+00 +8.5979053990792629e+00 +0.0000000000000000e+00 +1.8499999967749154e+00 -3.0624030808067519e-02 -5.7822742055931042e-01 +5.7885125925420302e-03
1.9000000000000010e+00 +8.5979002159977380e+00 +0.0000000000000000e+00 +1.8999999965062562e+00 -3.0624841228798893e-02 -5.7824156800665494e-01 +5.7894337688462506e-03
1.9500000000000011e+00 +8.5978948946561786e+00 +0.0000000000000000e+00 +1.9499999962230734e+00 -3.0625670948115948e-02 -5.7825607627340614e-01 +5.7903574774309996e-03
2.0000000000000009e+00 +8.5978894350511137e+00 +0.0000000000000000e+00 +1.9999999959249846e+00 -3.0626519926693931e-02 -5.7827094466877949e-01 +5.7912836483508187e-03
2.0500000000000007e+00 +8.5978838371789887e+00 +0.0000000000000000e+00 +2.0499999956116071e+00 -3.0627388090815864e-02 -5.7828617227282653e-01 +5.7922122184966337e-03
2.1000000000000005e+00 +8.5978781010361640e+00 +0.0000000000000000e+00 +2.0999999952825577e+00 -3.0628275229197251e-02 -5.7830175724889921e-01 +5.7931431521050609e-03
2.1500000000000004e+00 +8.5978722266189127e+00 +0.0000000000000000e+00 +2.1499999949374540e+00 -3.0629181096162621e-02 -5.7831769753118434e-01 +5.7940764202491181e-03
2.2000000000000002e+00 +8.5978662139234228e+00 +0.0000000000000000e+00 +2.1999999945759128e+00 -3.0630105446037573e-02 -5.7833399105388283e-01 +5.7950119940017872e-03
2.2500000000000000e+00 +8.5978600629457986e+00 +0.0000000000000000e+00 +2.2499999941975517e+00 -3.0631048033148887e-02 -5.7835063575120949e-01 +5.7959498444360019e-03
2.2999999999999998e+00 +8.5978537736820613e+00 +0.0000000000000000e+00 +2.2999999938019875e+00 -3.0632008611824520e-02 -5.7836762955739374e-01 +5.7968899426246454e-03
2.3499999999999996e+00 +8.5978473461281464e+00 +0.0000000000000000e+00 +2.3499999933888369e+00 -3.0632986936393655e-02 -5.7838497040667780e-01 +5.7978322596405358e-03
2.3999999999999995e+00 +8.5978407802799079e+00 +0.0000000000000000e+00 +2.3999999929577172e+00 -3.0633982761186812e-02 -5.7840265623331844e-01 +5.7987767665564210e-03
2.4499999999999993e+00 +8.5978340761331182e+00 +0.0000000000000000e+00 +2.4499999925082454e+00 -3.0634995840535782e-02 -5.7842068497158583e-01 +5.7997234344449649e-03
2.4999999999999991e+00 +8.5978272336834660e+00 +0.0000000000000000e+00 +2.4999999920400384e+00 -3.0636025928773788e-02 -5.7843905455576372e-01 +5.8006722343787549e-03
2.5499999999999989e+00 +8.5978202529265584e+00 +0.0000000000000000e+00 +2.5499999915527130e+00 -3.0637072780235464e-02 -5.7845776292014894e-01 +5.8016231374302648e-03
2.5999999999999988e+00 +8.5978131338579242e+00 +0.0000000000000000e+00 +2.5999999910458857e+00 -3.0638136149256933e-02 -5.7847680799905199e-01 +5.8025761146718756e-03
2.6499999999999986e+00 +8.5978058764730072e+00 +0.0000000000000000e+00 +2.6499999905191736e+00 -3.0639215790175811e-02 -5.7849618772679712e-01 +5.8035311371758486e-03
2.6999999999999984e+00 +8.5977984807671763e+00 +0.0000000000000000e+00 +2.6999999899721931e+00 -3.0640311457331312e-02 -5.7851590003772035e-01 +5.8044881760143247e-03
2.7499999999999982e+00 +8.5977909467357172e+00 +0.0000000000000000e+00 +2.7499999894045608e+00 -3.0641422905064261e-02 -5.7853594286617216e-01 +5.8054472022593126e-03
2.7999999999999980e+00 +8.5977832743738372e+00 +0.0000000000000000e+00 +2.7999999888158933e+00 -3.0642549887717144e-02 -5.7855631414651565e-01 +5.8064081869826801e-03
2.8499999999999979e+00 +8.5977754636766655e+00 +0.0000000000000000e+00 +2.8499999882058074e+00 -3.0643692159634164e-02 -5.7857701181312637e-01 +5.8073711012561436e-03
2.8999999999999977e+00 +8.5977675146392532e+00 +0.0000000000000000e+00 +2.8999999875739193e+00 -3.0644849475161273e-02 -5.7859803380039321e-01 +5.8083359161512750e-03
2.9499999999999975e+00 +8.5977594272565749e+00 +0.0000000000000000e+00 +2.9499999869198459e+00 -3.0646021588646259e-02 -5.7861937804271713e-01 +5.8093026027394665e-03
2.9999999999999973e+00 +8.5977512015235273e+00 +0.0000000000000000e+00 +2.9999999862432030e+00 -3.0647208254438708e-02 -5.7864104247451231e-01 +5.8102711320919438e-03
3.0499999999999972e+00 +8.5977428374349305e+00 +0.0000000000000000e+00 +3.0499999855436073e+00 -3.0648409226890150e-02 -5.7866302503020517e-01 +5.8112414752797461e-03
3.0999999999999970e+00 +8.5977343349855264e+00 +0.0000000000000000e+00 +3.0999999848206747e+00 -3.0649624260354051e-02 -5.7868532364423431e-01 +5.8122136033737235e-03
3.1499999999999968e+00 +8.5977256941699860e+00 +0.0000000000000000e+00 +3.1499999840740220e+00 -3.0650853109185881e-02 -5.7870793625105132e-01 +5.8131874874445292e-03
3.1999999999999966e+00 +8.5977169149829002e+00 +0.0000000000000000e+00 +3.1999999833032646e+00 -3.0652095527743117e-02 -5.7873086078511937e-01 +5.8141630985625997e-03
3.2499999999999964e+00 +8.5977079974187891e+00 +0.0000000000000000e+00 +3.2499999825080192e+00 -3.0653351270385366e-02 -5.7875409518091403e-01 +5.8151404077981623e-03
3.2999999999999963e+00 +8.5976989414720979e+00 +0.0000000000000000e+00 +3.2999999816879018e+00 -3.0654620091474336e-02 -5.7877763737292287e-01 +5.8161193862212163e-03
3.3499999999999961e+00 +8.5976897471371974e+00 +0.0000000000000000e+00 +3.3499999808425280e+00 -3.0655901745373953e-02 -5.7880148529564579e-01 +5.8171000049015249e-03
3.3999999999999959e+00 +8.5976804144083854e+00 +0.0000000000000000e+00 +3.3999999799715139e+00 -3.0657195986450354e-02 -5.7882563688359345e-01 +5.8180822349086139e-03
3.4499999999999957e+00 +8.5976709432798870e+00 +0.0000000000000000e+00 +3.4499999790744753e+00 -3.0658502569071922e-02 -5.7885009007128951e-01 +5.8190660473117477e-03
3.4999999999999956e+00 +8.5976613337458563e+00 +0.0000000000000000e+00 +3.4999999781510280e+00 -3.0659821247609433e-02 -5.7887484279326862e-01 +5.8200514131799431e-03
3.5499999999999954e+00 +8.5976515858003744e+00 +0.0000000000000000e+00 +3.5499999772007875e+00 -3.0661151776435976e-02 -5.7889989298407740e-01 +5.8210383035819371e-03
3.5999999999999952e+00 +8.5976416994374514e+00 +0.0000000000000000e+00 +3.5999999762233696e+00 -3.0662493909927077e-02 -5.7892523857827372e-01 +5.8220266895862008e-03
3.6499999999999950e+00 +8.5976316746510264e+00 +0.0000000000000000e+00 +3.6499999752183903e+00 -3.0663847402460750e-02 -5.7895087751042651e-01 +5.8230165422609092e-03
3.6999999999999948e+00 +8.5976215114349710e+00 +0.0000000000000000e+00 +3.6999999741854648e+00 -3.0665212008417472e-02 -5.7897680771511650e-01 +5.8240078326739471e-03
3.7499999999999947e+00 +8.5976112097830839e+00 +0.0000000000000000e+00 +3.7499999731242086e+00 -3.0666587482180339e-02 -5.7900302712693574e-01 +5.8250005318929024e-03
3.7999999999999945e+00 +8.5976007696890964e+00 +0.0000000000000000e+00 +3.7999999720342368e+00 -3.0667973578135017e-02 -5.7902953368048682e-01 +5.8259946109850413e-03
3.8499999999999943e+00 +8.5975901911466721e+00 +0.0000000000000000e+00 +3.8499999709151651e+00 -3.0669370050669803e-02 -5.7905632531038320e-01 +5.8269900410173135e-03
3.8999999999999941e+00 +8.5975794741494038e+00 +0.0000000000000000e+00 +3.8999999697666090e+00 -3.0670776654175756e-02 -5.7908339995125069e-01 +5.8279867930563466e-03
3.9499999999999940e+00 +8.5975686186908185e+00 +0.0000000000000000e+00 +3.9499999685881830e+00 -3.0672193143046651e-02 -5.7911075553772440e-01 +5.8289848381684224e-03
3.9999999999999938e+00 +8.5975576247643737e+00 +0.0000000000000000e+00 +3.9999999673795030e+00 -3.0673619271679060e-02 -5.7913839000445044e-01 +5.8299841474194819e-03
4.0499999999999936e+00 +8.5975464923634650e+00 +0.0000000000000000e+00 +4.0499999661401835e+00 -3.0675054839378508e-02 -5.7916630113992607e-01 +5.8309846885422328e-03
4.0999999999999934e+00 +8.5975352214814169e+00 +0.0000000000000000e+00 +4.0999999648698395e+00 -3.0676499825077082e-02 -5.7919448614801394e-01 +5.8319864159376549e-03
4.1499999999999932e+00 +8.5975238121114899e+00 +0.0000000000000000e+00 +4.1499999635680860e+00 -3.0677954252612865e-02 -5.7922294208641611e-01 +5.8329892806739028e-03
4.1999999999999931e+00 +8.5975122642468822e+00 +0.0000000000000000e+00 +4.1999999622345383e+00 -3.0679418145823305e-02 -5.7925166601283384e-01 +5.8339932338192270e-03
4.2499999999999929e+00 +8.5975005778807247e+00 +0.0000000000000000e+00 +4.2499999608688110e+00 -3.0680891528545133e-02 -5.7928065498496673e-01 +5.8349982264419911e-03
4.2999999999999927e+00 +8.5974887530060862e+00 +0.0000000000000000e+00 +4.2999999594705187e+00 -3.0682374424614352e-02 -5.7930990606051280e-01 +5.8360042096106826e-03
4.3499999999999925e+00 +8.5974767896159729e+00 +0.0000000000000000e+00 +4.3499999580392759e+00 -3.0683866857866126e-02 -5.7933941629716790e-01 +5.8370111343938966e-03
4.3999999999999924e+00 +8.5974646877033294e+00 +0.0000000000000000e+00 +4.3999999565746970e+00 -3.0685368852134732e-02 -5.7936918275262372e-01 +5.8380189518603617e-03
4.4499999999999922e+00 +8.5974524472610376e+00 +0.0000000000000000e+00 +4.4499999550763967e+00 -3.0686880431253567e-02 -5.7939920248457133e-01 +5.8390276130789402e-03
4.4999999999999920e+00 +8.5974400682819212e+00 +0.0000000000000000e+00 +4.4999999535439894e+00 -3.0688401619054943e-02 -5.7942947255069610e-01 +5.8400370691186294e-03
4.5499999999999918e+00 +8.5974275507587414e+00 +0.0000000000000000e+00 +4.5499999519770897e+00 -3.0689932439370200e-02 -5.7945999000867954e-01 +5.8410472710485675e-03
4.5999999999999917e+00 +8.5974148946842011e+00 +0.0000000000000000e+00 +4.5999999503753113e+00 -3.0691472916029503e-02 -5.7949075191619970e-01 +5.8420581699380487e-03
4.6499999999999915e+00 +8.5974021000509460e+00 +0.0000000000000000e+00 +4.6499999487382686e+00 -3.0693023072861897e-02 -5.7952175533092931e-01 +5.8430697168565171e-03
4.6999999999999913e+00 +8.5973891668515634e+00 +0.0000000000000000e+00 +4.6999999470655762e+00 -3.0694582933695133e-02 -5.7955299731053500e-01 +5.8440818628735774e-03
4.7499999999999911e+00 +8.5973760950785838e+00 +0.0000000000000000e+00 +4.7499999453568478e+00 -3.0696152522355722e-02 -5.7958447491267862e-01 +5.8450945590590034e-03
4.7999999999999909e+00 +8.5973628847244807e+00 +0.0000000000000000e+00 +4.7999999436116969e+00 -3.0697731862668796e-02 -5.7961618519501590e-01 +5.8461077564827416e-03
4.8499999999999908e+00 +8.5973495357816709e+00 +0.0000000000000000e+00 +4.8499999418297381e+00 -3.0699320978458056e-02 -5.7964812521519460e-01 +5.8471214062149075e-03
4.8999999999999906e+00 +8.5973360482425178e+00 +0.0000000000000000e+00 +4.8999999400105851e+00 -3.0700919893545762e-02 -5.7968029203085703e-01 +5.8481354593258100e-03
4.9499999999999904e+00 +8.5973224220993316e+00 +0.0000000000000000e+00 +4.9499999381538515e+00 -3.0702528631752629e-02 -5.7971268269963727e-01 +5.8491498668859394e-03
4.9999999999999902e+00 +8.5973086573443673e+00 +0.0000000000000000e+00 +4.9999999362591510e+00 -3.0704147216897772e-02 -5.7974529427916088e-01 +5.8501645799659821e-03
5.0499999999999901e+00 +8.5972947539698268e+00 +0.0000000000000000e+00 +5.0499999343260971e+00 -3.0705775672798679e-02 -5.7977812382704652e-01 +5.8511795496368315e-03
5.0999999999999899e+00 +8.5972807119678620e+00 +0.0000000000000000e+00 +5.0999999323543026e+00 -3.0707414023271092e-02 -5.7981116840090285e-01 +5.8521947269695720e-03
5.1499999999999897e+00 +8.5972665313305701e+00 +0.0000000000000000e+00 +5.1499999303433821e+00 -3.0709062292129021e-02 -5.7984442505833034e-01 +5.8532100630355180e-03
5.1999999999999895e+00 +8.5972522120499999e+00 +0.0000000000000000e+00 +5.1999999282929483e+00 -3.0710720503184588e-02 -5.7987789085691843e-01 +5.8542255089061822e-03
5.2499999999999893e+00 +8.5972377541181508e+00 +0.0000000000000000e+00 +5.2499999262026140e+00 -3.0712388680248101e-02 -5.7991156285424761e-01 +5.8552410156533117e-03
5.2999999999999892e+00 +8.5972231575269724e+00 +0.0000000000000000e+00 +5.2999999240719928e+00 -3.0714066847127845e-02 -5.7994543810788746e-01 +5.8562565343488792e-03
5.3499999999999890e+00 +8.5972084222683627e+00 +0.0000000000000000e+00 +5.3499999219006984e+00 -3.0715755027630146e-02 -5.7997951367539702e-01 +5.8572720160650913e-03
5.3999999999999888e+00 +8.5971935483341770e+00 +0.0000000000000000e+00 +5.3999999196883435e+00 -3.0717453245559231e-02 -5.8001378661432335e-01 +5.8582874118743942e-03
5.4499999999999886e+00 +8.5971785357162194e+00 +0.0000000000000000e+00 +5.4499999174345408e+00 -3.0719161524717223e-02 -5.8004825398220228e-01 +5.8593026728494760e-03
5.4999999999999885e+00 +8.5971633844062474e+00 +0.0000000000000000e+00 +5.4999999151389032e+00 -3.0720879888904023e-02 -5.8008291283655644e-01 +5.8603177500632800e-03
5.5499999999999883e+00 +8.5971480943959762e+00 +0.0000000000000000e+00 +5.5499999128010433e+00 -3.0722608361917314e-02 -5.8011776023489714e-01 +5.8613325945890060e-03
5.5999999999999881e+00 +8.5971326656770728e+00 +0.0000000000000000e+00 +5.5999999104205740e+00 -3.0724346967552444e-02 -5.8015279323472191e-01 +5.8623471575001123e-03
5.6499999999999879e+00 +8.5971170982411600e+00 +0.0000000000000000e+00 +5.6499999079971071e+00 -3.0726095729602422e-02 -5.8018800889351474e-01 +5.8633613898703271e-03
5.6999999999999877e+00 +8.5971013920798196e+00 +0.0000000000000000e+00 +5.6999999055302562e+00 -3.0727854671857804e-02 -5.8022340426874530e-01 +5.8643752427736551e-03
5.7499999999999876e+00 +8.5970855471845873e+00 +0.0000000000000000e+00 +5.7499999030196332e+00 -3.0729623818106681e-02 -5.8025897641786994e-01 +5.8653886672843753e-03
5.7999999999999874e+00 +8.5970695635469578e+00 +0.0000000000000000e+00 +5.7999999004648499e+00 -3.0731403192134573e-02 -5.8029472239832913e-01 +5.8664016144770528e-03
5.8499999999999872e+00 +8.5970534411583852e+00 +0.0000000000000000e+00 +5.8499998978655201e+00 -3.0733192817724402e-02 -5.8033063926754869e-01 +5.8674140354265450e-03
5.8999999999999870e+00 +8.5970371800102825e+00 +0.0000000000000000e+00 +5.8999998952212547e+00 -3.0734992718656415e-02 -5.8036672408293866e-01 +5.8684258812080007e-03
