# multipoles
# s[mm] polynom_b[n=0][T/m^n] polynom_b[n=1][T/m^n] polynom_b[n=2][T/m^n] polynom_b[n=3][T/m^n] polynom_b[n=4][T/m^n] polynom_b[n=5][T/m^n] polynom_b[n=6][T/m^n] 
+0.0000000000000000e+00 -5.7759699069602832e-01 +7.5869909449209274e+00 +5.3568113055701891e+00 -7.5209087914116481e+01 +1.9677206006794342e+04 +2.1872782558670166e+05 -1.2391603453665355e+08 
-5.0000000000000003e-02 -5.7759871921080252e-01 +7.5870771457866146e+00 +5.3633385395115694e+00 -7.5351176152065719e+01 +1.9508446370815105e+04 +2.2005618460410775e+05 -1.2296394956554478e+08 
-1.0000000000000001e-01 -5.7760083312678334e-01 +7.5871856173992658e+00 +5.3700160881817780e+00 -7.5532981029148459e+01 +1.9324789066476813e+04 +2.2169962942466000e+05 -1.2192430188058539e+08 
-1.5000000000000002e-01 -5.7760333149696719e-01 +7.5873162269815362e+00 +5.3768191758795396e+00 -7.5752548564125277e+01 +1.9126889943357517e+04 +2.2364420275678264e+05 -1.2080104474565430e+08 
-2.0000000000000001e-01 -5.7760621337438123e-01 +7.5874688417603728e+00 +5.3837230284911737e+00 -7.6007924909216655e+01 +1.8915404812263987e+04 +2.2587594834877382e+05 -1.1959813117492683e+08 
-2.5000000000000000e-01 -5.7760947781206107e-01 +7.5876433289548100e+00 +5.3907028706875515e+00 -7.6297155859029104e+01 +1.8690989513329056e+04 +2.2838090703578066e+05 -1.1831951436979400e+08 
-2.9999999999999999e-01 -5.7761312386306440e-01 +7.5878395557911542e+00 +5.3977339277555121e+00 -7.6618287472878563e+01 +1.8454299872381140e+04 +2.3114512179480944e+05 -1.1696914744768439e+08 
-3.4999999999999998e-01 -5.7761715058047625e-01 +7.5880573894918619e+00 +5.4047914264226566e+00 -7.6969365630134959e+01 +1.8205991677839149e+04 +2.3415463419099976e+05 -1.1555098327560888e+08 
-3.9999999999999997e-01 -5.7762155701738416e-01 +7.5882966972815300e+00 +5.4118505907665746e+00 -7.7348436270755371e+01 +1.7946720789684303e+04 +2.3739548629377031e+05 -1.1406897520845574e+08 
-4.4999999999999996e-01 -5.7762634222691012e-01 +7.5885573463848539e+00 +5.4188866484962750e+00 -7.7753545297427792e+01 +1.7677142965029419e+04 +2.4085371982321245e+05 -1.1252707588795258e+08 
-4.9999999999999994e-01 -5.7763150526218521e-01 +7.5888392040259811e+00 +5.4258748248943105e+00 -7.8182738572293161e+01 +1.7397914033055316e+04 +2.4451537622752739e+05 -1.1092923846698630e+08 
-5.4999999999999993e-01 -5.7763704517635239e-01 +7.5891421374303389e+00 +5.4327903446976533e+00 -7.8634061967729906e+01 +1.7109689836935213e+04 +2.4836649698129078e+05 -1.0927941619505487e+08 
-5.9999999999999998e-01 -5.7764296102258061e-01 +7.5894660138213235e+00 +5.4396084342109337e+00 -7.9105561261971530e+01 +1.6813126175168865e+04 +2.5239312287429944e+05 -1.0758156200763005e+08 
-6.5000000000000002e-01 -5.7764925185405425e-01 +7.5898107004272264e+00 +5.4463043194013281e+00 -7.9595282398977403e+01 +1.6508878857008349e+04 +2.5658129602476620e+05 -1.0583962892345779e+08 
-7.0000000000000007e-01 -5.7765591672398064e-01 +7.5901760644737086e+00 +5.4528532271998218e+00 -8.0101271184319486e+01 +1.6197603665382007e+04 +2.6091705741878465e+05 -1.0405756978016257e+08 
-7.5000000000000011e-01 -5.7766295468557582e-01 +7.5905619731869658e+00 +5.4592303832635016e+00 -8.0621573416524058e+01 +1.5879956416933388e+04 +2.6538644797423412e+05 -1.0223933764473931e+08 
-8.0000000000000016e-01 -5.7767036479206935e-01 +7.5909682937946341e+00 +5.4654110127768130e+00 -8.1154234941405164e+01 +1.5556592938937018e+04 +2.6997550907492603e+05 -1.0038888564674707e+08 
-8.5000000000000020e-01 -5.7767814609672741e-01 +7.5913948935250621e+00 +5.4713703440207251e+00 -8.1697301589812753e+01 +1.5228168979646665e+04 +2.7467028190327174e+05 -9.8510166400051966e+07 
-9.0000000000000024e-01 -5.7768629765279855e-01 +7.5918416396075425e+00 +5.4770835995164804e+00 -8.2248819219688414e+01 +1.4895340439552243e+04 +2.7945680793979985e+05 -9.6607133536593899e+07 
-9.5000000000000029e-01 -5.7769481851358362e-01 +7.5923083992703289e+00 +5.4825260082000069e+00 -8.2806833613296121e+01 +1.4558763045042571e+04 +2.8432112801151321e+05 -9.4683739508398220e+07 
-1.0000000000000002e+00 -5.7770370773237056e-01 +7.5927950397453179e+00 +5.4876727935307121e+00 -8.3369390677109010e+01 +1.4219092673442839e+04 +2.8924928397669783e+05 -9.2743937800939575e+07 
-1.0500000000000003e+00 -5.7771296436248631e-01 +7.5933014282632092e+00 +5.4924991836751031e+00 -8.3934536258866714e+01 +1.3876985067507689e+04 +2.9422731727460213e+05 -9.0791680962528944e+07 
-1.1000000000000003e+00 -5.7772258745725513e-01 +7.5938274320563970e+00 +5.4969804026793243e+00 -8.4500316226730547e+01 +1.3533096088309960e+04 +2.9924126941958151e+05 -8.8830922366900444e+07 
-1.1500000000000004e+00 -5.7773257607001760e-01 +7.5943729183566591e+00 +5.5010916755135710e+00 -8.5064776419372166e+01 +1.3188081564306076e+04 +3.0427718176696519e+05 -8.6865615141203836e+07 
-1.2000000000000004e+00 -5.7774292925414572e-01 +7.5949377543990222e+00 +5.5048082289610401e+00 -8.5625962786534231e+01 +1.2842597282610079e+04 +3.0932109659879887e+05 -8.4899712162869245e+07 
-1.2500000000000004e+00 -5.7775364606301360e-01 +7.5955218074188986e+00 +5.5081052884449333e+00 -8.6181921254880393e+01 +1.2497299057880828e+04 +3.1435905594367010e+05 -8.2937166460789740e+07 
-1.3000000000000005e+00 -5.7776472555000835e-01 +7.5961249446515842e+00 +5.5109580778048350e+00 -8.6730697737772871e+01 +1.2152842754233487e+04 +3.1937710179264698e+05 -8.0981931421694428e+07 
-1.3500000000000005e+00 -5.7777616676853483e-01 +7.5967470333338234e+00 +5.5133418225772743e+00 -8.7270338188954412e+01 +1.1809884180753770e+04 +3.2436127647739585e+05 -7.9037960031273797e+07 
-1.4000000000000006e+00 -5.7778796877201288e-01 +7.5973879407044471e+00 +5.5152317473674701e+00 -8.7798888611763246e+01 +1.1469079177244483e+04 +3.2929762269367592e+05 -7.7109205500489309e+07 
-1.4500000000000006e+00 -5.7780013061387292e-01 +7.5980475340033271e+00 +5.5166030762067155e+00 -8.8314395046762087e+01 +1.1131083595374430e+04 +3.3417218350478105e+05 -7.5199621108926475e+07 
-1.5000000000000007e+00 -5.7781265134757820e-01 +7.5987256804710359e+00 +5.5174310362139547e+00 -8.8814903529558919e+01 +1.0796553203346964e+04 +3.3897100189335569e+05 -7.3313159570821717e+07 
-1.5500000000000007e+00 -5.7782553002656889e-01 +7.5994222473499669e+00 +5.5176908479074340e+00 -8.9298460165289399e+01 +1.0466143946752167e+04 +3.4368012148238532e+05 -7.1453774800110340e+07 
-1.6000000000000008e+00 -5.7783876570432491e-01 +7.6001371018841777e+00 +5.5173577362350201e+00 -8.9763111092569247e+01 +1.0140511648391430e+04 +3.4828558610764402e+05 -6.9625419865941748e+07 
-1.6500000000000008e+00 -5.7785235743433117e-01 +7.6008701113165182e+00 +5.5164069247403331e+00 -9.0206902387302421e+01 +9.8203121668070708e+03 +3.5277343912714126e+05 -6.7832048073764786e+07 
-1.7000000000000008e+00 -5.7786630427009500e-01 +7.6016211428948575e+00 +5.5148136374544370e+00 -9.0627880320232151e+01 +9.5062013509300214e+03 +3.5712972554111923e+05 -6.6077612674517915e+07 
-1.7500000000000009e+00 -5.7788060526512475e-01 +7.6023900638655739e+00 +5.5125530971034218e+00 -9.1024091075317855e+01 +9.1988350787917807e+03 +3.6134048960329319e+05 -6.4366067098212339e+07 
-1.8000000000000009e+00 -5.7789525947293729e-01 +7.6031767414806293e+00 +5.5096005247407893e+00 -9.1393581047558271e+01 +8.8988692748690737e+03 +3.6539177732615097e+05 -6.2701365089938484e+07 
-1.8500000000000010e+00 -5.7791026594708650e-01 +7.6039810429895125e+00 +5.5059311455794200e+00 -9.1734396504792088e+01 +8.6069597489159223e+03 +3.6926963363340043e+05 -6.1087459612098768e+07 
-1.9000000000000010e+00 -5.7792562374110168e-01 +7.6048028356425208e+00 +5.5015201785700842e+00 -9.2044583751971743e+01 +8.3237624743909419e+03 +3.7296010386181070e+05 -5.9528304714572273e+07 
-1.9500000000000011e+00 -5.7794133190855435e-01 +7.6056419866979246e+00 +5.4963428466760025e+00 -9.2322189387141108e+01 +8.0499333225252403e+03 +3.7644923568091629e+05 -5.8027853778656401e+07 
-2.0000000000000009e+00 -5.7795738950302655e-01 +7.6064983634098091e+00 +5.4903743729976089e+00 -9.2565259827432911e+01 +7.7861281532769326e+03 +3.7972307532149245e+05 -5.6590060079480633e+07 
-2.0500000000000007e+00 -5.7797379535676696e-01 +7.6073718359592899e+00 +5.4835948912113768e+00 -9.2772329111783662e+01 +7.5328834816416438e+03 +3.8277098045614071e+05 -5.5218115723275878e+07 
-2.1000000000000005e+00 -5.7799054741790268e-01 +7.6082622785241840e+00 +5.4760043733332076e+00 -9.2943853030087098e+01 +7.2902642167498971e+03 +3.8559532545791427e+05 -5.3912205807610780e+07 
-2.1500000000000004e+00 -5.7800764341381539e-01 +7.6091695643536816e+00 +5.4676078072565444e+00 -9.3080761110320594e+01 +7.0582189000386606e+03 +3.8820167939832091e+05 -5.2671773601197258e+07 
-2.2000000000000002e+00 -5.7802508107189077e-01 +7.6100935667041956e+00 +5.4584101795696478e+00 -9.3183983177361810e+01 +6.8366961076671250e+03 +3.9059561380989198e+05 -5.1496262603457719e+07 
-2.2500000000000000e+00 -5.7804285811953193e-01 +7.6110341588285113e+00 +5.4484164777834074e+00 -9.3254448891480209e+01 +6.6256443890144110e+03 +3.9278269886072370e+05 -5.0385116124968626e+07 
-2.2999999999999998e+00 -5.7806097228415243e-01 +7.6119912139829706e+00 +5.4376316893186463e+00 -9.3293088030308539e+01 +6.4250122988918611e+03 +3.9476850560003781e+05 -4.9337777525690392e+07 
-2.3499999999999996e+00 -5.7807942129317891e-01 +7.6129646054226416e+00 +5.4260608016866829e+00 -9.3300830316839807e+01 +6.2347483894106426e+03 +3.9655860466872767e+05 -4.8353690144805610e+07 
-2.3999999999999995e+00 -5.7809820287404201e-01 +7.6139542064068682e+00 +5.4137088014878083e+00 -9.3278605623722115e+01 +6.0548012352631558e+03 +3.9815856786659075e+05 -4.7432297467496336e+07 
-2.4499999999999993e+00 -5.7811731475418748e-01 +7.6149598901929636e+00 +5.4005806755726713e+00 -9.3227343736718879e+01 +5.8851194083293585e+03 +3.9957396628828347e+05 -4.6573042973137826e+07 
-2.4999999999999991e+00 -5.7813675466107928e-01 +7.6159815300390736e+00 +5.3866814128791543e+00 -9.3147974453817824e+01 +5.7256514193765406e+03 +4.0081037108544790e+05 -4.5775369713596024e+07 
-2.5499999999999989e+00 -5.7815652032216691e-01 +7.6170189992057198e+00 +5.3720159972607453e+00 -9.3041427647913835e+01 +5.5763459210494129e+03 +4.0187335395606171e+05 -4.5038721712810621e+07 
-2.5999999999999988e+00 -5.7817660946494731e-01 +7.6180721709534982e+00 +5.3565894197199908e+00 -9.2908633208894486e+01 +5.4371513686128337e+03 +4.0276848681272595e+05 -4.4362541646206602e+07 
-2.6499999999999986e+00 -5.7819701981688998e-01 +7.6191409185466688e+00 +5.3404066638981398e+00 -9.2750521136040746e+01 +5.3080164240430295e+03 +4.0350134233666630e+05 -4.3746273615172468e+07 
-2.6999999999999984e+00 -5.7821774910550727e-01 +7.6202251152447555e+00 +5.3234727202232595e+00 -9.2568021228679584e+01 +5.1888895573839854e+03 +4.0407749155245401e+05 -4.3189360392589033e+07 
-2.7499999999999982e+00 -5.7823879505829179e-01 +7.6213246343120815e+00 +5.3057925732394091e+00 -9.2362063475046256e+01 +5.0797194034144932e+03 +4.0450250702348084e+05 -4.2691245884031571e+07 
-2.7999999999999980e+00 -5.7826015540276610e-01 +7.6224393490149218e+00 +5.2873712112816973e+00 -9.2133577931119760e+01 +4.9804544939390744e+03 +4.0478196184010571e+05 -4.2251373296929963e+07 
-2.8499999999999979e+00 -5.7828182786646309e-01 +7.6235691326172432e+00 +5.2682136229575462e+00 -9.1883494535932456e+01 +4.8910433552552540e+03 +4.0492142804021604e+05 -4.1869185810691096e+07 
-2.8999999999999977e+00 -5.7830381017689358e-01 +7.6247138583852019e+00 +5.2483247913054507e+00 -9.1612743325363425e+01 +4.8114346619899570e+03 +4.0492647850662051e+05 -4.1544127596158713e+07 
-2.9499999999999975e+00 -5.7832610006163054e-01 +7.6258733995849868e+00 +5.2277097089888649e+00 -9.1322254301291281e+01 +4.7415768300357649e+03 +4.0480268569950969e+05 -4.1275641079451054e+07 
-2.9999999999999973e+00 -5.7834869524820609e-01 +7.6270476294855651e+00 +5.2063733597094330e+00 -9.1012957590726927e+01 +4.6814185195157324e+03 +4.0455562315463572e+05 -4.1063170348079510e+07 
-3.0499999999999972e+00 -5.7837159346418598e-01 +7.6282364213556715e+00 +5.1843207317706685e+00 -9.0685783283573514e+01 +4.6309082661755101e+03 +4.0419086399220646e+05 -4.0906158645435520e+07 
-3.0999999999999970e+00 -5.7839479243714442e-01 +7.6294396484646034e+00 +5.1615568135842782e+00 -9.0341661490975156e+01 +4.5899946007924336e+03 +4.0371398149402096e+05 -4.0804049172811233e+07 
-3.1499999999999968e+00 -5.7841828989465227e-01 +7.6306571840813868e+00 +5.1380865911617963e+00 -8.9981522298969466e+01 +4.5586261258064696e+03 +4.0313054867520405e+05 -4.0756285642401077e+07 
-3.1999999999999966e+00 -5.7844208356430060e-01 +7.6318889014791162e+00 +5.1139150534912829e+00 -8.9606295953260698e+01 +4.5367513570096371e+03 +4.0244613982886408e+05 -4.0762311157641709e+07 
-3.2499999999999964e+00 -5.7846617117368127e-01 +7.6331346739283665e+00 +5.0890471874016736e+00 -8.9216912596571390e+01 +4.5243188773562424e+03 +4.0166632838421711e+05 -4.0821569306189127e+07 
-3.2999999999999963e+00 -5.7849055045040165e-01 +7.6343943747016878e+00 +5.0634879818281728e+00 -8.8814302416443141e+01 +4.5212772063562397e+03 +4.0079668798024481e+05 -4.0933503220791936e+07 
-3.3499999999999961e+00 -5.7851521912206361e-01 +7.6356678770754369e+00 +5.0372424234278297e+00 -8.8399395774007459e+01 +4.5275749285429929e+03 +3.9984279373987950e+05 -4.1097556488375455e+07 
-3.3999999999999959e+00 -5.7854017491628695e-01 +7.6369550543209739e+00 +5.0103155005090656e+00 -8.7973122807411769e+01 +4.5431605874227571e+03 +3.9881021885523503e+05 -4.1313172431550175e+07 
-3.4499999999999957e+00 -5.7856541556070140e-01 +7.6382557797129369e+00 +4.9827122022471109e+00 -8.7536413773181437e+01 +4.5679827009588826e+03 +3.9770453740574385e+05 -4.1579794191136196e+07 
-3.4999999999999956e+00 -5.7859093878292778e-01 +7.6395699265292212e+00 +4.9544375149258073e+00 -8.7090199071238146e+01 +4.6019898660307526e+03 +3.9653132466125709e+05 -4.1896865439653754e+07 
-3.5499999999999954e+00 -5.7861674231060944e-01 +7.6408973680460353e+00 +4.9254964276105415e+00 -8.6635409011875865e+01 +4.6451306085137976e+03 +3.9529615504373278e+05 -4.2263829389065281e+07 
-3.5999999999999952e+00 -5.7864282387139909e-01 +7.6422379775393754e+00 +4.8958939299039894e+00 -8.6172973886359827e+01 +4.6973534413458083e+03 +3.9400460275059624e+05 -4.2680129168167211e+07 
-3.6499999999999950e+00 -5.7866918119293620e-01 +7.6435916282877585e+00 +4.8656350083585895e+00 -8.5703824098099744e+01 +4.7586069563109004e+03 +3.9266224288818164e+05 -4.3145208422252305e+07 
-3.6999999999999948e+00 -5.7869581200288667e-01 +7.6449581935723554e+00 +4.8347246532342094e+00 -8.5228890141609085e+01 +4.8288396469833770e+03 +3.9127465122735646e+05 -4.3658510140675522e+07 
-3.7499999999999947e+00 -5.7872271402892173e-01 +7.6463375466699635e+00 +4.8031678541311287e+00 -8.4749102323780349e+01 +4.9080000321640227e+03 +3.8984740189377684e+05 -4.4219477510152556e+07 
-3.7999999999999945e+00 -5.7874988499870450e-01 +7.6477295608614480e+00 +4.7709695988418330e+00 -8.4265391117205724e+01 +4.9960366741064736e+03 +3.8838607035227545e+05 -4.4827553988865666e+07 
-3.8499999999999943e+00 -5.7877732263990511e-01 +7.6491341094291911e+00 +4.7381348750932206e+00 -8.3778687057255809e+01 +5.0928981431935144e+03 +3.8689623251813668e+05 -4.5482183113239244e+07 
-3.8999999999999941e+00 -5.7880502468020956e-01 +7.6505510656545876e+00 +4.7046686730872675e+00 -8.3289920620961070e+01 +5.1985329400902674e+03 +3.8538346372535772e+05 -4.6182807937538266e+07 
-3.9499999999999940e+00 -5.7883298884732315e-01 +7.6519803028172415e+00 +4.6705759848830644e+00 -8.2800022218773478e+01 +5.3128895215699122e+03 +3.8385333872592176e+05 -4.6928871238923140e+07 
-3.9999999999999938e+00 -5.7886121286892311e-01 +7.6534216942043658e+00 +4.6358617978553971e+00 -8.2309922551310464e+01 +5.4359164649468912e+03 +3.8231143453631009e+05 -4.7719816588675991e+07 
-4.0499999999999936e+00 -5.7888969440164628e-01 +7.6548751047382861e+00 +4.6005341445571597e+00 -8.1820465393344008e+01 +5.5675049513222693e+03 +3.8076276910266135e+05 -4.8554827752117440e+07 
-4.0999999999999934e+00 -5.7891843081784122e-01 +7.6563403608482972e+00 +4.5646136999025533e+00 -8.1332201199804217e+01 +5.7073127399966925e+03 +3.7921085600654467e+05 -4.9432027236133903e+07 
-4.1499999999999932e+00 -5.7894741941878181e-01 +7.6578172780715867e+00 +4.5281244353644654e+00 -8.0845621708820502e+01 +5.8549383553142579e+03 +3.7765901658382930e+05 -5.0349268444615118e+07 
-4.1999999999999931e+00 -5.7897665750575722e-01 +7.6593056719442441e+00 +4.4910903246058194e+00 -8.0361218600227090e+01 +6.0099802646649932e+03 +3.7611057157089241e+05 -5.1304404393332958e+07 
-4.2499999999999929e+00 -5.7900614238002723e-01 +7.6608053579999567e+00 +4.4535353360601517e+00 -7.9879483486884723e+01 +6.1720370783448097e+03 +3.7456884128433309e+05 -5.2295289074801840e+07 
-4.2999999999999927e+00 -5.7903587134290002e-01 +7.6623161517722140e+00 +4.4154834461840053e+00 -7.9400907963560570e+01 +6.3407071912446600e+03 +3.7303714585552964e+05 -5.3319775024158292e+07 
-4.3499999999999925e+00 -5.7906584169564845e-01 +7.6638378687930402e+00 +4.3769586254964761e+00 -7.8925983578411589e+01 +6.5155891583911625e+03 +3.7151880509519367e+05 -5.4375715864193693e+07 
-4.3999999999999924e+00 -5.7909605073956194e-01 +7.6653703245928799e+00 +4.3379848473374691e+00 -7.8455201818971375e+01 +6.6962814589559075e+03 +3.7001713832465850e+05 -5.5460964702072464e+07 
-4.4499999999999922e+00 -5.7912649577592801e-01 +7.6669133347034801e+00 +4.2985860847493109e+00 -7.7989054242285548e+01 +6.8823825807658031e+03 +3.6853546551222407e+05 -5.6573374707563862e+07 
-4.4999999999999920e+00 -5.7915717410603795e-01 +7.6684667146509025e+00 +4.2587863112439992e+00 -7.7528032172090278e+01 +7.0734910014078250e+03 +3.6707710470542469e+05 -5.7710798988525532e+07 
-4.5499999999999918e+00 -5.7918808303117320e-01 +7.6700302799610167e+00 +4.2186094988989948e+00 -7.7072626942063167e+01 +7.2692052379600646e+03 +3.6564537409984769e+05 -5.8871090924778901e+07 
-4.5999999999999917e+00 -5.7921921985261826e-01 +7.6716038461630491e+00 +4.1780796206112747e+00 -7.6623330027220845e+01 +7.4691237821331551e+03 +3.6424359308070247e+05 -6.0052103707918130e+07 
-4.6499999999999915e+00 -5.7925058187167300e-01 +7.6731872287771541e+00 +4.1372206518042187e+00 -7.6180632543927672e+01 +7.6728450637105971e+03 +3.6287507812294760e+05 -6.1251690139070019e+07 
-4.6999999999999913e+00 -5.7928216638962216e-01 +7.6747802433274588e+00 +4.0960565657583281e+00 -7.5745025788162764e+01 +7.8799675691780194e+03 +3.6154314724999468e+05 -6.2467703396468066e+07 
-4.7499999999999911e+00 -5.7931397070773405e-01 +7.6763827053355982e+00 +4.0546113332326446e+00 -7.5317000949901981e+01 +8.0900898519905277e+03 +3.6025111759283621e+05 -6.3697997105161220e+07 
-4.7999999999999909e+00 -5.7934599212731308e-01 +7.6779944303183765e+00 +4.0129089314519728e+00 -7.4897049058183384e+01 +8.3028102936305513e+03 +3.5900230510340567e+05 -6.4940423738779008e+07 
-4.8499999999999908e+00 -5.7937822794964089e-01 +7.6796152337958139e+00 +3.9709733341613807e+00 -7.4485661262340983e+01 +8.5177273709747096e+03 +3.5780002667970787e+05 -6.6192836420567311e+07 
-4.8999999999999906e+00 -5.7941067547599068e-01 +7.6812449312803848e+00 +3.9288285139015553e+00 -7.4083328433697588e+01 +8.7344395944276494e+03 +3.5664759704036609e+05 -6.7453088504348472e+07 
-4.9499999999999904e+00 -5.7944333200765452e-01 +7.6828833382878230e+00 +3.8864984471745418e+00 -7.3690541582879874e+01 +8.9525453672949552e+03 +3.5554833208288008e+05 -6.8719032618187174e+07 
-4.9999999999999902e+00 -5.7947619484589807e-01 +7.6845302703280423e+00 +3.8440071067214938e+00 -7.3307791501199958e+01 +9.1716431921095427e+03 +3.5450554596014426e+05 -6.9988522052649707e+07 
-5.0499999999999901e+00 -5.7950926129201197e-01 +7.6861855429130124e+00 +3.8013784692434118e+00 -7.2935569080828216e+01 +9.3913314756584150e+03 +3.5352255371462280e+05 -7.1259409493496656e+07 
