# multipoles
# s[mm] polynom_b[n=0][T/m^n] polynom_b[n=1][T/m^n] polynom_b[n=2][T/m^n] polynom_b[n=3][T/m^n] polynom_b[n=4][T/m^n] polynom_b[n=5][T/m^n] polynom_b[n=6][T/m^n] 
+0.0000000000000000e+00 -5.2249165190505342e-01 +6.8389931701194477e+00 +5.8900644049942912e+00 -1.1043645720177144e+01 -1.5902473498698141e+03 -1.7338168683318424e+05 +5.1763592766972808e+06 
+5.0000000000000003e-02 -5.2249177340894171e-01 +6.8390242890490933e+00 +5.8887633108423794e+00 -1.0713364161673846e+01 -1.5824291088218056e+03 -1.7520889929435434e+05 +5.1033043280277476e+06 
+1.0000000000000001e-01 -5.2249227770876316e-01 +6.8390776653544298e+00 +5.8865090976321985e+00 -1.0403760052536827e+01 -1.5651966339501648e+03 -1.7693144025058372e+05 +4.9790667268337039e+06 
+1.4999999999999999e-01 -5.2249316408295932e-01 +6.8391531851359986e+00 +5.8833252731300547e+00 -1.0113761627658931e+01 -1.5389934516105959e+03 -1.7855432855723787e+05 +4.8061534898047429e+06 
+2.0000000000000001e-01 -5.2249443180999222e-01 +6.8392507344965257e+00 +5.8792353434137103e+00 -9.8422971715384975e+00 -1.5042630397761027e+03 -1.8008258270972880e+05 +4.5870712918296410e+06 
+2.5000000000000000e-01 -5.2249608016836391e-01 +6.8393701995379637e+00 +5.8742628136948678e+00 -9.5882949170601819e+00 -1.4614488509239500e+03 -1.8152122158492208e+05 +4.3243266319707297e+06 
+2.9999999999999999e-01 -5.2249810843658506e-01 +6.8395114663683909e+00 +5.8684311925481092e+00 -9.3506832922916097e+00 -1.4109944325617271e+03 -1.8287526255899976e+05 +4.0204266665425324e+06 
+3.4999999999999998e-01 -5.2250051589311697e-01 +6.8396744210908009e+00 +5.8617639849964469e+00 -9.1283904969032843e+00 -1.3533432307547096e+03 -1.8414972483087861e+05 +3.6778778455437580e+06 
+4.0000000000000002e-01 -5.2250330181657245e-01 +6.8398589498139932e+00 +5.8542846982290220e+00 -8.9203449327100994e+00 -1.2889387525535158e+03 -1.8534962599581009e+05 +3.2991870387509428e+06 
+4.5000000000000001e-01 -5.2250646548543445e-01 +6.8400649386474663e+00 +5.8460168390898071e+00 -8.7254749864041070e+00 -1.2182244918997619e+03 -1.8647998378505014e+05 +2.8868610166449593e+06 
+5.0000000000000000e-01 -5.2251000617831622e-01 +6.8402922736976262e+00 +5.8369839133921477e+00 -8.5427089062298212e+00 -1.1416439193779488e+03 -1.8754581703713923e+05 +2.4434064049009797e+06 
+5.5000000000000004e-01 -5.2251392317378342e-01 +6.8405408410774866e+00 +5.8272094279743403e+00 -8.3709751607663829e+00 -1.0596405296546095e+03 -1.8855214284146356e+05 +1.9713299813074942e+06 
+5.9999999999999998e-01 -5.2251821575049084e-01 +6.8408105268986885e+00 +5.8167168894828762e+00 -8.2092021357974385e+00 -9.7265781193442388e+02 -1.8950397897934675e+05 +1.4731384824262899e+06 
+6.5000000000000002e-01 -5.2252288318698947e-01 +6.8411012172710937e+00 +5.8055298051662083e+00 -8.0563181130128196e+00 -8.8113927219314257e+02 -1.9040634406247278e+05 +9.5133876297686552e+05 
+6.9999999999999996e-01 -5.2252792476196785e-01 +6.8414127983097055e+00 +5.7936716817606184e+00 -7.9112515529730514e+00 -7.8552840368843397e+02 -1.9126425527202195e+05 +4.0843759451308212e+05 
+7.5000000000000000e-01 -5.2253333975405269e-01 +6.8417451561281695e+00 +5.7811660253030901e+00 -7.7729308323858612e+00 -6.8626867937290945e+02 -1.9208273046992565e+05 -1.5305839764949071e+05 
+8.0000000000000004e-01 -5.2253912744190689e-01 +6.8420981768405316e+00 +5.7680363410312250e+00 -7.6402843068194635e+00 -5.8380355211894948e+02 -1.9286678772193225e+05 -7.3064271425965580e+05 
+8.4999999999999998e-01 -5.2254528710426018e-01 +6.8424717465622367e+00 +5.7543061384168892e+00 -7.5122403721727995e+00 -4.7857658757554123e+02 -1.9362144473249302e+05 -1.3218081021314675e+06 
+9.0000000000000002e-01 -5.2255181801980199e-01 +6.8428657514091062e+00 +5.7399989215451956e+00 -7.3877273941776975e+00 -3.7103120725201865e+02 -1.9435171951035003e+05 -1.9240482778481035e+06 
+9.4999999999999996e-01 -5.2255871946723131e-01 +6.8432800774970257e+00 +5.7251381979940765e+00 -7.2656737263222366e+00 -2.6161092970206329e+02 -1.9506263011294816e+05 -2.5348562938935235e+06 
+1.0000000000000000e+00 -5.2256599072528465e-01 +6.8437146109445051e+00 +5.7097474743075374e+00 -7.1450077928828426e+00 -1.5075924133644830e+02 -1.9575919405218054e+05 -3.1517254343732167e+06 
+1.0500000000000000e+00 -5.2257363107273114e-01 +6.8441692378687833e+00 +5.6938502557710349e+00 -7.0246579393690283e+00 -3.8919598117235864e+01 -1.9644642949384323e+05 -3.7721491776308301e+06 
+1.1000000000000001e+00 -5.2258163978830396e-01 +6.8446438443863373e+00 +5.6774700521908787e+00 -6.9035524516600431e+00 +7.3464419729149398e+01 -1.9712935507780753e+05 -4.3936201564365104e+06 
+1.1499999999999999e+00 -5.2259001615084122e-01 +6.8451383166176365e+00 +5.6606303665111000e+00 -6.7806197560629951e+00 +1.8594941923526224e+02 -1.9781298830356874e+05 -5.0136322747462550e+06 
+1.2000000000000000e+00 -5.2259875943909062e-01 +6.8456525406787643e+00 +5.6433547054262183e+00 -6.6547880647514317e+00 +2.9809190383146262e+02 -1.9850234842812433e+05 -5.6296787304822532e+06 
+1.2500000000000000e+00 -5.2260786893188149e-01 +6.8461864026897254e+00 +5.6256665782738171e+00 -6.5249857292554587e+00 +4.0944830624921462e+02 -1.9920245355111410e+05 -6.2392522468365906e+06 
+1.3000000000000000e+00 -5.2261734390804016e-01 +6.8467397887693009e+00 +5.6075894872073029e+00 -6.3901410263702552e+00 +5.1957524968890732e+02 -1.9991832238970677e+05 -6.8398468232149128e+06 
+1.3500000000000001e+00 -5.2262718364642891e-01 +6.8473125850374865e+00 +5.5891469422065851e+00 -6.2491822510913018e+00 +6.2802914512862014e+02 -2.0065497351972063e+05 -7.4289550209808582e+06 
+1.3999999999999999e+00 -5.2263738742584753e-01 +6.8479046776132053e+00 +5.5703624483633787e+00 -6.1010376316901311e+00 +7.3436653666029679e+02 -2.0141742603939419e+05 -8.0040703085178146e+06 
+1.4500000000000000e+00 -5.2264795452520485e-01 +6.8485159526136465e+00 +5.5512595099170792e+00 -5.9446353055272798e+00 +8.3814398793271266e+02 -2.0221069979096777e+05 -8.5626862723496370e+06 
+1.5000000000000000e+00 -5.2265888422339402e-01 +6.8491462961607672e+00 +5.5318616346455896e+00 -5.7789035696144015e+00 +9.3891796557262262e+02 -2.0303981333207115e+05 -9.1022958416759409e+06 
+1.5500000000000000e+00 -5.2267017579929387e-01 +6.8497955943730986e+00 +5.5121923293853428e+00 -5.6027705673047832e+00 +1.0362449625428285e+03 -2.0390978642719699e+05 -9.6203921273941267e+06 
+1.6000000000000001e+00 -5.2268182853180245e-01 +6.8504637333696943e+00 +5.4922750979657327e+00 -5.4151644269049308e+00 +1.1296815468095169e+03 -2.0482563900830076e+05 -1.0114468726990884e+07 
+1.6499999999999999e+00 -5.2269384169988031e-01 +6.8511505992692499e+00 +5.4721334476948913e+00 -5.2150132603691288e+00 +1.2187841952422648e+03 -2.0579239106096001e+05 -1.0582018631597713e+07 
+1.7000000000000000e+00 -5.2270621458243272e-01 +6.8518560781907949e+00 +5.4517908832630324e+00 -5.0012451494718624e+00 +1.3031094495743380e+03 -2.0681506287008160e+05 -1.1020535255481886e+07 
+1.7500000000000000e+00 -5.2271894645844841e-01 +6.8525800562524202e+00 +5.4312709117906390e+00 -4.7727881183847218e+00 +1.3822137887880119e+03 -2.0789867518058838e+05 -1.1427511595563792e+07 
+1.8000000000000000e+00 -5.2273203660686951e-01 +6.8533224195728808e+00 +5.4105970395535312e+00 -4.5285702083008657e+00 +1.4556537076948357e+03 -2.0904824853520643e+05 -1.1800440736542439e+07 
+1.8500000000000001e+00 -5.2274548430666001e-01 +6.8540830542690214e+00 +5.3897927693359602e+00 -4.2675193483738614e+00 +1.5229857965901749e+03 -2.1026880442861223e+05 -1.2136816412595393e+07 
+1.8999999999999999e+00 -5.2275928883684897e-01 +6.8548618464590616e+00 +5.3688816085815656e+00 -3.9885635141082290e+00 +1.5837665170551149e+03 -2.1156536392803202e+05 -1.2434131477626195e+07 
+1.9500000000000000e+00 -5.2277344947640980e-01 +6.8556586822592251e+00 +5.3478870619567900e+00 -3.6906305618929109e+00 +1.6375524011184298e+03 -2.1294294910844078e+05 -1.2689879250966659e+07 
+2.0000000000000000e+00 -5.2278796550439544e-01 +6.8564734477859117e+00 +5.3268326361693665e+00 -3.3726483499981352e+00 +1.6838999282210195e+03 -2.1440658197116555e+05 -1.2901552703858728e+07 
+2.0499999999999998e+00 -5.2280283596807819e-01 +6.8573060277750475e+00 +5.3057373257621716e+00 -3.0339125720629827e+00 +1.7224706711084737e+03 -2.1595936336818858e+05 -1.3067249671870314e+07 
+2.1000000000000001e+00 -5.2281805898479961e-01 +6.8581563041309170e+00 +5.2846016673836838e+00 -2.6751882697049374e+00 +1.7533567104053466e+03 -2.1759680496866818e+05 -1.3187541547188992e+07 
+2.1499999999999999e+00 -5.2283363243867775e-01 +6.8590241551070061e+00 +5.2634216805814633e+00 -2.2976127589951343e+00 +1.7767606666537408e+03 -2.1931254521434475e+05 -1.3263633737676788e+07 
+2.2000000000000002e+00 -5.2284955421388846e-01 +6.8599094589610985e+00 +5.2421933842267681e+00 -1.9023235036769457e+00 +1.7928851779236927e+03 -2.2110022142032190e+05 -1.3296731763368635e+07 
+2.2500000000000000e+00 -5.2286582219457167e-01 +6.8608120939478257e+00 +5.2209128016869144e+00 -1.4904578340274213e+00 +1.8019327652452453e+03 -2.2295347193909629e+05 -1.3288040370423283e+07 
+2.2999999999999998e+00 -5.2288243426487413e-01 +6.8617319383243771e+00 +5.1995759515287334e+00 -1.0631531591952659e+00 +1.8041060761772792e+03 -2.2486593451230446e+05 -1.3238765148779666e+07 
+2.3500000000000001e+00 -5.2289938830894400e-01 +6.8626688703475249e+00 +5.1781788548820025e+00 -6.2154685702056678e-01 +1.7996076903853686e+03 -2.2683124713991841e+05 -1.3150111234886710e+07 
+2.3999999999999999e+00 -5.2291668221099052e-01 +6.8636227682748450e+00 +5.1567175329579484e+00 -1.6677633354025131e-01 +1.7886401872822837e+03 -2.2884304755484971e+05 -1.3023283772344070e+07 
+2.4500000000000002e+00 -5.2293431385518241e-01 +6.8645935103637186e+00 +5.1351880068018882e+00 +3.0002102843045031e-01 +1.7714061499490033e+03 -2.3089497368469593e+05 -1.2859487925621238e+07 
+2.5000000000000000e+00 -5.2295228112576941e-01 +6.8655809748696726e+00 +5.1135862968048835e+00 +7.7770794494107875e-01 +1.7481081790410094e+03 -2.3298066431933537e+05 -1.2659928977811886e+07 
+2.5499999999999998e+00 -5.2297058190689460e-01 +6.8665850400533595e+00 +5.0919084243020478e+00 +1.2651469171406757e+00 +1.7189488555127293e+03 -2.3509375638313842e+05 -1.2425812101506077e+07 
+2.6000000000000001e+00 -5.2298921408285004e-01 +6.8676055841718604e+00 +5.0701504095576633e+00 +1.7612006126633932e+00 +1.6841307816379299e+03 -2.3722788824021115e+05 -1.2158342585961290e+07 
+2.6499999999999999e+00 -5.2300817553785139e-01 +6.8686424854851937e+00 +5.0483082744628947e+00 +2.2647315961275418e+00 +1.6438565245080881e+03 -2.3937669740483980e+05 -1.1858725513425790e+07 
+2.7000000000000002e+00 -5.2302746415615065e-01 +6.8696956222521175e+00 +5.0263780417348825e+00 +2.7746024817530976e+00 +1.5983286250506083e+03 -2.4153382175292121e+05 -1.1528165776513353e+07 
+2.7500000000000000e+00 -5.2304707782199300e-01 +6.8707648727303248e+00 +5.0043557308215254e+00 +3.2896759432952685e+00 +1.5477497174992588e+03 -2.4369289967332836e+05 -1.1167868917969663e+07 
+2.7999999999999998e+00 -5.2306701441961656e-01 +6.8718501151814424e+00 +4.9822373628248400e+00 +3.8088145050219273e+00 +1.4923223905338004e+03 -2.4584756832733148e+05 -1.0779040166764906e+07 
+2.8500000000000001e+00 -5.2308727183333603e-01 +6.8729512278658502e+00 +4.9600189622645869e+00 +4.3308807427663192e+00 +1.4322491422619805e+03 -2.4799146527752039e+05 -1.0362884150986986e+07 
+2.8999999999999999e+00 -5.2310784794742138e-01 +6.8740680890429511e+00 +4.9376965485538449e+00 +4.8547372888579901e+00 +1.3677326056142297e+03 -2.5011822857839006e+05 -9.9206063926225528e+06 
+2.9500000000000002e+00 -5.2312874064617698e-01 +6.8752005769735289e+00 +4.9152661453380064e+00 +5.3792467191521007e+00 +1.2989753079936349e+03 -2.5222149578342313e+05 -9.4534117377254628e+06 
+3.0000000000000000e+00 -5.2314994781389679e-01 +6.8763485699211824e+00 +4.8927237729590969e+00 +5.9032715064277248e+00 +1.2261798658885650e+03 -2.5429490362111619e+05 -8.9625056328566112e+06 
+3.0499999999999998e+00 -5.2317146733487019e-01 +6.8775119461447085e+00 +4.8700654544717734e+00 +6.4256743244924950e+00 +1.1495488178854926e+03 -2.5633209045882142e+05 -8.4490929792778958e+06 
+3.1000000000000001e+00 -5.2319329709344709e-01 +6.8786905839082264e+00 +4.8472872127867426e+00 +6.9453176340402125e+00 +1.0692847146747952e+03 -2.5832669291093526e+05 -7.9143787917016046e+06 
+3.1499999999999999e+00 -5.2321543497395417e-01 +6.8798843614731293e+00 +4.8243850697199573e+00 +7.4610640099229792e+00 +9.8559013821113274e+02 -2.6027234851977663e+05 -7.3595683017358948e+06 
+3.2000000000000002e+00 -5.2323787886073525e-01 +6.8810931571039964e+00 +4.8013550493139183e+00 +7.9717759067678724e+00 +8.9866760760955037e+02 -2.6216269385262561e+05 -6.7858663073238619e+06 
+3.2500000000000000e+00 -5.2326062663810768e-01 +6.8823168490623381e+00 +4.7781931736912657e+00 +8.4763159044988274e+00 +8.0871969923477832e+02 -2.6399136648444383e+05 -6.1944780127270119e+06 
+3.2999999999999998e+00 -5.2328367619044835e-01 +6.8835553156114475e+00 +4.7548954652967304e+00 +8.9735465133264967e+00 +7.1594898059387970e+02 -2.6575200342600176e+05 -5.5866085597209241e+06 
+3.3500000000000001e+00 -5.2330702540214813e-01 +6.8848084350176704e+00 +4.7314579480899290e+00 +9.4623301262615396e+00 +6.2055798240581544e+02 -2.6743824073989782e+05 -4.9634628600364383e+06 
+3.3999999999999999e+00 -5.2333067215753171e-01 +6.8860760855442944e+00 +4.7078766460274357e+00 +9.9415292556194821e+00 +5.2274923715421892e+02 -2.6904371541867097e+05 -4.3262458404111136e+06 
+3.4500000000000002e+00 -5.2335461434097363e-01 +6.8873581454563455e+00 +4.6841475821832690e+00 +1.0410006352999769e+01 +4.2272530062880566e+02 -2.7056206400355702e+05 -3.6761625813838439e+06 
+3.5000000000000000e+00 -5.2337884983688199e-01 +6.8886544930196925e+00 +4.6602667799819679e+00 +1.0866623827671701e+01 +3.2068872465665578e+02 -2.7198692264968983e+05 -3.0144181634928212e+06 
+3.5499999999999998e+00 -5.2340337652965763e-01 +6.8899650065005051e+00 +4.6362302644791669e+00 +1.1310244082811501e+01 +2.1684201976123424e+02 -2.7331192747584597e+05 -2.3422173903070432e+06 
+3.6000000000000001e+00 -5.2342819230369653e-01 +6.8912895641634702e+00 +4.6120340594199911e+00 +1.1739729582198544e+01 +1.1138773048004560e+02 -2.7453071509845747e+05 -1.6607652945541325e+06 
+3.6499999999999999e+00 -5.2345329504340454e-01 +6.8926280442768713e+00 +4.5876741887500225e+00 +1.2153942635145462e+01 +4.5284018656573037e+00 -2.7563692083563271e+05 -9.7126693181774067e+05 
+3.6999999999999900e+00 -5.2347868263318176e-01 +6.8939803251081972e+00 +4.5631466794787681e+00 +1.2551745591293278e+01 -1.0353350584010393e+02 -2.7662418036760233e+05 -2.7492677768182376e+05 
+3.7499999999999898e+00 -5.2350435295748121e-01 +6.8953462849241278e+00 +4.5384475525499264e+00 +1.2932000827573257e+01 -2.1259535644088709e+02 -2.7748612959075999e+05 +4.2704946039713349e+05 
+3.7999999999999901e+00 -5.2353030390070343e-01 +6.8967258019940694e+00 +4.5135728376947410e+00 +1.3293570602824305e+01 -3.2245475888865280e+02 -2.7821640339663718e+05 +1.1334577594521160e+06 
+3.8499999999999899e+00 -5.2355653334731611e-01 +6.8981187545848313e+00 +4.4885185572463850e+00 +1.3635317283892478e+01 -4.3290911374811901e+02 -2.7880863759233797e+05 +1.8430926563830208e+06 
+3.8999999999999901e+00 -5.2358303918169602e-01 +6.8995250209665073e+00 +4.4632807387578461e+00 +1.3956103104300475e+01 -5.4375596050158788e+02 -2.7925646688880312e+05 +2.5547496224160171e+06 
+3.9499999999999900e+00 -5.2360981928835060e-01 +6.9009444794090653e+00 +4.4378554056745179e+00 +1.4254790281525516e+01 -6.5479272607073574e+02 -2.7955352581669419e+05 +3.2672233608110300e+06 
+3.9999999999999898e+00 -5.2363687155169447e-01 +6.9023770081820457e+00 +4.4122385864145102e+00 +1.4530241074366335e+01 -7.6581696689360808e+02 -2.7969344928409840e+05 +3.9793094381137462e+06 
+4.0499999999999901e+00 -5.2366419372793771e-01 +6.9038224710445970e+00 +4.3864270384456736e+00 +1.4781650301975017e+01 -8.7664223635956648e+02 -2.7967193039955135e+05 +4.6898989248614442e+06 
+4.0999999999999899e+00 -5.2369178305955688e-01 +6.9052806663681841e+00 +4.3604211755620828e+00 +1.5009545371842913e+01 -9.8716144822071180e+02 -2.7949290604480827e+05 +5.3983581268311748e+06 
+4.1499999999999897e+00 -5.2371963666061649e-01 +6.9067513743134095e+00 +4.3342225386284667e+00 +1.5214787142641233e+01 -1.0972913134912931e+03 -2.7916237651270226e+05 +6.1041962284957161e+06 
+4.1999999999999904e+00 -5.2374775164511467e-01 +6.9082343750442421e+00 +4.3078326645890792e+00 +1.5398236313382275e+01 -1.2069484284793493e+03 -2.7868634081476904e+05 +6.8069216147988113e+06 
+4.2499999999999902e+00 -5.2377612512714300e-01 +6.9097294487210190e+00 +4.2812530941712428e+00 +1.5560753721455690e+01 -1.3160494984622655e+03 -2.7807079909880244e+05 +7.5060434330351101e+06 
+4.2999999999999901e+00 -5.2380475422066408e-01 +6.9112363755053803e+00 +4.2544853629493335e+00 +1.5703200152667419e+01 -1.4245110882059737e+03 -2.7732175111872499e+05 +8.2010698742044773e+06 
+4.3499999999999899e+00 -5.2383363603973632e-01 +6.9127549355619324e+00 +4.2275310098371230e+00 +1.5826436261480067e+01 -1.5322498532434909e+03 -2.7644519556538423e+05 +8.8915097496640496e+06 
+4.3999999999999897e+00 -5.2386276769840046e-01 +6.9142849090500667e+00 +4.2003915751957104e+00 +1.5931322896401438e+01 -1.6391824873166229e+03 -2.7544713267460867e+05 +9.5768721226131991e+06 
+4.4499999999999904e+00 -5.2389214631063807e-01 +6.9158260761332535e+00 +4.1730685939096093e+00 +1.6018720739162294e+01 -1.7452255416422390e+03 -2.7433356136251509e+05 +1.0256665114724519e+07 
+4.4999999999999902e+00 -5.2392176899051035e-01 +6.9173782169719873e+00 +4.1455636055227609e+00 +1.6089490579595225e+01 -1.8502956891377239e+03 -2.7311048142188886e+05 +1.0930397656183194e+07 
+4.5499999999999901e+00 -5.2395163285204449e-01 +6.9189411117304358e+00 +4.1178781487357199e+00 +1.6144493037890950e+01 -1.9543095828376149e+03 -2.7178389123270963e+05 +1.1597578552433366e+07 
+4.5999999999999899e+00 -5.2398173500927869e-01 +6.9205145405698527e+00 +4.0900137596582553e+00 +1.6184588853311691e+01 -2.0571838072797868e+03 -2.7035979020091787e+05 +1.2257716154827038e+07 
+4.6499999999999897e+00 -5.2401207257615412e-01 +6.9220982836523435e+00 +4.0619719755962809e+00 +1.6210638714684297e+01 -2.1588349781047859e+03 -2.6884417729015084e+05 +1.2910319017512795e+07 
+4.6999999999999904e+00 -5.2404264266676648e-01 +6.9236921211389673e+00 +4.0337543346630573e+00 +1.6223503336043127e+01 -2.2591797362221623e+03 -2.6724305168933526e+05 +1.3554895882946173e+07 
+4.7499999999999902e+00 -5.2407344239506992e-01 +6.9252958331943919e+00 +4.0053623725530318e+00 +1.6224043274863092e+01 -2.3581346555995565e+03 -2.6556241130234016e+05 +1.4190955032951375e+07 
+4.7999999999999901e+00 -5.2410446887512807e-01 +6.9269091999781258e+00 +3.9767976270438372e+00 +1.6213119281534993e+01 -2.4556163679977089e+03 -2.6380825561900472e+05 +1.4818005147268550e+07 
+4.8499999999999899e+00 -5.2413571922087265e-01 +6.9285320016555518e+00 +3.9480616355316904e+00 +1.6191591856944992e+01 -2.5515414987933545e+03 -2.6198658208937079e+05 +1.5435554878380395e+07 
+4.8999999999999897e+00 -5.2416719054638305e-01 +6.9301640183855646e+00 +3.9191559352345799e+00 +1.6160321742387755e+01 -2.6458266682203421e+03 -2.6010339013094682e+05 +1.6043112843604824e+07 
+4.9499999999999904e+00 -5.2419887996560910e-01 +6.9318050303308043e+00 +3.8900820584862790e+00 +1.6120169519516729e+01 -2.7383883611003703e+03 -2.5816467787249060e+05 +1.6640186731221160e+07 
+4.9999999999999902e+00 -5.2423078459253869e-01 +6.9334548176535122e+00 +3.8608415454978666e+00 +1.6071995767967490e+01 -2.8291432821267995e+03 -2.5617644342540178e+05 +1.7226285745284930e+07 
+5.0499999999999901e+00 -5.2426290154338984e-01 +6.9351131522784160e+00 +3.8314363556258511e+00 +1.6016652278569573e+01 -2.9180079578346435e+03 -2.5414468244182516e+05 +1.7800918294269469e+07 
