# multipoles
# s[mm] polynom_b[n=0][T/m^n] polynom_b[n=1][T/m^n] polynom_b[n=2][T/m^n] polynom_b[n=3][T/m^n] polynom_b[n=4][T/m^n] polynom_b[n=5][T/m^n] polynom_b[n=6][T/m^n] 
+0.0000000000000000e+00 -5.5271709750739606e-01 +7.2405551739112513e+00 +6.2590577447414573e+00 +1.7565267842653668e+01 -2.4010079984182416e+04 -5.5838737029944686e+05 +1.3839767344245273e+08 
+5.0000000000000003e-02 -5.5271554233771947e-01 +7.2404280648583272e+00 +6.2651221197910161e+00 +1.7017672802427111e+01 -2.4065256146105541e+04 -5.5444928078270645e+05 +1.3872752336814064e+08 
+1.0000000000000001e-01 -5.5271435233056521e-01 +7.2403198730087555e+00 +6.2706977356113054e+00 +1.6483509645307077e+01 -2.4119970343350247e+04 -5.5052937412035535e+05 +1.3905520567123851e+08 
+1.5000000000000002e-01 -5.5271352703003651e-01 +7.2402305842098471e+00 +6.2757829673463679e+00 +1.5962749213740491e+01 -2.4174166748894560e+04 -5.4662912560593861e+05 +1.3938046972035286e+08 
+2.0000000000000001e-01 -5.5271306598025749e-01 +7.2401601843123080e+00 +6.2803761909967095e+00 +1.5455362226077648e+01 -2.4227789557223128e+04 -5.4275000945536245e+05 +1.3970306501749387e+08 
+2.5000000000000000e-01 -5.5271296872534037e-01 +7.2401086591654797e+00 +6.2844757777817000e+00 +1.4961319497511521e+01 -2.4280782841530323e+04 -5.3889350073110976e+05 +1.4002274027707985e+08 
+2.9999999999999999e-01 -5.5271323480943757e-01 +7.2400759946193558e+00 +6.2880801021882462e+00 +1.4480591841248954e+01 -2.4333090752661235e+04 -5.3506107446505700e+05 +1.4033924469377121e+08 
+3.4999999999999998e-01 -5.5271386377670895e-01 +7.2400621765269735e+00 +6.2911875381335838e+00 +1.4013149977517791e+01 -2.4384657435691275e+04 -5.3125420494841645e+05 +1.4065232745775366e+08 
+3.9999999999999997e-01 -5.5271485517134522e-01 +7.2400671907387402e+00 +6.2937964615476254e+00 +1.3558964758908241e+01 -2.4435427087632343e+04 -5.2747436754001537e+05 +1.4096173810072991e+08 
+4.4999999999999996e-01 -5.5271620853752446e-01 +7.2400910231080724e+00 +6.2959052432694333e+00 +1.3118006944046900e+01 -2.4485343768411702e+04 -5.2372303683940595e+05 +1.4126722522669768e+08 
+4.9999999999999994e-01 -5.5271792341946524e-01 +7.2401336594878023e+00 +6.2975122585795154e+00 +1.2690247350064244e+01 -2.4534351659435590e+04 -5.2000168795954040e+05 +1.4156853826412854e+08 
+5.4999999999999993e-01 -5.5271999936139060e-01 +7.2401950857356434e+00 +6.2986158804897876e+00 +1.2275656615381768e+01 -2.4582394881075354e+04 -5.1631179451665282e+05 +1.4186542622973660e+08 
+5.9999999999999998e-01 -5.5272243590755787e-01 +7.2402752877034011e+00 +6.2992144851870711e+00 +1.1874205655076318e+01 -2.4629417639596504e+04 -5.1265483244004752e+05 +1.4215763871987304e+08 
+6.5000000000000002e-01 -5.5272523260220219e-01 +7.2403742512502571e+00 +6.2993064420854896e+00 +1.1485865106487658e+01 -2.4675363959397691e+04 -5.0903227536707610e+05 +1.4244492410317120e+08 
+7.0000000000000007e-01 -5.5272838898961762e-01 +7.2404919622303288e+00 +6.2988901279550138e+00 +1.1110605846294417e+01 -2.4720178062561874e+04 -5.0544559891870746e+05 +1.4272703208112705e+08 
+7.5000000000000011e-01 -5.5273190461409116e-01 +7.2406284065021609e+00 +6.2979639158856804e+00 +1.0748398593596452e+01 -2.4763804076299926e+04 -5.0189627742630994e+05 +1.4300371172852421e+08 
+8.0000000000000016e-01 -5.5273577901993121e-01 +7.2407835699250196e+00 +6.2965261792075751e+00 +1.0399214072499168e+01 -2.4806186129370162e+04 -4.9838578528121155e+05 +1.4327471211208138e+08 
+8.5000000000000020e-01 -5.5274001175145304e-01 +7.2409574383587376e+00 +6.2945752900813448e+00 +1.0063023003081517e+01 -2.4847268324115663e+04 -4.9491559683587891e+05 +1.4353978213913503e+08 
+9.0000000000000024e-01 -5.5274460235301037e-01 +7.2411499976619105e+00 +6.2921096243855414e+00 +9.7397961882019803e+00 -2.4886994859588540e+04 -4.9148718714133947e+05 +1.4379867135235289e+08 
+9.5000000000000029e-01 -5.5274955036895179e-01 +7.2413612336950131e+00 +6.2891275544153666e+00 +9.4295043932109017e+00 -2.4925309843508152e+04 -4.8810203099780105e+05 +1.4405112870144823e+08 
+1.0000000000000002e+00 -5.5275485534364244e-01 +7.2415911323229105e+00 +6.2856274521884163e+00 +9.1321182059047405e+00 -2.4962157371781286e+04 -4.8476160165699956e+05 +1.4429690303790179e+08 
+1.0500000000000003e+00 -5.5276051682148652e-01 +7.2418396794064632e+00 +6.2816076939733509e+00 +8.8476084299483091e+00 -2.4997481657924520e+04 -4.8146737426225044e+05 +1.4453574401692671e+08 
+1.1000000000000003e+00 -5.5276653434687606e-01 +7.2421068608059631e+00 +6.2770666509464590e+00 +8.5759459064856802e+00 -2.5031226775429484e+04 -4.7822082421927189e+05 +1.4476740033701172e+08 
+1.1500000000000004e+00 -5.5277290746422991e-01 +7.2423926623904897e+00 +6.2720026962714099e+00 +8.3171011483318704e+00 -2.5063336857759063e+04 -4.7502342426409386e+05 +1.4499162113002256e+08 
+1.2000000000000004e+00 -5.5277963571798761e-01 +7.2426970700237119e+00 +6.2664142039443309e+00 +8.0710449187202453e+00 -2.5093756056950369e+04 -4.7187664922012185e+05 +1.4520815563275462e+08 
+1.2500000000000004e+00 -5.5278671865260132e-01 +7.2430200695711324e+00 +6.2602995471038767e+00 +7.8377479323927544e+00 -2.5122428500580958e+04 -4.6878197351644805e+05 +1.4541675291385174e+08 
+1.3000000000000005e+00 -5.5279415581253666e-01 +7.2433616469002908e+00 +6.2536570986108861e+00 +7.6171808374756740e+00 -2.5149298312823179e+04 -4.6574087101504195e+05 +1.4561716203562069e+08 
+1.3500000000000005e+00 -5.5280194674227978e-01 +7.2437217878764750e+00 +6.2464852320064566e+00 +7.4093144272548654e+00 -2.5174309634450288e+04 -4.6275481689078320e+05 +1.4580913216486102e+08 
+1.4000000000000006e+00 -5.5281009098632661e-01 +7.2441004783707639e+00 +6.2387823196636916e+00 +7.2141192518762933e+00 -2.5197406574372610e+04 -4.5982528420336329e+05 +1.4599241225189057e+08 
+1.4500000000000006e+00 -5.5281858808918982e-01 +7.2444977042511223e+00 +6.2305467342360208e+00 +7.0315660389971395e+00 -2.5218533250798246e+04 -4.5695374757832516e+05 +1.4616675131712756e+08 
+1.5000000000000007e+00 -5.5282743759540409e-01 +7.2449134513887472e+00 +6.2217768494285872e+00 +6.8616254011615689e+00 -2.5237633810706575e+04 -4.5414168068225996e+05 +1.4633189857653013e+08 
+1.5500000000000007e+00 -5.5283663904951830e-01 +7.2453477056540283e+00 +6.2124710385247903e+00 +6.7042680154583998e+00 -2.5254652388312665e+04 -4.5139055775303795e+05 +1.4648760315496328e+08 
+1.6000000000000008e+00 -5.5284619199608720e-01 +7.2458004529190445e+00 +6.2026276729579068e+00 +6.5594645135304779e+00 -2.5269533069161502e+04 -4.4870185265280755e+05 +1.4663361385591742e+08 
+1.6500000000000008e+00 -5.5285609597968755e-01 +7.2462716790571271e+00 +6.1922451254364201e+00 +6.4271855007151579e+00 -2.5282219972677038e+04 -4.4607703904616582e+05 +1.4676967970671988e+08 
+1.7000000000000008e+00 -5.5286635054492350e-01 +7.2467613699419493e+00 +6.1813217703944883e+00 +6.3074015984117047e+00 -2.5292657265607424e+04 -4.4351759077136964e+05 +1.4689555006204510e+08 
+1.7500000000000009e+00 -5.5287695523639957e-01 +7.2472695114467580e+00 +6.1698559799089274e+00 +6.2000834674261691e+00 -2.5300789051168504e+04 -4.4102498198368726e+05 +1.4701097384440869e+08 
+1.8000000000000009e+00 -5.5288790959873257e-01 +7.2477960894479194e+00 +6.1578461250723091e+00 +6.1052016734977297e+00 -2.5306559406524921e+04 -4.3860068610933982e+05 +1.4711569980783466e+08 
+1.8500000000000010e+00 -5.5289921317657387e-01 +7.2483410898224268e+00 +6.1452905802603448e+00 +6.0227267722917626e+00 -2.5309912494035685e+04 -4.3624617648028635e+05 +1.4720947726484275e+08 
+1.9000000000000010e+00 -5.5291086551456925e-01 +7.2489044984476658e+00 +6.1321877162380272e+00 +5.9526293405590947e+00 -2.5310792384137050e+04 -4.3396292665465490e+05 +1.4729205493448758e+08 
+1.9500000000000011e+00 -5.5292286615739583e-01 +7.2494863012018254e+00 +6.1185359064603180e+00 +5.8948799368981994e+00 -2.5309143215384822e+04 -4.3175241002935381e+05 +1.4736318197535431e+08 
+2.0000000000000009e+00 -5.5293521464974504e-01 +7.2500864839614803e+00 +6.1043335238995242e+00 +5.8494492267852243e+00 -2.5304909114473994e+04 -4.2961610095785232e+05 +1.4742260747547433e+08 
+2.0500000000000007e+00 -5.5294791032064305e-01 +7.2507050169300271e+00 +6.0895808545177328e+00 +5.8162425792645411e+00 -2.5298057489401166e+04 -4.2755483733121061e+05 +1.4747016550980803e+08 
+2.1000000000000005e+00 -5.5296095163661541e-01 +7.2513418016471061e+00 +6.0742863107778495e+00 +5.7948706100001210e+00 -2.5288648060563555e+04 -4.2556667906416755e+05 +1.4750601954405141e+08 
+2.1500000000000004e+00 -5.5297433684858710e-01 +7.2519967210043577e+00 +6.0584604599252643e+00 +5.7848605512921640e+00 -2.5276763226480925e+04 -4.2364892905408930e+05 +1.4753041143679786e+08 
+2.2000000000000002e+00 -5.5298806420749047e-01 +7.2526696578961607e+00 +6.0421138678478421e+00 +5.7857395254377524e+00 -2.5262485347246977e+04 -4.2179888925630378e+05 +1.4754358278671414e+08 
+2.2500000000000000e+00 -5.5300213196429215e-01 +7.2533604952143254e+00 +6.0252571046531944e+00 +5.7970347879668003e+00 -2.5245896899530388e+04 -4.2001386275955185e+05 +1.4754577598902509e+08 
+2.2999999999999998e+00 -5.5301653836995668e-01 +7.2540691158527331e+00 +6.0079007375026956e+00 +5.8182735117122970e+00 -2.5227080277102603e+04 -4.1829115192007617e+05 +1.4753723286586890e+08 
+2.3499999999999996e+00 -5.5303128167545168e-01 +7.2547954027051009e+00 +5.9900553324063601e+00 +5.8489828947712654e+00 -2.5206117846700072e+04 -4.1662805929623329e+05 +1.4751819507266188e+08 
+2.3999999999999995e+00 -5.5304636013177588e-01 +7.2555392386672999e+00 +5.9717314578277163e+00 +5.8886900555247372e+00 -2.5183092033679924e+04 -4.1502188675896043e+05 +1.4748890463290185e+08 
+2.4499999999999993e+00 -5.5306177198993578e-01 +7.2563005066304633e+00 +5.9529396826969316e+00 +5.9369223174329058e+00 -2.5158085287275702e+04 -4.1346993784697878e+05 +1.4744960377486846e+08 
+2.4999999999999991e+00 -5.5307751550093542e-01 +7.2570790894898707e+00 +5.9336905719689987e+00 +5.9932068554596141e+00 -2.5131179933895375e+04 -4.1196951488753705e+05 +1.4740053383710077e+08 
+2.5499999999999989e+00 -5.5309358891581373e-01 +7.2578748701407783e+00 +5.9139946957865366e+00 +6.0570708327206564e+00 -2.5102458451679944e+04 -4.1051791999610601e+05 +1.4734193722861037e+08 
+2.5999999999999988e+00 -5.5310999048559861e-01 +7.2586877314773162e+00 +5.8938626198453274e+00 +6.1280414929379443e+00 -2.5072003193908684e+04 -4.0911245603309176e+05 +1.4727405549826944e+08 
+2.6499999999999986e+00 -5.5312671846135419e-01 +7.2595175563939147e+00 +5.8733049144840894e+00 +6.2056460608860604e+00 -2.5039896640495637e+04 -4.0775042560126469e+05 +1.4719713105418289e+08 
+2.6999999999999984e+00 -5.5314377109412405e-01 +7.2603642277833451e+00 +5.8523321439998659e+00 +6.2894118371471803e+00 -2.5006221103978929e+04 -4.0642913190310920e+05 +1.4711140515850472e+08 
+2.7499999999999982e+00 -5.5316114663500537e-01 +7.2612276285437654e+00 +5.8309548807418468e+00 +6.3788659152665037e+00 -2.4971059118737874e+04 -4.0514587643113226e+05 +1.4701712058908385e+08 
+2.7999999999999980e+00 -5.5317884333505007e-01 +7.2621076415666694e+00 +5.8091836868090949e+00 +6.4735356686516106e+00 -2.4934492939391184e+04 -4.0389796294328757e+05 +1.4691451822404841e+08 
+2.8499999999999979e+00 -5.5319685944538155e-01 +7.2630041497491806e+00 +5.7870291349916148e+00 +6.5729482375502313e+00 -2.4896605107001829e+04 -4.0268269321466930e+05 +1.4680384086780885e+08 
+2.8999999999999977e+00 -5.5321519321708734e-01 +7.2639170359829057e+00 +5.7645017902211242e+00 +6.6766309995972533e+00 -2.4857477953478716e+04 -4.0149737095931335e+05 +1.4668532992250267e+08 
+2.9499999999999975e+00 -5.5323384290128974e-01 +7.2648461831643516e+00 +5.7416122213216809e+00 +6.7841111395742635e+00 -2.4817193912195504e+04 -4.0033929827962635e+05 +1.4655922746577781e+08 
+2.9999999999999973e+00 -5.5325280674912192e-01 +7.2657914741868410e+00 +5.7183709975099069e+00 +6.8949159656944499e+00 -2.4775835428468577e+04 -3.9920577820542583e+05 +1.4642577565964857e+08 
+3.0499999999999972e+00 -5.5327208301171060e-01 +7.2667527919440476e+00 +5.6947886852080281e+00 +7.0085727761379895e+00 -2.4733484872195459e+04 -3.9809411365571700e+05 +1.4628521615661448e+08 
+3.0999999999999970e+00 -5.5329166994020840e-01 +7.2677300193323289e+00 +5.6708758535415509e+00 +7.1246087761442576e+00 -2.4690224683076674e+04 -3.9700160679311282e+05 +1.4613779106905982e+08 
+3.1499999999999968e+00 -5.5331156578576923e-01 +7.2687230392416557e+00 +5.6466430699558741e+00 +7.2425514156704072e+00 -2.4646137256259783e+04 -3.9592556166983239e+05 +1.4598374221555501e+08 
+3.1999999999999966e+00 -5.5333176879955381e-01 +7.2697317345674444e+00 +5.6221009017718959e+00 +7.3619279355583229e+00 -2.4601304982747435e+04 -3.9486328063559195e+05 +1.4582331138029411e+08 
+3.2499999999999964e+00 -5.5335227723275227e-01 +7.2707559882033612e+00 +5.5972599196974651e+00 +7.4822656415144317e+00 -2.4555810343120178e+04 -3.9381206647977233e+05 +1.4565674094709820e+08 
+3.2999999999999963e+00 -5.5337308933653817e-01 +7.2717956830407502e+00 +5.5721306899478007e+00 +7.6030919392799881e+00 -2.4509735698605324e+04 -3.9276922279649443e+05 +1.4548427250379279e+08 
+3.3499999999999961e+00 -5.5339420336210865e-01 +7.2728507019726871e+00 +5.5467237812551788e+00 +7.7239341520060112e+00 -2.4463163474043584e+04 -3.9173205240350997e+05 +1.4530614804953381e+08 
+3.3999999999999959e+00 -5.5341561756066882e-01 +7.2739209278903587e+00 +5.5210497625377641e+00 +7.8443196927407968e+00 -2.4416176103200298e+04 -3.9069785885554255e+05 +1.4512260966065860e+08 
+3.4499999999999957e+00 -5.5343733018342756e-01 +7.2750062436885257e+00 +5.4951192014314838e+00 +7.9637758131529441e+00 -2.4368855979453499e+04 -3.8966394428614568e+05 +1.4493389911908153e+08 
+3.4999999999999956e+00 -5.5345933948161574e-01 +7.2761065322540501e+00 +5.4689426681706079e+00 +8.0818300882556287e+00 -2.4321285567084695e+04 -3.8862761343033146e+05 +1.4474025868846244e+08 
+3.5499999999999954e+00 -5.5348164370645514e-01 +7.2772216764801474e+00 +5.4425307299357293e+00 +8.1980098385745794e+00 -2.4273547248199611e+04 -3.8758616891425441e+05 +1.4454193008066216e+08 
+3.5999999999999952e+00 -5.5350424110918439e-01 +7.2783515592585557e+00 +5.4158939554305441e+00 +8.3118424233252082e+00 -2.4225723444117244e+04 -3.8653691355237656e+05 +1.4433915526536521e+08 
+3.6499999999999950e+00 -5.5352712994105646e-01 +7.2794960634767936e+00 +5.3890429147029906e+00 +8.4228553895291043e+00 -2.4177896612953333e+04 -3.8547715172821796e+05 +1.4413217646348280e+08 
+3.6999999999999948e+00 -5.5355030845331910e-01 +7.2806550720244525e+00 +5.3619881753927370e+00 +8.5305761684671335e+00 -2.4130149145780975e+04 -3.8440418670038378e+05 +1.4392123543486503e+08 
+3.7499999999999947e+00 -5.5357377489724413e-01 +7.2818284677904028e+00 +5.3347403077035009e+00 +8.6345322398112838e+00 -2.4082563500252079e+04 -3.8331532216318359e+05 +1.4370657438454348e+08 
+3.7999999999999945e+00 -5.5359752752409519e-01 +7.2830161336632022e+00 +5.3073098796972076e+00 +8.7342510664064186e+00 -2.4035222077473987e+04 -3.8220786152843107e+05 +1.4348843513486844e+08 
+3.8499999999999943e+00 -5.5362156458515355e-01 +7.2842179525300574e+00 +5.2797074610942092e+00 +8.8292601757913296e+00 -2.3988207323191305e+04 -3.8107910871796776e+05 +1.4326705981435773e+08 
+3.8999999999999941e+00 -5.5364588433169937e-01 +7.2854338072769531e+00 +5.2519436199549308e+00 +8.9190871260192299e+00 -2.3941601632672948e+04 -3.7992636781471665e+05 +1.4304269018760929e+08 
+3.9499999999999940e+00 -5.5367048501503113e-01 +7.2866635807916715e+00 +5.2240289265244551e+00 +9.0032593955402707e+00 -2.3895487463119563e+04 -3.7874694216782879e+05 +1.4281556845196497e+08 
+3.9999999999999938e+00 -5.5369536488645577e-01 +7.2879071559597444e+00 +5.1959739518098038e+00 +9.0813045468401992e+00 -2.3849947292733897e+04 -3.7753813573187758e+05 +1.4258593695100144e+08 
+4.0499999999999936e+00 -5.5372052205725097e-01 +7.2891644016751345e+00 +5.1677886025157020e+00 +9.1529311353696681e+00 -2.3805065475019910e+04 -3.7629826669356646e+05 +1.4235412306762388e+08 
+4.0999999999999934e+00 -5.5374595407855143e-01 +7.2904351229793889e+00 +5.1394809253836993e+00 +9.2186401233515749e+00 -2.3760943922831273e+04 -3.7503036381356511e+05 +1.4212085240888926e+08 
+4.1499999999999932e+00 -5.5377165836138398e-01 +7.2917191069538845e+00 +5.1110587143798796e+00 +9.2791467736416973e+00 -2.3717691318438967e+04 -3.7373879865633056e+05 +1.4188696439493382e+08 
+4.1999999999999931e+00 -5.5379763231678480e-01 +7.2930161406765270e+00 +5.0825297643085356e+00 +9.3351664951719435e+00 -2.3675416360492145e+04 -3.7242794414598693e+05 +1.4165329854078704e+08 
+4.2499999999999929e+00 -5.5382387335580918e-01 +7.2943260112268655e+00 +5.0539018729831389e+00 +9.3874146181892755e+00 -2.3634227832796525e+04 -3.7110217251881299e+05 +1.4142069495484129e+08 
+4.2999999999999927e+00 -5.5385037888949629e-01 +7.2956485056840013e+00 +5.0251828352725001e+00 +9.4366064950405821e+00 -2.3594234441946752e+04 -3.6976585624344775e+05 +1.4118999323012397e+08 
+4.3499999999999925e+00 -5.5387714632889440e-01 +7.2969834111273855e+00 +4.9963804471437383e+00 +9.4834574638710194e+00 -2.3555544923491387e+04 -3.6842336769763241e+05 +1.4096203315445518e+08 
+4.3999999999999924e+00 -5.5390417308504092e-01 +7.2983305146333315e+00 +4.9675025024873785e+00 +9.5286829850487944e+00 -2.3518267958756482e+04 -3.6707908025978517e+05 +1.4073765415368080e+08 
+4.4499999999999922e+00 -5.5393145656898191e-01 +7.2996896032828138e+00 +4.9385567968763784e+00 +9.5729983289578975e+00 -2.3482512279535662e+04 -3.6573736578813568e+05 +1.4051769601701593e+08 
+4.4999999999999920e+00 -5.5395899419177053e-01 +7.3010604641501793e+00 +4.9095511264093510e+00 +9.6171190355880931e+00 -2.3448386626333504e+04 -3.6440259838742710e+05 +1.4030299856816265e+08 
+4.5499999999999918e+00 -5.5398678336445661e-01 +7.3024428843128497e+00 +4.8804932868335982e+00 +9.6617605116137124e+00 -2.3415999738414313e+04 -3.6307915106292709e+05 +1.4009440165936357e+08 
+4.5999999999999917e+00 -5.5401482149807102e-01 +7.3038366508501538e+00 +4.8513910706605881e+00 +9.7076380848170789e+00 -2.3385460267253475e+04 -3.6177139621731878e+05 +1.3989274454342094e+08 
+4.6499999999999915e+00 -5.5404310600366691e-01 +7.3052415508349187e+00 +4.8222522739719080e+00 +9.7554673465243038e+00 -2.3356876959673493e+04 -3.6048370845103287e+05 +1.3969886711482102e+08 
+4.6999999999999913e+00 -5.5407163429228079e-01 +7.3066573713433129e+00 +4.7930846903145321e+00 +9.8059637456154984e+00 -2.3330358499517599e+04 -3.5922046120676358e+05 +1.3951360886415836e+08 
+4.7499999999999911e+00 -5.5410040377496195e-01 +7.3080838994509607e+00 +4.7638961155008248e+00 +9.8598427470624532e+00 -2.3306013631239784e+04 -3.5798602808844519e+05 +1.3933780968726191e+08 
+4.7999999999999909e+00 -5.5412941186274645e-01 +7.3095209222332853e+00 +4.7346943432344570e+00 +9.9178198297935225e+00 -2.3283951046785547e+04 -3.5678478289189941e+05 +1.3917230914517424e+08 
+4.8499999999999908e+00 -5.5415865596667224e-01 +7.3109682267642251e+00 +4.7054871677055488e+00 +9.9806105102451372e+00 -2.3264279450401857e+04 -3.5562109966376727e+05 +1.3901794687612593e+08 
+4.8999999999999906e+00 -5.5418813349776697e-01 +7.3124256001153656e+00 +4.6762823813406884e+00 +1.0048930415645007e+01 -2.3247107499922360e+04 -3.5449935349246528e+05 +1.3887556221109882e+08 
+4.9499999999999904e+00 -5.5421784186706746e-01 +7.3138928293610403e+00 +4.6470877790652816e+00 +1.0123495034978943e+01 -2.3232543928567138e+04 -3.5342391827469697e+05 +1.3874599502034277e+08 
+4.9999999999999902e+00 -5.5424777848560103e-01 +7.3153697015744594e+00 +4.6179111538956965e+00 +1.0205019920552830e+01 -2.3220697410814959e+04 -3.5239916855833377e+05 +1.3863008474724460e+08 
+5.0499999999999901e+00 -5.5427794076441106e-01 +7.3168560038257029e+00 +4.5887603024837089e+00 +1.0294220725779335e+01 -2.3211676730127881e+04 -3.5142947967901098e+05 +1.3852867161826724e+08 
