# field on trajectory
# s[mm] rx[mm] ry[mm] rz[mm] bx[T] by[T] bz[T]
0.0000000000000000e+00 +8.5389999999999997e+00 +0.0000000000000000e+00 +0.0000000000000000e+00 -2.9017270310511434e-02 -5.5461167448896653e-01 +5.4760354322882379e-03
5.0000000000000003e-02 +8.5389999307981803e+00 +0.0000000000000000e+00 +4.9999999999936137e-02 -2.9017396076643096e-02 -5.5461171149551136e-01 +5.4771557037563753e-03
1.0000000000000001e-01 +8.5389997231927026e+00 +0.0000000000000000e+00 +9.9999999999489164e-02 -2.9017534956777641e-02 -5.5461210649681048e-01 +5.4782833358792199e-03
1.5000000000000002e-01 +8.5389993771834671e+00 +0.0000000000000000e+00 +1.4999999999827598e-01 -2.9017686985576076e-02 -5.5461285880697320e-01 +5.4794182598204419e-03
2.0000000000000001e-01 +8.5389988927702873e+00 +0.0000000000000000e+00 +1.9999999999591347e-01 -2.9017852197700200e-02 -5.5461396774012439e-01 +5.4805604067440167e-03
2.5000000000000000e-01 +8.5389982699528861e+00 +0.0000000000000000e+00 +2.4999999999201850e-01 -2.9018030627812687e-02 -5.5461543261040569e-01 +5.4817097078142130e-03
2.9999999999999999e-01 +8.5389975087308976e+00 +0.0000000000000000e+00 +2.9999999998620797e-01 -2.9018222310576915e-02 -5.5461725273197404e-01 +5.4828660941955779e-03
3.4999999999999998e-01 +8.5389966091038669e+00 +0.0000000000000000e+00 +3.4999999997809872e-01 -2.9018427280657028e-02 -5.5461942741900305e-01 +5.4840294970529505e-03
3.9999999999999997e-01 +8.5389955710712524e+00 +0.0000000000000000e+00 +3.9999999996730762e-01 -2.9018645572717806e-02 -5.5462195598568143e-01 +5.4851998475514427e-03
4.4999999999999996e-01 +8.5389943946324234e+00 +0.0000000000000000e+00 +4.4999999995345158e-01 -2.9018877221424742e-02 -5.5462483774621507e-01 +5.4863770768564454e-03
4.9999999999999994e-01 +8.5389930797866604e+00 +0.0000000000000000e+00 +4.9999999993614741e-01 -2.9019122261443837e-02 -5.5462807201482534e-01 +5.4875611161336125e-03
5.4999999999999993e-01 +8.5389916265331554e+00 +0.0000000000000000e+00 +5.4999999991501203e-01 -2.9019380727441736e-02 -5.5463165810574977e-01 +5.4887518965488630e-03
5.9999999999999998e-01 +8.5389900348710146e+00 +0.0000000000000000e+00 +5.9999999988966213e-01 -2.9019652654085556e-02 -5.5463559533324203e-01 +5.4899493492683747e-03
6.5000000000000002e-01 +8.5389883047992559e+00 +0.0000000000000000e+00 +6.4999999985971468e-01 -2.9019938076042886e-02 -5.5463988301157208e-01 +5.4911534054585837e-03
7.0000000000000007e-01 +8.5389864363168080e+00 +0.0000000000000000e+00 +6.9999999982478645e-01 -2.9020237027981767e-02 -5.5464452045502621e-01 +5.4923639962861683e-03
7.5000000000000011e-01 +8.5389844294225146e+00 +0.0000000000000000e+00 +7.4999999978449428e-01 -2.9020549544570649e-02 -5.5464950697790649e-01 +5.4935810529180519e-03
8.0000000000000016e-01 +8.5389822841151304e+00 +0.0000000000000000e+00 +7.9999999973845481e-01 -2.9020875660478285e-02 -5.5465484189453151e-01 +5.4948045065213993e-03
8.5000000000000020e-01 +8.5389800003933249e+00 +0.0000000000000000e+00 +8.4999999968628503e-01 -2.9021215410373790e-02 -5.5466052451923664e-01 +5.4960342882636095e-03
9.0000000000000024e-01 +8.5389775782556807e+00 +0.0000000000000000e+00 +8.9999999962760158e-01 -2.9021568828926526e-02 -5.5466655416637189e-01 +5.4972703293123086e-03
9.5000000000000029e-01 +8.5389750177006913e+00 +0.0000000000000000e+00 +9.4999999956202119e-01 -2.9021935950806082e-02 -5.5467293015030583e-01 +5.4985125608353492e-03
1.0000000000000002e+00 +8.5389723187267670e+00 +0.0000000000000000e+00 +9.9999999948916063e-01 -2.9022316810682260e-02 -5.5467965178542167e-01 +5.4997609140008050e-03
1.0500000000000003e+00 +8.5389694813322308e+00 +0.0000000000000000e+00 +1.0499999994086366e+00 -2.9022711443224974e-02 -5.5468671838611960e-01 +5.5010153199769605e-03
1.1000000000000003e+00 +8.5389665055153170e+00 +0.0000000000000000e+00 +1.0999999993200658e+00 -2.9023119883104281e-02 -5.5469412926681660e-01 +5.5022757099323152e-03
1.1500000000000004e+00 +8.5389633912741782e+00 +0.0000000000000000e+00 +1.1499999992230647e+00 -2.9023542164990278e-02 -5.5470188374194485e-01 +5.5035420150355615e-03
1.2000000000000004e+00 +8.5389601386068783e+00 +0.0000000000000000e+00 +1.1999999991172503e+00 -2.9023978323553058e-02 -5.5470998112595427e-01 +5.5048141664556108e-03
1.2500000000000004e+00 +8.5389567475113974e+00 +0.0000000000000000e+00 +1.2499999990022390e+00 -2.9024428393462798e-02 -5.5471842073331068e-01 +5.5060920953615543e-03
1.3000000000000005e+00 +8.5389532179856289e+00 +0.0000000000000000e+00 +1.2999999988776476e+00 -2.9024892409389481e-02 -5.5472720187849600e-01 +5.5073757329226784e-03
1.3500000000000005e+00 +8.5389495500273824e+00 +0.0000000000000000e+00 +1.3499999987430924e+00 -2.9025370406003101e-02 -5.5473632387600935e-01 +5.5086650103084566e-03
1.4000000000000006e+00 +8.5389457436343807e+00 +0.0000000000000000e+00 +1.3999999985981901e+00 -2.9025862417973447e-02 -5.5474578604036606e-01 +5.5099598586885404e-03
1.4500000000000006e+00 +8.5389417988042631e+00 +0.0000000000000000e+00 +1.4499999984425573e+00 -2.9026368479970158e-02 -5.5475558768609790e-01 +5.5112602092327601e-03
1.5000000000000007e+00 +8.5389377155345834e+00 +0.0000000000000000e+00 +1.4999999982758105e+00 -2.9026888626662646e-02 -5.5476572812775327e-01 +5.5125659931111104e-03
1.5500000000000007e+00 +8.5389334938228103e+00 +0.0000000000000000e+00 +1.5499999980975661e+00 -2.9027422892720037e-02 -5.5477620667989758e-01 +5.5138771414937598e-03
1.6000000000000008e+00 +8.5389291336663309e+00 +0.0000000000000000e+00 +1.5999999979074404e+00 -2.9027971312811176e-02 -5.5478702265711222e-01 +5.5151935855510320e-03
1.6500000000000008e+00 +8.5389246350624433e+00 +0.0000000000000000e+00 +1.6499999977050501e+00 -2.9028533921604562e-02 -5.5479817537399578e-01 +5.5165152564534119e-03
1.7000000000000008e+00 +8.5389199980083674e+00 +0.0000000000000000e+00 +1.6999999974900115e+00 -2.9029110753768295e-02 -5.5480966414516342e-01 +5.5178420853715295e-03
1.7500000000000009e+00 +8.5389152225012346e+00 +0.0000000000000000e+00 +1.7499999972619409e+00 -2.9029701843970038e-02 -5.5482148828524591e-01 +5.5191740034761672e-03
1.8000000000000009e+00 +8.5389103085380942e+00 +0.0000000000000000e+00 +1.7999999970204545e+00 -2.9030307226877002e-02 -5.5483364710889305e-01 +5.5205109419382429e-03
1.8500000000000010e+00 +8.5389052561159122e+00 +0.0000000000000000e+00 +1.8499999967651688e+00 -2.9030926937155879e-02 -5.5484613993076914e-01 +5.5218528319288165e-03
1.9000000000000010e+00 +8.5389000652315712e+00 +0.0000000000000000e+00 +1.8999999964956999e+00 -2.9031561009472812e-02 -5.5485896606555629e-01 +5.5231996046190748e-03
1.9500000000000011e+00 +8.5388947358818701e+00 +0.0000000000000000e+00 +1.9499999962116643e+00 -2.9032209478493335e-02 -5.5487212482795312e-01 +5.5245511911803363e-03
2.0000000000000009e+00 +8.5388892680635244e+00 +0.0000000000000000e+00 +1.9999999959126780e+00 -2.9032872378882392e-02 -5.5488561553267557e-01 +5.5259075227840392e-03
2.0500000000000007e+00 +8.5388836617731698e+00 +0.0000000000000000e+00 +2.0499999955983572e+00 -2.9033549725476525e-02 -5.5489943726888635e-01 +5.5272685265956439e-03
2.1000000000000005e+00 +8.5388779170073548e+00 +0.0000000000000000e+00 +2.0999999952683179e+00 -2.9034241453801204e-02 -5.5491358822348291e-01 +5.5286341137562945e-03
2.1500000000000004e+00 +8.5388720337625497e+00 +0.0000000000000000e+00 +2.1499999949221764e+00 -2.9034947479554523e-02 -5.5492806635780545e-01 +5.5300041914010060e-03
2.2000000000000002e+00 +8.5388660120351414e+00 +0.0000000000000000e+00 +2.1999999945595485e+00 -2.9035667718435066e-02 -5.5494286963320483e-01 +5.5313786666647416e-03
2.2500000000000000e+00 +8.5388598518214351e+00 +0.0000000000000000e+00 +2.2499999941800501e+00 -2.9036402086141822e-02 -5.5495799601104201e-01 +5.5327574466823778e-03
2.2999999999999998e+00 +8.5388535531176561e+00 +0.0000000000000000e+00 +2.2999999937832976e+00 -2.9037150498374343e-02 -5.5497344345268818e-01 +5.5341404385887173e-03
2.3499999999999996e+00 +8.5388471159199515e+00 +0.0000000000000000e+00 +2.3499999933689066e+00 -2.9037912870832676e-02 -5.5498920991952549e-01 +5.5355275495184578e-03
2.3999999999999995e+00 +8.5388405402243848e+00 +0.0000000000000000e+00 +2.3999999929364928e+00 -2.9038689119217424e-02 -5.5500529337294424e-01 +5.5369186866061756e-03
2.4499999999999993e+00 +8.5388338260269432e+00 +0.0000000000000000e+00 +2.4499999924856724e+00 -2.9039479159229765e-02 -5.5502169177434513e-01 +5.5383137569863300e-03
2.4999999999999991e+00 +8.5388269733235340e+00 +0.0000000000000000e+00 +2.4999999920160607e+00 -2.9040282906571541e-02 -5.5503840308513741e-01 +5.5397126677932309e-03
2.5499999999999989e+00 +8.5388199821099864e+00 +0.0000000000000000e+00 +2.5499999915272742e+00 -2.9041100276945161e-02 -5.5505542526673923e-01 +5.5411153261610393e-03
2.5999999999999988e+00 +8.5388128523820548e+00 +0.0000000000000000e+00 +2.5999999910189282e+00 -2.9041931186053745e-02 -5.5507275628057684e-01 +5.5425216392237320e-03
2.6499999999999986e+00 +8.5388055841354120e+00 +0.0000000000000000e+00 +2.6499999904906382e+00 -2.9042775549601114e-02 -5.5509039408808447e-01 +5.5439315141151222e-03
2.6999999999999984e+00 +8.5387981773656580e+00 +0.0000000000000000e+00 +2.6999999899420200e+00 -2.9043633283291782e-02 -5.5510833665070447e-01 +5.5453448579688078e-03
2.7499999999999982e+00 +8.5387906320683147e+00 +0.0000000000000000e+00 +2.7499999893726890e+00 -2.9044504302831023e-02 -5.5512658192988606e-01 +5.5467615779181837e-03
2.7999999999999980e+00 +8.5387829482388291e+00 +0.0000000000000000e+00 +2.7999999887822606e+00 -2.9045388523924912e-02 -5.5514512788708659e-01 +5.5481815810964202e-03
2.8499999999999979e+00 +8.5387751258725739e+00 +0.0000000000000000e+00 +2.8499999881703504e+00 -2.9046285862280311e-02 -5.5516397248376925e-01 +5.5496047746364458e-03
2.8999999999999977e+00 +8.5387671649648471e+00 +0.0000000000000000e+00 +2.8999999875365741e+00 -2.9047196233604911e-02 -5.5518311368140361e-01 +5.5510310656709328e-03
2.9499999999999975e+00 +8.5387590655108703e+00 +0.0000000000000000e+00 +2.9499999868805467e+00 -2.9048119553607279e-02 -5.5520254944146585e-01 +5.5524603613322883e-03
2.9999999999999973e+00 +8.5387508275057939e+00 +0.0000000000000000e+00 +2.9999999862018836e+00 -2.9049055737996852e-02 -5.5522227772543831e-01 +5.5538925687526452e-03
3.0499999999999972e+00 +8.5387424509446959e+00 +0.0000000000000000e+00 +3.0499999855001998e+00 -2.9050004702484009e-02 -5.5524229649480861e-01 +5.5553275950638321e-03
3.0999999999999970e+00 +8.5387339358225791e+00 +0.0000000000000000e+00 +3.0999999847751107e+00 -2.9050966362780085e-02 -5.5526260371106906e-01 +5.5567653473973765e-03
3.1499999999999968e+00 +8.5387252821343775e+00 +0.0000000000000000e+00 +3.1499999840262314e+00 -2.9051940634597331e-02 -5.5528319733571740e-01 +5.5582057328844754e-03
3.1999999999999966e+00 +8.5387164898749504e+00 +0.0000000000000000e+00 +3.1999999832531771e+00 -2.9052927433649064e-02 -5.5530407533025605e-01 +5.5596486586559999e-03
3.2499999999999964e+00 +8.5387075590390893e+00 +0.0000000000000000e+00 +3.2499999824555630e+00 -2.9053926675649593e-02 -5.5532523565619141e-01 +5.5610940318424609e-03
3.2999999999999963e+00 +8.5386984896215132e+00 +0.0000000000000000e+00 +3.2999999816330035e+00 -2.9054938276314293e-02 -5.5534667627503420e-01 +5.5625417595740077e-03
3.3499999999999961e+00 +8.5386892816168718e+00 +0.0000000000000000e+00 +3.3499999807851140e+00 -2.9055962151359617e-02 -5.5536839514829828e-01 +5.5639917489804167e-03
3.3999999999999959e+00 +8.5386799350197435e+00 +0.0000000000000000e+00 +3.3999999799115090e+00 -2.9056998216503135e-02 -5.5539039023750147e-01 +5.5654439071910634e-03
3.4499999999999957e+00 +8.5386704498246413e+00 +0.0000000000000000e+00 +3.4499999790118037e+00 -2.9058046387463583e-02 -5.5541265950416385e-01 +5.5668981413349253e-03
3.4999999999999956e+00 +8.5386608260260086e+00 +0.0000000000000000e+00 +3.4999999780856128e+00 -2.9059106579960820e-02 -5.5543520090980958e-01 +5.5683543585405577e-03
3.5499999999999954e+00 +8.5386510636182198e+00 +0.0000000000000000e+00 +3.5499999771325506e+00 -2.9060178709715941e-02 -5.5545801241596315e-01 +5.5698124659360800e-03
3.5999999999999952e+00 +8.5386411625955816e+00 +0.0000000000000000e+00 +3.5999999761522319e+00 -2.9061262692451226e-02 -5.5548109198415330e-01 +5.5712723706491663e-03
3.6499999999999950e+00 +8.5386311229523351e+00 +0.0000000000000000e+00 +3.6499999751442713e+00 -2.9062358443890234e-02 -5.5550443757590884e-01 +5.5727339798070279e-03
3.6999999999999948e+00 +8.5386209446826538e+00 +0.0000000000000000e+00 +3.6999999741082834e+00 -2.9063465879757801e-02 -5.5552804715276105e-01 +5.5741972005364021e-03
3.7499999999999947e+00 +8.5386106277806473e+00 +0.0000000000000000e+00 +3.7499999730438827e+00 -2.9064584915780064e-02 -5.5555191867624221e-01 +5.5756619399635358e-03
3.7999999999999945e+00 +8.5386001722403577e+00 +0.0000000000000000e+00 +3.7999999719506832e+00 -2.9065715467684512e-02 -5.5557605010788513e-01 +5.5771281052141748e-03
3.8499999999999943e+00 +8.5385895780557632e+00 +0.0000000000000000e+00 +3.8499999708282995e+00 -2.9066857451199950e-02 -5.5560043940922332e-01 +5.5785956034135444e-03
3.8999999999999941e+00 +8.5385788452207780e+00 +0.0000000000000000e+00 +3.8999999696763461e+00 -2.9068010782056647e-02 -5.5562508454179060e-01 +5.5800643416863433e-03
3.9499999999999940e+00 +8.5385679737292524e+00 +0.0000000000000000e+00 +3.9499999684944367e+00 -2.9069175375986217e-02 -5.5564998346712047e-01 +5.5815342271567222e-03
3.9999999999999938e+00 +8.5385569635749707e+00 +0.0000000000000000e+00 +3.9999999672821858e+00 -2.9070351148721762e-02 -5.5567513414674585e-01 +5.5830051669482723e-03
4.0499999999999936e+00 +8.5385458147516591e+00 +0.0000000000000000e+00 +4.0499999660392074e+00 -2.9071538020640959e-02 -5.5570053447706036e-01 +5.5844770739871367e-03
4.0999999999999934e+00 +8.5385345272529776e+00 +0.0000000000000000e+00 +4.0999999647651153e+00 -2.9072735930695266e-02 -5.5572618209390079e-01 +5.5859498844116756e-03
4.1499999999999932e+00 +8.5385231010725278e+00 +0.0000000000000000e+00 +4.1499999634595230e+00 -2.9073944822480359e-02 -5.5575207456796794e-01 +5.5874235401635174e-03
4.1999999999999931e+00 +8.5385115362038473e+00 +0.0000000000000000e+00 +4.1999999621220452e+00 -2.9075164639593035e-02 -5.5577820946996670e-01 +5.5888979831845102e-03
4.2499999999999929e+00 +8.5384998326404133e+00 +0.0000000000000000e+00 +4.2499999607522954e+00 -2.9076395325631187e-02 -5.5580458437060509e-01 +5.5903731554167134e-03
4.2999999999999927e+00 +8.5384879903756445e+00 +0.0000000000000000e+00 +4.2999999593498872e+00 -2.9077636824193839e-02 -5.5583119684059490e-01 +5.5918489988024183e-03
4.3499999999999925e+00 +8.5384760094029009e+00 +0.0000000000000000e+00 +4.3499999579144344e+00 -2.9078889078881117e-02 -5.5585804445065123e-01 +5.5933254552841547e-03
4.3999999999999924e+00 +8.5384638897154819e+00 +0.0000000000000000e+00 +4.3999999564455505e+00 -2.9080152033294355e-02 -5.5588512477149221e-01 +5.5948024668047011e-03
4.4499999999999922e+00 +8.5384516313066303e+00 +0.0000000000000000e+00 +4.4499999549428484e+00 -2.9081425631036002e-02 -5.5591243537383850e-01 +5.5962799753070981e-03
4.4999999999999920e+00 +8.5384392341695303e+00 +0.0000000000000000e+00 +4.4999999534059425e+00 -2.9082709815709706e-02 -5.5593997382841409e-01 +5.5977579227346509e-03
4.5499999999999918e+00 +8.5384266982973109e+00 +0.0000000000000000e+00 +4.5499999518344456e+00 -2.9084004530920322e-02 -5.5596773770594576e-01 +5.5992362510309543e-03
4.5999999999999917e+00 +8.5384140236830426e+00 +0.0000000000000000e+00 +4.5999999502279714e+00 -2.9085309720273875e-02 -5.5599572457716273e-01 +5.6007149021398833e-03
4.6499999999999915e+00 +8.5384012103197424e+00 +0.0000000000000000e+00 +4.6499999485861325e+00 -2.9086625327377637e-02 -5.5602393201279576e-01 +5.6021938180056217e-03
4.6999999999999913e+00 +8.5383882582003707e+00 +0.0000000000000000e+00 +4.6999999469085427e+00 -2.9087951295840124e-02 -5.5605235758357874e-01 +5.6036729405726628e-03
4.7499999999999911e+00 +8.5383751673178345e+00 +0.0000000000000000e+00 +4.7499999451948147e+00 -2.9089287569271080e-02 -5.5608099886024731e-01 +5.6051522117858150e-03
4.7999999999999909e+00 +8.5383619376649857e+00 +0.0000000000000000e+00 +4.7999999434445613e+00 -2.9090634091281525e-02 -5.5610985341353858e-01 +5.6066315735902247e-03
4.8499999999999908e+00 +8.5383485692346230e+00 +0.0000000000000000e+00 +4.8499999416573960e+00 -2.9091990805483744e-02 -5.5613891881419197e-01 +5.6081109679313838e-03
4.8999999999999906e+00 +8.5383350620194953e+00 +0.0000000000000000e+00 +4.8999999398329317e+00 -2.9093357655491345e-02 -5.5616819263294837e-01 +5.6095903367551292e-03
4.9499999999999904e+00 +8.5383214160122964e+00 +0.0000000000000000e+00 +4.9499999379707802e+00 -2.9094734584919183e-02 -5.5619767244054952e-01 +5.6110696220076604e-03
4.9999999999999902e+00 +8.5383076312056705e+00 +0.0000000000000000e+00 +4.9999999360705552e+00 -2.9096121537383501e-02 -5.5622735580773919e-01 +5.6125487656355569e-03
5.0499999999999901e+00 +8.5382937075922083e+00 +0.0000000000000000e+00 +5.0499999341318693e+00 -2.9097518456501839e-02 -5.5625724030526191e-01 +5.6140277095857779e-03
5.0999999999999899e+00 +8.5382796451644545e+00 +0.0000000000000000e+00 +5.0999999321543346e+00 -2.9098925285893095e-02 -5.5628732350386267e-01 +5.6155063958056688e-03
5.1499999999999897e+00 +8.5382654439149004e+00 +0.0000000000000000e+00 +5.1499999301375636e+00 -2.9100341969177535e-02 -5.5631760297428845e-01 +5.6169847662429937e-03
5.1999999999999895e+00 +8.5382511038359912e+00 +0.0000000000000000e+00 +5.1999999280811693e+00 -2.9101768449976778e-02 -5.5634807628728544e-01 +5.6184627628459195e-03
5.2499999999999893e+00 +8.5382366249201223e+00 +0.0000000000000000e+00 +5.2499999259847634e+00 -2.9103204671913855e-02 -5.5637874101360141e-01 +5.6199403275630378e-03
5.2999999999999892e+00 +8.5382220071596393e+00 +0.0000000000000000e+00 +5.2999999238479578e+00 -2.9104650578613212e-02 -5.5640959472398377e-01 +5.6214174023433809e-03
5.3499999999999890e+00 +8.5382072505468454e+00 +0.0000000000000000e+00 +5.3499999216703653e+00 -2.9106106113700694e-02 -5.5644063498918095e-01 +5.6228939291364235e-03
5.3999999999999888e+00 +8.5381923550739938e+00 +0.0000000000000000e+00 +5.3999999194515977e+00 -2.9107571220803572e-02 -5.5647185937993981e-01 +5.6243698498920905e-03
5.4499999999999886e+00 +8.5381773207332916e+00 +0.0000000000000000e+00 +5.4499999171912679e+00 -2.9109045843550604e-02 -5.5650326546700890e-01 +5.6258451065607793e-03
5.4999999999999885e+00 +8.5381621475169034e+00 +0.0000000000000000e+00 +5.4999999148889867e+00 -2.9110529925571976e-02 -5.5653485082113541e-01 +5.6273196410933611e-03
5.5499999999999883e+00 +8.5381468354169456e+00 +0.0000000000000000e+00 +5.5499999125443669e+00 -2.9112023410499347e-02 -5.5656661301306598e-01 +5.6287933954411885e-03
5.5999999999999881e+00 +8.5381313844254940e+00 +0.0000000000000000e+00 +5.5999999101570195e+00 -2.9113526241965899e-02 -5.5659854961354716e-01 +5.6302663115561213e-03
5.6499999999999879e+00 +8.5381157945345780e+00 +0.0000000000000000e+00 +5.6499999077265564e+00 -2.9115038363606287e-02 -5.5663065819332447e-01 +5.6317383313905130e-03
5.6999999999999877e+00 +8.5381000657361845e+00 +0.0000000000000000e+00 +5.6999999052525894e+00 -2.9116559719056710e-02 -5.5666293632314268e-01 +5.6332093968972452e-03
5.7499999999999876e+00 +8.5380841980222595e+00 +0.0000000000000000e+00 +5.7499999027347295e+00 -2.9118090251954866e-02 -5.5669538157374510e-01 +5.6346794500297176e-03
5.7999999999999874e+00 +8.5380681913847045e+00 +0.0000000000000000e+00 +5.7999999001725886e+00 -2.9119629905940018e-02 -5.5672799151587449e-01 +5.6361484327418698e-03
5.8499999999999872e+00 +8.5380520458153839e+00 +0.0000000000000000e+00 +5.8499998975657785e+00 -2.9121178624653018e-02 -5.5676076372027139e-01 +5.6376162869881986e-03
5.8999999999999870e+00 +8.5380357613061193e+00 +0.0000000000000000e+00 +5.8999998949139103e+00 -2.9122736351736241e-02 -5.5679369575767501e-01 +5.6390829547237429e-03
