# field on trajectory
# s[mm] rx[mm] ry[mm] rz[mm] bx[T] by[T] bz[T]
0.0000000000000000e+00 +8.5980000000000008e+00 +0.0000000000000000e+00 +0.0000000000000000e+00 -2.7440854718704902e-02 -5.2443139835187569e-01 +5.0972107344992718e-03
-5.0000000000000003e-02 +8.5979999308171937e+00 +0.0000000000000000e+00 -4.9999999999936186e-02 -2.7441021306192012e-02 -5.2443414861751592e-01 +5.0996101748357371e-03
-1.0000000000000001e-01 +8.5979997232682734e+00 +0.0000000000000000e+00 -9.9999999999489469e-02 -2.7441213065453489e-02 -5.2443723934029340e-01 +5.1020168812234389e-03
-1.5000000000000002e-01 +8.5979993773524246e+00 +0.0000000000000000e+00 -1.4999999999827693e-01 -2.7441429802618360e-02 -5.2444066971388370e-01 +5.1044306479501710e-03
-2.0000000000000001e-01 +8.5979988930687412e+00 +0.0000000000000000e+00 -1.9999999999591567e-01 -2.7441671323816676e-02 -5.2444443893197845e-01 +5.1068512693040130e-03
-2.5000000000000000e-01 +8.5979982704162303e+00 +0.0000000000000000e+00 -2.4999999999202274e-01 -2.7441937435179430e-02 -5.2444854618828507e-01 +5.1092785395733201e-03
-2.9999999999999999e-01 +8.5979975093938066e+00 +0.0000000000000000e+00 -2.9999999998621524e-01 -2.7442227942838550e-02 -5.2445299067652695e-01 +5.1117122530467077e-03
-3.4999999999999998e-01 +8.5979966100002994e+00 +0.0000000000000000e+00 -3.4999999997811021e-01 -2.7442542652926866e-02 -5.2445777159044238e-01 +5.1141522040130429e-03
-3.9999999999999997e-01 +8.5979955722344457e+00 +0.0000000000000000e+00 -3.9999999996732466e-01 -2.7442881371578180e-02 -5.2446288812378716e-01 +5.1165981867614249e-03
-4.4999999999999996e-01 +8.5979943960948972e+00 +0.0000000000000000e+00 -4.4999999995347567e-01 -2.7443243904927077e-02 -5.2446833947033122e-01 +5.1190499955811736e-03
-4.9999999999999994e-01 +8.5979930815802135e+00 +0.0000000000000000e+00 -4.9999999993618022e-01 -2.7443630059109086e-02 -5.2447412482386035e-01 +5.1215074247618168e-03
-5.4999999999999993e-01 +8.5979916286888702e+00 +0.0000000000000000e+00 -5.4999999991505533e-01 -2.7444039640260525e-02 -5.2448024337817600e-01 +5.1239702685930699e-03
-5.9999999999999998e-01 +8.5979900374192528e+00 +0.0000000000000000e+00 -5.9999999988971797e-01 -2.7444472454518570e-02 -5.2448669432709538e-01 +5.1264383213648372e-03
-6.5000000000000002e-01 +8.5979883077696577e+00 +0.0000000000000000e+00 -6.4999999985978518e-01 -2.7444928308021144e-02 -5.2449347686445025e-01 +5.1289113773671791e-03
-7.0000000000000007e-01 +8.5979864397382979e+00 +0.0000000000000000e+00 -6.9999999982487382e-01 -2.7445407006906994e-02 -5.2450059018408779e-01 +5.1313892308903130e-03
-7.5000000000000011e-01 +8.5979844333232940e+00 +0.0000000000000000e+00 -7.4999999978460086e-01 -2.7445908357315609e-02 -5.2450803347987096e-01 +5.1338716762245953e-03
-8.0000000000000016e-01 +8.5979822885226849e+00 +0.0000000000000000e+00 -7.9999999973858316e-01 -2.7446432165387231e-02 -5.2451580594567659e-01 +5.1363585076605019e-03
-8.5000000000000020e-01 +8.5979800053344171e+00 +0.0000000000000000e+00 -8.4999999968643769e-01 -2.7446978237262786e-02 -5.2452390677539773e-01 +5.1388495194886223e-03
-9.0000000000000024e-01 +8.5979775837563555e+00 +0.0000000000000000e+00 -8.9999999962778132e-01 -2.7447546379083934e-02 -5.2453233516294173e-01 +5.1413445059996414e-03
-9.5000000000000029e-01 +8.5979750237862760e+00 +0.0000000000000000e+00 -9.4999999956223091e-01 -2.7448136396993002e-02 -5.2454109030223084e-01 +5.1438432614843302e-03
-1.0000000000000002e+00 +8.5979723254218676e+00 +0.0000000000000000e+00 -9.9999999948940321e-01 -2.7448748097132974e-02 -5.2455017138720239e-01 +5.1463455802335262e-03
-1.0500000000000003e+00 +8.5979694886607358e+00 +0.0000000000000000e+00 -1.0499999994089151e+00 -2.7449381285647449e-02 -5.2455957761180738e-01 +5.1488512565381166e-03
-1.1000000000000003e+00 +8.5979665135003973e+00 +0.0000000000000000e+00 -1.0999999993203833e+00 -2.7450035768680690e-02 -5.2456930817001268e-01 +5.1513600846890464e-03
-1.1500000000000004e+00 +8.5979633999382870e+00 +0.0000000000000000e+00 -1.1499999992234247e+00 -2.7450711352377508e-02 -5.2457936225579849e-01 +5.1538718589772686e-03
-1.2000000000000004e+00 +8.5979601479717509e+00 +0.0000000000000000e+00 -1.1999999991176558e+00 -2.7451407842883333e-02 -5.2458973906316098e-01 +5.1563863736937641e-03
-1.2500000000000004e+00 +8.5979567575980518e+00 +0.0000000000000000e+00 -1.2499999990026935e+00 -2.7452125046344110e-02 -5.2460043778610921e-01 +5.1589034231295117e-03
-1.3000000000000005e+00 +8.5979532288143652e+00 +0.0000000000000000e+00 -1.2999999988781543e+00 -2.7452862768906357e-02 -5.2461145761866668e-01 +5.1614228015754715e-03
-1.3500000000000005e+00 +8.5979495616177850e+00 +0.0000000000000000e+00 -1.3499999987436551e+00 -2.7453620816717084e-02 -5.2462279775487208e-01 +5.1639443033225834e-03
-1.4000000000000006e+00 +8.5979457560053199e+00 +0.0000000000000000e+00 -1.3999999985988123e+00 -2.7454398995923820e-02 -5.2463445738877768e-01 +5.1664677226617431e-03
-1.4500000000000006e+00 +8.5979418119738931e+00 +0.0000000000000000e+00 -1.4499999984432426e+00 -2.7455197112674530e-02 -5.2464643571444902e-01 +5.1689928538837873e-03
-1.5000000000000007e+00 +8.5979377295203445e+00 +0.0000000000000000e+00 -1.4999999982765624e+00 -2.7456014973117671e-02 -5.2465873192596701e-01 +5.1715194912794931e-03
-1.5500000000000007e+00 +8.5979335086414306e+00 +0.0000000000000000e+00 -1.5499999980983883e+00 -2.7456852383402137e-02 -5.2467134521742520e-01 +5.1740474291395496e-03
-1.6000000000000008e+00 +8.5979291493338224e+00 +0.0000000000000000e+00 -1.5999999979083366e+00 -2.7457709149677195e-02 -5.2468427478293178e-01 +5.1765764617545517e-03
-1.6500000000000008e+00 +8.5979246515941092e+00 +0.0000000000000000e+00 -1.6499999977060240e+00 -2.7458585078092557e-02 -5.2469751981660850e-01 +5.1791063834149822e-03
-1.7000000000000008e+00 +8.5979200154187954e+00 +0.0000000000000000e+00 -1.6999999974910669e+00 -2.7459479974798272e-02 -5.2471107951259022e-01 +5.1816369884112052e-03
-1.7500000000000009e+00 +8.5979152408043049e+00 +0.0000000000000000e+00 -1.7499999972630815e+00 -2.7460393645944752e-02 -5.2472495306502598e-01 +5.1841680710334416e-03
-1.8000000000000009e+00 +8.5979103277469768e+00 +0.0000000000000000e+00 -1.7999999970216842e+00 -2.7461325897682774e-02 -5.2473913966807828e-01 +5.1866994255717657e-03
-1.8500000000000010e+00 +8.5979052762430683e+00 +0.0000000000000000e+00 -1.8499999967664913e+00 -2.7462276536163382e-02 -5.2475363851592249e-01 +5.1892308463160853e-03
-1.9000000000000010e+00 +8.5979000862887549e+00 +0.0000000000000000e+00 -1.8999999964971190e+00 -2.7463245367537942e-02 -5.2476844880274787e-01 +5.1917621275561323e-03
-1.9500000000000011e+00 +8.5978947578801268e+00 +0.0000000000000000e+00 -1.9499999962131838e+00 -2.7464232197958058e-02 -5.2478356972275664e-01 +5.1942930635814379e-03
-2.0000000000000009e+00 +8.5978892910131961e+00 +0.0000000000000000e+00 -1.9999999959143013e+00 -2.7465236833575664e-02 -5.2479900047016481e-01 +5.1968234486813401e-03
-2.0500000000000007e+00 +8.5978836856838932e+00 +0.0000000000000000e+00 -2.0499999956000883e+00 -2.7466259102537839e-02 -5.2481474004885753e-01 +5.1993530924205862e-03
-2.1000000000000005e+00 +8.5978779418880631e+00 +0.0000000000000000e+00 -2.0999999952701605e+00 -2.7467298920972317e-02 -5.2483078670136385e-01 +5.2018818654662484e-03
-2.1500000000000004e+00 +8.5978720596214728e+00 +0.0000000000000000e+00 -2.1499999949241340e+00 -2.7468356227002905e-02 -5.2484713847988096e-01 +5.2044096537607184e-03
-2.2000000000000002e+00 +8.5978660388798076e+00 +0.0000000000000000e+00 -2.1999999945616246e+00 -2.7469430958754589e-02 -5.2486379343661738e-01 +5.2069363432460320e-03
-2.2500000000000000e+00 +8.5978598796586745e+00 +0.0000000000000000e+00 -2.2499999941822484e+00 -2.7470523054353616e-02 -5.2488074962379228e-01 +5.2094618198638585e-03
-2.2999999999999998e+00 +8.5978535819535988e+00 +0.0000000000000000e+00 -2.2999999937856215e+00 -2.7471632451927474e-02 -5.2489800509363593e-01 +5.2119859695554669e-03
-2.3499999999999996e+00 +8.5978471457600296e+00 +0.0000000000000000e+00 -2.3499999933713598e+00 -2.7472759089604965e-02 -5.2491555789838917e-01 +5.2145086782617207e-03
-2.3999999999999995e+00 +8.5978405710733341e+00 +0.0000000000000000e+00 -2.3999999929390787e+00 -2.7473902905516195e-02 -5.2493340609030303e-01 +5.2170298319230502e-03
-2.4499999999999993e+00 +8.5978338578888049e+00 +0.0000000000000000e+00 -2.4499999924883942e+00 -2.7475063837792711e-02 -5.2495154772163910e-01 +5.2195493164794394e-03
-2.4999999999999991e+00 +8.5978270062016549e+00 +0.0000000000000000e+00 -2.4999999920189220e+00 -2.7476241824567392e-02 -5.2496998084466839e-01 +5.2220670178704061e-03
-2.5499999999999989e+00 +8.5978200160070202e+00 +0.0000000000000000e+00 -2.5499999915302776e+00 -2.7477436803974648e-02 -5.2498870351167282e-01 +5.2245828220349793e-03
-2.5999999999999988e+00 +8.5978128872999608e+00 +0.0000000000000000e+00 -2.5999999910220768e+00 -2.7478648714150282e-02 -5.2500771377494337e-01 +5.2270966149116829e-03
-2.6499999999999986e+00 +8.5978056200754622e+00 +0.0000000000000000e+00 -2.6499999904939351e+00 -2.7479877493231677e-02 -5.2502700968678062e-01 +5.2296082824385155e-03
-2.6999999999999984e+00 +8.5977982143284333e+00 +0.0000000000000000e+00 -2.6999999899454683e+00 -2.7481123079357770e-02 -5.2504658929949433e-01 +5.2321177105529330e-03
-2.7499999999999982e+00 +8.5977906700537083e+00 +0.0000000000000000e+00 -2.7499999893762914e+00 -2.7482385410669063e-02 -5.2506645066540369e-01 +5.2346247851918310e-03
-2.7999999999999980e+00 +8.5977829872460472e+00 +0.0000000000000000e+00 -2.7999999887860199e+00 -2.7483664425307686e-02 -5.2508659183683726e-01 +5.2371293922915162e-03
-2.8499999999999979e+00 +8.5977751659001367e+00 +0.0000000000000000e+00 -2.8499999881742695e+00 -2.7484960061417488e-02 -5.2510701086613198e-01 +5.2396314177877096e-03
-2.8999999999999977e+00 +8.5977672060105892e+00 +0.0000000000000000e+00 -2.8999999875406552e+00 -2.7486272257143934e-02 -5.2512770580563273e-01 +5.2421307476154932e-03
-2.9499999999999975e+00 +8.5977591075719442e+00 +0.0000000000000000e+00 -2.9499999868847921e+00 -2.7487600950634305e-02 -5.2514867470769444e-01 +5.2446272677093295e-03
-2.9999999999999973e+00 +8.5977508705786700e+00 +0.0000000000000000e+00 -2.9999999862062956e+00 -2.7488946080037619e-02 -5.2516991562467930e-01 +5.2471208640030098e-03
-3.0499999999999972e+00 +8.5977424950251606e+00 +0.0000000000000000e+00 -3.0499999855047806e+00 -2.7490307583504694e-02 -5.2519142660895801e-01 +5.2496114224296576e-03
-3.0999999999999970e+00 +8.5977339809057423e+00 +0.0000000000000000e+00 -3.0999999847798621e+00 -2.7491685399188236e-02 -5.2521320571290897e-01 +5.2520988289216988e-03
-3.1499999999999968e+00 +8.5977253282146702e+00 +0.0000000000000000e+00 -3.1499999840311554e+00 -2.7493079465242792e-02 -5.2523525098891810e-01 +5.2545829694108422e-03
-3.1999999999999966e+00 +8.5977165369461250e+00 +0.0000000000000000e+00 -3.1999999832582753e+00 -2.7494489719824856e-02 -5.2525756048937977e-01 +5.2570637298280662e-03
-3.2499999999999964e+00 +8.5977076070942235e+00 +0.0000000000000000e+00 -3.2499999824608365e+00 -2.7495916101092879e-02 -5.2528013226669512e-01 +5.2595409961035972e-03
-3.2999999999999963e+00 +8.5976985386530096e+00 +0.0000000000000000e+00 -3.2999999816384542e+00 -2.7497358547207272e-02 -5.2530296437327251e-01 +5.2620146541668879e-03
-3.3499999999999961e+00 +8.5976893316164595e+00 +0.0000000000000000e+00 -3.3499999807907428e+00 -2.7498816996330527e-02 -5.2532605486152761e-01 +5.2644845899466088e-03
-3.3999999999999959e+00 +8.5976799859784805e+00 +0.0000000000000000e+00 -3.3999999799173173e+00 -2.7500291386627160e-02 -5.2534940178388267e-01 +5.2669506893706078e-03
-3.4499999999999957e+00 +8.5976705017329120e+00 +0.0000000000000000e+00 -3.4499999790177922e+00 -2.7501781656263810e-02 -5.2537300319276725e-01 +5.2694128383659142e-03
-3.4999999999999956e+00 +8.5976608788735298e+00 +0.0000000000000000e+00 -3.4999999780917821e+00 -2.7503287743409249e-02 -5.2539685714061668e-01 +5.2718709228587119e-03
-3.5499999999999954e+00 +8.5976511173940384e+00 +0.0000000000000000e+00 -3.5499999771389010e+00 -2.7504809586234431e-02 -5.2542096167987329e-01 +5.2743248287743100e-03
-3.5999999999999952e+00 +8.5976412172880785e+00 +0.0000000000000000e+00 -3.5999999761587640e+00 -2.7506347122912500e-02 -5.2544531486298507e-01 +5.2767744420371366e-03
-3.6499999999999950e+00 +8.5976311785492250e+00 +0.0000000000000000e+00 -3.6499999751509851e+00 -2.7507900291618894e-02 -5.2546991474240656e-01 +5.2792196485707231e-03
-3.6999999999999948e+00 +8.5976210011709888e+00 +0.0000000000000000e+00 -3.6999999741151788e+00 -2.7509469030531298e-02 -5.2549475937059742e-01 +5.2816603342976604e-03
-3.7499999999999947e+00 +8.5976106851468135e+00 +0.0000000000000000e+00 -3.7499999730509592e+00 -2.7511053277829708e-02 -5.2551984680002373e-01 +5.2840963851396167e-03
-3.7999999999999945e+00 +8.5976002304700803e+00 +0.0000000000000000e+00 -3.7999999719579405e+00 -2.7512652971696520e-02 -5.2554517508315657e-01 +5.2865276870172869e-03
-3.8499999999999943e+00 +8.5975896371341083e+00 +0.0000000000000000e+00 -3.8499999708357366e+00 -2.7514268050316499e-02 -5.2557074227247191e-01 +5.2889541258503868e-03
-3.8999999999999941e+00 +8.5975789051321510e+00 +0.0000000000000000e+00 -3.8999999696839618e+00 -2.7515898451876835e-02 -5.2559654642045206e-01 +5.2913755875576354e-03
-3.9499999999999940e+00 +8.5975680344573995e+00 +0.0000000000000000e+00 -3.9499999685022300e+00 -2.7517544114567204e-02 -5.2562258557958286e-01 +5.2937919580567363e-03
-3.9999999999999938e+00 +8.5975570251029847e+00 +0.0000000000000000e+00 -3.9999999672901549e+00 -2.7519204976579784e-02 -5.2564885780235615e-01 +5.2962031232643486e-03
-4.0499999999999936e+00 +8.5975458770619753e+00 +0.0000000000000000e+00 -4.0499999660473511e+00 -2.7520880961213429e-02 -5.2567536107294699e-01 +5.2986089675393002e-03
-4.0999999999999934e+00 +8.5975345903273777e+00 +0.0000000000000000e+00 -4.0999999647734313e+00 -2.7522571932184804e-02 -5.2570209310224914e-01 +5.3010093690123040e-03
-4.1499999999999932e+00 +8.5975231648921397e+00 +0.0000000000000000e+00 -4.1499999634680096e+00 -2.7524277738313542e-02 -5.2572905153283755e-01 +5.3034042042565191e-03
-4.1999999999999931e+00 +8.5975116007491490e+00 +0.0000000000000000e+00 -4.1999999621306996e+00 -2.7525998228417742e-02 -5.2575623400728688e-01 +5.3057933498443363e-03
-4.2499999999999929e+00 +8.5974998978912343e+00 +0.0000000000000000e+00 -4.2499999607611150e+00 -2.7527733251313913e-02 -5.2578363816817242e-01 +5.3081766823473917e-03
-4.2999999999999927e+00 +8.5974880563111657e+00 +0.0000000000000000e+00 -4.2999999593588685e+00 -2.7529482655816857e-02 -5.2581126165806968e-01 +5.3105540783365450e-03
-4.3499999999999925e+00 +8.5974760760016533e+00 +0.0000000000000000e+00 -4.3499999579235746e+00 -2.7531246290739591e-02 -5.2583910211955343e-01 +5.3129254143818687e-03
-4.3999999999999924e+00 +8.5974639569553535e+00 +0.0000000000000000e+00 -4.3999999564548453e+00 -2.7533024004893242e-02 -5.2586715719519816e-01 +5.3152905670526508e-03
-4.4499999999999922e+00 +8.5974516991648642e+00 +0.0000000000000000e+00 -4.4499999549522951e+00 -2.7534815647087013e-02 -5.2589542452757709e-01 +5.3176494129173763e-03
-4.4999999999999920e+00 +8.5974393026227283e+00 +0.0000000000000000e+00 -4.4999999534155366e+00 -2.7536621066128048e-02 -5.2592390175926340e-01 +5.3200018285437219e-03
-4.5499999999999918e+00 +8.5974267673214300e+00 +0.0000000000000000e+00 -4.5499999518441827e+00 -2.7538440110821343e-02 -5.2595258653282773e-01 +5.3223476904985531e-03
-4.5999999999999917e+00 +8.5974140932534038e+00 +0.0000000000000000e+00 -4.5999999502378470e+00 -2.7540272629969702e-02 -5.2598147649083959e-01 +5.3246868753479082e-03
-4.6499999999999915e+00 +8.5974012804110274e+00 +0.0000000000000000e+00 -4.6499999485961414e+00 -2.7542118472373603e-02 -5.2601056927586642e-01 +5.3270192596569883e-03
-4.6999999999999913e+00 +8.5973883287866233e+00 +0.0000000000000000e+00 -4.6999999469186795e+00 -2.7543977486831163e-02 -5.2603986253047397e-01 +5.3293447199901610e-03
-4.7499999999999911e+00 +8.5973752383724644e+00 +0.0000000000000000e+00 -4.7499999452050741e+00 -2.7545849522137972e-02 -5.2606935389722398e-01 +5.3316631329109300e-03
-4.7999999999999909e+00 +8.5973620091607703e+00 +0.0000000000000000e+00 -4.7999999434549379e+00 -2.7547734427087096e-02 -5.2609904101867722e-01 +5.3339743749819587e-03
-4.8499999999999908e+00 +8.5973486411437072e+00 +0.0000000000000000e+00 -4.8499999416678827e+00 -2.7549632050468953e-02 -5.2612892153739010e-01 +5.3362783227650246e-03
-4.8999999999999906e+00 +8.5973351343133917e+00 +0.0000000000000000e+00 -4.8999999398435223e+00 -2.7551542241071200e-02 -5.2615899309591596e-01 +5.3385748528210417e-03
-4.9499999999999904e+00 +8.5973214886618905e+00 +0.0000000000000000e+00 -4.9499999379814685e+00 -2.7553464847678680e-02 -5.2618925333680500e-01 +5.3408638417100319e-03
-4.9999999999999902e+00 +8.5973077041812207e+00 +0.0000000000000000e+00 -4.9999999360813332e+00 -2.7555399719073323e-02 -5.2621969990260309e-01 +5.3431451659911311e-03
-5.0499999999999901e+00 +8.5972937808633478e+00 +0.0000000000000000e+00 -5.0499999341427291e+00 -2.7557346704034074e-02 -5.2625033043585212e-01 +5.3454187022225633e-03
-5.0999999999999899e+00 +8.5972797187001913e+00 +0.0000000000000000e+00 -5.0999999321652689e+00 -2.7559305651336765e-02 -5.2628114257908931e-01 +5.3476843269616567e-03
-5.1499999999999897e+00 +8.5972655176836223e+00 +0.0000000000000000e+00 -5.1499999301485637e+00 -2.7561276409754101e-02 -5.2631213397484655e-01 +5.3499419167648034e-03
-5.1999999999999895e+00 +8.5972511778054628e+00 +0.0000000000000000e+00 -5.1999999280922262e+00 -2.7563258828055489e-02 -5.2634330226565185e-01 +5.3521913481874850e-03
-5.2499999999999893e+00 +8.5972366990574915e+00 +0.0000000000000000e+00 -5.2499999259958683e+00 -2.7565252755007017e-02 -5.2637464509402743e-01 +5.3544324977842341e-03
-5.2999999999999892e+00 +8.5972220814314380e+00 +0.0000000000000000e+00 -5.2999999238591018e+00 -2.7567258039371313e-02 -5.2640616010248964e-01 +5.3566652421086413e-03
-5.3499999999999890e+00 +8.5972073249189869e+00 +0.0000000000000000e+00 -5.3499999216815386e+00 -2.7569274529907543e-02 -5.2643784493354917e-01 +5.3588894577133563e-03
-5.3999999999999888e+00 +8.5971924295117805e+00 +0.0000000000000000e+00 -5.3999999194627906e+00 -2.7571302075371208e-02 -5.2646969722970993e-01 +5.3611050211500484e-03
-5.4499999999999886e+00 +8.5971773952014132e+00 +0.0000000000000000e+00 -5.4499999172024696e+00 -2.7573340524514149e-02 -5.2650171463347095e-01 +5.3633118089694313e-03
-5.4999999999999885e+00 +8.5971622219794384e+00 +0.0000000000000000e+00 -5.4999999149001866e+00 -2.7575389726084424e-02 -5.2653389478732304e-01 +5.3655096977212342e-03
-5.5499999999999883e+00 +8.5971469098373667e+00 +0.0000000000000000e+00 -5.5499999125555535e+00 -2.7577449528826237e-02 -5.2656623533375024e-01 +5.3676985639541965e-03
-5.5999999999999881e+00 +8.5971314587666647e+00 +0.0000000000000000e+00 -5.5999999101681812e+00 -2.7579519781479808e-02 -5.2659873391522971e-01 +5.3698782842160637e-03
-5.6499999999999879e+00 +8.5971158687587579e+00 +0.0000000000000000e+00 -5.6499999077376817e+00 -2.7581600332781363e-02 -5.2663138817423116e-01 +5.3720487350535787e-03
-5.6999999999999877e+00 +8.5971001398050326e+00 +0.0000000000000000e+00 -5.6999999052636658e+00 -2.7583691031462965e-02 -5.2666419575321588e-01 +5.3742097930124730e-03
-5.7499999999999876e+00 +8.5970842718968310e+00 +0.0000000000000000e+00 -5.7499999027457447e+00 -2.7585791726252498e-02 -5.2669715429463759e-01 +5.3763613346374502e-03
-5.7999999999999874e+00 +8.5970682650254595e+00 +0.0000000000000000e+00 -5.7999999001835292e+00 -2.7587902265873526e-02 -5.2673026144094126e-01 +5.3785032364721888e-03
-5.8499999999999872e+00 +8.5970521191821820e+00 +0.0000000000000000e+00 -5.8499998975766303e+00 -2.7590022499045234e-02 -5.2676351483456307e-01 +5.3806353750593264e-03
