# field on trajectory
# s[mm] rx[mm] ry[mm] rz[mm] bx[T] by[T] bz[T]
0.0000000000000000e+00 +8.5389999999999997e+00 +0.0000000000000000e+00 +0.0000000000000000e+00 -2.8894325979243695e-02 -5.5300858201040948e-01 +5.7062737023535360e-03
5.0000000000000003e-02 +8.5389999309981981e+00 +0.0000000000000000e+00 +4.9999999999936526e-02 -2.8893988672216177e-02 -5.5300883309690352e-01 +5.7058299788597675e-03
1.0000000000000001e-01 +8.5389997239927364e+00 +0.0000000000000000e+00 +9.9999999999492148e-02 -2.8893673169559129e-02 -5.5300947437118941e-01 +5.7053867667222046e-03
1.5000000000000002e-01 +8.5389993789834548e+00 +0.0000000000000000e+00 +1.4999999999828595e-01 -2.8893379497474603e-02 -5.5301050495395843e-01 +5.7049440960426174e-03
2.0000000000000001e-01 +8.5389988959700958e+00 +0.0000000000000000e+00 +1.9999999999593707e-01 -2.8893107682166387e-02 -5.5301192396592047e-01 +5.7045019969228523e-03
2.5000000000000000e-01 +8.5389982749523057e+00 +0.0000000000000000e+00 +2.4999999999206457e-01 -2.8892857749839854e-02 -5.5301373052779901e-01 +5.7040604994647824e-03
2.9999999999999999e-01 +8.5389975159296334e+00 +0.0000000000000000e+00 +2.9999999998628757e-01 -2.8892629726702083e-02 -5.5301592376033648e-01 +5.7036196337703583e-03
3.4999999999999998e-01 +8.5389966189015318e+00 +0.0000000000000000e+00 +3.4999999997822512e-01 -2.8892423638961651e-02 -5.5301850278429032e-01 +5.7031794299415555e-03
3.9999999999999997e-01 +8.5389955838673561e+00 +0.0000000000000000e+00 +3.9999999996749630e-01 -2.8892239512828623e-02 -5.5302146672043428e-01 +5.7027399180803852e-03
4.4999999999999996e-01 +8.5389944108263691e+00 +0.0000000000000000e+00 +4.4999999995372020e-01 -2.8892077374514543e-02 -5.5302481468955855e-01 +5.7023011282888890e-03
4.9999999999999994e-01 +8.5389930997777341e+00 +0.0000000000000000e+00 +4.9999999993651584e-01 -2.8891937250232324e-02 -5.5302854581247074e-01 +5.7018630906691273e-03
5.4999999999999993e-01 +8.5389916507205186e+00 +0.0000000000000000e+00 +5.4999999991550230e-01 -2.8891819166196247e-02 -5.5303265920999423e-01 +5.7014258353231739e-03
5.9999999999999998e-01 +8.5389900636536975e+00 +0.0000000000000000e+00 +5.9999999989029862e-01 -2.8891723148621862e-02 -5.5303715400296893e-01 +5.7009893923531136e-03
6.5000000000000002e-01 +8.5389883385761500e+00 +0.0000000000000000e+00 +6.4999999986052381e-01 -2.8891649223725953e-02 -5.5304202931225110e-01 +5.7005537918610252e-03
7.0000000000000007e-01 +8.5389864754866576e+00 +0.0000000000000000e+00 +6.9999999982579697e-01 -2.8891597417726497e-02 -5.5304728425871519e-01 +5.7001190639489902e-03
7.5000000000000011e-01 +8.5389844743839109e+00 +0.0000000000000000e+00 +7.4999999978573695e-01 -2.8891567756842595e-02 -5.5305291796325051e-01 +5.6996852387190588e-03
8.0000000000000016e-01 +8.5389823352665015e+00 +0.0000000000000000e+00 +7.9999999973996283e-01 -2.8891560267294419e-02 -5.5305892954676350e-01 +5.6992523462732836e-03
8.5000000000000020e-01 +8.5389800581329318e+00 +0.0000000000000000e+00 +8.4999999968809359e-01 -2.8891574975303192e-02 -5.5306531813017867e-01 +5.6988204167136760e-03
9.0000000000000024e-01 +8.5389776429816067e+00 +0.0000000000000000e+00 +8.9999999962974819e-01 -2.8891611907091077e-02 -5.5307208283443587e-01 +5.6983894801422184e-03
9.5000000000000029e-01 +8.5389750898108367e+00 +0.0000000000000000e+00 +9.4999999956454551e-01 -2.8891671088881170e-02 -5.5307922278049237e-01 +5.6979595666608483e-03
1.0000000000000002e+00 +8.5389723986188422e+00 +0.0000000000000000e+00 +9.9999999949210450e-01 -2.8891752546897423e-02 -5.5308673708932232e-01 +5.6975307063714562e-03
1.0500000000000003e+00 +8.5389695694037471e+00 +0.0000000000000000e+00 +1.0499999994120441e+00 -2.8891856307364610e-02 -5.5309462488191707e-01 +5.6971029293758930e-03
1.1000000000000003e+00 +8.5389666021635833e+00 +0.0000000000000000e+00 +1.0999999993239831e+00 -2.8891982396508274e-02 -5.5310288527928464e-01 +5.6966762657759233e-03
1.1500000000000004e+00 +8.5389634968962884e+00 +0.0000000000000000e+00 +1.1499999992275403e+00 -2.8892130840554638e-02 -5.5311151740245001e-01 +5.6962507456732661e-03
1.2000000000000004e+00 +8.5389602535997096e+00 +0.0000000000000000e+00 +1.1999999991223347e+00 -2.8892301665730601e-02 -5.5312052037245552e-01 +5.6958263991695500e-03
1.2500000000000004e+00 +8.5389568722715996e+00 +0.0000000000000000e+00 +1.2499999990079851e+00 -2.8892494898263652e-02 -5.5312989331036033e-01 +5.6954032563663317e-03
1.3000000000000005e+00 +8.5389533529096191e+00 +0.0000000000000000e+00 +1.2999999988841102e+00 -2.8892710564381838e-02 -5.5313963533724086e-01 +5.6949813473650820e-03
1.3500000000000005e+00 +8.5389496955113380e+00 +0.0000000000000000e+00 +1.3499999987503286e+00 -2.8892948690313683e-02 -5.5314974557419094e-01 +5.6945607022671624e-03
1.4000000000000006e+00 +8.5389459000742320e+00 +0.0000000000000000e+00 +1.3999999986062592e+00 -2.8893209302288170e-02 -5.5316022314232138e-01 +5.6941413511738441e-03
1.4500000000000006e+00 +8.5389419665956883e+00 +0.0000000000000000e+00 +1.4499999984515208e+00 -2.8893492426534686e-02 -5.5317106716276032e-01 +5.6937233241862893e-03
1.5000000000000007e+00 +8.5389378950729995e+00 +0.0000000000000000e+00 +1.4999999982857319e+00 -2.8893798089282895e-02 -5.5318227675665310e-01 +5.6933066514055402e-03
1.5500000000000007e+00 +8.5389336855033680e+00 +0.0000000000000000e+00 +1.5499999981085113e+00 -2.8894126316762827e-02 -5.5319385104516283e-01 +5.6928913629325228e-03
1.6000000000000008e+00 +8.5389293378839071e+00 +0.0000000000000000e+00 +1.5999999979194774e+00 -2.8894477135204679e-02 -5.5320578914946972e-01 +5.6924774888680273e-03
1.6500000000000008e+00 +8.5389248522116361e+00 +0.0000000000000000e+00 +1.6499999977182491e+00 -2.8894850570838852e-02 -5.5321809019077128e-01 +5.6920650593127098e-03
1.7000000000000008e+00 +8.5389202284834855e+00 +0.0000000000000000e+00 +1.6999999975044446e+00 -2.8895246649895859e-02 -5.5323075329028271e-01 +5.6916541043670861e-03
1.7500000000000009e+00 +8.5389154666962970e+00 +0.0000000000000000e+00 +1.7499999972776825e+00 -2.8895665398606309e-02 -5.5324377756923659e-01 +5.6912446541315213e-03
1.8000000000000009e+00 +8.5389105668468179e+00 +0.0000000000000000e+00 +1.7999999970375813e+00 -2.8896106843200816e-02 -5.5325716214888321e-01 +5.6908367387062224e-03
1.8500000000000010e+00 +8.5389055289317106e+00 +0.0000000000000000e+00 +1.8499999967837595e+00 -2.8896571009909954e-02 -5.5327090615049068e-01 +5.6904303881912385e-03
1.9000000000000010e+00 +8.5389003529475431e+00 +0.0000000000000000e+00 +1.8999999965158354e+00 -2.8897057924964206e-02 -5.5328500869534436e-01 +5.6900256326864393e-03
1.9500000000000011e+00 +8.5388950388907983e+00 +0.0000000000000000e+00 +1.9499999962334276e+00 -2.8897567614593951e-02 -5.5329946890474746e-01 +5.6896225022915279e-03
2.0000000000000009e+00 +8.5388895867578647e+00 +0.0000000000000000e+00 +1.9999999959361541e+00 -2.8898100105029318e-02 -5.5331428590002063e-01 +5.6892210271060157e-03
2.0500000000000007e+00 +8.5388839965450476e+00 +0.0000000000000000e+00 +2.0499999956236334e+00 -2.8898655385489542e-02 -5.5332945861789451e-01 +5.6888212337570824e-03
2.1000000000000005e+00 +8.5388782682485598e+00 +0.0000000000000000e+00 +2.0999999952954838e+00 -2.8899233297150915e-02 -5.5334498525668274e-01 +5.6884231349831971e-03
2.1500000000000004e+00 +8.5388724018645270e+00 +0.0000000000000000e+00 +2.1499999949513233e+00 -2.8899833644179539e-02 -5.5336086383010274e-01 +5.6880267400507304e-03
2.2000000000000002e+00 +8.5388663973889862e+00 +0.0000000000000000e+00 +2.1999999945907702e+00 -2.8900456230742139e-02 -5.5337709235188692e-01 +5.6876320582261329e-03
2.2500000000000000e+00 +8.5388602548178874e+00 +0.0000000000000000e+00 +2.2499999942134425e+00 -2.8901100861006081e-02 -5.5339366883577967e-01 +5.6872390987759477e-03
2.2999999999999998e+00 +8.5388539741470950e+00 +0.0000000000000000e+00 +2.2999999938189584e+00 -2.8901767339139326e-02 -5.5341059129553849e-01 +5.6868478709668204e-03
2.3499999999999996e+00 +8.5388475553723850e+00 +0.0000000000000000e+00 +2.3499999934069358e+00 -2.8902455469310442e-02 -5.5342785774493364e-01 +5.6864583840654922e-03
2.3999999999999995e+00 +8.5388409984894498e+00 +0.0000000000000000e+00 +2.3999999929769928e+00 -2.8903165055688702e-02 -5.5344546619774726e-01 +5.6860706473388411e-03
2.4499999999999993e+00 +8.5388343034938945e+00 +0.0000000000000000e+00 +2.4499999925287472e+00 -2.8903895902443907e-02 -5.5346341466777382e-01 +5.6856846700538560e-03
2.4999999999999991e+00 +8.5388274703812392e+00 +0.0000000000000000e+00 +2.4999999920618170e+00 -2.8904647813746586e-02 -5.5348170116881990e-01 +5.6853004614776772e-03
2.5499999999999989e+00 +8.5388204991469223e+00 +0.0000000000000000e+00 +2.5499999915758198e+00 -2.8905420593767866e-02 -5.5350032371470326e-01 +5.6849180308775780e-03
2.5999999999999988e+00 +8.5388133897862968e+00 +0.0000000000000000e+00 +2.5999999910703737e+00 -2.8906214046679524e-02 -5.5351928031925401e-01 +5.6845373875210039e-03
2.6499999999999986e+00 +8.5388061422946304e+00 +0.0000000000000000e+00 +2.6499999905450964e+00 -2.8907027976653985e-02 -5.5353856899631237e-01 +5.6841585406755485e-03
2.6999999999999984e+00 +8.5387987566671111e+00 +0.0000000000000000e+00 +2.6999999899996054e+00 -2.8907862187864331e-02 -5.5355818775973020e-01 +5.6837814996089876e-03
2.7499999999999982e+00 +8.5387912328988431e+00 +0.0000000000000000e+00 +2.7499999894335185e+00 -2.8908716484484301e-02 -5.5357813462337058e-01 +5.6834062735892860e-03
2.7999999999999980e+00 +8.5387835709848474e+00 +0.0000000000000000e+00 +2.7999999888464533e+00 -2.8909590670688282e-02 -5.5359840760110635e-01 +5.6830328718845934e-03
2.8499999999999979e+00 +8.5387757709200667e+00 +0.0000000000000000e+00 +2.8499999882380274e+00 -2.8910484550651327e-02 -5.5361900470682068e-01 +5.6826613037632666e-03
2.8999999999999977e+00 +8.5387678326993601e+00 +0.0000000000000000e+00 +2.8999999876078579e+00 -2.8911397928549167e-02 -5.5363992395440809e-01 +5.6822915784938768e-03
2.9499999999999975e+00 +8.5387597563175071e+00 +0.0000000000000000e+00 +2.9499999869555626e+00 -2.8912330608558197e-02 -5.5366116335777182e-01 +5.6819237053452121e-03
2.9999999999999973e+00 +8.5387515417692086e+00 +0.0000000000000000e+00 +2.9999999862807587e+00 -2.8913282394855477e-02 -5.5368272093082493e-01 +5.6815576935862920e-03
3.0499999999999972e+00 +8.5387431890490841e+00 +0.0000000000000000e+00 +3.0499999855830633e+00 -2.8914253091618741e-02 -5.5370459468749023e-01 +5.6811935524863797e-03
3.0999999999999970e+00 +8.5387346981516750e+00 +0.0000000000000000e+00 +3.0999999848620940e+00 -2.8915242503026430e-02 -5.5372678264170039e-01 +5.6808312913149894e-03
3.1499999999999968e+00 +8.5387260690714442e+00 +0.0000000000000000e+00 +3.1499999841174677e+00 -2.8916250433257656e-02 -5.5374928280739621e-01 +5.6804709193418890e-03
3.1999999999999966e+00 +8.5387173018027784e+00 +0.0000000000000000e+00 +3.1999999833488020e+00 -2.8917276686492209e-02 -5.5377209319852727e-01 +5.6801124458371148e-03
3.2499999999999964e+00 +8.5387083963399846e+00 +0.0000000000000000e+00 +3.2499999825557135e+00 -2.8918321066910571e-02 -5.5379521182905245e-01 +5.6797558800709890e-03
3.2999999999999963e+00 +8.5386993526772930e+00 +0.0000000000000000e+00 +3.2999999817378192e+00 -2.8919383378693944e-02 -5.5381863671293874e-01 +5.6794012313141117e-03
3.3499999999999961e+00 +8.5386901708088576e+00 +0.0000000000000000e+00 +3.3499999808947361e+00 -2.8920463426024199e-02 -5.5384236586416091e-01 +5.6790485088373897e-03
3.3999999999999959e+00 +8.5386808507287579e+00 +0.0000000000000000e+00 +3.3999999800260814e+00 -2.8921561013083942e-02 -5.5386639729670217e-01 +5.6786977219120257e-03
3.4499999999999957e+00 +8.5386713924309969e+00 +0.0000000000000000e+00 +3.4499999791314715e+00 -2.8922675944056463e-02 -5.5389072902455350e-01 +5.6783488798095461e-03
3.4999999999999956e+00 +8.5386617959095030e+00 +0.0000000000000000e+00 +3.4999999782105231e+00 -2.8923808023125764e-02 -5.5391535906171241e-01 +5.6780019918017963e-03
3.5499999999999954e+00 +8.5386520611581300e+00 +0.0000000000000000e+00 +3.5499999772628534e+00 -2.8924957054476570e-02 -5.5394028542218510e-01 +5.6776570671609574e-03
3.5999999999999952e+00 +8.5386421881706571e+00 +0.0000000000000000e+00 +3.5999999762880788e+00 -2.8926122842294309e-02 -5.5396550611998419e-01 +5.6773141151595626e-03
3.6499999999999950e+00 +8.5386321769407907e+00 +0.0000000000000000e+00 +3.6499999752858154e+00 -2.8927305190765154e-02 -5.5399101916912874e-01 +5.6769731450704852e-03
3.6999999999999948e+00 +8.5386220274621625e+00 +0.0000000000000000e+00 +3.6999999742556802e+00 -2.8928503904075982e-02 -5.5401682258364515e-01 +5.6766341661669689e-03
3.7499999999999947e+00 +8.5386117397283350e+00 +0.0000000000000000e+00 +3.7499999731972897e+00 -2.8929718786414409e-02 -5.5404291437756570e-01 +5.6762971877226303e-03
3.7999999999999945e+00 +8.5386013137327978e+00 +0.0000000000000000e+00 +3.7999999721102600e+00 -2.8930949641968788e-02 -5.5406929256492876e-01 +5.6759622190114632e-03
3.8499999999999943e+00 +8.5385907494689679e+00 +0.0000000000000000e+00 +3.8499999709942072e+00 -2.8932196274928206e-02 -5.5409595515977961e-01 +5.6756292693078535e-03
3.8999999999999941e+00 +8.5385800469301909e+00 +0.0000000000000000e+00 +3.8999999698487477e+00 -2.8933458489482464e-02 -5.5412290017616794e-01 +5.6752983478865890e-03
3.9499999999999940e+00 +8.5385692061097433e+00 +0.0000000000000000e+00 +3.9499999686734979e+00 -2.8934736089822152e-02 -5.5415012562815003e-01 +5.6749694640228689e-03
3.9999999999999938e+00 +8.5385582270008307e+00 +0.0000000000000000e+00 +3.9999999674680735e+00 -2.8936028880138590e-02 -5.5417762952978711e-01 +5.6746426269923067e-03
4.0499999999999936e+00 +8.5385471095965890e+00 +0.0000000000000000e+00 +4.0499999662320905e+00 -2.8937336680986431e-02 -5.5420540973389465e-01 +5.6743178493710916e-03
4.0999999999999934e+00 +8.5385358538900871e+00 +0.0000000000000000e+00 +4.0999999649651651e+00 -2.8938659378371631e-02 -5.5423346344829194e-01 +5.6739951569364016e-03
4.1499999999999932e+00 +8.5385244598743242e+00 +0.0000000000000000e+00 +4.1499999636669127e+00 -2.8939996874663140e-02 -5.5426178771954804e-01 +5.6736745787658149e-03
4.1999999999999931e+00 +8.5385129275422322e+00 +0.0000000000000000e+00 +4.1999999623369497e+00 -2.8941349072230352e-02 -5.5429037959423622e-01 +5.6733561439371565e-03
4.2499999999999929e+00 +8.5385012568866756e+00 +0.0000000000000000e+00 +4.2499999609748915e+00 -2.8942715873443031e-02 -5.5431923611893075e-01 +5.6730398815284973e-03
4.2999999999999927e+00 +8.5384894479004529e+00 +0.0000000000000000e+00 +4.2999999595803544e+00 -2.8944097180671282e-02 -5.5434835434020768e-01 +5.6727258206181481e-03
4.3499999999999925e+00 +8.5384775005762990e+00 +0.0000000000000000e+00 +4.3499999581529529e+00 -2.8945492896285563e-02 -5.5437773130464463e-01 +5.6724139902846688e-03
4.3999999999999924e+00 +8.5384654149068826e+00 +0.0000000000000000e+00 +4.3999999566923025e+00 -2.8946902922656691e-02 -5.5440736405882018e-01 +5.6721044196068760e-03
4.4499999999999922e+00 +8.5384531908848089e+00 +0.0000000000000000e+00 +4.4499999551980194e+00 -2.8948327162155833e-02 -5.5443724964931418e-01 +5.6717971376638371e-03
4.4999999999999920e+00 +8.5384408285026190e+00 +0.0000000000000000e+00 +4.4999999536697182e+00 -2.8949765517154464e-02 -5.5446738512270655e-01 +5.6714921735348750e-03
4.5499999999999918e+00 +8.5384283277527953e+00 +0.0000000000000000e+00 +4.5499999521070151e+00 -2.8951217890024389e-02 -5.5449776752557789e-01 +5.6711895562995811e-03
4.5999999999999917e+00 +8.5384156886277545e+00 +0.0000000000000000e+00 +4.5999999505095239e+00 -2.8952684183137747e-02 -5.5452839390450837e-01 +5.6708893150378007e-03
4.6499999999999915e+00 +8.5384029111198529e+00 +0.0000000000000000e+00 +4.6499999488768609e+00 -2.8954164298866953e-02 -5.5455926130607869e-01 +5.6705914788296547e-03
4.6999999999999913e+00 +8.5383899952213884e+00 +0.0000000000000000e+00 +4.6999999472086404e+00 -2.8955658139584756e-02 -5.5459036677686746e-01 +5.6702960767555290e-03
4.7499999999999911e+00 +8.5383769409246000e+00 +0.0000000000000000e+00 +4.7499999455044781e+00 -2.8957165607664169e-02 -5.5462170736345384e-01 +5.6700031378960816e-03
4.7999999999999909e+00 +8.5383637482216663e+00 +0.0000000000000000e+00 +4.7999999437639884e+00 -2.8958686605478522e-02 -5.5465328011241566e-01 +5.6697126913322514e-03
4.8499999999999908e+00 +8.5383504171047075e+00 +0.0000000000000000e+00 +4.8499999419867859e+00 -2.8960221035401405e-02 -5.5468508207032874e-01 +5.6694247661452481e-03
4.8999999999999906e+00 +8.5383369475657886e+00 +0.0000000000000000e+00 +4.8999999401724850e+00 -2.8961768799806668e-02 -5.5471711028376747e-01 +5.6691393914165703e-03
4.9499999999999904e+00 +8.5383233395969160e+00 +0.0000000000000000e+00 +4.9499999383207012e+00 -2.8963329801068437e-02 -5.5474936179930434e-01 +5.6688565962279983e-03
4.9999999999999902e+00 +8.5383095931900428e+00 +0.0000000000000000e+00 +4.9999999364310481e+00 -2.8964903941561086e-02 -5.5478183366350919e-01 +5.6685764096616013e-03
5.0499999999999901e+00 +8.5382957083370634e+00 +0.0000000000000000e+00 +5.0499999345031403e+00 -2.8966491123659246e-02 -5.5481452292294986e-01 +5.6682988607997366e-03
5.0999999999999899e+00 +8.5382816850298227e+00 +0.0000000000000000e+00 +5.0999999325365932e+00 -2.8968091249737773e-02 -5.5484742662419106e-01 +5.6680239787250597e-03
5.1499999999999897e+00 +8.5382675232601084e+00 +0.0000000000000000e+00 +5.1499999305310196e+00 -2.8969704222171776e-02 -5.5488054181379431e-01 +5.6677517925205183e-03
5.1999999999999895e+00 +8.5382532230196588e+00 +0.0000000000000000e+00 +5.1999999284860348e+00 -2.8971329943336545e-02 -5.5491386553831745e-01 +5.6674823312693632e-03
5.2499999999999893e+00 +8.5382387843001570e+00 +0.0000000000000000e+00 +5.2499999264012525e+00 -2.8972968315607629e-02 -5.5494739484431510e-01 +5.6672156240551485e-03
5.2999999999999892e+00 +8.5382242070932346e+00 +0.0000000000000000e+00 +5.2999999242762872e+00 -2.8974619241360779e-02 -5.5498112677833755e-01 +5.6669516999617291e-03
5.3499999999999890e+00 +8.5382094913904751e+00 +0.0000000000000000e+00 +5.3499999221107517e+00 -2.8976282622971902e-02 -5.5501505838693099e-01 +5.6666905880732744e-03
5.3999999999999888e+00 +8.5381946371834108e+00 +0.0000000000000000e+00 +5.3999999199042605e+00 -2.8977958362817174e-02 -5.5504918671663717e-01 +5.6664323174742655e-03
5.4499999999999886e+00 +8.5381796444635256e+00 +0.0000000000000000e+00 +5.4499999176564282e+00 -2.8979646363272885e-02 -5.5508350881399227e-01 +5.6661769172494918e-03
5.4999999999999885e+00 +8.5381645132222541e+00 +0.0000000000000000e+00 +5.4999999153668675e+00 -2.8981346526715530e-02 -5.5511802172552782e-01 +5.6659244164840635e-03
5.5499999999999883e+00 +8.5381492434509845e+00 +0.0000000000000000e+00 +5.5499999130351920e+00 -2.8983058755521776e-02 -5.5515272249777059e-01 +5.6656748442634177e-03
5.5999999999999881e+00 +8.5381338351410569e+00 +0.0000000000000000e+00 +5.5999999106610154e+00 -2.8984782952068456e-02 -5.5518760817724044e-01 +5.6654282296733109e-03
5.6499999999999879e+00 +8.5381182882837656e+00 +0.0000000000000000e+00 +5.6499999082439514e+00 -2.8986519018732539e-02 -5.5522267581045170e-01 +5.6651846017998220e-03
5.6999999999999877e+00 +8.5381026028703584e+00 +0.0000000000000000e+00 +5.6999999057836135e+00 -2.8988266857891156e-02 -5.5525792244391325e-01 +5.6649439897293700e-03
5.7499999999999876e+00 +8.5380867788920423e+00 +0.0000000000000000e+00 +5.7499999032796145e+00 -2.8990026371921558e-02 -5.5529334512412576e-01 +5.6647064225486942e-03
5.7999999999999874e+00 +8.5380708163399763e+00 +0.0000000000000000e+00 +5.7999999007315681e+00 -2.8991797463201151e-02 -5.5532894089758433e-01 +5.6644719293448770e-03
5.8499999999999872e+00 +8.5380547152052770e+00 +0.0000000000000000e+00 +5.8499998981390871e+00 -2.8993580034107437e-02 -5.5536470681077621e-01 +5.6642405392053462e-03
5.8999999999999870e+00 +8.5380384754790200e+00 +0.0000000000000000e+00 +5.8999998955017841e+00 -2.8995373987018069e-02 -5.5540063991018196e-01 +5.6640122812178558e-03
