# multipoles
# s[mm] polynom_b[n=0][T/m^n] polynom_b[n=1][T/m^n] polynom_b[n=2][T/m^n] polynom_b[n=3][T/m^n] polynom_b[n=4][T/m^n] polynom_b[n=5][T/m^n] polynom_b[n=6][T/m^n] 
+0.0000000000000000e+00 -5.2550290825687818e-01 +6.8771529587855120e+00 +4.9523150327317502e+00 -1.4417506110149748e+02 -7.3193678059799768e+03 +7.4237742135668034e+05 +7.3332864307204440e+07 
+5.0000000000000003e-02 -5.2550320207689216e-01 +6.8771758502523888e+00 +4.9502014599935968e+00 -1.4438658127306826e+02 -7.2550102648551410e+03 +7.4366145045511262e+05 +7.2891597624932244e+07 
+1.0000000000000001e-01 -5.2550385728337567e-01 +6.8772198708683208e+00 +4.9475068030025087e+00 -1.4463289262406047e+02 -7.1899708461367600e+03 +7.4518959244109842e+05 +7.2451864462644309e+07 
+1.5000000000000002e-01 -5.2550487324890927e-01 +6.8772848958104023e+00 +4.9442440978469699e+00 -1.4491233319114042e+02 -7.1244196657968050e+03 +7.4695198310386483e+05 +7.2014479156985164e+07 
+2.0000000000000001e-01 -5.2550624934612467e-01 +6.8773708002596203e+00 +4.9404263867328373e+00 -1.4522324113326223e+02 -7.0585270038887384e+03 +7.4893875920682889e+05 +7.1580257147619843e+07 
+2.5000000000000000e-01 -5.2550798494764328e-01 +6.8774774593965144e+00 +4.9360667071984246e+00 -1.4556395455692987e+02 -6.9924630163699794e+03 +7.5114005705208413e+05 +7.1150013043766633e+07 
+2.9999999999999999e-01 -5.2551007942612582e-01 +6.8776047484034510e+00 +4.9311781002818398e+00 -1.4593281161110298e+02 -6.9263979500655805e+03 +7.5354601327651029e+05 +7.0724562054308727e+07 
+3.4999999999999998e-01 -5.2551253215422766e-01 +6.8777525424638410e+00 +4.9257736033594899e+00 -1.4632815045589479e+02 -6.8605019535685224e+03 +7.5614676459011633e+05 +7.0304718725413039e+07 
+3.9999999999999997e-01 -5.2551534250465293e-01 +6.8779207167615048e+00 +4.9198662593793179e+00 -1.4674830923630523e+02 -6.7949453255805283e+03 +7.5893244756360771e+05 +6.9891298615432143e+07 
+4.4999999999999996e-01 -5.2551850985009219e-01 +6.8781091464797024e+00 +4.9134691057737996e+00 -1.4719162605184459e+02 -6.7298982145663458e+03 +7.6189319840933918e+05 +6.9485116263289049e+07 
+4.9999999999999994e-01 -5.2552203356327842e-01 +6.8783177068030703e+00 +4.9065951849610077e+00 -1.4765643901129852e+02 -6.6655309057677441e+03 +7.6501915333832649e+05 +6.9086987137237951e+07 
+5.4999999999999993e-01 -5.2552591301693619e-01 +6.8785462729185429e+00 +4.8992575340973339e+00 -1.4814108630213400e+02 -6.6020135346615252e+03 +7.6830044925109099e+05 +6.8697725663959980e+07 
+5.9999999999999998e-01 -5.2553014758382732e-01 +6.8787947200115935e+00 +4.8914691951177076e+00 -1.4864390601594542e+02 -6.5395163759601937e+03 +7.7172722222597757e+05 +6.8318147249580592e+07 
+6.5000000000000002e-01 -5.2553473663671435e-01 +6.8790629232698954e+00 +4.8832432063265170e+00 -1.4916323631697725e+02 -6.4782096001599712e+03 +7.7528960896881414e+05 +6.7949066572884262e+07 
+7.0000000000000007e-01 -5.2553967954840164e-01 +6.8793507578803039e+00 +4.8745926112428482e+00 -1.4969741528686021e+02 -6.4182635202873944e+03 +7.7897774541899748e+05 +6.7591299277310684e+07 
+7.5000000000000011e-01 -5.2554497569167169e-01 +6.8796580990307383e+00 +4.8655304462220714e+00 -1.5024478104841646e+02 -6.3598482557826646e+03 +7.8278176794631605e+05 +6.7245659700370833e+07 
+8.0000000000000016e-01 -5.2555062443935885e-01 +6.8799848219098312e+00 +4.8560697539274855e+00 -1.5080367170748559e+02 -6.3031340940415857e+03 +7.8669181270264077e+05 +6.6912963303371266e+07 
+8.5000000000000020e-01 -5.2555662516429291e-01 +6.8803308017068838e+00 +4.8462235739889445e+00 -1.5137242538094199e+02 -6.2482912470471356e+03 +7.9069801596180769e+05 +6.6594025060741402e+07 
+9.0000000000000024e-01 -5.2556297723931800e-01 +6.8806959136113486e+00 +4.8360049452379492e+00 -1.5194938016546820e+02 -6.1954898998438121e+03 +7.9479051382818434e+05 +6.6289659743496753e+07 
+9.5000000000000029e-01 -5.2556968003731108e-01 +6.8810800328120596e+00 +4.8254269099109486e+00 -1.5253287410523231e+02 -6.1449003334463187e+03 +7.9895944197130355e+05 +6.6000682786688402e+07 
+1.0000000000000002e+00 -5.2557673293114060e-01 +6.8814830345018239e+00 +4.8145025058866429e+00 -1.5312124538179310e+02 -6.0966927107581396e+03 +8.0319493717917206e+05 +6.5727908822947763e+07 
+1.0500000000000003e+00 -5.2558413529371562e-01 +6.8819047938676912e+00 +4.8032447756142345e+00 -1.5371283191910979e+02 -6.0510373179972230e+03 +8.0748713413966203e+05 +6.5472153316017620e+07 
+1.1000000000000003e+00 -5.2559188649792854e-01 +6.8823451861018592e+00 +4.7916667560301631e+00 -1.5430597183198631e+02 -6.0081042971974011e+03 +8.1182616913077119e+05 +6.5234230774060816e+07 
+1.1500000000000004e+00 -5.2559998591672374e-01 +6.8828040863952307e+00 +4.7797814901063722e+00 -1.5489900314747635e+02 -5.9680639471684690e+03 +8.1620217765790899e+05 +6.5014956737740591e+07 
+1.2000000000000004e+00 -5.2560843292303716e-01 +6.8832813699402804e+00 +4.7676020176193727e+00 -1.5549026395302556e+02 -5.9310864909821630e+03 +8.2060529581105732e+05 +6.4815146275369972e+07 
+1.2500000000000004e+00 -5.2561722688981183e-01 +6.8837769119279599e+00 +4.7551413760515837e+00 -1.5607809223623792e+02 -5.8973420818781769e+03 +8.2502565879599238e+05 +6.4635613951458439e+07 
+1.3000000000000005e+00 -5.2562636719001687e-01 +6.8842905875487990e+00 +4.7424126055239384e+00 -1.5666082595229423e+02 -5.8670009517469707e+03 +8.2945340159451042e+05 +6.4477174890404835e+07 
+1.3500000000000005e+00 -5.2563585319665040e-01 +6.8848222719956098e+00 +4.7294287484368542e+00 -1.5723680313209204e+02 -5.8402333920240208e+03 +8.3387865982621396e+05 +6.4340644607830629e+07 
+1.4000000000000006e+00 -5.2564568428269109e-01 +6.8853718404609641e+00 +4.7162028412464299e+00 -1.5780436176918502e+02 -5.8172095359456544e+03 +8.3829156879200297e+05 +6.4226837558911249e+07 
+1.4500000000000006e+00 -5.2565585982115826e-01 +6.8859391681368924e+00 +4.7027479256450588e+00 -1.5836183983070478e+02 -5.7980996633611767e+03 +8.4268226364323695e+05 +6.4136569205786854e+07 
+1.5000000000000007e+00 -5.2566637918507220e-01 +6.8865241302147648e+00 +4.6890770399850226e+00 -1.5890757521425942e+02 -5.7830739590892708e+03 +8.4704087888928154e+05 +6.4070654352850907e+07 
+1.5500000000000007e+00 -5.2567724174746644e-01 +6.8871266018861332e+00 +4.6752032234852097e+00 -1.5943990583534705e+02 -5.7723026391020594e+03 +8.5135754930832202e+05 +6.4029908037850060e+07 
+1.6000000000000008e+00 -5.2568844688138283e-01 +6.8877464583441261e+00 +4.6611395138838008e+00 -1.5995716962984295e+02 -5.7659558783636676e+03 +8.5562240977186128e+05 +6.4015145018868081e+07 
+1.6500000000000008e+00 -5.2569999395989730e-01 +6.8883835747800921e+00 +4.6468989526385602e+00 -1.6045770445672537e+02 -5.7642039544170502e+03 +8.5982559457611910e+05 +6.4027180752926953e+07 
+1.7000000000000008e+00 -5.2571188235607991e-01 +6.8890378263877414e+00 +4.6324945777473241e+00 -1.6093984826170322e+02 -5.7672170546355228e+03 +8.6395723878535721e+05 +6.4066830097882502e+07 
+1.7500000000000009e+00 -5.2572411144301223e-01 +6.8897090883562093e+00 +4.6179394268362008e+00 -1.6140193876939799e+02 -5.7751653555867115e+03 +8.6800747560088313e+05 +6.4134907834837005e+07 
+1.8000000000000009e+00 -5.2573668059379863e-01 +6.8903972358790497e+00 +4.6032465394034370e+00 -1.6184231389004299e+02 -5.7882190908738185e+03 +8.7196643984770705e+05 +6.4232229151742198e+07 
+1.8500000000000010e+00 -5.2574958918154380e-01 +6.8911021441464939e+00 +4.5884289527098394e+00 -1.6225931136429443e+02 -5.8065484354673890e+03 +8.7582426491154952e+05 +6.4359608846279830e+07 
+1.9000000000000010e+00 -5.2576283657938461e-01 +6.8918236883507564e+00 +4.5734997070199794e+00 -1.6265126901041955e+02 -5.8303236445577240e+03 +8.7957108488377929e+05 +6.4517862253607608e+07 
+1.9500000000000011e+00 -5.2577642216044296e-01 +6.8925617436830233e+00 +4.5584718381000267e+00 -1.6301652459406588e+02 -5.8597148574212524e+03 +8.8319703346481360e+05 +6.4707803943038672e+07 
+2.0000000000000009e+00 -5.2579034529786883e-01 +6.8933161853340703e+00 +4.5433583840950238e+00 -1.6335341584050309e+02 -5.8948922781774927e+03 +8.8669224401280354e+05 +6.4930248923835769e+07 
+2.0500000000000007e+00 -5.2580460512154781e-01 +6.8940868916548546e+00 +4.5281692054740805e+00 -1.6366066920895034e+02 -5.9359623678156777e+03 +8.9004882955812674e+05 +6.5185671220573105e+07 
+2.1000000000000005e+00 -5.2581919978834446e-01 +6.8948737480346596e+00 +4.5129013984420689e+00 -1.6393855497830751e+02 -5.9827666305594685e+03 +8.9326664760431706e+05 +6.5473130888283215e+07 
+2.1500000000000004e+00 -5.2583412721185763e-01 +6.8956766402315219e+00 +4.4975488586351462e+00 -1.6418772727597593e+02 -6.0350777194656685e+03 +8.9634744635558093e+05 +6.5791321410171136e+07 
+2.2000000000000002e+00 -5.2584938530571812e-01 +6.8964954540038068e+00 +4.4821054854221849e+00 -1.6440884022340813e+02 -6.0926683889500091e+03 +8.9929297392016253e+05 +6.6138936959967919e+07 
+2.2500000000000000e+00 -5.2586497198354598e-01 +6.8973300751093038e+00 +4.4665651736011727e+00 -1.6460254791068573e+02 -6.1553112658325963e+03 +9.0210497817363241e+05 +6.6514670837141097e+07 
+2.2999999999999998e+00 -5.2588088515899756e-01 +6.8981803893068889e+00 +4.4509218230032666e+00 -1.6476950445819179e+02 -6.2227791166646457e+03 +9.0478520724038745e+05 +6.6917217298619390e+07 
+2.3499999999999996e+00 -5.2589712274571343e-01 +6.8990462823559628e+00 +4.4351693287097733e+00 -1.6491036398841675e+02 -6.2948445779559561e+03 +9.0733540922576946e+05 +6.7345269714630425e+07 
+2.3999999999999995e+00 -5.2591368265736504e-01 +6.8999276400144574e+00 +4.4193015890486151e+00 -1.6502578055610073e+02 -6.3712803739112951e+03 +9.0975733171063231e+05 +6.7797522054458857e+07 
+2.4499999999999993e+00 -5.2593056280762229e-01 +6.9008243480419003e+00 +4.4033125003023077e+00 -1.6511640827655157e+02 -6.4518591728000956e+03 +9.1205272278839082e+05 +6.8272667903875113e+07 
+2.4999999999999991e+00 -5.2594776111017105e-01 +6.9017362922012921e+00 +4.3871959601546449e+00 -1.6518290138434688e+02 -6.5363536838841655e+03 +9.1422333149646479e+05 +6.8769401141717196e+07 
+2.5499999999999989e+00 -5.2596527547870109e-01 +6.9026633582498151e+00 +4.3709458646102890e+00 -1.6522591386659903e+02 -6.6245365663840912e+03 +9.1627090484156937e+05 +6.9286415289987490e+07 
+2.5999999999999988e+00 -5.2598310382691771e-01 +6.9036054319529390e+00 +4.3545561105254587e+00 -1.6524610004370885e+02 -6.7161805004552762e+03 +9.1819719257910701e+05 +6.9822404008856550e+07 
+2.6499999999999986e+00 -5.2600124406854243e-01 +6.9045623990670490e+00 +4.3380205968040642e+00 -1.6524411385226173e+02 -6.8110582294204141e+03 +9.2000394131072902e+05 +7.0376061414252102e+07 
+2.6999999999999984e+00 -5.2601969411729599e-01 +6.9055341453582022e+00 +4.3213332194568226e+00 -1.6522060960668847e+02 -6.9089424090682887e+03 +9.2169290070499049e+05 +7.0946080998076126e+07 
+2.7499999999999982e+00 -5.2603845188690013e-01 +6.9065205565887240e+00 +4.3044878738719037e+00 -1.6517624147384393e+02 -7.0096056856995283e+03 +9.2326581926407362e+05 +7.1531156218441039e+07 
+2.7999999999999980e+00 -5.2605751529111111e-01 +6.9075215185187808e+00 +4.2874784588040189e+00 -1.6511166351257941e+02 -7.1128207842824331e+03 +9.2472444457292883e+05 +7.2129981019276381e+07 
+2.8499999999999979e+00 -5.2607688224366789e-01 +6.9085369169141053e+00 +4.2702988695978856e+00 -1.6502752999595796e+02 -7.2183603527556998e+03 +9.2607052594172454e+05 +7.2741248886115342e+07 
+2.8999999999999977e+00 -5.2609655065834282e-01 +6.9095666375396485e+00 +4.2529430048267596e+00 -1.6492449517066885e+02 -7.3259971105466584e+03 +9.2730581251122104e+05 +7.3363653727022231e+07 
+2.9499999999999975e+00 -5.2611651844889074e-01 +6.9106105661567563e+00 +4.2354047590376354e+00 -1.6480321312082944e+02 -7.4355036773273559e+03 +9.2843205206765572e+05 +7.3995888815712586e+07 
+2.9999999999999973e+00 -5.2613678352909199e-01 +6.9116685885334528e+00 +4.2176780296423209e+00 -1.6466433819224980e+02 -7.5466527442581910e+03 +9.2945099450894829e+05 +7.4636647885525331e+07 
+3.0499999999999972e+00 -5.2615734381274115e-01 +6.9127405904342414e+00 +4.1997567147539447e+00 -1.6450852458524167e+02 -7.6592170216691411e+03 +9.3036438855916820e+05 +7.5284624807941124e+07 
+3.0999999999999970e+00 -5.2617819721362780e-01 +6.9138264576253121e+00 +4.1816347106457572e+00 -1.6433642655873686e+02 -7.7729691710844954e+03 +9.3117398340861266e+05 +7.5938513126755938e+07 
+3.1499999999999968e+00 -5.2619934164554705e-01 +6.9149260758736917e+00 +4.1633059124027705e+00 -1.6414869840098294e+02 -7.8876818140302912e+03 +9.3188152847778786e+05 +7.6597006090015307e+07 
+3.1999999999999966e+00 -5.2622077502231523e-01 +6.9160393309465151e+00 +4.1447642185700708e+00 -1.6394599440121914e+02 -8.0031276762616480e+03 +9.3248877320333535e+05 +7.7258797694313392e+07 
+3.2499999999999964e+00 -5.2624249525774081e-01 +6.9171661086113883e+00 +4.1260035237247727e+00 -1.6372896885584436e+02 -8.1190793629504115e+03 +9.3299746704292181e+05 +7.7922581074040875e+07 
+3.2999999999999963e+00 -5.2626450026566074e-01 +6.9183062946367953e+00 +4.1070177268362036e+00 -1.6349827609758808e+02 -8.2353096031076930e+03 +9.3340935976588959e+05 +7.8587050222773299e+07 
+3.3499999999999961e+00 -5.2628678795989414e-01 +6.9194597747933306e+00 +4.0878007223270583e+00 -1.6325457053500983e+02 -8.3515910010880943e+03 +9.3372620173219359e+05 +7.9250898288342655e+07 
+3.3999999999999959e+00 -5.2630935625429742e-01 +6.9206264348487538e+00 +4.0683464097242554e+00 -1.6299850646249061e+02 -8.4676962943469516e+03 +9.3394974238214165e+05 +7.9912819303405687e+07 
+3.4499999999999957e+00 -5.2633220306271455e-01 +6.9218061605753469e+00 +4.0486486853252304e+00 -1.6273073835124757e+02 -8.5833981361676506e+03 +9.3408173257580458e+05 +8.0571506748719081e+07 
+3.4999999999999956e+00 -5.2635532629897130e-01 +6.9229988377417451e+00 +4.0287014405958406e+00 -1.6245192052100617e+02 -8.6984690425176559e+03 +9.3412392192249431e+05 +8.1225653153674826e+07 
+3.5499999999999954e+00 -5.2637872387695572e-01 +6.9242043521223087e+00 +4.0084985774431194e+00 -1.6216270752580724e+02 -8.8126818144111076e+03 +9.3407806196263048e+05 +8.1873952988418743e+07 
+3.5999999999999952e+00 -5.2640239371053132e-01 +6.9254225894872974e+00 +3.9880339918603473e+00 -1.6186375373901987e+02 -8.9258090900609641e+03 +9.3394590269936994e+05 +8.2515099618081555e+07 
+3.6499999999999950e+00 -5.2642633371356795e-01 +6.9266534356098699e+00 +3.9673015795825886e+00 -1.6155571366222128e+02 -9.0376234954651973e+03 +9.3372919521760661e+05 +8.3147786308339700e+07 
+3.6999999999999948e+00 -5.2645054179993866e-01 +6.9278967762650279e+00 +3.9462952365242785e+00 -1.6123924186272745e+02 -9.1478976647213585e+03 +9.3342969110604096e+05 +8.3770706394807711e+07 
+3.7499999999999947e+00 -5.2647501588353940e-01 +6.9291524972243730e+00 +3.9250088608632607e+00 -1.6091499277049817e+02 -9.2564042867128665e+03 +9.3304914082082838e+05 +8.4382553566317871e+07 
+3.7999999999999945e+00 -5.2649975387825743e-01 +6.9304204842670387e+00 +3.9034363487129249e+00 -1.6058362111857781e+02 -9.3629159962251051e+03 +9.3258929727825930e+05 +8.4982021155468792e+07 
+3.8499999999999943e+00 -5.2652475369798524e-01 +6.9317006231658675e+00 +3.8815715960661921e+00 -1.6024578138547619e+02 -9.4672054216283104e+03 +9.3205191130480112e+05 +8.5567802444297373e+07 
+3.8999999999999941e+00 -5.2655001325662931e-01 +6.9329927996974279e+00 +3.8594084998400873e+00 -1.5990212819824831e+02 -9.5690452112804287e+03 +9.3143873491852917e+05 +8.6138590838071674e+07 
+3.9499999999999940e+00 -5.2657553046810202e-01 +6.9342968996399605e+00 +3.8369409577454423e+00 -1.5955331625868132e+02 -9.6682080357462764e+03 +9.3075152075587143e+05 +8.6693079895621866e+07 
+3.9999999999999938e+00 -5.2660130324630672e-01 +6.9356128087698590e+00 +3.8141628646671708e+00 -1.5920000018171490e+02 -9.7644664862863847e+03 +9.2999202073322074e+05 +8.7229962641967043e+07 
+4.0499999999999936e+00 -5.2662732939649648e-01 +6.9369404032553978e+00 +3.7910702003671291e+00 -1.5884274359085182e+02 -9.8576395320761749e+03 +9.2916188006068429e+05 +8.7748209948886260e+07 
+4.0999999999999934e+00 -5.2665360628958235e-01 +6.9382795136813620e+00 +3.7676678994931505e+00 -1.5848174158006398e+02 -9.9477382056116403e+03 +9.2826231373726111e+05 +8.8247921857402056e+07 
+4.1499999999999932e+00 -5.2668013118799051e-01 +6.9396299574552280e+00 +3.7439633187063350e+00 -1.5811709812763172e+02 -1.0034823361186074e+04 +9.2729444388962293e+05 +8.8729486166795075e+07 
+4.1999999999999931e+00 -5.2670690135417142e-01 +6.9409915519786294e+00 +3.7199638190163786e+00 -1.5774891699972446e+02 -1.0118955972922988e+04 +9.2625939090264705e+05 +8.9193291505496889e+07 
+4.2499999999999929e+00 -5.2673391405056125e-01 +6.9423641146577664e+00 +3.6956767581944385e+00 -1.5737730213241659e+02 -1.0200196922657100e+04 +9.2515827646557696e+05 +8.9639725858862087e+07 
+4.2999999999999927e+00 -5.2676116653959471e-01 +6.9437474628983038e+00 +3.6711094939057989e+00 -1.5700235747065602e+02 -1.0278607091770795e+04 +9.2399222243187425e+05 +9.0069177219534665e+07 
+4.3499999999999925e+00 -5.2678865608372305e-01 +6.9451414141016468e+00 +3.6462693863507876e+00 -1.5662418676969861e+02 -1.0354247430307138e+04 +9.2276234901394532e+05 +9.0482034047382221e+07 
+4.3999999999999924e+00 -5.2681637994537744e-01 +6.9465457856740427e+00 +3.6211637921933075e+00 -1.5624289400687019e+02 -1.0427178790100630e+04 +9.2146977830743324e+05 +9.0878684125220478e+07 
+4.4499999999999922e+00 -5.2684433538700393e-01 +6.9479603950178630e+00 +3.5958000708252440e+00 -1.5585858299997361e+02 -1.0497462101409905e+04 +9.2011563107038906e+05 +9.1259515787605196e+07 
+4.4999999999999920e+00 -5.2687251967104709e-01 +6.9493850595372741e+00 +3.5701855812498389e+00 -1.5547135764863683e+02 -1.0565158280223945e+04 +9.1870102872839675e+05 +9.1624917256868094e+07 
+4.5499999999999918e+00 -5.2690093005994820e-01 +6.9508195966369897e+00 +3.5443276817611191e+00 -1.5508132188181227e+02 -1.0630328222371609e+04 +9.1722709293394291e+05 +9.1975276615477413e+07 
+4.5999999999999917e+00 -5.2692956381614253e-01 +6.9522638237191581e+00 +3.5182337299567998e+00 -1.5468857954249864e+02 -1.0693032809309925e+04 +9.1569494467533706e+05 +9.2310981869347826e+07 
+4.6499999999999915e+00 -5.2695841820207967e-01 +6.9537175581860948e+00 +3.4919110858439870e+00 -1.5429323447983836e+02 -1.0753332982682712e+04 +9.1410570495655551e+05 +9.2632421408121184e+07 
+4.6999999999999913e+00 -5.2698749048020388e-01 +6.9551806174411785e+00 +3.4653671088742382e+00 -1.5389539059854459e+02 -1.0811289671683468e+04 +9.1246049523002550e+05 +9.2939983551361308e+07 
+4.7499999999999911e+00 -5.2701677791294343e-01 +6.9566528188873420e+00 +3.4386091559252678e+00 -1.5349515179723599e+02 -1.0866963737703096e+04 +9.1076043691264931e+05 +9.3234056165503174e+07 
+4.7999999999999909e+00 -5.2704627776273505e-01 +6.9581339799259050e+00 +3.4116445851411985e+00 -1.5309262191900814e+02 -1.0920416070698884e+04 +9.0900665095300705e+05 +9.3515027290024638e+07 
+4.8499999999999908e+00 -5.2707598729202254e-01 +6.9596239179600063e+00 +3.3844807571081592e+00 -1.5268790489580044e+02 -1.0971707631825340e+04 +9.0720025904618017e+05 +9.3783285461874917e+07 
+4.8999999999999906e+00 -5.2710590376323863e-01 +6.9611224503892295e+00 +3.3571250299766877e+00 -1.5228110452124190e+02 -1.1020899314632270e+04 +9.0534238172368100e+05 +9.4039218762264699e+07 
+4.9499999999999904e+00 -5.2713602443880880e-01 +6.9626293946155640e+00 +3.3295847615077085e+00 -1.5187232470605812e+02 -1.1068052001090296e+04 +9.0343414050740271e+05 +9.4283215182860389e+07 
+4.9999999999999902e+00 -5.2716634658116668e-01 +6.9641445680390976e+00 +3.3018673112615704e+00 -1.5146166928634912e+02 -1.1113226624005665e+04 +9.0147665625701600e+05 +9.4515663071093261e+07 
+5.0499999999999901e+00 -5.2719686745274486e-01 +6.9656677880626301e+00 +3.2739800388357918e+00 -1.5104924223445940e+02 -1.1156484113755192e+04 +8.9947105099827203e+05 +9.4736950745603994e+07 
