# multipoles
# s[mm] polynom_b[n=0][T/m^n] polynom_b[n=1][T/m^n] polynom_b[n=2][T/m^n] polynom_b[n=3][T/m^n] polynom_b[n=4][T/m^n] polynom_b[n=5][T/m^n] polynom_b[n=6][T/m^n] 
+0.0000000000000000e+00 -5.5203152879407180e-01 +7.2803283094310665e+00 +4.5439840170632451e+00 +2.2564549644869882e+00 -6.4446452207473692e+02 -2.9522939561737701e+05 +9.4821769591601230e+06 
-5.0000000000000003e-02 -5.5203111229858637e-01 +7.2802450908559138e+00 +4.5489730418204024e+00 +2.5432405424082569e+00 -7.3855543536451637e+02 -2.9695992479841411e+05 +1.0108434544128688e+07 
-1.0000000000000001e-01 -5.5203102816946048e-01 +7.2801801282852585e+00 +4.5536131527172135e+00 +2.8304798049388635e+00 -8.3251173943192146e+02 -2.9868737567765475e+05 +1.0729349890933294e+07 
-1.5000000000000002e-01 -5.5203127584614553e-01 +7.2801333835597903e+00 +4.5578979246271256e+00 +3.1179545693269719e+00 -9.2616927076377760e+02 -3.0041076106123347e+05 +1.1344019830658475e+07 
-2.0000000000000001e-01 -5.5203185476808325e-01 +7.2801048185180672e+00 +4.5618209272070978e+00 +3.4054467699517530e+00 -1.0193637189704402e+03 -3.0212909473159560e+05 +1.1951540180498576e+07 
-2.5000000000000000e-01 -5.5203276437475757e-01 +7.2800943950038768e+00 +4.5653757353325224e+00 +3.6927381443170217e+00 -1.1119309180029379e+03 -3.0384138881904352e+05 +1.2551007743263431e+07 
-2.9999999999999999e-01 -5.5203400410564085e-01 +7.2801020748556349e+00 +4.5685559188365668e+00 +3.9796106693617905e+00 -1.2037065651479863e+03 -3.0554665739776258e+05 +1.3141518399569763e+07 
-3.4999999999999998e-01 -5.5203557340023468e-01 +7.2801278199151040e+00 +4.5713550498558977e+00 +4.2658462119111640e+00 -1.2945264174264876e+03 -3.0724391364542604e+05 +1.3722168421049446e+07 
-3.9999999999999997e-01 -5.5203747169805462e-01 +7.2801715920279406e+00 +4.5737667006374885e+00 +4.5512264954618020e+00 -1.3842262370400017e+03 -3.0893216952114034e+05 +1.4292054121874154e+07 
-4.4999999999999996e-01 -5.5203969843863077e-01 +7.2802333530346246e+00 +4.5757844429594803e+00 +4.8355334828572980e+00 -1.4726417732562022e+03 -3.1061043896431878e+05 +1.4850271731600435e+07 
-4.9999999999999994e-01 -5.5204225306151189e-01 +7.2803130647789134e+00 +4.5774018493755726e+00 +5.1185490198400938e+00 -1.5596087952396356e+03 -3.1227773492564447e+05 +1.5395917606097482e+07 
-5.4999999999999993e-01 -5.5204513500625196e-01 +7.2804106891056497e+00 +4.5786124901070711e+00 +5.4000549279837315e+00 -1.6449630061197506e+03 -3.1393307012676937e+05 +1.5928087646177933e+07 
-5.9999999999999998e-01 -5.5204834371243316e-01 +7.2805261878591274e+00 +4.5794099387658838e+00 +5.6798330782906499e+00 -1.7285402074002307e+03 -3.1557545772214566e+05 +1.6445878439173022e+07 
-6.5000000000000002e-01 -5.5205187861964844e-01 +7.2806595228859736e+00 +4.5797877668722409e+00 +5.9576652600668130e+00 -1.8101761333712539e+03 -3.1720391014571389e+05 +1.6948386080727618e+07 
-7.0000000000000007e-01 -5.5205573916749728e-01 +7.2808106560310408e+00 +4.5797395453245899e+00 +6.2333333555637882e+00 -1.8897065117546301e+03 -3.1881744058615784e+05 +1.7434706661576353e+07 
-7.5000000000000011e-01 -5.5205992479560539e-01 +7.2809795491422111e+00 +4.5792588471125040e+00 +6.5066191590648277e+00 -1.9669671234145219e+03 -3.2041506154896569e+05 +1.7903936614677567e+07 
-8.0000000000000016e-01 -5.5206443494361446e-01 +7.2811661640673728e+00 +4.5783392441618185e+00 +6.7773044600432275e+00 -2.0417937105908825e+03 -3.2199578539937641e+05 +1.8355172077101048e+07 
-8.5000000000000020e-01 -5.5206926905116249e-01 +7.2813704626517426e+00 +4.5769743065038542e+00 +7.0451712052970521e+00 -2.1140219781973274e+03 -3.2355862589652388e+05 +1.8787508986414298e+07 
-9.0000000000000024e-01 -5.5207442655792838e-01 +7.2815924067488771e+00 +4.5751576082900094e+00 +7.3100009954748515e+00 -2.1834877354023961e+03 -3.2510259383205237e+05 +1.9200043956199862e+07 
-9.5000000000000029e-01 -5.5207990690359010e-01 +7.2818319582047142e+00 +4.5728827205589440e+00 +7.5715757805386179e+00 -2.2500267047928337e+03 -3.2662670293484750e+05 +1.9591873005971361e+07 
-1.0000000000000002e+00 -5.5208570952783920e-01 +7.2820890788715458e+00 +4.5701432143785787e+00 +7.8296772620685724e+00 -2.3134746125232891e+03 -3.2812996485633217e+05 +1.9962092190674145e+07 
-1.0500000000000003e+00 -5.5209183387039362e-01 +7.2823637306001308e+00 +4.5669326628242581e+00 +8.0840872275173510e+00 -2.3736672360493767e+03 -3.2961139194520860e+05 +2.0309797899812698e+07 
-1.1000000000000003e+00 -5.5209827937097444e-01 +7.2826558752424555e+00 +4.5632446370745567e+00 +8.3345874310330199e+00 -2.4304403039723138e+03 -3.3106999626537802e+05 +2.0634086202252496e+07 
-1.1500000000000004e+00 -5.5210504546931793e-01 +7.2829654746504602e+00 +4.5590727083514384e+00 +8.5809596630295850e+00 -2.4836295446520235e+03 -3.3250479021890403e+05 +2.0934053159592252e+07 
-1.2000000000000004e+00 -5.5211213160519279e-01 +7.2832924906786358e+00 +4.5544104510648182e+00 +8.8229856060481175e+00 -2.5330707710937395e+03 -3.3391478523681231e+05 +2.1208795398814697e+07 
-1.2500000000000004e+00 -5.5211953721835283e-01 +7.2836368851812567e+00 +4.5492514341374521e+00 +9.0604469879679606e+00 -2.5785996468629983e+03 -3.3529899317055772e+05 +2.1457408534032419e+07 
-1.3000000000000005e+00 -5.5212726174859561e-01 +7.2839986200139988e+00 +4.5435892321055285e+00 +9.2931254862884209e+00 -2.6200519893133037e+03 -3.3665642540610593e+05 +2.1678989226984397e+07 
-1.3500000000000005e+00 -5.5213530463570204e-01 +7.2843776570310714e+00 +4.5374174133508580e+00 +9.5208028773221205e+00 -2.6572634429936124e+03 -3.3798609421323228e+05 +2.1872632944589958e+07 
-1.4000000000000006e+00 -5.5214366531948944e-01 +7.2847739580914057e+00 +4.5307295509802490e+00 +9.7432607436557426e+00 -2.6900697863986784e+03 -3.3928701018511166e+05 +2.2037436083558392e+07 
-1.4500000000000006e+00 -5.5215234323980178e-01 +7.2851874850519440e+00 +4.5235192201508116e+00 +9.9602807778916080e+00 -2.7183068545839060e+03 -3.4055818485199427e+05 +2.2172495430999354e+07 
-1.5000000000000007e+00 -5.5216133783645760e-01 +7.2856181997714566e+00 +4.5157799882885685e+00 +1.0171644616089417e+01 -2.7418102611526961e+03 -3.4179862927126320e+05 +2.2276906222859163e+07 
-1.5500000000000007e+00 -5.5217064854932452e-01 +7.2860660641079065e+00 +4.5075054296221797e+00 +1.0377133944836865e+01 -2.7604158135749144e+03 -3.4300735490452853e+05 +2.2349765050293040e+07 
-1.6000000000000008e+00 -5.5218027481826548e-01 +7.2865310399239851e+00 +4.4986891152064512e+00 +1.0576530278975527e+01 -2.7739592308391661e+03 -3.4418337181883119e+05 +2.2390167890553169e+07 
-1.6500000000000008e+00 -5.5219021608317709e-01 +7.2870130890805962e+00 +4.4893246189667675e+00 +1.0769615221300558e+01 -2.7822763054700072e+03 -3.4532569077019655e+05 +2.2397211207729694e+07 
-1.7000000000000008e+00 -5.5220047178393750e-01 +7.2875121734391701e+00 +4.4794055093843594e+00 +1.0956170372556615e+01 -2.7852026830180989e+03 -3.4643332251053222e+05 +2.2369990468571711e+07 
-1.7500000000000009e+00 -5.5221104136047139e-01 +7.2880282548630477e+00 +4.4689253608541843e+00 +1.1135977280903946e+01 -2.7825741718880199e+03 -3.4750527738588577e+05 +2.2307602256487966e+07 
-1.8000000000000009e+00 -5.5222192425269223e-01 +7.2885612952176047e+00 +4.4578777431058514e+00 +1.1308817417876666e+01 -2.7742264481901225e+03 -3.4854056505526806e+05 +2.2209142232965492e+07 
-1.8500000000000010e+00 -5.5223311990055268e-01 +7.2891112563679439e+00 +4.4462562307369593e+00 +1.1474472295295005e+01 -2.7599953256713466e+03 -3.4953819555719453e+05 +2.2073707016438752e+07 
-1.9000000000000010e+00 -5.5224462774400307e-01 +7.2896781001792048e+00 +4.4340543949933497e+00 +1.1632723432135379e+01 -2.7397165188208091e+03 -3.5049717895286641e+05 +2.1900392518911630e+07 
-1.9500000000000011e+00 -5.5225644722300626e-01 +7.2902617885196950e+00 +4.4212658071702631e+00 +1.1783352246293791e+01 -2.7132257482117807e+03 -3.5141652450496168e+05 +2.1688294715467174e+07 
-2.0000000000000009e+00 -5.5226857777754235e-01 +7.2908622832573027e+00 +4.4078840389775946e+00 +1.1926140190008628e+01 -2.6803587406723645e+03 -3.5229524175805558e+05 +2.1436509601689305e+07 
-2.0500000000000007e+00 -5.5228101866254775e-01 +7.2914795306480089e+00 +4.3939060734517605e+00 +1.2060968100181011e+01 -2.6410253148666152e+03 -3.5313255164477351e+05 +2.1144576271228116e+07 
-2.1000000000000005e+00 -5.5229376839312527e-01 +7.2921134084908008e+00 +4.3793430492756649e+00 +1.2188116288494308e+01 -2.5954364502903200e+03 -3.5392852897159540e+05 +2.0813826904040124e+07 
-2.1500000000000004e+00 -5.5230682529952702e-01 +7.2927637759616273e+00 +4.3642097834249185e+00 +1.2307964964162140e+01 -2.5438796703625080e+03 -3.5468346297242062e+05 +2.0446047497049537e+07 
-2.2000000000000002e+00 -5.5232018771201385e-01 +7.2934304922390458e+00 +4.3485210919598636e+00 +1.2420894256447053e+01 -2.4866424725967049e+03 -3.5539764229058038e+05 +2.0043023871557087e+07 
-2.2500000000000000e+00 -5.5233385396085577e-01 +7.2941134164985666e+00 +4.3322917911009196e+00 +1.2527284420985582e+01 -2.4240123630110847e+03 -3.5607135655762086e+05 +1.9606541920042235e+07 
-2.2999999999999998e+00 -5.5234782237634572e-01 +7.2948124079237191e+00 +4.3155366991262429e+00 +1.2627515409321699e+01 -2.3562769022639523e+03 -3.5670489293628035e+05 +1.9138387898288291e+07 
-2.3499999999999996e+00 -5.5236209128877400e-01 +7.2955273256874458e+00 +4.2982706320172985e+00 +1.2721967618444406e+01 -2.2837235893414281e+03 -3.5729854224192759e+05 +1.8640347643844157e+07 
-2.3999999999999995e+00 -5.5237665902844357e-01 +7.2962580289707697e+00 +4.2805084058453859e+00 +1.2811021132202173e+01 -2.2066399259116292e+03 -3.5785259272892511e+05 +1.8114207014913660e+07 
-2.4499999999999993e+00 -5.5239152392567414e-01 +7.2970043769532271e+00 +4.2622648385224924e+00 +1.2895056103171383e+01 -2.1253134667145682e+03 -3.5836733319720975e+05 +1.7561752234791864e+07 
-2.4999999999999991e+00 -5.5240668431079298e-01 +7.2977662288112946e+00 +4.2435547471104034e+00 +1.2974452830314476e+01 -2.0400317430301325e+03 -3.5884305367891089e+05 +1.6984769366045270e+07 
-2.5499999999999989e+00 -5.5242213851412436e-01 +7.2985434437248440e+00 +4.2243929464789094e+00 +1.3049591486349943e+01 -1.9510822261041267e+03 -3.5928004316413210e+05 +1.6385044059800519e+07 
-2.5999999999999988e+00 -5.5243788486603196e-01 +7.2993358808735493e+00 +4.2047942569231944e+00 +1.3120852263205789e+01 -1.8587525374743777e+03 -3.5967859079300886e+05 +1.5764362994599322e+07 
-2.6499999999999986e+00 -5.5245392169684771e-01 +7.3001433994363065e+00 +4.1847734910232894e+00 +1.3188615398246300e+01 -1.7633300875503971e+03 -3.6003898608554044e+05 +1.5124511410650508e+07 
-2.6999999999999984e+00 -5.5247024733694894e-01 +7.3009658585917965e+00 +4.1643454687235950e+00 +1.3253261155052400e+01 -1.6651024938472601e+03 -3.6036151879569632e+05 +1.4467275974802792e+07 
-2.7499999999999982e+00 -5.5248686011670756e-01 +7.3018031175169567e+00 +4.1435250065603979e+00 +1.3315169883040056e+01 -1.5643572761144474e+03 -3.6064647939045972e+05 +1.3794442669007851e+07 
-2.7999999999999980e+00 -5.5250375836649723e-01 +7.3026550353940518e+00 +4.1223269200555572e+00 +1.3374721713556129e+01 -1.4613819299186102e+03 -3.6089415650320420e+05 +1.3107797322675763e+07 
-2.8499999999999979e+00 -5.5252094041671795e-01 +7.3035214713986836e+00 +4.1007660280437488e+00 +1.3432297082784679e+01 -1.3564640424984486e+03 -3.6110484135406581e+05 +1.2409126387954848e+07 
-2.8999999999999977e+00 -5.5253840459776471e-01 +7.3044022847128964e+00 +4.0788571468953796e+00 +1.3488276161401803e+01 -1.2498911355519169e+03 -3.6127882292572007e+05 +1.1700215877530538e+07 
-2.9499999999999975e+00 -5.5255614924003860e-01 +7.3052973345117493e+00 +4.0566150927705973e+00 +1.3543039426015893e+01 -1.1419507272973219e+03 -3.6141639276068704e+05 +1.0982851784483757e+07 
-2.9999999999999973e+00 -5.5257417267395958e-01 +7.3062064799753239e+00 +4.0340546836792672e+00 +1.3596967150317443e+01 -1.0329303873557221e+03 -3.6151784069229459e+05 +1.0258820451879675e+07 
-3.0499999999999972e+00 -5.5259247322994975e-01 +7.3071295802822114e+00 +4.0111907365213915e+00 +1.3650439694695862e+01 -9.2311765509465999e+02 -3.6158345733516064e+05 +9.5299080138814431e+06 
-3.0999999999999970e+00 -5.5261104923844051e-01 +7.3080664946073686e+00 +3.9880380684807322e+00 +1.3703837566117505e+01 -8.1280007958370356e+02 -3.6161353445745620e+05 +8.7979006754961237e+06 
-3.1499999999999968e+00 -5.5262989902986703e-01 +7.3090170821307217e+00 +3.9646114963348347e+00 +1.3757541088625844e+01 -7.0226520189900180e+02 -3.6160836236875155e+05 +8.0645845943658836e+06 
-3.1999999999999966e+00 -5.5264902093467905e-01 +7.3099812020287454e+00 +3.9409258382019483e+00 +1.3811930738745094e+01 -5.9180060222405564e+02 -3.6156823264633567e+05 +7.3317462014621710e+06 
-3.2499999999999964e+00 -5.5266841328332517e-01 +7.3109587134781657e+00 +3.9169959103762881e+00 +1.3867386987999916e+01 -4.8169380970193879e+02 -3.6149343680505402e+05 +6.6011715720945280e+06 
-3.2999999999999963e+00 -5.5268807440626178e-01 +7.3119494756546475e+00 +3.8928365299552303e+00 +1.3924290363436507e+01 -3.7223238238264832e+02 -3.6138426682890597e+05 +5.8746470003789552e+06 
-3.3499999999999961e+00 -5.5270800263396225e-01 +7.3129533477364053e+00 +3.8684625150510601e+00 +1.3983021306133194e+01 -2.6370389974148458e+02 -3.6124101404350903e+05 +5.1539588985497486e+06 
-3.3999999999999959e+00 -5.5272819629689873e-01 +7.3139701888969659e+00 +3.8438886829819032e+00 +1.4043960448160396e+01 -1.5639592742342612e+02 -3.6106397130418406e+05 +4.4408936113213282e+06 
-3.4499999999999957e+00 -5.5274865372553839e-01 +7.3149998583128442e+00 +3.8191298493996340e+00 +1.4107488312453398e+01 -5.0595991063830915e+01 -3.6085343059083540e+05 +3.7372372271331269e+06 
-3.4999999999999956e+00 -5.5276937325038589e-01 +7.3160422151569922e+00 +3.7942008345729508e+00 +1.4173985586465015e+01 +5.3408265881070029e+01 -3.6060968528505077e+05 +3.0447766014963160e+06 
-3.5499999999999954e+00 -5.5279035320192194e-01 +7.3170971186051084e+00 +3.7691164543619147e+00 +1.4243832842597346e+01 +1.5532930891860241e+02 -3.6033302778380463e+05 +2.3652978877939954e+06 
-3.5999999999999952e+00 -5.5281159191063800e-01 +7.3181644278294744e+00 +3.7438915251651119e+00 +1.4317410813719412e+01 +2.5487959045671545e+02 -3.6002375185682654e+05 +1.7005873170284736e+06 
-3.6499999999999950e+00 -5.5283308770704764e-01 +7.3192440020043437e+00 +3.7185408661960109e+00 +1.4395100146949709e+01 +3.5177148498469541e+02 -3.5968215052606631e+05 +1.0524316516120657e+06 
-3.6999999999999948e+00 -5.5285483892165521e-01 +7.3203357003018104e+00 +3.6930792947022253e+00 +1.4477281597355928e+01 +4.4571741312326918e+02 -3.5930851775305485e+05 +4.2261736333702499e+05 
-3.7499999999999947e+00 -5.5287684388497549e-01 +7.3214393818925583e+00 +3.6675216279927509e+00 +1.4564335992639567e+01 +5.3642979912726639e+02 -3.5890314813342574e+05 -1.8706912513976166e+05 
-3.7999999999999945e+00 -5.5289910092752104e-01 +7.3225549059494579e+00 +3.6418826829866173e+00 +1.4656644060646345e+01 +6.2362106768317437e+02 -3.5846633538440161e+05 -7.7484136014809937e+05 
-3.8499999999999943e+00 -5.5292160837982018e-01 +7.3236821316395462e+00 +3.6161772780754409e+00 +1.4754586795668008e+01 +7.0700360489140735e+02 -3.5799837549831247e+05 -1.3389126361095200e+06 
-3.8999999999999941e+00 -5.5294436457239993e-01 +7.3248209181355337e+00 +3.5904202307332143e+00 +1.4858544949732705e+01 +7.8628982028707935e+02 -3.5749956241561292e+05 -1.8774964065240622e+06 
-3.9499999999999940e+00 -5.5296736783579981e-01 +7.3259711246066681e+00 +3.5646263598704127e+00 +1.4968899440317108e+01 +8.6119207806323880e+02 -3.5697019151940756e+05 -2.3888057950889631e+06 
-3.9999999999999938e+00 -5.5299061650054859e-01 +7.3271326102173528e+00 +3.5388104819868125e+00 +1.5086031385966544e+01 +9.3142280973032973e+02 -3.5641055981509964e+05 -2.8710543987142560e+06 
-4.0499999999999936e+00 -5.5301410876575630e-01 +7.3283052339587380e+00 +3.5129854025279266e+00 +1.5210284441428440e+01 +9.9675165967266094e+02 -3.5582173154333141e+05 -3.3228293892092067e+06 
-4.0999999999999934e+00 -5.5303784230363340e-01 +7.3294888489438828e+00 +3.4871556854833154e+00 +1.5341802833326106e+01 +1.0571864269814746e+03 -3.5520759722172498e+05 -3.7442222050576955e+06 
-4.1499999999999932e+00 -5.5306181465431692e-01 +7.3306833055197709e+00 +3.4613237923458584e+00 +1.5480668758773744e+01 +1.1127972041903733e+03 -3.5457271817758557e+05 -4.1357053185674031e+06 
-4.1999999999999931e+00 -5.5308602335797752e-01 +7.3318884540338267e+00 +3.4354921900540702e+00 +1.5626964400347697e+01 +1.1636539395085431e+03 -3.5392165578555601e+05 -4.4977502214619089e+06 
-4.2499999999999929e+00 -5.5311046595477231e-01 +7.3331041448385674e+00 +3.4096633424753353e+00 +1.5780771712538735e+01 +1.2098266654008610e+03 -3.5325896946923860e+05 -4.8308289726659814e+06 
-4.2999999999999927e+00 -5.5313513998485220e-01 +7.3343302282811091e+00 +3.3838397126269122e+00 +1.5942172874964283e+01 +1.2513854322749917e+03 -3.5258922054909065e+05 -5.1354137286125142e+06 
-4.3499999999999925e+00 -5.5316004298839283e-01 +7.3355665547092954e+00 +3.3580237664215167e+00 +1.6111250034917841e+01 +1.2884002222780964e+03 -3.5191697008103540e+05 -5.4119762163210539e+06 
-4.3999999999999924e+00 -5.5318517250554278e-01 +7.3368129744708117e+00 +3.3322179655674895e+00 +1.6288085331696845e+01 +1.3209411238241764e+03 -3.5124677902010002e+05 -5.6609888466447061e+06 
-4.4499999999999922e+00 -5.5321052607646759e-01 +7.3380693379150825e+00 +3.3064247740428288e+00 +1.6472760825790825e+01 +1.3490781669801891e+03 -3.5058320768395765e+05 -5.8829236413423391e+06 
-4.4999999999999920e+00 -5.5323610124134204e-01 +7.3393354953862229e+00 +3.2806466568981034e+00 +1.6665358794837896e+01 +1.3728813588919804e+03 -3.4993081817878957e+05 -6.0782524849564601e+06 
-4.5499999999999918e+00 -5.5326189554033767e-01 +7.3406112972353856e+00 +3.2548860787507725e+00 +1.6865961216518464e+01 +1.3924207124781963e+03 -3.4929417013612948e+05 -6.2474472694783406e+06 
-4.5999999999999917e+00 -5.5328790651360504e-01 +7.3418965938077436e+00 +3.2291454999954556e+00 +1.7074650301858934e+01 +1.4077663603710162e+03 -3.4867782509338012e+05 -6.3909807128234012e+06 
-4.6499999999999915e+00 -5.5331413170132560e-01 +7.3431912354500248e+00 +3.2034273864951168e+00 +1.7291508189175612e+01 +1.4189882852641504e+03 -3.4808634398529778e+05 -6.5093245012290040e+06 
-4.6999999999999913e+00 -5.5334056864366166e-01 +7.3444950725064375e+00 +3.1777342003573730e+00 +1.7516617108726543e+01 +1.4261565768219771e+03 -3.4752428849021165e+05 -6.6029510625354303e+06 
-4.7499999999999911e+00 -5.5336721488077922e-01 +7.3458079553257560e+00 +3.1520684044319882e+00 +1.7750059104829536e+01 +1.4293413004907861e+03 -3.4699621879766916e+05 -6.6723326310338629e+06 
-4.7999999999999909e+00 -5.5339406795284551e-01 +7.3471297342523592e+00 +3.1264324613589860e+00 +1.7991916376466222e+01 +1.4286125335422807e+03 -3.4650669631441974e+05 -6.7179415408108765e+06 
-4.8499999999999908e+00 -5.5342112540003618e-01 +7.3484602596308202e+00 +3.1008288357061069e+00 +1.8242271103463008e+01 +1.4240402978275536e+03 -3.4606028227483114e+05 -6.7402497291825600e+06 
-4.8999999999999906e+00 -5.5344838476251090e-01 +7.3497993818058385e+00 +3.0752599884696918e+00 +1.8501205462478435e+01 +1.4156947190944259e+03 -3.4566153794517560e+05 -6.7397298557222998e+06 
-4.9499999999999904e+00 -5.5347584358043700e-01 +7.3511469511242291e+00 +3.0497283829240662e+00 +1.8768801515178339e+01 +1.4036458553018326e+03 -3.4531502358310408e+05 -6.7168540913523957e+06 
-4.9999999999999902e+00 -5.5350349939397614e-01 +7.3525028179250116e+00 +3.0242364805773385e+00 +1.9045141632304517e+01 +1.3879638195647608e+03 -3.4502530198414047e+05 -6.6720949951269152e+06 
-5.0499999999999901e+00 -5.5353134974329554e-01 +7.3538668325572969e+00 +2.9987867443587781e+00 +1.9330307766365816e+01 +1.3687186871654592e+03 -3.4479693253962701e+05 -6.6059248686756101e+06 
