# field on trajectory
# s[mm] rx[mm] ry[mm] rz[mm] bx[T] by[T] bz[T]
0.0000000000000000e+00 +8.2850000000000001e+00 +0.0000000000000000e+00 +0.0000000000000000e+00 -2.8652466830706876e-02 -5.5381324875859772e-01 +5.6930485610684027e-03
-5.0000000000000003e-02 +8.2849999311233695e+00 +0.0000000000000000e+00 -4.9999999999936748e-02 -2.8652911021261801e-02 -5.5381304588817648e-01 +5.6935882768986562e-03
-1.0000000000000001e-01 +8.2849997244934972e+00 +0.0000000000000000e+00 -9.9999999999493966e-02 -2.8653378229089071e-02 -5.5381324593575354e-01 +5.6941291519694249e-03
-1.5000000000000002e-01 +8.2849993801103317e+00 +0.0000000000000000e+00 -1.4999999999829217e-01 -2.8653868342912944e-02 -5.5381384797422251e-01 +5.6946711477314895e-03
-2.0000000000000001e-01 +8.2849988979737237e+00 +0.0000000000000000e+00 -1.9999999999595180e-01 -2.8654381251458784e-02 -5.5381485107649442e-01 +5.6952142256357198e-03
-2.5000000000000000e-01 +8.2849982780834228e+00 +0.0000000000000000e+00 -2.4999999999209335e-01 -2.8654916843453074e-02 -5.5381625431550019e-01 +5.6957583471330623e-03
-2.9999999999999999e-01 +8.2849975204390809e+00 +0.0000000000000000e+00 -2.9999999998633731e-01 -2.8655475007623377e-02 -5.5381805676418805e-01 +5.6963034736745586e-03
-3.4999999999999998e-01 +8.2849966250402503e+00 +0.0000000000000000e+00 -3.4999999997830411e-01 -2.8656055632698268e-02 -5.5382025749552521e-01 +5.6968495667113137e-03
-3.9999999999999997e-01 +8.2849955918863820e+00 +0.0000000000000000e+00 -3.9999999996761426e-01 -2.8656658607407331e-02 -5.5382285558249633e-01 +5.6973965876945106e-03
-4.4999999999999996e-01 +8.2849944209768314e+00 +0.0000000000000000e+00 -4.4999999995388817e-01 -2.8657283820481105e-02 -5.5382585009810492e-01 +5.6979444980754098e-03
-4.9999999999999994e-01 +8.2849931123108522e+00 +0.0000000000000000e+00 -4.9999999993674626e-01 -2.8657931160651066e-02 -5.5382924011537227e-01 +5.6984932593053235e-03
-5.4999999999999993e-01 +8.2849916658876026e+00 +0.0000000000000000e+00 -5.4999999991580906e-01 -2.8658600516649591e-02 -5.5383302470733775e-01 +5.6990428328356412e-03
-5.9999999999999998e-01 +8.2849900817061410e+00 +0.0000000000000000e+00 -5.9999999989069697e-01 -2.8659291777209901e-02 -5.5383720294705807e-01 +5.6995931801178098e-03
-6.5000000000000002e-01 +8.2849883597654284e+00 +0.0000000000000000e+00 -6.4999999986103030e-01 -2.8660004831066045e-02 -5.5384177390760880e-01 +5.7001442626033209e-03
-7.0000000000000007e-01 +8.2849865000643259e+00 +0.0000000000000000e+00 -6.9999999982642958e-01 -2.8660739566952854e-02 -5.5384673666208217e-01 +5.7006960417437290e-03
-7.5000000000000011e-01 +8.2849845026016009e+00 +0.0000000000000000e+00 -7.4999999978651521e-01 -2.8661495873605964e-02 -5.5385209028358851e-01 +5.7012484789906344e-03
-8.0000000000000016e-01 +8.2849823673759211e+00 +0.0000000000000000e+00 -7.9999999974090752e-01 -2.8662273639761655e-02 -5.5385783384525633e-01 +5.7018015357956841e-03
-8.5000000000000020e-01 +8.2849800943858583e+00 +0.0000000000000000e+00 -8.4999999968922690e-01 -2.8663072754156912e-02 -5.5386396642023061e-01 +5.7023551736105583e-03
-9.0000000000000024e-01 +8.2849776836298865e+00 +0.0000000000000000e+00 -8.9999999963109367e-01 -2.8663893105529411e-02 -5.5387048708167441e-01 +5.7029093538869874e-03
-9.5000000000000029e-01 +8.2849751351063858e+00 +0.0000000000000000e+00 -9.4999999956612813e-01 -2.8664734582617403e-02 -5.5387739490276811e-01 +5.7034640380767259e-03
-1.0000000000000002e+00 +8.2849724488136367e+00 +0.0000000000000000e+00 -9.9999999949395058e-01 -2.8665597074159704e-02 -5.5388468895670806e-01 +5.7040191876315616e-03
-1.0500000000000003e+00 +8.2849696247498237e+00 +0.0000000000000000e+00 -1.0499999994141813e+00 -2.8666480468895736e-02 -5.5389236831671007e-01 +5.7045747640033142e-03
-1.1000000000000003e+00 +8.2849666629130390e+00 +0.0000000000000000e+00 -1.0999999993264407e+00 -2.8667384655565370e-02 -5.5390043205600581e-01 +5.7051307286438199e-03
-1.1500000000000004e+00 +8.2849635633012753e+00 +0.0000000000000000e+00 -1.1499999992303489e+00 -2.8668309522908976e-02 -5.5390887924784371e-01 +5.7056870430049417e-03
-1.2000000000000004e+00 +8.2849603259124311e+00 +0.0000000000000000e+00 -1.1999999991255261e+00 -2.8669254959667365e-02 -5.5391770896548942e-01 +5.7062436685385506e-03
-1.2500000000000004e+00 +8.2849569507443110e+00 +0.0000000000000000e+00 -1.2499999990115926e+00 -2.8670220854581749e-02 -5.5392692028222557e-01 +5.7068005666965332e-03
-1.3000000000000005e+00 +8.2849534377946252e+00 +0.0000000000000000e+00 -1.2999999988881688e+00 -2.8671207096393710e-02 -5.5393651227135177e-01 +5.7073576989307923e-03
-1.3500000000000005e+00 +8.2849497870609863e+00 +0.0000000000000000e+00 -1.3499999987548743e+00 -2.8672213573845143e-02 -5.5394648400618385e-01 +5.7079150266932275e-03
-1.4000000000000006e+00 +8.2849459985409144e+00 +0.0000000000000000e+00 -1.3999999986113296e+00 -2.8673240175678301e-02 -5.5395683456005440e-01 +5.7084725114357419e-03
-1.4500000000000006e+00 +8.2849420722318339e+00 +0.0000000000000000e+00 -1.4499999984571548e+00 -2.8674286790635644e-02 -5.5396756300631289e-01 +5.7090301146102401e-03
-1.5000000000000007e+00 +8.2849380081310784e+00 +0.0000000000000000e+00 -1.4999999982919698e+00 -2.8675353307459874e-02 -5.5397866841832533e-01 +5.7095877976686164e-03
-1.5500000000000007e+00 +8.2849338062358839e+00 +0.0000000000000000e+00 -1.5499999981153947e+00 -2.8676439614893905e-02 -5.5399014986947326e-01 +5.7101455220627626e-03
-1.6000000000000008e+00 +8.2849294665433959e+00 +0.0000000000000000e+00 -1.5999999979270496e+00 -2.8677545601680787e-02 -5.5400200643315523e-01 +5.7107032492445513e-03
-1.6500000000000008e+00 +8.2849249890506638e+00 +0.0000000000000000e+00 -1.6499999977265545e+00 -2.8678671156563744e-02 -5.5401423718278608e-01 +5.7112609406658440e-03
-1.7000000000000008e+00 +8.2849203737546464e+00 +0.0000000000000000e+00 -1.6999999975135291e+00 -2.8679816168286028e-02 -5.5402684119179657e-01 +5.7118185577784784e-03
-1.7500000000000009e+00 +8.2849156206522085e+00 +0.0000000000000000e+00 -1.7499999972875935e+00 -2.8680980525590972e-02 -5.5403981753363352e-01 +5.7123760620342709e-03
-1.8000000000000009e+00 +8.2849107297401225e+00 +0.0000000000000000e+00 -1.7999999970483673e+00 -2.8682164117221944e-02 -5.5405316528176018e-01 +5.7129334148850151e-03
-1.8500000000000010e+00 +8.2849057010150684e+00 +0.0000000000000000e+00 -1.8499999967954708e+00 -2.8683366831922279e-02 -5.5406688350965450e-01 +5.7134905777824667e-03
-1.9000000000000010e+00 +8.2849005344736337e+00 +0.0000000000000000e+00 -1.8999999965285235e+00 -2.8684588558435267e-02 -5.5408097129081202e-01 +5.7140475121783474e-03
-1.9500000000000011e+00 +8.2848952301123155e+00 +0.0000000000000000e+00 -1.9499999962471453e+00 -2.8685829185504112e-02 -5.5409542769874265e-01 +5.7146041795243475e-03
-2.0000000000000009e+00 +8.2848897879275167e+00 +0.0000000000000000e+00 -1.9999999959509558e+00 -2.8687088601871896e-02 -5.5411025180697293e-01 +5.7151605412721108e-03
-2.0500000000000007e+00 +8.2848842079155514e+00 +0.0000000000000000e+00 -2.0499999956395745e+00 -2.8688366689427688e-02 -5.5412544246165796e-01 +5.7157165591932204e-03
-2.1000000000000005e+00 +8.2848784900726393e+00 +0.0000000000000000e+00 -2.0999999953126212e+00 -2.8689663302645361e-02 -5.5414099759942281e-01 +5.7162721963390757e-03
-2.1500000000000004e+00 +8.2848726343949135e+00 +0.0000000000000000e+00 -2.1499999949697157e+00 -2.8690978289146095e-02 -5.5415691492951857e-01 +5.7168274160808441e-03
-2.2000000000000002e+00 +8.2848666408784126e+00 +0.0000000000000000e+00 -2.1999999946104776e+00 -2.8692311496552492e-02 -5.5417319216120886e-01 +5.7173821817894672e-03
-2.2500000000000000e+00 +8.2848605095190901e+00 +0.0000000000000000e+00 -2.2499999942345261e+00 -2.8693662772488599e-02 -5.5418982700376984e-01 +5.7179364568356334e-03
-2.2999999999999998e+00 +8.2848542403128071e+00 +0.0000000000000000e+00 -2.2999999938414808e+00 -2.8695031964579957e-02 -5.5420681716648823e-01 +5.7184902045897667e-03
-2.3499999999999996e+00 +8.2848478332553377e+00 +0.0000000000000000e+00 -2.3499999934309610e+00 -2.8696418920453663e-02 -5.5422416035866329e-01 +5.7190433884220255e-03
-2.3999999999999995e+00 +8.2848412883423688e+00 +0.0000000000000000e+00 -2.3999999930025862e+00 -2.8697823487738444e-02 -5.5424185428960537e-01 +5.7195959717022691e-03
-2.4499999999999993e+00 +8.2848346055694986e+00 +0.0000000000000000e+00 -2.4499999925559757e+00 -2.8699245514064692e-02 -5.5425989666863507e-01 +5.7201479178000635e-03
-2.4999999999999991e+00 +8.2848277849322400e+00 +0.0000000000000000e+00 -2.4999999920907490e+00 -2.8700684847064544e-02 -5.5427828520508460e-01 +5.7206991900846538e-03
-2.5499999999999989e+00 +8.2848208264260190e+00 +0.0000000000000000e+00 -2.5499999916065250e+00 -2.8702141334371895e-02 -5.5429701760829708e-01 +5.7212497519249584e-03
-2.5999999999999988e+00 +8.2848137300461762e+00 +0.0000000000000000e+00 -2.5999999911029232e+00 -2.8703614823622502e-02 -5.5431609158762429e-01 +5.7217995666895474e-03
-2.6499999999999986e+00 +8.2848064957879686e+00 +0.0000000000000000e+00 -2.6499999905795626e+00 -2.8705105162454024e-02 -5.5433550485242955e-01 +5.7223485977466433e-03
-2.6999999999999984e+00 +8.2847991236465663e+00 +0.0000000000000000e+00 -2.6999999900360621e+00 -2.8706612198506079e-02 -5.5435525511208528e-01 +5.7228968084640916e-03
-2.7499999999999982e+00 +8.2847916136170561e+00 +0.0000000000000000e+00 -2.7499999894720406e+00 -2.8708135779420295e-02 -5.5437534007597322e-01 +5.7234441622093599e-03
-2.7999999999999980e+00 +8.2847839656944426e+00 +0.0000000000000000e+00 -2.7999999888871177e+00 -2.8709675752840350e-02 -5.5439575745348479e-01 +5.7239906223495104e-03
-2.8499999999999979e+00 +8.2847761798736492e+00 +0.0000000000000000e+00 -2.8499999882809117e+00 -2.8711231966412096e-02 -5.5441650495402039e-01 +5.7245361522512061e-03
-2.8999999999999977e+00 +8.2847682561495137e+00 +0.0000000000000000e+00 -2.8999999876530418e+00 -2.8712804267783516e-02 -5.5443758028698875e-01 +5.7250807152806780e-03
-2.9499999999999975e+00 +8.2847601945167941e+00 +0.0000000000000000e+00 -2.9499999870031268e+00 -2.8714392504604860e-02 -5.5445898116180758e-01 +5.7256242748037183e-03
-2.9999999999999973e+00 +8.2847519949701667e+00 +0.0000000000000000e+00 -2.9999999863307854e+00 -2.8715996524528678e-02 -5.5448070528790239e-01 +5.7261667941856725e-03
-3.0499999999999972e+00 +8.2847436575042295e+00 +0.0000000000000000e+00 -3.0499999856356359e+00 -2.8717616175209872e-02 -5.5450275037470664e-01 +5.7267082367914186e-03
-3.0999999999999970e+00 +8.2847351821134989e+00 +0.0000000000000000e+00 -3.0999999849172974e+00 -2.8719251304305748e-02 -5.5452511413166239e-01 +5.7272485659853618e-03
-3.1499999999999968e+00 +8.2847265687924114e+00 +0.0000000000000000e+00 -3.1499999841753885e+00 -2.8720901759476086e-02 -5.5454779426821821e-01 +5.7277877451314052e-03
-3.1999999999999966e+00 +8.2847178175353271e+00 +0.0000000000000000e+00 -3.1999999834095276e+00 -2.8722567388383174e-02 -5.5457078849383035e-01 +5.7283257375929523e-03
-3.2499999999999964e+00 +8.2847089283365243e+00 +0.0000000000000000e+00 -3.2499999826193333e+00 -2.8724248038691905e-02 -5.5459409451796160e-01 +5.7288625067328843e-03
-3.2999999999999963e+00 +8.2846999011902085e+00 +0.0000000000000000e+00 -3.2999999818044237e+00 -2.8725943558069775e-02 -5.5461771005008220e-01 +5.7293980159135588e-03
-3.3499999999999961e+00 +8.2846907360905053e+00 +0.0000000000000000e+00 -3.3499999809644172e+00 -2.8727653794187024e-02 -5.5464163279966838e-01 +5.7299322284967771e-03
-3.3999999999999959e+00 +8.2846814330314640e+00 +0.0000000000000000e+00 -3.3999999800989325e+00 -2.8729378594716595e-02 -5.5466586047620248e-01 +5.7304651078437813e-03
-3.4499999999999957e+00 +8.2846719920070573e+00 +0.0000000000000000e+00 -3.4499999792075871e+00 -2.8731117807334255e-02 -5.5469039078917337e-01 +5.7309966173152488e-03
-3.4999999999999956e+00 +8.2846624130111852e+00 +0.0000000000000000e+00 -3.4999999782899995e+00 -2.8732871279718665e-02 -5.5471522144807450e-01 +5.7315267202712582e-03
-3.5499999999999954e+00 +8.2846526960376714e+00 +0.0000000000000000e+00 -3.5499999773457880e+00 -2.8734638859551343e-02 -5.5474035016240641e-01 +5.7320553800712954e-03
-3.5999999999999952e+00 +8.2846428410802648e+00 +0.0000000000000000e+00 -3.5999999763745700e+00 -2.8736420394516855e-02 -5.5476577464167365e-01 +5.7325825600742309e-03
-3.6499999999999950e+00 +8.2846328481326434e+00 +0.0000000000000000e+00 -3.6499999753759642e+00 -2.8738215732302747e-02 -5.5479149259538596e-01 +5.7331082236383056e-03
-3.6999999999999948e+00 +8.2846227171884088e+00 +0.0000000000000000e+00 -3.6999999743495882e+00 -2.8740024720599687e-02 -5.5481750173305810e-01 +5.7336323341211195e-03
-3.7499999999999947e+00 +8.2846124482410914e+00 +0.0000000000000000e+00 -3.7499999732950595e+00 -2.8741847207101483e-02 -5.5484379976420872e-01 +5.7341548548796176e-03
-3.7999999999999945e+00 +8.2846020412841508e+00 +0.0000000000000000e+00 -3.7999999722119959e+00 -2.8743683039505131e-02 -5.5487038439836145e-01 +5.7346757492700790e-03
-3.8499999999999943e+00 +8.2845914963109752e+00 +0.0000000000000000e+00 -3.8499999711000155e+00 -2.8745532065510924e-02 -5.5489725334504303e-01 +5.7351949806480965e-03
-3.8999999999999941e+00 +8.2845808133148804e+00 +0.0000000000000000e+00 -3.8999999699587353e+00 -2.8747394132822447e-02 -5.5492440431378454e-01 +5.7357125123685716e-03
-3.9499999999999940e+00 +8.2845699922891125e+00 +0.0000000000000000e+00 -3.9499999687877736e+00 -2.8749269089146677e-02 -5.5495183501412026e-01 +5.7362283077856940e-03
-3.9999999999999938e+00 +8.2845590332268504e+00 +0.0000000000000000e+00 -3.9999999675867470e+00 -2.8751156782193983e-02 -5.5497954315558706e-01 +5.7367423302529270e-03
-4.0499999999999936e+00 +8.2845479361212000e+00 +0.0000000000000000e+00 -4.0499999663552737e+00 -2.8753057075978503e-02 -5.5500752636605355e-01 +5.7372545459627930e-03
-4.0999999999999934e+00 +8.2845367009652033e+00 +0.0000000000000000e+00 -4.0999999650929704e+00 -2.8754969899717053e-02 -5.5503578194669845e-01 +5.7377649324664550e-03
-4.1499999999999932e+00 +8.2845253277518314e+00 +0.0000000000000000e+00 -4.1499999637994547e+00 -2.8756895198925297e-02 -5.5506430711702903e-01 +5.7382734701547523e-03
-4.1999999999999931e+00 +8.2845138164739893e+00 +0.0000000000000000e+00 -4.1999999624743438e+00 -2.8758832919116864e-02 -5.5509309909655546e-01 +5.7387801394184626e-03
-4.2499999999999929e+00 +8.2845021671245149e+00 +0.0000000000000000e+00 -4.2499999611172541e+00 -2.8760783005803259e-02 -5.5512215510478802e-01 +5.7392849206483161e-03
-4.2999999999999927e+00 +8.2844903796961820e+00 +0.0000000000000000e+00 -4.2999999597278036e+00 -2.8762745404493747e-02 -5.5515147236123852e-01 +5.7397877942349917e-03
-4.3499999999999925e+00 +8.2844784541816985e+00 +0.0000000000000000e+00 -4.3499999583056086e+00 -2.8764720060695210e-02 -5.5518104808541846e-01 +5.7402887405691334e-03
-4.3999999999999924e+00 +8.2844663905737068e+00 +0.0000000000000000e+00 -4.3999999568502863e+00 -2.8766706919912129e-02 -5.5521087949684156e-01 +5.7407877400413587e-03
-4.4499999999999922e+00 +8.2844541888647871e+00 +0.0000000000000000e+00 -4.4499999553614531e+00 -2.8768705927646365e-02 -5.5524096381501942e-01 +5.7412847730422562e-03
-4.4999999999999920e+00 +8.2844418490474574e+00 +0.0000000000000000e+00 -4.4999999538387261e+00 -2.8770717029397090e-02 -5.5527129825946597e-01 +5.7417798199624051e-03
-4.5499999999999918e+00 +8.2844293711141717e+00 +0.0000000000000000e+00 -4.5499999522817216e+00 -2.8772740170660723e-02 -5.5530188004969283e-01 +5.7422728611923749e-03
-4.5999999999999917e+00 +8.2844167550573236e+00 +0.0000000000000000e+00 -4.5999999506900568e+00 -2.8774775296930753e-02 -5.5533270640521182e-01 +5.7427638771227378e-03
-4.6499999999999915e+00 +8.2844040008692463e+00 +0.0000000000000000e+00 -4.6499999490633481e+00 -2.8776822353697648e-02 -5.5536377454553332e-01 +5.7432528481440670e-03
-4.6999999999999913e+00 +8.2843911085422128e+00 +0.0000000000000000e+00 -4.6999999474012109e+00 -2.8778881286448763e-02 -5.5539508169016683e-01 +5.7437397546469581e-03
-4.7499999999999911e+00 +8.2843780780684337e+00 +0.0000000000000000e+00 -4.7499999457032622e+00 -2.8780952040668207e-02 -5.5542662505862073e-01 +5.7442245770220257e-03
-4.7999999999999909e+00 +8.2843649094400647e+00 +0.0000000000000000e+00 -4.7999999439691186e+00 -2.8783034561836757e-02 -5.5545840187040074e-01 +5.7447072956599218e-03
-4.8499999999999908e+00 +8.2843516026492026e+00 +0.0000000000000000e+00 -4.8499999421983961e+00 -2.8785128795431710e-02 -5.5549040934501126e-01 +5.7451878909513176e-03
-4.8999999999999906e+00 +8.2843381576878858e+00 +0.0000000000000000e+00 -4.8999999403907104e+00 -2.8787234686926816e-02 -5.5552264470195389e-01 +5.7456663432869544e-03
-4.9499999999999904e+00 +8.2843245745480960e+00 +0.0000000000000000e+00 -4.9499999385456777e+00 -2.8789352181792127e-02 -5.5555510516072759e-01 +5.7461426330576047e-03
-4.9999999999999902e+00 +8.2843108532217578e+00 +0.0000000000000000e+00 -4.9999999366629133e+00 -2.8791481225493919e-02 -5.5558778794082953e-01 +5.7466167406541183e-03
-5.0499999999999901e+00 +8.2842969937007442e+00 +0.0000000000000000e+00 -5.0499999347420337e+00 -2.8793621763494554e-02 -5.5562069026175231e-01 +5.7470886464673970e-03
-5.0999999999999899e+00 +8.2842829959768700e+00 +0.0000000000000000e+00 -5.0999999327826551e+00 -2.8795773741252414e-02 -5.5565380934298558e-01 +5.7475583308884302e-03
-5.1499999999999897e+00 +8.2842688600418981e+00 +0.0000000000000000e+00 -5.1499999307843929e+00 -2.8797937104221707e-02 -5.5568714240401573e-01 +5.7480257743082862e-03
-5.1999999999999895e+00 +8.2842545858875365e+00 +0.0000000000000000e+00 -5.1999999287468617e+00 -2.8800111797852464e-02 -5.5572068666432528e-01 +5.7484909571181228e-03
-5.2499999999999893e+00 +8.2842401735054434e+00 +0.0000000000000000e+00 -5.2499999266696777e+00 -2.8802297767590319e-02 -5.5575443934339153e-01 +5.7489538597091929e-03
-5.2999999999999892e+00 +8.2842256228872220e+00 +0.0000000000000000e+00 -5.2999999245524565e+00 -2.8804494958876492e-02 -5.5578839766068777e-01 +5.7494144624728669e-03
-5.3499999999999890e+00 +8.2842109340244274e+00 +0.0000000000000000e+00 -5.3499999223948134e+00 -2.8806703317147624e-02 -5.5582255883568321e-01 +5.7498727458006084e-03
-5.3999999999999888e+00 +8.2841961069085617e+00 +0.0000000000000000e+00 -5.3999999201963638e+00 -2.8808922787835683e-02 -5.5585692008784149e-01 +5.7503286900840176e-03
-5.4499999999999886e+00 +8.2841811415310787e+00 +0.0000000000000000e+00 -5.4499999179567222e+00 -2.8811153316367830e-02 -5.5589147863661992e-01 +5.7507822757148176e-03
-5.4999999999999885e+00 +8.2841660378833808e+00 +0.0000000000000000e+00 -5.4999999156755042e+00 -2.8813394848166363e-02 -5.5592623170147193e-01 +5.7512334830848643e-03
-5.5499999999999883e+00 +8.2841507959568261e+00 +0.0000000000000000e+00 -5.5499999133523250e+00 -2.8815647328648528e-02 -5.5596117650184429e-01 +5.7516822925861603e-03
-5.5999999999999881e+00 +8.2841354157427212e+00 +0.0000000000000000e+00 -5.5999999109867993e+00 -2.8817910703226507e-02 -5.5599631025717688e-01 +5.7521286846108580e-03
-5.6499999999999879e+00 +8.2841198972323280e+00 +0.0000000000000000e+00 -5.6499999085785415e+00 -2.8820184917307201e-02 -5.5603163018690460e-01 +5.7525726395512653e-03
-5.6999999999999877e+00 +8.2841042404168608e+00 +0.0000000000000000e+00 -5.6999999061271671e+00 -2.8822469916292191e-02 -5.5606713351045467e-01 +5.7530141377998582e-03
-5.7499999999999876e+00 +8.2840884452874892e+00 +0.0000000000000000e+00 -5.7499999036322897e+00 -2.8824765645577604e-02 -5.5610281744724743e-01 +5.7534531597492854e-03
-5.7999999999999874e+00 +8.2840725118353387e+00 +0.0000000000000000e+00 -5.7999999010935248e+00 -2.8827072050554011e-02 -5.5613867921669646e-01 +5.7538896857923802e-03
-5.8499999999999872e+00 +8.2840564400514882e+00 +0.0000000000000000e+00 -5.8499998985104869e+00 -2.8829389076606295e-02 -5.5617471603820701e-01 +5.7543236963221514e-03
