# multipoles
# s[mm] polynom_b[n=0][T/m^n] polynom_b[n=1][T/m^n] polynom_b[n=2][T/m^n] polynom_b[n=3][T/m^n] polynom_b[n=4][T/m^n] polynom_b[n=5][T/m^n] polynom_b[n=6][T/m^n] 
+0.0000000000000000e+00 -5.5030235909797809e-01 +7.2227824399200511e+00 +5.9361742012934160e+00 +3.4511995289929679e+01 -1.3171811077635053e+04 -4.7153952828333364e+05 +7.2075290315485686e+07 
+5.0000000000000003e-02 -5.5029880246226459e-01 +7.2226443905015056e+00 +5.9404477765051622e+00 +3.5149024212964946e+01 -1.3199957835426791e+04 -4.7670510864171013e+05 +7.2199539015777528e+07 
+1.0000000000000001e-01 -5.5029562670633470e-01 +7.2225264354819494e+00 +5.9442610807150693e+00 +3.5800095544055822e+01 -1.3227758128270674e+04 -4.8192528478482465e+05 +7.2318435469229549e+07 
+1.5000000000000002e-01 -5.5029283129948692e-01 +7.2224285621321940e+00 +5.9476115314356610e+00 +3.6463969649862804e+01 -1.3255159248087894e+04 -4.8719096861495252e+05 +7.2431866729566261e+07 
+2.0000000000000001e-01 -5.5029041571104553e-01 +7.2223507577230519e+00 +5.9504965481372958e+00 +3.7139406923361847e+01 -1.3282108543168682e+04 -4.9249307222778100e+05 +7.2539720242582381e+07 
+2.5000000000000000e-01 -5.5028837941032605e-01 +7.2222930095277666e+00 +5.9529135447978589e+00 +3.7825167693850013e+01 -1.3308553206057379e+04 -4.9782250721516553e+05 +7.2641882370989323e+07 
+2.9999999999999999e-01 -5.5028672186668770e-01 +7.2222553048195257e+00 +5.9548599409375651e+00 +3.8520012303913916e+01 -1.3334440588370249e+04 -5.0317018521144910e+05 +7.2738240589234293e+07 
+3.4999999999999998e-01 -5.5028544254949607e-01 +7.2222376308735958e+00 +5.9563331539536470e+00 +3.9222701058597892e+01 -1.3359717981835413e+04 -5.0852701761422784e+05 +7.2828681953192100e+07 
+3.9999999999999997e-01 -5.5028454092813095e-01 +7.2222399749648076e+00 +5.9573305999552986e+00 +3.9931994293432815e+01 -1.3384332637143843e+04 -5.1388391599376989e+05 +7.2913093217262000e+07 
+4.4999999999999996e-01 -5.5028401647199876e-01 +7.2222623243668567e+00 +5.9578496975266484e+00 +4.0646652423683335e+01 -1.3408231880187890e+04 -5.1923179260031035e+05 +7.2991361675347835e+07 
+4.9999999999999994e-01 -5.5028386865051049e-01 +7.2223046663573101e+00 +5.9578878629377652e+00 +4.1365435745329911e+01 -1.3431362973083838e+04 -5.2456155874587037e+05 +7.3063374181913912e+07 
+5.4999999999999993e-01 -5.5028409693310798e-01 +7.2223669882127597e+00 +5.9574425143826923e+00 +4.2087104601017536e+01 -1.3453673224489432e+04 -5.2986412604078860e+05 +7.3129017883809999e+07 
+5.9999999999999998e-01 -5.5028470078924030e-01 +7.2224492772109965e+00 +5.9565110688736169e+00 +4.2810419325201373e+01 -1.3475109917914157e+04 -5.3513040607396699e+05 +7.3188179782882959e+07 
+6.5000000000000002e-01 -5.5028567968837716e-01 +7.2225515206308373e+00 +5.9550909438594228e+00 +4.3534140239174199e+01 -1.3495620345845342e+04 -5.4035131033967470e+05 +7.3240746929530919e+07 
+7.0000000000000007e-01 -5.5028703309999849e-01 +7.2226737057509682e+00 +5.9531795554719791e+00 +4.4257027691573100e+01 -1.3515151764560187e+04 -5.4551775052599201e+05 +7.3286606123414546e+07 
+7.5000000000000011e-01 -5.5028876049362074e-01 +7.2228158198526238e+00 +5.9507743237032988e+00 +4.4977841961265860e+01 -1.3533651536202489e+04 -5.5062063777998812e+05 +7.3325644883912787e+07 
+8.0000000000000016e-01 -5.5029086133876082e-01 +7.2229778502147424e+00 +5.9478726647363560e+00 +4.5695343440311703e+01 -1.3551066914921939e+04 -5.5565088415059110e+05 +7.3357749982198298e+07 
+8.5000000000000020e-01 -5.5029333510495670e-01 +7.2231597841221635e+00 +5.9444719969422550e+00 +4.6408292315646442e+01 -1.3567345222819908e+04 -5.6059940003715619e+05 +7.3382808674524859e+07 
+9.0000000000000024e-01 -5.5029618126176372e-01 +7.2233616088541623e+00 +5.9405697375800228e+00 +4.7115449021714028e+01 -1.3582433742988067e+04 -5.6545709785236616e+05 +7.3400707921627998e+07 
+9.5000000000000029e-01 -5.5029939927874738e-01 +7.2235833116946493e+00 +5.9361633032615160e+00 +4.7815573841338200e+01 -1.3596279746053620e+04 -5.7021488881112286e+05 +7.3411334616036206e+07 
+1.0000000000000002e+00 -5.5030298862551086e-01 +7.2238248799287392e+00 +5.9312501143320944e+00 +4.8507427027119562e+01 -1.3608830601253694e+04 -5.7486368384721724e+05 +7.3414576306438878e+07 
+1.0500000000000003e+00 -5.5030694877165554e-01 +7.2240863008426945e+00 +5.9258275877485955e+00 +4.9189768807415703e+01 -1.3620033585278996e+04 -5.7939439369603933e+05 +7.3410319907043964e+07 
+1.1000000000000003e+00 -5.5031127918680167e-01 +7.2243675617190863e+00 +5.9198931408398581e+00 +4.9861359607367653e+01 -1.3629835984261153e+04 -5.8379793078320427e+05 +7.3398452394517124e+07 
+1.1500000000000004e+00 -5.5031597934059429e-01 +7.2246686498458432e+00 +5.9134441927477610e+00 +5.0520959647163579e+01 -1.3638185136805851e+04 -5.8806520581439103e+05 +7.3378861110050276e+07 
+1.2000000000000004e+00 -5.5032104870269849e-01 +7.2249895525126435e+00 +5.9064781627363692e+00 +5.1167329098532292e+01 -1.3645028377005476e+04 -5.9218712908771902e+05 +7.3351433330971152e+07 
+1.2500000000000004e+00 -5.5032648674277418e-01 +7.2253302570055951e+00 +5.8989924668532865e+00 +5.1799228320871450e+01 -1.3650312959146704e+04 -5.9615461252664973e+05 +7.3316055820046887e+07 
+1.3000000000000005e+00 -5.5033229293053787e-01 +7.2256907506141319e+00 +5.8909845277034494e+00 +5.2415417557506728e+01 -1.3653986309629568e+04 -5.9995856706631661e+05 +7.3272616483806998e+07 
+1.3500000000000005e+00 -5.5033846673567921e-01 +7.2260710206283738e+00 +5.8824517606655524e+00 +5.3014657053673147e+01 -1.3655995659148035e+04 -6.0358990370391146e+05 +7.3221001896879867e+07 
+1.4000000000000006e+00 -5.5034500762792427e-01 +7.2264710543415678e+00 +5.8733915846564413e+00 +5.3595706950605006e+01 -1.3656288335434803e+04 -6.0703953256819339e+05 +7.3161099296973661e+07 
+1.4500000000000006e+00 -5.5035191507703385e-01 +7.2268908390440103e+00 +5.8638014215891445e+00 +5.4157327538935483e+01 -1.3654811744035060e+04 -6.1029836505194625e+05 +7.3092796431616887e+07 
+1.5000000000000007e+00 -5.5035918855276289e-01 +7.2273303620279670e+00 +5.8536786897806570e+00 +5.4698279056737547e+01 -1.3651513191980497e+04 -6.1335731213216134e+05 +7.3015980371948153e+07 
+1.5500000000000007e+00 -5.5036682752488453e-01 +7.2277896105888315e+00 +5.8430208078552273e+00 +5.5217321642023016e+01 -1.3646339998949285e+04 -6.1620728399184928e+05 +7.2930538294147298e+07 
+1.6000000000000008e+00 -5.5037483146319544e-01 +7.2282685720201956e+00 +5.8318251957223470e+00 +5.5713215533769315e+01 -1.3639239511316357e+04 -6.1883919165972527e+05 +7.2836357514294639e+07 
+1.6500000000000008e+00 -5.5038319983751338e-01 +7.2287672336201840e+00 +5.8200892740712993e+00 +5.6184720813321221e+01 -1.3630159098731421e+04 -6.2124394489725668e+05 +7.2733325516058654e+07 
+1.7000000000000008e+00 -5.5039193211766424e-01 +7.2292855826820901e+00 +5.8078104628069687e+00 +5.6630597790201577e+01 -1.3619046112594506e+04 -6.2341245537887467e+05 +7.2621329666109040e+07 
+1.7500000000000009e+00 -5.5040102777349798e-01 +7.2298236065069750e+00 +5.7949861826657685e+00 +5.7049606474980585e+01 -1.3605847919955664e+04 -6.2533563231469761e+05 +7.2500257407134697e+07 
+1.8000000000000009e+00 -5.5041048627487110e-01 +7.2303812923908390e+00 +5.7816138528026864e+00 +5.7440507120495695e+01 -1.3590511844266317e+04 -6.2700438696506154e+05 +7.2369995881873578e+07 
+1.8500000000000010e+00 -5.5042030709167900e-01 +7.2309586276358484e+00 +5.7676908964842335e+00 +5.7802059748298703e+01 -1.3572985320584005e+04 -6.2840962868440966e+05 +7.2230432987519234e+07 
+1.9000000000000010e+00 -5.5043048969380537e-01 +7.2315555995408669e+00 +5.7532147328432197e+00 +5.8133024547458170e+01 -1.3553215675248595e+04 -6.2954226826649962e+05 +7.2081455890325397e+07 
+1.9500000000000011e+00 -5.5044103355118212e-01 +7.2321721954086780e+00 +5.7381827859634331e+00 +5.8432161570657435e+01 -1.3531150360002141e+04 -6.3039321539695351e+05 +7.1922952571660921e+07 
+2.0000000000000009e+00 -5.5045193813373172e-01 +7.2328084025415009e+00 +5.7225924755260200e+00 +5.8698230926053093e+01 -1.3506736709892621e+04 -6.3095338025041344e+05 +7.1754810231753737e+07 
+2.0500000000000007e+00 -5.5046320268656690e-01 +7.2334641849633261e+00 +5.7064429418819600e+00 +5.8930488724067850e+01 -1.3479937220581949e+04 -6.3121758304346912e+05 +7.1576949639736652e+07 
+2.1000000000000005e+00 -5.5047482555483007e-01 +7.2341394075177208e+00 +5.6897407064180543e+00 +5.9130137116906120e+01 -1.3450784077554441e+04 -6.3119604553373670e+05 +7.1389500909520686e+07 
+2.1500000000000004e+00 -5.5048680485851764e-01 +7.2348339087223765e+00 +5.6724942720226483e+00 +5.9298855485382063e+01 -1.3419329125195778e+04 -6.3090278685428377e+05 +7.1192665087305874e+07 
+2.2000000000000002e+00 -5.5049913871762435e-01 +7.2355475270977125e+00 +5.6547121389692840e+00 +5.9438323117316536e+01 -1.3385624137834193e+04 -6.3035182540330582e+05 +7.0986642751066834e+07 
+2.2500000000000000e+00 -5.5051182525216968e-01 +7.2362801011650753e+00 +5.6364028094407814e+00 +5.9550219277282523e+01 -1.3349720937388827e+04 -6.2955717939507298e+05 +7.0771634785065472e+07 
+2.2999999999999998e+00 -5.5052486258216893e-01 +7.2370314694434539e+00 +5.6175747829105136e+00 +5.9636223340980116e+01 -1.3311671280829782e+04 -6.2853286794739356e+05 +7.0547841669749901e+07 
+2.3499999999999996e+00 -5.5053824882767577e-01 +7.2378014704571783e+00 +5.5982365633120823e+00 +5.9698014484043668e+01 -1.3271527040517600e+04 -6.2729290856693871e+05 +7.0315464645455733e+07 
+2.3999999999999995e+00 -5.5055198210873435e-01 +7.2385899427247669e+00 +5.5783966507281937e+00 +5.9737272122618336e+01 -1.3229339989669501e+04 -6.2585132068562834e+05 +7.0074704303843334e+07 
+2.4499999999999993e+00 -5.5056606054541746e-01 +7.2393967247711650e+00 +5.5580635478904021e+00 +5.9755675440360982e+01 -1.3185161967363689e+04 -6.2422212190027151e+05 +6.9825761660983950e+07 
+2.4999999999999991e+00 -5.5058048225778167e-01 +7.2402216551167156e+00 +5.5372457529202803e+00 +5.9754903805918175e+01 -1.3139044695690764e+04 -6.2241933126377547e+05 +6.9568836973174840e+07 
+2.5499999999999989e+00 -5.5059524536592375e-01 +7.2410645722854472e+00 +5.5159517687699804e+00 +5.9736636467570179e+01 -1.3091040024117177e+04 -6.2045696691194805e+05 +6.9304131347394258e+07 
+2.5999999999999988e+00 -5.5061034798993780e-01 +7.2419253147981912e+00 +5.4941900955075393e+00 +5.9702552793975521e+01 -1.3041199724038095e+04 -6.1834904789272882e+05 +6.9031845366295099e+07 
+2.6499999999999986e+00 -5.5062578824992547e-01 +7.2428037211788743e+00 +5.4719692332583358e+00 +5.9654332060688851e+01 -1.2989575573951492e+04 -6.1610959256471309e+05 +6.8752179683165118e+07 
+2.6999999999999984e+00 -5.5064156426601463e-01 +7.2436996299514922e+00 +5.4492976838970897e+00 +5.9593653532305353e+01 -1.2936219394189158e+04 -6.1375261913306639e+05 +6.8465335215112522e+07 
+2.7499999999999982e+00 -5.5065767415831546e-01 +7.2446128796405578e+00 +5.4261839449895133e+00 +5.9522196475329750e+01 -1.2881182897180473e+04 -6.1129214586501406e+05 +6.8171512188637495e+07 
+2.7999999999999980e+00 -5.5067411604698657e-01 +7.2455433087668233e+00 +5.4026365201838278e+00 +5.9441640308864137e+01 -1.2824517953696912e+04 -6.0874219224748923e+05 +6.7870911876417533e+07 
+2.8499999999999979e+00 -5.5069088805215272e-01 +7.2464907558561595e+00 +5.3786639054215968e+00 +5.9353664260037860e+01 -1.2766276230111322e+04 -6.0611677621745504e+05 +6.7563734189527452e+07 
+2.8999999999999977e+00 -5.5070798829398226e-01 +7.2474550594333476e+00 +5.3542746024416381e+00 +5.9259947607513261e+01 -1.2706509552398438e+04 -6.0342991612643690e+05 +6.7250180134673163e+07 
+2.9499999999999975e+00 -5.5072541489263660e-01 +7.2484360580208982e+00 +5.3294771098090701e+00 +5.9162169726932156e+01 -1.2645269658082529e+04 -6.0069563111624843e+05 +6.6930450110508874e+07 
+2.9999999999999973e+00 -5.5074316596829243e-01 +7.2494335901442701e+00 +5.3042799270598255e+00 +5.9062009875829936e+01 -1.2582608314620269e+04 -5.9792793932963558e+05 +6.6604744738652386e+07 
+3.0499999999999972e+00 -5.5076123964113122e-01 +7.2504474943252726e+00 +5.2786915529678256e+00 +5.8961147477286801e+01 -1.2518577271234530e+04 -5.9514086031225882e+05 +6.6273264528980836e+07 
+3.0999999999999970e+00 -5.5077963403134811e-01 +7.2514776090913307e+00 +5.2527204866451607e+00 +5.8861261726168600e+01 -1.2453228285176094e+04 -5.9234841171171481e+05 +6.5936210046090633e+07 
+3.1499999999999968e+00 -5.5079834725913224e-01 +7.2525237729644099e+00 +5.2263752247078266e+00 +5.8764032043621683e+01 -1.2386613049877171e+04 -5.8956461302153592e+05 +6.5593781442361176e+07 
+3.1999999999999966e+00 -5.5081737744469617e-01 +7.2535858244705906e+00 +5.1996642658491457e+00 +5.8671137692170781e+01 -1.2318783313012953e+04 -5.8680348245104891e+05 +6.5246179232287839e+07 
+3.2499999999999964e+00 -5.5083672270825856e-01 +7.2546636021328359e+00 +5.1725961083776850e+00 +5.8584258058668460e+01 -1.2249790816871939e+04 -5.8407903919202532e+05 +6.4893603922552474e+07 
+3.2999999999999963e+00 -5.5085638117004188e-01 +7.2557569444753129e+00 +5.1451792498354800e+00 +5.8505072486497156e+01 -1.2179687282123030e+04 -5.8140530209525756e+05 +6.4536255866766073e+07 
+3.3499999999999961e+00 -5.5087635095026566e-01 +7.2568656900225825e+00 +5.1174221854540347e+00 +5.8435260305954962e+01 -1.2108524371660014e+04 -5.7879628988461872e+05 +6.4174335060529962e+07 
+3.3999999999999959e+00 -5.5089663016917712e-01 +7.2579896772996326e+00 +5.0893334135545363e+00 +5.8376500837172379e+01 -1.2036353829307918e+04 -5.7626602122863091e+05 +6.3808042036527015e+07 
+3.4499999999999957e+00 -5.5091721694702267e-01 +7.2591287448285451e+00 +5.0609214312009447e+00 +5.8330473509515507e+01 -1.1963227370059463e+04 -5.7382851562984393e+05 +6.3437577159490705e+07 
+3.4999999999999956e+00 -5.5093810940403198e-01 +7.2602827311354359e+00 +5.0321947309077508e+00 +5.8298857595714750e+01 -1.1889196588133967e+04 -5.7149779133720626e+05 +6.3063139990860857e+07 
+3.5499999999999954e+00 -5.5095930566047968e-01 +7.2614514747402277e+00 +5.0031618114580247e+00 +5.8283332623062414e+01 -1.1814313245049141e+04 -5.6928786867789726e+05 +6.2684931221294105e+07 
+3.5999999999999952e+00 -5.5098080383662251e-01 +7.2626348141692887e+00 +4.9738311670517712e+00 +5.8285577847228431e+01 -1.1738628983041152e+04 -5.6721276571439032e+05 +6.2303150759192042e+07 
+3.6499999999999950e+00 -5.5100260205272578e-01 +7.2638325879440409e+00 +4.9442112919554404e+00 +5.8307272736916225e+01 -1.1662195446883523e+04 -5.6528650229522632e+05 +6.1917998539765619e+07 
+3.6999999999999948e+00 -5.5102469842907487e-01 +7.2650446345883877e+00 +4.9143106832767680e+00 +5.8350096641818197e+01 -1.1585064365373119e+04 -5.6352309721815318e+05 +6.1529675098988876e+07 
+3.7499999999999947e+00 -5.5104709108592742e-01 +7.2662707926234233e+00 +4.8841378305225165e+00 +5.8415729041770113e+01 -1.1507287253442391e+04 -5.6193657041395281e+05 +6.1138379503408216e+07 
+3.7999999999999945e+00 -5.5106977814358138e-01 +7.2675109005728524e+00 +4.8537012305146767e+00 +5.8505849291566321e+01 -1.1428915838262497e+04 -5.6054094070059864e+05 +6.0744312315447196e+07 
+3.8499999999999943e+00 -5.5109275772232647e-01 +7.2687647969586457e+00 +4.8230093761079447e+00 +5.8622136817668185e+01 -1.1350001730737273e+04 -5.5935022750410414e+05 +6.0347673284357913e+07 
+3.8999999999999941e+00 -5.5111602794244741e-01 +7.2700323203019757e+00 +4.7920707587450897e+00 +5.8766271084857223e+01 -1.1270596513458369e+04 -5.5837845059110434e+05 +5.9948662013348266e+07 
+3.9499999999999940e+00 -5.5113958692424359e-01 +7.2713133091227924e+00 +4.7608938710597455e+00 +5.8939931590411739e+01 -1.1190751800909769e+04 -5.5763962992157938e+05 +5.9547478327458791e+07 
+3.9999999999999938e+00 -5.5116343278801339e-01 +7.2726076019440455e+00 +4.7294872039852596e+00 +5.9144797709342420e+01 -1.1110519160531205e+04 -5.5714778447304061e+05 +5.9144321736079074e+07 
+4.0499999999999936e+00 -5.5118756351879428e-01 +7.2739150365563159e+00 +4.6978590037484969e+00 +5.9382062379932677e+01 -1.1029955258189590e+04 -5.5691298790159915e+05 +5.8739436858763039e+07 
+4.0999999999999934e+00 -5.5121197656172050e-01 +7.2752354405487436e+00 +4.6660168592610525e+00 +5.9650993737392859e+01 -1.0949118243381137e+04 -5.5692960682543356e+05 +5.8333087356668815e+07 
+4.1499999999999932e+00 -5.5123666922729886e-01 +7.2765686371920513e+00 +4.6339683101832936e+00 +5.9950378660921814e+01 -1.0868062263587603e+04 -5.5718807320239465e+05 +5.7925503577565692e+07 
+4.1999999999999931e+00 -5.5126163882604162e-01 +7.2779144497617878e+00 +4.6017208960878184e+00 +6.0279003814469519e+01 -1.0786841455487209e+04 -5.5767881726802583e+05 +5.7516915774543718e+07 
+4.2499999999999929e+00 -5.5128688266843762e-01 +7.2792727015282122e+00 +4.5692821525388982e+00 +6.0635656071119797e+01 -1.0705509851209563e+04 -5.5839227095292788e+05 +5.7107553504294373e+07 
+4.2999999999999927e+00 -5.5131239806500454e-01 +7.2806432157626517e+00 +4.5366596198260716e+00 +6.1019122262534559e+01 -1.0624121611349565e+04 -5.5931886585166573e+05 +5.6697647195974052e+07 
+4.3499999999999925e+00 -5.5133818232625220e-01 +7.2820258157351638e+00 +4.5038608363158401e+00 +6.1428189251875303e+01 -1.0542730838802021e+04 -5.6044903373850079e+05 +5.6287426860076256e+07 
+4.3999999999999924e+00 -5.5136423276269320e-01 +7.2834203247173841e+00 +4.4708933405871951e+00 +6.1861643847666684e+01 -1.0461391643056451e+04 -5.6177320597854513e+05 +5.5877122555906214e+07 
+4.4499999999999922e+00 -5.5139054668484966e-01 +7.2848265659808717e+00 +4.4377646731257601e+00 +6.2318272836443953e+01 -1.0380158186426874e+04 -5.6328181365902256e+05 +5.5466964700060375e+07 
+4.4999999999999920e+00 -5.5141712140322041e-01 +7.2862443627925133e+00 +4.4044823696119240e+00 +6.2796863214631969e+01 -1.0299084498589145e+04 -5.6496528967519372e+05 +5.5057182801119998e+07 
+4.5499999999999918e+00 -5.5144395422835046e-01 +7.2876735384242801e+00 +4.3710539738912990e+00 +6.3296201733563599e+01 -1.0218224825315026e+04 -5.6681406476245204e+05 +5.4648007805850074e+07 
+4.5999999999999917e+00 -5.5147104247073964e-01 +7.2891139161435321e+00 +4.3374870220351180e+00 +6.3815075339439147e+01 -1.0137633207994593e+04 -5.6881857128683606e+05 +5.4239669301005051e+07 
+4.6499999999999915e+00 -5.5149838344092550e-01 +7.2905653192200681e+00 +4.3037890568861696e+00 +6.4352270867418312e+01 -1.0057363866901189e+04 -5.7096924067525263e+05 +5.3832398060456827e+07 
+4.6999999999999913e+00 -5.5152597444941687e-01 +7.2920275709210403e+00 +4.2699676155705601e+00 +6.4906575251736825e+01 -9.9774708641789093e+03 -5.7325650512997422e+05 +5.3426423775251426e+07 
+4.7499999999999911e+00 -5.5155381280674487e-01 +7.2935004945139585e+00 +4.2360302400089722e+00 +6.5476775399422522e+01 -9.8980083933086880e+03 -5.7567079660317046e+05 +5.3021977024687916e+07 
+4.7999999999999909e+00 -5.5158189582343176e-01 +7.2949839132660452e+00 +4.2019844703675151e+00 +6.6061658222607107e+01 -9.8190305996605148e+03 -5.7820254706640844e+05 +5.2619288059873499e+07 
+4.8499999999999908e+00 -5.5161022080999778e-01 +7.2964776504429567e+00 +4.1678378464046615e+00 +6.6660010675003107e+01 -9.7405916120042057e+03 -5.8084218876189692e+05 +5.2218586992301770e+07 
+4.8999999999999906e+00 -5.5163878507698227e-01 +7.2979815293113441e+00 +4.1335979120569153e+00 +6.7270619672891243e+01 -9.6627456761262420e+03 -5.8358015364956949e+05 +5.1820104737649955e+07 
+4.9499999999999904e+00 -5.5166758593489906e-01 +7.2994953731365495e+00 +4.0992722067294363e+00 +6.7892272164017712e+01 -9.5855469108799298e+03 -5.8640687388312898e+05 +5.1424071331946351e+07 
+4.9999999999999902e+00 -5.5169662069426439e-01 +7.3010190051843811e+00 +4.0648682703402077e+00 +6.8523755067905782e+01 -9.5090494450843889e+03 -5.8931278135997907e+05 +5.1030716859999210e+07 
+5.0499999999999901e+00 -5.5172588666561440e-01 +7.3025522487167525e+00 +4.0303936474538107e+00 +6.9163855443595637e+01 -9.4333075402726299e+03 -5.9228830906865490e+05 +5.0640272329877801e+07 
