# field on trajectory
# s[mm] rx[mm] ry[mm] rz[mm] bx[T] by[T] bz[T]
-0.0000000000000000e+00 +8.5269999999999904e+00 +0.0000000000000000e+00 -0.0000000000000000e+00 -2.9599303737862515e-02 -5.5312020633303138e-01 +5.3489132512317839e-03
-5.0000000000000003e-02 +8.5269999309457507e+00 +0.0000000000000000e+00 -4.9999999999936401e-02 -2.9599131685289989e-02 -5.5311885219519141e-01 +5.3483861509706068e-03
-1.0000000000000001e-01 +8.5269997237883199e+00 +0.0000000000000000e+00 -9.9999999999491399e-02 -2.9598977274100310e-02 -5.5311788084253810e-01 +5.3478684751375972e-03
-1.4999999999999999e-01 +8.5269993785295792e+00 +0.0000000000000000e+00 -1.4999999999828301e-01 -2.9598840592448942e-02 -5.5311729153341871e-01 +5.3473602186807859e-03
-2.0000000000000001e-01 +8.5269988951622508e+00 +0.0000000000000000e+00 -1.9999999999593099e-01 -2.9598721728495560e-02 -5.5311708352626587e-01 +5.3468613765492905e-03
-2.5000000000000000e-01 +8.5269982736936107e+00 +0.0000000000000000e+00 -2.4999999999205300e-01 -2.9598620770394667e-02 -5.5311725607942563e-01 +5.3463719436916508e-03
-2.9999999999999999e-01 +8.5269975141200103e+00 +0.0000000000000000e+00 -2.9999999998626797e-01 -2.9598537806305850e-02 -5.5311780845134195e-01 +5.3458919150576167e-03
-3.4999999999999998e-01 +8.5269966164378292e+00 +0.0000000000000000e+00 -3.4999999997819298e-01 -2.9598472924389347e-02 -5.5311873990047689e-01 +5.3454212855973760e-03
-4.0000000000000002e-01 +8.5269955806543294e+00 +0.0000000000000000e+00 -3.9999999996744900e-01 -2.9598426212801905e-02 -5.5312004968523210e-01 +5.3449600502607827e-03
-4.5000000000000001e-01 +8.5269944067658798e+00 +0.0000000000000000e+00 -4.4999999995365297e-01 -2.9598397759705367e-02 -5.5312173706410594e-01 +5.3445082039988885e-03
-5.0000000000000000e-01 +8.5269930947724806e+00 +0.0000000000000000e+00 -4.9999999993642402e-01 -2.9598387653261046e-02 -5.5312380129558891e-01 +5.3440657417629170e-03
-5.5000000000000004e-01 +8.5269916446777607e+00 +0.0000000000000000e+00 -5.4999999991537996e-01 -2.9598395981629711e-02 -5.5312624163816204e-01 +5.3436326585042538e-03
-5.9999999999999998e-01 +8.5269900564744603e+00 +0.0000000000000000e+00 -5.9999999989013997e-01 -2.9598422832977381e-02 -5.5312905735040363e-01 +5.3432089491754781e-03
-6.5000000000000002e-01 +8.5269883301661995e+00 +0.0000000000000000e+00 -6.4999999986032297e-01 -2.9598468295466817e-02 -5.5313224769083069e-01 +5.3427946087288153e-03
-6.9999999999999996e-01 +8.5269864657566394e+00 +0.0000000000000000e+00 -6.9999999982554695e-01 -2.9598532457261767e-02 -5.5313581191797578e-01 +5.3423896321168948e-03
-7.5000000000000000e-01 +8.5269844632421208e+00 +0.0000000000000000e+00 -7.4999999978543097e-01 -2.9598615406529995e-02 -5.5313974929044263e-01 +5.3419940142932732e-03
-8.0000000000000004e-01 +8.5269823226226400e+00 +0.0000000000000000e+00 -7.9999999973959202e-01 -2.9598717231438965e-02 -5.5314405906682484e-01 +5.3416077502116532e-03
-8.4999999999999998e-01 +8.5269800438982202e+00 +0.0000000000000000e+00 -8.4999999968765005e-01 -2.9598838020157302e-02 -5.5314874050573204e-01 +5.3412308348261333e-03
-9.0000000000000002e-01 +8.5269776270688507e+00 +0.0000000000000000e+00 -8.9999999962922395e-01 -2.9598977860854872e-02 -5.5315379286579069e-01 +5.3408632630912081e-03
-9.4999999999999996e-01 +8.5269750721381605e+00 +0.0000000000000000e+00 -9.4999999956393100e-01 -2.9599136841701425e-02 -5.5315921540561763e-01 +5.3405050299615182e-03
-1.0000000000000000e+00 +8.5269723790988792e+00 +0.0000000000000000e+00 -9.9999999949139096e-01 -2.9599315050872294e-02 -5.5316500738392405e-01 +5.3401561303928497e-03
-1.0500000000000000e+00 +8.5269695479546499e+00 +0.0000000000000000e+00 -1.0499999994112199e+00 -2.9599512576539876e-02 -5.5317116805935740e-01 +5.3398165593406084e-03
-1.1000000000000001e+00 +8.5269665787091107e+00 +0.0000000000000000e+00 -1.0999999993230400e+00 -2.9599729506878007e-02 -5.5317769669058214e-01 +5.3394863117605844e-03
-1.1499999999999999e+00 +8.5269634713586093e+00 +0.0000000000000000e+00 -1.1499999992264700e+00 -2.9599965930064847e-02 -5.5318459253632934e-01 +5.3391653826094518e-03
-1.2000000000000000e+00 +8.5269602259031707e+00 +0.0000000000000000e+00 -1.1999999991211201e+00 -2.9600221934278633e-02 -5.5319185485532008e-01 +5.3388537668440069e-03
-1.2500000000000000e+00 +8.5269568423427700e+00 +0.0000000000000000e+00 -1.2499999990066200e+00 -2.9600497607699148e-02 -5.5319948290628984e-01 +5.3385514594214110e-03
-1.3000000000000000e+00 +8.5269533206774195e+00 +0.0000000000000000e+00 -1.2999999988825901e+00 -2.9600793038507770e-02 -5.5320747594798925e-01 +5.3382584552991892e-03
-1.3500000000000001e+00 +8.5269496609071194e+00 +0.0000000000000000e+00 -1.3499999987486300e+00 -2.9601108314887551e-02 -5.5321583323918311e-01 +5.3379747494352392e-03
-1.3999999999999999e+00 +8.5269458630355093e+00 +0.0000000000000000e+00 -1.3999999986043801e+00 -2.9601443525021743e-02 -5.5322455403862503e-01 +5.3377003367875491e-03
-1.4500000000000000e+00 +8.5269419270553009e+00 +0.0000000000000000e+00 -1.4499999984494401e+00 -2.9601798757099725e-02 -5.5323363760516142e-01 +5.3374352123152381e-03
-1.5000000000000000e+00 +8.5269378529737896e+00 +0.0000000000000000e+00 -1.4999999982834400e+00 -2.9602174099306808e-02 -5.5324308319754756e-01 +5.3371793709767398e-03
-1.5500000000000000e+00 +8.5269336407873197e+00 +0.0000000000000000e+00 -1.5499999981060000e+00 -2.9602569639834507e-02 -5.5325289007463108e-01 +5.3369328077316151e-03
-1.6000000000000001e+00 +8.5269292904959002e+00 +0.0000000000000000e+00 -1.5999999979167401e+00 -2.9602985466874808e-02 -5.5326305749524840e-01 +5.3366955175395085e-03
-1.6499999999999999e+00 +8.5269248020995292e+00 +0.0000000000000000e+00 -1.6499999977152600e+00 -2.9603421668621524e-02 -5.5327358471824761e-01 +5.3364674953603978e-03
-1.7000000000000000e+00 +8.5269201755982102e+00 +0.0000000000000000e+00 -1.6999999975011999e+00 -2.9603878333270505e-02 -5.5328447100249123e-01 +5.3362487361546017e-03
-1.7500000000000000e+00 +8.5269154109919292e+00 +0.0000000000000000e+00 -1.7499999972741700e+00 -2.9604355549019589e-02 -5.5329571560685498e-01 +5.3360392348827711e-03
-1.8000000000000000e+00 +8.5269105082843506e+00 +0.0000000000000000e+00 -1.7999999970337901e+00 -2.9604853404067200e-02 -5.5330731779019970e-01 +5.3358389865056140e-03
-1.8500000000000001e+00 +8.5269054674718099e+00 +0.0000000000000000e+00 -1.8499999967796801e+00 -2.9605371986616835e-02 -5.5331927681145443e-01 +5.3356479859847025e-03
-1.8999999999999999e+00 +8.5269002885506797e+00 +0.0000000000000000e+00 -1.8999999965114500e+00 -2.9605911384874031e-02 -5.5333159192955783e-01 +5.3354662282819034e-03
-1.9500000000000000e+00 +8.5268949715282396e+00 +0.0000000000000000e+00 -1.9499999962287300e+00 -2.9606471687042269e-02 -5.5334426240338364e-01 +5.3352937083586396e-03
-2.0000000000000000e+00 +8.5268895164008391e+00 +0.0000000000000000e+00 -1.9999999959311201e+00 -2.9607052981331556e-02 -5.5335728749189583e-01 +5.3351304211774189e-03
-2.0499999999999998e+00 +8.5268839230666291e+00 +0.0000000000000000e+00 -2.0499999956182600e+00 -2.9607655307720304e-02 -5.5337066621720110e-01 +5.3349763524060088e-03
-2.1000000000000001e+00 +8.5268781914164702e+00 +0.0000000000000000e+00 -2.0999999952897199e+00 -2.9608278513100227e-02 -5.5338439665113448e-01 +5.3348314505051002e-03
-2.1499999999999999e+00 +8.5268723214576294e+00 +0.0000000000000000e+00 -2.1499999949451398e+00 -2.9608922396044988e-02 -5.5339847662711128e-01 +5.3346956546254723e-03
-2.2000000000000002e+00 +8.5268663131864706e+00 +0.0000000000000000e+00 -2.1999999945841302e+00 -2.9609586755133161e-02 -5.5341290397863663e-01 +5.3345689039189523e-03
-2.2500000000000000e+00 +8.5268601666030008e+00 +0.0000000000000000e+00 -2.2499999942063100e+00 -2.9610271388942504e-02 -5.5342767653919978e-01 +5.3344511375373856e-03
-2.2999999999999998e+00 +8.5268538817035697e+00 +0.0000000000000000e+00 -2.2999999938113000e+00 -2.9610976096052712e-02 -5.5344279214232661e-01 +5.3343422946331431e-03
-2.3500000000000001e+00 +8.5268474584954692e+00 +0.0000000000000000e+00 -2.3499999933987001e+00 -2.9611700675039675e-02 -5.5345824862147430e-01 +5.3342423143580807e-03
-2.3999999999999999e+00 +8.5268408969750507e+00 +0.0000000000000000e+00 -2.3999999929681501e+00 -2.9612444924484015e-02 -5.5347404381018839e-01 +5.3341511358650897e-03
-2.4500000000000002e+00 +8.5268341971459396e+00 +0.0000000000000000e+00 -2.4499999925192602e+00 -2.9613208642963882e-02 -5.5349017554197122e-01 +5.3340686983068004e-03
-2.5000000000000000e+00 +8.5268273590008903e+00 +0.0000000000000000e+00 -2.4999999920516398e+00 -2.9613991629062027e-02 -5.5350664165041441e-01 +5.3339949408368606e-03
-2.5499999999999998e+00 +8.5268203825435194e+00 +0.0000000000000000e+00 -2.5499999915649201e+00 -2.9614793681357176e-02 -5.5352343996903852e-01 +5.3339298026083828e-03
-2.6000000000000001e+00 +8.5268132677774702e+00 +0.0000000000000000e+00 -2.5999999910586999e+00 -2.9615614598428264e-02 -5.5354056833137344e-01 +5.3338732227747286e-03
-2.6499999999999999e+00 +8.5268060146954703e+00 +0.0000000000000000e+00 -2.6499999905326099e+00 -2.9616454178858706e-02 -5.5355802457103709e-01 +5.3338251404902561e-03
-2.7000000000000002e+00 +8.5267986233047797e+00 +0.0000000000000000e+00 -2.6999999899862699e+00 -2.9617312221226280e-02 -5.5357580652154981e-01 +5.3337854949085280e-03
-2.7500000000000000e+00 +8.5267910936017905e+00 +0.0000000000000000e+00 -2.7499999894192899e+00 -2.9618188524113145e-02 -5.5359391201651964e-01 +5.3337542251840958e-03
-2.7999999999999998e+00 +8.5267834255828294e+00 +0.0000000000000000e+00 -2.7999999888312899e+00 -2.9619082886101451e-02 -5.5361233888956252e-01 +5.3337312704717383e-03
-2.8500000000000001e+00 +8.5267756192552007e+00 +0.0000000000000000e+00 -2.8499999882218900e+00 -2.9619995105768959e-02 -5.5363108497422264e-01 +5.3337165699256662e-03
-2.8999999999999999e+00 +8.5267676746152592e+00 +0.0000000000000000e+00 -2.8999999875907001e+00 -2.9620924981697671e-02 -5.5365014810413093e-01 +5.3337100627010728e-03
-2.9500000000000002e+00 +8.5267595916629908e+00 +0.0000000000000000e+00 -2.9499999869373399e+00 -2.9621872312468010e-02 -5.5366952611289955e-01 +5.3337116879531056e-03
-3.0000000000000000e+00 +8.5267513703984203e+00 +0.0000000000000000e+00 -2.9999999862614302e+00 -2.9622836896660152e-02 -5.5368921683414751e-01 +5.3337213848370993e-03
-3.0499999999999998e+00 +8.5267430108251592e+00 +0.0000000000000000e+00 -3.0499999855625899e+00 -2.9623818532852602e-02 -5.5370921810147400e-01 +5.3337390925083271e-03
-3.1000000000000001e+00 +8.5267345129359509e+00 +0.0000000000000000e+00 -3.0999999848404300e+00 -2.9624817019627832e-02 -5.5372952774856443e-01 +5.3337647501230318e-03
-3.1499999999999999e+00 +8.5267258767344192e+00 +0.0000000000000000e+00 -3.1499999840945798e+00 -2.9625832155563671e-02 -5.5375014360903074e-01 +5.3337982968368561e-03
-3.2000000000000002e+00 +8.5267171022205694e+00 +0.0000000000000000e+00 -3.1999999833246400e+00 -2.9626863739238930e-02 -5.5377106351651806e-01 +5.3338396718058869e-03
-3.2500000000000000e+00 +8.5267081893980503e+00 +0.0000000000000000e+00 -3.2499999825302401e+00 -2.9627911569230513e-02 -5.5379228530465008e-01 +5.3338888141861232e-03
-3.2999999999999998e+00 +8.5266991382632096e+00 +0.0000000000000000e+00 -3.2999999817109900e+00 -2.9628975444117692e-02 -5.5381380680711012e-01 +5.3339456631342494e-03
-3.3500000000000001e+00 +8.5266899488124199e+00 +0.0000000000000000e+00 -3.3499999808665200e+00 -2.9630055162479133e-02 -5.5383562585758628e-01 +5.3340101578071130e-03
-3.3999999999999999e+00 +8.5266806210529502e+00 +0.0000000000000000e+00 -3.3999999799964300e+00 -2.9631150522888557e-02 -5.5385774028969215e-01 +5.3340822373609447e-03
-3.4500000000000002e+00 +8.5266711549811607e+00 +0.0000000000000000e+00 -3.4499999791003502e+00 -2.9632261323923326e-02 -5.5388014793712659e-01 +5.3341618409529128e-03
-3.5000000000000000e+00 +8.5266615505970496e+00 +0.0000000000000000e+00 -3.4999999781778901e+00 -2.9633387364158596e-02 -5.5390284663356582e-01 +5.3342489077400634e-03
-3.5499999999999998e+00 +8.5266518079006293e+00 +0.0000000000000000e+00 -3.5499999772286701e+00 -2.9634528442168750e-02 -5.5392583421269104e-01 +5.3343433768795962e-03
-3.6000000000000001e+00 +8.5266419268882601e+00 +0.0000000000000000e+00 -3.5999999762523198e+00 -2.9635684356528753e-02 -5.5394910850821444e-01 +5.3344451875291018e-03
-3.6499999999999999e+00 +8.5266319075708505e+00 +0.0000000000000000e+00 -3.6499999752484298e+00 -2.9636854905806906e-02 -5.5397266735374517e-01 +5.3345542788452794e-03
-3.6999999999999900e+00 +8.5266217499374797e+00 +0.0000000000000000e+00 -3.6999999742166398e+00 -2.9638039888579215e-02 -5.5399650858305693e-01 +5.3346705899865012e-03
-3.7499999999999898e+00 +8.5266114539917908e+00 +0.0000000000000000e+00 -3.7499999731565601e+00 -2.9639239103414896e-02 -5.5402063002981938e-01 +5.3347940601102340e-03
-3.7999999999999901e+00 +8.5266010197374307e+00 +0.0000000000000000e+00 -3.7999999720678099e+00 -2.9640452348882101e-02 -5.5404502952770607e-01 +5.3349246283740607e-03
-3.8499999999999899e+00 +8.5265904471671092e+00 +0.0000000000000000e+00 -3.8499999709499999e+00 -2.9641679423552201e-02 -5.5406970491047391e-01 +5.3350622339364525e-03
-3.8999999999999901e+00 +8.5265797362881095e+00 +0.0000000000000000e+00 -3.8999999698027499e+00 -2.9642920125989659e-02 -5.5409465401177527e-01 +5.3352068159549688e-03
-3.9499999999999900e+00 +8.5265688870931609e+00 +0.0000000000000000e+00 -3.9499999686256899e+00 -2.9644174254763438e-02 -5.5411987466537238e-01 +5.3353583135882900e-03
-3.9999999999999898e+00 +8.5265578995895304e+00 +0.0000000000000000e+00 -3.9999999674184199e+00 -2.9645441608435477e-02 -5.5414536470492326e-01 +5.3355166659941732e-03
-4.0499999999999901e+00 +8.5265467737735907e+00 +0.0000000000000000e+00 -4.0499999661805601e+00 -2.9646722002179181e-02 -5.5417112188481032e-01 +5.3356818134922025e-03
-4.0999999999999899e+00 +8.5265355096416897e+00 +0.0000000000000000e+00 -4.0999999649117402e+00 -2.9648015317601209e-02 -5.5419714364198414e-01 +5.3358537010457707e-03
-4.1499999999999897e+00 +8.5265241072047502e+00 +0.0000000000000000e+00 -4.1499999636115703e+00 -2.9649321452911631e-02 -5.5422342733393459e-01 +5.3360322747779548e-03
-4.1999999999999904e+00 +8.5265125664518600e+00 +0.0000000000000000e+00 -4.1999999622796604e+00 -2.9650640306330082e-02 -5.5424997031831313e-01 +5.3362174808131019e-03
-4.2499999999999902e+00 +8.5265008873866499e+00 +0.0000000000000000e+00 -4.2499999609156403e+00 -2.9651971776071269e-02 -5.5427676995266739e-01 +5.3364092652742057e-03
-4.2999999999999901e+00 +8.5264890700091200e+00 +0.0000000000000000e+00 -4.2999999595191198e+00 -2.9653315760352263e-02 -5.5430382359457242e-01 +5.3366075742842098e-03
-4.3499999999999899e+00 +8.5264771143192792e+00 +0.0000000000000000e+00 -4.3499999580897200e+00 -2.9654672157391041e-02 -5.5433112860160638e-01 +5.3368123539657237e-03
-4.3999999999999897e+00 +8.5264650203207601e+00 +0.0000000000000000e+00 -4.3999999566270596e+00 -2.9656040865405086e-02 -5.5435868233132268e-01 +5.3370235504407370e-03
-4.4499999999999904e+00 +8.5264527880062797e+00 +0.0000000000000000e+00 -4.4499999551307496e+00 -2.9657421782617179e-02 -5.5438648214135489e-01 +5.3372411098316563e-03
-4.4999999999999902e+00 +8.5264404173794901e+00 +0.0000000000000000e+00 -4.4999999536004101e+00 -2.9658814807246688e-02 -5.5441452538925906e-01 +5.3374649782597251e-03
-4.5499999999999901e+00 +8.5264279084440204e+00 +0.0000000000000000e+00 -4.5499999520356598e+00 -2.9660219837513994e-02 -5.5444280943259161e-01 +5.3376951018457870e-03
-4.5999999999999899e+00 +8.5264152611962292e+00 +0.0000000000000000e+00 -4.5999999504361098e+00 -2.9661636771643390e-02 -5.5447133162896334e-01 +5.3379314267107923e-03
-4.6499999999999897e+00 +8.5264024756361305e+00 +0.0000000000000000e+00 -4.6499999488013897e+00 -2.9663065507858664e-02 -5.5450008933595907e-01 +5.3381738989749985e-03
-4.6999999999999904e+00 +8.5263895517600794e+00 +0.0000000000000000e+00 -4.6999999471311096e+00 -2.9664505944386181e-02 -5.5452907991119105e-01 +5.3384224647584798e-03
-4.7499999999999902e+00 +8.5263764895753393e+00 +0.0000000000000000e+00 -4.7499999454248902e+00 -2.9665957979448921e-02 -5.5455830071219103e-01 +5.3386770701800623e-03
-4.7999999999999901e+00 +8.5263632890782901e+00 +0.0000000000000000e+00 -4.7999999436823400e+00 -2.9667421511275337e-02 -5.5458774909657138e-01 +5.3389376613588793e-03
-4.8499999999999899e+00 +8.5263499502725608e+00 +0.0000000000000000e+00 -4.8499999419030901e+00 -2.9668896438092011e-02 -5.5461742242189138e-01 +5.3392041844130553e-03
-4.8999999999999897e+00 +8.5263364731472393e+00 +0.0000000000000000e+00 -4.8999999400867402e+00 -2.9670382658132464e-02 -5.5464731804581535e-01 +5.3394765854612369e-03
-4.9499999999999904e+00 +8.5263228577168793e+00 +0.0000000000000000e+00 -4.9499999382329296e+00 -2.9671880069621136e-02 -5.5467743332582176e-01 +5.3397548106197245e-03
-4.9999999999999902e+00 +8.5263091039705596e+00 +0.0000000000000000e+00 -4.9999999363412497e+00 -2.9673388570793793e-02 -5.5470776561957402e-01 +5.3400388060061083e-03
-5.0499999999999901e+00 +8.5262952115954196e+00 +0.0000000000000000e+00 -5.0499999344112600e+00 -2.9674908060008210e-02 -5.5473831228695425e-01 +5.3403285177590987e-03
-5.0999999999999899e+00 +8.5262811802713294e+00 +0.0000000000000000e+00 -5.0999999324424596e+00 -2.9676438435626399e-02 -5.5476907068789894e-01 +5.3406238920173993e-03
-5.1499999999999897e+00 +8.5262670100019005e+00 +0.0000000000000000e+00 -5.1499999304344799e+00 -2.9677979595881955e-02 -5.5480003817996426e-01 +5.3409248748958887e-03
-5.1999999999999904e+00 +8.5262527007798798e+00 +0.0000000000000000e+00 -5.1999999283869203e+00 -2.9679531439013983e-02 -5.5483121212078579e-01 +5.3412314125096221e-03
-5.2499999999999902e+00 +8.5262382526088896e+00 +0.0000000000000000e+00 -5.2499999262994104e+00 -2.9681093863258522e-02 -5.5486258986791681e-01 +5.3415434509722602e-03
-5.2999999999999901e+00 +8.5262236654925800e+00 +0.0000000000000000e+00 -5.2999999241715603e+00 -2.9682666766852762e-02 -5.5489416877890929e-01 +5.3418609363968207e-03
-5.3499999999999899e+00 +8.5262089394273097e+00 +0.0000000000000000e+00 -5.3499999220029704e+00 -2.9684250048038048e-02 -5.5492594621136548e-01 +5.3421838148961925e-03
-5.3999999999999897e+00 +8.5261940744130698e+00 +0.0000000000000000e+00 -5.3999999197932702e+00 -2.9685843605055579e-02 -5.5495791952285956e-01 +5.3425120325823420e-03
-5.4499999999999904e+00 +8.5261790704498708e+00 +0.0000000000000000e+00 -5.4499999175420601e+00 -2.9687447336147779e-02 -5.5499008607096267e-01 +5.3428455355665474e-03
-5.4999999999999902e+00 +8.5261639275377092e+00 +0.0000000000000000e+00 -5.4999999152489698e+00 -2.9689061139558392e-02 -5.5502244321324301e-01 +5.3431842699593881e-03
-5.5499999999999901e+00 +8.5261486456802196e+00 +0.0000000000000000e+00 -5.5499999129136004e+00 -2.9690684913530978e-02 -5.5505498830723954e-01 +5.3435281818704702e-03
-5.5999999999999899e+00 +8.5261332248737691e+00 +0.0000000000000000e+00 -5.5999999105355700e+00 -2.9692318556313366e-02 -5.5508771871054119e-01 +5.3438772174091891e-03
-5.6499999999999897e+00 +8.5261176651147306e+00 +0.0000000000000000e+00 -5.6499999081144896e+00 -2.9693961966154685e-02 -5.5512063178073401e-01 +5.3442313226841993e-03
-5.6999999999999904e+00 +8.5261019664103497e+00 +0.0000000000000000e+00 -5.6999999056499897e+00 -2.9695615041301096e-02 -5.5515372487532000e-01 +5.3445904438026029e-03
-5.7499999999999902e+00 +8.5260861287570204e+00 +0.0000000000000000e+00 -5.7499999031416600e+00 -2.9697277680004439e-02 -5.5518699535187732e-01 +5.3449545268715089e-03
-5.7999999999999901e+00 +8.5260701521547198e+00 +0.0000000000000000e+00 -5.7999999005891203e+00 -2.9698949780516525e-02 -5.5522044056795372e-01 +5.3453235179969742e-03
-5.8499999999999899e+00 +8.5260540366070892e+00 +0.0000000000000000e+00 -5.8499998979920003e+00 -2.9700631241089098e-02 -5.5525405788106597e-01 +5.3456973632839827e-03
