# trajectory
# s[mm] rx[mm] ry[mm] rz[mm] px[rad] py[rad] pz[rad]
0.0000000000000000e+00 +8.5269999999999992e+00 +0.0000000000000000e+00 +0.0000000000000000e+00 +0.0000000000000000e+00 +0.0000000000000000e+00 +1.0000000000000000e+00
-5.0000000000000003e-02 +8.5269999309954958e+00 +0.0000000000000000e+00 -4.9999999999936512e-02 +2.7601790248891999e-06 +0.0000000000000000e+00 +9.9999999999619071e-01
-1.0000000000000001e-01 +8.5269997239821933e+00 +0.0000000000000000e+00 -9.9999999999492106e-02 +5.5203522477265144e-06 +0.0000000000000000e+00 +9.9999999998476286e-01
-1.5000000000000002e-01 +8.5269993789603351e+00 +0.0000000000000000e+00 -1.4999999999828584e-01 +8.2805215768131170e-06 +0.0000000000000000e+00 +9.9999999996571654e-01
-2.0000000000000001e-01 +8.5269988959300687e+00 +0.0000000000000000e+00 -1.9999999999593679e-01 +1.1040688916749296e-05 +0.0000000000000000e+00 +9.9999999993905164e-01
-2.5000000000000000e-01 +8.5269982748914455e+00 +0.0000000000000000e+00 -2.4999999999206404e-01 +1.3800856168434541e-05 +0.0000000000000000e+00 +9.9999999990476818e-01
-2.9999999999999999e-01 +8.5269975158444229e+00 +0.0000000000000000e+00 -2.9999999998628663e-01 +1.6561025229067651e-05 +0.0000000000000000e+00 +9.9999999986286625e-01
-3.4999999999999998e-01 +8.5269966187888624e+00 +0.0000000000000000e+00 -3.4999999997822367e-01 +1.9321197992146824e-05 +0.0000000000000000e+00 +9.9999999981334564e-01
-3.9999999999999997e-01 +8.5269955837245313e+00 +0.0000000000000000e+00 -3.9999999996749425e-01 +2.2081376347469753e-05 +0.0000000000000000e+00 +9.9999999975620635e-01
-4.4999999999999996e-01 +8.5269944106511026e+00 +0.0000000000000000e+00 -4.4999999995371737e-01 +2.4841562181133722e-05 +0.0000000000000000e+00 +9.9999999969144837e-01
-4.9999999999999994e-01 +8.5269930995681573e+00 +0.0000000000000000e+00 -4.9999999993651212e-01 +2.7601757375535699e-05 +0.0000000000000000e+00 +9.9999999961907149e-01
-5.4999999999999993e-01 +8.5269916504751784e+00 +0.0000000000000000e+00 -5.4999999991549753e-01 +3.0361963809372423e-05 +0.0000000000000000e+00 +9.9999999953907559e-01
-5.9999999999999998e-01 +8.5269900633715583e+00 +0.0000000000000000e+00 -5.9999999989029262e-01 +3.3122183357640498e-05 +0.0000000000000000e+00 +9.9999999945146045e-01
-6.5000000000000002e-01 +8.5269883382565936e+00 +0.0000000000000000e+00 -6.4999999986051649e-01 +3.5882417891636483e-05 +0.0000000000000000e+00 +9.9999999935622597e-01
-7.0000000000000007e-01 +8.5269864751294886e+00 +0.0000000000000000e+00 -6.9999999982578820e-01 +3.8642669278956990e-05 +0.0000000000000000e+00 +9.9999999925337202e-01
-7.5000000000000011e-01 +8.5269844739893532e+00 +0.0000000000000000e+00 -7.4999999978572673e-01 +4.1402939383498757e-05 +0.0000000000000000e+00 +9.9999999914289828e-01
-8.0000000000000016e-01 +8.5269823348352070e+00 +0.0000000000000000e+00 -7.9999999973995106e-01 +4.4163230065458740e-05 +0.0000000000000000e+00 +9.9999999902480452e-01
-8.5000000000000020e-01 +8.5269800576659733e+00 +0.0000000000000000e+00 -8.4999999968808015e-01 +4.6923543181334213e-05 +0.0000000000000000e+00 +9.9999999889909053e-01
-9.0000000000000024e-01 +8.5269776424804835e+00 +0.0000000000000000e+00 -8.9999999962973309e-01 +4.9683880583922829e-05 +0.0000000000000000e+00 +9.9999999876575596e-01
-9.5000000000000029e-01 +8.5269750892774780e+00 +0.0000000000000000e+00 -9.4999999956452874e-01 +5.2444244122322727e-05 +0.0000000000000000e+00 +9.9999999862480060e-01
-1.0000000000000002e+00 +8.5269723980556051e+00 +0.0000000000000000e+00 -9.9999999949208607e-01 +5.5204635641932598e-05 +0.0000000000000000e+00 +9.9999999847622412e-01
-1.0500000000000003e+00 +8.5269695688134171e+00 +0.0000000000000000e+00 -1.0499999994120242e+00 +5.7965056984451776e-05 +0.0000000000000000e+00 +9.9999999832002606e-01
-1.1000000000000003e+00 +8.5269666015493790e+00 +0.0000000000000000e+00 -1.0999999993239618e+00 +6.0725509987880328e-05 +0.0000000000000000e+00 +9.9999999815620622e-01
-1.1500000000000004e+00 +8.5269634962618603e+00 +0.0000000000000000e+00 -1.1499999992275178e+00 +6.3485996486519107e-05 +0.0000000000000000e+00 +9.9999999798476413e-01
-1.2000000000000004e+00 +8.5269602529491415e+00 +0.0000000000000000e+00 -1.1999999991223111e+00 +6.6246518310969870e-05 +0.0000000000000000e+00 +9.9999999780569937e-01
-1.2500000000000004e+00 +8.5269568716094106e+00 +0.0000000000000000e+00 -1.2499999990079607e+00 +6.9007077288135336e-05 +0.0000000000000000e+00 +9.9999999761901159e-01
-1.3000000000000005e+00 +8.5269533522407635e+00 +0.0000000000000000e+00 -1.2999999988840851e+00 +7.1767675241219241e-05 +0.0000000000000000e+00 +9.9999999742470036e-01
-1.3500000000000005e+00 +8.5269496948412069e+00 +0.0000000000000000e+00 -1.3499999987503035e+00 +7.4528313989726460e-05 +0.0000000000000000e+00 +9.9999999722276522e-01
-1.4000000000000006e+00 +8.5269458994086555e+00 +0.0000000000000000e+00 -1.3999999986062346e+00 +7.7288995349463044e-05 +0.0000000000000000e+00 +9.9999999701320563e-01
-1.4500000000000006e+00 +8.5269419659409316e+00 +0.0000000000000000e+00 -1.4499999984514971e+00 +8.0049721132536327e-05 +0.0000000000000000e+00 +9.9999999679602114e-01
-1.5000000000000007e+00 +8.5269378944357701e+00 +0.0000000000000000e+00 -1.4999999982857097e+00 +8.2810493147354971e-05 +0.0000000000000000e+00 +9.9999999657121119e-01
-1.5500000000000007e+00 +8.5269336848908157e+00 +0.0000000000000000e+00 -1.5499999981084911e+00 +8.5571313198629071e-05 +0.0000000000000000e+00 +9.9999999633877523e-01
-1.6000000000000008e+00 +8.5269293373036206e+00 +0.0000000000000000e+00 -1.5999999979194601e+00 +8.8332183087370183e-05 +0.0000000000000000e+00 +9.9999999609871282e-01
-1.6500000000000008e+00 +8.5269248516716463e+00 +0.0000000000000000e+00 -1.6499999977182354e+00 +9.1093104610891432e-05 +0.0000000000000000e+00 +9.9999999585102328e-01
-1.7000000000000008e+00 +8.5269202279922691e+00 +0.0000000000000000e+00 -1.6999999975044353e+00 +9.3854079562807568e-05 +0.0000000000000000e+00 +9.9999999559570596e-01
-1.7500000000000009e+00 +8.5269154662627713e+00 +0.0000000000000000e+00 -1.7499999972776787e+00 +9.6615109733035032e-05 +0.0000000000000000e+00 +9.9999999533276041e-01
-1.8000000000000009e+00 +8.5269105664803462e+00 +0.0000000000000000e+00 -1.7999999970375842e+00 +9.9376196907792038e-05 +0.0000000000000000e+00 +9.9999999506218584e-01
-1.8500000000000010e+00 +8.5269055286421001e+00 +0.0000000000000000e+00 -1.8499999967837701e+00 +1.0213734286959863e-04 +0.0000000000000000e+00 +9.9999999478398172e-01
-1.9000000000000010e+00 +8.5269003527450487e+00 +0.0000000000000000e+00 -1.8999999965158552e+00 +1.0489854939727675e-04 +0.0000000000000000e+00 +9.9999999449814725e-01
-1.9500000000000011e+00 +8.5268950387861207e+00 +0.0000000000000000e+00 -1.9499999962334578e+00 +1.0765981826595028e-04 +0.0000000000000000e+00 +9.9999999420468189e-01
-2.0000000000000009e+00 +8.5268895867621541e+00 +0.0000000000000000e+00 -1.9999999959361963e+00 +1.1042115124704517e-04 +0.0000000000000000e+00 +9.9999999390358485e-01
-2.0500000000000007e+00 +8.5268839966698984e+00 +0.0000000000000000e+00 -2.0499999956236890e+00 +1.1318255010799301e-04 +0.0000000000000000e+00 +9.9999999359485536e-01
-2.1000000000000005e+00 +8.5268782685060156e+00 +0.0000000000000000e+00 -2.0999999952955544e+00 +1.1594401660897082e-04 +0.0000000000000000e+00 +9.9999999327849265e-01
-2.1500000000000004e+00 +8.5268724022670810e+00 +0.0000000000000000e+00 -2.1499999949514108e+00 +1.1870555249964062e-04 +0.0000000000000000e+00 +9.9999999295449604e-01
-2.2000000000000002e+00 +8.5268663979495809e+00 +0.0000000000000000e+00 -2.1999999945908768e+00 +1.2146715951885317e-04 +0.0000000000000000e+00 +9.9999999262286476e-01
-2.2500000000000000e+00 +8.5268602555499147e+00 +0.0000000000000000e+00 -2.2499999942135700e+00 +1.2422883939464796e-04 +0.0000000000000000e+00 +9.9999999228359793e-01
-2.2999999999999998e+00 +8.5268539750643981e+00 +0.0000000000000000e+00 -2.2999999938191089e+00 +1.2699059384425334e-04 +0.0000000000000000e+00 +9.9999999193669475e-01
-2.3499999999999996e+00 +8.5268475564892583e+00 +0.0000000000000000e+00 -2.3499999934071121e+00 +1.2975242457408651e-04 +0.0000000000000000e+00 +9.9999999158215436e-01
-2.3999999999999995e+00 +8.5268409998206405e+00 +0.0000000000000000e+00 -2.3999999929771971e+00 +1.3251433327975359e-04 +0.0000000000000000e+00 +9.9999999121997596e-01
-2.4499999999999993e+00 +8.5268343050546029e+00 +0.0000000000000000e+00 -2.4499999925289822e+00 +1.3527632164604968e-04 +0.0000000000000000e+00 +9.9999999085015867e-01
-2.4999999999999991e+00 +8.5268274721871204e+00 +0.0000000000000000e+00 -2.4999999920620857e+00 +1.3803839134695888e-04 +0.0000000000000000e+00 +9.9999999047270149e-01
-2.5499999999999989e+00 +8.5268205012140843e+00 +0.0000000000000000e+00 -2.5499999915761253e+00 +1.4080054404565443e-04 +0.0000000000000000e+00 +9.9999999008760365e-01
-2.5999999999999988e+00 +8.5268133921313041e+00 +0.0000000000000000e+00 -2.5999999910707188e+00 +1.4356278139449863e-04 +0.0000000000000000e+00 +9.9999998969486414e-01
-2.6499999999999986e+00 +8.5268061449345058e+00 +0.0000000000000000e+00 -2.6499999905454841e+00 +1.4632510503504299e-04 +0.0000000000000000e+00 +9.9999998929448208e-01
-2.6999999999999984e+00 +8.5267987596193340e+00 +0.0000000000000000e+00 -2.6999999900000393e+00 +1.4908751659802822e-04 +0.0000000000000000e+00 +9.9999998888645647e-01
-2.7499999999999982e+00 +8.5267912361813529e+00 +0.0000000000000000e+00 -2.7499999894340021e+00 +1.5185001770338425e-04 +0.0000000000000000e+00 +9.9999998847078631e-01
-2.7999999999999980e+00 +8.5267835746160436e+00 +0.0000000000000000e+00 -2.7999999888469906e+00 +1.5461260996023040e-04 +0.0000000000000000e+00 +9.9999998804747070e-01
-2.8499999999999979e+00 +8.5267757749188107e+00 +0.0000000000000000e+00 -2.8499999882386220e+00 +1.5737529496687524e-04 +0.0000000000000000e+00 +9.9999998761650855e-01
-2.8999999999999977e+00 +8.5267678370849751e+00 +0.0000000000000000e+00 -2.8999999876085139e+00 +1.6013807431081679e-04 +0.0000000000000000e+00 +9.9999998717789884e-01
-2.9499999999999975e+00 +8.5267597611097816e+00 +0.0000000000000000e+00 -2.9499999869562843e+00 +1.6290094956874246e-04 +0.0000000000000000e+00 +9.9999998673164059e-01
-2.9999999999999973e+00 +8.5267515469883950e+00 +0.0000000000000000e+00 -2.9999999862815505e+00 +1.6566392230652914e-04 +0.0000000000000000e+00 +9.9999998627773268e-01
-3.0499999999999972e+00 +8.5267431947159018e+00 +0.0000000000000000e+00 -3.0499999855839302e+00 +1.6842699407924321e-04 +0.0000000000000000e+00 +9.9999998581617411e-01
-3.0999999999999970e+00 +8.5267347042873105e+00 +0.0000000000000000e+00 -3.0999999848630404e+00 +1.7119016643114059e-04 +0.0000000000000000e+00 +9.9999998534696377e-01
-3.1499999999999968e+00 +8.5267260756975567e+00 +0.0000000000000000e+00 -3.1499999841184989e+00 +1.7395344089566676e-04 +0.0000000000000000e+00 +9.9999998487010056e-01
-3.1999999999999966e+00 +8.5267173089414943e+00 +0.0000000000000000e+00 -3.1999999833499229e+00 +1.7671681899545684e-04 +0.0000000000000000e+00 +9.9999998438558324e-01
-3.2499999999999964e+00 +8.5267084040139043e+00 +0.0000000000000000e+00 -3.2499999825569295e+00 +1.7948030224233555e-04 +0.0000000000000000e+00 +9.9999998389341083e-01
-3.2999999999999963e+00 +8.5266993609094914e+00 +0.0000000000000000e+00 -3.2999999817391363e+00 +1.8224389213731729e-04 +0.0000000000000000e+00 +9.9999998339358220e-01
-3.3499999999999961e+00 +8.5266901796228876e+00 +0.0000000000000000e+00 -3.3499999808961602e+00 +1.8500759017060618e-04 +0.0000000000000000e+00 +9.9999998288609615e-01
-3.3999999999999959e+00 +8.5266808601486481e+00 +0.0000000000000000e+00 -3.3999999800276184e+00 +1.8777139782159602e-04 +0.0000000000000000e+00 +9.9999998237095145e-01
-3.4499999999999957e+00 +8.5266714024812540e+00 +0.0000000000000000e+00 -3.4499999791331279e+00 +1.9053531655887043e-04 +0.0000000000000000e+00 +9.9999998184814698e-01
-3.4999999999999956e+00 +8.5266618066151167e+00 +0.0000000000000000e+00 -3.4999999782123057e+00 +1.9329934784020276e-04 +0.0000000000000000e+00 +9.9999998131768142e-01
-3.5499999999999954e+00 +8.5266520725445716e+00 +0.0000000000000000e+00 -3.5499999772647683e+00 +1.9606349311255622e-04 +0.0000000000000000e+00 +9.9999998077955365e-01
-3.5999999999999952e+00 +8.5266422002638826e+00 +0.0000000000000000e+00 -3.5999999762901331e+00 +1.9882775381208380e-04 +0.0000000000000000e+00 +9.9999998023376246e-01
-3.6499999999999950e+00 +8.5266321897672430e+00 +0.0000000000000000e+00 -3.6499999752880168e+00 +2.0159213136412837e-04 +0.0000000000000000e+00 +9.9999997968030663e-01
-3.6999999999999948e+00 +8.5266220410487747e+00 +0.0000000000000000e+00 -3.6999999742580361e+00 +2.0435662718322272e-04 +0.0000000000000000e+00 +9.9999997911918481e-01
-3.7499999999999947e+00 +8.5266117541025306e+00 +0.0000000000000000e+00 -3.7499999731998077e+00 +2.0712124267308947e-04 +0.0000000000000000e+00 +9.9999997855039580e-01
-3.7999999999999945e+00 +8.5266013289224905e+00 +0.0000000000000000e+00 -3.7999999721129480e+00 +2.0988597922664119e-04 +0.0000000000000000e+00 +9.9999997797393825e-01
-3.8499999999999943e+00 +8.5265907655025668e+00 +0.0000000000000000e+00 -3.8499999709970738e+00 +2.1265083822598043e-04 +0.0000000000000000e+00 +9.9999997738981083e-01
-3.8999999999999941e+00 +8.5265800638366045e+00 +0.0000000000000000e+00 -3.8999999698518013e+00 +2.1541582104239962e-04 +0.0000000000000000e+00 +9.9999997679801234e-01
-3.9499999999999940e+00 +8.5265692239183775e+00 +0.0000000000000000e+00 -3.9499999686767473e+00 +2.1818092903638122e-04 +0.0000000000000000e+00 +9.9999997619854142e-01
-3.9999999999999938e+00 +8.5265582457415920e+00 +0.0000000000000000e+00 -3.9999999674715276e+00 +2.2094616355759766e-04 +0.0000000000000000e+00 +9.9999997559139675e-01
-4.0499999999999936e+00 +8.5265471292998907e+00 +0.0000000000000000e+00 -4.0499999662357586e+00 +2.2371152594481239e-04 +0.0000000000000000e+00 +9.9999997497657689e-01
-4.0999999999999934e+00 +8.5265358745868447e+00 +0.0000000000000000e+00 -4.0999999649690571e+00 +2.2647701752479080e-04 +0.0000000000000000e+00 +9.9999997435408061e-01
-4.1499999999999932e+00 +8.5265244815959633e+00 +0.0000000000000000e+00 -4.1499999636710383e+00 +2.2924263961121127e-04 +0.0000000000000000e+00 +9.9999997372390637e-01
-4.1999999999999931e+00 +8.5265129503206865e+00 +0.0000000000000000e+00 -4.1999999623413196e+00 +2.3200839350456611e-04 +0.0000000000000000e+00 +9.9999997308605293e-01
-4.2499999999999929e+00 +8.5265012807543936e+00 +0.0000000000000000e+00 -4.2499999609795163e+00 +2.3477428049216163e-04 +0.0000000000000000e+00 +9.9999997244051886e-01
-4.2999999999999927e+00 +8.5264894728903968e+00 +0.0000000000000000e+00 -4.2999999595852438e+00 +2.3754030184811812e-04 +0.0000000000000000e+00 +9.9999997178730271e-01
-4.3499999999999925e+00 +8.5264775267219477e+00 +0.0000000000000000e+00 -4.3499999581581186e+00 +2.4030645883336990e-04 +0.0000000000000000e+00 +9.9999997112640315e-01
-4.3999999999999924e+00 +8.5264654422422321e+00 +0.0000000000000000e+00 -4.3999999566977559e+00 +2.4307275269566528e-04 +0.0000000000000000e+00 +9.9999997045781863e-01
-4.4499999999999922e+00 +8.5264532194443756e+00 +0.0000000000000000e+00 -4.4499999552037721e+00 +2.4583918466956661e-04 +0.0000000000000000e+00 +9.9999996978154782e-01
-4.4999999999999920e+00 +8.5264408583214433e+00 +0.0000000000000000e+00 -4.4999999536757826e+00 +2.4860575597645027e-04 +0.0000000000000000e+00 +9.9999996909758915e-01
-4.5499999999999918e+00 +8.5264283588664362e+00 +0.0000000000000000e+00 -4.5499999521134029e+00 +2.5137246782450670e-04 +0.0000000000000000e+00 +9.9999996840594130e-01
-4.5999999999999917e+00 +8.5264157210722988e+00 +0.0000000000000000e+00 -4.5999999505162483e+00 +2.5413932140874040e-04 +0.0000000000000000e+00 +9.9999996770660271e-01
-4.6499999999999915e+00 +8.5264029449319132e+00 +0.0000000000000000e+00 -4.6499999488839343e+00 +2.5690631791096990e-04 +0.0000000000000000e+00 +9.9999996699957194e-01
-4.6999999999999913e+00 +8.5263900304381064e+00 +0.0000000000000000e+00 -4.6999999472160772e+00 +2.5967345849982776e-04 +0.0000000000000000e+00 +9.9999996628484744e-01
-4.7499999999999911e+00 +8.5263769775836433e+00 +0.0000000000000000e+00 -4.7499999455122914e+00 +2.6244074433076067e-04 +0.0000000000000000e+00 +9.9999996556242776e-01
-4.7999999999999909e+00 +8.5263637863612338e+00 +0.0000000000000000e+00 -4.7999999437721916e+00 +2.6520817654602938e-04 +0.0000000000000000e+00 +9.9999996483231146e-01
-4.8499999999999908e+00 +8.5263504567635309e+00 +0.0000000000000000e+00 -4.8499999419953941e+00 +2.6797575627470865e-04 +0.0000000000000000e+00 +9.9999996409449687e-01
-4.8999999999999906e+00 +8.5263369887831306e+00 +0.0000000000000000e+00 -4.8999999401815133e+00 +2.7074348463268743e-04 +0.0000000000000000e+00 +9.9999996334898256e-01
-4.9499999999999904e+00 +8.5263233824125724e+00 +0.0000000000000000e+00 -4.9499999383301638e+00 +2.7351136272266862e-04 +0.0000000000000000e+00 +9.9999996259576696e-01
-4.9999999999999902e+00 +8.5263096376443439e+00 +0.0000000000000000e+00 -4.9999999364409611e+00 +2.7627939163416931e-04 +0.0000000000000000e+00 +9.9999996183484863e-01
-5.0499999999999901e+00 +8.5262957544708780e+00 +0.0000000000000000e+00 -5.0499999345135205e+00 +2.7904757244352052e-04 +0.0000000000000000e+00 +9.9999996106622591e-01
-5.0999999999999899e+00 +8.5262817328845504e+00 +0.0000000000000000e+00 -5.0999999325474556e+00 +2.8181590621386744e-04 +0.0000000000000000e+00 +9.9999996028989724e-01
-5.1499999999999897e+00 +8.5262675728776891e+00 +0.0000000000000000e+00 -5.1499999305423820e+00 +2.8458439399516933e-04 +0.0000000000000000e+00 +9.9999995950586107e-01
-5.1999999999999895e+00 +8.5262532744425670e+00 +0.0000000000000000e+00 -5.1999999284979133e+00 +2.8735303682419946e-04 +0.0000000000000000e+00 +9.9999995871411584e-01
-5.2499999999999893e+00 +8.5262388375714053e+00 +0.0000000000000000e+00 -5.2499999264136648e+00 +2.9012183572454519e-04 +0.0000000000000000e+00 +9.9999995791465990e-01
-5.2999999999999892e+00 +8.5262242622563758e+00 +0.0000000000000000e+00 -5.2999999242892510e+00 +2.9289079170660785e-04 +0.0000000000000000e+00 +9.9999995710749168e-01
-5.3499999999999890e+00 +8.5262095484896001e+00 +0.0000000000000000e+00 -5.3499999221242858e+00 +2.9565990576760289e-04 +0.0000000000000000e+00 +9.9999995629260963e-01
-5.3999999999999888e+00 +8.5261946962631487e+00 +0.0000000000000000e+00 -5.3999999199183835e+00 +2.9842917889155973e-04 +0.0000000000000000e+00 +9.9999995547001208e-01
-5.4499999999999886e+00 +8.5261797055690440e+00 +0.0000000000000000e+00 -5.4499999176711587e+00 +3.0119861204932189e-04 +0.0000000000000000e+00 +9.9999995463969749e-01
-5.4999999999999885e+00 +8.5261645763992604e+00 +0.0000000000000000e+00 -5.4999999153822250e+00 +3.0396820619854679e-04 +0.0000000000000000e+00 +9.9999995380166418e-01
-5.5499999999999883e+00 +8.5261493087457243e+00 +0.0000000000000000e+00 -5.5499999130511961e+00 +3.0673796228370591e-04 +0.0000000000000000e+00 +9.9999995295591060e-01
-5.5999999999999881e+00 +8.5261339026003160e+00 +0.0000000000000000e+00 -5.5999999106776865e+00 +3.0950788123608474e-04 +0.0000000000000000e+00 +9.9999995210243509e-01
-5.6499999999999879e+00 +8.5261183579548696e+00 +0.0000000000000000e+00 -5.6499999082613108e+00 +3.1227796397378265e-04 +0.0000000000000000e+00 +9.9999995124123597e-01
-5.6999999999999877e+00 +8.5261026748011730e+00 +0.0000000000000000e+00 -5.6999999058016817e+00 +3.1504821140171299e-04 +0.0000000000000000e+00 +9.9999995037231160e-01
-5.7499999999999876e+00 +8.5260868531309697e+00 +0.0000000000000000e+00 -5.7499999032984128e+00 +3.1781862441160303e-04 +0.0000000000000000e+00 +9.9999994949566029e-01
-5.7999999999999874e+00 +8.5260708929359570e+00 +0.0000000000000000e+00 -5.7999999007511187e+00 +3.2058920388199405e-04 +0.0000000000000000e+00 +9.9999994861128039e-01
-5.8499999999999872e+00 +8.5260547942077913e+00 +0.0000000000000000e+00 -5.8499998981594121e+00 +3.2335995067824110e-04 +0.0000000000000000e+00 +9.9999994771917033e-01
