# multipoles
# s[mm] polynom_b[n=0][T/m^n] polynom_b[n=1][T/m^n] polynom_b[n=2][T/m^n] polynom_b[n=3][T/m^n] polynom_b[n=4][T/m^n] polynom_b[n=5][T/m^n] polynom_b[n=6][T/m^n] 
+0.0000000000000000e+00 -5.5253552241150783e-01 +7.2320064366544496e+00 +5.2321338459215614e+00 -5.3726980756174115e+01 -5.6324503965184877e+03 +1.1273447709287993e+05 +4.1981595632637046e+07 
+5.0000000000000003e-02 -5.5253585267987804e-01 +7.2319707374322100e+00 +5.2381560703170278e+00 -5.3191948939314379e+01 -5.7624203704152615e+03 +1.0974082151502017e+05 +4.2777384339294136e+07 
+1.0000000000000001e-01 -5.5253656320755673e-01 +7.2319548860179053e+00 +5.2440699922655005e+00 -5.2636773399288025e+01 -5.8961494118666669e+03 +1.0661900700633887e+05 +4.3583108981789038e+07 
+1.5000000000000002e-01 -5.5253765293588730e-01 +7.2319588584437584e+00 +5.2498606125761595e+00 -5.2062416369436711e+01 -6.0334297244107793e+03 +1.0337555291901244e+05 +4.4398034471214682e+07 
+2.0000000000000001e-01 -5.5253912080629553e-01 +7.2319826307483064e+00 +5.2555129427541702e+00 -5.1469840331377945e+01 -6.1740537930167930e+03 +1.0001698072655749e+05 +4.5221427594438575e+07 
+2.5000000000000000e-01 -5.5254096576018918e-01 +7.2320261789654054e+00 +5.2610119884601421e+00 -5.0860007543528646e+01 -6.3178139483640552e+03 +9.6549810061076831e+04 +4.6052554106506549e+07 
+2.9999999999999999e-01 -5.5254318673899128e-01 +7.2320894791309405e+00 +5.2663427550775550e+00 -5.0233880330868551e+01 -6.4645025150016254e+03 +9.2980561143313244e+04 +4.6890679727568731e+07 
+3.4999999999999998e-01 -5.5254578268416132e-01 +7.2321725072808070e+00 +5.2714902509512651e+00 -4.9592421005074179e+01 -6.6139118938511856e+03 +8.9315754157319607e+04 +4.7735070679673284e+07 
+3.9999999999999997e-01 -5.5254875253715197e-01 +7.2322752394507530e+00 +5.2764394805769514e+00 -4.8936591834502757e+01 -6.7658343868931479e+03 +8.5561908884087272e+04 +4.8584992536565341e+07 
+4.4999999999999996e-01 -5.5255209523946014e-01 +7.2323976516776396e+00 +5.2811754531365276e+00 -4.8267355130669849e+01 -6.9200624197552834e+03 +8.1725545573890020e+04 +4.9439711695254304e+07 
+4.9999999999999994e-01 -5.5255580973256890e-01 +7.2325397199992523e+00 +5.2856831726751565e+00 -4.7585673217206455e+01 -7.0763882837423052e+03 +7.7813184578685527e+04 +5.0298493660480358e+07 
+5.4999999999999993e-01 -5.5255989495800339e-01 +7.2327014204517583e+00 +5.2899476468218642e+00 -4.6892508321799596e+01 -7.2346043587883642e+03 +7.3831345458064548e+04 +5.1160604507169679e+07 
+5.9999999999999998e-01 -5.5256434985729752e-01 +7.2328827290750031e+00 +5.2939538828072816e+00 -4.6188822796365720e+01 -7.3945030233643774e+03 +6.9786548794624265e+04 +5.2025310333618887e+07 
+6.5000000000000002e-01 -5.5256917337198908e-01 +7.2330836219049806e+00 +5.2976868846657919e+00 -4.5475578822982513e+01 -7.5558765618544530e+03 +6.5685313839278970e+04 +5.2891876573183760e+07 
+7.0000000000000007e-01 -5.5257436444365293e-01 +7.2333040749816391e+00 +5.3011316606305066e+00 -4.4753738714076206e+01 -7.7185173781916355e+03 +6.1534160891544852e+04 +5.3759569491163716e+07 
+7.5000000000000011e-01 -5.5257992201387174e-01 +7.2335440643451152e+00 +5.3042732171263873e+00 -4.4024264764870061e+01 -7.8822178244332699e+03 +5.7339610123237049e+04 +5.4627654989390455e+07 
+8.0000000000000016e-01 -5.5258584502423824e-01 +7.2338035660339450e+00 +5.3070965594561041e+00 -4.3288119181690725e+01 -8.0467702207508719e+03 +5.3108180981187172e+04 +5.5495398746431716e+07 
+8.5000000000000020e-01 -5.5259213241637561e-01 +7.2340825560908657e+00 +5.3095866951918618e+00 -4.2546264317314758e+01 -8.2119669513022673e+03 +4.8846394117926335e+04 +5.6362066887349851e+07 
+9.0000000000000024e-01 -5.5259878313190769e-01 +7.2343810105582520e+00 +5.3117286292933397e+00 -4.1799662485089378e+01 -8.3776003276344309e+03 +4.4560769878076302e+04 +5.7226925034944527e+07 
+9.5000000000000029e-01 -5.5260579611249316e-01 +7.2346989054757600e+00 +5.3135073700578586e+00 -4.1049275850021779e+01 -8.5434627532039394e+03 +4.0257827330215383e+04 +5.8089239440516971e+07 
+1.0000000000000002e+00 -5.5261317029978618e-01 +7.2350362168896156e+00 +5.3149079216321731e+00 -4.0296066825537913e+01 -8.7093465150435313e+03 +3.5944087605491521e+04 +5.8948275551715344e+07 
+1.0500000000000003e+00 -5.5262090463547375e-01 +7.2353929208413668e+00 +5.3159152916578085e+00 -3.9540997608896653e+01 -8.8750440002097639e+03 +3.1626070066818374e+04 +5.9803299515219063e+07 
+1.1000000000000003e+00 -5.5262899806126220e-01 +7.2357689933781177e+00 +5.3165144879121407e+00 -3.8785030587373612e+01 -9.0403475929124270e+03 +2.7310295584056475e+04 +6.0653577428438760e+07 
+1.1500000000000004e+00 -5.5263744951885663e-01 +7.2361644105452747e+00 +5.3166905152989967e+00 -3.8029128061315674e+01 -9.2050496034607277e+03 +2.3003284340137590e+04 +6.1498374907115079e+07 
+1.2000000000000004e+00 -5.5264625794999689e-01 +7.2365791483907786e+00 +5.3164283817879587e+00 -3.7274252386840779e+01 -9.3689424229090455e+03 +1.8711556884504986e+04 +6.2336958104301035e+07 
+1.2500000000000004e+00 -5.5265542229641673e-01 +7.2370131829616584e+00 +5.3157130915844055e+00 -3.6521365867456034e+01 -9.5318183399133250e+03 +1.4441633371500357e+04 +6.3168592475318648e+07 
+1.3000000000000005e+00 -5.5266494149990320e-01 +7.2374664903058941e+00 +5.3145296552210972e+00 -3.5771430808829308e+01 -9.6934698120560824e+03 +1.0200033914052681e+04 +6.3992544612414651e+07 
+1.3500000000000005e+00 -5.5267481450221490e-01 +7.2379390464751836e+00 +5.3128630758353372e+00 -3.5025409635885424e+01 -9.8536891000439100e+03 +5.9932795749007955e+03 +6.4808079783083677e+07 
+1.4000000000000006e+00 -5.5268504024515386e-01 +7.2384308275208484e+00 +5.3106983613307239e+00 -3.4284264729171362e+01 -1.0012268592433407e+04 +1.8278910248979778e+03 +6.5614464119482368e+07 
+1.4500000000000006e+00 -5.5269561767054276e-01 +7.2389418094964748e+00 +5.3080205196572603e+00 -3.3548958530919705e+01 -1.0169000672289854e+04 -2.2896105885583011e+03 +6.6410963689742558e+07 
+1.5000000000000007e+00 -5.5270654572020816e-01 +7.2394719684542768e+00 +5.3048145580636987e+00 -3.2820453377556177e+01 -1.0323677711923907e+04 -6.3527050916173575e+03 +6.7196844515800804e+07 
+1.5500000000000007e+00 -5.5271782333598596e-01 +7.2400212804497679e+00 +5.3010654812087434e+00 -3.2099711732651116e+01 -1.0476092005411359e+04 -1.0354871215021345e+04 +6.7971372065185100e+07 
+1.6000000000000008e+00 -5.5272944945975089e-01 +7.2405897215393029e+00 +5.2967582989363784e+00 -3.1387696044873241e+01 -1.0626035989901944e+04 -1.4289587916571440e+04 +6.8733812777648270e+07 
+1.6500000000000008e+00 -5.5274142303337959e-01 +7.2411772677837423e+00 +5.2918780179812295e+00 -3.0685368902490975e+01 -1.0773302016392938e+04 -1.8150333096873219e+04 +6.9483432505432457e+07 
+1.7000000000000008e+00 -5.5275374299875868e-01 +7.2417838952362237e+00 +5.2864096446731823e+00 -2.9993692564417366e+01 -1.0917682425185110e+04 -2.1930587328288264e+04 +7.0219497025006592e+07 
+1.7500000000000009e+00 -5.5276640829780221e-01 +7.2424095799630273e+00 +5.2803381868498649e+00 -2.9313629777695109e+01 -1.1058969593924405e+04 -2.5623827290129055e+04 +7.0941272355698273e+07 
+1.8000000000000009e+00 -5.5277941787244300e-01 +7.2430542980231376e+00 +5.2736486531344866e+00 -2.8646142949171406e+01 -1.1196955921410985e+04 -2.9223532535726532e+04 +7.1648024656967968e+07 
+1.8500000000000010e+00 -5.5279277066461974e-01 +7.2437180254825799e+00 +5.2663260508297656e+00 -2.7992194747352666e+01 -1.1331433772573586e+04 -3.2723180493495078e+04 +7.2339019865475312e+07 
+1.9000000000000010e+00 -5.5280646561628988e-01 +7.2444007384052815e+00 +5.2583553873324789e+00 -2.7352747717672610e+01 -1.1462195509960182e+04 -3.6116249666595439e+04 +7.3013523882043526e+07 
+1.9500000000000011e+00 -5.5282050166943286e-01 +7.2451024128596773e+00 +5.2497216715554549e+00 -2.6728764540180251e+01 -1.1589033537236812e+04 -3.9396217570066241e+04 +7.3670802886669785e+07 
+2.0000000000000009e+00 -5.5283487776603368e-01 +7.2458230249112390e+00 +5.2404099104754689e+00 -2.6121207739503451e+01 -1.1711740204389844e+04 -4.2556563048296783e+04 +7.4310122689460054e+07 
+2.0500000000000007e+00 -5.5284959273256817e-01 +7.2465625291729596e+00 +5.2304093574887336e+00 -2.5530810740545910e+01 -1.1830151299867857e+04 -4.5592392240792709e+04 +7.4930885592172503e+07 
+2.1000000000000005e+00 -5.5286464493315612e-01 +7.2473207910053059e+00 +5.2197267771093872e+00 -2.4957474075823182e+01 -1.1944280585243647e+04 -4.8504790617313593e+04 +7.5533070253169596e+07 
+2.1500000000000004e+00 -5.5288003261627838e-01 +7.2480976526012988e+00 +5.2083734516400195e+00 -2.4400911856883589e+01 -1.2054187313688126e+04 -5.1296204055893431e+04 +7.6116806700509891e+07 
+2.2000000000000002e+00 -5.5289575403044522e-01 +7.2488929561517175e+00 +5.1963606660969432e+00 -2.3860838091284382e+01 -1.2159930814985395e+04 -5.3969079307141270e+04 +7.6682225505059451e+07 
+2.2500000000000000e+00 -5.5291180742416746e-01 +7.2497065438525041e+00 +5.1836997032113352e+00 -2.3336966982523624e+01 -1.2261570350288368e+04 -5.6525861508829730e+04 +7.7229456741672322e+07 
+2.2999999999999998e+00 -5.5292819104597035e-01 +7.2505382578961202e+00 +5.1704018466097734e+00 -2.2829012591571022e+01 -1.2359165209842087e+04 -5.8968996922528444e+04 +7.7758630702295139e+07 
+2.3499999999999996e+00 -5.5294490314437927e-01 +7.2513879404749400e+00 +5.1564783777636922e+00 -2.2336688937192903e+01 -1.2452774622791139e+04 -6.1300932248058030e+04 +7.8269877252926409e+07 
+2.3999999999999995e+00 -5.5296194196795501e-01 +7.2522554337866572e+00 +5.1419405821380426e+00 -2.1859710266252897e+01 -1.2542457926618443e+04 -6.3524112239168091e+04 +7.8763326998525649e+07 
+2.4499999999999993e+00 -5.5297930576526233e-01 +7.2531405800240831e+00 +5.1267997441632103e+00 -2.1397790607451327e+01 -1.2628274429363542e+04 -6.5640983444310143e+04 +7.9239110335171998e+07 
+2.4999999999999991e+00 -5.5299699278485803e-01 +7.2540432213840802e+00 +5.1110671449764151e+00 -2.0950644146044016e+01 -1.2710283352614380e+04 -6.7653991125221612e+04 +7.9697357086629212e+07 
+2.5499999999999989e+00 -5.5301500127533154e-01 +7.2549632000609945e+00 +5.0947540691832636e+00 -2.0517984953166305e+01 -1.2788544006417460e+04 -6.9565581487293341e+04 +8.0138197654793918e+07 
+2.5999999999999988e+00 -5.5303332948527417e-01 +7.2559003582505417e+00 +5.0778718005369141e+00 -2.0099527146384840e+01 -1.2863115685374583e+04 -7.1378200341577569e+04 +8.0561762366426989e+07 
+2.6499999999999986e+00 -5.5305197566329256e-01 +7.2568545381491516e+00 +5.0604316229843009e+00 -1.9694984876484607e+01 -1.2934057679973161e+04 -7.3094293178729364e+04 +8.0968181483655825e+07 
+2.6999999999999984e+00 -5.5307093805798802e-01 +7.2578255819534201e+00 +5.0424448181608073e+00 -1.9304072277190222e+01 -1.3001429225587630e+04 -7.4716305675878190e+04 +8.1357584927440837e+07 
+2.7499999999999982e+00 -5.5309021491800237e-01 +7.2588133318594608e+00 +5.0239226727872976e+00 -1.8926503476975363e+01 -1.3065289688369405e+04 -7.6246683469125433e+04 +8.1730103476224005e+07 
+2.7999999999999980e+00 -5.5310980449194658e-01 +7.2598176300637771e+00 +5.0048764668311296e+00 -1.8561992595356806e+01 -1.3125698257837248e+04 -7.7687872324015640e+04 +8.2085866736887261e+07 
+2.8499999999999979e+00 -5.5312970502847547e-01 +7.2608383187641437e+00 +4.9853174859469886e+00 -1.8210253814319543e+01 -1.3182714272426949e+04 -7.9042317428168884e+04 +8.2425005306275621e+07 
+2.8999999999999977e+00 -5.5314991477623465e-01 +7.2618752401553213e+00 +4.9652570125658331e+00 -1.7871001184543278e+01 -1.3236396984280862e+04 -8.0312465048008948e+04 +8.2747649201871455e+07 
+2.9499999999999975e+00 -5.5317043198389670e-01 +7.2629282364360659e+00 +4.9447063325063727e+00 -1.7543948919257378e+01 -1.3286805738039995e+04 -8.1500760086330833e+04 +8.3053929069671214e+07 
+2.9999999999999973e+00 -5.5319125490011134e-01 +7.2639971498010816e+00 +4.9236767260391527e+00 -1.7228811066994819e+01 -1.3333999729779547e+04 -8.2609648773940222e+04 +8.3343974557496041e+07 
+3.0499999999999972e+00 -5.5321238177357424e-01 +7.2650818224488072e+00 +4.9021794794894724e+00 -1.6925301825733513e+01 -1.3378038313316363e+04 -8.3641576096658348e+04 +8.3617916358762577e+07 
+3.0999999999999970e+00 -5.5323381085296830e-01 +7.2661820965770056e+00 +4.8802258759815613e+00 -1.6633135369150569e+01 -1.3418980761812858e+04 -8.4598987214697787e+04 +8.3875884644431040e+07 
+3.1499999999999968e+00 -5.5325554038697633e-01 +7.2672978143794777e+00 +4.8578271969673841e+00 -1.6352025706240255e+01 -1.3456886299224831e+04 -8.5484328622080749e+04 +8.4118009235935241e+07 
+3.1999999999999966e+00 -5.5327756862430666e-01 +7.2684288180552388e+00 +4.8349947271148439e+00 -1.6081687069095679e+01 -1.3491814240456371e+04 -8.6300044929192663e+04 +8.4344420589791104e+07 
+3.2499999999999964e+00 -5.5329989381368017e-01 +7.2695749497998854e+00 +4.8117397514880622e+00 -1.5821833543377721e+01 -1.3523823904377783e+04 -8.7048581959572024e+04 +8.4555249161554098e+07 
+3.2999999999999963e+00 -5.5332251420379874e-01 +7.2707360518097914e+00 +4.7880735510190737e+00 -1.5572179265042049e+01 -1.3552974504138234e+04 -8.7732385036508495e+04 +8.4750624716527551e+07 
+3.3499999999999961e+00 -5.5334542804339437e-01 +7.2719119662814888e+00 +4.7640074102420140e+00 -1.5332438366076596e+01 -1.3579325346543683e+04 -8.8353899546155182e+04 +8.4930677640316069e+07 
+3.3999999999999959e+00 -5.5336863358120603e-01 +7.2731025354088317e+00 +4.7395526141418500e+00 -1.5102324884359920e+01 -1.3602935754726785e+04 -8.8915571574348884e+04 +8.5095538445007950e+07 
+3.4499999999999957e+00 -5.5339212906595758e-01 +7.2743076013908912e+00 +4.7147204433748096e+00 -1.4881553084883702e+01 -1.3623864930255193e+04 -8.9419845279462548e+04 +8.5245336803887382e+07 
+3.4999999999999956e+00 -5.5341591274640656e-01 +7.2755270064199413e+00 +4.6895221831002045e+00 -1.4669836945876527e+01 -1.3642172195345796e+04 -8.9869167213127119e+04 +8.5380203205960155e+07 
+3.5499999999999954e+00 -5.5343998287130503e-01 +7.2767605926920114e+00 +4.6639691172008932e+00 -1.4466890618072902e+01 -1.3657916843763402e+04 -9.0265982421079898e+04 +8.5500267967711776e+07 
+3.5999999999999952e+00 -5.5346433768939485e-01 +7.2780082024017663e+00 +4.6380725258626345e+00 -1.4272428203673549e+01 -1.3671158063941755e+04 -9.0612736325989696e+04 +8.5605660677452609e+07 
+3.6499999999999950e+00 -5.5348897544946030e-01 +7.2792696777441410e+00 +4.6118436961702125e+00 -1.4086163830985445e+01 -1.3681955233248613e+04 -9.0911874071025901e+04 +8.5696512208841607e+07 
+3.6999999999999948e+00 -5.5351389440026055e-01 +7.2805448609133885e+00 +4.5852939096520515e+00 -1.3907811610061046e+01 -1.3690367579460553e+04 -9.1165840918357746e+04 +8.5772952429760799e+07 
+3.7499999999999947e+00 -5.5353909279057589e-01 +7.2818335941000729e+00 +4.5584344500885541e+00 -1.3737085505461621e+01 -1.3696454386561372e+04 -9.1377083306480330e+04 +8.5835111570090875e+07 
+3.7999999999999945e+00 -5.5356456886917615e-01 +7.2831357194993362e+00 +4.5312765995001882e+00 -1.3573699692642881e+01 -1.3700274900942941e+04 -9.1548045855517703e+04 +8.5883119645168066e+07 
+3.8499999999999943e+00 -5.5359032088486304e-01 +7.2844510793033281e+00 +4.5038316430411536e+00 -1.3417368230871960e+01 -1.3701888438575155e+04 -9.1681174125910577e+04 +8.5917107085474119e+07 
+3.8999999999999941e+00 -5.5361634708641205e-01 +7.2857795157033669e+00 +4.4761108619360916e+00 -1.3267805166116659e+01 -1.3701354223432476e+04 -9.1778913716446245e+04 +8.5937203752353027e+07 
+3.9499999999999940e+00 -5.5364264572262600e-01 +7.2871208708896038e+00 +4.4481255404224607e+00 -1.3124724517906360e+01 -1.3698731553770449e+04 -9.1843710368832151e+04 +8.5943539986447290e+07 
+3.9999999999999938e+00 -5.5366921504230482e-01 +7.2884749870548760e+00 +4.4198869617355347e+00 -1.2987840407781990e+01 -1.3694079702417361e+04 -9.1878008985285283e+04 +8.5936245967276841e+07 
+4.0499999999999936e+00 -5.5369605311578685e-01 +7.2898417011174308e+00 +4.3914057478093529e+00 -1.2856881557354617e+01 -1.3687456756356283e+04 -9.1883995772364215e+04 +8.5915472835139379e+07 
+4.0999999999999934e+00 -5.5372315729970545e-01 +7.2912208193378234e+00 +4.3626902510478685e+00 -1.2731594261961881e+01 -1.3678916449235901e+04 -9.1863060158893582e+04 +8.5881449697279885e+07 
+4.1499999999999932e+00 -5.5375052477228559e-01 +7.2926121379221014e+00 +4.3337483776623138e+00 -1.2611720512964839e+01 -1.3668511538519740e+04 -9.1816447424201280e+04 +8.5834423660312742e+07 
+4.1999999999999931e+00 -5.5377815271175479e-01 +7.2940154530738210e+00 +4.3045880345903758e+00 -1.2497002211991710e+01 -1.3656294803958986e+04 -9.1745403652468260e+04 +8.5774641997727722e+07 
+4.2499999999999929e+00 -5.5380603829634567e-01 +7.2954305609984011e+00 +4.2752171286724865e+00 -1.2387181342481382e+01 -1.3642319016130990e+04 -9.1651174254550409e+04 +8.5702351897530288e+07 
+4.2999999999999927e+00 -5.5383417870429508e-01 +7.2968572578994779e+00 +4.2456435677638265e+00 -1.2281999834190669e+01 -1.3626636978191194e+04 -9.1535005019422810e+04 +8.5617800786437467e+07 
+4.3499999999999925e+00 -5.5386257111382242e-01 +7.2982953399804256e+00 +4.2158752563111150e+00 -1.2181199608815563e+01 -1.3609301398264102e+04 -9.1398141810471512e+04 +8.5521235434894115e+07 
+4.3999999999999924e+00 -5.5389121270317365e-01 +7.2997446034450597e+00 +4.1859201037569793e+00 -1.2084522633295338e+01 -1.3590365126658588e+04 -9.1241830031752106e+04 +8.5412903605400667e+07 
+4.4499999999999922e+00 -5.5392010065057928e-01 +7.3012048444947295e+00 +4.1557860164463571e+00 -1.1991710760601551e+01 -1.3569880923292327e+04 -9.1067316093884816e+04 +8.5293052418051735e+07 
+4.4999999999999920e+00 -5.5394923213426372e-01 +7.3026758593337933e+00 +4.1254808996243808e+00 -1.1902506003025291e+01 -1.3547901521858174e+04 -9.0875844986295109e+04 +8.5161928832375750e+07 
+4.5499999999999918e+00 -5.5397860433246338e-01 +7.3041574441633337e+00 +4.0950126609672379e+00 -1.1816650233567803e+01 -1.3524479723064991e+04 -9.0668662883079451e+04 +8.5019780262645811e+07 
+4.5999999999999917e+00 -5.5400821442341586e-01 +7.3056493951835533e+00 +4.0643892083830551e+00 -1.1733885318950348e+01 -1.3499668333788502e+04 -9.0447015917707875e+04 +8.4866854164906174e+07 
+4.6499999999999915e+00 -5.5403805958532881e-01 +7.3071515085968484e+00 +4.0336184448576962e+00 -1.1653953217872534e+01 -1.3473520030641530e+04 -9.0212149494974015e+04 +8.4703397123475969e+07 
+4.6999999999999913e+00 -5.5406813699644797e-01 +7.3086635806005189e+00 +4.0027082797533282e+00 -1.1576595696027605e+01 -1.3446087656794623e+04 -8.9965310568391957e+04 +8.4529656824829459e+07 
+4.7499999999999911e+00 -5.5409844383499607e-01 +7.3101854073996044e+00 +3.9716666191254872e+00 -1.1501554860352243e+01 -1.3417423972947912e+04 -8.9707743224499107e+04 +8.4345880425986290e+07 
+4.7999999999999909e+00 -5.5412897727920496e-01 +7.3117167851884801e+00 +3.9405013709107295e+00 -1.1428572392540097e+01 -1.3387581789495300e+04 -8.9440695037133235e+04 +8.4152315412440151e+07 
+4.8499999999999908e+00 -5.5415973450727785e-01 +7.3132575101688557e+00 +3.9092204384043550e+00 -1.1357390281342941e+01 -1.3356613793140317e+04 -8.9165411059617007e+04 +8.3949208439498574e+07 
+4.8999999999999906e+00 -5.5419071269744624e-01 +7.3148073785370018e+00 +3.8778317299477645e+00 -1.1287750326428320e+01 -1.3324572804949341e+04 -8.8883137812085653e+04 +8.3736807062621415e+07 
+4.9499999999999904e+00 -5.5422190902792390e-01 +7.3163661864899048e+00 +3.8463431517167916e+00 -1.1219394363842037e+01 -1.3291511592033245e+04 -8.8595121522870017e+04 +8.3515358489361078e+07 
+4.9999999999999902e+00 -5.5425332067693356e-01 +7.3179337302260548e+00 +3.8147626115561737e+00 -1.1152064313354284e+01 -1.3257482961867854e+04 -8.8302607686570089e+04 +8.3285110178310513e+07 
+5.0499999999999901e+00 -5.5428494482266211e-01 +7.3195098059387496e+00 +3.7830980120153628e+00 -1.1085501895734765e+01 -1.3222539587711297e+04 -8.8006843423420592e+04 +8.3046308716883868e+07 
