# field on trajectory
# s[mm] rx[mm] ry[mm] rz[mm] bx[T] by[T] bz[T]
0.0000000000000000e+00 +8.5980000000000008e+00 +0.0000000000000000e+00 +0.0000000000000000e+00 -2.8887532703568104e-02 -5.5491756962182603e-01 +5.0508493624097711e-03
5.0000000000000003e-02 +8.5979999307036330e+00 +0.0000000000000000e+00 +4.9999999999935978e-02 -2.8888223453972423e-02 -5.5491429303428119e-01 +5.0500163374058429e-03
1.0000000000000001e-01 +8.5979997228150626e+00 +0.0000000000000000e+00 +9.9999999999487804e-02 -2.8888931833943667e-02 -5.5491134706273715e-01 +5.0491915458310520e-03
1.5000000000000002e-01 +8.5979993763350251e+00 +0.0000000000000000e+00 +1.4999999999827129e-01 -2.8889657923741669e-02 -5.5490873133158403e-01 +5.0483750485614742e-03
2.0000000000000001e-01 +8.5979988912641740e+00 +0.0000000000000000e+00 +1.9999999999590234e-01 -2.8890401803627171e-02 -5.5490644546522527e-01 +5.0475669064735012e-03
2.5000000000000000e-01 +8.5979982676030815e+00 +0.0000000000000000e+00 +2.4999999999199682e-01 -2.8891163553861888e-02 -5.5490448908808054e-01 +5.0467671804438532e-03
2.9999999999999999e-01 +8.5979975053522342e+00 +0.0000000000000000e+00 +2.9999999998617055e-01 -2.8891943254708577e-02 -5.5490286182458437e-01 +5.0459759313495958e-03
3.4999999999999998e-01 +8.5979966045120388e+00 +0.0000000000000000e+00 +3.4999999997803943e-01 -2.8892740986431038e-02 -5.5490156329918472e-01 +5.0451932200681346e-03
3.9999999999999997e-01 +8.5979955650828206e+00 +0.0000000000000000e+00 +3.9999999996721930e-01 -2.8893556829294190e-02 -5.5490059313634610e-01 +5.0444191074772472e-03
4.4999999999999996e-01 +8.5979943870648210e+00 +0.0000000000000000e+00 +4.4999999995332601e-01 -2.8894390863564122e-02 -5.5489995096054689e-01 +5.0436536544550678e-03
4.9999999999999994e-01 +8.5979930704582017e+00 +0.0000000000000000e+00 +4.9999999993597549e-01 -2.8895243169508124e-02 -5.5489963639628126e-01 +5.0428969218801250e-03
5.4999999999999993e-01 +8.5979916152630391e+00 +0.0000000000000000e+00 +5.4999999991478354e-01 -2.8896113827394689e-02 -5.5489964906805656e-01 +5.0421489706313251e-03
5.9999999999999998e-01 +8.5979900214793314e+00 +0.0000000000000000e+00 +5.9999999988936603e-01 -2.8897002917493652e-02 -5.5489998860039613e-01 +5.0414098615879817e-03
6.5000000000000002e-01 +8.5979882891069934e+00 +0.0000000000000000e+00 +6.4999999985933887e-01 -2.8897910520076155e-02 -5.5490065461783800e-01 +5.0406796556298145e-03
7.0000000000000007e-01 +8.5979864181458598e+00 +0.0000000000000000e+00 +6.9999999982431793e-01 -2.8898836715414711e-02 -5.5490164674493436e-01 +5.0399584136369699e-03
7.5000000000000011e-01 +8.5979844085956820e+00 +0.0000000000000000e+00 +7.4999999978391896e-01 -2.8899781583783295e-02 -5.5490296460625221e-01 +5.0392461964900177e-03
8.0000000000000016e-01 +8.5979822604561313e+00 +0.0000000000000000e+00 +7.9999999973775793e-01 -2.8900745205457296e-02 -5.5490460782637330e-01 +5.0385430650699671e-03
8.5000000000000020e-01 +8.5979799737267975e+00 +0.0000000000000000e+00 +8.4999999968545059e-01 -2.8901727660713646e-02 -5.5490657602989457e-01 +5.0378490802582866e-03
9.0000000000000024e-01 +8.5979775484071883e+00 +0.0000000000000000e+00 +8.9999999962661281e-01 -2.8902729029830845e-02 -5.5490886884142654e-01 +5.0371643029369006e-03
9.5000000000000029e-01 +8.5979749844967319e+00 +0.0000000000000000e+00 +9.4999999956086045e-01 -2.8903749393088971e-02 -5.5491148588559502e-01 +5.0364887939881994e-03
1.0000000000000002e+00 +8.5979722819947728e+00 +0.0000000000000000e+00 +9.9999999948780927e-01 -2.8904788830769745e-02 -5.5491442678704006e-01 +5.0358226142950607e-03
1.0500000000000003e+00 +8.5979694409005791e+00 +0.0000000000000000e+00 +1.0499999994070750e+00 -2.8905847423156630e-02 -5.5491769117041689e-01 +5.0351658247408532e-03
1.1000000000000003e+00 +8.5979664612133337e+00 +0.0000000000000000e+00 +1.0999999993182736e+00 -2.8906925250534739e-02 -5.5492127866039409e-01 +5.0345184862094381e-03
1.1500000000000004e+00 +8.5979633429321414e+00 +0.0000000000000000e+00 +1.1499999992210208e+00 -2.8908022393191037e-02 -5.5492518888165587e-01 +5.0338806595851982e-03
1.2000000000000004e+00 +8.5979600860560250e+00 +0.0000000000000000e+00 +1.1999999991149324e+00 -2.8909138931414301e-02 -5.5492942145890056e-01 +5.0332524057530329e-03
1.2500000000000004e+00 +8.5979566905839278e+00 +0.0000000000000000e+00 +1.2499999989996240e+00 -2.8910274945495140e-02 -5.5493397601684069e-01 +5.0326337855983718e-03
1.3000000000000005e+00 +8.5979531565147127e+00 +0.0000000000000000e+00 +1.2999999988747115e+00 -2.8911430515726110e-02 -5.5493885218020345e-01 +5.0320248600071830e-03
1.3500000000000005e+00 +8.5979494838471613e+00 +0.0000000000000000e+00 +1.3499999987398106e+00 -2.8912605722401737e-02 -5.5494404957373045e-01 +5.0314256898659950e-03
1.4000000000000006e+00 +8.5979456725799768e+00 +0.0000000000000000e+00 +1.3999999985945371e+00 -2.8913800645818503e-02 -5.5494956782217741e-01 +5.0308363360618879e-03
1.4500000000000006e+00 +8.5979417227117807e+00 +0.0000000000000000e+00 +1.4499999984385064e+00 -2.8915015366274988e-02 -5.5495540655031494e-01 +5.0302568594825211e-03
1.5000000000000007e+00 +8.5979376342411129e+00 +0.0000000000000000e+00 +1.4999999982713343e+00 -2.8916249964071841e-02 -5.5496156538292740e-01 +5.0296873210161283e-03
1.5500000000000007e+00 +8.5979334071664368e+00 +0.0000000000000000e+00 +1.5499999980926367e+00 -2.8917504519511847e-02 -5.5496804394481403e-01 +5.0291277815515418e-03
1.6000000000000008e+00 +8.5979290414861342e+00 +0.0000000000000000e+00 +1.5999999979020290e+00 -2.8918779112899969e-02 -5.5497484186078805e-01 +5.0285783019781887e-03
1.6500000000000008e+00 +8.5979245371985087e+00 +0.0000000000000000e+00 +1.6499999976991269e+00 -2.8920073824543414e-02 -5.5498195875567669e-01 +5.0280389431861128e-03
1.7000000000000008e+00 +8.5979198943017803e+00 +0.0000000000000000e+00 +1.6999999974835460e+00 -2.8921388734751662e-02 -5.5498939425432203e-01 +5.0275097660659844e-03
1.7500000000000009e+00 +8.5979151127940927e+00 +0.0000000000000000e+00 +1.7499999972549019e+00 -2.8922723923836487e-02 -5.5499714798157984e-01 +5.0269908315090919e-03
1.8000000000000009e+00 +8.5979101926735115e+00 +0.0000000000000000e+00 +1.7999999970128100e+00 -2.8924079472112025e-02 -5.5500521956232063e-01 +5.0264822004073787e-03
1.8500000000000010e+00 +8.5979051339380188e+00 +0.0000000000000000e+00 +1.8499999967568859e+00 -2.8925455459894823e-02 -5.5501360862142846e-01 +5.0259839336534301e-03
1.9000000000000010e+00 +8.5978999365855202e+00 +0.0000000000000000e+00 +1.8999999964867451e+00 -2.8926851967503914e-02 -5.5502231478380237e-01 +5.0254960921405079e-03
1.9500000000000011e+00 +8.5978946006138397e+00 +0.0000000000000000e+00 +1.9499999962020031e+00 -2.8928269075260752e-02 -5.5503133767435464e-01 +5.0250187367625303e-03
2.0000000000000009e+00 +8.5978891260207266e+00 +0.0000000000000000e+00 +1.9999999959022754e+00 -2.8929706863489422e-02 -5.5504067691801207e-01 +5.0245519284141107e-03
2.0500000000000007e+00 +8.5978835128038469e+00 +0.0000000000000000e+00 +2.0499999955871773e+00 -2.8931165362743629e-02 -5.5505033189561015e-01 +5.0240957238961333e-03
2.1000000000000005e+00 +8.5978777609607882e+00 +0.0000000000000000e+00 +2.0999999952563244e+00 -2.8932644404487475e-02 -5.5506030101157466e-01 +5.0236501636325174e-03
2.1500000000000004e+00 +8.5978718704890618e+00 +0.0000000000000000e+00 +2.1499999949093320e+00 -2.8934143770412736e-02 -5.5507058242623741e-01 +5.0232152839534234e-03
2.2000000000000002e+00 +8.5978658413861009e+00 +0.0000000000000000e+00 +2.1999999945458151e+00 -2.8935663242211550e-02 -5.5508117429994286e-01 +5.0227911211896681e-03
2.2500000000000000e+00 +8.5978596736492587e+00 +0.0000000000000000e+00 +2.2499999941653894e+00 -2.8937202601576281e-02 -5.5509207479304579e-01 +5.0223777116727335e-03
2.2999999999999998e+00 +8.5978533672758140e+00 +0.0000000000000000e+00 +2.2999999937676701e+00 -2.8938761630199483e-02 -5.5510328206591375e-01 +5.0219750917347749e-03
2.3499999999999996e+00 +8.5978469222629670e+00 +0.0000000000000000e+00 +2.3499999933522719e+00 -2.8940340109773734e-02 -5.5511479427892441e-01 +5.0215832977086221e-03
2.3999999999999995e+00 +8.5978403386078437e+00 +0.0000000000000000e+00 +2.3999999929188109e+00 -2.8941937821991660e-02 -5.5512660959246674e-01 +5.0212023659277905e-03
2.4499999999999993e+00 +8.5978336163074935e+00 +0.0000000000000000e+00 +2.4499999924669016e+00 -2.8943554548545719e-02 -5.5513872616694138e-01 +5.0208323327264872e-03
2.4999999999999991e+00 +8.5978267553588879e+00 +0.0000000000000000e+00 +2.4999999919961593e+00 -2.8945190071128241e-02 -5.5515114216275951e-01 +5.0204732344396119e-03
2.5499999999999989e+00 +8.5978197557589287e+00 +0.0000000000000000e+00 +2.5499999915061995e+00 -2.8946844171431244e-02 -5.5516385574034255e-01 +5.0201251074027771e-03
2.5999999999999988e+00 +8.5978126175044398e+00 +0.0000000000000000e+00 +2.5999999909966367e+00 -2.8948516631146379e-02 -5.5517686506012309e-01 +5.0197879879522907e-03
2.6499999999999986e+00 +8.5978053405921706e+00 +0.0000000000000000e+00 +2.6499999904670863e+00 -2.8950207231964845e-02 -5.5519016828254286e-01 +5.0194619124251912e-03
2.6999999999999984e+00 +8.5977979250188010e+00 +0.0000000000000000e+00 +2.6999999899171629e+00 -2.8951915755577318e-02 -5.5520376356805534e-01 +5.0191469171592352e-03
2.7499999999999982e+00 +8.5977903707809347e+00 +0.0000000000000000e+00 +2.7499999893464819e+00 -2.8953641983673825e-02 -5.5521764907712323e-01 +5.0188430384929044e-03
2.7999999999999980e+00 +8.5977826778751023e+00 +0.0000000000000000e+00 +2.7999999887546578e+00 -2.8955385697943693e-02 -5.5523182297021922e-01 +5.0185503127654222e-03
2.8499999999999979e+00 +8.5977748462977654e+00 +0.0000000000000000e+00 +2.8499999881413056e+00 -2.8957146680075430e-02 -5.5524628340782578e-01 +5.0182687763167515e-03
2.8999999999999977e+00 +8.5977668760453128e+00 +0.0000000000000000e+00 +2.8999999875060403e+00 -2.8958924711756661e-02 -5.5526102855043502e-01 +5.0179984654876077e-03
2.9499999999999975e+00 +8.5977587671140618e+00 +0.0000000000000000e+00 +2.9499999868484768e+00 -2.8960719574674033e-02 -5.5527605655854828e-01 +5.0177394166194579e-03
2.9999999999999973e+00 +8.5977505195002593e+00 +0.0000000000000000e+00 +2.9999999861682296e+00 -2.8962531050513114e-02 -5.5529136559267678e-01 +5.0174916660545308e-03
3.0499999999999972e+00 +8.5977421332000805e+00 +0.0000000000000000e+00 +3.0499999854649134e+00 -2.8964358920958323e-02 -5.5530695381333994e-01 +5.0172552501358261e-03
3.0999999999999970e+00 +8.5977336082096336e+00 +0.0000000000000000e+00 +3.0999999847381425e+00 -2.8966202967692822e-02 -5.5532281938106709e-01 +5.0170302052071200e-03
3.1499999999999968e+00 +8.5977249445249573e+00 +0.0000000000000000e+00 +3.1499999839875321e+00 -2.8968062972398477e-02 -5.5533896045639608e-01 +5.0168165676129665e-03
3.1999999999999966e+00 +8.5977161421420192e+00 +0.0000000000000000e+00 +3.1999999832126966e+00 -2.8969938716755697e-02 -5.5535537519987288e-01 +5.0166143736987056e-03
3.2499999999999964e+00 +8.5977072010567195e+00 +0.0000000000000000e+00 +3.2499999824132506e+00 -2.8971829982443405e-02 -5.5537206177205267e-01 +5.0164236598104830e-03
3.2999999999999963e+00 +8.5976981212648909e+00 +0.0000000000000000e+00 +3.2999999815888086e+00 -2.8973736551138937e-02 -5.5538901833349918e-01 +5.0162444622952312e-03
3.3499999999999961e+00 +8.5976889027622985e+00 +0.0000000000000000e+00 +3.3499999807389846e+00 -2.8975658204517901e-02 -5.5540624304478370e-01 +5.0160768175006969e-03
3.3999999999999959e+00 +8.5976795455446400e+00 +0.0000000000000000e+00 +3.3999999798633933e+00 -2.8977594724254190e-02 -5.5542373406648582e-01 +5.0159207617754449e-03
3.4499999999999957e+00 +8.5976700496075473e+00 +0.0000000000000000e+00 +3.4499999789616491e+00 -2.8979545892019818e-02 -5.5544148955919337e-01 +5.0157763314688528e-03
3.4999999999999956e+00 +8.5976604149465867e+00 +0.0000000000000000e+00 +3.4999999780333662e+00 -2.8981511489484850e-02 -5.5545950768350172e-01 +5.0156435629311324e-03
3.5499999999999954e+00 +8.5976506415572569e+00 +0.0000000000000000e+00 +3.5499999770781585e+00 -2.8983491298317305e-02 -5.5547778660001357e-01 +5.0155224925133206e-03
3.5999999999999952e+00 +8.5976407294349944e+00 +0.0000000000000000e+00 +3.5999999760956407e+00 -2.8985485100183100e-02 -5.5549632446933983e-01 +5.0154131565673049e-03
3.6499999999999950e+00 +8.5976306785751682e+00 +0.0000000000000000e+00 +3.6499999750854268e+00 -2.8987492676745941e-02 -5.5551511945209764e-01 +5.0153155914458092e-03
3.6999999999999948e+00 +8.5976204889730852e+00 +0.0000000000000000e+00 +3.6999999740471310e+00 -2.8989513809667234e-02 -5.5553416970891212e-01 +5.0152298335024168e-03
3.7499999999999947e+00 +8.5976101606239865e+00 +0.0000000000000000e+00 +3.7499999729803668e+00 -2.8991548280605975e-02 -5.5555347340041583e-01 +5.0151559190915705e-03
3.7999999999999945e+00 +8.5975996935230530e+00 +0.0000000000000000e+00 +3.7999999718847488e+00 -2.8993595871218733e-02 -5.5557302868724689e-01 +5.0150938845685746e-03
3.8499999999999943e+00 +8.5975890876653978e+00 +0.0000000000000000e+00 +3.8499999707598906e+00 -2.8995656363159483e-02 -5.5559283373005108e-01 +5.0150437662896136e-03
3.8999999999999941e+00 +8.5975783430460773e+00 +0.0000000000000000e+00 +3.8999999696054060e+00 -2.8997729538079550e-02 -5.5561288668947983e-01 +5.0150056006117430e-03
3.9499999999999940e+00 +8.5975674596600822e+00 +0.0000000000000000e+00 +3.9499999684209088e+00 -2.8999815177627550e-02 -5.5563318572619247e-01 +5.0149794238929122e-03
3.9999999999999938e+00 +8.5975564375023428e+00 +0.0000000000000000e+00 +3.9999999672060134e+00 -2.9001913063449253e-02 -5.5565372900085341e-01 +5.0149652724919549e-03
4.0499999999999936e+00 +8.5975452765677289e+00 +0.0000000000000000e+00 +4.0499999659603327e+00 -2.9004022996217758e-02 -5.5567451462761186e-01 +5.0149631768512341e-03
4.0999999999999934e+00 +8.5975339768510484e+00 +0.0000000000000000e+00 +4.0999999646834810e+00 -2.9006144852725367e-02 -5.5569554053453507e-01 +5.0149731437442663e-03
4.1499999999999932e+00 +8.5975225383470519e+00 +0.0000000000000000e+00 +4.1499999633750715e+00 -2.9008278528794684e-02 -5.5571680460316986e-01 +5.0149951740275254e-03
4.1999999999999931e+00 +8.5975109610504266e+00 +0.0000000000000000e+00 +4.1999999620347177e+00 -2.9010423920248510e-02 -5.5573830471506425e-01 +5.0150292685577783e-03
4.2499999999999929e+00 +8.5974992449558041e+00 +0.0000000000000000e+00 +4.2499999606620324e+00 -2.9012580922909890e-02 -5.5576003875176649e-01 +5.0150754281920720e-03
4.2999999999999927e+00 +8.5974873900577560e+00 +0.0000000000000000e+00 +4.2999999592566303e+00 -2.9014749432602103e-02 -5.5578200459482463e-01 +5.0151336537877112e-03
4.3499999999999925e+00 +8.5974753963507968e+00 +0.0000000000000000e+00 +4.3499999578181239e+00 -2.9016929345148719e-02 -5.5580420012578746e-01 +5.0152039462022747e-03
4.3999999999999924e+00 +8.5974632638293826e+00 +0.0000000000000000e+00 +4.3999999563461270e+00 -2.9019120556373550e-02 -5.5582662322620235e-01 +5.0152863062935720e-03
4.4499999999999922e+00 +8.5974509924879143e+00 +0.0000000000000000e+00 +4.4499999548402522e+00 -2.9021322962100707e-02 -5.5584927177761645e-01 +5.0153807349196484e-03
4.4999999999999920e+00 +8.5974385823207342e+00 +0.0000000000000000e+00 +4.4999999533001134e+00 -2.9023536458154593e-02 -5.5587214366157611e-01 +5.0154872329387715e-03
4.5499999999999918e+00 +8.5974260333221313e+00 +0.0000000000000000e+00 +4.5499999517253240e+00 -2.9025760940359933e-02 -5.5589523675962604e-01 +5.0156058012094159e-03
4.5999999999999917e+00 +8.5974133454863377e+00 +0.0000000000000000e+00 +4.5999999501154960e+00 -2.9027996304541767e-02 -5.5591854895330906e-01 +5.0157364405902551e-03
4.6499999999999915e+00 +8.5974005188075306e+00 +0.0000000000000000e+00 +4.6499999484702430e+00 -2.9030242446525478e-02 -5.5594207812416696e-01 +5.0158791519401480e-03
4.6999999999999913e+00 +8.5973875532798338e+00 +0.0000000000000000e+00 +4.6999999467891778e+00 -2.9032499262136753e-02 -5.5596582215373869e-01 +5.0160339361181175e-03
4.7499999999999911e+00 +8.5973744488973178e+00 +0.0000000000000000e+00 +4.7499999450719130e+00 -2.9034766647201688e-02 -5.5598977892356027e-01 +5.0162007939833584e-03
4.7999999999999909e+00 +8.5973612056539999e+00 +0.0000000000000000e+00 +4.7999999433180616e+00 -2.9037044497546724e-02 -5.5601394631516599e-01 +5.0163797263952040e-03
4.8499999999999908e+00 +8.5973478235438439e+00 +0.0000000000000000e+00 +4.8499999415272370e+00 -2.9039332708998705e-02 -5.5603832221008609e-01 +5.0165707342131388e-03
4.8999999999999906e+00 +8.5973343025607623e+00 +0.0000000000000000e+00 +4.8999999396990512e+00 -2.9041631177384841e-02 -5.5606290448984841e-01 +5.0167738182967572e-03
4.9499999999999904e+00 +8.5973206426986142e+00 +0.0000000000000000e+00 +4.9499999378331170e+00 -2.9043939798532772e-02 -5.5608769103597600e-01 +5.0169889795057751e-03
4.9999999999999902e+00 +8.5973068439512108e+00 +0.0000000000000000e+00 +4.9999999359290470e+00 -2.9046258468270521e-02 -5.5611267972998857e-01 +5.0172162187000100e-03
5.0499999999999901e+00 +8.5972929063123100e+00 +0.0000000000000000e+00 +5.0499999339864532e+00 -2.9048587082426611e-02 -5.5613786845340152e-01 +5.0174555367393618e-03
5.0999999999999899e+00 +8.5972788297756217e+00 +0.0000000000000000e+00 +5.0999999320049483e+00 -2.9050925536829940e-02 -5.5616325508772579e-01 +5.0177069344838196e-03
5.1499999999999897e+00 +8.5972646143348062e+00 +0.0000000000000000e+00 +5.1499999299841441e+00 -2.9053273727309890e-02 -5.5618883751446646e-01 +5.0179704127934236e-03
5.1999999999999895e+00 +8.5972502599834719e+00 +0.0000000000000000e+00 +5.1999999279236544e+00 -2.9055631549696315e-02 -5.5621461361512525e-01 +5.0182459725282768e-03
5.2499999999999893e+00 +8.5972357667151833e+00 +0.0000000000000000e+00 +5.2499999258230901e+00 -2.9057998899819550e-02 -5.5624058127119624e-01 +5.0185336145485262e-03
5.2999999999999892e+00 +8.5972211345234548e+00 +0.0000000000000000e+00 +5.2999999236820639e+00 -2.9060375673510403e-02 -5.5626673836416984e-01 +5.0188333397143360e-03
5.3499999999999890e+00 +8.5972063634017548e+00 +0.0000000000000000e+00 +5.3499999215001877e+00 -2.9062761766600196e-02 -5.5629308277552891e-01 +5.0191451488859045e-03
5.3999999999999888e+00 +8.5971914533435019e+00 +0.0000000000000000e+00 +5.3999999192770733e+00 -2.9065157074920800e-02 -5.5631961238675065e-01 +5.0194690429234204e-03
5.4499999999999886e+00 +8.5971764043420702e+00 +0.0000000000000000e+00 +5.4499999170123328e+00 -2.9067561494304558e-02 -5.5634632507930526e-01 +5.0198050226870758e-03
5.4999999999999885e+00 +8.5971612163907896e+00 +0.0000000000000000e+00 +5.4999999147055778e+00 -2.9069974920584371e-02 -5.5637321873465628e-01 +5.0201530890370428e-03
5.5499999999999883e+00 +8.5971458894829436e+00 +0.0000000000000000e+00 +5.5499999123564203e+00 -2.9072397249593724e-02 -5.5640029123425971e-01 +5.0205132428334590e-03
5.5999999999999881e+00 +8.5971304236117696e+00 +0.0000000000000000e+00 +5.5999999099644722e+00 -2.9074828377166639e-02 -5.5642754045956422e-01 +5.0208854849364279e-03
5.6499999999999879e+00 +8.5971148187704642e+00 +0.0000000000000000e+00 +5.6499999075293452e+00 -2.9077268199137730e-02 -5.5645496429201058e-01 +5.0212698162059909e-03
5.6999999999999877e+00 +8.5970990749521761e+00 +0.0000000000000000e+00 +5.6999999050506513e+00 -2.9079716611342194e-02 -5.5648256061303158e-01 +5.0216662375021310e-03
5.7499999999999876e+00 +8.5970831921500146e+00 +0.0000000000000000e+00 +5.7499999025280015e+00 -2.9082173509615821e-02 -5.5651032730405103e-01 +5.0220747496847471e-03
5.7999999999999874e+00 +8.5970671703570449e+00 +0.0000000000000000e+00 +5.7999998999610067e+00 -2.9084638789795031e-02 -5.5653826224648473e-01 +5.0224953536136497e-03
5.8499999999999872e+00 +8.5970510095662895e+00 +0.0000000000000000e+00 +5.8499998973492788e+00 -2.9087112347716850e-02 -5.5656636332173848e-01 +5.0229280501485523e-03
5.8999999999999870e+00 +8.5970347097707300e+00 +0.0000000000000000e+00 +5.8999998946924297e+00 -2.9089594079218968e-02 -5.5659462841120999e-01 +5.0233728401490483e-03
