# field on trajectory
# s[mm] rx[mm] ry[mm] rz[mm] bx[T] by[T] bz[T]
0.0000000000000000e+00 +8.2850000000000001e+00 +0.0000000000000000e+00 +0.0000000000000000e+00 -2.9381846305700947e-02 -5.5424386590854113e-01 +5.3873047216101257e-03
-5.0000000000000003e-02 +8.2849999310694837e+00 +0.0000000000000000e+00 -4.9999999999936644e-02 -2.9382363166998278e-02 -5.5425167339240056e-01 +5.3888812206108134e-03
-1.0000000000000001e-01 +8.2849997242766218e+00 +0.0000000000000000e+00 -9.9999999999493161e-02 -2.9382903907079577e-02 -5.5425986660172999e-01 +5.3904593089792174e-03
-1.5000000000000002e-01 +8.2849993796193768e+00 +0.0000000000000000e+00 -1.4999999999828945e-01 -2.9383468362914906e-02 -5.5426844389902818e-01 +5.3920388868050097e-03
-2.0000000000000001e-01 +8.2849988970956154e+00 +0.0000000000000000e+00 -1.9999999999594531e-01 -2.9384056371475103e-02 -5.5427740364681222e-01 +5.3936198541778427e-03
-2.5000000000000000e-01 +8.2849982767031083e+00 +0.0000000000000000e+00 -2.4999999999208058e-01 -2.9384667769731840e-02 -5.5428674420761481e-01 +5.3952021111873258e-03
-2.9999999999999999e-01 +8.2849975184395319e+00 +0.0000000000000000e+00 -2.9999999998631510e-01 -2.9385302394657638e-02 -5.5429646394398746e-01 +5.3967855579230275e-03
-3.4999999999999998e-01 +8.2849966223024705e+00 +0.0000000000000000e+00 -3.4999999997826864e-01 -2.9385960083225849e-02 -5.5430656121849764e-01 +5.3983700944744478e-03
-3.9999999999999997e-01 +8.2849955882894104e+00 +0.0000000000000000e+00 -3.9999999996756097e-01 -2.9386640672410671e-02 -5.5431703439373015e-01 +5.3999556209310190e-03
-4.4999999999999996e-01 +8.2849944163977494e+00 +0.0000000000000000e+00 -4.4999999995381179e-01 -2.9387343999187136e-02 -5.5432788183228598e-01 +5.4015420373820780e-03
-4.9999999999999994e-01 +8.2849931066247873e+00 +0.0000000000000000e+00 -4.9999999993664090e-01 -2.9388069900531170e-02 -5.5433910189678259e-01 +5.4031292439168785e-03
-5.4999999999999993e-01 +8.2849916589677335e+00 +0.0000000000000000e+00 -5.4999999991566795e-01 -2.9388818213419508e-02 -5.5435069294985428e-01 +5.4047171406245492e-03
-5.9999999999999998e-01 +8.2849900734237050e+00 +0.0000000000000000e+00 -5.9999999989051256e-01 -2.9389588774829764e-02 -5.5436265335415102e-01 +5.4063056275941062e-03
-6.5000000000000002e-01 +8.2849883499897263e+00 +0.0000000000000000e+00 -6.4999999986079449e-01 -2.9390381421740452e-02 -5.5437498147233910e-01 +5.4078946049144257e-03
-7.0000000000000007e-01 +8.2849864886627316e+00 +0.0000000000000000e+00 -6.9999999982613326e-01 -2.9391195991130901e-02 -5.5438767566709979e-01 +5.4094839726742385e-03
-7.5000000000000011e-01 +8.2849844894395641e+00 +0.0000000000000000e+00 -7.4999999978614851e-01 -2.9392032319981352e-02 -5.5440073430113135e-01 +5.4110736309621148e-03
-8.0000000000000016e-01 +8.2849823523169750e+00 +0.0000000000000000e+00 -7.9999999974045977e-01 -2.9392890245272925e-02 -5.5441415573714647e-01 +5.4126634798664537e-03
-8.5000000000000020e-01 +8.2849800772916264e+00 +0.0000000000000000e+00 -8.4999999968868656e-01 -2.9393769603987638e-02 -5.5442793833787429e-01 +5.4142534194754795e-03
-9.0000000000000024e-01 +8.2849776643600901e+00 +0.0000000000000000e+00 -8.9999999963044830e-01 -2.9394670233108364e-02 -5.5444208046605803e-01 +5.4158433498772045e-03
-9.5000000000000029e-01 +8.2849751135188487e+00 +0.0000000000000000e+00 -9.4999999956536452e-01 -2.9395591969618922e-02 -5.5445658048445634e-01 +5.4174331711594453e-03
-1.0000000000000002e+00 +8.2849724247642946e+00 +0.0000000000000000e+00 -9.9999999949305463e-01 -2.9396534650503982e-02 -5.5447143675584254e-01 +5.4190227834097909e-03
-1.0500000000000003e+00 +8.2849695980927329e+00 +0.0000000000000000e+00 -1.0499999994131382e+00 -2.9397498112749155e-02 -5.5448664764300604e-01 +5.4206120867156017e-03
-1.1000000000000003e+00 +8.2849666335003800e+00 +0.0000000000000000e+00 -1.0999999993252343e+00 -2.9398482193340954e-02 -5.5450221150874879e-01 +5.4222009811639958e-03
-1.1500000000000004e+00 +8.2849635309833651e+00 +0.0000000000000000e+00 -1.1499999992289622e+00 -2.9399486729266813e-02 -5.5451812671588840e-01 +5.4237893668418295e-03
-1.2000000000000004e+00 +8.2849602905377306e+00 +0.0000000000000000e+00 -1.1999999991239414e+00 -2.9400511557515066e-02 -5.5453439162725626e-01 +5.4253771438356859e-03
-1.2500000000000004e+00 +8.2849569121594282e+00 +0.0000000000000000e+00 -1.2499999990097912e+00 -2.9401556515074992e-02 -5.5455100460569839e-01 +5.4269642122318816e-03
-1.3000000000000005e+00 +8.2849533958443278e+00 +0.0000000000000000e+00 -1.2999999988861306e+00 -2.9402621438936807e-02 -5.5456796401407438e-01 +5.4285504721164196e-03
-1.3500000000000005e+00 +8.2849497415882105e+00 +0.0000000000000000e+00 -1.3499999987525788e+00 -2.9403706166091642e-02 -5.5458526821525722e-01 +5.4301358235750120e-03
-1.4000000000000006e+00 +8.2849459493867723e+00 +0.0000000000000000e+00 -1.3999999986087550e+00 -2.9404810533531573e-02 -5.5460291557213381e-01 +5.4317201666930475e-03
-1.4500000000000006e+00 +8.2849420192356238e+00 +0.0000000000000000e+00 -1.4499999984542782e+00 -2.9405934378249635e-02 -5.5462090444760548e-01 +5.4333034015555844e-03
-1.5000000000000007e+00 +8.2849379511302903e+00 +0.0000000000000000e+00 -1.4999999982887675e+00 -2.9407077537239801e-02 -5.5463923320458497e-01 +5.4348854282473364e-03
-1.5500000000000007e+00 +8.2849337450662137e+00 +0.0000000000000000e+00 -1.5499999981118420e+00 -2.9408239847496995e-02 -5.5465790020599981e-01 +5.4364661468526655e-03
-1.6000000000000008e+00 +8.2849294010387489e+00 +0.0000000000000000e+00 -1.5999999979231203e+00 -2.9409421146017106e-02 -5.5467690381478962e-01 +5.4380454574555637e-03
-1.6500000000000008e+00 +8.2849249190431706e+00 +0.0000000000000000e+00 -1.6499999977222215e+00 -2.9410621269797006e-02 -5.5469624239390680e-01 +5.4396232601396479e-03
-1.7000000000000008e+00 +8.2849202990746686e+00 +0.0000000000000000e+00 -1.6999999975087645e+00 -2.9411840055834495e-02 -5.5471591430631706e-01 +5.4411994549881382e-03
-1.7500000000000009e+00 +8.2849155411283508e+00 +0.0000000000000000e+00 -1.7499999972823681e+00 -2.9413077341128389e-02 -5.5473591791499877e-01 +5.4427739420838490e-03
-1.8000000000000009e+00 +8.2849106451992398e+00 +0.0000000000000000e+00 -1.7999999970426510e+00 -2.9414332962678463e-02 -5.5475625158294128e-01 +5.4443466215091905e-03
-1.8500000000000010e+00 +8.2849056112822783e+00 +0.0000000000000000e+00 -1.8499999967892320e+00 -2.9415606757485460e-02 -5.5477691367314719e-01 +5.4459173933461263e-03
-1.9000000000000010e+00 +8.2849004393723273e+00 +0.0000000000000000e+00 -1.8999999965217296e+00 -2.9416898562551162e-02 -5.5479790254863126e-01 +5.4474861576761964e-03
-1.9500000000000011e+00 +8.2848951294641662e+00 +0.0000000000000000e+00 -1.9499999962397625e+00 -2.9418208214878269e-02 -5.5481921657241962e-01 +5.4490528145804745e-03
-2.0000000000000009e+00 +8.2848896815524942e+00 +0.0000000000000000e+00 -1.9999999959429493e+00 -2.9419535551470564e-02 -5.5484085410755069e-01 +5.4506172641395805e-03
-2.0500000000000007e+00 +8.2848840956319290e+00 +0.0000000000000000e+00 -2.0499999956309085e+00 -2.9420880419614392e-02 -5.5486281333430831e-01 +5.4521794141505313e-03
-2.1000000000000005e+00 +8.2848783716970082e+00 +0.0000000000000000e+00 -2.0999999953032584e+00 -2.9422242707723634e-02 -5.5488509170192812e-01 +5.4537392032775146e-03
-2.1500000000000004e+00 +8.2848725097421898e+00 +0.0000000000000000e+00 -2.1499999949596176e+00 -2.9423622314494711e-02 -5.5490768647688959e-01 +5.4552965779014031e-03
-2.2000000000000002e+00 +8.2848665097618550e+00 +0.0000000000000000e+00 -2.1999999945996040e+00 -2.9425019138624959e-02 -5.5493059492568275e-01 +5.4568514844029001e-03
-2.2500000000000000e+00 +8.2848603717503053e+00 +0.0000000000000000e+00 -2.2499999942228364e+00 -2.9426433078812653e-02 -5.5495381431480673e-01 +5.4584038691625498e-03
-2.2999999999999998e+00 +8.2848540957017658e+00 +0.0000000000000000e+00 -2.2999999938289326e+00 -2.9427864033756981e-02 -5.5497734191077019e-01 +5.4599536785607380e-03
-2.3499999999999996e+00 +8.2848476816103833e+00 +0.0000000000000000e+00 -2.3499999934175109e+00 -2.9429311902158042e-02 -5.5500117498009149e-01 +5.4615008589777060e-03
-2.3999999999999995e+00 +8.2848411294702302e+00 +0.0000000000000000e+00 -2.3999999929881897e+00 -2.9430776582716867e-02 -5.5502531078929629e-01 +5.4630453567935475e-03
-2.4499999999999993e+00 +8.2848344392753042e+00 +0.0000000000000000e+00 -2.4499999925405866e+00 -2.9432257974135390e-02 -5.5504974660492112e-01 +5.4645871183882340e-03
-2.4999999999999991e+00 +8.2848276110195265e+00 +0.0000000000000000e+00 -2.4999999920743199e+00 -2.9433755975116469e-02 -5.5507447969350898e-01 +5.4661260901415990e-03
-2.5499999999999989e+00 +8.2848206446967456e+00 +0.0000000000000000e+00 -2.5499999915890075e+00 -2.9435270484363885e-02 -5.5509950732161206e-01 +5.4676622184333667e-03
-2.5999999999999988e+00 +8.2848135403007355e+00 +0.0000000000000000e+00 -2.5999999910842670e+00 -2.9436801400582337e-02 -5.5512482675579022e-01 +5.4691954496431340e-03
-2.6499999999999986e+00 +8.2848062978251988e+00 +0.0000000000000000e+00 -2.6499999905597167e+00 -2.9438348622477413e-02 -5.5515043526261132e-01 +5.4707257301504020e-03
-2.6999999999999984e+00 +8.2847989172637657e+00 +0.0000000000000000e+00 -2.6999999900149740e+00 -2.9439912048755647e-02 -5.5517633010865064e-01 +5.4722530063345707e-03
-2.7499999999999982e+00 +8.2847913986099968e+00 +0.0000000000000000e+00 -2.7499999894496567e+00 -2.9441491578124451e-02 -5.5520250856049003e-01 +5.4737772245749394e-03
-2.7999999999999980e+00 +8.2847837418573782e+00 +0.0000000000000000e+00 -2.7999999888633824e+00 -2.9443087109292210e-02 -5.5522896788471976e-01 +5.4752983312507403e-03
-2.8499999999999979e+00 +8.2847759469993303e+00 +0.0000000000000000e+00 -2.8499999882557683e+00 -2.9444698540968164e-02 -5.5525570534793534e-01 +5.4768162727411064e-03
-2.8999999999999977e+00 +8.2847680140292024e+00 +0.0000000000000000e+00 -2.8999999876264324e+00 -2.9446325771862486e-02 -5.5528271821674036e-01 +5.4783309954251156e-03
-2.9499999999999975e+00 +8.2847599429402763e+00 +0.0000000000000000e+00 -2.9499999869749916e+00 -2.9447968700686271e-02 -5.5531000375774375e-01 +5.4798424456817688e-03
-2.9999999999999973e+00 +8.2847517337257646e+00 +0.0000000000000000e+00 -2.9999999863010638e+00 -2.9449627226151506e-02 -5.5533755923756101e-01 +5.4813505698900131e-03
-3.0499999999999972e+00 +8.2847433863788122e+00 +0.0000000000000000e+00 -3.0499999856042659e+00 -2.9451301246971099e-02 -5.5536538192281315e-01 +5.4828553144287539e-03
-3.0999999999999970e+00 +8.2847349008925004e+00 +0.0000000000000000e+00 -3.0999999848842150e+00 -2.9452990661858879e-02 -5.5539346908012721e-01 +5.4843566256768360e-03
-3.1499999999999968e+00 +8.2847262772598409e+00 +0.0000000000000000e+00 -3.1499999841405288e+00 -2.9454695369529563e-02 -5.5542181797613566e-01 +5.4858544500130807e-03
-3.1999999999999966e+00 +8.2847175154737851e+00 +0.0000000000000000e+00 -3.1999999833728241e+00 -2.9456415268698771e-02 -5.5545042587747562e-01 +5.4873487338162729e-03
-3.2499999999999964e+00 +8.2847086155272152e+00 +0.0000000000000000e+00 -3.2499999825807175e+00 -2.9458150258083078e-02 -5.5547929005078989e-01 +5.4888394234651758e-03
-3.2999999999999963e+00 +8.2846995774129528e+00 +0.0000000000000000e+00 -3.2999999817638264e+00 -2.9459900236399907e-02 -5.5550840776272559e-01 +5.4903264653385388e-03
-3.3499999999999961e+00 +8.2846904011237559e+00 +0.0000000000000000e+00 -3.3499999809217678e+00 -2.9461665102367637e-02 -5.5553777627993484e-01 +5.4918098058150981e-03
-3.3999999999999959e+00 +8.2846810866523182e+00 +0.0000000000000000e+00 -3.3999999800541580e+00 -2.9463444754705515e-02 -5.5556739286907297e-01 +5.4932893912735927e-03
-3.4499999999999957e+00 +8.2846716339912749e+00 +0.0000000000000000e+00 -3.4499999791606140e+00 -2.9465239092133708e-02 -5.5559725479680044e-01 +5.4947651680927537e-03
-3.4999999999999956e+00 +8.2846620431331974e+00 +0.0000000000000000e+00 -3.4999999782407523e+00 -2.9467048013373309e-02 -5.5562735932978102e-01 +5.4962370826513425e-03
-3.5499999999999954e+00 +8.2846523140705965e+00 +0.0000000000000000e+00 -3.5499999772941897e+00 -2.9468871417146280e-02 -5.5565770373468204e-01 +5.4977050813281242e-03
-3.5999999999999952e+00 +8.2846424467959263e+00 +0.0000000000000000e+00 -3.5999999763205426e+00 -2.9470709202175503e-02 -5.5568828527817438e-01 +5.4991691105018984e-03
-3.6499999999999950e+00 +8.2846324413015804e+00 +0.0000000000000000e+00 -3.6499999753194277e+00 -2.9472561267184776e-02 -5.5571910122693202e-01 +5.5006291165514924e-03
-3.6999999999999948e+00 +8.2846222975798920e+00 +0.0000000000000000e+00 -3.6999999742904608e+00 -2.9474427510898779e-02 -5.5575014884763152e-01 +5.5020850458557700e-03
-3.7499999999999947e+00 +8.2846120156231393e+00 +0.0000000000000000e+00 -3.7499999732332587e+00 -2.9476307832043094e-02 -5.5578142540695230e-01 +5.5035368447936472e-03
-3.7999999999999945e+00 +8.2846015954235437e+00 +0.0000000000000000e+00 -3.7999999721474373e+00 -2.9478202129344228e-02 -5.5581292817157635e-01 +5.5049844597440884e-03
-3.8499999999999943e+00 +8.2845910369732696e+00 +0.0000000000000000e+00 -3.8499999710326125e+00 -2.9480110301529559e-02 -5.5584465440818753e-01 +5.5064278370861239e-03
-3.8999999999999941e+00 +8.2845803402644247e+00 +0.0000000000000000e+00 -3.8999999698884009e+00 -2.9482032247327390e-02 -5.5587660138347195e-01 +5.5078669231988482e-03
-3.9499999999999940e+00 +8.2845695052890633e+00 +0.0000000000000000e+00 -3.9499999687144181e+00 -2.9483967865466899e-02 -5.5590876636411757e-01 +5.5093016644614185e-03
-3.9999999999999938e+00 +8.2845585320391848e+00 +0.0000000000000000e+00 -3.9999999675102802e+00 -2.9485917054678196e-02 -5.5594114661681326e-01 +5.5107320072530965e-03
-4.0499999999999936e+00 +8.2845474205067351e+00 +0.0000000000000000e+00 -4.0499999662756023e+00 -2.9487879689799004e-02 -5.5597373938555927e-01 +5.5121578992393368e-03
-4.0999999999999934e+00 +8.2845361706836069e+00 +0.0000000000000000e+00 -4.0999999650100012e+00 -2.9489855550093903e-02 -5.5600654182359510e-01 +5.5135792932300195e-03
-4.1499999999999932e+00 +8.2845247825616433e+00 +0.0000000000000000e+00 -4.1499999637130918e+00 -2.9491844390932821e-02 -5.5603955106146707e-01 +5.5149961433207193e-03
-4.1999999999999931e+00 +8.2845132561326320e+00 +0.0000000000000000e+00 -4.1999999623844904e+00 -2.9493845967684160e-02 -5.5607276422971952e-01 +5.5164084036065358e-03
-4.2499999999999929e+00 +8.2845015913883113e+00 +0.0000000000000000e+00 -4.2499999610238115e+00 -2.9495860035714659e-02 -5.5610617845889332e-01 +5.5178160281820635e-03
-4.2999999999999927e+00 +8.2844897883203714e+00 +0.0000000000000000e+00 -4.2999999596306715e+00 -2.9497886350389350e-02 -5.5613979087952647e-01 +5.5192189711413967e-03
-4.3499999999999925e+00 +8.2844778469204510e+00 +0.0000000000000000e+00 -4.3499999582046849e+00 -2.9499924667071506e-02 -5.5617359862215343e-01 +5.5206171865781152e-03
-4.3999999999999924e+00 +8.2844657671801425e+00 +0.0000000000000000e+00 -4.3999999567454680e+00 -2.9501974741122514e-02 -5.5620759881730386e-01 +5.5220106285852593e-03
-4.4499999999999922e+00 +8.2844535490909870e+00 +0.0000000000000000e+00 -4.4499999552526353e+00 -2.9504036327901891e-02 -5.5624178859550433e-01 +5.5233992512553455e-03
-4.4999999999999920e+00 +8.2844411926444810e+00 +0.0000000000000000e+00 -4.4999999537258013e+00 -2.9506109182767096e-02 -5.5627616508727562e-01 +5.5247830086803378e-03
-4.5499999999999918e+00 +8.2844286978320749e+00 +0.0000000000000000e+00 -4.5499999521645815e+00 -2.9508193061073551e-02 -5.5631072542313464e-01 +5.5261618549516328e-03
-4.5999999999999917e+00 +8.2844160646451712e+00 +0.0000000000000000e+00 -4.5999999505685913e+00 -2.9510287718174537e-02 -5.5634546673359253e-01 +5.5275357441600696e-03
-4.6499999999999915e+00 +8.2844032930751297e+00 +0.0000000000000000e+00 -4.6499999489374453e+00 -2.9512392909421096e-02 -5.5638038614915486e-01 +5.5289046303959007e-03
-4.6999999999999913e+00 +8.2843903831132657e+00 +0.0000000000000000e+00 -4.6999999472707579e+00 -2.9514508390162002e-02 -5.5641548080032133e-01 +5.5302684677487864e-03
-4.7499999999999911e+00 +8.2843773347508485e+00 +0.0000000000000000e+00 -4.7499999455681445e+00 -2.9516633915743652e-02 -5.5645074781758541e-01 +5.5316272103077902e-03
-4.7999999999999909e+00 +8.2843641479791064e+00 +0.0000000000000000e+00 -4.7999999438292189e+00 -2.9518769241509996e-02 -5.5648618433143404e-01 +5.5329808121613623e-03
-4.8499999999999908e+00 +8.2843508227892251e+00 +0.0000000000000000e+00 -4.8499999420535964e+00 -2.9520914122802531e-02 -5.5652178747234715e-01 +5.5343292273973303e-03
-4.8999999999999906e+00 +8.2843373591723495e+00 +0.0000000000000000e+00 -4.8999999402408907e+00 -2.9523068314960096e-02 -5.5655755437079757e-01 +5.5356724101028867e-03
-4.9499999999999904e+00 +8.2843237571195818e+00 +0.0000000000000000e+00 -4.9499999383907163e+00 -2.9525231573318909e-02 -5.5659348215725069e-01 +5.5370103143645806e-03
-4.9999999999999902e+00 +8.2843100166219870e+00 +0.0000000000000000e+00 -4.9999999365026877e+00 -2.9527403653212478e-02 -5.5662956796216378e-01 +5.5383428942683104e-03
-5.0499999999999901e+00 +8.2842961376705890e+00 +0.0000000000000000e+00 -5.0499999345764186e+00 -2.9529584309971484e-02 -5.5666580891598605e-01 +5.5396701038993128e-03
-5.0999999999999899e+00 +8.2842821202563730e+00 +0.0000000000000000e+00 -5.0999999326115235e+00 -2.9531773298923748e-02 -5.5670220214915822e-01 +5.5409918973421384e-03
-5.1499999999999897e+00 +8.2842679643702883e+00 +0.0000000000000000e+00 -5.1499999306076161e+00 -2.9533970375394129e-02 -5.5673874479211227e-01 +5.5423082286806570e-03
-5.1999999999999895e+00 +8.2842536700032454e+00 +0.0000000000000000e+00 -5.1999999285643108e+00 -2.9536175294704460e-02 -5.5677543397527063e-01 +5.5436190519980479e-03
-5.2499999999999893e+00 +8.2842392371461173e+00 +0.0000000000000000e+00 -5.2499999264812214e+00 -2.9538387812173519e-02 -5.5681226682904650e-01 +5.5449243213767721e-03
-5.2999999999999892e+00 +8.2842246657897434e+00 +0.0000000000000000e+00 -5.2999999243579614e+00 -2.9540607683116889e-02 -5.5684924048384277e-01 +5.5462239908985840e-03
-5.3499999999999890e+00 +8.2842099559249256e+00 +0.0000000000000000e+00 -5.3499999221941446e+00 -2.9542834662846910e-02 -5.5688635207005355e-01 +5.5475180146445065e-03
-5.3999999999999888e+00 +8.2841951075424358e+00 +0.0000000000000000e+00 -5.3999999199893836e+00 -2.9545068506672611e-02 -5.5692359871806063e-01 +5.5488063466948168e-03
-5.4499999999999886e+00 +8.2841801206330086e+00 +0.0000000000000000e+00 -5.4499999177432930e+00 -2.9547308969899638e-02 -5.5696097755823626e-01 +5.5500889411290487e-03
-5.4999999999999885e+00 +8.2841649951873446e+00 +0.0000000000000000e+00 -5.4999999154554855e+00 -2.9549555807830186e-02 -5.5699848572094068e-01 +5.5513657520259779e-03
-5.5499999999999883e+00 +8.2841497311961163e+00 +0.0000000000000000e+00 -5.5499999131255748e+00 -2.9551808775762908e-02 -5.5703612033652383e-01 +5.5526367334636081e-03
-5.5999999999999881e+00 +8.2841343286499640e+00 +0.0000000000000000e+00 -5.5999999107531746e+00 -2.9554067628992851e-02 -5.5707387853532253e-01 +5.5539018395191564e-03
-5.6499999999999879e+00 +8.2841187875394944e+00 +0.0000000000000000e+00 -5.6499999083378976e+00 -2.9556332122811394e-02 -5.5711175744766261e-01 +5.5551610242690558e-03
-5.6999999999999877e+00 +8.2841031078552856e+00 +0.0000000000000000e+00 -5.6999999058793565e+00 -2.9558602012506156e-02 -5.5714975420385648e-01 +5.5564142417889317e-03
-5.7499999999999876e+00 +8.2840872895878874e+00 +0.0000000000000000e+00 -5.7499999033771649e+00 -2.9560877053360916e-02 -5.5718786593420411e-01 +5.5576614461535995e-03
-5.7999999999999874e+00 +8.2840713327278195e+00 +0.0000000000000000e+00 -5.7999999008309349e+00 -2.9563157000655572e-02 -5.5722608976899268e-01 +5.5589025914370479e-03
-5.8499999999999872e+00 +8.2840552372655747e+00 +0.0000000000000000e+00 -5.8499998982402799e+00 -2.9565441609666076e-02 -5.5726442283849598e-01 +5.5601376317124399e-03
