# trajectory
# s[mm] rx[mm] ry[mm] rz[mm] px[rad] py[rad] pz[rad]
0.0000000000000000e+00 +8.2850000000000001e+00 +0.0000000000000000e+00 +0.0000000000000000e+00 +0.0000000000000000e+00 +0.0000000000000000e+00 +1.0000000000000000e+00
-5.0000000000000003e-02 +8.2849999310694837e+00 +0.0000000000000000e+00 -4.9999999999936644e-02 +2.7572271640561510e-06 +0.0000000000000000e+00 +9.9999999999619882e-01
-1.0000000000000001e-01 +8.2849997242766218e+00 +0.0000000000000000e+00 -9.9999999999493161e-02 +5.5144941282523703e-06 +0.0000000000000000e+00 +9.9999999998479516e-01
-1.5000000000000002e-01 +8.2849993796193768e+00 +0.0000000000000000e+00 -1.4999999999828945e-01 +8.2718028073707462e-06 +0.0000000000000000e+00 +9.9999999996578859e-01
-2.0000000000000001e-01 +8.2849988970956154e+00 +0.0000000000000000e+00 -1.9999999999594531e-01 +1.1029155108047297e-05 +0.0000000000000000e+00 +9.9999999993917876e-01
-2.5000000000000000e-01 +8.2849982767031083e+00 +0.0000000000000000e+00 -2.4999999999208058e-01 +1.3786552928772064e-05 +0.0000000000000000e+00 +9.9999999990496535e-01
-2.9999999999999999e-01 +8.2849975184395319e+00 +0.0000000000000000e+00 -2.9999999998631510e-01 +1.6543998159889186e-05 +0.0000000000000000e+00 +9.9999999986314791e-01
-3.4999999999999998e-01 +8.2849966223024705e+00 +0.0000000000000000e+00 -3.4999999997826864e-01 +1.9301492683596998e-05 +0.0000000000000000e+00 +9.9999999981372600e-01
-3.9999999999999997e-01 +8.2849955882894104e+00 +0.0000000000000000e+00 -3.9999999996756097e-01 +2.2059038373948106e-05 +0.0000000000000000e+00 +9.9999999975669918e-01
-4.4999999999999996e-01 +8.2849944163977494e+00 +0.0000000000000000e+00 -4.4999999995381179e-01 +2.4816637096849469e-05 +0.0000000000000000e+00 +9.9999999969206699e-01
-4.9999999999999994e-01 +8.2849931066247873e+00 +0.0000000000000000e+00 -4.9999999993664090e-01 +2.7574290710062486e-05 +0.0000000000000000e+00 +9.9999999961982899e-01
-5.4999999999999993e-01 +8.2849916589677335e+00 +0.0000000000000000e+00 -5.4999999991566795e-01 +3.0332001063203074e-05 +0.0000000000000000e+00 +9.9999999953998464e-01
-5.9999999999999998e-01 +8.2849900734237050e+00 +0.0000000000000000e+00 -5.9999999989051256e-01 +3.3089769997741750e-05 +0.0000000000000000e+00 +9.9999999945253337e-01
-6.5000000000000002e-01 +8.2849883499897263e+00 +0.0000000000000000e+00 -6.4999999986079449e-01 +3.5847599347003712e-05 +0.0000000000000000e+00 +9.9999999935747463e-01
-7.0000000000000007e-01 +8.2849864886627316e+00 +0.0000000000000000e+00 -6.9999999982613326e-01 +3.8605490936168915e-05 +0.0000000000000000e+00 +9.9999999925480787e-01
-7.5000000000000011e-01 +8.2849844894395641e+00 +0.0000000000000000e+00 -7.4999999978614851e-01 +4.1363446582272156e-05 +0.0000000000000000e+00 +9.9999999914453253e-01
-8.0000000000000016e-01 +8.2849823523169750e+00 +0.0000000000000000e+00 -7.9999999974045977e-01 +4.4121468094203135e-05 +0.0000000000000000e+00 +9.9999999902664793e-01
-8.5000000000000020e-01 +8.2849800772916264e+00 +0.0000000000000000e+00 -8.4999999968868656e-01 +4.6879557272706560e-05 +0.0000000000000000e+00 +9.9999999890115343e-01
-9.0000000000000024e-01 +8.2849776643600901e+00 +0.0000000000000000e+00 -8.9999999963044830e-01 +4.9637715910382191e-05 +0.0000000000000000e+00 +9.9999999876804846e-01
-9.5000000000000029e-01 +8.2849751135188487e+00 +0.0000000000000000e+00 -9.4999999956536452e-01 +5.2395945791684935e-05 +0.0000000000000000e+00 +9.9999999862733235e-01
-1.0000000000000002e+00 +8.2849724247642946e+00 +0.0000000000000000e+00 -9.9999999949305463e-01 +5.5154248692924917e-05 +0.0000000000000000e+00 +9.9999999847900434e-01
-1.0500000000000003e+00 +8.2849695980927329e+00 +0.0000000000000000e+00 -1.0499999994131382e+00 +5.7912626382267551e-05 +0.0000000000000000e+00 +9.9999999832306374e-01
-1.1000000000000003e+00 +8.2849666335003800e+00 +0.0000000000000000e+00 -1.0999999993252343e+00 +6.0671080619733609e-05 +0.0000000000000000e+00 +9.9999999815950991e-01
-1.1500000000000004e+00 +8.2849635309833651e+00 +0.0000000000000000e+00 -1.1499999992289622e+00 +6.3429613157199309e-05 +0.0000000000000000e+00 +9.9999999798834205e-01
-1.2000000000000004e+00 +8.2849602905377306e+00 +0.0000000000000000e+00 -1.1999999991239414e+00 +6.6188225738396370e-05 +0.0000000000000000e+00 +9.9999999780955939e-01
-1.2500000000000004e+00 +8.2849569121594282e+00 +0.0000000000000000e+00 -1.2499999990097912e+00 +6.8946920098912073e-05 +0.0000000000000000e+00 +9.9999999762316116e-01
-1.3000000000000005e+00 +8.2849533958443278e+00 +0.0000000000000000e+00 -1.2999999988861306e+00 +7.1705697966189367e-05 +0.0000000000000000e+00 +9.9999999742914647e-01
-1.3500000000000005e+00 +8.2849497415882105e+00 +0.0000000000000000e+00 -1.3499999987525788e+00 +7.4464561059526906e-05 +0.0000000000000000e+00 +9.9999999722751465e-01
-1.4000000000000006e+00 +8.2849459493867723e+00 +0.0000000000000000e+00 -1.3999999986087550e+00 +7.7223511090079115e-05 +0.0000000000000000e+00 +9.9999999701826470e-01
-1.4500000000000006e+00 +8.2849420192356238e+00 +0.0000000000000000e+00 -1.4499999984542782e+00 +7.9982549760856286e-05 +0.0000000000000000e+00 +9.9999999680139584e-01
-1.5000000000000007e+00 +8.2849379511302903e+00 +0.0000000000000000e+00 -1.4999999982887675e+00 +8.2741678766724616e-05 +0.0000000000000000e+00 +9.9999999657690730e-01
-1.5500000000000007e+00 +8.2849337450662137e+00 +0.0000000000000000e+00 -1.5499999981118420e+00 +8.5500899794406293e-05 +0.0000000000000000e+00 +9.9999999634479808e-01
-1.6000000000000008e+00 +8.2849294010387489e+00 +0.0000000000000000e+00 -1.5999999979231203e+00 +8.8260214522479545e-05 +0.0000000000000000e+00 +9.9999999610506729e-01
-1.6500000000000008e+00 +8.2849249190431706e+00 +0.0000000000000000e+00 -1.6499999977222215e+00 +9.1019624621378726e-05 +0.0000000000000000e+00 +9.9999999585771404e-01
-1.7000000000000008e+00 +8.2849202990746686e+00 +0.0000000000000000e+00 -1.6999999975087645e+00 +9.3779131753394339e-05 +0.0000000000000000e+00 +9.9999999560273733e-01
-1.7500000000000009e+00 +8.2849155411283508e+00 +0.0000000000000000e+00 -1.7499999972823681e+00 +9.6538737572673134e-05 +0.0000000000000000e+00 +9.9999999534013617e-01
-1.8000000000000009e+00 +8.2849106451992398e+00 +0.0000000000000000e+00 -1.7999999970426510e+00 +9.9298443725218160e-05 +0.0000000000000000e+00 +9.9999999506990966e-01
-1.8500000000000010e+00 +8.2849056112822783e+00 +0.0000000000000000e+00 -1.8499999967892320e+00 +1.0205825184888883e-04 +0.0000000000000000e+00 +9.9999999479205670e-01
-1.9000000000000010e+00 +8.2849004393723273e+00 +0.0000000000000000e+00 -1.8999999965217296e+00 +1.0481816357340098e-04 +0.0000000000000000e+00 +9.9999999450657640e-01
-1.9500000000000011e+00 +8.2848951294641662e+00 +0.0000000000000000e+00 -1.9499999962397625e+00 +1.0757818052032691e-04 +0.0000000000000000e+00 +9.9999999421346764e-01
-2.0000000000000009e+00 +8.2848896815524942e+00 +0.0000000000000000e+00 -1.9999999959429493e+00 +1.1033830430309546e-04 +0.0000000000000000e+00 +9.9999999391272942e-01
-2.0500000000000007e+00 +8.2848840956319290e+00 +0.0000000000000000e+00 -2.0499999956309085e+00 +1.1309853652676477e-04 +0.0000000000000000e+00 +9.9999999360436065e-01
-2.1000000000000005e+00 +8.2848783716970082e+00 +0.0000000000000000e+00 -2.0999999953032584e+00 +1.1585887878552201e-04 +0.0000000000000000e+00 +9.9999999328836020e-01
-2.1500000000000004e+00 +8.2848725097421898e+00 +0.0000000000000000e+00 -2.1499999949596176e+00 +1.1861933266018316e-04 +0.0000000000000000e+00 +9.9999999296472708e-01
-2.2000000000000002e+00 +8.2848665097618550e+00 +0.0000000000000000e+00 -2.1999999945996040e+00 +1.2137989971796565e-04 +0.0000000000000000e+00 +9.9999999263346007e-01
-2.2500000000000000e+00 +8.2848603717503053e+00 +0.0000000000000000e+00 -2.2499999942228364e+00 +1.2414058151248854e-04 +0.0000000000000000e+00 +9.9999999229455805e-01
-2.2999999999999998e+00 +8.2848540957017658e+00 +0.0000000000000000e+00 -2.2999999938289326e+00 +1.2690137958377246e-04 +0.0000000000000000e+00 +9.9999999194801992e-01
-2.3499999999999996e+00 +8.2848476816103833e+00 +0.0000000000000000e+00 -2.3499999934175109e+00 +1.2966229545823975e-04 +0.0000000000000000e+00 +9.9999999159384456e-01
-2.3999999999999995e+00 +8.2848411294702302e+00 +0.0000000000000000e+00 -2.3999999929881897e+00 +1.3242333064871444e-04 +0.0000000000000000e+00 +9.9999999123203076e-01
-2.4499999999999993e+00 +8.2848344392753042e+00 +0.0000000000000000e+00 -2.4499999925405866e+00 +1.3518448665442227e-04 +0.0000000000000000e+00 +9.9999999086257729e-01
-2.4999999999999991e+00 +8.2848276110195265e+00 +0.0000000000000000e+00 -2.4999999920743199e+00 +1.3794576496099084e-04 +0.0000000000000000e+00 +9.9999999048548294e-01
-2.5499999999999989e+00 +8.2848206446967456e+00 +0.0000000000000000e+00 -2.5499999915890075e+00 +1.4070716704044954e-04 +0.0000000000000000e+00 +9.9999999010074658e-01
-2.5999999999999988e+00 +8.2848135403007355e+00 +0.0000000000000000e+00 -2.5999999910842670e+00 +1.4346869435122965e-04 +0.0000000000000000e+00 +9.9999998970836690e-01
-2.6499999999999986e+00 +8.2848062978251988e+00 +0.0000000000000000e+00 -2.6499999905597167e+00 +1.4623034833816434e-04 +0.0000000000000000e+00 +9.9999998930834266e-01
-2.6999999999999984e+00 +8.2847989172637657e+00 +0.0000000000000000e+00 -2.6999999900149740e+00 +1.4899213043248878e-04 +0.0000000000000000e+00 +9.9999998890067254e-01
-2.7499999999999982e+00 +8.2847913986099968e+00 +0.0000000000000000e+00 -2.7499999894496567e+00 +1.5175404205184008e-04 +0.0000000000000000e+00 +9.9999998848535532e-01
-2.7999999999999980e+00 +8.2847837418573782e+00 +0.0000000000000000e+00 -2.7999999888633824e+00 +1.5451608460025741e-04 +0.0000000000000000e+00 +9.9999998806238977e-01
-2.8499999999999979e+00 +8.2847759469993303e+00 +0.0000000000000000e+00 -2.8499999882557683e+00 +1.5727825946818195e-04 +0.0000000000000000e+00 +9.9999998763177456e-01
-2.8999999999999977e+00 +8.2847680140292024e+00 +0.0000000000000000e+00 -2.8999999876264324e+00 +1.6004056803245700e-04 +0.0000000000000000e+00 +9.9999998719350824e-01
-2.9499999999999975e+00 +8.2847599429402763e+00 +0.0000000000000000e+00 -2.9499999869749916e+00 +1.6280301165632802e-04 +0.0000000000000000e+00 +9.9999998674758961e-01
-2.9999999999999973e+00 +8.2847517337257646e+00 +0.0000000000000000e+00 -2.9999999863010638e+00 +1.6556559168944256e-04 +0.0000000000000000e+00 +9.9999998629401732e-01
-3.0499999999999972e+00 +8.2847433863788122e+00 +0.0000000000000000e+00 -3.0499999856042659e+00 +1.6832830946785039e-04 +0.0000000000000000e+00 +9.9999998583279004e-01
-3.0999999999999970e+00 +8.2847349008925004e+00 +0.0000000000000000e+00 -3.0999999848842150e+00 +1.7109116631400345e-04 +0.0000000000000000e+00 +9.9999998536390633e-01
-3.1499999999999968e+00 +8.2847262772598409e+00 +0.0000000000000000e+00 -3.1499999841405288e+00 +1.7385416353675597e-04 +0.0000000000000000e+00 +9.9999998488736486e-01
-3.1999999999999966e+00 +8.2847175154737851e+00 +0.0000000000000000e+00 -3.1999999833728241e+00 +1.7661730243136446e-04 +0.0000000000000000e+00 +9.9999998440316418e-01
-3.2499999999999964e+00 +8.2847086155272152e+00 +0.0000000000000000e+00 -3.2499999825807175e+00 +1.7938058427948765e-04 +0.0000000000000000e+00 +9.9999998391130296e-01
-3.2999999999999963e+00 +8.2846995774129528e+00 +0.0000000000000000e+00 -3.2999999817638264e+00 +1.8214401034918665e-04 +0.0000000000000000e+00 +9.9999998341177976e-01
-3.3499999999999961e+00 +8.2846904011237559e+00 +0.0000000000000000e+00 -3.3499999809217678e+00 +1.8490758189492485e-04 +0.0000000000000000e+00 +9.9999998290459313e-01
-3.3999999999999959e+00 +8.2846810866523182e+00 +0.0000000000000000e+00 -3.3999999800541580e+00 +1.8767130015756806e-04 +0.0000000000000000e+00 +9.9999998238974164e-01
-3.4499999999999957e+00 +8.2846716339912749e+00 +0.0000000000000000e+00 -3.4499999791606140e+00 +1.9043516636438446e-04 +0.0000000000000000e+00 +9.9999998186722383e-01
-3.4999999999999956e+00 +8.2846620431331974e+00 +0.0000000000000000e+00 -3.4999999782407523e+00 +1.9319918172904459e-04 +0.0000000000000000e+00 +9.9999998133703816e-01
-3.5499999999999954e+00 +8.2846523140705965e+00 +0.0000000000000000e+00 -3.5499999772941897e+00 +1.9596334745162144e-04 +0.0000000000000000e+00 +9.9999998079918329e-01
-3.5999999999999952e+00 +8.2846424467959263e+00 +0.0000000000000000e+00 -3.5999999763205426e+00 +1.9872766471859042e-04 +0.0000000000000000e+00 +9.9999998025365766e-01
-3.6499999999999950e+00 +8.2846324413015804e+00 +0.0000000000000000e+00 -3.6499999753194277e+00 +2.0149213470282940e-04 +0.0000000000000000e+00 +9.9999997970045984e-01
-3.6999999999999948e+00 +8.2846222975798920e+00 +0.0000000000000000e+00 -3.6999999742904608e+00 +2.0425675856361876e-04 +0.0000000000000000e+00 +9.9999997913958827e-01
-3.7499999999999947e+00 +8.2846120156231393e+00 +0.0000000000000000e+00 -3.7499999732332587e+00 +2.0702153744664128e-04 +0.0000000000000000e+00 +9.9999997857104150e-01
-3.7999999999999945e+00 +8.2846015954235437e+00 +0.0000000000000000e+00 -3.7999999721474373e+00 +2.0978647248398225e-04 +0.0000000000000000e+00 +9.9999997799481799e-01
-3.8499999999999943e+00 +8.2845910369732696e+00 +0.0000000000000000e+00 -3.8499999710326125e+00 +2.1255156479412952e-04 +0.0000000000000000e+00 +9.9999997741091617e-01
-3.8999999999999941e+00 +8.2845803402644247e+00 +0.0000000000000000e+00 -3.8999999698884009e+00 +2.1531681548197341e-04 +0.0000000000000000e+00 +9.9999997681933450e-01
-3.9499999999999940e+00 +8.2845695052890633e+00 +0.0000000000000000e+00 -3.9499999687144181e+00 +2.1808222563880677e-04 +0.0000000000000000e+00 +9.9999997622007142e-01
-3.9999999999999938e+00 +8.2845585320391848e+00 +0.0000000000000000e+00 -3.9999999675102802e+00 +2.2084779634232499e-04 +0.0000000000000000e+00 +9.9999997561312537e-01
-4.0499999999999936e+00 +8.2845474205067351e+00 +0.0000000000000000e+00 -4.0499999662756023e+00 +2.2361352865659778e-04 +0.0000000000000000e+00 +9.9999997499849480e-01
-4.0999999999999934e+00 +8.2845361706836069e+00 +0.0000000000000000e+00 -4.0999999650100012e+00 +2.2637942363175871e-04 +0.0000000000000000e+00 +9.9999997437617816e-01
-4.1499999999999932e+00 +8.2845247825616433e+00 +0.0000000000000000e+00 -4.1499999637130918e+00 +2.2914548230369494e-04 +0.0000000000000000e+00 +9.9999997374617389e-01
-4.1999999999999931e+00 +8.2845132561326320e+00 +0.0000000000000000e+00 -4.1999999623844904e+00 +2.3191170569401880e-04 +0.0000000000000000e+00 +9.9999997310848032e-01
-4.2499999999999929e+00 +8.2845015913883113e+00 +0.0000000000000000e+00 -4.2499999610238115e+00 +2.3467809481006791e-04 +0.0000000000000000e+00 +9.9999997246309580e-01
-4.2999999999999927e+00 +8.2844897883203714e+00 +0.0000000000000000e+00 -4.2999999596306715e+00 +2.3744465064490507e-04 +0.0000000000000000e+00 +9.9999997181001876e-01
-4.3499999999999925e+00 +8.2844778469204510e+00 +0.0000000000000000e+00 -4.3499999582046849e+00 +2.4021137417731836e-04 +0.0000000000000000e+00 +9.9999997114924766e-01
-4.3999999999999924e+00 +8.2844657671801425e+00 +0.0000000000000000e+00 -4.3999999567454680e+00 +2.4297826637182101e-04 +0.0000000000000000e+00 +9.9999997048078082e-01
-4.4499999999999922e+00 +8.2844535490909870e+00 +0.0000000000000000e+00 -4.4499999552526353e+00 +2.4574532817865142e-04 +0.0000000000000000e+00 +9.9999996980461658e-01
-4.4999999999999920e+00 +8.2844411926444810e+00 +0.0000000000000000e+00 -4.4999999537258013e+00 +2.4851256053377315e-04 +0.0000000000000000e+00 +9.9999996912075340e-01
-4.5499999999999918e+00 +8.2844286978320749e+00 +0.0000000000000000e+00 -4.5499999521645815e+00 +2.5127996435887490e-04 +0.0000000000000000e+00 +9.9999996842918948e-01
-4.5999999999999917e+00 +8.2844160646451712e+00 +0.0000000000000000e+00 -4.5999999505685913e+00 +2.5404754056137043e-04 +0.0000000000000000e+00 +9.9999996772992328e-01
-4.6499999999999915e+00 +8.2844032930751297e+00 +0.0000000000000000e+00 -4.6499999489374453e+00 +2.5681529003439860e-04 +0.0000000000000000e+00 +9.9999996702295313e-01
-4.6999999999999913e+00 +8.2843903831132657e+00 +0.0000000000000000e+00 -4.6999999472707579e+00 +2.5958321365682332e-04 +0.0000000000000000e+00 +9.9999996630827725e-01
-4.7499999999999911e+00 +8.2843773347508485e+00 +0.0000000000000000e+00 -4.7499999455681445e+00 +2.6235131229323351e-04 +0.0000000000000000e+00 +9.9999996558589410e-01
-4.7999999999999909e+00 +8.2843641479791064e+00 +0.0000000000000000e+00 -4.7999999438292189e+00 +2.6511958679394305e-04 +0.0000000000000000e+00 +9.9999996485580200e-01
-4.8499999999999908e+00 +8.2843508227892251e+00 +0.0000000000000000e+00 -4.8499999420535964e+00 +2.6788803799499081e-04 +0.0000000000000000e+00 +9.9999996411799918e-01
-4.8999999999999906e+00 +8.2843373591723495e+00 +0.0000000000000000e+00 -4.8999999402408907e+00 +2.7065666671814058e-04 +0.0000000000000000e+00 +9.9999996337248398e-01
-4.9499999999999904e+00 +8.2843237571195818e+00 +0.0000000000000000e+00 -4.9499999383907163e+00 +2.7342547377088097e-04 +0.0000000000000000e+00 +9.9999996261925472e-01
-4.9999999999999902e+00 +8.2843100166219870e+00 +0.0000000000000000e+00 -4.9999999365026877e+00 +2.7619445994642546e-04 +0.0000000000000000e+00 +9.9999996185830975e-01
-5.0499999999999901e+00 +8.2842961376705890e+00 +0.0000000000000000e+00 -5.0499999345764186e+00 +2.7896362602371238e-04 +0.0000000000000000e+00 +9.9999996108964728e-01
-5.0999999999999899e+00 +8.2842821202563730e+00 +0.0000000000000000e+00 -5.0999999326115235e+00 +2.8173297276740469e-04 +0.0000000000000000e+00 +9.9999996031326566e-01
-5.1499999999999897e+00 +8.2842679643702883e+00 +0.0000000000000000e+00 -5.1499999306076161e+00 +2.8450250092789021e-04 +0.0000000000000000e+00 +9.9999995952916310e-01
-5.1999999999999895e+00 +8.2842536700032454e+00 +0.0000000000000000e+00 -5.1999999285643108e+00 +2.8727221124128134e-04 +0.0000000000000000e+00 +9.9999995873733794e-01
-5.2499999999999893e+00 +8.2842392371461173e+00 +0.0000000000000000e+00 -5.2499999264812214e+00 +2.9004210442941511e-04 +0.0000000000000000e+00 +9.9999995793778840e-01
-5.2999999999999892e+00 +8.2842246657897434e+00 +0.0000000000000000e+00 -5.2999999243579614e+00 +2.9281218119985318e-04 +0.0000000000000000e+00 +9.9999995713051282e-01
-5.3499999999999890e+00 +8.2842099559249256e+00 +0.0000000000000000e+00 -5.3499999221941446e+00 +2.9558244224588170e-04 +0.0000000000000000e+00 +9.9999995631550942e-01
-5.3999999999999888e+00 +8.2841951075424358e+00 +0.0000000000000000e+00 -5.3999999199893836e+00 +2.9835288824651122e-04 +0.0000000000000000e+00 +9.9999995549277654e-01
-5.4499999999999886e+00 +8.2841801206330086e+00 +0.0000000000000000e+00 -5.4499999177432930e+00 +3.0112351986647684e-04 +0.0000000000000000e+00 +9.9999995466231240e-01
-5.4999999999999885e+00 +8.2841649951873446e+00 +0.0000000000000000e+00 -5.4999999154554855e+00 +3.0389433775623794e-04 +0.0000000000000000e+00 +9.9999995382411522e-01
-5.5499999999999883e+00 +8.2841497311961163e+00 +0.0000000000000000e+00 -5.5499999131255748e+00 +3.0666534255197828e-04 +0.0000000000000000e+00 +9.9999995297818323e-01
-5.5999999999999881e+00 +8.2841343286499640e+00 +0.0000000000000000e+00 -5.5999999107531746e+00 +3.0943653487560584e-04 +0.0000000000000000e+00 +9.9999995212451476e-01
-5.6499999999999879e+00 +8.2841187875394944e+00 +0.0000000000000000e+00 -5.6499999083378976e+00 +3.1220791533475271e-04 +0.0000000000000000e+00 +9.9999995126310803e-01
-5.6999999999999877e+00 +8.2841031078552856e+00 +0.0000000000000000e+00 -5.6999999058793565e+00 +3.1497948452277526e-04 +0.0000000000000000e+00 +9.9999995039396139e-01
-5.7499999999999876e+00 +8.2840872895878874e+00 +0.0000000000000000e+00 -5.7499999033771649e+00 +3.1775124301875379e-04 +0.0000000000000000e+00 +9.9999994951707294e-01
-5.7999999999999874e+00 +8.2840713327278195e+00 +0.0000000000000000e+00 -5.7999999008309349e+00 +3.2052319138749273e-04 +0.0000000000000000e+00 +9.9999994863244102e-01
-5.8499999999999872e+00 +8.2840552372655747e+00 +0.0000000000000000e+00 -5.8499998982402799e+00 +3.2329533017952036e-04 +0.0000000000000000e+00 +9.9999994774006384e-01
