# trajectory
# s[mm] rx[mm] ry[mm] rz[mm] px[rad] py[rad] pz[rad]
0.0000000000000000e+00 +8.5980000000000008e+00 +0.0000000000000000e+00 +0.0000000000000000e+00 +0.0000000000000000e+00 +0.0000000000000000e+00 +1.0000000000000000e+00
5.0000000000000003e-02 +8.5979999311139856e+00 +0.0000000000000000e+00 +4.9999999999936734e-02 -2.7554398373892920e-06 +0.0000000000000000e+00 +9.9999999999620381e-01
1.0000000000000001e-01 +8.5979997244560717e+00 +0.0000000000000000e+00 +9.9999999999493841e-02 -5.5108762932048146e-06 +0.0000000000000000e+00 +9.9999999998481515e-01
1.5000000000000002e-01 +8.5979993800263781e+00 +0.0000000000000000e+00 +1.4999999999829172e-01 -8.2663114107648221e-06 +0.0000000000000000e+00 +9.9999999996583411e-01
2.0000000000000001e-01 +8.5979988978249189e+00 +0.0000000000000000e+00 +1.9999999999595072e-01 -1.1021747228839195e-05 +0.0000000000000000e+00 +9.9999999993926059e-01
2.5000000000000000e-01 +8.5979982778516089e+00 +0.0000000000000000e+00 +2.4999999999209122e-01 -1.3777185781649532e-05 +0.0000000000000000e+00 +9.9999999990509458e-01
2.9999999999999999e-01 +8.5979975201062615e+00 +0.0000000000000000e+00 +2.9999999998633364e-01 -1.6532629098869247e-05 +0.0000000000000000e+00 +9.9999999986333610e-01
3.4999999999999998e-01 +8.5979966245885873e+00 +0.0000000000000000e+00 +3.4999999997829834e-01 -1.9288079205623667e-05 +0.0000000000000000e+00 +9.9999999981398502e-01
3.9999999999999997e-01 +8.5979955912981954e+00 +0.0000000000000000e+00 +3.9999999996760560e-01 -2.2043538122490123e-05 +0.0000000000000000e+00 +9.9999999975704124e-01
4.4999999999999996e-01 +8.5979944202345955e+00 +0.0000000000000000e+00 +4.4999999995387591e-01 -2.4799007865498035e-05 +0.0000000000000000e+00 +9.9999999969250464e-01
4.9999999999999994e-01 +8.5979931113971961e+00 +0.0000000000000000e+00 +4.9999999993672956e-01 -2.7554490446129019e-05 +0.0000000000000000e+00 +9.9999999962037511e-01
5.4999999999999993e-01 +8.5979916647853045e+00 +0.0000000000000000e+00 +5.4999999991578685e-01 -3.0309987871316966e-05 +0.0000000000000000e+00 +9.9999999954065244e-01
5.9999999999999998e-01 +8.5979900803981284e+00 +0.0000000000000000e+00 +5.9999999989066821e-01 -3.3065502143448136e-05 +0.0000000000000000e+00 +9.9999999945333640e-01
6.5000000000000002e-01 +8.5979883582347760e+00 +0.0000000000000000e+00 +6.4999999986099388e-01 -3.5821035260361249e-05 +0.0000000000000000e+00 +9.9999999935842687e-01
7.0000000000000007e-01 +8.5979864982942544e+00 +0.0000000000000000e+00 +6.9999999982638428e-01 -3.8576589215347572e-05 +0.0000000000000000e+00 +9.9999999925592353e-01
7.5000000000000011e-01 +8.5979845005754729e+00 +0.0000000000000000e+00 +7.4999999978645970e-01 -4.1332165997151005e-05 +0.0000000000000000e+00 +9.9999999914582616e-01
8.0000000000000016e-01 +8.5979823650772413e+00 +0.0000000000000000e+00 +7.9999999974084035e-01 -4.4087767589968163e-05 +0.0000000000000000e+00 +9.9999999902813452e-01
8.5000000000000020e-01 +8.5979800917982683e+00 +0.0000000000000000e+00 +8.4999999968914652e-01 -4.6843395973448473e-05 +0.0000000000000000e+00 +9.9999999890284830e-01
9.0000000000000024e-01 +8.5979776807371646e+00 +0.0000000000000000e+00 +8.9999999963099853e-01 -4.9599053122694263e-05 +0.0000000000000000e+00 +9.9999999876996715e-01
9.5000000000000029e-01 +8.5979751318924436e+00 +0.0000000000000000e+00 +9.4999999956601666e-01 -5.2354741008260815e-05 +0.0000000000000000e+00 +9.9999999862949074e-01
1.0000000000000002e+00 +8.5979724452625188e+00 +0.0000000000000000e+00 +9.9999999949382101e-01 -5.5110461596156493e-05 +0.0000000000000000e+00 +9.9999999848141874e-01
1.0500000000000003e+00 +8.5979696208457064e+00 +0.0000000000000000e+00 +1.0499999994140319e+00 -5.7866216847842787e-05 +0.0000000000000000e+00 +9.9999999832575071e-01
1.1000000000000003e+00 +8.5979666586402246e+00 +0.0000000000000000e+00 +1.0999999993262695e+00 -6.0622008720234411e-05 +0.0000000000000000e+00 +9.9999999816248630e-01
1.1500000000000004e+00 +8.5979635586441923e+00 +0.0000000000000000e+00 +1.1499999992301539e+00 -6.3377839165699385e-05 +0.0000000000000000e+00 +9.9999999799162498e-01
1.2000000000000004e+00 +8.5979603208556323e+00 +0.0000000000000000e+00 +1.1999999991253054e+00 -6.6133710132059125e-05 +0.0000000000000000e+00 +9.9999999781316640e-01
1.2500000000000004e+00 +8.5979569452724718e+00 +0.0000000000000000e+00 +1.2499999990113440e+00 -6.8889623562588497e-05 +0.0000000000000000e+00 +9.9999999762711012e-01
1.3000000000000005e+00 +8.5979534318925364e+00 +0.0000000000000000e+00 +1.2999999988878899e+00 -7.1645581396015908e-05 +0.0000000000000000e+00 +9.9999999743345558e-01
1.3500000000000005e+00 +8.5979497807135594e+00 +0.0000000000000000e+00 +1.3499999987545630e+00 -7.4401585566523392e-05 +0.0000000000000000e+00 +9.9999999723220223e-01
1.4000000000000006e+00 +8.5979459917331749e+00 +0.0000000000000000e+00 +1.3999999986109835e+00 -7.7157638003746669e-05 +0.0000000000000000e+00 +9.9999999702334963e-01
1.4500000000000006e+00 +8.5979420649489224e+00 +0.0000000000000000e+00 +1.4499999984567713e+00 -7.9913740632775234e-05 +0.0000000000000000e+00 +9.9999999680689722e-01
1.5000000000000007e+00 +8.5979380003582442e+00 +0.0000000000000000e+00 +1.4999999982915466e+00 -8.2669895374152429e-05 +0.0000000000000000e+00 +9.9999999658284444e-01
1.5500000000000007e+00 +8.5979337979584844e+00 +0.0000000000000000e+00 +1.5499999981149291e+00 -8.5426104143875508e-05 +0.0000000000000000e+00 +9.9999999635119063e-01
1.6000000000000008e+00 +8.5979294577468970e+00 +0.0000000000000000e+00 +1.5999999979265389e+00 -8.8182368853395720e-05 +0.0000000000000000e+00 +9.9999999611193513e-01
1.6500000000000008e+00 +8.5979249797206361e+00 +0.0000000000000000e+00 +1.6499999977259958e+00 -9.0938691409618390e-05 +0.0000000000000000e+00 +9.9999999586507737e-01
1.7000000000000008e+00 +8.5979203638767601e+00 +0.0000000000000000e+00 +1.6999999975129199e+00 -9.3695073714902973e-05 +0.0000000000000000e+00 +9.9999999561061670e-01
1.7500000000000009e+00 +8.5979156102122367e+00 +0.0000000000000000e+00 +1.7499999972869307e+00 -9.6451517667063135e-05 +0.0000000000000000e+00 +9.9999999534855244e-01
1.8000000000000009e+00 +8.5979107187239343e+00 +0.0000000000000000e+00 +1.7999999970476483e+00 -9.9208025159366807e-05 +0.0000000000000000e+00 +9.9999999507888393e-01
1.8500000000000010e+00 +8.5979056894086305e+00 +0.0000000000000000e+00 +1.8499999967946923e+00 -1.0196459808053628e-04 +0.0000000000000000e+00 +9.9999999480161039e-01
1.9000000000000010e+00 +8.5979005222630054e+00 +0.0000000000000000e+00 +1.8999999965276826e+00 -1.0472123831474825e-04 +0.0000000000000000e+00 +9.9999999451673116e-01
1.9500000000000011e+00 +8.5978952172836465e+00 +0.0000000000000000e+00 +1.9499999962462387e+00 -1.0747794774163390e-04 +0.0000000000000000e+00 +9.9999999422424546e-01
2.0000000000000009e+00 +8.5978897744670473e+00 +0.0000000000000000e+00 +1.9999999959499803e+00 -1.1023472823627894e-04 +0.0000000000000000e+00 +9.9999999392415240e-01
2.0500000000000007e+00 +8.5978841938096071e+00 +0.0000000000000000e+00 +2.0499999956385273e+00 -1.1299158166894907e-04 +0.0000000000000000e+00 +9.9999999361645131e-01
2.1000000000000005e+00 +8.5978784753076329e+00 +0.0000000000000000e+00 +2.0999999953114989e+00 -1.1574850990206858e-04 +0.0000000000000000e+00 +9.9999999330114131e-01
2.1500000000000004e+00 +8.5978726189573393e+00 +0.0000000000000000e+00 +2.1499999949685149e+00 -1.1850551478719916e-04 +0.0000000000000000e+00 +9.9999999297822151e-01
2.2000000000000002e+00 +8.5978666247548468e+00 +0.0000000000000000e+00 +2.1999999946091946e+00 -1.2126259816476518e-04 +0.0000000000000000e+00 +9.9999999264769113e-01
2.2500000000000000e+00 +8.5978604926961850e+00 +0.0000000000000000e+00 +2.2499999942331574e+00 -1.2401976186405384e-04 +0.0000000000000000e+00 +9.9999999230954928e-01
2.2999999999999998e+00 +8.5978542227772916e+00 +0.0000000000000000e+00 +2.2999999938400228e+00 -1.2677700770321522e-04 +0.0000000000000000e+00 +9.9999999196379508e-01
2.3499999999999996e+00 +8.5978478149940152e+00 +0.0000000000000000e+00 +2.3499999934294102e+00 -1.2953433748926225e-04 +0.0000000000000000e+00 +9.9999999161042763e-01
2.3999999999999995e+00 +8.5978412693421138e+00 +0.0000000000000000e+00 +2.3999999930009386e+00 -1.3229175301807092e-04 +0.0000000000000000e+00 +9.9999999124944594e-01
2.4499999999999993e+00 +8.5978345858172549e+00 +0.0000000000000000e+00 +2.4499999925542277e+00 -1.3504925607438019e-04 +0.0000000000000000e+00 +9.9999999088084912e-01
2.4999999999999991e+00 +8.5978277644150172e+00 +0.0000000000000000e+00 +2.4999999920888967e+00 -1.3780684843179216e-04 +0.0000000000000000e+00 +9.9999999050463617e-01
2.5499999999999989e+00 +8.5978208051308940e+00 +0.0000000000000000e+00 +2.5499999916045644e+00 -1.4056453185277203e-04 +0.0000000000000000e+00 +9.9999999012080609e-01
2.5999999999999988e+00 +8.5978137079602863e+00 +0.0000000000000000e+00 +2.5999999911008502e+00 -1.4332230808864824e-04 +0.0000000000000000e+00 +9.9999998972935789e-01
2.6499999999999986e+00 +8.5978064728985100e+00 +0.0000000000000000e+00 +2.6499999905773732e+00 -1.4608017887961250e-04 +0.0000000000000000e+00 +9.9999998933029055e-01
2.6999999999999984e+00 +8.5977990999407936e+00 +0.0000000000000000e+00 +2.6999999900337524e+00 -1.4883814595471979e-04 +0.0000000000000000e+00 +9.9999998892360298e-01
2.7499999999999982e+00 +8.5977915890822807e+00 +0.0000000000000000e+00 +2.7499999894696066e+00 -1.5159621103188846e-04 +0.0000000000000000e+00 +9.9999998850929417e-01
2.7999999999999980e+00 +8.5977839403180276e+00 +0.0000000000000000e+00 +2.7999999888845548e+00 -1.5435437581790028e-04 +0.0000000000000000e+00 +9.9999998808736312e-01
2.8499999999999979e+00 +8.5977761536430073e+00 +0.0000000000000000e+00 +2.8499999882782157e+00 -1.5711264200840054e-04 +0.0000000000000000e+00 +9.9999998765780862e-01
2.8999999999999977e+00 +8.5977682290521074e+00 +0.0000000000000000e+00 +2.8999999876502085e+00 -1.5987101128789796e-04 +0.0000000000000000e+00 +9.9999998722062966e-01
2.9499999999999975e+00 +8.5977601665401320e+00 +0.0000000000000000e+00 +2.9499999870001519e+00 -1.6262948532976487e-04 +0.0000000000000000e+00 +9.9999998677582502e-01
2.9999999999999973e+00 +8.5977519661018000e+00 +0.0000000000000000e+00 +2.9999999863276643e+00 -1.6538806579623720e-04 +0.0000000000000000e+00 +9.9999998632339360e-01
3.0499999999999972e+00 +8.5977436277317505e+00 +0.0000000000000000e+00 +3.0499999856323643e+00 -1.6814675433841455e-04 +0.0000000000000000e+00 +9.9999998586333427e-01
3.0999999999999970e+00 +8.5977351514245370e+00 +0.0000000000000000e+00 +3.0999999849138704e+00 -1.7090555259626026e-04 +0.0000000000000000e+00 +9.9999998539564583e-01
3.1499999999999968e+00 +8.5977265371746352e+00 +0.0000000000000000e+00 +3.1499999841718016e+00 -1.7366446219860133e-04 +0.0000000000000000e+00 +9.9999998492032705e-01
3.1999999999999966e+00 +8.5977177849764352e+00 +0.0000000000000000e+00 +3.1999999834057760e+00 -1.7642348476312863e-04 +0.0000000000000000e+00 +9.9999998443737681e-01
3.2499999999999964e+00 +8.5977088948242493e+00 +0.0000000000000000e+00 +3.2499999826154120e+00 -1.7918262189639688e-04 +0.0000000000000000e+00 +9.9999998394679379e-01
3.2999999999999963e+00 +8.5976998667123095e+00 +0.0000000000000000e+00 +3.2999999818003283e+00 -1.8194187519382461e-04 +0.0000000000000000e+00 +9.9999998344857677e-01
3.3499999999999961e+00 +8.5976907006347680e+00 +0.0000000000000000e+00 +3.3499999809601428e+00 -1.8470124623969433e-04 +0.0000000000000000e+00 +9.9999998294272452e-01
3.3999999999999959e+00 +8.5976813965856973e+00 +0.0000000000000000e+00 +3.3999999800944738e+00 -1.8746073660715252e-04 +0.0000000000000000e+00 +9.9999998242923582e-01
3.4499999999999957e+00 +8.5976719545590932e+00 +0.0000000000000000e+00 +3.4499999792029392e+00 -1.9022034785820964e-04 +0.0000000000000000e+00 +9.9999998190810935e-01
3.4999999999999956e+00 +8.5976623745488716e+00 +0.0000000000000000e+00 +3.4999999782851572e+00 -1.9298008154374020e-04 +0.0000000000000000e+00 +9.9999998137934376e-01
3.5499999999999954e+00 +8.5976526565488722e+00 +0.0000000000000000e+00 +3.5499999773407462e+00 -1.9573993920348279e-04 +0.0000000000000000e+00 +9.9999998084293784e-01
3.5999999999999952e+00 +8.5976428005528582e+00 +0.0000000000000000e+00 +3.5999999763693236e+00 -1.9849992236604011e-04 +0.0000000000000000e+00 +9.9999998029889015e-01
3.6499999999999950e+00 +8.5976328065545182e+00 +0.0000000000000000e+00 +3.6499999753705077e+00 -2.0126003254887905e-04 +0.0000000000000000e+00 +9.9999997974719934e-01
3.6999999999999948e+00 +8.5976226745474609e+00 +0.0000000000000000e+00 +3.6999999743439163e+00 -2.0402027125833067e-04 +0.0000000000000000e+00 +9.9999997918786410e-01
3.7499999999999947e+00 +8.5976124045252238e+00 +0.0000000000000000e+00 +3.7499999732891669e+00 -2.0678063998959026e-04 +0.0000000000000000e+00 +9.9999997862088308e-01
3.7999999999999945e+00 +8.5976019964812700e+00 +0.0000000000000000e+00 +3.7999999722058773e+00 -2.0954114022671736e-04 +0.0000000000000000e+00 +9.9999997804625484e-01
3.8499999999999943e+00 +8.5975914504089861e+00 +0.0000000000000000e+00 +3.8499999710936650e+00 -2.1230177344263581e-04 +0.0000000000000000e+00 +9.9999997746397806e-01
3.8999999999999941e+00 +8.5975807663016859e+00 +0.0000000000000000e+00 +3.8999999699521477e+00 -2.1506254109913381e-04 +0.0000000000000000e+00 +9.9999997687405129e-01
3.9499999999999940e+00 +8.5975699441526121e+00 +0.0000000000000000e+00 +3.9499999687809426e+00 -2.1782344464686386e-04 +0.0000000000000000e+00 +9.9999997627647308e-01
3.9999999999999938e+00 +8.5975589839549329e+00 +0.0000000000000000e+00 +3.9999999675796674e+00 -2.2058448552534287e-04 +0.0000000000000000e+00 +9.9999997567124199e-01
4.0499999999999936e+00 +8.5975478857017471e+00 +0.0000000000000000e+00 +4.0499999663479391e+00 -2.2334566516283262e-04 +0.0000000000000000e+00 +9.9999997505835658e-01
4.0999999999999934e+00 +8.5975366493860808e+00 +0.0000000000000000e+00 +4.0999999650853756e+00 -2.2610698497502470e-04 +0.0000000000000000e+00 +9.9999997443781530e-01
4.1499999999999932e+00 +8.5975252750008906e+00 +0.0000000000000000e+00 +4.1499999637915934e+00 -2.2886844636372546e-04 +0.0000000000000000e+00 +9.9999997380961669e-01
4.1999999999999931e+00 +8.5975137625390623e+00 +0.0000000000000000e+00 +4.1999999624662099e+00 -2.3163005071673653e-04 +0.0000000000000000e+00 +9.9999997317375933e-01
4.2499999999999929e+00 +8.5975021119934141e+00 +0.0000000000000000e+00 +4.2499999611088422e+00 -2.3439179940785474e-04 +0.0000000000000000e+00 +9.9999997253024164e-01
4.2999999999999927e+00 +8.5974903233566931e+00 +0.0000000000000000e+00 +4.2999999597191065e+00 -2.3715369379687220e-04 +0.0000000000000000e+00 +9.9999997187906220e-01
4.3499999999999925e+00 +8.5974783966215824e+00 +0.0000000000000000e+00 +4.3499999582966202e+00 -2.3991573522957633e-04 +0.0000000000000000e+00 +9.9999997122021944e-01
4.3999999999999924e+00 +8.5974663317806961e+00 +0.0000000000000000e+00 +4.3999999568410004e+00 -2.4267792503774978e-04 +0.0000000000000000e+00 +9.9999997055371181e-01
4.4499999999999922e+00 +8.5974541288265822e+00 +0.0000000000000000e+00 +4.4499999553518634e+00 -2.4544026453917050e-04 +0.0000000000000000e+00 +9.9999996987953776e-01
4.4999999999999920e+00 +8.5974417877517251e+00 +0.0000000000000000e+00 +4.4999999538288264e+00 -2.4820275503761180e-04 +0.0000000000000000e+00 +9.9999996919769563e-01
4.5499999999999918e+00 +8.5974293085485414e+00 +0.0000000000000000e+00 +4.5499999522715058e+00 -2.5096539782284223e-04 +0.0000000000000000e+00 +9.9999996850818396e-01
4.5999999999999917e+00 +8.5974166912093839e+00 +0.0000000000000000e+00 +4.5999999506795177e+00 -2.5372819417062575e-04 +0.0000000000000000e+00 +9.9999996781100109e-01
4.6499999999999915e+00 +8.5974039357265433e+00 +0.0000000000000000e+00 +4.6499999490524786e+00 -2.5649114534272155e-04 +0.0000000000000000e+00 +9.9999996710614547e-01
4.6999999999999913e+00 +8.5973910420922479e+00 +0.0000000000000000e+00 +4.6999999473900047e+00 -2.5925425258688418e-04 +0.0000000000000000e+00 +9.9999996639361555e-01
4.7499999999999911e+00 +8.5973780102986623e+00 +0.0000000000000000e+00 +4.7499999456917124e+00 -2.6201751713686352e-04 +0.0000000000000000e+00 +9.9999996567340965e-01
4.7999999999999909e+00 +8.5973648403378924e+00 +0.0000000000000000e+00 +4.7999999439572179e+00 -2.6478094021240473e-04 +0.0000000000000000e+00 +9.9999996494552612e-01
4.8499999999999908e+00 +8.5973515322019800e+00 +0.0000000000000000e+00 +4.8499999421861375e+00 -2.6754452301924839e-04 +0.0000000000000000e+00 +9.9999996420996340e-01
4.8999999999999906e+00 +8.5973380858829085e+00 +0.0000000000000000e+00 +4.8999999403780867e+00 -2.7030826674913035e-04 +0.0000000000000000e+00 +9.9999996346671971e-01
4.9499999999999904e+00 +8.5973245013726025e+00 +0.0000000000000000e+00 +4.9499999385326818e+00 -2.7307217257978181e-04 +0.0000000000000000e+00 +9.9999996271579350e-01
4.9999999999999902e+00 +8.5973107786629281e+00 +0.0000000000000000e+00 +4.9999999366495382e+00 -2.7583624167492926e-04 +0.0000000000000000e+00 +9.9999996195718310e-01
5.0499999999999901e+00 +8.5972969177456946e+00 +0.0000000000000000e+00 +5.0499999347282722e+00 -2.7860047518429458e-04 +0.0000000000000000e+00 +9.9999996119088674e-01
5.0999999999999899e+00 +8.5972829186126507e+00 +0.0000000000000000e+00 +5.0999999327684993e+00 -2.8136487424359487e-04 +0.0000000000000000e+00 +9.9999996041690287e-01
5.1499999999999897e+00 +8.5972687812554920e+00 +0.0000000000000000e+00 +5.1499999307698348e+00 -2.8412943997454257e-04 +0.0000000000000000e+00 +9.9999995963522970e-01
5.1999999999999895e+00 +8.5972545056658571e+00 +0.0000000000000000e+00 +5.1999999287318941e+00 -2.8689417348484541e-04 +0.0000000000000000e+00 +9.9999995884586557e-01
5.2499999999999893e+00 +8.5972400918353298e+00 +0.0000000000000000e+00 +5.2499999266542927e+00 -2.8965907586820641e-04 +0.0000000000000000e+00 +9.9999995804880881e-01
5.2999999999999892e+00 +8.5972255397554385e+00 +0.0000000000000000e+00 +5.2999999245366460e+00 -2.9242414820432387e-04 +0.0000000000000000e+00 +9.9999995724405766e-01
5.3499999999999890e+00 +8.5972108494176585e+00 +0.0000000000000000e+00 +5.3499999223785695e+00 -2.9518939155889139e-04 +0.0000000000000000e+00 +9.9999995643161044e-01
5.3999999999999888e+00 +8.5971960208134135e+00 +0.0000000000000000e+00 +5.3999999201796784e+00 -2.9795480698359769e-04 +0.0000000000000000e+00 +9.9999995561146537e-01
5.4499999999999886e+00 +8.5971810539340741e+00 +0.0000000000000000e+00 +5.4499999179395875e+00 -3.0072039551612688e-04 +0.0000000000000000e+00 +9.9999995478362069e-01
5.4999999999999885e+00 +8.5971659487709591e+00 +0.0000000000000000e+00 +5.4999999156579120e+00 -3.0348615818015815e-04 +0.0000000000000000e+00 +9.9999995394807473e-01
5.5499999999999883e+00 +8.5971507053153360e+00 +0.0000000000000000e+00 +5.5499999133342666e+00 -3.0625209598536600e-04 +0.0000000000000000e+00 +9.9999995310482559e-01
5.5999999999999881e+00 +8.5971353235584242e+00 +0.0000000000000000e+00 +5.5999999109682665e+00 -3.0901820992742005e-04 +0.0000000000000000e+00 +9.9999995225387162e-01
5.6499999999999879e+00 +8.5971198034913918e+00 +0.0000000000000000e+00 +5.6499999085595256e+00 -3.1178450098798510e-04 +0.0000000000000000e+00 +9.9999995139521103e-01
5.6999999999999877e+00 +8.5971041451053569e+00 +0.0000000000000000e+00 +5.6999999061076592e+00 -3.1455097013472107e-04 +0.0000000000000000e+00 +9.9999995052884216e-01
5.7499999999999876e+00 +8.5970883483913934e+00 +0.0000000000000000e+00 +5.7499999036122817e+00 -3.1731761832128302e-04 +0.0000000000000000e+00 +9.9999994965476313e-01
5.7999999999999874e+00 +8.5970724133405252e+00 +0.0000000000000000e+00 +5.7999999010730070e+00 -3.2008444648732107e-04 +0.0000000000000000e+00 +9.9999994877297205e-01
5.8499999999999872e+00 +8.5970563399437303e+00 +0.0000000000000000e+00 +5.8499998984894503e+00 -3.2285145555848045e-04 +0.0000000000000000e+00 +9.9999994788346724e-01
5.8999999999999870e+00 +8.5970401281919404e+00 +0.0000000000000000e+00 +5.8999998958612254e+00 -3.2561864644640147e-04 +0.0000000000000000e+00 +9.9999994698624695e-01
