# field on trajectory
# s[mm] rx[mm] ry[mm] rz[mm] bx[T] by[T] bz[T]
-0.0000000000000000e+00 +8.5270000000000206e+00 +0.0000000000000000e+00 -0.0000000000000000e+00 -2.7901545347457157e-02 -5.4968640296001203e-01 +5.6937569319816632e-03
-5.0000000000000003e-02 +8.5269999309457507e+00 +0.0000000000000000e+00 -4.9999999999936401e-02 -2.7902044225655714e-02 -5.4968989911186406e-01 +5.6953048076343665e-03
-1.0000000000000001e-01 +8.5269997237846802e+00 +0.0000000000000000e+00 -9.9999999999491399e-02 -2.7902567840884955e-02 -5.4969378906502064e-01 +5.6968487482227043e-03
-1.4999999999999999e-01 +8.5269993785186706e+00 +0.0000000000000000e+00 -1.4999999999828301e-01 -2.7903116033351084e-02 -5.4969807185428676e-01 +5.6983887480386713e-03
-2.0000000000000001e-01 +8.5269988951477007e+00 +0.0000000000000000e+00 -1.9999999999593099e-01 -2.7903688643262255e-02 -5.4970274651449846e-01 +5.6999248013742095e-03
-2.5000000000000000e-01 +8.5269982736681396e+00 +0.0000000000000000e+00 -2.4999999999205300e-01 -2.7904285510829196e-02 -5.4970781208053365e-01 +5.7014569025213300e-03
-2.9999999999999999e-01 +8.5269975140799907e+00 +0.0000000000000000e+00 -2.9999999998626697e-01 -2.7904906476262648e-02 -5.4971326758726169e-01 +5.7029850457715608e-03
-3.4999999999999998e-01 +8.5269966163905302e+00 +0.0000000000000000e+00 -3.4999999997819298e-01 -2.7905551379772010e-02 -5.4971911206951607e-01 +5.7045092254156644e-03
-4.0000000000000002e-01 +8.5269955805888493e+00 +0.0000000000000000e+00 -3.9999999996744801e-01 -2.7906220061574397e-02 -5.4972534456227773e-01 +5.7060294357456536e-03
-4.5000000000000001e-01 +8.5269944066858407e+00 +0.0000000000000000e+00 -4.4999999995365197e-01 -2.7906912361880400e-02 -5.4973196410038749e-01 +5.7075456710516340e-03
-5.0000000000000000e-01 +8.5269930946742498e+00 +0.0000000000000000e+00 -4.9999999993642202e-01 -2.7907628120908252e-02 -5.4973896971883252e-01 +5.7090579256249639e-03
-5.5000000000000004e-01 +8.5269916445577092e+00 +0.0000000000000000e+00 -5.4999999991537796e-01 -2.7908367178873541e-02 -5.4974636045253966e-01 +5.7105661937559742e-03
-5.9999999999999998e-01 +8.5269900563289394e+00 +0.0000000000000000e+00 -5.9999999989013697e-01 -2.7909129375996922e-02 -5.4975413533652961e-01 +5.7120704697356996e-03
-6.5000000000000002e-01 +8.5269883299988596e+00 +0.0000000000000000e+00 -6.4999999986031898e-01 -2.7909914552493673e-02 -5.4976229340570915e-01 +5.7135707478535580e-03
-6.9999999999999996e-01 +8.5269864655601904e+00 +0.0000000000000000e+00 -6.9999999982554195e-01 -2.7910722548586731e-02 -5.4977083369513169e-01 +5.7150670224002621e-03
-7.5000000000000000e-01 +8.5269844630165608e+00 +0.0000000000000000e+00 -7.4999999978542398e-01 -2.7911553204496321e-02 -5.4977975523978961e-01 +5.7165592876655142e-03
-8.0000000000000004e-01 +8.5269823223679904e+00 +0.0000000000000000e+00 -7.9999999973958402e-01 -2.7912406360444966e-02 -5.4978905707471615e-01 +5.7180475379391476e-03
-8.4999999999999998e-01 +8.5269800436108198e+00 +0.0000000000000000e+00 -8.4999999968764095e-01 -2.7913281856657677e-02 -5.4979873823498859e-01 +5.7195317675111622e-03
-9.0000000000000002e-01 +8.5269776267450705e+00 +0.0000000000000000e+00 -8.9999999962921295e-01 -2.7914179533359198e-02 -5.4980879775567326e-01 +5.7210119706711249e-03
-9.4999999999999996e-01 +8.5269750717743609e+00 +0.0000000000000000e+00 -9.4999999956391801e-01 -2.7915099230774031e-02 -5.4981923467182614e-01 +5.7224881417081847e-03
-1.0000000000000000e+00 +8.5269723786986997e+00 +0.0000000000000000e+00 -9.9999999949137597e-01 -2.7916040789129033e-02 -5.4983004801854651e-01 +5.7239602749116561e-03
-1.0500000000000000e+00 +8.5269695475144491e+00 +0.0000000000000000e+00 -1.0499999994111999e+00 -2.7917004048653365e-02 -5.4984123683097563e-01 +5.7254283645710360e-03
-1.1000000000000001e+00 +8.5269665782288904e+00 +0.0000000000000000e+00 -1.0999999993230201e+00 -2.7917988849573326e-02 -5.4985280014419102e-01 +5.7268924049748288e-03
-1.1499999999999999e+00 +8.5269634708311095e+00 +0.0000000000000000e+00 -1.1499999992264500e+00 -2.7918995032122692e-02 -5.4986473699341887e-01 +5.7283523904128938e-03
-1.2000000000000000e+00 +8.5269602253283701e+00 +0.0000000000000000e+00 -1.1999999991210999e+00 -2.7920022436529707e-02 -5.4987704641376911e-01 +5.7298083151735317e-03
-1.2500000000000000e+00 +8.5269568417206791e+00 +0.0000000000000000e+00 -1.2499999990065900e+00 -2.7921070903026181e-02 -5.4988972744042042e-01 +5.7312601735455245e-03
-1.3000000000000000e+00 +8.5269533200044005e+00 +0.0000000000000000e+00 -1.2999999988825499e+00 -2.7922140271846155e-02 -5.4990277910859298e-01 +5.7327079598178676e-03
-1.3500000000000001e+00 +8.5269496601795307e+00 +0.0000000000000000e+00 -1.3499999987485900e+00 -2.7923230383223311e-02 -5.4991620045349732e-01 +5.7341516682791697e-03
-1.3999999999999999e+00 +8.5269458622533403e+00 +0.0000000000000000e+00 -1.3999999986043401e+00 -2.7924341077389642e-02 -5.4992999051030655e-01 +5.7355912932173818e-03
-1.4500000000000000e+00 +8.5269419262185693e+00 +0.0000000000000000e+00 -1.4499999984494001e+00 -2.7925472194583183e-02 -5.4994414831431437e-01 +5.7370268289215444e-03
-1.5000000000000000e+00 +8.5269378520752106e+00 +0.0000000000000000e+00 -1.4999999982833900e+00 -2.7926623575040287e-02 -5.4995867290077793e-01 +5.7384582696800562e-03
-1.5500000000000000e+00 +8.5269336398268898e+00 +0.0000000000000000e+00 -1.5499999981059500e+00 -2.7927795058996879e-02 -5.4997356330494429e-01 +5.7398856097809507e-03
-1.6000000000000001e+00 +8.5269292894736299e+00 +0.0000000000000000e+00 -1.5999999979166799e+00 -2.7928986486690961e-02 -5.4998881856210047e-01 +5.7413088435124982e-03
-1.6499999999999999e+00 +8.5269248010117700e+00 +0.0000000000000000e+00 -1.6499999977152000e+00 -2.7930197698362729e-02 -5.5000443770757679e-01 +5.7427279651632171e-03
-1.7000000000000000e+00 +8.5269201744449692e+00 +0.0000000000000000e+00 -1.6999999975011300e+00 -2.7931428534250520e-02 -5.5002041977666594e-01 +5.7441429690209813e-03
-1.7500000000000000e+00 +8.5269154097695701e+00 +0.0000000000000000e+00 -1.7499999972740901e+00 -2.7932678834596106e-02 -5.5003676380472899e-01 +5.7455538493742225e-03
-1.8000000000000000e+00 +8.5269105069892195e+00 +0.0000000000000000e+00 -1.7999999970336999e+00 -2.7933948439639405e-02 -5.5005346882708894e-01 +5.7469606005107433e-03
-1.8500000000000001e+00 +8.5269054661039299e+00 +0.0000000000000000e+00 -1.8499999967795799e+00 -2.7935237189622399e-02 -5.5007053387911042e-01 +5.7483632167186121e-03
-1.8999999999999999e+00 +8.5269002871100401e+00 +0.0000000000000000e+00 -1.8999999965113501e+00 -2.7936544924789124e-02 -5.5008795799620069e-01 +5.7497616922861632e-03
-1.9500000000000000e+00 +8.5268949700112007e+00 +0.0000000000000000e+00 -1.9499999962286201e+00 -2.7937871485381720e-02 -5.5010574021372849e-01 +5.7511560215011302e-03
-2.0000000000000000e+00 +8.5268895148037700e+00 +0.0000000000000000e+00 -1.9999999959310100e+00 -2.7939216711645634e-02 -5.5012387956713038e-01 +5.7525461986518180e-03
-2.0499999999999998e+00 +8.5268839213858900e+00 +0.0000000000000000e+00 -2.0499999956181298e+00 -2.7940580452403156e-02 -5.5014237483739958e-01 +5.7539322104298279e-03
-2.1000000000000001e+00 +8.5268781896593300e+00 +0.0000000000000000e+00 -2.0999999952895898e+00 -2.7941962590639864e-02 -5.5016122378484900e-01 +5.7553140131078456e-03
-2.1499999999999999e+00 +8.5268723196240899e+00 +0.0000000000000000e+00 -2.1499999949449999e+00 -2.7943363017847594e-02 -5.5018042391392474e-01 +5.7566915553457542e-03
-2.2000000000000002e+00 +8.5268663112729008e+00 +0.0000000000000000e+00 -2.1999999945839801e+00 -2.7944781625521307e-02 -5.5019997272913812e-01 +5.7580647858038268e-03
-2.2500000000000000e+00 +8.5268601646093902e+00 +0.0000000000000000e+00 -2.2499999942061502e+00 -2.7946218305152440e-02 -5.5021986773493248e-01 +5.7594336531412368e-03
-2.2999999999999998e+00 +8.5268538796335598e+00 +0.0000000000000000e+00 -2.2999999938111202e+00 -2.7947672948234172e-02 -5.5024010643578747e-01 +5.7607981060172168e-03
-2.3500000000000001e+00 +8.5268474563490599e+00 +0.0000000000000000e+00 -2.3499999933985198e+00 -2.7949145446258736e-02 -5.5026068633616732e-01 +5.7621580930904788e-03
-2.3999999999999999e+00 +8.5268408947522403e+00 +0.0000000000000000e+00 -2.3999999929679601e+00 -2.7950635690721346e-02 -5.5028160494059974e-01 +5.7635135630200980e-03
-2.4500000000000002e+00 +8.5268341948467405e+00 +0.0000000000000000e+00 -2.4499999925190501e+00 -2.7952143573114940e-02 -5.5030285975356819e-01 +5.7648644644642949e-03
-2.5000000000000000e+00 +8.5268273566252901e+00 +0.0000000000000000e+00 -2.4999999920514302e+00 -2.7953668984936657e-02 -5.5032444827964599e-01 +5.7662107460819444e-03
-2.5499999999999998e+00 +8.5268203800987994e+00 +0.0000000000000000e+00 -2.5499999915646900e+00 -2.7955211817677392e-02 -5.5034636802328407e-01 +5.7675523565301739e-03
-2.6000000000000001e+00 +8.5268132652563509e+00 +0.0000000000000000e+00 -2.5999999910584699e+00 -2.7956771962836125e-02 -5.5036861648910007e-01 +5.7688892444676268e-03
-2.6499999999999999e+00 +8.5268060121015896e+00 +0.0000000000000000e+00 -2.6499999905323701e+00 -2.7958349311906855e-02 -5.5039119118161606e-01 +5.7702213585514913e-03
-2.7000000000000002e+00 +8.5267986206345103e+00 +0.0000000000000000e+00 -2.6999999899860101e+00 -2.7959943756385022e-02 -5.5041408960538807e-01 +5.7715486474389692e-03
-2.7500000000000000e+00 +8.5267910908551094e+00 +0.0000000000000000e+00 -2.7499999894190199e+00 -2.7961555187766315e-02 -5.5043730926498124e-01 +5.7728710597869859e-03
-2.7999999999999998e+00 +8.5267834227670392e+00 +0.0000000000000000e+00 -2.7999999888310101e+00 -2.7963183497545171e-02 -5.5046084766494197e-01 +5.7741885442518697e-03
-2.8500000000000001e+00 +8.5267756163666508e+00 +0.0000000000000000e+00 -2.8499999882215898e+00 -2.7964828577218839e-02 -5.5048470230987812e-01 +5.7755010494902519e-03
-2.8999999999999999e+00 +8.5267676716539391e+00 +0.0000000000000000e+00 -2.8999999875903901e+00 -2.7966490318283306e-02 -5.5050887070437782e-01 +5.7768085241581600e-03
-2.9500000000000002e+00 +8.5267595886289200e+00 +0.0000000000000000e+00 -2.9499999869370299e+00 -2.7968168612234615e-02 -5.5053335035303719e-01 +5.7781109169113068e-03
-3.0000000000000000e+00 +8.5267513672915793e+00 +0.0000000000000000e+00 -2.9999999862611100e+00 -2.7969863350568874e-02 -5.5055813876045934e-01 +5.7794081764050934e-03
-3.0499999999999998e+00 +8.5267430076455604e+00 +0.0000000000000000e+00 -3.0499999855622502e+00 -2.7971574424780876e-02 -5.5058323343122806e-01 +5.7807002512942959e-03
-3.1000000000000001e+00 +8.5267345096872305e+00 +0.0000000000000000e+00 -3.0999999848400801e+00 -2.7973301726367993e-02 -5.5060863186998599e-01 +5.7819870902339520e-03
-3.1499999999999999e+00 +8.5267258734165807e+00 +0.0000000000000000e+00 -3.1499999840942201e+00 -2.7975045146826274e-02 -5.5063433158135633e-01 +5.7832686418784656e-03
-3.2000000000000002e+00 +8.5267170988336094e+00 +0.0000000000000000e+00 -3.1999999833242700e+00 -2.7976804577651709e-02 -5.5066033006996762e-01 +5.7845448548818961e-03
-3.2500000000000000e+00 +8.5267081859419704e+00 +0.0000000000000000e+00 -3.2499999825298600e+00 -2.7978579910338808e-02 -5.5068662484042885e-01 +5.7858156778976509e-03
-3.2999999999999998e+00 +8.5266991347380099e+00 +0.0000000000000000e+00 -3.2999999817106000e+00 -2.7980371036384670e-02 -5.5071321339740686e-01 +5.7870810595793826e-03
-3.3500000000000001e+00 +8.5266899452181004e+00 +0.0000000000000000e+00 -3.3499999808661101e+00 -2.7982177847286176e-02 -5.5074009324557338e-01 +5.7883409485803648e-03
-3.3999999999999999e+00 +8.5266806173895002e+00 +0.0000000000000000e+00 -3.3999999799960099e+00 -2.7984000234536142e-02 -5.5076726188952663e-01 +5.7895952935526239e-03
-3.4500000000000002e+00 +8.5266711512522306e+00 +0.0000000000000000e+00 -3.4499999790999101e+00 -2.7985838089629761e-02 -5.5079471683392289e-01 +5.7908440431483840e-03
-3.5000000000000000e+00 +8.5266615468026394e+00 +0.0000000000000000e+00 -3.4999999781774398e+00 -2.7987691304063336e-02 -5.5082245558344800e-01 +5.7920871460198017e-03
-3.5499999999999998e+00 +8.5266518040407409e+00 +0.0000000000000000e+00 -3.5499999772282100e+00 -2.7989559769331575e-02 -5.5085047564276668e-01 +5.7933245508183257e-03
-3.6000000000000001e+00 +8.5266419229665207e+00 +0.0000000000000000e+00 -3.5999999762518402e+00 -2.7991443376928941e-02 -5.5087877451654788e-01 +5.7945562061950204e-03
-3.6499999999999999e+00 +8.5266319035799807e+00 +0.0000000000000000e+00 -3.6499999752479400e+00 -2.7993342018349535e-02 -5.5090734970946342e-01 +5.7957820608005401e-03
-3.6999999999999900e+00 +8.5266217458847695e+00 +0.0000000000000000e+00 -3.6999999742161398e+00 -2.7995255585085844e-02 -5.5093619872616317e-01 +5.7970020632848217e-03
-3.7499999999999898e+00 +8.5266114498736005e+00 +0.0000000000000000e+00 -3.7499999731560498e+00 -2.7997183968633932e-02 -5.5096531907137913e-01 +5.7982161622982939e-03
-3.7999999999999901e+00 +8.5266010155537497e+00 +0.0000000000000000e+00 -3.7999999720672801e+00 -2.7999127060484200e-02 -5.5099470824974073e-01 +5.7994243064897486e-03
-3.8499999999999899e+00 +8.5265904429179500e+00 +0.0000000000000000e+00 -3.8499999709494599e+00 -2.8001084752131894e-02 -5.5102436376598540e-01 +5.8006264445087550e-03
-3.8999999999999901e+00 +8.5265797319771099e+00 +0.0000000000000000e+00 -3.8999999698022001e+00 -2.8003056935065246e-02 -5.5105428312472182e-01 +5.8018225250029377e-03
-3.9499999999999900e+00 +8.5265688827203103e+00 +0.0000000000000000e+00 -3.9499999686251202e+00 -2.8005043500779904e-02 -5.5108446383071896e-01 +5.8030124966212855e-03
-3.9999999999999898e+00 +8.5265578951548395e+00 +0.0000000000000000e+00 -3.9999999674178399e+00 -2.8007044340764436e-02 -5.5111490338861535e-01 +5.8041963080108176e-03
-4.0499999999999901e+00 +8.5265467692734092e+00 +0.0000000000000000e+00 -4.0499999661799704e+00 -2.8009059346096356e-02 -5.5114559924914563e-01 +5.8053739146907033e-03
-4.0999999999999899e+00 +8.5265355050833005e+00 +0.0000000000000000e+00 -4.0999999649111301e+00 -2.8011088406184506e-02 -5.5117654864688892e-01 +5.8065452996641795e-03
-4.1499999999999897e+00 +8.5265241025808791e+00 +0.0000000000000000e+00 -4.1499999636109504e+00 -2.8013131410026221e-02 -5.5120774876249201e-01 +5.8077104528066852e-03
-4.1999999999999904e+00 +8.5265125617697795e+00 +0.0000000000000000e+00 -4.1999999622790298e+00 -2.8015188246616737e-02 -5.5123919677654776e-01 +5.8088693639929767e-03
-4.2499999999999902e+00 +8.5265008826427202e+00 +0.0000000000000000e+00 -4.2499999609149901e+00 -2.8017258804955671e-02 -5.5127088986972705e-01 +5.8100220230986217e-03
-4.2999999999999901e+00 +8.5264890652069898e+00 +0.0000000000000000e+00 -4.2999999595184599e+00 -2.8019342974037884e-02 -5.5130282522259444e-01 +5.8111684199979204e-03
-4.3499999999999899e+00 +8.5264771094589396e+00 +0.0000000000000000e+00 -4.3499999580890396e+00 -2.8021440642862702e-02 -5.5133500001579117e-01 +5.8123085445660021e-03
-4.3999999999999897e+00 +8.5264650153985695e+00 +0.0000000000000000e+00 -4.3999999566263703e+00 -2.8023551700428584e-02 -5.5136741142993118e-01 +5.8134423866776233e-03
-4.4499999999999904e+00 +8.5264527830295300e+00 +0.0000000000000000e+00 -4.4499999551300400e+00 -2.8025676035733204e-02 -5.5140005664559888e-01 +5.8145699362071876e-03
-4.4999999999999902e+00 +8.5264404123481707e+00 +0.0000000000000000e+00 -4.4999999535996897e+00 -2.8027813537777384e-02 -5.5143293284342987e-01 +5.8156911830296379e-03
-4.5499999999999901e+00 +8.5264279033544899e+00 +0.0000000000000000e+00 -4.5499999520349199e+00 -2.8029964095561126e-02 -5.5146603720403042e-01 +5.8168061170195710e-03
-4.5999999999999899e+00 +8.5264152560448601e+00 +0.0000000000000000e+00 -4.5999999504353601e+00 -2.8032127598086275e-02 -5.5149936690802914e-01 +5.8179147280518310e-03
-4.6499999999999897e+00 +8.5264024704301793e+00 +0.0000000000000000e+00 -4.6499999488006196e+00 -2.8034303934349955e-02 -5.5153291913594660e-01 +5.8190170060000261e-03
-4.6999999999999904e+00 +8.5263895464995603e+00 +0.0000000000000000e+00 -4.6999999471303298e+00 -2.8036492993357656e-02 -5.5156669106845768e-01 +5.8201129407395276e-03
-4.7499999999999902e+00 +8.5263764842602505e+00 +0.0000000000000000e+00 -4.7499999454240900e+00 -2.8038694664108868e-02 -5.5160067988610106e-01 +5.8212025221441701e-03
-4.7999999999999901e+00 +8.5263632837050007e+00 +0.0000000000000000e+00 -4.7999999436815299e+00 -2.8040908835608912e-02 -5.5163488276951722e-01 +5.8222857400889727e-03
-4.8499999999999899e+00 +8.5263499448447000e+00 +0.0000000000000000e+00 -4.8499999419022597e+00 -2.8043135396856989e-02 -5.5166929689920918e-01 +5.8233625844474170e-03
-4.8999999999999897e+00 +8.5263364676684397e+00 +0.0000000000000000e+00 -4.8999999400859000e+00 -2.8045374236860824e-02 -5.5170391945583463e-01 +5.8244330450947825e-03
-4.9499999999999904e+00 +8.5263228521798702e+00 +0.0000000000000000e+00 -4.9499999382320699e+00 -2.8047625244623384e-02 -5.5173874761993913e-01 +5.8254971119051282e-03
-4.9999999999999902e+00 +8.5263090983826295e+00 +0.0000000000000000e+00 -4.9999999363403900e+00 -2.8049888309148216e-02 -5.5177377857206333e-01 +5.8265547747525107e-03
-5.0499999999999901e+00 +8.5262952059529198e+00 +0.0000000000000000e+00 -5.0499999344103799e+00 -2.8052163319558402e-02 -5.5180900949513334e-01 +5.8276060235381670e-03
-5.0999999999999899e+00 +8.5262811745706095e+00 +0.0000000000000000e+00 -5.0999999324415599e+00 -2.8054450164976399e-02 -5.5184443757204460e-01 +5.8286508481630731e-03
-5.1499999999999897e+00 +8.5262670042357094e+00 +0.0000000000000000e+00 -5.1499999304335597e+00 -2.8056748734408974e-02 -5.5188005998334899e-01 +5.8296892385016385e-03
-5.1999999999999904e+00 +8.5262526949518396e+00 +0.0000000000000000e+00 -5.1999999283859903e+00 -2.8059058916862136e-02 -5.5191587390956509e-01 +5.8307211844279882e-03
-5.2499999999999902e+00 +8.5262382467153692e+00 +0.0000000000000000e+00 -5.2499999262984600e+00 -2.8061380601345155e-02 -5.5195187653125788e-01 +5.8317466758168682e-03
-5.2999999999999901e+00 +8.5262236595299292e+00 +0.0000000000000000e+00 -5.2999999241705797e+00 -2.8063713676865214e-02 -5.5198806502893116e-01 +5.8327657025424315e-03
-5.3499999999999899e+00 +8.5262089333882596e+00 +0.0000000000000000e+00 -5.3499999220019703e+00 -2.8066058032434081e-02 -5.5202443658316136e-01 +5.8337782544797788e-03
-5.3999999999999897e+00 +8.5261940682976292e+00 +0.0000000000000000e+00 -5.3999999197922497e+00 -2.8068413557058806e-02 -5.5206098837441020e-01 +5.8347843215028217e-03
-5.4499999999999904e+00 +8.5261790642507496e+00 +0.0000000000000000e+00 -5.4499999175410201e+00 -2.8070780139752362e-02 -5.5209771758323756e-01 +5.8357838934867184e-03
-5.4999999999999902e+00 +8.5261639212585596e+00 +0.0000000000000000e+00 -5.4999999152479004e+00 -2.8073157669521731e-02 -5.5213462139006220e-01 +5.8367769603051610e-03
-5.5499999999999901e+00 +8.5261486393137602e+00 +0.0000000000000000e+00 -5.5499999129125097e+00 -2.8075546035381087e-02 -5.5217169697542623e-01 +5.8377635118333979e-03
-5.5999999999999899e+00 +8.5261332184127205e+00 +0.0000000000000000e+00 -5.5999999105344500e+00 -2.8077945126343949e-02 -5.5220894151983668e-01 +5.8387435379464265e-03
-5.6499999999999897e+00 +8.5261176585627307e+00 +0.0000000000000000e+00 -5.6499999081133403e+00 -2.8080354831420434e-02 -5.5224635220371088e-01 +5.8397170285183876e-03
-5.6999999999999904e+00 +8.5261019597637606e+00 +0.0000000000000000e+00 -5.6999999056488004e+00 -2.8082775039623996e-02 -5.5228392620750932e-01 +5.8406839734240958e-03
-5.7499999999999902e+00 +8.5260861220122006e+00 +0.0000000000000000e+00 -5.7499999031404396e+00 -2.8085205639969992e-02 -5.5232166071170996e-01 +5.8416443625387247e-03
-5.7999999999999901e+00 +8.5260701453080401e+00 +0.0000000000000000e+00 -5.7999999005878804e+00 -2.8087646521473154e-02 -5.5235955289675243e-01 +5.8425981857372243e-03
-5.8499999999999899e+00 +8.5260540296512808e+00 +0.0000000000000000e+00 -5.8499998979907204e+00 -2.8090097573148821e-02 -5.5239759994306659e-01 +5.8435454328946129e-03
