# multipoles
# s[mm] polynom_b[n=0][T/m^n] polynom_b[n=1][T/m^n] polynom_b[n=2][T/m^n] polynom_b[n=3][T/m^n] polynom_b[n=4][T/m^n] polynom_b[n=5][T/m^n] polynom_b[n=6][T/m^n] 
+0.0000000000000000e+00 -5.5155893029902647e-01 +7.2207607365970032e+00 +5.9119983542154007e+00 +4.1170464171652540e+01 -1.2584132951555579e+04 -5.2171810250671091e+05 +7.0778498220324695e+07 
+5.0000000000000003e-02 -5.5155534866409195e-01 +7.2206212609546290e+00 +5.9157218799240674e+00 +4.1824812996598908e+01 -1.2600239587150820e+04 -5.2700097584637662e+05 +7.0840441412058145e+07 
+1.0000000000000001e-01 -5.5155215141311054e-01 +7.2205020340167883e+00 +5.9189743927201048e+00 +4.2493374602435694e+01 -1.2615834704061757e+04 -5.3233730087744899e+05 +7.0896052059013382e+07 
+1.5000000000000002e-01 -5.5154933801485884e-01 +7.2204030440520999e+00 +5.9217543883691324e+00 +4.3174864061964016e+01 -1.2630888339732657e+04 -5.3771776140858664e+05 +7.0945339660631135e+07 
+2.0000000000000001e-01 -5.5154690793811467e-01 +7.2203242793275226e+00 +5.9240603600295394e+00 +4.3867996524973080e+01 -1.2645370465302511e+04 -5.4313304178648628e+05 +7.0988313284298867e+07 
+2.5000000000000000e-01 -5.5154486065168540e-01 +7.2202657281131097e+00 +5.9258908028210726e+00 +4.4571487056291588e+01 -1.2659251103043340e+04 -5.4857382570897311e+05 +7.1024982332811385e+07 
+2.9999999999999999e-01 -5.5154319562439591e-01 +7.2202273786792865e+00 +5.9272442119661681e+00 +4.5284050734914196e+01 -1.2672500279552938e+04 -5.5403079697967367e+05 +7.1055356244057238e+07 
+3.4999999999999998e-01 -5.5154191232507643e-01 +7.2202092192950280e+00 +5.9281190805527126e+00 +4.6004402707685180e+01 -1.2685087962831038e+04 -5.5949463988530380e+05 +7.1079444051888838e+07 
+3.9999999999999997e-01 -5.5154101022257784e-01 +7.2202112382344872e+00 +5.9285139022765696e+00 +4.6731257960658048e+01 -1.2696984139831096e+04 -5.6495603747309500e+05 +7.1097254929803103e+07 
+4.4999999999999996e-01 -5.5154048878578243e-01 +7.2202334237665129e+00 +5.9284271729233913e+00 +4.7463331716340633e+01 -1.2708158850457614e+04 -5.7040567468908313e+05 +7.1108798393223107e+07 
+4.9999999999999994e-01 -5.5154034748357728e-01 +7.2202757641650406e+00 +5.9278573867769859e+00 +4.8199339010440021e+01 -1.2718582098077488e+04 -5.7583423492058506e+05 +7.1114083721835747e+07 
+5.4999999999999993e-01 -5.5154058578487097e-01 +7.2203382477035261e+00 +5.9268030383087460e+00 +4.8937994941154066e+01 -1.2728223889540392e+04 -5.8123240212374006e+05 +7.1113120215446770e+07 
+5.9999999999999998e-01 -5.5154120315858446e-01 +7.2204208626553630e+00 +5.9252626214706678e+00 +4.9678014623984339e+01 -1.2737054218106940e+04 -5.8659086034100130e+05 +7.1105917077498212e+07 
+6.5000000000000002e-01 -5.5154219907366087e-01 +7.2205235972965980e+00 +5.9232346307100103e+00 +5.0418113101639456e+01 -1.2745043087664251e+04 -5.9190029304611112e+05 +7.1092483573474213e+07 
+7.0000000000000007e-01 -5.5154357299906531e-01 +7.2206464399024481e+00 +5.9207175618020695e+00 +5.1157005473430871e+01 -1.2752160542466518e+04 -5.9715138416084449e+05 +7.1072829256516591e+07 
+7.5000000000000011e-01 -5.5154532440376558e-01 +7.2207893787488722e+00 +5.9177099076638697e+00 +5.1893406842644175e+01 -1.2758376546319541e+04 -6.0233481766735984e+05 +7.1046963121108308e+07 
+8.0000000000000016e-01 -5.5154745275675865e-01 +7.2209524021138929e+00 +5.9142101637141513e+00 +5.2626032252002034e+01 -1.2763661133162408e+04 -6.0744127703360457e+05 +7.1014894644220605e+07 
+8.5000000000000020e-01 -5.5154995752706559e-01 +7.2211354982749825e+00 +5.9102168260180576e+00 +5.3353596792701005e+01 -1.2767984349350620e+04 -6.1246144612929469e+05 +7.0976633365060836e+07 
+9.0000000000000024e-01 -5.5155283818370360e-01 +7.2213386555117713e+00 +5.9057283876891802e+00 +5.4074815498351477e+01 -1.2771316166091678e+04 -6.1738600835666852e+05 +7.0932188328890547e+07 
+9.5000000000000029e-01 -5.5155609419572138e-01 +7.2215618621023570e+00 +5.9007433440150283e+00 +5.4788403495440690e+01 -1.2773626609578854e+04 -6.2220564790084888e+05 +7.0881568936516002e+07 
+1.0000000000000002e+00 -5.5155972503218731e-01 +7.2218051063280928e+00 +5.8952601907398687e+00 +5.5493075804360146e+01 -1.2774885720241813e+04 -6.2691104809261672e+05 +7.0824784693620235e+07 
+1.0500000000000003e+00 -5.5156373016218008e-01 +7.2220683764686653e+00 +5.8892774230706948e+00 +5.6187547533473108e+01 -1.2775063525546664e+04 -6.3149289294428832e+05 +7.0761845016902417e+07 
+1.1000000000000003e+00 -5.5156810905479492e-01 +7.2223516608082079e+00 +5.8827935352626843e+00 +5.6870533651579869e+01 -1.2774130019715165e+04 -6.3594186539608869e+05 +7.0692759070065096e+07 
+1.1500000000000004e+00 -5.5157286117913751e-01 +7.2226549476288024e+00 +5.8758070213116058e+00 +5.7540749225541326e+01 -1.2772055195824893e+04 -6.4024864915740886e+05 +7.0617536026104093e+07 
+1.2000000000000004e+00 -5.5157798600437946e-01 +7.2229782252140948e+00 +5.8683163834181462e+00 +5.8196909293862838e+01 -1.2768809265168378e+04 -6.4440392773597478e+05 +7.0536186522662207e+07 
+1.2500000000000004e+00 -5.5158348299962423e-01 +7.2233214818467868e+00 +5.8603201092480681e+00 +5.8837728959665185e+01 -1.2764362048744579e+04 -6.4839838518182281e+05 +7.0448718560710937e+07 
+1.3000000000000005e+00 -5.5158935163406342e-01 +7.2236847058146374e+00 +5.8518166985419082e+00 +5.9461923146239833e+01 -1.2758683687213448e+04 -6.5222270408511290e+05 +7.0355142276101187e+07 
+1.3500000000000005e+00 -5.5159559137688308e-01 +7.2240678854018432e+00 +5.8428046478305840e+00 +6.0068206948584248e+01 -1.2751744239518743e+04 -6.5586756844713015e+05 +7.0255467268734768e+07 
+1.4000000000000006e+00 -5.5160220169727814e-01 +7.2244710088968294e+00 +5.8332824519910655e+00 +6.0655295323204498e+01 -1.2743513717682763e+04 -6.5932366118008934e+05 +7.0149702810424879e+07 
+1.4500000000000006e+00 -5.5160918206446097e-01 +7.2248940645855884e+00 +5.8232486060098987e+00 +6.1221903348837593e+01 -1.2733962133219155e+04 -6.6258166619356989e+05 +7.0037858152139962e+07 
+1.5000000000000007e+00 -5.5161653194768856e-01 +7.2253370407595776e+00 +5.8127016101146030e+00 +6.1766745903214108e+01 -1.2723059641975795e+04 -6.6563226574919012e+05 +6.9919943529928759e+07 
+1.5500000000000007e+00 -5.5162425081619793e-01 +7.2257999257048606e+00 +5.8016399579643494e+00 +6.2288538122490245e+01 -1.2710776217989747e+04 -6.6846614429271151e+05 +6.9795967930140510e+07 
+1.6000000000000008e+00 -5.5163233813926227e-01 +7.2262827077158063e+00 +5.7900621469746989e+00 +6.2785994823682962e+01 -1.2697081939553147e+04 -6.7107398363362555e+05 +6.9665941052232429e+07 
+1.6500000000000008e+00 -5.5164079338618177e-01 +7.2267853750804223e+00 +5.7779666762249420e+00 +6.3257831112606453e+01 -1.2681946924690610e+04 -6.7344646798541967e+05 +6.9529872839769483e+07 
+1.7000000000000008e+00 -5.5164961602625529e-01 +7.2273079160934852e+00 +5.7653520419434638e+00 +6.3702761854534430e+01 -1.2665341217495510e+04 -6.7557427964875347e+05 +6.9387772748301476e+07 
+1.7500000000000009e+00 -5.5165880552880364e-01 +7.2278503190455110e+00 +5.7522167412561593e+00 +6.4119502103699745e+01 -1.2647234880182616e+04 -6.7744810244241788e+05 +6.9239650324473277e+07 
+1.8000000000000009e+00 -5.5166836136316555e-01 +7.2284125722332710e+00 +5.7385592717378584e+00 +6.4506766689005545e+01 -1.2627597991086604e+04 -6.7905861837195419e+05 +6.9085515241010502e+07 
+1.8500000000000010e+00 -5.5167828299870647e-01 +7.2289946639487574e+00 +5.7243781328559429e+00 +6.4863270672500406e+01 -1.2606400674019800e+04 -6.8039651143155410e+05 +6.8925377450012743e+07 
+1.9000000000000010e+00 -5.5168856990479564e-01 +7.2295965824894566e+00 +5.7096718219794669e+00 +6.5187728907213682e+01 -1.2583612998781722e+04 -6.8145246387316962e+05 +6.8759246548160642e+07 
+1.9500000000000011e+00 -5.5169922155082696e-01 +7.2302183161540636e+00 +5.6944388382187432e+00 +6.5478856227892123e+01 -1.2559205078828592e+04 -6.8221715784134169e+05 +6.8587132405460194e+07 
+2.0000000000000009e+00 -5.5171023740620884e-01 +7.2308598532367672e+00 +5.6786776800137160e+00 +6.5735367678329865e+01 -1.2533147006626799e+04 -6.8268127721126284e+05 +6.8409044743796825e+07 
+2.0500000000000007e+00 -5.5172161671050135e-01 +7.2315211581160312e+00 +5.6623881348203140e+00 +6.5956487172906606e+01 -1.2505414613737190e+04 -6.8283948286036646e+05 +6.8224977048913091e+07 
+2.1000000000000005e+00 -5.5173335778322496e-01 +7.2322020934053404e+00 +5.6455756767893694e+00 +6.6143437854091403e+01 -1.2476016473895028e+04 -6.8270213863501046e+05 +6.8034937394893840e+07 
+2.1500000000000004e+00 -5.5174545871369762e-01 +7.2329024947456730e+00 +5.6282473360388359e+00 +6.6297933534460938e+01 -1.2444971516360411e+04 -6.8228348740335612e+05 +6.7838955624537125e+07 
+2.2000000000000002e+00 -5.5175791759128701e-01 +7.2336221977798463e+00 +5.6104101490741805e+00 +6.6421687950972483e+01 -1.2412298841166357e+04 -6.8159777135603409e+05 +6.7637062731398150e+07 
+2.2500000000000000e+00 -5.5177073250534869e-01 +7.2343610381499825e+00 +5.5920711480402208e+00 +6.6516414886976463e+01 -1.2378017431216993e+04 -6.8065923309374135e+05 +6.7429288920310542e+07 
+2.2999999999999998e+00 -5.5178390154526313e-01 +7.2351188515007925e+00 +5.5732373666931387e+00 +6.6583828040911072e+01 -1.2342146311113898e+04 -6.7948211454843695e+05 +6.7215664674244091e+07 
+2.3499999999999996e+00 -5.5179742280042432e-01 +7.2358954734743248e+00 +5.5539158397073916e+00 +6.6625641227445470e+01 -1.2304704534526802e+04 -6.7808065857501514e+05 +6.6996220686963700e+07 
+2.3999999999999995e+00 -5.5181129436023768e-01 +7.2366907397145193e+00 +5.5341136011292846e+00 +6.6643568205606741e+01 -1.2265711136605802e+04 -6.7646910760888364e+05 +6.6770987525312789e+07 
+2.4499999999999993e+00 -5.5182551431410909e-01 +7.2375044858672384e+00 +5.5138376830151854e+00 +6.6639322654750401e+01 -1.2225185100563667e+04 -6.7466170337982161e+05 +6.6539995414120331e+07 
+2.4999999999999991e+00 -5.5184008075146618e-01 +7.2383365475749173e+00 +5.4930951189759325e+00 +6.6614618432760508e+01 -1.2183145449862262e+04 -6.7267268918883021e+05 +6.6303274843218923e+07 
+2.5499999999999989e+00 -5.5185499176174402e-01 +7.2391867604830198e+00 +5.4718929418272726e+00 +6.6571169253380887e+01 -1.2139611188491634e+04 -6.7051630702854425e+05 +6.6060856183147423e+07 
+2.5999999999999988e+00 -5.5187024543439900e-01 +7.2400549602372575e+00 +5.4502381864874927e+00 +6.6510688867392730e+01 -1.2094601380548993e+04 -6.6820679933611513e+05 +6.5812770223995991e+07 
+2.6499999999999986e+00 -5.5188583985887363e-01 +7.2409409824862836e+00 +5.4281378827914368e+00 +6.6434890886462668e+01 -1.2048134948434856e+04 -6.6575840729200945e+05 +6.5559046784006506e+07 
+2.6999999999999984e+00 -5.5190177312465005e-01 +7.2418446628722677e+00 +5.4055990658803950e+00 +6.6345489207001862e+01 -1.2000230964138400e+04 -6.6318537445258850e+05 +6.5299716721813969e+07 
+2.7499999999999982e+00 -5.5191804332120165e-01 +7.2427658370413912e+00 +5.3826287674680344e+00 +6.6244197580871315e+01 -1.1950908405053093e+04 -6.6050194323471445e+05 +6.5034810246869475e+07 
+2.7999999999999980e+00 -5.5193464853801233e-01 +7.2437043406417443e+00 +5.3592340187195733e+00 +6.6132729687257537e+01 -1.1900186234245555e+04 -6.5772235543769889e+05 +6.4764357483032785e+07 
+2.8499999999999979e+00 -5.5195158686458679e-01 +7.2446600093199791e+00 +5.3354218531323365e+00 +6.6012799256007867e+01 -1.1848083480809810e+04 -6.5486085321044747e+05 +6.4488389009168506e+07 
+2.8999999999999977e+00 -5.5196885639042914e-01 +7.2456326787217096e+00 +5.3111993016743160e+00 +6.5886120091465145e+01 -1.1794619105880462e+04 -6.5193167941789923e+05 +6.4206934955607690e+07 
+2.9499999999999975e+00 -5.5198645520505818e-01 +7.2466221844941527e+00 +5.2865733965860739e+00 +6.5754405921408065e+01 -1.1739812106987873e+04 -6.4894907621229219e+05 +6.3920025704663493e+07 
+2.9999999999999973e+00 -5.5200438139798924e-01 +7.2476283622864361e+00 +5.2615511671123913e+00 +6.5619370414887939e+01 -1.1683681398218301e+04 -6.4592728532434464e+05 +6.3627691071479678e+07 
+3.0499999999999972e+00 -5.5202263305877863e-01 +7.2486510477436479e+00 +5.2361396483093605e+00 +6.5482727402659421e+01 -1.1626246057862676e+04 -6.4288054977267259e+05 +6.3329962016062185e+07 
+3.0999999999999970e+00 -5.5204120827695846e-01 +7.2496900765143337e+00 +5.2103458691407072e+00 +6.5346190583144534e+01 -1.1567524996203947e+04 -6.3982311149585689e+05 +6.3026868346517272e+07 
+3.1499999999999968e+00 -5.5206010514207371e-01 +7.2507452842461344e+00 +5.1841768589230286e+00 +6.5211473697172210e+01 -1.1507537136199991e+04 -6.3676921278712794e+05 +6.2718439980844907e+07 
+3.1999999999999966e+00 -5.5207932174368990e-01 +7.2518165065851443e+00 +5.1576396492724115e+00 +6.5080290561258977e+01 -1.1446301465610954e+04 -6.3373309658910241e+05 +6.2404707284585699e+07 
+3.2499999999999964e+00 -5.5209885617137022e-01 +7.2529035791826155e+00 +5.1307412695053021e+00 +6.4954354761845451e+01 -1.1383836910161323e+04 -6.3072900386440405e+05 +6.2085700210224368e+07 
+3.2999999999999963e+00 -5.5211870651469097e-01 +7.2540063376832160e+00 +5.1034887492586725e+00 +6.4835380180105716e+01 -1.1320162404262202e+04 -6.2777117808057577e+05 +6.1761448778213665e+07 
+3.3499999999999961e+00 -5.5213887086323310e-01 +7.2551246177363842e+00 +5.0758891180355628e+00 +6.4725080489280302e+01 -1.1255296882608423e+04 -6.2487386094014661e+05 +6.1431983024173267e+07 
+3.3999999999999959e+00 -5.5215934730658445e-01 +7.2562582549889774e+00 +5.0479494046708346e+00 +6.4625169483723326e+01 -1.1189259264815453e+04 -6.2205129517903260e+05 +6.1097332905128270e+07 
+3.4499999999999957e+00 -5.5218013393434207e-01 +7.2574070850892136e+00 +5.0196766381071285e+00 +6.4537360892224783e+01 -1.1122068472557199e+04 -6.1931772295732575e+05 +6.0757528391391747e+07 
+3.4999999999999956e+00 -5.5220122883610900e-01 +7.2585709436841128e+00 +4.9910778468977615e+00 +6.4463368497079728e+01 -1.1053743418733655e+04 -6.1668738688608143e+05 +6.0412599404123060e+07 
+3.5499999999999954e+00 -5.5222263010148642e-01 +7.2597496664217855e+00 +4.9621600574359652e+00 +6.4404906037161254e+01 -1.0984302960240333e+04 -6.1417452921550861e+05 +6.0062575506532982e+07 
+3.5999999999999952e+00 -5.5224433582009025e-01 +7.2609430889523843e+00 +4.9329302980439387e+00 +6.4363687160508036e+01 -1.0913766012299646e+04 -6.1179339142036007e+05 +5.9707486681748718e+07 
+3.6499999999999950e+00 -5.5226634408154485e-01 +7.2621510469205850e+00 +4.9033955962062805e+00 +6.4341425743397465e+01 -1.0842151459796918e+04 -6.0955821686352184e+05 +5.9347362686233670e+07 
+3.6999999999999948e+00 -5.5228865297546603e-01 +7.2633733759726793e+00 +4.8735629773598150e+00 +6.4339835597431119e+01 -1.0769478145390440e+04 -6.0748324839040148e+05 +5.8982233047581784e+07 
+3.7499999999999947e+00 -5.5231126059149327e-01 +7.2646099117595968e+00 +4.8434394690527487e+00 +6.4360630331322511e+01 -1.0695764961784753e+04 -6.0558272712479497e+05 +5.8612127611684926e+07 
+3.7999999999999945e+00 -5.5233416501926103e-01 +7.2658604899268875e+00 +4.8130320972690557e+00 +6.4405523777949014e+01 -1.0621030768625336e+04 -6.0387089605963475e+05 +5.8237076043421976e+07 
+3.8499999999999943e+00 -5.5235736434840732e-01 +7.2671249461195364e+00 +4.7823478867636364e+00 +6.4476229790408496e+01 -1.0545294388950460e+04 -6.0236199834573688e+05 +5.7857107754270755e+07 
+3.8999999999999941e+00 -5.5238085666856873e-01 +7.2684031159863078e+00 +4.7513938612483706e+00 +6.4574462059221048e+01 -1.0468574623762472e+04 -6.0107027578187734e+05 +5.7472252036937669e+07 
+3.9499999999999940e+00 -5.5240464006940893e-01 +7.2696948351752475e+00 +4.7201770476977964e+00 +6.4701934293173210e+01 -1.0390890362300130e+04 -6.0000997028086439e+05 +5.7082538789759688e+07 
+3.9999999999999938e+00 -5.5242871264056537e-01 +7.2709999393310030e+00 +4.6887044673600675e+00 +6.4860360348406331e+01 -1.0312260342864245e+04 -5.9919532501293393e+05 +5.6687996912245803e+07 
+4.0499999999999936e+00 -5.5245307233661567e-01 +7.2723182634627914e+00 +4.6569833137951235e+00 +6.5050968266906068e+01 -1.0232717575425400e+04 -5.9863664829420683e+05 +5.6288748075020924e+07 
+4.0999999999999934e+00 -5.5247771657295597e-01 +7.2736496325327495e+00 +4.6250217745784816e+00 +6.5273062345434766e+01 -1.0152332940227927e+04 -5.9832852662265440e+05 +5.5885121679879740e+07 
+4.1499999999999932e+00 -5.5250264263050075e-01 +7.2749938671724932e+00 +4.5928283935931322e+00 +6.5525465223354757e+01 -1.0071182205762339e+04 -5.9826159131523001e+05 +5.5477459381372824e+07 
+4.1999999999999931e+00 -5.5252784779016784e-01 +7.2763507880081812e+00 +4.5604117148616963e+00 +6.5806999734954317e+01 -9.9893411436802926e+03 -5.9842647529552795e+05 +5.5066102866259277e+07 
+4.2499999999999929e+00 -5.5255332933287959e-01 +7.2777202156677019e+00 +4.5277802830895473e+00 +6.6116488645823452e+01 -9.9068855453563392e+03 -5.9881381092914788e+05 +5.4651393955043487e+07 
+4.2999999999999927e+00 -5.5257908453955562e-01 +7.2791019707784619e+00 +4.4949426417321696e+00 +6.6452754741760586e+01 -9.8238911629956056e+03 -5.9941423074453929e+05 +5.4233674181222275e+07 
+4.3499999999999925e+00 -5.5260511069112761e-01 +7.2804958739694374e+00 +4.4619073363640229e+00 +6.6814620722910206e+01 -9.7404338082186223e+03 -6.0021836648263899e+05 +5.3813285484369896e+07 
+4.3999999999999924e+00 -5.5263140506851083e-01 +7.2819017458645714e+00 +4.4286829094724371e+00 +6.7200909501467237e+01 -9.6565892091953720e+03 -6.0121685165100906e+05 +5.3390569238815762e+07 
+4.4499999999999922e+00 -5.5265796495265007e-01 +7.2833194070895013e+00 +4.3952779085028411e+00 +6.7610443906939707e+01 -9.5724332259819184e+03 -6.0240031902057468e+05 +5.2965867698780857e+07 
+4.4999999999999920e+00 -5.5268478762447115e-01 +7.2847486782733286e+00 +4.3617008773132424e+00 +6.8042046625396694e+01 -9.4880416211840511e+03 -6.0375940018922207e+05 +5.2539522455597207e+07 
+4.5499999999999918e+00 -5.5271187036490343e-01 +7.2861893800391000e+00 +4.3279603600654548e+00 +6.8494540575371303e+01 -9.4034901612105659e+03 -6.0528472859988059e+05 +5.2111875107141860e+07 
+4.5999999999999917e+00 -5.5273921045488683e-01 +7.2876413330111065e+00 +4.2940649034926208e+00 +6.8966748618874306e+01 -9.3188546884085918e+03 -6.0696693721433601e+05 +5.1683267784184381e+07 
+4.6499999999999915e+00 -5.5276680517536314e-01 +7.2891043578149661e+00 +4.2600230537743897e+00 +6.9457493556348354e+01 -9.2342110217290974e+03 -6.0879665846982645e+05 +5.1254042427228861e+07 
+4.6999999999999913e+00 -5.5279465180725507e-01 +7.2905782750732318e+00 +4.2258433543762361e+00 +6.9965598306467285e+01 -9.1496349090120184e+03 -6.1076452575133694e+05 +5.0824540497086532e+07 
+4.7499999999999911e+00 -5.5282274763151540e-01 +7.2920629054092609e+00 +4.1915343539166496e+00 +7.0489885732554526e+01 -9.0652022372383653e+03 -6.1286117190433934e+05 +5.0395104396529779e+07 
+4.7999999999999909e+00 -5.5285108992906951e-01 +7.2935580694437938e+00 +4.1571045965242082e+00 +7.1029178814950356e+01 -8.9809887687235023e+03 -6.1507723079780373e+05 +4.9966075663864277e+07 
+4.8499999999999908e+00 -5.5287967598085830e-01 +7.2950635878011392e+00 +4.1225626292860555e+00 +7.1582300347524281e+01 -8.8970703474115799e+03 -6.1740333460622770e+05 +4.9537796396096483e+07 
+4.8999999999999906e+00 -5.5290850306783135e-01 +7.2965792811015620e+00 +4.0879170006798820e+00 +7.2148073307752057e+01 -8.8135228485223197e+03 -6.1983011710548983e+05 +4.9110608871586852e+07 
+4.9499999999999904e+00 -5.5293756847090425e-01 +7.2981049699635987e+00 +4.0531762537958791e+00 +7.2725320718777013e+01 -8.7304220044866579e+03 -6.2234821235613828e+05 +4.8684854413124092e+07 
+4.9999999999999902e+00 -5.5296686947103280e-01 +7.2996404750101984e+00 +4.0183489395107399e+00 +7.3312865400892520e+01 -8.6478437592027258e+03 -6.2494825268138142e+05 +4.8260875769366957e+07 
+5.0499999999999901e+00 -5.5299640334914890e-01 +7.3011856168582785e+00 +3.9834436040633197e+00 +7.3909530427806075e+01 -8.5658639221513386e+03 -6.2762087253109482e+05 +4.7839014744729266e+07 
