# field on trajectory
# s[mm] rx[mm] ry[mm] rz[mm] bx[T] by[T] bz[T]
0.0000000000000000e+00 +8.5269999999999992e+00 +0.0000000000000000e+00 +0.0000000000000000e+00 -2.9672444093695592e-02 -5.7742737035677361e-01 +5.9171439865488415e-03
5.0000000000000003e-02 +8.5269999310396791e+00 +0.0000000000000000e+00 +4.9999999999936588e-02 -2.9672337081512925e-02 -5.7742689283177073e-01 +5.9164140397730599e-03
1.0000000000000001e-01 +8.5269997241587792e+00 +0.0000000000000000e+00 +9.9999999999492745e-02 -2.9672255138569095e-02 -5.7742681008013708e-01 +5.9156849450981378e-03
1.5000000000000002e-01 +8.5269993793573171e+00 +0.0000000000000000e+00 +1.4999999999828800e-01 -2.9672198042723547e-02 -5.7742712144415986e-01 +5.9149567346955039e-03
2.0000000000000001e-01 +8.5269988966352201e+00 +0.0000000000000000e+00 +1.9999999999594195e-01 -2.9672165571837703e-02 -5.7742782626614542e-01 +5.9142294407365827e-03
2.5000000000000000e-01 +8.5269982759923195e+00 +0.0000000000000000e+00 +2.4999999999207412e-01 -2.9672157503774832e-02 -5.7742892388841649e-01 +5.9135030953928061e-03
2.9999999999999999e-01 +8.5269975174283541e+00 +0.0000000000000000e+00 +2.9999999998630411e-01 -2.9672173616399979e-02 -5.7743041365331471e-01 +5.9127777308356248e-03
3.4999999999999998e-01 +8.5269966209429668e+00 +0.0000000000000000e+00 +3.4999999997825137e-01 -2.9672213687579808e-02 -5.7743229490319914e-01 +5.9120533792365055e-03
3.9999999999999997e-01 +8.5269955865357101e+00 +0.0000000000000000e+00 +3.9999999996753555e-01 -2.9672277495182531e-02 -5.7743456698044626e-01 +5.9113300727669385e-03
4.4999999999999996e-01 +8.5269944142060403e+00 +0.0000000000000000e+00 +4.4999999995377615e-01 -2.9672364817077773e-02 -5.7743722922745067e-01 +5.9106078435984602e-03
4.9999999999999994e-01 +8.5269931039533198e+00 +0.0000000000000000e+00 +4.9999999993659267e-01 -2.9672475431136526e-02 -5.7744028098662481e-01 +5.9098867239026466e-03
5.4999999999999993e-01 +8.5269916557768219e+00 +0.0000000000000000e+00 +5.4999999991560466e-01 -2.9672609115230918e-02 -5.7744372160039881e-01 +5.9091667458511304e-03
5.9999999999999998e-01 +8.5269900696757244e+00 +0.0000000000000000e+00 +5.9999999989043162e-01 -2.9672765647234235e-02 -5.7744755041121987e-01 +5.9084479416155970e-03
6.5000000000000002e-01 +8.5269883456491122e+00 +0.0000000000000000e+00 +6.4999999986069312e-01 -2.9672944805020737e-02 -5.7745176676155430e-01 +5.9077303433678063e-03
7.0000000000000007e-01 +8.5269864836959783e+00 +0.0000000000000000e+00 +6.9999999982600858e-01 -2.9673146366465605e-02 -5.7745636999388505e-01 +5.9070139832795949e-03
7.5000000000000011e-01 +8.5269844838152249e+00 +0.0000000000000000e+00 +7.4999999978599752e-01 -2.9673370109444718e-02 -5.7746135945071320e-01 +5.9062988935228806e-03
8.0000000000000016e-01 +8.5269823460056582e+00 +0.0000000000000000e+00 +7.9999999974027936e-01 -2.9673615811834718e-02 -5.7746673447455743e-01 +5.9055851062696741e-03
8.5000000000000020e-01 +8.5269800702659957e+00 +0.0000000000000000e+00 +8.4999999968847362e-01 -2.9673883251512753e-02 -5.7747249440795401e-01 +5.9048726536920825e-03
9.0000000000000024e-01 +8.5269776565948607e+00 +0.0000000000000000e+00 +8.9999999963019972e-01 -2.9674172206356434e-02 -5.7747863859345772e-01 +5.9041615679623306e-03
9.5000000000000029e-01 +8.5269751049907860e+00 +0.0000000000000000e+00 +9.4999999956507708e-01 -2.9674482454243742e-02 -5.7748516637364011e-01 +5.9034518812527449e-03
1.0000000000000002e+00 +8.5269724154522120e+00 +0.0000000000000000e+00 +9.9999999949272500e-01 -2.9674813773052873e-02 -5.7749207709109041e-01 +5.9027436257357846e-03
1.0500000000000003e+00 +8.5269695879774883e+00 +0.0000000000000000e+00 +1.0499999994127631e+00 -2.9675165940662138e-02 -5.7749937008841645e-01 +5.9020368335840363e-03
1.1000000000000003e+00 +8.5269666225648741e+00 +0.0000000000000000e+00 +1.0999999993248106e+00 -2.9675538734949904e-02 -5.7750704470824277e-01 +5.9013315369702314e-03
1.1500000000000004e+00 +8.5269635192125346e+00 +0.0000000000000000e+00 +1.1499999992284868e+00 -2.9675931933794451e-02 -5.7751510029321240e-01 +5.9006277680672395e-03
1.2000000000000004e+00 +8.5269602779185458e+00 +0.0000000000000000e+00 +1.1999999991234112e+00 -2.9676345315073831e-02 -5.7752353618598540e-01 +5.8999255590480902e-03
1.2500000000000004e+00 +8.5269568986808952e+00 +0.0000000000000000e+00 +1.2499999990092028e+00 -2.9676778656665813e-02 -5.7753235172923933e-01 +5.8992249420859715e-03
1.3000000000000005e+00 +8.5269533814974743e+00 +0.0000000000000000e+00 +1.2999999988854811e+00 -2.9677231736447766e-02 -5.7754154626567089e-01 +5.8985259493542523e-03
1.3500000000000005e+00 +8.5269497263660892e+00 +0.0000000000000000e+00 +1.3499999987518654e+00 -2.9677704332296519e-02 -5.7755111913799240e-01 +5.8978286130264681e-03
1.4000000000000006e+00 +8.5269459332844519e+00 +0.0000000000000000e+00 +1.3999999986079747e+00 -2.9678196222088275e-02 -5.7756106968893495e-01 +5.8971329652763469e-03
1.4500000000000006e+00 +8.5269420022501858e+00 +0.0000000000000000e+00 +1.4499999984534286e+00 -2.9678707183698548e-02 -5.7757139726124784e-01 +5.8964390382778105e-03
1.5000000000000007e+00 +8.5269379332608253e+00 +0.0000000000000000e+00 +1.4999999982878460e+00 -2.9679236995001929e-02 -5.7758210119769615e-01 +5.8957468642049779e-03
1.5500000000000007e+00 +8.5269337263138123e+00 +0.0000000000000000e+00 +1.5499999981108461e+00 -2.9679785433872122e-02 -5.7759318084106448e-01 +5.8950564752321879e-03
1.6000000000000008e+00 +8.5269293814065019e+00 +0.0000000000000000e+00 +1.5999999979220481e+00 -2.9680352278181738e-02 -5.7760463553415398e-01 +5.8943679035339822e-03
1.6500000000000008e+00 +8.5269248985361568e+00 +0.0000000000000000e+00 +1.6499999977210709e+00 -2.9680937305802235e-02 -5.7761646461978411e-01 +5.8936811812851445e-03
1.7000000000000008e+00 +8.5269202776999524e+00 +0.0000000000000000e+00 +1.6999999975075337e+00 -2.9681540294603813e-02 -5.7762866744079111e-01 +5.8929963406606847e-03
1.7500000000000009e+00 +8.5269155188949739e+00 +0.0000000000000000e+00 +1.7499999972810556e+00 -2.9682161022455213e-02 -5.7764124334002898e-01 +5.8923134138358464e-03
1.8000000000000009e+00 +8.5269106221182192e+00 +0.0000000000000000e+00 +1.7999999970412555e+00 -2.9682799267223788e-02 -5.7765419166037080e-01 +5.8916324329861373e-03
1.8500000000000010e+00 +8.5269055873665938e+00 +0.0000000000000000e+00 +1.8499999967877523e+00 -2.9683454806775214e-02 -5.7766751174470454e-01 +5.8909534302873084e-03
1.9000000000000010e+00 +8.5269004146369163e+00 +0.0000000000000000e+00 +1.8999999965201650e+00 -2.9684127418973492e-02 -5.7768120293593839e-01 +5.8902764379153870e-03
1.9500000000000011e+00 +8.5268951039259164e+00 +0.0000000000000000e+00 +1.9499999962381127e+00 -2.9684816881680818e-02 -5.7769526457699660e-01 +5.8896014880466677e-03
2.0000000000000009e+00 +8.5268896552302351e+00 +0.0000000000000000e+00 +1.9999999959412140e+00 -2.9685522972757401e-02 -5.7770969601082112e-01 +5.8889286128577236e-03
2.0500000000000007e+00 +8.5268840685464262e+00 +0.0000000000000000e+00 +2.0499999956290877e+00 -2.9686245533964324e-02 -5.7772449632170375e-01 +5.8882578445461483e-03
2.1000000000000005e+00 +8.5268783438709548e+00 +0.0000000000000000e+00 +2.0999999953013528e+00 -2.9686984662672711e-02 -5.7773966355927531e-01 +5.8875892153926416e-03
2.1500000000000004e+00 +8.5268724812001988e+00 +0.0000000000000000e+00 +2.1499999949576281e+00 -2.9687740520157099e-02 -5.7775519551451293e-01 +5.8869227576987286e-03
2.2000000000000002e+00 +8.5268664805304475e+00 +0.0000000000000000e+00 +2.1999999945975319e+00 -2.9688513267692791e-02 -5.7777108997840432e-01 +5.8862585037659778e-03
2.2500000000000000e+00 +8.5268603418579048e+00 +0.0000000000000000e+00 +2.2499999942206830e+00 -2.9689303066556004e-02 -5.7778734474194993e-01 +5.8855964858960299e-03
2.2999999999999998e+00 +8.5268540651786875e+00 +0.0000000000000000e+00 +2.2999999938267002e+00 -2.9690110078023874e-02 -5.7780395759616177e-01 +5.8849367363905574e-03
2.3499999999999996e+00 +8.5268476504888291e+00 +0.0000000000000000e+00 +2.3499999934152020e+00 -2.9690934463374553e-02 -5.7782092633206261e-01 +5.8842792875512875e-03
2.3999999999999995e+00 +8.5268410977842759e+00 +0.0000000000000000e+00 +2.3999999929858067e+00 -2.9691776383887248e-02 -5.7783824874068657e-01 +5.8836241716799798e-03
2.4499999999999993e+00 +8.5268344070608890e+00 +0.0000000000000000e+00 +2.4499999925381331e+00 -2.9692636000842362e-02 -5.7785592261307894e-01 +5.8829714210784194e-03
2.4999999999999991e+00 +8.5268275783144496e+00 +0.0000000000000000e+00 +2.4999999920717992e+00 -2.9693513475521464e-02 -5.7787394574029483e-01 +5.8823210680484178e-03
2.5499999999999989e+00 +8.5268206115406517e+00 +0.0000000000000000e+00 +2.5499999915864242e+00 -2.9694408969207445e-02 -5.7789231591339962e-01 +5.8816731448918099e-03
2.5999999999999988e+00 +8.5268135067351079e+00 +0.0000000000000000e+00 +2.5999999910816256e+00 -2.9695322643184502e-02 -5.7791103092346841e-01 +5.8810276839104314e-03
2.6499999999999986e+00 +8.5268062638933468e+00 +0.0000000000000000e+00 +2.6499999905570220e+00 -2.9696254658738278e-02 -5.7793008856158612e-01 +5.8803847174061334e-03
2.6999999999999984e+00 +8.5267988830108177e+00 +0.0000000000000000e+00 +2.6999999900122318e+00 -2.9697205177155881e-02 -5.7794948661884638e-01 +5.8797442776807630e-03
2.7499999999999982e+00 +8.5267913640828876e+00 +0.0000000000000000e+00 +2.7499999894468732e+00 -2.9698174359725993e-02 -5.7796922288635211e-01 +5.8791063970361577e-03
2.7999999999999980e+00 +8.5267837071048422e+00 +0.0000000000000000e+00 +2.7999999888605642e+00 -2.9699162367738896e-02 -5.7798929515521413e-01 +5.8784711077741417e-03
2.8499999999999979e+00 +8.5267759120718871e+00 +0.0000000000000000e+00 +2.8499999882529230e+00 -2.9700169362486567e-02 -5.7800970121655282e-01 +5.8778384421965283e-03
2.8999999999999977e+00 +8.5267679789791497e+00 +0.0000000000000000e+00 +2.8999999876235676e+00 -2.9701195505262724e-02 -5.7803043886149530e-01 +5.8772084326050951e-03
2.9499999999999975e+00 +8.5267599078216758e+00 +0.0000000000000000e+00 +2.9499999869721161e+00 -2.9702240957362919e-02 -5.7805150588117682e-01 +5.8765811113015917e-03
2.9999999999999973e+00 +8.5267516985944329e+00 +0.0000000000000000e+00 +2.9999999862981861e+00 -2.9703305880084605e-02 -5.7807290006674017e-01 +5.8759565105877334e-03
3.0499999999999972e+00 +8.5267433512923123e+00 +0.0000000000000000e+00 +3.0499999856013957e+00 -2.9704390434727165e-02 -5.7809461920933503e-01 +5.8753346627651928e-03
3.0999999999999970e+00 +8.5267348659101252e+00 +0.0000000000000000e+00 +3.0999999848813626e+00 -2.9705494782592018e-02 -5.7811666110011761e-01 +5.8747156001355827e-03
3.1499999999999968e+00 +8.5267262424426065e+00 +0.0000000000000000e+00 +3.1499999841377049e+00 -2.9706619084982667e-02 -5.7813902353025082e-01 +5.8740993550004759e-03
3.1999999999999966e+00 +8.5267174808844164e+00 +0.0000000000000000e+00 +3.1999999833700401e+00 -2.9707763503204795e-02 -5.7816170429090397e-01 +5.8734859596613672e-03
3.2499999999999964e+00 +8.5267085812301371e+00 +0.0000000000000000e+00 +3.2499999825779859e+00 -2.9708928198566301e-02 -5.7818470117325171e-01 +5.8728754464196916e-03
3.2999999999999963e+00 +8.5266995434742761e+00 +0.0000000000000000e+00 +3.2999999817611596e+00 -2.9710113332377368e-02 -5.7820801196847427e-01 +5.8722678475768104e-03
3.3499999999999961e+00 +8.5266903676112662e+00 +0.0000000000000000e+00 +3.3499999809191792e+00 -2.9711319065950537e-02 -5.7823163446775760e-01 +5.8716631954339998e-03
3.3999999999999959e+00 +8.5266810536354640e+00 +0.0000000000000000e+00 +3.3999999800516618e+00 -2.9712545560600823e-02 -5.7825556646229226e-01 +5.8710615222924544e-03
3.4499999999999957e+00 +8.5266716015411532e+00 +0.0000000000000000e+00 +3.4499999791582252e+00 -2.9713792977645682e-02 -5.7827980574327331e-01 +5.8704628604532719e-03
3.4999999999999956e+00 +8.5266620113225446e+00 +0.0000000000000000e+00 +3.4999999782384865e+00 -2.9715061478405174e-02 -5.7830435010190051e-01 +5.8698672422174561e-03
3.5499999999999954e+00 +8.5266522829737763e+00 +0.0000000000000000e+00 +3.5499999772920630e+00 -2.9716351224201954e-02 -5.7832919732937704e-01 +5.8692746998858973e-03
3.5999999999999952e+00 +8.5266424164889134e+00 +0.0000000000000000e+00 +3.5999999763185717e+00 -2.9717662376361413e-02 -5.7835434521691054e-01 +5.8686852657593835e-03
3.6499999999999950e+00 +8.5266324118619501e+00 +0.0000000000000000e+00 +3.6499999753176300e+00 -2.9718995096211683e-02 -5.7837979155571151e-01 +5.8680989721385810e-03
3.6999999999999948e+00 +8.5266222690868076e+00 +0.0000000000000000e+00 +3.6999999742888554e+00 -2.9720349545083753e-02 -5.7840553413699369e-01 +5.8675158513240341e-03
3.7499999999999947e+00 +8.5266119881573363e+00 +0.0000000000000000e+00 +3.7499999732318643e+00 -2.9721725884311500e-02 -5.7843157075197404e-01 +5.8669359356161594e-03
3.7999999999999945e+00 +8.5266015690673189e+00 +0.0000000000000000e+00 +3.7999999721462738e+00 -2.9723124275231765e-02 -5.7845789919187085e-01 +5.8663592573152262e-03
3.8499999999999943e+00 +8.5265910118104671e+00 +0.0000000000000000e+00 +3.8499999710317012e+00 -2.9724544879184456e-02 -5.7848451724790650e-01 +5.8657858487213806e-03
3.8999999999999941e+00 +8.5265803163804215e+00 +0.0000000000000000e+00 +3.8999999698877632e+00 -2.9725987857512536e-02 -5.7851142271130329e-01 +5.8652157421346046e-03
3.9499999999999940e+00 +8.5265694827707570e+00 +0.0000000000000000e+00 +3.9499999687140761e+00 -2.9727453371562178e-02 -5.7853861337328572e-01 +5.8646489698547357e-03
3.9999999999999938e+00 +8.5265585109749793e+00 +0.0000000000000000e+00 +3.9999999675102571e+00 -2.9728941582682803e-02 -5.7856608702508117e-01 +5.8640855641814487e-03
4.0499999999999936e+00 +8.5265474009865265e+00 +0.0000000000000000e+00 +4.0499999662759230e+00 -2.9730452552698954e-02 -5.7859384135650282e-01 +5.8635255600243599e-03
4.0999999999999934e+00 +8.5265361527987693e+00 +0.0000000000000000e+00 +4.0999999650106895e+00 -2.9731985945324287e-02 -5.7862187365171625e-01 +5.8629690027335330e-03
4.1499999999999932e+00 +8.5265247664050108e+00 +0.0000000000000000e+00 +4.1499999637141736e+00 -2.9733541324744733e-02 -5.7865018109347721e-01 +5.8624159402694371e-03
4.1999999999999931e+00 +8.5265132417984919e+00 +0.0000000000000000e+00 +4.1999999623859923e+00 -2.9735118255146690e-02 -5.7867876086454528e-01 +5.8618664205928603e-03
4.2499999999999929e+00 +8.5265015789723844e+00 +0.0000000000000000e+00 +4.2499999610257611e+00 -2.9736716300717107e-02 -5.7870761014768246e-01 +5.8613204916649324e-03
4.2999999999999927e+00 +8.5264897779197995e+00 +0.0000000000000000e+00 +4.2999999596330971e+00 -2.9738335025643395e-02 -5.7873672612565463e-01 +5.8607782014471217e-03
4.3499999999999925e+00 +8.5264778386337809e+00 +0.0000000000000000e+00 +4.3499999582076159e+00 -2.9739973994113433e-02 -5.7876610598123013e-01 +5.8602395979012543e-03
4.3999999999999924e+00 +8.5264657611073140e+00 +0.0000000000000000e+00 +4.3999999567489336e+00 -2.9741632770315562e-02 -5.7879574689718138e-01 +5.8597047289895218e-03
4.4499999999999922e+00 +8.5264535453333163e+00 +0.0000000000000000e+00 +4.4499999552566667e+00 -2.9743310918438522e-02 -5.7882564605628162e-01 +5.8591736426744844e-03
4.4999999999999920e+00 +8.5264411913046487e+00 +0.0000000000000000e+00 +4.4999999537304305e+00 -2.9745008002671471e-02 -5.7885580064130693e-01 +5.8586463869190787e-03
4.5499999999999918e+00 +8.5264286990141080e+00 +0.0000000000000000e+00 +4.5499999521698413e+00 -2.9746723587203924e-02 -5.7888620783503619e-01 +5.8581230096866350e-03
4.5999999999999917e+00 +8.5264160684544308e+00 +0.0000000000000000e+00 +4.5999999505745146e+00 -2.9748457236225823e-02 -5.7891686482024929e-01 +5.8576035589408808e-03
4.6499999999999915e+00 +8.5264032996182948e+00 +0.0000000000000000e+00 +4.6499999489440667e+00 -2.9750208513927366e-02 -5.7894776877972898e-01 +5.8570880826459577e-03
4.6999999999999913e+00 +8.5263903924983193e+00 +0.0000000000000000e+00 +4.6999999472781129e+00 -2.9751976984499162e-02 -5.7897891689625824e-01 +5.8565766287664084e-03
4.7499999999999911e+00 +8.5263773470870650e+00 +0.0000000000000000e+00 +4.7499999455762696e+00 -2.9753762212132068e-02 -5.7901030635262241e-01 +5.8560692452672173e-03
4.7999999999999909e+00 +8.5263641633770337e+00 +0.0000000000000000e+00 +4.7999999438381513e+00 -2.9755563761017231e-02 -5.7904193433160744e-01 +5.8555659801137906e-03
4.8499999999999908e+00 +8.5263508413606708e+00 +0.0000000000000000e+00 +4.8499999420633744e+00 -2.9757381195346069e-02 -5.7907379801600012e-01 +5.8550668812719859e-03
4.8999999999999906e+00 +8.5263373810303662e+00 +0.0000000000000000e+00 +4.8999999402515533e+00 -2.9759214079310228e-02 -5.7910589458858786e-01 +5.8545719967081043e-03
4.9499999999999904e+00 +8.5263237823784532e+00 +0.0000000000000000e+00 +4.9499999384023043e+00 -2.9761061977101613e-02 -5.7913822123215941e-01 +5.8540813743889180e-03
4.9999999999999902e+00 +8.5263100453972118e+00 +0.0000000000000000e+00 +4.9999999365152421e+00 -2.9762924452912294e-02 -5.7917077512950321e-01 +5.8535950622816621e-03
5.0499999999999901e+00 +8.5262961700788651e+00 +0.0000000000000000e+00 +5.0499999345899820e+00 -2.9764801070934536e-02 -5.7920355346340724e-01 +5.8531131083540498e-03
5.0999999999999899e+00 +8.5262821564155846e+00 +0.0000000000000000e+00 +5.0999999326261385e+00 -2.9766691395360763e-02 -5.7923655341666080e-01 +5.8526355605742850e-03
5.1499999999999897e+00 +8.5262680043994887e+00 +0.0000000000000000e+00 +5.1499999306233271e+00 -2.9768594990383559e-02 -5.7926977217205156e-01 +5.8521624669110707e-03
5.1999999999999895e+00 +8.5262537140226424e+00 +0.0000000000000000e+00 +5.1999999285811622e+00 -2.9770511420195600e-02 -5.7930320691236703e-01 +5.8516938753336058e-03
5.2499999999999893e+00 +8.5262392852770610e+00 +0.0000000000000000e+00 +5.2499999264992594e+00 -2.9772440248989694e-02 -5.7933685482039465e-01 +5.8512298338116182e-03
5.2999999999999892e+00 +8.5262247181547064e+00 +0.0000000000000000e+00 +5.2999999243772331e+00 -2.9774381040958701e-02 -5.7937071307892030e-01 +5.8507703903153433e-03
5.3499999999999890e+00 +8.5262100126474927e+00 +0.0000000000000000e+00 +5.3499999222146979e+00 -2.9776333360295566e-02 -5.7940477887072861e-01 +5.8503155928155658e-03
5.3999999999999888e+00 +8.5261951687472841e+00 +0.0000000000000000e+00 +5.3999999200112683e+00 -2.9778296771193279e-02 -5.7943904937860380e-01 +5.8498654892835998e-03
5.4499999999999886e+00 +8.5261801864458935e+00 +0.0000000000000000e+00 +5.4499999177665588e+00 -2.9780270837844819e-02 -5.7947352178532741e-01 +5.8494201276913099e-03
5.4999999999999885e+00 +8.5261650657350874e+00 +0.0000000000000000e+00 +5.4999999154801840e+00 -2.9782255124443206e-02 -5.7950819327368019e-01 +5.8489795560111250e-03
5.5499999999999883e+00 +8.5261498066065844e+00 +0.0000000000000000e+00 +5.5499999131517583e+00 -2.9784249195181411e-02 -5.7954306102644004e-01 +5.8485438222160447e-03
5.5999999999999881e+00 +8.5261344090520570e+00 +0.0000000000000000e+00 +5.5999999107808955e+00 -2.9786252614252391e-02 -5.7957812222638405e-01 +5.8481129742796361e-03
5.6499999999999879e+00 +8.5261188730631314e+00 +0.0000000000000000e+00 +5.6499999083672101e+00 -2.9788264945849047e-02 -5.7961337405628588e-01 +5.8476870601760628e-03
5.6999999999999877e+00 +8.5261031986313860e+00 +0.0000000000000000e+00 +5.6999999059103157e+00 -2.9790285754164168e-02 -5.7964881369891663e-01 +5.8472661278800766e-03
5.7499999999999876e+00 +8.5260873857483581e+00 +0.0000000000000000e+00 +5.7499999034098268e+00 -2.9792314603390466e-02 -5.7968443833704519e-01 +5.8468502253670339e-03
5.7999999999999874e+00 +8.5260714344055373e+00 +0.0000000000000000e+00 +5.7999999008653571e+00 -2.9794351057720540e-02 -5.7972024515343756e-01 +5.8464394006129093e-03
5.8499999999999872e+00 +8.5260553445943721e+00 +0.0000000000000000e+00 +5.8499998982765211e+00 -2.9796394681346858e-02 -5.7975623133085608e-01 +5.8460337015942979e-03
5.8999999999999870e+00 +8.5260391163062668e+00 +0.0000000000000000e+00 +5.8999998956429316e+00 -2.9798445038461709e-02 -5.7979239405206007e-01 +5.8456331762884181e-03
