# field on trajectory
# s[mm] rx[mm] ry[mm] rz[mm] bx[T] by[T] bz[T]
0.0000000000000000e+00 +8.5980000000000008e+00 +0.0000000000000000e+00 +0.0000000000000000e+00 -2.8993265216487738e-02 -5.5418133048232054e-01 +5.4717393391299557e-03
5.0000000000000003e-02 +8.5979999307954351e+00 +0.0000000000000000e+00 +4.9999999999936137e-02 -2.8993389551064248e-02 -5.5418137000890422e-01 +5.4728566881610177e-03
1.0000000000000001e-01 +8.5979997231817169e+00 +0.0000000000000000e+00 +9.9999999999489136e-02 -2.8993526939279833e-02 -5.5418176644370309e-01 +5.4739813763695104e-03
1.5000000000000002e-01 +8.5979993771587466e+00 +0.0000000000000000e+00 +1.4999999999827585e-01 -2.8993677417544408e-02 -5.5418251909982363e-01 +5.4751133351382732e-03
2.0000000000000001e-01 +8.5979988927263378e+00 +0.0000000000000000e+00 +1.9999999999591314e-01 -2.8993841022268665e-02 -5.5418362729038884e-01 +5.4762524958504389e-03
2.5000000000000000e-01 +8.5979982698842115e+00 +0.0000000000000000e+00 +2.4999999999201786e-01 -2.8994017789864070e-02 -5.5418509032853591e-01 +5.4773987898894590e-03
2.9999999999999999e-01 +8.5979975086320035e+00 +0.0000000000000000e+00 +2.9999999998620686e-01 -2.8994207756742826e-02 -5.5418690752741950e-01 +5.4785521486390544e-03
3.4999999999999998e-01 +8.5979966089692610e+00 +0.0000000000000000e+00 +3.4999999997809694e-01 -2.8994410959317801e-02 -5.5418907820020991e-01 +5.4797125034832571e-03
3.9999999999999997e-01 +8.5979955708954403e+00 +0.0000000000000000e+00 +3.9999999996730501e-01 -2.8994627434002548e-02 -5.5419160166009374e-01 +5.4808797858063698e-03
4.4999999999999996e-01 +8.5979943944099109e+00 +0.0000000000000000e+00 +4.4999999995344786e-01 -2.8994857217211175e-02 -5.5419447722027293e-01 +5.4820539269929761e-03
4.9999999999999994e-01 +8.5979930795119568e+00 +0.0000000000000000e+00 +4.9999999993614230e-01 -2.8995100345358384e-02 -5.5419770419396641e-01 +5.4832348584279355e-03
5.4999999999999993e-01 +8.5979916262007698e+00 +0.0000000000000000e+00 +5.4999999991500514e-01 -2.8995356854859395e-02 -5.5420128189440876e-01 +5.4844225114963722e-03
5.9999999999999998e-01 +8.5979900344754583e+00 +0.0000000000000000e+00 +5.9999999988965325e-01 -2.8995626782129913e-02 -5.5420520963485043e-01 +5.4856168175836740e-03
6.5000000000000002e-01 +8.5979883043350398e+00 +0.0000000000000000e+00 +6.4999999985970347e-01 -2.8995910163586089e-02 -5.5420948672855919e-01 +5.4868177080754869e-03
7.0000000000000007e-01 +8.5979864357784468e+00 +0.0000000000000000e+00 +6.9999999982477246e-01 -2.8996207035644442e-02 -5.5421411248881736e-01 +5.4880251143577035e-03
7.5000000000000011e-01 +8.5979844288045228e+00 +0.0000000000000000e+00 +7.4999999978447707e-01 -2.8996517434721890e-02 -5.5421908622892446e-01 +5.4892389678164706e-03
8.0000000000000016e-01 +8.5979822834120281e+00 +0.0000000000000000e+00 +7.9999999973843405e-01 -2.8996841397235650e-02 -5.5422440726219646e-01 +5.4904591998381647e-03
8.5000000000000020e-01 +8.5979799995996320e+00 +0.0000000000000000e+00 +8.4999999968626005e-01 -2.8997178959603211e-02 -5.5423007490196519e-01 +5.4916857418094061e-03
9.0000000000000024e-01 +8.5979775773659188e+00 +0.0000000000000000e+00 +8.9999999962757193e-01 -2.8997530158242302e-02 -5.5423608846157824e-01 +5.4929185251170421e-03
9.5000000000000029e-01 +8.5979750167093876e+00 +0.0000000000000000e+00 +9.4999999956198633e-01 -2.8997895029570855e-02 -5.5424244725440064e-01 +5.4941574811481486e-03
1.0000000000000002e+00 +8.5979723176284502e+00 +0.0000000000000000e+00 +9.9999999948912000e-01 -2.8998273610006956e-02 -5.5424915059381274e-01 +5.4954025412900145e-03
1.0500000000000003e+00 +8.5979694801214315e+00 +0.0000000000000000e+00 +1.0499999994085896e+00 -2.8998665935968771e-02 -5.5425619779321167e-01 +5.4966536369301438e-03
1.1000000000000003e+00 +8.5979665041865729e+00 +0.0000000000000000e+00 +1.0999999993200118e+00 -2.8999072043874589e-02 -5.5426358816601073e-01 +5.4979106994562585e-03
1.1500000000000004e+00 +8.5979633898220271e+00 +0.0000000000000000e+00 +1.1499999992230032e+00 -2.8999491970142701e-02 -5.5427132102564025e-01 +5.4991736602562659e-03
1.2000000000000004e+00 +8.5979601370258631e+00 +0.0000000000000000e+00 +1.1999999991171804e+00 -2.8999925751191383e-02 -5.5427939568554585e-01 +5.5004424507182894e-03
1.2500000000000004e+00 +8.5979567457960648e+00 +0.0000000000000000e+00 +1.2499999990021600e+00 -2.9000373423438867e-02 -5.5428781145919048e-01 +5.5017170022306338e-03
1.3000000000000005e+00 +8.5979532161305308e+00 +0.0000000000000000e+00 +1.2999999988775586e+00 -2.9000835023303313e-02 -5.5429656766005275e-01 +5.5029972461817945e-03
1.3500000000000005e+00 +8.5979495480270742e+00 +0.0000000000000000e+00 +1.3499999987429927e+00 -2.9001310587202705e-02 -5.5430566360162870e-01 +5.5042831139604518e-03
1.4000000000000006e+00 +8.5979457414834233e+00 +0.0000000000000000e+00 +1.3999999985980789e+00 -2.9001800151554888e-02 -5.5431509859743033e-01 +5.5055745369554541e-03
1.4500000000000006e+00 +8.5979417964972207e+00 +0.0000000000000000e+00 +1.4499999984424337e+00 -2.9002303752777490e-02 -5.5432487196098623e-01 +5.5068714465558288e-03
1.5000000000000007e+00 +8.5979377130660257e+00 +0.0000000000000000e+00 +1.4999999982756735e+00 -2.9002821427287863e-02 -5.5433498300584105e-01 +5.5081737741507668e-03
1.5500000000000007e+00 +8.5979334911873142e+00 +0.0000000000000000e+00 +1.5499999980974151e+00 -2.9003353211503068e-02 -5.5434543104555700e-01 +5.5094814511296199e-03
1.6000000000000008e+00 +8.5979291308584749e+00 +0.0000000000000000e+00 +1.5999999979072743e+00 -2.9003899141839855e-02 -5.5435621539371194e-01 +5.5107944088818913e-03
1.6500000000000008e+00 +8.5979246320768166e+00 +0.0000000000000000e+00 +1.6499999977048680e+00 -2.9004459254714555e-02 -5.5436733536390093e-01 +5.5121125787972371e-03
1.7000000000000008e+00 +8.5979199948395610e+00 +0.0000000000000000e+00 +1.6999999974898123e+00 -2.9005033586543084e-02 -5.5437879026973491e-01 +5.5134358922654574e-03
1.7500000000000009e+00 +8.5979152191438466e+00 +0.0000000000000000e+00 +1.7499999972617237e+00 -2.9005622173740950e-02 -5.5439057942484271e-01 +5.5147642806764926e-03
1.8000000000000009e+00 +8.5979103049867298e+00 +0.0000000000000000e+00 +1.7999999970202183e+00 -2.9006225052723097e-02 -5.5440270214286858e-01 +5.5160976754204142e-03
1.8500000000000010e+00 +8.5979052523651838e+00 +0.0000000000000000e+00 +1.8499999967649126e+00 -2.9006842259903933e-02 -5.5441515773747396e-01 +5.5174360078874222e-03
1.9000000000000010e+00 +8.5979000612760963e+00 +0.0000000000000000e+00 +1.8999999964954226e+00 -2.9007473831697328e-02 -5.5442794552233721e-01 +5.5187792094678429e-03
1.9500000000000011e+00 +8.5978947317162735e+00 +0.0000000000000000e+00 +1.9499999962113646e+00 -2.9008119804516456e-02 -5.5444106481115296e-01 +5.5201272115521140e-03
2.0000000000000009e+00 +8.5978892636824398e+00 +0.0000000000000000e+00 +1.9999999959123547e+00 -2.9008780214773908e-02 -5.5445451491763342e-01 +5.5214799455307936e-03
2.0500000000000007e+00 +8.5978836571712360e+00 +0.0000000000000000e+00 +2.0499999955980091e+00 -2.9009455078554170e-02 -5.5446829493232097e-01 +5.5228373388511364e-03
2.1000000000000005e+00 +8.5978779121792197e+00 +0.0000000000000000e+00 +2.0999999952679436e+00 -2.9010144330632093e-02 -5.5448240305303365e-01 +5.5241993031868528e-03
2.1500000000000004e+00 +8.5978720287028683e+00 +0.0000000000000000e+00 +2.1499999949217745e+00 -2.9010847885455528e-02 -5.5449683725441457e-01 +5.5255657462682014e-03
2.2000000000000002e+00 +8.5978660067385775e+00 +0.0000000000000000e+00 +2.1999999945591178e+00 -2.9011565657472746e-02 -5.5451159551111828e-01 +5.5269365758253844e-03
2.2500000000000000e+00 +8.5978598462826596e+00 +0.0000000000000000e+00 +2.2499999941795896e+00 -2.9012297561132546e-02 -5.5452667579780968e-01 +5.5283116995885210e-03
2.2999999999999998e+00 +8.5978535473313507e+00 +0.0000000000000000e+00 +2.2999999937828060e+00 -2.9013043510884230e-02 -5.5454207608916362e-01 +5.5296910252876277e-03
2.3499999999999996e+00 +8.5978471098808029e+00 +0.0000000000000000e+00 +2.3499999933683822e+00 -2.9013803421177660e-02 -5.5455779435986530e-01 +5.5310744606526293e-03
2.3999999999999995e+00 +8.5978405339270907e+00 +0.0000000000000000e+00 +2.3999999929359346e+00 -2.9014577206463242e-02 -5.5457382858460869e-01 +5.5324619134133205e-03
2.4499999999999993e+00 +8.5978338194662101e+00 +0.0000000000000000e+00 +2.4499999924850786e+00 -2.9015364781192054e-02 -5.5459017673809774e-01 +5.5338532912993536e-03
2.4999999999999991e+00 +8.5978269664940772e+00 +0.0000000000000000e+00 +2.4999999920154305e+00 -2.9016166059815753e-02 -5.5460683679504486e-01 +5.5352485020402440e-03
2.5499999999999989e+00 +8.5978199750065318e+00 +0.0000000000000000e+00 +2.5499999915266054e+00 -2.9016980956786717e-02 -5.5462380673017131e-01 +5.5366474533653336e-03
2.5999999999999988e+00 +8.5978128449993356e+00 +0.0000000000000000e+00 +2.5999999910182194e+00 -2.9017809386557982e-02 -5.5464108451820615e-01 +5.5380500530037872e-03
2.6499999999999986e+00 +8.5978055764681738e+00 +0.0000000000000000e+00 +2.6499999904898881e+00 -2.9018651263583346e-02 -5.5465866813388687e-01 +5.5394562086845851e-03
2.6999999999999984e+00 +8.5977981694086552e+00 +0.0000000000000000e+00 +2.6999999899412268e+00 -2.9019506502317348e-02 -5.5467655555195861e-01 +5.5408658281364898e-03
2.7499999999999982e+00 +8.5977906238163122e+00 +0.0000000000000000e+00 +2.7499999893718510e+00 -2.9020375017215352e-02 -5.5469474474717340e-01 +5.5422788190880512e-03
2.7999999999999980e+00 +8.5977829396866010e+00 +0.0000000000000000e+00 +2.7999999887813765e+00 -2.9021256722733514e-02 -5.5471323369429082e-01 +5.5436950892675833e-03
2.8499999999999979e+00 +8.5977751170149048e+00 +0.0000000000000000e+00 +2.8499999881694187e+00 -2.9022151533328849e-02 -5.5473202036807645e-01 +5.5451145464031487e-03
2.8999999999999977e+00 +8.5977671557965323e+00 +0.0000000000000000e+00 +2.8999999875355926e+00 -2.9023059363459287e-02 -5.5475110274330319e-01 +5.5465370982225540e-03
2.9499999999999975e+00 +8.5977590560267174e+00 +0.0000000000000000e+00 +2.9499999868795137e+00 -2.9023980127583619e-02 -5.5477047879474894e-01 +5.5479626524533206e-03
2.9999999999999973e+00 +8.5977508177006197e+00 +0.0000000000000000e+00 +2.9999999862007973e+00 -2.9024913740161626e-02 -5.5479014649719838e-01 +5.5493911168226851e-03
3.0499999999999972e+00 +8.5977424408133274e+00 +0.0000000000000000e+00 +3.0499999854990589e+00 -2.9025860115654036e-02 -5.5481010382544060e-01 +5.5508223990575790e-03
3.0999999999999970e+00 +8.5977339253598579e+00 +0.0000000000000000e+00 +3.0999999847739135e+00 -2.9026819168522601e-02 -5.5483034875427062e-01 +5.5522564068846087e-03
3.1499999999999968e+00 +8.5977252713351540e+00 +0.0000000000000000e+00 +3.1499999840249759e+00 -2.9027790813230120e-02 -5.5485087925848797e-01 +5.5536930480300575e-03
3.1999999999999966e+00 +8.5977164787340890e+00 +0.0000000000000000e+00 +3.1999999832518617e+00 -2.9028774964240417e-02 -5.5487169331289632e-01 +5.5551322302198509e-03
3.2499999999999964e+00 +8.5977075475514635e+00 +0.0000000000000000e+00 +3.2499999824541854e+00 -2.9029771536018458e-02 -5.5489278889230409e-01 +5.5565738611795656e-03
3.2999999999999963e+00 +8.5976984777820089e+00 +0.0000000000000000e+00 +3.2999999816315624e+00 -2.9030780443030316e-02 -5.5491416397152327e-01 +5.5580178486343938e-03
3.3499999999999961e+00 +8.5976892694203872e+00 +0.0000000000000000e+00 +3.3499999807836072e+00 -2.9031801599743227e-02 -5.5493581652536939e-01 +5.5594641003091361e-03
3.3999999999999959e+00 +8.5976799224611913e+00 +0.0000000000000000e+00 +3.3999999799099347e+00 -2.9032834920625594e-02 -5.5495774452866087e-01 +5.5609125239282006e-03
3.4499999999999957e+00 +8.5976704368989445e+00 +0.0000000000000000e+00 +3.4499999790101596e+00 -2.9033880320147084e-02 -5.5497994595621969e-01 +5.5623630272155682e-03
3.4999999999999956e+00 +8.5976608127281011e+00 +0.0000000000000000e+00 +3.4999999780838968e+00 -2.9034937712778573e-02 -5.5500241878286993e-01 +5.5638155178947945e-03
3.5499999999999954e+00 +8.5976510499430496e+00 +0.0000000000000000e+00 +3.5499999771307609e+00 -2.9036007012992238e-02 -5.5502516098343802e-01 +5.5652699036889842e-03
3.5999999999999952e+00 +8.5976411485381092e+00 +0.0000000000000000e+00 +3.5999999761503667e+00 -2.9037088135261555e-02 -5.5504817053275268e-01 +5.5667260923207831e-03
3.6499999999999950e+00 +8.5976311085075334e+00 +0.0000000000000000e+00 +3.6499999751423284e+00 -2.9038180994061347e-02 -5.5507144540564346e-01 +5.5681839915123713e-03
3.6999999999999948e+00 +8.5976209298455100e+00 +0.0000000000000000e+00 +3.6999999741062606e+00 -2.9039285503867810e-02 -5.5509498357694220e-01 +5.5696435089854276e-03
3.7499999999999947e+00 +8.5976106125461591e+00 +0.0000000000000000e+00 +3.7499999730417777e+00 -2.9040401579158541e-02 -5.5511878302148099e-01 +5.5711045524611371e-03
3.7999999999999945e+00 +8.5976001566035389e+00 +0.0000000000000000e+00 +3.7999999719484943e+00 -2.9041529134412571e-02 -5.5514284171409323e-01 +5.5725670296601706e-03
3.8499999999999943e+00 +8.5975895620116383e+00 +0.0000000000000000e+00 +3.8499999708260244e+00 -2.9042668084110403e-02 -5.5516715762961211e-01 +5.5740308483026631e-03
3.8999999999999941e+00 +8.5975788287643855e+00 +0.0000000000000000e+00 +3.8999999696739822e+00 -2.9043818342733990e-02 -5.5519172874287137e-01 +5.5754959161082073e-03
3.9499999999999940e+00 +8.5975679568556451e+00 +0.0000000000000000e+00 +3.9499999684919822e+00 -2.9044979824766861e-02 -5.5521655302870365e-01 +5.5769621407958389e-03
3.9999999999999938e+00 +8.5975569462792159e+00 +0.0000000000000000e+00 +3.9999999672796380e+00 -2.9046152444694065e-02 -5.5524162846194214e-01 +5.5784294300840155e-03
4.0499999999999936e+00 +8.5975457970288360e+00 +0.0000000000000000e+00 +4.0499999660365642e+00 -2.9047336121748868e-02 -5.5526695295111861e-01 +5.5798976973178982e-03
4.0999999999999934e+00 +8.5975345090981801e+00 +0.0000000000000000e+00 +4.0999999647623744e+00 -2.9048530794152351e-02 -5.5529252413956376e-01 +5.5813668783514679e-03
4.1499999999999932e+00 +8.5975230824808619e+00 +0.0000000000000000e+00 +4.1499999634566827e+00 -2.9049736404873405e-02 -5.5531833960431187e-01 +5.5828369146661743e-03
4.1999999999999931e+00 +8.5975115171704335e+00 +0.0000000000000000e+00 +4.1999999621191026e+00 -2.9050952896882091e-02 -5.5534439692240090e-01 +5.5843077477436900e-03
4.2499999999999929e+00 +8.5974998131603879e+00 +0.0000000000000000e+00 +4.2499999607492480e+00 -2.9052180213149606e-02 -5.5537069367087288e-01 +5.5857793190659333e-03
4.2999999999999927e+00 +8.5974879704441580e+00 +0.0000000000000000e+00 +4.2999999593467324e+00 -2.9053418296648346e-02 -5.5539722742677322e-01 +5.5872515701150746e-03
4.3499999999999925e+00 +8.5974759890151162e+00 +0.0000000000000000e+00 +4.3499999579111703e+00 -2.9054667090351857e-02 -5.5542399576715029e-01 +5.5887244423735586e-03
4.3999999999999924e+00 +8.5974638688665781e+00 +0.0000000000000000e+00 +4.3999999564421746e+00 -2.9055926537234961e-02 -5.5545099626905658e-01 +5.5901978773240969e-03
4.4499999999999922e+00 +8.5974516099917988e+00 +0.0000000000000000e+00 +4.4499999549393587e+00 -2.9057196580273632e-02 -5.5547822650954670e-01 +5.5916718164496920e-03
4.4999999999999920e+00 +8.5974392123839785e+00 +0.0000000000000000e+00 +4.4999999534023356e+00 -2.9058477162445150e-02 -5.5550568406567880e-01 +5.5931462012336515e-03
4.5499999999999918e+00 +8.5974266760362603e+00 +0.0000000000000000e+00 +4.5499999518307197e+00 -2.9059768226727983e-02 -5.5553336651451402e-01 +5.5946209731595892e-03
4.5999999999999917e+00 +8.5974140009417290e+00 +0.0000000000000000e+00 +4.5999999502241238e+00 -2.9061069716101926e-02 -5.5556127143311573e-01 +5.5960960737114381e-03
4.6499999999999915e+00 +8.5974011870934159e+00 +0.0000000000000000e+00 +4.6499999485821606e+00 -2.9062381573548009e-02 -5.5558939639855021e-01 +5.5975714443734694e-03
4.6999999999999913e+00 +8.5973882344842973e+00 +0.0000000000000000e+00 +4.6999999469044438e+00 -2.9063703742048592e-02 -5.5561773898788569e-01 +5.5990470266302972e-03
4.7499999999999911e+00 +8.5973751431072944e+00 +0.0000000000000000e+00 +4.7499999451905861e+00 -2.9065036164587322e-02 -5.5564629677819277e-01 +5.6005227619668873e-03
4.7999999999999909e+00 +8.5973619129552752e+00 +0.0000000000000000e+00 +4.7999999434402012e+00 -2.9066378784149187e-02 -5.5567506734654393e-01 +5.6019985918685797e-03
4.8499999999999908e+00 +8.5973485440210542e+00 +0.0000000000000000e+00 +4.8499999416529009e+00 -2.9067731543720530e-02 -5.5570404827001429e-01 +5.6034744578210864e-03
4.8999999999999906e+00 +8.5973350362973928e+00 +0.0000000000000000e+00 +4.8999999398282990e+00 -2.9069094386289029e-02 -5.5573323712567990e-01 +5.6049503013105130e-03
4.9499999999999904e+00 +8.5973213897770027e+00 +0.0000000000000000e+00 +4.9499999379660080e+00 -2.9070467254843736e-02 -5.5576263149061889e-01 +5.6064260638233618e-03
4.9999999999999902e+00 +8.5973076044525403e+00 +0.0000000000000000e+00 +4.9999999360656400e+00 -2.9071850092375114e-02 -5.5579222894191060e-01 +5.6079016868465495e-03
5.0499999999999901e+00 +8.5972936803166160e+00 +0.0000000000000000e+00 +5.0499999341268085e+00 -2.9073242841875006e-02 -5.5582202705663586e-01 +5.6093771118674142e-03
5.0999999999999899e+00 +8.5972796173617869e+00 +0.0000000000000000e+00 +5.0999999321491254e+00 -2.9074645446336669e-02 -5.5585202341187656e-01 +5.6108522803737255e-03
5.1499999999999897e+00 +8.5972654155805603e+00 +0.0000000000000000e+00 +5.1499999301322035e+00 -2.9076057848754808e-02 -5.5588221558471551e-01 +5.6123271338537088e-03
5.1999999999999895e+00 +8.5972510749653974e+00 +0.0000000000000000e+00 +5.1999999280756546e+00 -2.9077479992125562e-02 -5.5591260115223695e-01 +5.6138016137960295e-03
5.2499999999999893e+00 +8.5972365955087078e+00 +0.0000000000000000e+00 +5.2499999259790915e+00 -2.9078911819446541e-02 -5.5594317769152513e-01 +5.6152756616898412e-03
5.2999999999999892e+00 +8.5972219772028566e+00 +0.0000000000000000e+00 +5.2999999238421269e+00 -2.9080353273716813e-02 -5.5597394277966505e-01 +5.6167492190247557e-03
5.3499999999999890e+00 +8.5972072200401595e+00 +0.0000000000000000e+00 +5.3499999216643719e+00 -2.9081804297936973e-02 -5.5600489399374231e-01 +5.6182222272908901e-03
5.3999999999999888e+00 +8.5971923240128874e+00 +0.0000000000000000e+00 +5.3999999194454391e+00 -2.9083264835109091e-02 -5.5603602891084281e-01 +5.6196946279788579e-03
5.4499999999999886e+00 +8.5971772891132634e+00 +0.0000000000000000e+00 +5.4499999171849405e+00 -2.9084734828236765e-02 -5.5606734510805234e-01 +5.6211663625797834e-03
5.4999999999999885e+00 +8.5971621153334663e+00 +0.0000000000000000e+00 +5.4999999148824887e+00 -2.9086214220325146e-02 -5.5609884016245703e-01 +5.6226373725853209e-03
5.5499999999999883e+00 +8.5971468026656304e+00 +0.0000000000000000e+00 +5.5499999125376949e+00 -2.9087702954380890e-02 -5.5613051165114213e-01 +5.6241075994876493e-03
5.5999999999999881e+00 +8.5971313511018455e+00 +0.0000000000000000e+00 +5.5999999101501707e+00 -2.9089200973412298e-02 -5.5616235715119333e-01 +5.6255769847795064e-03
5.6499999999999879e+00 +8.5971157606341588e+00 +0.0000000000000000e+00 +5.6499999077195282e+00 -2.9090708220429164e-02 -5.5619437423969564e-01 +5.6270454699541787e-03
5.6999999999999877e+00 +8.5971000312545733e+00 +0.0000000000000000e+00 +5.6999999052453783e+00 -2.9092224638442944e-02 -5.5622656049373287e-01 +5.6285129965055244e-03
5.7499999999999876e+00 +8.5970841629550510e+00 +0.0000000000000000e+00 +5.7499999027273327e+00 -2.9093750170466677e-02 -5.5625891349038881e-01 +5.6299795059279812e-03
5.7999999999999874e+00 +8.5970681557275128e+00 +0.0000000000000000e+00 +5.7999999001650036e+00 -2.9095284759515037e-02 -5.5629143080674592e-01 +5.6314449397165808e-03
5.8499999999999872e+00 +8.5970520095638356e+00 +0.0000000000000000e+00 +5.8499998975580016e+00 -2.9096828348604328e-02 -5.5632411001988546e-01 +5.6329092393669587e-03
5.8999999999999870e+00 +8.5970357244558588e+00 +0.0000000000000000e+00 +5.8999998949059380e+00 -2.9098380880752502e-02 -5.5635694870688812e-01 +5.6343723463753506e-03
