# trajectory
# s[mm] rx[mm] ry[mm] rz[mm] px[rad] py[rad] pz[rad]
0.0000000000000000e+00 +8.3650000000000002e+00 +0.0000000000000000e+00 +0.0000000000000000e+00 +0.0000000000000000e+00 +0.0000000000000000e+00 +1.0000000000000000e+00
-5.0000000000000003e-02 +8.3649999308007850e+00 +0.0000000000000000e+00 -4.9999999999936151e-02 +2.7679689132420445e-06 +0.0000000000000000e+00 +9.9999999999616918e-01
-1.0000000000000001e-01 +8.3649997232030664e+00 +0.0000000000000000e+00 -9.9999999999489220e-02 +5.5359404131826717e-06 +0.0000000000000000e+00 +9.9999999998467670e-01
-1.5000000000000002e-01 +8.3649993772066704e+00 +0.0000000000000000e+00 -1.4999999999827612e-01 +8.3039162884442417e-06 +0.0000000000000000e+00 +9.9999999996552247e-01
-2.0000000000000001e-01 +8.3649988928113341e+00 +0.0000000000000000e+00 -1.9999999999591378e-01 +1.1071898323106762e-05 +0.0000000000000000e+00 +9.9999999993870647e-01
-2.5000000000000000e-01 +8.3649982700167058e+00 +0.0000000000000000e+00 -2.4999999999201908e-01 +1.3839888296707974e-05 +0.0000000000000000e+00 +9.9999999990422872e-01
-2.9999999999999999e-01 +8.3649975088223432e+00 +0.0000000000000000e+00 -2.9999999998620897e-01 +1.6607887984243430e-05 +0.0000000000000000e+00 +9.9999999986208898e-01
-3.4999999999999998e-01 +8.3649966092277168e+00 +0.0000000000000000e+00 -3.4999999997810027e-01 +1.9375899156166573e-05 +0.0000000000000000e+00 +9.9999999981228727e-01
-3.9999999999999997e-01 +8.3649955712322068e+00 +0.0000000000000000e+00 -3.9999999996730995e-01 +2.2143923578388817e-05 +0.0000000000000000e+00 +9.9999999975482334e-01
-4.4999999999999996e-01 +8.3649943948351080e+00 +0.0000000000000000e+00 -4.4999999995345485e-01 +2.4911963012279637e-05 +0.0000000000000000e+00 +9.9999999968969711e-01
-4.9999999999999994e-01 +8.3649930800356262e+00 +0.0000000000000000e+00 -4.9999999993615191e-01 +2.7680019214666631e-05 +0.0000000000000000e+00 +9.9999999961690833e-01
-5.4999999999999993e-01 +8.3649916268328788e+00 +0.0000000000000000e+00 -5.4999999991501802e-01 +3.0448093937835606e-05 +0.0000000000000000e+00 +9.9999999953645680e-01
-5.9999999999999998e-01 +8.3649900352258957e+00 +0.0000000000000000e+00 -5.9999999988966990e-01 +3.3216188929530666e-05 +0.0000000000000000e+00 +9.9999999944834239e-01
-6.5000000000000002e-01 +8.3649883052136200e+00 +0.0000000000000000e+00 -6.4999999985972456e-01 +3.5984305932954269e-05 +0.0000000000000000e+00 +9.9999999935256489e-01
-7.0000000000000007e-01 +8.3649864367949078e+00 +0.0000000000000000e+00 -6.9999999982479877e-01 +3.8752446686767325e-05 +0.0000000000000000e+00 +9.9999999924912397e-01
-7.5000000000000011e-01 +8.3649844299685281e+00 +0.0000000000000000e+00 -7.4999999978450926e-01 +4.1520612925089259e-05 +0.0000000000000000e+00 +9.9999999913801940e-01
-8.0000000000000016e-01 +8.3649822847331627e+00 +0.0000000000000000e+00 -7.9999999973847291e-01 +4.4288806377498093e-05 +0.0000000000000000e+00 +9.9999999901925085e-01
-8.5000000000000020e-01 +8.3649800010874085e+00 +0.0000000000000000e+00 -8.4999999968630657e-01 +4.7057028769030527e-05 +0.0000000000000000e+00 +9.9999999889281810e-01
-9.0000000000000024e-01 +8.3649775790297749e+00 +0.0000000000000000e+00 -8.9999999962762700e-01 +4.9825281820181996e-05 +0.0000000000000000e+00 +9.9999999875872070e-01
-9.5000000000000029e-01 +8.3649750185586864e+00 +0.0000000000000000e+00 -9.4999999956205095e-01 +5.2593567246906771e-05 +0.0000000000000000e+00 +9.9999999861695843e-01
-1.0000000000000002e+00 +8.3649723196724821e+00 +0.0000000000000000e+00 -9.9999999948919516e-01 +5.5361886760618013e-05 +0.0000000000000000e+00 +9.9999999846753085e-01
-1.0500000000000003e+00 +8.3649694823694141e+00 +0.0000000000000000e+00 -1.0499999994086764e+00 +5.8130242068187856e-05 +0.0000000000000000e+00 +9.9999999831043762e-01
-1.1000000000000003e+00 +8.3649665066476508e+00 +0.0000000000000000e+00 -1.0999999993201113e+00 +6.0898634871947472e-05 +0.0000000000000000e+00 +9.9999999814567830e-01
-1.1500000000000004e+00 +8.3649633925052740e+00 +0.0000000000000000e+00 -1.1499999992231165e+00 +6.3667066869687154e-05 +0.0000000000000000e+00 +9.9999999797325245e-01
-1.2000000000000004e+00 +8.3649601399402815e+00 +0.0000000000000000e+00 -1.1999999991173087e+00 +6.6435539754656399e-05 +0.0000000000000000e+00 +9.9999999779315973e-01
-1.2500000000000004e+00 +8.3649567489505881e+00 +0.0000000000000000e+00 -1.2499999990023047e+00 +6.9204055215563943e-05 +0.0000000000000000e+00 +9.9999999760539959e-01
-1.3000000000000005e+00 +8.3649532195340228e+00 +0.0000000000000000e+00 -1.2999999988777209e+00 +7.1972614936577863e-05 +0.0000000000000000e+00 +9.9999999740997159e-01
-1.3500000000000005e+00 +8.3649495516883299e+00 +0.0000000000000000e+00 -1.3499999987431741e+00 +7.4741220597325652e-05 +0.0000000000000000e+00 +9.9999999720687516e-01
-1.4000000000000006e+00 +8.3649457454111698e+00 +0.0000000000000000e+00 -1.3999999985982807e+00 +7.7509873872894273e-05 +0.0000000000000000e+00 +9.9999999699610986e-01
-1.4500000000000006e+00 +8.3649418007001213e+00 +0.0000000000000000e+00 -1.4499999984426573e+00 +8.0278576433830226e-05 +0.0000000000000000e+00 +9.9999999677767526e-01
-1.5000000000000007e+00 +8.3649377175526780e+00 +0.0000000000000000e+00 -1.4999999982759205e+00 +8.3047329946139644e-05 +0.0000000000000000e+00 +9.9999999655157068e-01
-1.5500000000000007e+00 +8.3649334959662500e+00 +0.0000000000000000e+00 -1.5499999980976866e+00 +8.5816136071288331e-05 +0.0000000000000000e+00 +9.9999999631779557e-01
-1.6000000000000008e+00 +8.3649291359381657e+00 +0.0000000000000000e+00 -1.5999999979075723e+00 +8.8584996466201847e-05 +0.0000000000000000e+00 +9.9999999607634937e-01
-1.6500000000000008e+00 +8.3649246374656716e+00 +0.0000000000000000e+00 -1.6499999977051938e+00 +9.1353912783265589e-05 +0.0000000000000000e+00 +9.9999999582723154e-01
-1.7000000000000008e+00 +8.3649200005459292e+00 +0.0000000000000000e+00 -1.6999999974901676e+00 +9.4122886670324827e-05 +0.0000000000000000e+00 +9.9999999557044128e-01
-1.7500000000000009e+00 +8.3649152251760182e+00 +0.0000000000000000e+00 -1.7499999972621101e+00 +9.6891919770684804e-05 +0.0000000000000000e+00 +9.9999999530597816e-01
-1.8000000000000009e+00 +8.3649103113529382e+00 +0.0000000000000000e+00 -1.7999999970206375e+00 +9.9661013723110789e-05 +0.0000000000000000e+00 +9.9999999503384140e-01
-1.8500000000000010e+00 +8.3649052590736055e+00 +0.0000000000000000e+00 -1.8499999967653662e+00 +1.0243017016182812e-04 +0.0000000000000000e+00 +9.9999999475403034e-01
-1.9000000000000010e+00 +8.3649000683348547e+00 +0.0000000000000000e+00 -1.8999999964959124e+00 +1.0519939071652231e-04 +0.0000000000000000e+00 +9.9999999446654431e-01
-1.9500000000000011e+00 +8.3648947391334385e+00 +0.0000000000000000e+00 -1.9499999962118926e+00 +1.0796867701233910e-04 +0.0000000000000000e+00 +9.9999999417138263e-01
-2.0000000000000009e+00 +8.3648892714660299e+00 +0.0000000000000000e+00 -1.9999999959129227e+00 +1.1073803066988453e-04 +0.0000000000000000e+00 +9.9999999386854455e-01
-2.0500000000000007e+00 +8.3648836653292218e+00 +0.0000000000000000e+00 -2.0499999955986188e+00 +1.1350745330502070e-04 +0.0000000000000000e+00 +9.9999999355802927e-01
-2.1000000000000005e+00 +8.3648779207195236e+00 +0.0000000000000000e+00 -2.0999999952685973e+00 +1.1627694652661904e-04 +0.0000000000000000e+00 +9.9999999323983613e-01
-2.1500000000000004e+00 +8.3648720376333667e+00 +0.0000000000000000e+00 -2.1499999949224744e+00 +1.1904651193431349e-04 +0.0000000000000000e+00 +9.9999999291396424e-01
-2.2000000000000002e+00 +8.3648660160671007e+00 +0.0000000000000000e+00 -2.1999999945598656e+00 +1.2181615111829626e-04 +0.0000000000000000e+00 +9.9999999258041294e-01
-2.2500000000000000e+00 +8.3648598560169987e+00 +0.0000000000000000e+00 -2.2499999941803877e+00 +1.2458586565931794e-04 +0.0000000000000000e+00 +9.9999999223918135e-01
-2.2999999999999998e+00 +8.3648535574792522e+00 +0.0000000000000000e+00 -2.2999999937836559e+00 +1.2735565712868751e-04 +0.0000000000000000e+00 +9.9999999189026856e-01
-2.3499999999999996e+00 +8.3648471204499764e+00 +0.0000000000000000e+00 -2.3499999933692863e+00 +1.3012552708827247e-04 +0.0000000000000000e+00 +9.9999999153367380e-01
-2.3999999999999995e+00 +8.3648405449252081e+00 +0.0000000000000000e+00 -2.3999999929368951e+00 +1.3289547709049876e-04 +0.0000000000000000e+00 +9.9999999116939631e-01
-2.4499999999999993e+00 +8.3648338309009063e+00 +0.0000000000000000e+00 -2.4499999924860978e+00 +1.3566550867835092e-04 +0.0000000000000000e+00 +9.9999999079743507e-01
-2.4999999999999991e+00 +8.3648269783729550e+00 +0.0000000000000000e+00 -2.4999999920165106e+00 +1.3843562338537209e-04 +0.0000000000000000e+00 +9.9999999041778931e-01
-2.5499999999999989e+00 +8.3648199873371585e+00 +0.0000000000000000e+00 -2.5499999915277489e+00 +1.4120582273566409e-04 +0.0000000000000000e+00 +9.9999999003045803e-01
-2.5999999999999988e+00 +8.3648128577892464e+00 +0.0000000000000000e+00 -2.5999999910194282e+00 +1.4397610824388744e-04 +0.0000000000000000e+00 +9.9999998963544035e-01
-2.6499999999999986e+00 +8.3648055897248739e+00 +0.0000000000000000e+00 -2.6499999904911649e+00 +1.4674648141526142e-04 +0.0000000000000000e+00 +9.9999998923273536e-01
-2.6999999999999984e+00 +8.3647981831396194e+00 +0.0000000000000000e+00 -2.6999999899425737e+00 +1.4951694374556413e-04 +0.0000000000000000e+00 +9.9999998882234198e-01
-2.7499999999999982e+00 +8.3647906380289889e+00 +0.0000000000000000e+00 -2.7499999893732707e+00 +1.5228749672113249e-04 +0.0000000000000000e+00 +9.9999998840425941e-01
-2.7999999999999980e+00 +8.3647829543884118e+00 +0.0000000000000000e+00 -2.7999999887828713e+00 +1.5505814181886234e-04 +0.0000000000000000e+00 +9.9999998797848655e-01
-2.8499999999999979e+00 +8.3647751322132464e+00 +0.0000000000000000e+00 -2.8499999881709912e+00 +1.5782888050620844e-04 +0.0000000000000000e+00 +9.9999998754502251e-01
-2.8999999999999977e+00 +8.3647671714987766e+00 +0.0000000000000000e+00 -2.8999999875372455e+00 +1.6059971424118457e-04 +0.0000000000000000e+00 +9.9999998710386617e-01
-2.9499999999999975e+00 +8.3647590722402132e+00 +0.0000000000000000e+00 -2.9499999868812496e+00 +1.6337064447236347e-04 +0.0000000000000000e+00 +9.9999998665501655e-01
-2.9999999999999973e+00 +8.3647508344326962e+00 +0.0000000000000000e+00 -2.9999999862026190e+00 +1.6614167263887702e-04 +0.0000000000000000e+00 +9.9999998619847263e-01
-3.0499999999999972e+00 +8.3647424580712926e+00 +0.0000000000000000e+00 -3.0499999855009685e+00 +1.6891280017041613e-04 +0.0000000000000000e+00 +9.9999998573423332e-01
-3.0999999999999970e+00 +8.3647339431509984e+00 +0.0000000000000000e+00 -3.0999999847759137e+00 +1.7168402848723088e-04 +0.0000000000000000e+00 +9.9999998526229750e-01
-3.1499999999999968e+00 +8.3647252896667403e+00 +0.0000000000000000e+00 -3.1499999840270698e+00 +1.7445535900013052e-04 +0.0000000000000000e+00 +9.9999998478266416e-01
-3.1999999999999966e+00 +8.3647164976133723e+00 +0.0000000000000000e+00 -3.1999999832540520e+00 +1.7722679311048354e-04 +0.0000000000000000e+00 +9.9999998429533221e-01
-3.2499999999999964e+00 +8.3647075669856790e+00 +0.0000000000000000e+00 -3.2499999824564747e+00 +1.7999833221021768e-04 +0.0000000000000000e+00 +9.9999998380030053e-01
-3.2999999999999963e+00 +8.3646984977783774e+00 +0.0000000000000000e+00 -3.2999999816339534e+00 +1.8276997768181994e-04 +0.0000000000000000e+00 +9.9999998329756790e-01
-3.3499999999999961e+00 +8.3646892899861154e+00 +0.0000000000000000e+00 -3.3499999807861029e+00 +1.8554173089833668e-04 +0.0000000000000000e+00 +9.9999998278713331e-01
-3.3999999999999959e+00 +8.3646799436034698e+00 +0.0000000000000000e+00 -3.3999999799125384e+00 +1.8831359322337357e-04 +0.0000000000000000e+00 +9.9999998226899556e-01
-3.4499999999999957e+00 +8.3646704586249516e+00 +0.0000000000000000e+00 -3.4499999790128744e+00 +1.9108556601109568e-04 +0.0000000000000000e+00 +9.9999998174315352e-01
-3.4999999999999956e+00 +8.3646608350450045e+00 +0.0000000000000000e+00 -3.4999999780867252e+00 +1.9385765060622753e-04 +0.0000000000000000e+00 +9.9999998120960598e-01
-3.5499999999999954e+00 +8.3646510728580044e+00 +0.0000000000000000e+00 -3.5499999771337065e+00 +1.9662984834405308e-04 +0.0000000000000000e+00 +9.9999998066835172e-01
-3.5999999999999952e+00 +8.3646411720582616e+00 +0.0000000000000000e+00 -3.5999999761534323e+00 +1.9940216055041573e-04 +0.0000000000000000e+00 +9.9999998011938951e-01
-3.6499999999999950e+00 +8.3646311326400191e+00 +0.0000000000000000e+00 -3.6499999751455170e+00 +2.0217458854171846e-04 +0.0000000000000000e+00 +9.9999997956271813e-01
-3.6999999999999948e+00 +8.3646209545974557e+00 +0.0000000000000000e+00 -3.6999999741095753e+00 +2.0494713362492371e-04 +0.0000000000000000e+00 +9.9999997899833648e-01
-3.7499999999999947e+00 +8.3646106379246827e+00 +0.0000000000000000e+00 -3.7499999730452220e+00 +2.0771979709755350e-04 +0.0000000000000000e+00 +9.9999997842624322e-01
-3.7999999999999945e+00 +8.3646001826157512e+00 +0.0000000000000000e+00 -3.7999999719520714e+00 +2.1049258024768947e-04 +0.0000000000000000e+00 +9.9999997784643713e-01
-3.8499999999999943e+00 +8.3645895886646429e+00 +0.0000000000000000e+00 -3.8499999708297374e+00 +2.1326548435397286e-04 +0.0000000000000000e+00 +9.9999997725891687e-01
-3.8999999999999941e+00 +8.3645788560652790e+00 +0.0000000000000000e+00 -3.8999999696778347e+00 +2.1603851068560456e-04 +0.0000000000000000e+00 +9.9999997666368123e-01
-3.9499999999999940e+00 +8.3645679848115169e+00 +0.0000000000000000e+00 -3.9499999684959772e+00 +2.1881166050234508e-04 +0.0000000000000000e+00 +9.9999997606072888e-01
-3.9999999999999938e+00 +8.3645569748971500e+00 +0.0000000000000000e+00 -3.9999999672837792e+00 +2.2158493505451462e-04 +0.0000000000000000e+00 +9.9999997545005848e-01
-4.0499999999999936e+00 +8.3645458263159114e+00 +0.0000000000000000e+00 -4.0499999660408541e+00 +2.2435833558283837e-04 +0.0000000000000000e+00 +9.9999997483166880e-01
-4.0999999999999934e+00 +8.3645345390614718e+00 +0.0000000000000000e+00 -4.0999999647668171e+00 +2.2713186331674401e-04 +0.0000000000000000e+00 +9.9999997420555853e-01
-4.1499999999999932e+00 +8.3645231131274400e+00 +0.0000000000000000e+00 -4.1499999634612816e+00 +2.2990551947265942e-04 +0.0000000000000000e+00 +9.9999997357172621e-01
-4.1999999999999931e+00 +8.3645115485073642e+00 +0.0000000000000000e+00 -4.1999999621238615e+00 +2.3267930525385779e-04 +0.0000000000000000e+00 +9.9999997293017062e-01
-4.2499999999999929e+00 +8.3644998451947341e+00 +0.0000000000000000e+00 -4.2499999607541703e+00 +2.3545322185045784e-04 +0.0000000000000000e+00 +9.9999997228089033e-01
-4.2999999999999927e+00 +8.3644880031829789e+00 +0.0000000000000000e+00 -4.2999999593518217e+00 +2.3822727043942360e-04 +0.0000000000000000e+00 +9.9999997162388399e-01
-4.3499999999999925e+00 +8.3644760224654711e+00 +0.0000000000000000e+00 -4.3499999579164301e+00 +2.4100145218456458e-04 +0.0000000000000000e+00 +9.9999997095915016e-01
-4.3999999999999924e+00 +8.3644639030355226e+00 +0.0000000000000000e+00 -4.3999999564476084e+00 +2.4377576823653570e-04 +0.0000000000000000e+00 +9.9999997028668752e-01
-4.4499999999999922e+00 +8.3644516448863904e+00 +0.0000000000000000e+00 -4.4499999549449702e+00 +2.4655021973283734e-04 +0.0000000000000000e+00 +9.9999996960649462e-01
-4.4999999999999920e+00 +8.3644392480112728e+00 +0.0000000000000000e+00 -4.4999999534081292e+00 +2.4932480779781533e-04 +0.0000000000000000e+00 +9.9999996891857013e-01
-4.5499999999999918e+00 +8.3644267124033149e+00 +0.0000000000000000e+00 -4.5499999518366989e+00 +2.5209953354266094e-04 +0.0000000000000000e+00 +9.9999996822291259e-01
-4.5999999999999917e+00 +8.3644140380556049e+00 +0.0000000000000000e+00 -4.5999999502302922e+00 +2.5487439806541097e-04 +0.0000000000000000e+00 +9.9999996751952058e-01
-4.6499999999999915e+00 +8.3644012249611777e+00 +0.0000000000000000e+00 -4.6499999485885226e+00 +2.5764940245094761e-04 +0.0000000000000000e+00 +9.9999996680839265e-01
-4.6999999999999913e+00 +8.3643882731130113e+00 +0.0000000000000000e+00 -4.6999999469110030e+00 +2.6042454777099852e-04 +0.0000000000000000e+00 +9.9999996608952735e-01
-4.7499999999999911e+00 +8.3643751825040340e+00 +0.0000000000000000e+00 -4.7499999451973469e+00 +2.6319983508413686e-04 +0.0000000000000000e+00 +9.9999996536292324e-01
-4.7999999999999909e+00 +8.3643619531271192e+00 +0.0000000000000000e+00 -4.7999999434471663e+00 +2.6597526543578121e-04 +0.0000000000000000e+00 +9.9999996462857887e-01
-4.8499999999999908e+00 +8.3643485849750885e+00 +0.0000000000000000e+00 -4.8499999416600756e+00 +2.6875083985819568e-04 +0.0000000000000000e+00 +9.9999996388649282e-01
-4.8999999999999906e+00 +8.3643350780407140e+00 +0.0000000000000000e+00 -4.8999999398356868e+00 +2.7152655937048983e-04 +0.0000000000000000e+00 +9.9999996313666351e-01
-4.9499999999999904e+00 +8.3643214323167161e+00 +0.0000000000000000e+00 -4.9499999379736126e+00 +2.7430242497861868e-04 +0.0000000000000000e+00 +9.9999996237908950e-01
-4.9999999999999902e+00 +8.3643076477957639e+00 +0.0000000000000000e+00 -4.9999999360734666e+00 +2.7707843767538269e-04 +0.0000000000000000e+00 +9.9999996161376936e-01
-5.0499999999999901e+00 +8.3642937244704800e+00 +0.0000000000000000e+00 -5.0499999341348607e+00 +2.7985459844042775e-04 +0.0000000000000000e+00 +9.9999996084070153e-01
-5.0999999999999899e+00 +8.3642796623334359e+00 +0.0000000000000000e+00 -5.0999999321574077e+00 +2.8263090824024524e-04 +0.0000000000000000e+00 +9.9999996005988445e-01
-5.1499999999999897e+00 +8.3642654613771565e+00 +0.0000000000000000e+00 -5.1499999301407202e+00 +2.8540736802817196e-04 +0.0000000000000000e+00 +9.9999995927131669e-01
-5.1999999999999895e+00 +8.3642511215941173e+00 +0.0000000000000000e+00 -5.1999999280844103e+00 +2.8818397874439013e-04 +0.0000000000000000e+00 +9.9999995847499668e-01
-5.2499999999999893e+00 +8.3642366429767510e+00 +0.0000000000000000e+00 -5.2499999259880905e+00 +2.9096074131592742e-04 +0.0000000000000000e+00 +9.9999995767092298e-01
-5.2999999999999892e+00 +8.3642220255174404e+00 +0.0000000000000000e+00 -5.2999999238513729e+00 +2.9373765665665692e-04 +0.0000000000000000e+00 +9.9999995685909393e-01
-5.3499999999999890e+00 +8.3642072692085243e+00 +0.0000000000000000e+00 -5.3499999216738701e+00 +2.9651472566729703e-04 +0.0000000000000000e+00 +9.9999995603950809e-01
-5.3999999999999888e+00 +8.3641923740422968e+00 +0.0000000000000000e+00 -5.3999999194551940e+00 +2.9929194923541161e-04 +0.0000000000000000e+00 +9.9999995521216389e-01
-5.4499999999999886e+00 +8.3641773400110093e+00 +0.0000000000000000e+00 -5.4499999171949565e+00 +3.0206932823540985e-04 +0.0000000000000000e+00 +9.9999995437705980e-01
-5.4999999999999885e+00 +8.3641621671068691e+00 +0.0000000000000000e+00 -5.4999999148927703e+00 +3.0484686352854636e-04 +0.0000000000000000e+00 +9.9999995353419424e-01
-5.5499999999999883e+00 +8.3641468553220388e+00 +0.0000000000000000e+00 -5.5499999125482464e+00 +3.0762455596292104e-04 +0.0000000000000000e+00 +9.9999995268356556e-01
-5.5999999999999881e+00 +8.3641314046486404e+00 +0.0000000000000000e+00 -5.5999999101609976e+00 +3.1040240637347907e-04 +0.0000000000000000e+00 +9.9999995182517232e-01
-5.6499999999999879e+00 +8.3641158150787547e+00 +0.0000000000000000e+00 -5.6499999077306349e+00 +3.1318041558201106e-04 +0.0000000000000000e+00 +9.9999995095901284e-01
-5.6999999999999877e+00 +8.3641000866044219e+00 +0.0000000000000000e+00 -5.6999999052567700e+00 +3.1595858439715277e-04 +0.0000000000000000e+00 +9.9999995008508558e-01
-5.7499999999999876e+00 +8.3640842192176414e+00 +0.0000000000000000e+00 -5.7499999027390141e+00 +3.1873691361438523e-04 +0.0000000000000000e+00 +9.9999994920338897e-01
-5.7999999999999874e+00 +8.3640682129103734e+00 +0.0000000000000000e+00 -5.7999999001769789e+00 +3.2151540401603479e-04 +0.0000000000000000e+00 +9.9999994831392147e-01
-5.8499999999999872e+00 +8.3640520676745407e+00 +0.0000000000000000e+00 -5.8499998975702763e+00 +3.2429405637127303e-04 +0.0000000000000000e+00 +9.9999994741668141e-01
