# multipoles
# s[mm] polynom_b[n=0][T/m^n] polynom_b[n=1][T/m^n] polynom_b[n=2][T/m^n] polynom_b[n=3][T/m^n] polynom_b[n=4][T/m^n] polynom_b[n=5][T/m^n] polynom_b[n=6][T/m^n] 
+0.0000000000000000e+00 -5.7833215631504054e-01 +7.5924707235381543e+00 +6.5182916252406402e+00 -4.4710281661943760e+01 -1.5693066546742679e+04 +1.5271767093301853e+04 +1.1299936746676929e+08 
+5.0000000000000003e-02 -5.7833422501142484e-01 +7.5926558393999013e+00 +6.5180702750515973e+00 -4.4819788535988060e+01 -1.5795305074914881e+04 +1.6063100426235420e+04 +1.1360734166016820e+08 
+1.0000000000000001e-01 -5.7833668280147121e-01 +7.5928623225552130e+00 +6.5174704309148144e+00 -4.4922241232619122e+01 -1.5898324480230674e+04 +1.6772505467281007e+04 +1.1421721328950772e+08 
+1.4999999999999999e-01 -5.7833952845436798e-01 +7.5930900679222608e+00 +6.5164820647571009e+00 -4.5018000484535449e+01 -1.6001869747535658e+04 +1.7405304277560979e+04 +1.1482759769881074e+08 
+2.0000000000000001e-01 -5.7834276073932911e-01 +7.5933389704194045e+00 +6.5150951477997676e+00 -4.5107426995191098e+01 -1.6105685847623166e+04 +1.7966818658181848e+04 +1.1543711016210468e+08 
+2.5000000000000000e-01 -5.7834637842561865e-01 +7.5936089249666079e+00 +6.5132996517500077e+00 -4.5190881503405478e+01 -1.6209517757902582e+04 +1.8462370695031812e+04 +1.1604436596724646e+08 
+2.9999999999999999e-01 -5.7835038028249430e-01 +7.5938998264849626e+00 +6.5110855492055810e+00 -4.5268724771147255e+01 -1.6313110484279345e+04 +1.8897282698484221e+04 +1.1664798061814366e+08 
+3.4999999999999998e-01 -5.7835476507915717e-01 +7.5942115698938437e+00 +6.5084428091969375e+00 -4.5341317460382498e+01 -1.6416208932055379e+04 +1.9276876160928841e+04 +1.1724656892021595e+08 
+4.0000000000000002e-01 -5.7835953158499687e-01 +7.5945440501149060e+00 +6.5053614069539547e+00 -4.5409020301791237e+01 -1.6518558176552207e+04 +1.9606473126124809e+04 +1.1783874683810671e+08 
+4.5000000000000001e-01 -5.7836467856921858e-01 +7.5948971620695200e+00 +6.5018313113399158e+00 -4.5472193979545906e+01 -1.6619903122113057e+04 +1.9891395274949053e+04 +1.1842312918481834e+08 
+5.0000000000000000e-01 -5.7837020480120449e-01 +7.5952708006827807e+00 +6.4978424951796852e+00 -4.5531199312135541e+01 -1.6719988780186668e+04 +2.0136965399746579e+04 +1.1899833149915539e+08 
+5.5000000000000004e-01 -5.7837610905026637e-01 +7.5956648608766413e+00 +6.4933849303742681e+00 -4.5586396961473973e+01 -1.6818560132482111e+04 +2.0348505014429433e+04 +1.1956296909628093e+08 
+5.9999999999999998e-01 -5.7838239008580494e-01 +7.5960792375777260e+00 +6.4884485871316242e+00 -4.5638147749126041e+01 -1.6915362120151400e+04 +2.0531336917519227e+04 +1.2011565704050618e+08 
+6.5000000000000002e-01 -5.7838904667711588e-01 +7.5965138257100664e+00 +6.4830234387694734e+00 -4.5686812359239610e+01 -1.7010139767766352e+04 +2.0690782799822748e+04 +1.2065501095504355e+08 
+6.9999999999999996e-01 -5.7839607759362632e-01 +7.5969685202004129e+00 +6.4770994545164227e+00 -4.5732751575931843e+01 -1.7102637988255530e+04 +2.0832165184209789e+04 +1.2117964570226002e+08 
+7.5000000000000000e-01 -5.7840348160472521e-01 +7.5974432159769014e+00 +6.4706666082719524e+00 -4.5776326203538133e+01 -1.7192601819071413e+04 +2.0960806752259359e+04 +1.2168817698151720e+08 
+8.0000000000000004e-01 -5.7841125747981792e-01 +7.5979378079658275e+00 +6.4637148701961493e+00 -4.5817896944405092e+01 -1.7279776203864876e+04 +2.1082029336960342e+04 +1.2217921988049054e+08 
+8.4999999999999998e-01 -5.7841940398837810e-01 +7.5984521910991312e+00 +6.4562342132517321e+00 -4.5857824715960945e+01 -1.7363906148703267e+04 +2.1201156562310658e+04 +1.2265138986044787e+08 
+9.0000000000000002e-01 -5.7842791989983477e-01 +7.5989862603042546e+00 +6.4482146064629076e+00 -4.5896470218530290e+01 -1.7444736569329925e+04 +2.1323510245595353e+04 +1.2310330182864296e+08 
+9.4999999999999996e-01 -5.7843680398364095e-01 +7.5995399105123544e+00 +6.4396460240732996e+00 -4.5934194273675665e+01 -1.7522012511981218e+04 +2.1454413186161521e+04 +1.2353357153464124e+08 
+1.0000000000000000e+00 -5.7844605500925950e-01 +7.6001130366589127e+00 +6.4305184348453555e+00 -4.5971357863499072e+01 -1.7595478876981033e+04 +2.1599189526312624e+04 +1.2394081374514116e+08 
+1.0500000000000000e+00 -5.7845567174622892e-01 +7.6007055336737510e+00 +6.4208218134577866e+00 -4.6008321708581882e+01 -1.7664880727731765e+04 +2.1763161226317941e+04 +1.2432364434402663e+08 
+1.1000000000000001e+00 -5.7846565296399199e-01 +7.6013172964919606e+00 +6.4105461298836506e+00 -4.6045446729365530e+01 -1.7729962998875282e+04 +2.1951651942011140e+04 +1.2468067832993229e+08 
+1.1499999999999999e+00 -5.7847599743217026e-01 +7.6019482200490938e+00 +6.3996813578921019e+00 -4.6083093828338846e+01 -1.7790470723014671e+04 +2.2169985086062487e+04 +1.2501053134913108e+08 
+1.2000000000000000e+00 -5.7848670392021817e-01 +7.6025981992814584e+00 +6.3882174645048977e+00 -4.6121623923981744e+01 -1.7846148759651049e+04 +2.2423484273770286e+04 +1.2531181790636277e+08 
+1.2500000000000000e+00 -5.7849777119771417e-01 +7.6032671291265697e+00 +6.3761444259144415e+00 -4.6161397953064544e+01 -1.7896742210260702e+04 +2.2717473224530513e+04 +1.2558315411802699e+08 
+1.3000000000000000e+00 -5.7850919803424561e-01 +7.6039549045237544e+00 +6.3634522124382169e+00 -4.6202776901912870e+01 -1.7941996018277539e+04 +2.3057276038387248e+04 +1.2582315503302020e+08 
+1.3500000000000001e+00 -5.7852098319938994e-01 +7.6046614204108671e+00 +6.3501307954561756e+00 -4.6246121684003271e+01 -1.7981655160055459e+04 +2.3448216269852717e+04 +1.2603043593264055e+08 
+1.3999999999999999e+00 -5.7853312546269031e-01 +7.6053865717303371e+00 +6.3361701469573628e+00 -4.6291793360458328e+01 -1.8015464622519590e+04 +2.3895618610836540e+04 +1.2620361214610575e+08 
+1.4500000000000000e+00 -5.7854562359382178e-01 +7.6061302534247917e+00 +6.3215602407498208e+00 -4.6340152994294137e+01 -1.8043169445878393e+04 +2.4404807821930823e+04 +1.2634129937429582e+08 
+1.5000000000000000e+00 -5.7855847636238977e-01 +7.6068923604372261e+00 +6.3062910456387469e+00 -4.6391561625482446e+01 -1.8064514535706043e+04 +2.4981108396201136e+04 +1.2644211240482414e+08 
+1.5500000000000000e+00 -5.7857168253801450e-01 +7.6076727877116461e+00 +6.2903525354529286e+00 -4.6446380312170518e+01 -1.8079244931946836e+04 +2.5629844977991044e+04 +1.2650466692599827e+08 
+1.6000000000000001e+00 -5.7858524089034313e-01 +7.6084714301942249e+00 +6.2737346817756512e+00 -4.6504970189206730e+01 -1.8087105616390447e+04 +2.6356342868058517e+04 +1.2652757823684460e+08 
+1.6499999999999999e+00 -5.7859915018906827e-01 +7.6092881828329881e+00 +6.2564274566544302e+00 -4.6567692444024019e+01 -1.8087841580399570e+04 +2.7165927773022624e+04 +1.2650946168548842e+08 
+1.7000000000000000e+00 -5.7861340920385040e-01 +7.6101229405753825e+00 +6.2384208342510927e+00 -4.6634908204597323e+01 -1.8081197874133104e+04 +2.8063924854233363e+04 +1.2644893301928698e+08 
+1.7500000000000000e+00 -5.7862801670438935e-01 +7.6109755983733347e+00 +6.2197047833487114e+00 -4.6706978772570444e+01 -1.8066919403257460e+04 +2.9055660724712689e+04 +1.2634460700904021e+08 
+1.8000000000000000e+00 -5.7864297146038191e-01 +7.6118460511760873e+00 +6.2002692801064345e+00 -4.6784265313278041e+01 -1.8044751273589463e+04 +3.0146460857888538e+04 +1.2619509977443425e+08 
+1.8500000000000001e+00 -5.7865827224152233e-01 +7.6127341939374755e+00 +6.1801042929294168e+00 -4.6867129157770627e+01 -1.8014438380647349e+04 +3.1341652059743818e+04 +1.2599902600507970e+08 
+1.8999999999999999e+00 -5.7867391781757938e-01 +7.6136399216113944e+00 +6.1591997966297747e+00 -4.6955931613961447e+01 -1.7975725795910224e+04 +3.2646560906808718e+04 +1.2575500158590226e+08 
+1.9500000000000000e+00 -5.7868990695827649e-01 +7.6145631291535834e+00 +6.1375457650215983e+00 -4.7051034054306818e+01 -1.7928358560338962e+04 +3.4066514547724139e+04 +1.2546164217838106e+08 
+2.0000000000000000e+00 -5.7870623843337921e-01 +7.6155037115202617e+00 +6.1151321679571229e+00 -4.7152797834319358e+01 -1.7872081610498430e+04 +3.5606839896646030e+04 +1.2511756274100262e+08 
+2.0499999999999998e+00 -5.7872291084870886e-01 +7.6164615545323899e+00 +6.0919545725759265e+00 -4.7261481039429334e+01 -1.7806753620496394e+04 +3.7271321609156788e+04 +1.2472202252929953e+08 
+2.1000000000000001e+00 -5.7873992215111658e-01 +7.6174365097779102e+00 +6.0680306644080613e+00 -4.7376928814883463e+01 -1.7732690300755872e+04 +3.9057703820263494e+04 +1.2427689357534230e+08 
+2.1499999999999999e+00 -5.7875727012201394e-01 +7.6184284167815761e+00 +6.0433838468936347e+00 -4.7498887635003996e+01 -1.7650322481536503e+04 +4.0962243824258454e+04 +1.2378471240894806e+08 
+2.2000000000000002e+00 -5.7877495254287292e-01 +7.6194371150708724e+00 +6.0180375224843790e+00 -4.7627104074188452e+01 -1.7560080969341270e+04 +4.2981199703620579e+04 +1.2324801541343597e+08 
+2.2500000000000000e+00 -5.7879296719508744e-01 +7.6204624441688456e+00 +5.9920150926942375e+00 -4.7761324505840093e+01 -1.7462396542003964e+04 +4.5110827887902116e+04 +1.2266933876252824e+08 
+2.2999999999999998e+00 -5.7881131186010182e-01 +7.6215042436078733e+00 +5.9653399614421518e+00 -4.7901295657017911e+01 -1.7357700046745584e+04 +4.7347387652798905e+04 +1.2205121911898603e+08 
+2.3500000000000001e+00 -5.7882998431932231e-01 +7.6225623529123272e+00 +5.9380355292670819e+00 -4.8046763927412464e+01 -1.7246422239302185e+04 +4.9687135632863748e+04 +1.2139619252457803e+08 
+2.3999999999999999e+00 -5.7884898235424842e-01 +7.6236366116103325e+00 +5.9101252014363093e+00 -4.8197475866114857e+01 -1.7128994001369534e+04 +5.2126329725843731e+04 +1.2070679586546823e+08 
+2.4500000000000002e+00 -5.7886830374629872e-01 +7.6247268592259134e+00 +5.8816323770131751e+00 -4.8353177807426086e+01 -1.7005846046934414e+04 +5.4661225918448661e+04 +1.1998556489634240e+08 
+2.5000000000000000e+00 -5.7888794627701423e-01 +7.6258329352887939e+00 +5.8525804604500413e+00 -4.8513616345867710e+01 -1.6877409235712705e+04 +5.7288082490774446e+04 +1.1923503635647756e+08 
+2.5499999999999998e+00 -5.7890790772780276e-01 +7.6269546793239531e+00 +5.8229928561251363e+00 -4.8678537840856016e+01 -1.6744114429541027e+04 +6.0003155692900466e+04 +1.1845774701408520e+08 
+2.6000000000000001e+00 -5.7892818588021655e-01 +7.6280919308580906e+00 +5.7928929621023197e+00 -4.8847688724491462e+01 -1.6606392314463876e+04 +6.2802702388315156e+04 +1.1765623243459544e+08 
+2.6499999999999999e+00 -5.7894877851574456e-01 +7.6292445294190285e+00 +5.7623041841466556e+00 -4.9020815455151869e+01 -1.6464673788696993e+04 +6.5682979649647459e+04 +1.1683302962998503e+08 
+2.7000000000000002e+00 -5.7896968341590038e-01 +7.6304123145305320e+00 +5.7312499256164244e+00 -4.9197664320495598e+01 -1.6319389683635807e+04 +6.8640243156183176e+04 +1.1599067515732159e+08 
+2.7500000000000000e+00 -5.7899089836218187e-01 +7.6315951257192394e+00 +5.6997535858950883e+00 -4.9377981714250595e+01 -1.6170970724659706e+04 +7.1670749452310585e+04 +1.1513170486204471e+08 
+2.7999999999999998e+00 -5.7901242113609142e-01 +7.6327928025087184e+00 +5.6678385685107147e+00 -4.9561513890785136e+01 -1.6019847747274849e+04 +7.4770753926723759e+04 +1.1425865532873870e+08 
+2.8500000000000001e+00 -5.7903424951919902e-01 +7.6340051844237964e+00 +5.6355282778616651e+00 -4.9748007143906761e+01 -1.5866451612962344e+04 +7.7936512271886197e+04 +1.1337406333035384e+08 
+2.8999999999999999e+00 -5.7905638129302894e-01 +7.6352321109889179e+00 +5.6028461142516193e+00 -4.9937207750220239e+01 -1.5711213073660805e+04 +8.1164280052562302e+04 +1.1248046490067706e+08 
+2.9500000000000002e+00 -5.7907881423913210e-01 +7.6364734217274632e+00 +5.5698154806075699e+00 -5.0128861933757385e+01 -1.5554562946811091e+04 +8.4450312422684699e+04 +1.1158039650360619e+08 
+3.0000000000000000e+00 -5.7910154613906206e-01 +7.6377289561620545e+00 +5.5364597797597614e+00 -5.0322715878200007e+01 -1.5396932051979180e+04 +8.7790864183173224e+04 +1.1067639463249509e+08 
+3.0499999999999998e+00 -5.7912457477434842e-01 +7.6389985538139040e+00 +5.5028024141406009e+00 -5.0518515690571562e+01 -1.5238751201667248e+04 +9.1182189461155285e+04 +1.0977099575257365e+08 
+3.1000000000000001e+00 -5.7914789792658439e-01 +7.6402820542057661e+00 +5.4688667859105777e+00 -5.0716007548476668e+01 -1.5080451191724078e+04 +9.4620543014569717e+04 +1.0886673618049960e+08 
+3.1499999999999999e+00 -5.7917151337734352e-01 +7.6415792968560448e+00 +5.4346762978949377e+00 -5.0914937441678568e+01 -1.4922462843885054e+04 +9.8102178047205874e+04 +1.0796615244305938e+08 
+3.2000000000000002e+00 -5.7919541890820248e-01 +7.6428901212855882e+00 +5.4002543523006175e+00 -5.1115051449863770e+01 -1.4765216959692696e+04 +1.0162334848906269e+05 +1.0707178091934089e+08 
+3.2500000000000000e+00 -5.7921961230071417e-01 +7.6442143670134213e+00 +5.3656243511488420e+00 -5.1316095565945332e+01 -1.4609144337439540e+04 +1.0518030751947525e+05 +1.0618615797453627e+08 
+3.2999999999999998e+00 -5.7924409133649712e-01 +7.6455518735552142e+00 +5.3308096972570116e+00 -5.1517815661417025e+01 -1.4454675797871905e+04 +1.0876930741021330e+05 +1.0531182013372071e+08 
+3.3500000000000001e+00 -5.7926885379716953e-01 +7.6469024804300867e+00 +5.2958337921263334e+00 -5.1719957726136350e+01 -1.4302242122830865e+04 +1.1238660132615850e+05 +1.0445130364851801e+08 
+3.3999999999999999e+00 -5.7929389746428361e-01 +7.6482660271516156e+00 +5.2607200398948581e+00 -5.1922267513625151e+01 -1.4152274169709222e+04 +1.1602844048455004e+05 +1.0360714530134667e+08 
+3.4500000000000002e+00 -5.7931922011943504e-01 +7.6496423532348290e+00 +5.2254918410776465e+00 -5.2124490853006407e+01 -1.4005202694090154e+04 +1.1969107678760713e+05 +1.0278188117493635e+08 
+3.5000000000000000e+00 -5.7934481954425643e-01 +7.6510312981939208e+00 +5.1901725977687869e+00 -5.2326373518030657e+01 -1.3861458500422719e+04 +1.2337076160714249e+05 +1.0197804770884512e+08 
+3.5499999999999998e+00 -5.7937069352037351e-01 +7.6524327015404889e+00 +5.1547857141389661e+00 -5.2527661188327251e+01 -1.3721472441736350e+04 +1.2706374562025374e+05 +1.0119818164718668e+08 
+3.6000000000000001e+00 -5.7939683982939194e-01 +7.6538464027848629e+00 +5.1193545906476086e+00 -5.2728099470029242e+01 -1.3585675277923727e+04 +1.3076627880082643e+05 +1.0044481913469657e+08 
+3.6499999999999999e+00 -5.7942325625293967e-01 +7.6552722414350924e+00 +5.0839026305153876e+00 -5.2927433890291567e+01 -1.3454497837414401e+04 +1.3447461055575864e+05 +9.9720496760640904e+07 
+3.6999999999999900e+00 -5.7944994057260013e-01 +7.6567100570018995e+00 +5.0484532337590853e+00 -5.3125410077351006e+01 -1.3328370867596592e+04 +1.3818499108963899e+05 +9.9027750591204196e+07 
+3.7499999999999898e+00 -5.7947689057007490e-01 +7.6581596889903416e+00 +5.0130298054962035e+00 -5.3321773430152788e+01 -1.3207725251297419e+04 +1.4189366872845849e+05 +9.8369117605329260e+07 
+3.7999999999999901e+00 -5.7950410402693131e-01 +7.6596209769060009e+00 +4.9776557464763753e+00 -5.3516269352790125e+01 -1.3092991753371834e+04 +1.4559689179939285e+05 +9.7747133985872895e+07 
+3.8499999999999899e+00 -5.7953157872485828e-01 +7.6610937602524904e+00 +4.9423544584687980e+00 -5.3708643203640520e+01 -1.2984601166260079e+04 +1.4929090836481546e+05 +9.7164336109675869e+07 
+3.8999999999999901e+00 -5.7955931244540460e-01 +7.6625778785308958e+00 +4.9071493430968642e+00 -5.3898640192949074e+01 -1.2882984283994136e+04 +1.5297196512580014e+05 +9.6623260389044598e+07 
+3.9499999999999900e+00 -5.7958730297031080e-01 +7.6640731712439276e+00 +4.8720638048376541e+00 -5.4086005631716866e+01 -1.2788571966563190e+04 +1.5663630971520921e+05 +9.6126443644631073e+07 
+3.9999999999999898e+00 -5.7961554808113747e-01 +7.6655794778855242e+00 +4.8371212411126576e+00 -5.4270484461270300e+01 -1.2701794890851363e+04 +1.6028018672872460e+05 +9.5676421496447518e+07 
+4.0499999999999901e+00 -5.7964404543461745e-01 +7.6670966323300052e+00 +4.8023406614519786e+00 -5.4451831667670355e+01 -1.2622981678185184e+04 +1.6390015579707158e+05 +9.5275123122659549e+07 
+4.0999999999999899e+00 -5.7967279218685519e-01 +7.6686244422920575e+00 +4.7677236988107259e+00 -5.4629867992466295e+01 -1.2552047818688769e+04 +1.6749404479631956e+05 +9.4922005870037690e+07 
+4.1499999999999897e+00 -5.7970178536874539e-01 +7.6701627080497703e+00 +4.7332677019138343e+00 -5.4804439342718581e+01 -1.2488804304572312e+04 +1.7106001335864127e+05 +9.4615898208260104e+07 
+4.1999999999999904e+00 -5.7973102201113680e-01 +7.6717112298765491e+00 +4.6989700213658017e+00 -5.4975391449871687e+01 -1.2433062180342349e+04 +1.7459621961821019e+05 +9.4355628975493535e+07 
+4.2499999999999902e+00 -5.7976049914495742e-01 +7.6732698080539450e+00 +4.6648280066695742e+00 -5.5142570389765297e+01 -1.2384632455664729e+04 +1.7810082455089400e+05 +9.4140026757028207e+07 
+4.2999999999999901e+00 -5.7979021380100526e-01 +7.6748382428560689e+00 +4.6308390046919596e+00 -5.5305821949297147e+01 -1.2343326073086331e+04 +1.8157198678816544e+05 +9.3967919699428871e+07 
+4.3499999999999899e+00 -5.7982016301018535e-01 +7.6764163345606429e+00 +4.5970003659939067e+00 -5.5464992056940112e+01 -1.2308954071734524e+04 +1.8500786605343194e+05 +9.3838136596498027e+07 
+4.3999999999999897e+00 -5.7985034380334954e-01 +7.6780038834448083e+00 +4.5633094375045165e+00 -5.5619926651020769e+01 -1.2281327396243059e+04 +1.8840662225458282e+05 +9.3749505614907786e+07 
+4.4499999999999904e+00 -5.7988075321135024e-01 +7.6796006897830438e+00 +4.5297635710876376e+00 -5.5770471556909868e+01 -1.2260257120244205e+04 +1.9176641430080149e+05 +9.3700855778696537e+07 
+4.4999999999999902e+00 -5.7991138826506439e-01 +7.6812065538539809e+00 +4.4963601135864621e+00 -5.5916472781762856e+01 -1.2245554186160653e+04 +1.9508540260416621e+05 +9.3691015246366084e+07 
+4.5499999999999901e+00 -5.7994224599535615e-01 +7.6828212759337475e+00 +4.4630964145600709e+00 -5.6057776249845645e+01 -1.2237029604957241e+04 +1.9836174692372640e+05 +9.3718812621968150e+07 
+4.5999999999999899e+00 -5.7997332343310004e-01 +7.6844446562962920e+00 +4.4299698210581653e+00 -5.6194227815702320e+01 -1.2234494322097520e+04 +2.0159360645764769e+05 +9.3783076076989233e+07 
+4.6499999999999897e+00 -5.8000461760906841e-01 +7.6860764952198801e+00 +4.3969776826339997e+00 -5.6325673504668686e+01 -1.2237759353410000e+04 +2.0477914176763751e+05 +9.3882634271619037e+07 
+4.6999999999999904e+00 -5.8003612555419748e-01 +7.6877165929806432e+00 +4.3641173480461566e+00 -5.6451959293454138e+01 -1.2246635686849841e+04 +2.0791651307654846e+05 +9.4016315654898852e+07 
+4.7499999999999902e+00 -5.8006784429927005e-01 +7.6893647498544384e+00 +4.3313861645020637e+00 -5.6572931141733697e+01 -1.2260934273294122e+04 +2.1100388040999643e+05 +9.4182948446095154e+07 
+4.7999999999999901e+00 -5.8009977087518860e-01 +7.6910207661152956e+00 +4.2987814814758352e+00 -5.6688434968619084e+01 -1.2280466124447772e+04 +2.1403940352832788e+05 +9.4381361275825232e+07 
+4.8499999999999899e+00 -5.8013190231270129e-01 +7.6926844420411378e+00 +4.2663006456814569e+00 -5.6798316856930860e+01 -1.2305042172406207e+04 +2.1702124350210914e+05 +9.4610382221415967e+07 
+4.8999999999999897e+00 -5.8016423564273267e-01 +7.6943555779053074e+00 +4.2339410072381778e+00 -5.6902422727849306e+01 -1.2334473449514455e+04 +2.1994756008835413e+05 +9.4868840067370132e+07 
+4.9499999999999904e+00 -5.8019676789607388e-01 +7.6960339739855570e+00 +4.2016999122921241e+00 -5.7000598687455351e+01 -1.2368570873942903e+04 +2.2281651453659128e+05 +9.5155562806641459e+07 
+4.9999999999999902e+00 -5.8022949610351393e-01 +7.6977194305563250e+00 +4.1695747074533234e+00 -5.7092690747660761e+01 -1.2407145376196548e+04 +2.2562626742150338e+05 +9.5469378515733033e+07 
+5.0499999999999901e+00 -5.8026241729837791e-01 +7.6994117394469885e+00 +4.1375631776594197e+00 -5.7178553914288010e+01 -1.2450008007309161e+04 +2.2837498343404543e+05 +9.5809116640731052e+07 
