# trajectory
# s[mm] rx[mm] ry[mm] rz[mm] px[rad] py[rad] pz[rad]
0.0000000000000000e+00 +8.5980000000000008e+00 +0.0000000000000000e+00 +0.0000000000000000e+00 +0.0000000000000000e+00 +0.0000000000000000e+00 +1.0000000000000000e+00
5.0000000000000003e-02 +8.5979999308667381e+00 +0.0000000000000000e+00 +4.9999999999936276e-02 -2.7653318534745170e-06 +0.0000000000000000e+00 +9.9999999999617650e-01
1.0000000000000001e-01 +8.5979997234666623e+00 +0.0000000000000000e+00 +9.9999999999490191e-02 -5.5306728391677486e-06 +0.0000000000000000e+00 +9.9999999998470590e-01
1.5000000000000002e-01 +8.5979993777992725e+00 +0.0000000000000000e+00 +1.4999999999827940e-01 -8.2960247285741060e-06 +0.0000000000000000e+00 +9.9999999996558808e-01
2.0000000000000001e-01 +8.5979988938639789e+00 +0.0000000000000000e+00 +1.9999999999592155e-01 -1.1061389289682146e-05 +0.0000000000000000e+00 +9.9999999993882294e-01
2.5000000000000000e-01 +8.5979982716601029e+00 +0.0000000000000000e+00 +2.4999999999203426e-01 -1.3826768286974665e-05 +0.0000000000000000e+00 +9.9999999990441035e-01
2.9999999999999999e-01 +8.5979975111868807e+00 +0.0000000000000000e+00 +2.9999999998623517e-01 -1.6592163481428766e-05 +0.0000000000000000e+00 +9.9999999986235022e-01
3.4999999999999998e-01 +8.5979966124434561e+00 +0.0000000000000000e+00 +3.4999999997814185e-01 -1.9357576630515947e-05 +0.0000000000000000e+00 +9.9999999981264232e-01
3.9999999999999997e-01 +8.5979955754288895e+00 +0.0000000000000000e+00 +3.9999999996737196e-01 -2.2123009488202194e-05 +0.0000000000000000e+00 +9.9999999975528642e-01
4.4999999999999996e-01 +8.5979944001421504e+00 +0.0000000000000000e+00 +4.4999999995354306e-01 -2.4888463804948037e-05 +0.0000000000000000e+00 +9.9999999969028242e-01
4.9999999999999994e-01 +8.5979930865821217e+00 +0.0000000000000000e+00 +4.9999999993627275e-01 -2.7653941327708650e-05 +0.0000000000000000e+00 +9.9999999961762998e-01
5.4999999999999993e-01 +8.5979916347476006e+00 +0.0000000000000000e+00 +5.4999999991517856e-01 -3.0419443799933921e-05 +0.0000000000000000e+00 +9.9999999953732888e-01
5.9999999999999998e-01 +8.5979900446372959e+00 +0.0000000000000000e+00 +5.9999999988987818e-01 -3.3184972961568531e-05 +0.0000000000000000e+00 +9.9999999944937890e-01
6.5000000000000002e-01 +8.5979883162498307e+00 +0.0000000000000000e+00 +6.4999999985998902e-01 -3.5950530549052045e-05 +0.0000000000000000e+00 +9.9999999935377981e-01
7.0000000000000007e-01 +8.5979864495837397e+00 +0.0000000000000000e+00 +6.9999999982512862e-01 -3.8716118295318975e-05 +0.0000000000000000e+00 +9.9999999925053118e-01
7.5000000000000011e-01 +8.5979844446374702e+00 +0.0000000000000000e+00 +7.4999999978491461e-01 -4.1481737929798855e-05 +0.0000000000000000e+00 +9.9999999913963278e-01
8.0000000000000016e-01 +8.5979823014093864e+00 +0.0000000000000000e+00 +7.9999999973896441e-01 -4.4247391178416331e-05 +0.0000000000000000e+00 +9.9999999902108427e-01
8.5000000000000020e-01 +8.5979800198977632e+00 +0.0000000000000000e+00 +8.4999999968689555e-01 -4.7013079763591232e-05 +0.0000000000000000e+00 +9.9999999889488522e-01
9.0000000000000024e-01 +8.5979776001007924e+00 +0.0000000000000000e+00 +8.9999999962832544e-01 -4.9778805404238646e-05 +0.0000000000000000e+00 +9.9999999876103529e-01
9.5000000000000029e-01 +8.5979750420165768e+00 +0.0000000000000000e+00 +9.4999999956287151e-01 -5.2544569815768982e-05 +0.0000000000000000e+00 +9.9999999861953415e-01
1.0000000000000002e+00 +8.5979723456431358e+00 +0.0000000000000000e+00 +9.9999999949015128e-01 -5.5310374710088069e-05 +0.0000000000000000e+00 +9.9999999847038124e-01
1.0500000000000003e+00 +8.5979695109784018e+00 +0.0000000000000000e+00 +1.0499999994097822e+00 -5.8076221795597206e-05 +0.0000000000000000e+00 +9.9999999831357622e-01
1.1000000000000003e+00 +8.5979665380202235e+00 +0.0000000000000000e+00 +1.0999999993213814e+00 -6.0842112777193256e-05 +0.0000000000000000e+00 +9.9999999814911866e-01
1.1500000000000004e+00 +8.5979634267663645e+00 +0.0000000000000000e+00 +1.1499999992245664e+00 -6.3608049356268697e-05 +0.0000000000000000e+00 +9.9999999797700800e-01
1.2000000000000004e+00 +8.5979601772144996e+00 +0.0000000000000000e+00 +1.1999999991189547e+00 -6.6374033230711719e-05 +0.0000000000000000e+00 +9.9999999779724380e-01
1.2500000000000004e+00 +8.5979567893622235e+00 +0.0000000000000000e+00 +1.2499999990041633e+00 -6.9140066094906287e-05 +0.0000000000000000e+00 +9.9999999760982561e-01
1.3000000000000005e+00 +8.5979532632070441e+00 +0.0000000000000000e+00 +1.2999999988798097e+00 -7.1906149639732191e-05 +0.0000000000000000e+00 +9.9999999741475276e-01
1.3500000000000005e+00 +8.5979495987463856e+00 +0.0000000000000000e+00 +1.3499999987455109e+00 -7.4672285552565147e-05 +0.0000000000000000e+00 +9.9999999721202482e-01
1.4000000000000006e+00 +8.5979457959775871e+00 +0.0000000000000000e+00 +1.3999999986008844e+00 -7.7438475517276840e-05 +0.0000000000000000e+00 +9.9999999700164122e-01
1.4500000000000006e+00 +8.5979418548979041e+00 +0.0000000000000000e+00 +1.4499999984455474e+00 -8.0204721214235028e-05 +0.0000000000000000e+00 +9.9999999678360130e-01
1.5000000000000007e+00 +8.5979377755045086e+00 +0.0000000000000000e+00 +1.4999999982791170e+00 -8.2971024320303572e-05 +0.0000000000000000e+00 +9.9999999655790450e-01
1.5500000000000007e+00 +8.5979335577944873e+00 +0.0000000000000000e+00 +1.5499999981012103e+00 -8.5737386508842546e-05 +0.0000000000000000e+00 +9.9999999632455017e-01
1.6000000000000008e+00 +8.5979292017648454e+00 +0.0000000000000000e+00 +1.5999999979114443e+00 -8.8503809449708260e-05 +0.0000000000000000e+00 +9.9999999608353773e-01
1.6500000000000008e+00 +8.5979247074125027e+00 +0.0000000000000000e+00 +1.6499999977094364e+00 -9.1270294809253356e-05 +0.0000000000000000e+00 +9.9999999583486654e-01
1.7000000000000008e+00 +8.5979200747342972e+00 +0.0000000000000000e+00 +1.6999999974948035e+00 -9.4036844250326867e-05 +0.0000000000000000e+00 +9.9999999557853581e-01
1.7500000000000009e+00 +8.5979153037269818e+00 +0.0000000000000000e+00 +1.7499999972671625e+00 -9.6803459432274290e-05 +0.0000000000000000e+00 +9.9999999531454498e-01
1.8000000000000009e+00 +8.5979103943872293e+00 +0.0000000000000000e+00 +1.7999999970261304e+00 -9.9570142010937647e-05 +0.0000000000000000e+00 +9.9999999504289327e-01
1.8500000000000010e+00 +8.5979053467116291e+00 +0.0000000000000000e+00 +1.8499999967713241e+00 -1.0233689363865555e-04 +0.0000000000000000e+00 +9.9999999476357992e-01
1.9000000000000010e+00 +8.5979001606966872e+00 +0.0000000000000000e+00 +1.8999999965023606e+00 -1.0510371596426326e-04 +0.0000000000000000e+00 +9.9999999447660426e-01
1.9500000000000011e+00 +8.5978948363388277e+00 +0.0000000000000000e+00 +1.9499999962188568e+00 -1.0787061063309275e-04 +0.0000000000000000e+00 +9.9999999418196550e-01
2.0000000000000009e+00 +8.5978893736343913e+00 +0.0000000000000000e+00 +1.9999999959204293e+00 -1.1063757928697279e-04 +0.0000000000000000e+00 +9.9999999387966287e-01
2.0500000000000007e+00 +8.5978837725796389e+00 +0.0000000000000000e+00 +2.0499999956066954e+00 -1.1340462356392256e-04 +0.0000000000000000e+00 +9.9999999356969549e-01
2.1000000000000005e+00 +8.5978780331707476e+00 +0.0000000000000000e+00 +2.0999999952772712e+00 -1.1617174509478086e-04 +0.0000000000000000e+00 +9.9999999325206268e-01
2.1500000000000004e+00 +8.5978721554038149e+00 +0.0000000000000000e+00 +2.1499999949317736e+00 -1.1893894549983543e-04 +0.0000000000000000e+00 +9.9999999292676345e-01
2.2000000000000002e+00 +8.5978661392748563e+00 +0.0000000000000000e+00 +2.1999999945698194e+00 -1.2170622638851648e-04 +0.0000000000000000e+00 +9.9999999259379702e-01
2.2500000000000000e+00 +8.5978599847798076e+00 +0.0000000000000000e+00 +2.2499999941910254e+00 -1.2447358935939684e-04 +0.0000000000000000e+00 +9.9999999225316261e-01
2.2999999999999998e+00 +8.5978536919145263e+00 +0.0000000000000000e+00 +2.2999999937950077e+00 -1.2724103600019189e-04 +0.0000000000000000e+00 +9.9999999190485922e-01
2.3499999999999996e+00 +8.5978472606747882e+00 +0.0000000000000000e+00 +2.3499999933813833e+00 -1.3000856788775975e-04 +0.0000000000000000e+00 +9.9999999154888597e-01
2.3999999999999995e+00 +8.5978406910562910e+00 +0.0000000000000000e+00 +2.3999999929497684e+00 -1.3277618658810123e-04 +0.0000000000000000e+00 +9.9999999118524197e-01
2.4499999999999993e+00 +8.5978339830546560e+00 +0.0000000000000000e+00 +2.4499999924997797e+00 -1.3554389365635994e-04 +0.0000000000000000e+00 +9.9999999081392632e-01
2.4999999999999991e+00 +8.5978271366654262e+00 +0.0000000000000000e+00 +2.4999999920310332e+00 -1.3831169063682232e-04 +0.0000000000000000e+00 +9.9999999043493804e-01
2.5499999999999989e+00 +8.5978201518840685e+00 +0.0000000000000000e+00 +2.5499999915431455e+00 -1.4107957906291766e-04 +0.0000000000000000e+00 +9.9999999004827611e-01
2.5999999999999988e+00 +8.5978130287059713e+00 +0.0000000000000000e+00 +2.5999999910357330e+00 -1.4384756045721821e-04 +0.0000000000000000e+00 +9.9999998965393955e-01
2.6499999999999986e+00 +8.5978057671264487e+00 +0.0000000000000000e+00 +2.6499999905084115e+00 -1.4661563633143921e-04 +0.0000000000000000e+00 +9.9999998925192746e-01
2.6999999999999984e+00 +8.5977983671407383e+00 +0.0000000000000000e+00 +2.6999999899607978e+00 -1.4938380818643889e-04 +0.0000000000000000e+00 +9.9999998884223884e-01
2.7499999999999982e+00 +8.5977908287440048e+00 +0.0000000000000000e+00 +2.7499999893925078e+00 -1.5215207751221858e-04 +0.0000000000000000e+00 +9.9999998842487259e-01
2.7999999999999980e+00 +8.5977831519313384e+00 +0.0000000000000000e+00 +2.7999999888031573e+00 -1.5492044578792276e-04 +0.0000000000000000e+00 +9.9999998799982770e-01
2.8499999999999979e+00 +8.5977753366977527e+00 +0.0000000000000000e+00 +2.8499999881923626e+00 -1.5768891448183898e-04 +0.0000000000000000e+00 +9.9999998756710307e-01
2.8999999999999977e+00 +8.5977673830381924e+00 +0.0000000000000000e+00 +2.8999999875597395e+00 -1.6045748505139808e-04 +0.0000000000000000e+00 +9.9999998712669769e-01
2.9499999999999975e+00 +8.5977592909475256e+00 +0.0000000000000000e+00 +2.9499999869049041e+00 -1.6322615894317415e-04 +0.0000000000000000e+00 +9.9999998667861045e-01
2.9999999999999973e+00 +8.5977510604205509e+00 +0.0000000000000000e+00 +2.9999999862274724e+00 -1.6599493759288453e-04 +0.0000000000000000e+00 +9.9999998622284025e-01
3.0499999999999972e+00 +8.5977426914519963e+00 +0.0000000000000000e+00 +3.0499999855270601e+00 -1.6876382242538991e-04 +0.0000000000000000e+00 +9.9999998575938598e-01
3.0999999999999970e+00 +8.5977341840365149e+00 +0.0000000000000000e+00 +3.0999999848032829e+00 -1.7153281485469439e-04 +0.0000000000000000e+00 +9.9999998528824652e-01
3.1499999999999968e+00 +8.5977255381686941e+00 +0.0000000000000000e+00 +3.1499999840557567e+00 -1.7430191628394544e-04 +0.0000000000000000e+00 +9.9999998480942076e-01
3.1999999999999966e+00 +8.5977167538430468e+00 +0.0000000000000000e+00 +3.1999999832840968e+00 -1.7707112810543400e-04 +0.0000000000000000e+00 +9.9999998432290760e-01
3.2499999999999964e+00 +8.5977078310540200e+00 +0.0000000000000000e+00 +3.2499999824879193e+00 -1.7984045170059453e-04 +0.0000000000000000e+00 +9.9999998382870581e-01
3.2999999999999963e+00 +8.5976987697959917e+00 +0.0000000000000000e+00 +3.2999999816668395e+00 -1.8260988844000500e-04 +0.0000000000000000e+00 +9.9999998332681417e-01
3.3499999999999961e+00 +8.5976895700632685e+00 +0.0000000000000000e+00 +3.3499999808204728e+00 -1.8537943968338692e-04 +0.0000000000000000e+00 +9.9999998281723146e-01
3.3999999999999959e+00 +8.5976802318500916e+00 +0.0000000000000000e+00 +3.3999999799484346e+00 -1.8814910677960548e-04 +0.0000000000000000e+00 +9.9999998229995657e-01
3.4499999999999957e+00 +8.5976707551506362e+00 +0.0000000000000000e+00 +3.4499999790503404e+00 -1.9091889106666944e-04 +0.0000000000000000e+00 +9.9999998177498828e-01
3.4999999999999956e+00 +8.5976611399590102e+00 +0.0000000000000000e+00 +3.4999999781258051e+00 -1.9368879387173123e-04 +0.0000000000000000e+00 +9.9999998124232536e-01
3.5499999999999954e+00 +8.5976513862692521e+00 +0.0000000000000000e+00 +3.5499999771744446e+00 -1.9645881651108704e-04 +0.0000000000000000e+00 +9.9999998070196650e-01
3.5999999999999952e+00 +8.5976414940753401e+00 +0.0000000000000000e+00 +3.5999999761958734e+00 -1.9922896029017675e-04 +0.0000000000000000e+00 +9.9999998015391045e-01
3.6499999999999950e+00 +8.5976314633711830e+00 +0.0000000000000000e+00 +3.6499999751897070e+00 -2.0199922650358402e-04 +0.0000000000000000e+00 +9.9999997959815601e-01
3.6999999999999948e+00 +8.5976212941506276e+00 +0.0000000000000000e+00 +3.6999999741555607e+00 -2.0476961643503631e-04 +0.0000000000000000e+00 +9.9999997903470184e-01
3.7499999999999947e+00 +8.5976109864074566e+00 +0.0000000000000000e+00 +3.7499999730930491e+00 -2.0754013135740492e-04 +0.0000000000000000e+00 +9.9999997846354671e-01
3.7999999999999945e+00 +8.5976005401353888e+00 +0.0000000000000000e+00 +3.7999999720017872e+00 -2.1031077253270497e-04 +0.0000000000000000e+00 +9.9999997788468920e-01
3.8499999999999943e+00 +8.5975899553280790e+00 +0.0000000000000000e+00 +3.8499999708813899e+00 -2.1308154121209551e-04 +0.0000000000000000e+00 +9.9999997729812806e-01
3.8999999999999941e+00 +8.5975792319791218e+00 +0.0000000000000000e+00 +3.8999999697314718e+00 -2.1585243863587951e-04 +0.0000000000000000e+00 +9.9999997670386198e-01
3.9499999999999940e+00 +8.5975683700820493e+00 +0.0000000000000000e+00 +3.9499999685516478e+00 -2.1862346603350382e-04 +0.0000000000000000e+00 +9.9999997610188962e-01
3.9999999999999938e+00 +8.5975573696303318e+00 +0.0000000000000000e+00 +3.9999999673415325e+00 -2.2139462462355928e-04 +0.0000000000000000e+00 +9.9999997549220965e-01
4.0499999999999936e+00 +8.5975462306173807e+00 +0.0000000000000000e+00 +4.0499999661007404e+00 -2.2416591561364151e-04 +0.0000000000000000e+00 +9.9999997487482073e-01
4.0999999999999934e+00 +8.5975349530365452e+00 +0.0000000000000000e+00 +4.0999999648288865e+00 -2.2693734019881896e-04 +0.0000000000000000e+00 +9.9999997424972142e-01
4.1499999999999932e+00 +8.5975235368811145e+00 +0.0000000000000000e+00 +4.1499999635255849e+00 -2.2970889956010118e-04 +0.0000000000000000e+00 +9.9999997361691029e-01
4.1999999999999931e+00 +8.5975119821443222e+00 +0.0000000000000000e+00 +4.1999999621904491e+00 -2.3248059486429950e-04 +0.0000000000000000e+00 +9.9999997297638610e-01
4.2499999999999929e+00 +8.5975002888193419e+00 +0.0000000000000000e+00 +4.2499999608230947e+00 -2.3525242726402709e-04 +0.0000000000000000e+00 +9.9999997232814730e-01
4.2999999999999927e+00 +8.5974884568992920e+00 +0.0000000000000000e+00 +4.2999999594231353e+00 -2.3802439789769885e-04 +0.0000000000000000e+00 +9.9999997167219257e-01
4.3499999999999925e+00 +8.5974764863772304e+00 +0.0000000000000000e+00 +4.3499999579901854e+00 -2.4079650788953147e-04 +0.0000000000000000e+00 +9.9999997100852045e-01
4.3999999999999924e+00 +8.5974643772461619e+00 +0.0000000000000000e+00 +4.3999999565238586e+00 -2.4356875834954345e-04 +0.0000000000000000e+00 +9.9999997033712951e-01
4.4499999999999922e+00 +8.5974521294990360e+00 +0.0000000000000000e+00 +4.4499999550237694e+00 -2.4634115037355499e-04 +0.0000000000000000e+00 +9.9999996965801830e-01
4.4999999999999920e+00 +8.5974397431287475e+00 +0.0000000000000000e+00 +4.4999999534895316e+00 -2.4911368504318811e-04 +0.0000000000000000e+00 +9.9999996897118537e-01
4.5499999999999918e+00 +8.5974272181281375e+00 +0.0000000000000000e+00 +4.5499999519207588e+00 -2.5188636342586643e-04 +0.0000000000000000e+00 +9.9999996827662929e-01
4.5999999999999917e+00 +8.5974145544899923e+00 +0.0000000000000000e+00 +4.5999999503170654e+00 -2.5465918657481540e-04 +0.0000000000000000e+00 +9.9999996757434861e-01
4.6499999999999915e+00 +8.5974017522070501e+00 +0.0000000000000000e+00 +4.6499999486780652e+00 -2.5743215552906211e-04 +0.0000000000000000e+00 +9.9999996686434189e-01
4.6999999999999913e+00 +8.5973888112719923e+00 +0.0000000000000000e+00 +4.6999999470033709e+00 -2.6020527131343532e-04 +0.0000000000000000e+00 +9.9999996614660758e-01
4.7499999999999911e+00 +8.5973757316774542e+00 +0.0000000000000000e+00 +4.7499999452925969e+00 -2.6297853493856542e-04 +0.0000000000000000e+00 +9.9999996542114422e-01
4.7999999999999909e+00 +8.5973625134160176e+00 +0.0000000000000000e+00 +4.7999999435453562e+00 -2.6575194740088447e-04 +0.0000000000000000e+00 +9.9999996468795038e-01
4.8499999999999908e+00 +8.5973491564802167e+00 +0.0000000000000000e+00 +4.8499999417612631e+00 -2.6852550968262605e-04 +0.0000000000000000e+00 +9.9999996394702451e-01
4.8999999999999906e+00 +8.5973356608625355e+00 +0.0000000000000000e+00 +4.8999999399399305e+00 -2.7129922275182536e-04 +0.0000000000000000e+00 +9.9999996319836504e-01
4.9499999999999904e+00 +8.5973220265554122e+00 +0.0000000000000000e+00 +4.9499999380809712e+00 -2.7407308756231916e-04 +0.0000000000000000e+00 +9.9999996244197042e-01
4.9999999999999902e+00 +8.5973082535512351e+00 +0.0000000000000000e+00 +4.9999999361839986e+00 -2.7684710505374575e-04 +0.0000000000000000e+00 +9.9999996167783922e-01
5.0499999999999901e+00 +8.5972943418423462e+00 +0.0000000000000000e+00 +5.0499999342486257e+00 -2.7962127615154480e-04 +0.0000000000000000e+00 +9.9999996090596999e-01
5.0999999999999899e+00 +8.5972802914210433e+00 +0.0000000000000000e+00 +5.0999999322744660e+00 -2.8239560176695751e-04 +0.0000000000000000e+00 +9.9999996012636105e-01
5.1499999999999897e+00 +8.5972661022795780e+00 +0.0000000000000000e+00 +5.1499999302611323e+00 -2.8517008279702646e-04 +0.0000000000000000e+00 +9.9999995933901087e-01
5.1999999999999895e+00 +8.5972517744101573e+00 +0.0000000000000000e+00 +5.1999999282082374e+00 -2.8794472012459558e-04 +0.0000000000000000e+00 +9.9999995854391799e-01
5.2499999999999893e+00 +8.5972373078049458e+00 +0.0000000000000000e+00 +5.2499999261153949e+00 -2.9071951461831020e-04 +0.0000000000000000e+00 +9.9999995774108075e-01
5.2999999999999892e+00 +8.5972227024560617e+00 +0.0000000000000000e+00 +5.2999999239822166e+00 -2.9349446713261692e-04 +0.0000000000000000e+00 +9.9999995693049770e-01
5.3499999999999890e+00 +8.5972079583555843e+00 +0.0000000000000000e+00 +5.3499999218083154e+00 -2.9626957850776360e-04 +0.0000000000000000e+00 +9.9999995611216719e-01
5.3999999999999888e+00 +8.5971930754955501e+00 +0.0000000000000000e+00 +5.3999999195933039e+00 -2.9904484956979927e-04 +0.0000000000000000e+00 +9.9999995528608765e-01
5.4499999999999886e+00 +8.5971780538679532e+00 +0.0000000000000000e+00 +5.4499999173367950e+00 -3.0182028113057418e-04 +0.0000000000000000e+00 +9.9999995445225753e-01
5.4999999999999885e+00 +8.5971628934647484e+00 +0.0000000000000000e+00 +5.4999999150384005e+00 -3.0459587398773966e-04 +0.0000000000000000e+00 +9.9999995361067529e-01
5.5499999999999883e+00 +8.5971475942778532e+00 +0.0000000000000000e+00 +5.5499999126977331e+00 -3.0737162892474808e-04 +0.0000000000000000e+00 +9.9999995276133935e-01
5.5999999999999881e+00 +8.5971321562991427e+00 +0.0000000000000000e+00 +5.5999999103144047e+00 -3.1014754671085290e-04 +0.0000000000000000e+00 +9.9999995190424806e-01
5.6499999999999879e+00 +8.5971165795204563e+00 +0.0000000000000000e+00 +5.6499999078880281e+00 -3.1292362810110850e-04 +0.0000000000000000e+00 +9.9999995103939987e-01
5.6999999999999877e+00 +8.5971008639335942e+00 +0.0000000000000000e+00 +5.6999999054182151e+00 -3.1569987383637025e-04 +0.0000000000000000e+00 +9.9999995016679322e-01
5.7499999999999876e+00 +8.5970850095303213e+00 +0.0000000000000000e+00 +5.7499999029045776e+00 -3.1847628464329428e-04 +0.0000000000000000e+00 +9.9999994928642644e-01
5.7999999999999874e+00 +8.5970690163023669e+00 +0.0000000000000000e+00 +5.7999999003467284e+00 -3.2125286123433754e-04 +0.0000000000000000e+00 +9.9999994839829787e-01
5.8499999999999872e+00 +8.5970528842414229e+00 +0.0000000000000000e+00 +5.8499998977442784e+00 -3.2402960430775779e-04 +0.0000000000000000e+00 +9.9999994750240606e-01
5.8999999999999870e+00 +8.5970366133391494e+00 +0.0000000000000000e+00 +5.8999998950968395e+00 -3.2680651454761346e-04 +0.0000000000000000e+00 +9.9999994659874925e-01
