# field on trajectory
# s[mm] rx[mm] ry[mm] rz[mm] bx[T] by[T] bz[T]
0.0000000000000000e+00 +8.5389999999999997e+00 +0.0000000000000000e+00 +0.0000000000000000e+00 -2.9297561833982171e-02 -5.2431817051145690e-01 +5.2964340368240890e-03
5.0000000000000003e-02 +8.5389999308798128e+00 +0.0000000000000000e+00 +4.9999999999936304e-02 -2.9297186106387926e-02 -5.2431762789133329e-01 +5.2958864285313819e-03
1.0000000000000001e-01 +8.5389997235193356e+00 +0.0000000000000000e+00 +9.9999999999490399e-02 -2.9296829961655443e-02 -5.2431742096115885e-01 +5.2953404433234829e-03
1.5000000000000002e-01 +8.5389993779186195e+00 +0.0000000000000000e+00 +1.4999999999828006e-01 -2.9296493406339649e-02 -5.2431754933479480e-01 +5.2947962025830389e-03
2.0000000000000001e-01 +8.5389988940776327e+00 +0.0000000000000000e+00 +1.9999999999592311e-01 -2.9296176446996412e-02 -5.2431801262611755e-01 +5.2942538276927430e-03
2.5000000000000000e-01 +8.5389982719962525e+00 +0.0000000000000000e+00 +2.4999999999203731e-01 -2.9295879090182626e-02 -5.2431881044902118e-01 +5.2937134400353626e-03
2.9999999999999999e-01 +8.5389975116742693e+00 +0.0000000000000000e+00 +2.9999999998624050e-01 -2.9295601342456169e-02 -5.2431994241741509e-01 +5.2931751609937416e-03
3.4999999999999998e-01 +8.5389966131113848e+00 +0.0000000000000000e+00 +3.4999999997815040e-01 -2.9295343210375947e-02 -5.2432140814522521e-01 +5.2926391119508011e-03
3.9999999999999997e-01 +8.5389955763072116e+00 +0.0000000000000000e+00 +3.9999999996738483e-01 -2.9295104700501846e-02 -5.2432320724639403e-01 +5.2921054142895628e-03
4.4999999999999996e-01 +8.5389944012612755e+00 +0.0000000000000000e+00 +4.4999999995356155e-01 -2.9294885819394746e-02 -5.2432533933487935e-01 +5.2915741893931551e-03
4.9999999999999994e-01 +8.5389930879730152e+00 +0.0000000000000000e+00 +4.9999999993629834e-01 -2.9294686573616550e-02 -5.2432780402465484e-01 +5.2910455586448121e-03
5.4999999999999993e-01 +8.5389916364417786e+00 +0.0000000000000000e+00 +5.4999999991521298e-01 -2.9294506969730166e-02 -5.2433060092971029e-01 +5.2905196434279052e-03
5.9999999999999998e-01 +8.5389900466668305e+00 +0.0000000000000000e+00 +5.9999999988992325e-01 -2.9294347014299522e-02 -5.2433372966405112e-01 +5.2899965651259286e-03
6.5000000000000002e-01 +8.5389883186473448e+00 +0.0000000000000000e+00 +6.4999999986004675e-01 -2.9294206713889524e-02 -5.2433718984169808e-01 +5.2894764451225269e-03
7.0000000000000007e-01 +8.5389864523824102e+00 +0.0000000000000000e+00 +6.9999999982520134e-01 -2.9294086075066145e-02 -5.2434098107668747e-01 +5.2889594048014937e-03
7.5000000000000011e-01 +8.5389844478710266e+00 +0.0000000000000000e+00 +7.4999999978500476e-01 -2.9293985104396326e-02 -5.2434510298307146e-01 +5.2884455655467849e-03
8.0000000000000016e-01 +8.5389823051121088e+00 +0.0000000000000000e+00 +7.9999999973907465e-01 -2.9293903808448069e-02 -5.2434955517491633e-01 +5.2879350487425340e-03
8.5000000000000020e-01 +8.5389800241044806e+00 +0.0000000000000000e+00 +8.4999999968702877e-01 -2.9293842193790363e-02 -5.2435433726630487e-01 +5.2874279757730526e-03
9.0000000000000024e-01 +8.5389776048468828e+00 +0.0000000000000000e+00 +8.9999999962848476e-01 -2.9293800266993231e-02 -5.2435944887133357e-01 +5.2869244680228402e-03
9.5000000000000029e-01 +8.5389750473379671e+00 +0.0000000000000000e+00 +9.4999999956306036e-01 -2.9293778034627741e-02 -5.2436488960411531e-01 +5.2864246468766101e-03
1.0000000000000002e+00 +8.5389723515762981e+00 +0.0000000000000000e+00 +9.9999999949037310e-01 -2.9293775503265951e-02 -5.2437065907877645e-01 +5.2859286337192763e-03
1.0500000000000003e+00 +8.5389695175603553e+00 +0.0000000000000000e+00 +1.0499999994100406e+00 -2.9293792679480991e-02 -5.2437675690945895e-01 +5.2854365499359780e-03
1.1000000000000003e+00 +8.5389665452885311e+00 +0.0000000000000000e+00 +1.0999999993216807e+00 -2.9293829569846976e-02 -5.2438318271031925e-01 +5.2849485169120820e-03
1.1500000000000004e+00 +8.5389634347591326e+00 +0.0000000000000000e+00 +1.1499999992249108e+00 -2.9293886180939123e-02 -5.2438993609552820e-01 +5.2844646560331983e-03
1.2000000000000004e+00 +8.5389601859703781e+00 +0.0000000000000000e+00 +1.1999999991193486e+00 -2.9293962519333607e-02 -5.2439701667927063e-01 +5.2839850886851874e-03
1.2500000000000004e+00 +8.5389567989204007e+00 +0.0000000000000000e+00 +1.2499999990046116e+00 -2.9294058591607705e-02 -5.2440442407574739e-01 +5.2835099362541693e-03
1.3000000000000005e+00 +8.5389532736072482e+00 +0.0000000000000000e+00 +1.2999999988803173e+00 -2.9294174404339682e-02 -5.2441215789917150e-01 +5.2830393201265292e-03
1.3500000000000005e+00 +8.5389496100288795e+00 +0.0000000000000000e+00 +1.3499999987460833e+00 -2.9294309964108901e-02 -5.2442021776377112e-01 +5.2825733616889336e-03
1.4000000000000006e+00 +8.5389458081831719e+00 +0.0000000000000000e+00 +1.3999999986015270e+00 -2.9294465277495740e-02 -5.2442860328378849e-01 +5.2821121823283419e-03
1.4500000000000006e+00 +8.5389418680679139e+00 +0.0000000000000000e+00 +1.4499999984462659e+00 -2.9294640351081608e-02 -5.2443731407347960e-01 +5.2816559034320077e-03
1.5000000000000007e+00 +8.5389377896808085e+00 +0.0000000000000000e+00 +1.4999999982799175e+00 -2.9294835191449001e-02 -5.2444634974711435e-01 +5.2812046463874950e-03
1.5500000000000007e+00 +8.5389335730194738e+00 +0.0000000000000000e+00 +1.5499999981020993e+00 -2.9295049805181432e-02 -5.2445570991897617e-01 +5.2807585325826811e-03
1.6000000000000008e+00 +8.5389292180814405e+00 +0.0000000000000000e+00 +1.5999999979124284e+00 -2.9295284198863493e-02 -5.2446539420336225e-01 +5.2803176834057761e-03
1.6500000000000008e+00 +8.5389247248641578e+00 +0.0000000000000000e+00 +1.6499999977105224e+00 -2.9295538379080832e-02 -5.2447540221458333e-01 +5.2798822202453259e-03
1.7000000000000008e+00 +8.5389200933649843e+00 +0.0000000000000000e+00 +1.6999999974959987e+00 -2.9295812352420125e-02 -5.2448573356696382e-01 +5.2794522644902184e-03
1.7500000000000009e+00 +8.5389153235811985e+00 +0.0000000000000000e+00 +1.7499999972684743e+00 -2.9296106125469158e-02 -5.2449638787484110e-01 +5.2790279375297070e-03
1.8000000000000009e+00 +8.5389104155099904e+00 +0.0000000000000000e+00 +1.7999999970275669e+00 -2.9296419704816740e-02 -5.2450736475256532e-01 +5.2786093607534029e-03
1.8500000000000010e+00 +8.5389053691484662e+00 +0.0000000000000000e+00 +1.8499999967728933e+00 -2.9296753097052732e-02 -5.2451866381450052e-01 +5.2781966555513014e-03
1.9000000000000010e+00 +8.5389001844936470e+00 +0.0000000000000000e+00 +1.8999999965040708e+00 -2.9297106308768119e-02 -5.2453028467502394e-01 +5.2777899433137749e-03
1.9500000000000011e+00 +8.5388948615424667e+00 +0.0000000000000000e+00 +1.9499999962207168e+00 -2.9297479346554915e-02 -5.2454222694852481e-01 +5.2773893454315969e-03
2.0000000000000009e+00 +8.5388894002917795e+00 +0.0000000000000000e+00 +1.9999999959224484e+00 -2.9297872217006204e-02 -5.2455449024940570e-01 +5.2769949832959431e-03
2.0500000000000007e+00 +8.5388838007383505e+00 +0.0000000000000000e+00 +2.0499999956088826e+00 -2.9298284907806386e-02 -5.2456707392129376e-01 +5.2766069674051843e-03
2.1000000000000005e+00 +8.5388780628788634e+00 +0.0000000000000000e+00 +2.0999999952796364e+00 -2.9298717331001919e-02 -5.2457997622467556e-01 +5.2762253646852393e-03
2.1500000000000004e+00 +8.5388721867099147e+00 +0.0000000000000000e+00 +2.1499999949343267e+00 -2.9299169379730761e-02 -5.2459319514925906e-01 +5.2758502311693201e-03
2.2000000000000002e+00 +8.5388661722280208e+00 +0.0000000000000000e+00 +2.1999999945725710e+00 -2.9299640947132326e-02 -5.2460672868476399e-01 +5.2754816228911634e-03
2.2500000000000000e+00 +8.5388600194296131e+00 +0.0000000000000000e+00 +2.2499999941939857e+00 -2.9300131926347363e-02 -5.2462057482092017e-01 +5.2751195958850522e-03
2.2999999999999998e+00 +8.5388537283110413e+00 +0.0000000000000000e+00 +2.2999999937981879e+00 -2.9300642210518035e-02 -5.2463473154746665e-01 +5.2747642061858379e-03
2.3499999999999996e+00 +8.5388472988685731e+00 +0.0000000000000000e+00 +2.3499999933847948e+00 -2.9301171692787991e-02 -5.2464919685415290e-01 +5.2744155098289475e-03
2.3999999999999995e+00 +8.5388407310983929e+00 +0.0000000000000000e+00 +2.3999999929534228e+00 -2.9301720266302265e-02 -5.2466396873073806e-01 +5.2740735628503902e-03
2.4499999999999993e+00 +8.5388340249966088e+00 +0.0000000000000000e+00 +2.4499999925036891e+00 -2.9302287824207386e-02 -5.2467904516699027e-01 +5.2737384212867919e-03
2.4999999999999991e+00 +8.5388271805592435e+00 +0.0000000000000000e+00 +2.4999999920352098e+00 -2.9302874259651383e-02 -5.2469442415268730e-01 +5.2734101411753970e-03
2.5499999999999989e+00 +8.5388201977822433e+00 +0.0000000000000000e+00 +2.5499999915476019e+00 -2.9303479465783783e-02 -5.2471010367761539e-01 +5.2730887785540810e-03
2.5999999999999988e+00 +8.5388130766614747e+00 +0.0000000000000000e+00 +2.5999999910404825e+00 -2.9304103335755612e-02 -5.2472608173157020e-01 +5.2727743894613703e-03
2.6499999999999986e+00 +8.5388058171927241e+00 +0.0000000000000000e+00 +2.6499999905134679e+00 -2.9304745762719478e-02 -5.2474235630435540e-01 +5.2724670299364564e-03
2.6999999999999984e+00 +8.5387984193717017e+00 +0.0000000000000000e+00 +2.6999999899661744e+00 -2.9305406639829522e-02 -5.2475892538578306e-01 +5.2721667560192108e-03
2.7499999999999982e+00 +8.5387908831940393e+00 +0.0000000000000000e+00 +2.7499999893982188e+00 -2.9306085860241474e-02 -5.2477578696567351e-01 +5.2718736237501963e-03
2.7999999999999980e+00 +8.5387832086552891e+00 +0.0000000000000000e+00 +2.7999999888092173e+00 -2.9306783317112662e-02 -5.2479293903385560e-01 +5.2715876891706835e-03
2.8499999999999979e+00 +8.5387753957509318e+00 +0.0000000000000000e+00 +2.8499999881987867e+00 -2.9307498903602035e-02 -5.2481037958016430e-01 +5.2713090083226707e-03
2.8999999999999977e+00 +8.5387674444763668e+00 +0.0000000000000000e+00 +2.8999999875665430e+00 -2.9308232512870163e-02 -5.2482810659444346e-01 +5.2710376372488883e-03
2.9499999999999975e+00 +8.5387593548269223e+00 +0.0000000000000000e+00 +2.9499999869121027e+00 -2.9308984038079276e-02 -5.2484611806654413e-01 +5.2707736319928169e-03
2.9999999999999973e+00 +8.5387511267978482e+00 +0.0000000000000000e+00 +2.9999999862350823e+00 -2.9309753372393301e-02 -5.2486441198632372e-01 +5.2705170485987142e-03
3.0499999999999972e+00 +8.5387427603843218e+00 +0.0000000000000000e+00 +3.0499999855350977e+00 -2.9310540408977809e-02 -5.2488298634364683e-01 +5.2702679431116074e-03
3.0999999999999970e+00 +8.5387342555814456e+00 +0.0000000000000000e+00 +3.0999999848117650e+00 -2.9311345041000112e-02 -5.2490183912838495e-01 +5.2700263715773259e-03
3.1499999999999968e+00 +8.5387256123842494e+00 +0.0000000000000000e+00 +3.1499999840647006e+00 -2.9312167161629248e-02 -5.2492096833041568e-01 +5.2697923900425119e-03
3.1999999999999966e+00 +8.5387168307876902e+00 +0.0000000000000000e+00 +3.1999999832935204e+00 -2.9313006664035988e-02 -5.2494037193962284e-01 +5.2695660545546237e-03
3.2499999999999964e+00 +8.5387079107866501e+00 +0.0000000000000000e+00 +3.2499999824978403e+00 -2.9313863441392880e-02 -5.2496004794589646e-01 +5.2693474211619705e-03
3.2999999999999963e+00 +8.5386988523759442e+00 +0.0000000000000000e+00 +3.2999999816772760e+00 -2.9314737386874252e-02 -5.2497999433913245e-01 +5.2691365459137090e-03
3.3499999999999961e+00 +8.5386896555503125e+00 +0.0000000000000000e+00 +3.3499999808314440e+00 -2.9315628393656229e-02 -5.2500020910923184e-01 +5.2689334848598631e-03
3.3999999999999959e+00 +8.5386803203044241e+00 +0.0000000000000000e+00 +3.3999999799599601e+00 -2.9316536354916746e-02 -5.2502069024610132e-01 +5.2687382940513477e-03
3.4499999999999957e+00 +8.5386708466328809e+00 +0.0000000000000000e+00 +3.4499999790624396e+00 -2.9317461163835622e-02 -5.2504143573965290e-01 +5.2685510295399762e-03
3.4999999999999956e+00 +8.5386612345302115e+00 +0.0000000000000000e+00 +3.4999999781384985e+00 -2.9318402713594472e-02 -5.2506244357980292e-01 +5.2683717473784673e-03
3.5499999999999954e+00 +8.5386514839908791e+00 +0.0000000000000000e+00 +3.5499999771877522e+00 -2.9319360897376821e-02 -5.2508371175647361e-01 +5.2682005036204672e-03
3.5999999999999952e+00 +8.5386415950092758e+00 +0.0000000000000000e+00 +3.5999999762098165e+00 -2.9320335608368102e-02 -5.2510523825959032e-01 +5.2680373543205795e-03
3.6499999999999950e+00 +8.5386315675797260e+00 +0.0000000000000000e+00 +3.6499999752043069e+00 -2.9321326739755627e-02 -5.2512702107908393e-01 +5.2678823555343491e-03
3.6999999999999948e+00 +8.5386214016964868e+00 +0.0000000000000000e+00 +3.6999999741708391e+00 -2.9322334184728658e-02 -5.2514905820488855e-01 +5.2677355633182982e-03
3.7499999999999947e+00 +8.5386110973537459e+00 +0.0000000000000000e+00 +3.7499999731090283e+00 -2.9323357836478402e-02 -5.2517134762694262e-01 +5.2675970337299344e-03
3.7999999999999945e+00 +8.5386006545456290e+00 +0.0000000000000000e+00 +3.7999999720184898e+00 -2.9324397588198034e-02 -5.2519388733518790e-01 +5.2674668228277653e-03
3.8499999999999943e+00 +8.5385900732661923e+00 +0.0000000000000000e+00 +3.8499999708988391e+00 -2.9325453333082733e-02 -5.2521667531957017e-01 +5.2673449866713238e-03
3.8999999999999941e+00 +8.5385793535094301e+00 +0.0000000000000000e+00 +3.8999999697496910e+00 -2.9326524964329654e-02 -5.2523970957003818e-01 +5.2672315813211594e-03
3.9499999999999940e+00 +8.5385684952692671e+00 +0.0000000000000000e+00 +3.9499999685706610e+00 -2.9327612375137996e-02 -5.2526298807654326e-01 +5.2671266628388736e-03
3.9999999999999938e+00 +8.5385574985395660e+00 +0.0000000000000000e+00 +3.9999999673613642e+00 -2.9328715458709010e-02 -5.2528650882904038e-01 +5.2670302872871279e-03
4.0499999999999936e+00 +8.5385463633141256e+00 +0.0000000000000000e+00 +4.0499999661214154e+00 -2.9329834104516263e-02 -5.2531026974434580e-01 +5.2669424944927117e-03
4.0999999999999934e+00 +8.5385350895866825e+00 +0.0000000000000000e+00 +4.0999999648504302e+00 -2.9330968187115270e-02 -5.2533426844671693e-01 +5.2668632593352738e-03
4.1499999999999932e+00 +8.5385236773509074e+00 +0.0000000000000000e+00 +4.1499999635480229e+00 -2.9332117577330192e-02 -5.2535850248727312e-01 +5.2667925404576849e-03
4.1999999999999931e+00 +8.5385121266004127e+00 +0.0000000000000000e+00 +4.1999999622138082e+00 -2.9333282145983183e-02 -5.2538296941713869e-01 +5.2667302965029462e-03
4.2499999999999929e+00 +8.5385004373287465e+00 +0.0000000000000000e+00 +4.2499999608474015e+00 -2.9334461763894273e-02 -5.2540766678744089e-01 +5.2666764861141781e-03
4.2999999999999927e+00 +8.5384886095293968e+00 +0.0000000000000000e+00 +4.2999999594484173e+00 -2.9335656301881244e-02 -5.2543259214931137e-01 +5.2666310679346066e-03
4.3499999999999925e+00 +8.5384766431957946e+00 +0.0000000000000000e+00 +4.3499999580164701e+00 -2.9336865630759559e-02 -5.2545774305388426e-01 +5.2665940006075490e-03
4.3999999999999924e+00 +8.5384645383213069e+00 +0.0000000000000000e+00 +4.3999999565511745e+00 -2.9338089621342225e-02 -5.2548311705229755e-01 +5.2665652427763988e-03
4.4499999999999922e+00 +8.5384522948992441e+00 +0.0000000000000000e+00 +4.4499999550521450e+00 -2.9339328144439718e-02 -5.2550871169569224e-01 +5.2665447530846092e-03
4.4999999999999920e+00 +8.5384399129228576e+00 +0.0000000000000000e+00 +4.4999999535189952e+00 -2.9340581070859878e-02 -5.2553452453521177e-01 +5.2665324901756847e-03
4.5499999999999918e+00 +8.5384273923853424e+00 +0.0000000000000000e+00 +4.5499999519513405e+00 -2.9341848271407775e-02 -5.2556055312200323e-01 +5.2665284126931595e-03
4.5999999999999917e+00 +8.5384147332798364e+00 +0.0000000000000000e+00 +4.5999999503487947e+00 -2.9343129616885635e-02 -5.2558679500721595e-01 +5.2665324792805918e-03
4.6499999999999915e+00 +8.5384019355994187e+00 +0.0000000000000000e+00 +4.6499999487109722e+00 -2.9344424978092726e-02 -5.2561324774200113e-01 +5.2665446485815363e-03
4.6999999999999913e+00 +8.5383889993371174e+00 +0.0000000000000000e+00 +4.6999999470374876e+00 -2.9345734225825280e-02 -5.2563990887751333e-01 +5.2665648792395454e-03
4.7499999999999911e+00 +8.5383759244859032e+00 +0.0000000000000000e+00 +4.7499999453279544e+00 -2.9347057230876328e-02 -5.2566677596490841e-01 +5.2665931298981469e-03
4.7999999999999909e+00 +8.5383627110386922e+00 +0.0000000000000000e+00 +4.7999999435819865e+00 -2.9348393864035663e-02 -5.2569384655534468e-01 +5.2666293592008263e-03
4.8499999999999908e+00 +8.5383493589883450e+00 +0.0000000000000000e+00 +4.8499999417991981e+00 -2.9349743996089698e-02 -5.2572111819998224e-01 +5.2666735257910213e-03
4.8999999999999906e+00 +8.5383358683276747e+00 +0.0000000000000000e+00 +4.8999999399792031e+00 -2.9351107497821376e-02 -5.2574858844998251e-01 +5.2667255883120968e-03
4.9499999999999904e+00 +8.5383222390494371e+00 +0.0000000000000000e+00 +4.9499999381216151e+00 -2.9352484240010055e-02 -5.2577625485650936e-01 +5.2667855054073396e-03
4.9999999999999902e+00 +8.5383084711463368e+00 +0.0000000000000000e+00 +4.9999999362260477e+00 -2.9353874093431435e-02 -5.2580411497072654e-01 +5.2668532357199437e-03
5.0499999999999901e+00 +8.5382945646110304e+00 +0.0000000000000000e+00 +5.0499999342921145e+00 -2.9355276928857397e-02 -5.2583216634380081e-01 +5.2669287378929869e-03
5.0999999999999899e+00 +8.5382805194361211e+00 +0.0000000000000000e+00 +5.0999999323194292e+00 -2.9356692617055979e-02 -5.2586040652689814e-01 +5.2670119705694280e-03
5.1499999999999897e+00 +8.5382663356141641e+00 +0.0000000000000000e+00 +5.1499999303076054e+00 -2.9358121028791182e-02 -5.2588883307118717e-01 +5.2671028923920848e-03
5.1999999999999895e+00 +8.5382520131376634e+00 +0.0000000000000000e+00 +5.1999999282562559e+00 -2.9359562034822959e-02 -5.2591744352783576e-01 +5.2672014620036229e-03
5.2499999999999893e+00 +8.5382375519990781e+00 +0.0000000000000000e+00 +5.2499999261649943e+00 -2.9361015505907032e-02 -5.2594623544801344e-01 +5.2673076380465372e-03
5.2999999999999892e+00 +8.5382229521908144e+00 +0.0000000000000000e+00 +5.2999999240334343e+00 -2.9362481312794834e-02 -5.2597520638288930e-01 +5.2674213791631466e-03
5.3499999999999890e+00 +8.5382082137052357e+00 +0.0000000000000000e+00 +5.3499999218611887e+00 -2.9363959326233383e-02 -5.2600435388363320e-01 +5.2675426439955687e-03
5.3999999999999888e+00 +8.5381933365346576e+00 +0.0000000000000000e+00 +5.3999999196478710e+00 -2.9365449416965225e-02 -5.2603367550141555e-01 +5.2676713911857130e-03
5.4499999999999886e+00 +8.5381783206713475e+00 +0.0000000000000000e+00 +5.4499999173930931e+00 -2.9366951455728249e-02 -5.2606316878740567e-01 +5.2678075793752667e-03
5.4999999999999885e+00 +8.5381631661075303e+00 +0.0000000000000000e+00 +5.4999999150964687e+00 -2.9368465313255654e-02 -5.2609283129277351e-01 +5.2679511672056745e-03
5.5499999999999883e+00 +8.5381478728353866e+00 +0.0000000000000000e+00 +5.5499999127576105e+00 -2.9369990860275835e-02 -5.2612266056868806e-01 +5.2681021133181268e-03
5.5999999999999881e+00 +8.5381324408470505e+00 +0.0000000000000000e+00 +5.5999999103761322e+00 -2.9371527967512218e-02 -5.2615265416631851e-01 +5.2682603763535502e-03
5.6499999999999879e+00 +8.5381168701346155e+00 +0.0000000000000000e+00 +5.6499999079516456e+00 -2.9373076505683243e-02 -5.2618280963683273e-01 +5.2684259149525852e-03
5.6999999999999877e+00 +8.5381011606901289e+00 +0.0000000000000000e+00 +5.6999999054837627e+00 -2.9374636345502209e-02 -5.2621312453139779e-01 +5.2685986877555784e-03
5.7499999999999876e+00 +8.5380853125056007e+00 +0.0000000000000000e+00 +5.7499999029720970e+00 -2.9376207357677184e-02 -5.2624359640118024e-01 +5.2687786534025638e-03
5.7999999999999874e+00 +8.5380693255729945e+00 +0.0000000000000000e+00 +5.7999999004162603e+00 -2.9377789412910898e-02 -5.2627422279734515e-01 +5.2689657705332514e-03
5.8499999999999872e+00 +8.5380531998842368e+00 +0.0000000000000000e+00 +5.8499998978158656e+00 -2.9379382381900646e-02 -5.2630500127105628e-01 +5.2691599977870126e-03
5.8999999999999870e+00 +8.5380369354312133e+00 +0.0000000000000000e+00 +5.8999998951705255e+00 -2.9380986135338179e-02 -5.2633592937347629e-01 +5.2693612938028642e-03
