# field on trajectory
# s[mm] rx[mm] ry[mm] rz[mm] bx[T] by[T] bz[T]
0.0000000000000000e+00 +8.3650000000000002e+00 +0.0000000000000000e+00 +0.0000000000000000e+00 -3.1548114007197238e-02 -5.7924082158869161e-01 +5.8932257147846128e-03
5.0000000000000003e-02 +8.3649999309662544e+00 +0.0000000000000000e+00 +4.9999999999936463e-02 -3.1548144390576828e-02 -5.7924107240662936e-01 +5.8954081062462292e-03
1.0000000000000001e-01 +8.3649997238649618e+00 +0.0000000000000000e+00 +9.9999999999491662e-02 -3.1548194616664284e-02 -5.7924172657778605e-01 +5.8975954175663585e-03
1.5000000000000002e-01 +8.3649993786959680e+00 +0.0000000000000000e+00 +1.4999999999828434e-01 -3.1548264514872373e-02 -5.7924278310348210e-01 +5.8997875479939203e-03
2.0000000000000001e-01 +8.3649988954590189e+00 +0.0000000000000000e+00 +1.9999999999593326e-01 -3.1548353914614434e-02 -5.7924424098505534e-01 +5.9019843967780426e-03
2.5000000000000000e-01 +8.3649982741537681e+00 +0.0000000000000000e+00 +2.4999999999205719e-01 -3.1548462645304441e-02 -5.7924609922386017e-01 +5.9041858631680771e-03
2.9999999999999999e-01 +8.3649975147797733e+00 +0.0000000000000000e+00 +2.9999999998627480e-01 -3.1548590536356946e-02 -5.7924835682126841e-01 +5.9063918464135690e-03
3.4999999999999998e-01 +8.3649966173364962e+00 +0.0000000000000000e+00 +3.4999999997820486e-01 -3.1548737417187077e-02 -5.7925101277866820e-01 +5.9086022457642733e-03
3.9999999999999997e-01 +8.3649955818233028e+00 +0.0000000000000000e+00 +3.9999999996746610e-01 -3.1548903117210612e-02 -5.7925406609746610e-01 +5.9108169604701515e-03
4.4999999999999996e-01 +8.3649944082394665e+00 +0.0000000000000000e+00 +4.4999999995367723e-01 -3.1549087465843929e-02 -5.7925751577908380e-01 +5.9130358897813507e-03
4.9999999999999994e-01 +8.3649930965841648e+00 +0.0000000000000000e+00 +4.9999999993645694e-01 -3.1549290292503987e-02 -5.7926136082496149e-01 +5.9152589329482157e-03
5.4999999999999993e-01 +8.3649916468564811e+00 +0.0000000000000000e+00 +5.4999999991542392e-01 -3.1549511426608362e-02 -5.7926560023655493e-01 +5.9174859892212744e-03
5.9999999999999998e-01 +8.3649900590554047e+00 +0.0000000000000000e+00 +5.9999999989019692e-01 -3.1549750697575256e-02 -5.7927023301533753e-01 +5.9197169578512447e-03
6.5000000000000002e-01 +8.3649883331798307e+00 +0.0000000000000000e+00 +6.4999999986039458e-01 -3.1550007934823480e-02 -5.7927525816279923e-01 +5.9219517380890195e-03
7.0000000000000007e-01 +8.3649864692285618e+00 +0.0000000000000000e+00 +6.9999999982563554e-01 -3.1550282967772486e-02 -5.7928067468044708e-01 +5.9241902291856750e-03
7.5000000000000011e-01 +8.3649844672003084e+00 +0.0000000000000000e+00 +7.4999999978553844e-01 -3.1550575625842271e-02 -5.7928648156980367e-01 +5.9264323303924492e-03
8.0000000000000016e-01 +8.3649823270936849e+00 +0.0000000000000000e+00 +7.9999999973972202e-01 -3.1550885738453535e-02 -5.7929267783240979e-01 +5.9286779409607566e-03
8.5000000000000020e-01 +8.3649800489072135e+00 +0.0000000000000000e+00 +8.4999999968780482e-01 -3.1551213135027553e-02 -5.7929926246982211e-01 +5.9309269601421745e-03
9.0000000000000024e-01 +8.3649776326393273e+00 +0.0000000000000000e+00 +8.9999999962940547e-01 -3.1551557644986239e-02 -5.7930623448361385e-01 +5.9331792871884365e-03
9.5000000000000029e-01 +8.3649750782883618e+00 +0.0000000000000000e+00 +9.4999999956414249e-01 -3.1551919097752130e-02 -5.7931359287537532e-01 +5.9354348213514390e-03
1.0000000000000002e+00 +8.3649723858525658e+00 +0.0000000000000000e+00 +9.9999999949163454e-01 -3.1552297322748397e-02 -5.7932133664671281e-01 +5.9376934618832269e-03
1.0500000000000003e+00 +8.3649695553300916e+00 +0.0000000000000000e+00 +1.0499999994115001e+00 -3.1552692149398820e-02 -5.7932946479924929e-01 +5.9399551080359953e-03
1.1000000000000003e+00 +8.3649665867190031e+00 +0.0000000000000000e+00 +1.0999999993233578e+00 -3.1553103407127837e-02 -5.7933797633462458e-01 +5.9422196590620813e-03
1.1500000000000004e+00 +8.3649634800172699e+00 +0.0000000000000000e+00 +1.1499999992268259e+00 -3.1553530925360514e-02 -5.7934687025449405e-01 +5.9444870142139642e-03
1.2000000000000004e+00 +8.3649602352227728e+00 +0.0000000000000000e+00 +1.1999999991215231e+00 -3.1553974533522537e-02 -5.7935614556053050e-01 +5.9467570727442659e-03
1.2500000000000004e+00 +8.3649568523333020e+00 +0.0000000000000000e+00 +1.2499999990070678e+00 -3.1554434061040269e-02 -5.7936580125442250e-01 +5.9490297339057346e-03
1.3000000000000005e+00 +8.3649533313465554e+00 +0.0000000000000000e+00 +1.2999999988830784e+00 -3.1554909337340675e-02 -5.7937583633787537e-01 +5.9513048969512469e-03
1.3500000000000005e+00 +8.3649496722601402e+00 +0.0000000000000000e+00 +1.3499999987491733e+00 -3.1555400191851365e-02 -5.7938624981260989e-01 +5.9535824611338098e-03
1.4000000000000006e+00 +8.3649458750715748e+00 +0.0000000000000000e+00 +1.3999999986049709e+00 -3.1555906454000610e-02 -5.7939704068036435e-01 +5.9558623257065478e-03
1.4500000000000006e+00 +8.3649419397782871e+00 +0.0000000000000000e+00 +1.4499999984500898e+00 -3.1556427953217316e-02 -5.7940820794289205e-01 +5.9581443899227029e-03
1.5000000000000007e+00 +8.3649378663776162e+00 +0.0000000000000000e+00 +1.4999999982841479e+00 -3.1556964518931051e-02 -5.7941975060196327e-01 +5.9604285530356288e-03
1.5500000000000007e+00 +8.3649336548668103e+00 +0.0000000000000000e+00 +1.5499999981067638e+00 -3.1557515980572014e-02 -5.7943166765936394e-01 +5.9627147142987964e-03
1.6000000000000008e+00 +8.3649293052430291e+00 +0.0000000000000000e+00 +1.5999999979175556e+00 -3.1558082167571069e-02 -5.7944395811689675e-01 +5.9650027729657700e-03
1.6500000000000008e+00 +8.3649248175033435e+00 +0.0000000000000000e+00 +1.6499999977161417e+00 -3.1558662909359755e-02 -5.7945662097638029e-01 +5.9672926282902262e-03
1.7000000000000008e+00 +8.3649201916447335e+00 +0.0000000000000000e+00 +1.6999999975021400e+00 -3.1559258035370186e-02 -5.7946965523964822e-01 +5.9695841795259341e-03
1.7500000000000009e+00 +8.3649154276640942e+00 +0.0000000000000000e+00 +1.7499999972751690e+00 -3.1559867375035251e-02 -5.7948305990855153e-01 +5.9718773259267565e-03
1.8000000000000009e+00 +8.3649105255582299e+00 +0.0000000000000000e+00 +1.7999999970348466e+00 -3.1560490757788454e-02 -5.7949683398495677e-01 +5.9741719667466466e-03
1.8500000000000010e+00 +8.3649054853238560e+00 +0.0000000000000000e+00 +1.8499999967807910e+00 -3.1561128013063898e-02 -5.7951097647074645e-01 +5.9764680012396433e-03
1.9000000000000010e+00 +8.3649003069576029e+00 +0.0000000000000000e+00 +1.8999999965126202e+00 -3.1561778970296425e-02 -5.7952548636781842e-01 +5.9787653286598672e-03
1.9500000000000011e+00 +8.3648949904560119e+00 +0.0000000000000000e+00 +1.9499999962299523e+00 -3.1562443458921521e-02 -5.7954036267808695e-01 +5.9810638482615183e-03
2.0000000000000009e+00 +8.3648895358155375e+00 +0.0000000000000000e+00 +1.9999999959324055e+00 -3.1563121308375360e-02 -5.7955560440348253e-01 +5.9833634592988709e-03
2.0500000000000007e+00 +8.3648839430325470e+00 +0.0000000000000000e+00 +2.0499999956195976e+00 -3.1563812368659433e-02 -5.7957121035862103e-01 +5.9856640557883044e-03
2.1000000000000005e+00 +8.3648782121033207e+00 +0.0000000000000000e+00 +2.0999999952911463e+00 -3.1564516572034851e-02 -5.7958717860881637e-01 +5.9879655107944081e-03
2.1500000000000004e+00 +8.3648723430240519e+00 +0.0000000000000000e+00 +2.1499999949466697e+00 -3.1565233871328119e-02 -5.7960350703206465e-01 +5.9902676921438254e-03
2.2000000000000002e+00 +8.3648663357908486e+00 +0.0000000000000000e+00 +2.1999999945857853e+00 -3.1565964219366624e-02 -5.7962019350637672e-01 +5.9925704676632224e-03
2.2500000000000000e+00 +8.3648601903997335e+00 +0.0000000000000000e+00 +2.2499999942081113e+00 -3.1566707568978558e-02 -5.7963723590977589e-01 +5.9948737051792600e-03
2.2999999999999998e+00 +8.3648539068466459e+00 +0.0000000000000000e+00 +2.2999999938132651e+00 -3.1567463872992932e-02 -5.7965463212029777e-01 +5.9971772725186112e-03
2.3499999999999996e+00 +8.3648474851274379e+00 +0.0000000000000000e+00 +2.3499999934008646e+00 -3.1568233084239603e-02 -5.7967238001599097e-01 +5.9994810375079343e-03
2.3999999999999995e+00 +8.3648409252378784e+00 +0.0000000000000000e+00 +2.3999999929705274e+00 -3.1569015155549267e-02 -5.7969047747491720e-01 +6.0017848679738816e-03
2.4499999999999993e+00 +8.3648342271736560e+00 +0.0000000000000000e+00 +2.4499999925218710e+00 -3.1569810039753461e-02 -5.7970892237514882e-01 +6.0040886317430809e-03
2.4999999999999991e+00 +8.3648273909303725e+00 +0.0000000000000000e+00 +2.4999999920545126e+00 -3.1570617689684624e-02 -5.7972771259477140e-01 +6.0063921966421359e-03
2.5499999999999989e+00 +8.3648204165035498e+00 +0.0000000000000000e+00 +2.5499999915680704e+00 -3.1571438058176041e-02 -5.7974684601188264e-01 +6.0086954304976207e-03
2.5999999999999988e+00 +8.3648133038886279e+00 +0.0000000000000000e+00 +2.5999999910621616e+00 -3.1572271098061905e-02 -5.7976632050459120e-01 +6.0109982011360757e-03
2.6499999999999986e+00 +8.3648060530809634e+00 +0.0000000000000000e+00 +2.6499999905364038e+00 -3.1573116762177250e-02 -5.7978613395101741e-01 +6.0133003763839839e-03
2.6999999999999984e+00 +8.3647986640758347e+00 +0.0000000000000000e+00 +2.6999999899904141e+00 -3.1573975003358089e-02 -5.7980628422929337e-01 +6.0156018240677877e-03
2.7499999999999982e+00 +8.3647911368684387e+00 +0.0000000000000000e+00 +2.7499999894238099e+00 -3.1574845774441286e-02 -5.7982676921756171e-01 +6.0179024120138669e-03
2.7999999999999980e+00 +8.3647834714538938e+00 +0.0000000000000000e+00 +2.7999999888362082e+00 -3.1575729028264651e-02 -5.7984758679397697e-01 +6.0202020080485398e-03
2.8499999999999979e+00 +8.3647756678272369e+00 +0.0000000000000000e+00 +2.8499999882272262e+00 -3.1576624717666917e-02 -5.7986873483670354e-01 +6.0225004799980544e-03
2.8999999999999977e+00 +8.3647677259834268e+00 +0.0000000000000000e+00 +2.8999999875964813e+00 -3.1577532795487744e-02 -5.7989021122391693e-01 +6.0247976956885755e-03
2.9499999999999975e+00 +8.3647596459173457e+00 +0.0000000000000000e+00 +2.9499999869435904e+00 -3.1578453214567793e-02 -5.7991201383380309e-01 +6.0270935229461949e-03
2.9999999999999973e+00 +8.3647514276237960e+00 +0.0000000000000000e+00 +2.9999999862681710e+00 -3.1579385927748588e-02 -5.7993414054455816e-01 +6.0293878295969066e-03
3.0499999999999972e+00 +8.3647430710975037e+00 +0.0000000000000000e+00 +3.0499999855698396e+00 -3.1580330887872758e-02 -5.7995658923438875e-01 +6.0316804834666133e-03
3.0999999999999970e+00 +8.3647345763331185e+00 +0.0000000000000000e+00 +3.0999999848482136e+00 -3.1581288047783762e-02 -5.7997935778151044e-01 +6.0339713523811060e-03
3.1499999999999968e+00 +8.3647259433252135e+00 +0.0000000000000000e+00 +3.1499999841029096e+00 -3.1582257360326139e-02 -5.8000244406414947e-01 +6.0362603041660811e-03
3.1999999999999966e+00 +8.3647171720682856e+00 +0.0000000000000000e+00 +3.1999999833335444e+00 -3.1583238778345395e-02 -5.8002584596054174e-01 +6.0385472066471066e-03
3.2499999999999964e+00 +8.3647082625567570e+00 +0.0000000000000000e+00 +3.2499999825397343e+00 -3.1584232254688024e-02 -5.8004956134893160e-01 +6.0408319276496333e-03
3.2999999999999963e+00 +8.3646992147849755e+00 +0.0000000000000000e+00 +3.2999999817210965e+00 -3.1585237742201587e-02 -5.8007358810757337e-01 +6.0431143349989787e-03
3.3499999999999961e+00 +8.3646900287472139e+00 +0.0000000000000000e+00 +3.3499999808772478e+00 -3.1586255193734598e-02 -5.8009792411473016e-01 +6.0453942965203377e-03
3.3999999999999959e+00 +8.3646807044376725e+00 +0.0000000000000000e+00 +3.3999999800078045e+00 -3.1587284562136657e-02 -5.8012256724867417e-01 +6.0476716800387494e-03
3.4499999999999957e+00 +8.3646712418504752e+00 +0.0000000000000000e+00 +3.4499999791123828e+00 -3.1588325800258381e-02 -5.8014751538768561e-01 +6.0499463533791112e-03
3.4999999999999956e+00 +8.3646616409796763e+00 +0.0000000000000000e+00 +3.4999999781905995e+00 -3.1589378860951450e-02 -5.8017276641005400e-01 +6.0522181843661697e-03
3.5499999999999954e+00 +8.3646519018192578e+00 +0.0000000000000000e+00 +3.5499999772420709e+00 -3.1590443697068572e-02 -5.8019831819407663e-01 +6.0544870408245025e-03
3.5999999999999952e+00 +8.3646420243631301e+00 +0.0000000000000000e+00 +3.5999999762664134e+00 -3.1591520261463585e-02 -5.8022416861805914e-01 +6.0567527905785248e-03
3.6499999999999950e+00 +8.3646320086051311e+00 +0.0000000000000000e+00 +3.6499999752632433e+00 -3.1592608506991346e-02 -5.8025031556031459e-01 +6.0590153014524776e-03
3.6999999999999948e+00 +8.3646218545390276e+00 +0.0000000000000000e+00 +3.6999999742321767e+00 -3.1593708386507831e-02 -5.8027675689916536e-01 +6.0612744412704214e-03
3.7499999999999947e+00 +8.3646115621585171e+00 +0.0000000000000000e+00 +3.7499999731728297e+00 -3.1594819852870104e-02 -5.8030349051293939e-01 +6.0635300778562311e-03
3.7999999999999945e+00 +8.3646011314572277e+00 +0.0000000000000000e+00 +3.7999999720848185e+00 -3.1595942858936341e-02 -5.8033051427997329e-01 +6.0657820790335822e-03
3.8499999999999943e+00 +8.3645905624287185e+00 +0.0000000000000000e+00 +3.8499999709677590e+00 -3.1597077357565839e-02 -5.8035782607861086e-01 +6.0680303126259610e-03
3.8999999999999941e+00 +8.3645798550664807e+00 +0.0000000000000000e+00 +3.8999999698212671e+00 -3.1598223301618988e-02 -5.8038542378720215e-01 +6.0702746464566396e-03
3.9499999999999940e+00 +8.3645690093639349e+00 +0.0000000000000000e+00 +3.9499999686449585e+00 -3.1599380643957356e-02 -5.8041330528410540e-01 +6.0725149483486802e-03
3.9999999999999938e+00 +8.3645580253144356e+00 +0.0000000000000000e+00 +3.9999999674384492e+00 -3.1600549337443599e-02 -5.8044146844768418e-01 +6.0747510861249238e-03
4.0499999999999936e+00 +8.3645469029112700e+00 +0.0000000000000000e+00 +4.0499999662013551e+00 -3.1601729320501322e-02 -5.8046991103598122e-01 +6.0769829312940929e-03
4.0999999999999934e+00 +8.3645356421476578e+00 +0.0000000000000000e+00 +4.0999999649332910e+00 -3.1602920473793275e-02 -5.8049863032573046e-01 +6.0792103701088765e-03
4.1499999999999932e+00 +8.3645242430167546e+00 +0.0000000000000000e+00 +4.1499999636338734e+00 -3.1604122663541422e-02 -5.8052762347333975e-01 +6.0814332925072075e-03
4.1999999999999931e+00 +8.3645127055116504e+00 +0.0000000000000000e+00 +4.1999999623027175e+00 -3.1605335755967051e-02 -5.8055688763521840e-01 +6.0836515884260525e-03
4.2499999999999929e+00 +8.3645010296253695e+00 +0.0000000000000000e+00 +4.2499999609394381e+00 -3.1606559617290711e-02 -5.8058641996777849e-01 +6.0858651478014007e-03
4.2999999999999927e+00 +8.3644892153508721e+00 +0.0000000000000000e+00 +4.2999999595436513e+00 -3.1607794113732136e-02 -5.8061621762743254e-01 +6.0880738605682116e-03
4.3499999999999925e+00 +8.3644772626810564e+00 +0.0000000000000000e+00 +4.3499999581149726e+00 -3.1609039111510299e-02 -5.8064627777059463e-01 +6.0902776166604135e-03
4.3999999999999924e+00 +8.3644651716087566e+00 +0.0000000000000000e+00 +4.3999999566530166e+00 -3.1610294476843277e-02 -5.8067659755367962e-01 +6.0924763060108602e-03
4.4499999999999922e+00 +8.3644529421267464e+00 +0.0000000000000000e+00 +4.4499999551573985e+00 -3.1611560075948231e-02 -5.8070717413310280e-01 +6.0946698185513053e-03
4.4999999999999920e+00 +8.3644405742277375e+00 +0.0000000000000000e+00 +4.4999999536277331e+00 -3.1612835775041384e-02 -5.8073800466527981e-01 +6.0968580442123761e-03
4.5499999999999918e+00 +8.3644280679043828e+00 +0.0000000000000000e+00 +4.5499999520636356e+00 -3.1614121440337921e-02 -5.8076908630662649e-01 +6.0990408729235520e-03
4.5999999999999917e+00 +8.3644154231492713e+00 +0.0000000000000000e+00 +4.5999999504647215e+00 -3.1615416938052018e-02 -5.8080041621355760e-01 +6.1012181946131306e-03
4.6499999999999915e+00 +8.3644026399549372e+00 +0.0000000000000000e+00 +4.6499999488306054e+00 -3.1616722134396709e-02 -5.8083199154248766e-01 +6.1033898992081921e-03
4.6999999999999913e+00 +8.3643897183138538e+00 +0.0000000000000000e+00 +4.6999999471609017e+00 -3.1618036895583963e-02 -5.8086380944983029e-01 +6.1055558766345934e-03
4.7499999999999911e+00 +8.3643766582184380e+00 +0.0000000000000000e+00 +4.7499999454552251e+00 -3.1619361087824482e-02 -5.8089586709199770e-01 +6.1077160168169168e-03
4.7999999999999909e+00 +8.3643634596610479e+00 +0.0000000000000000e+00 +4.7999999437131899e+00 -3.1620694577327767e-02 -5.8092816162540051e-01 +6.1098702096784585e-03
4.8499999999999908e+00 +8.3643501226339865e+00 +0.0000000000000000e+00 +4.8499999419344109e+00 -3.1622037230302068e-02 -5.8096069020644736e-01 +6.1120183451411937e-03
4.8999999999999906e+00 +8.3643366471295000e+00 +0.0000000000000000e+00 +4.8999999401185024e+00 -3.1623388912954263e-02 -5.8099344999154512e-01 +6.1141603131257541e-03
4.9499999999999904e+00 +8.3643230331397795e+00 +0.0000000000000000e+00 +4.9499999382650790e+00 -3.1624749491489898e-02 -5.8102643813709798e-01 +6.1162960035513955e-03
4.9999999999999902e+00 +8.3643092806569630e+00 +0.0000000000000000e+00 +4.9999999363737553e+00 -3.1626118832113109e-02 -5.8105965179950725e-01 +6.1184253063359673e-03
5.0499999999999901e+00 +8.3642953896731331e+00 +0.0000000000000000e+00 +5.0499999344441449e+00 -3.1627496801026535e-02 -5.8109308813517146e-01 +6.1205481113959011e-03
5.0999999999999899e+00 +8.3642813601803194e+00 +0.0000000000000000e+00 +5.0999999324758623e+00 -3.1628883264431328e-02 -5.8112674430048583e-01 +6.1226643086461563e-03
5.1499999999999897e+00 +8.3642671921705016e+00 +0.0000000000000000e+00 +5.1499999304685211e+00 -3.1630278088527100e-02 -5.8116061745184122e-01 +6.1247737880002224e-03
5.1999999999999895e+00 +8.3642528856356044e+00 +0.0000000000000000e+00 +5.1999999284217360e+00 -3.1631681139511876e-02 -5.8119470474562540e-01 +6.1268764393700636e-03
5.2499999999999893e+00 +8.3642384405675045e+00 +0.0000000000000000e+00 +5.2499999263351196e+00 -3.1633092283581993e-02 -5.8122900333822158e-01 +6.1289721526661123e-03
5.2999999999999892e+00 +8.3642238569580254e+00 +0.0000000000000000e+00 +5.2999999242082865e+00 -3.1634511386932108e-02 -5.8126351038600843e-01 +6.1310608177972308e-03
5.3499999999999890e+00 +8.3642091347989425e+00 +0.0000000000000000e+00 +5.3499999220408512e+00 -3.1635938315755230e-02 -5.8129822304535950e-01 +6.1331423246706830e-03
5.3999999999999888e+00 +8.3641942740819832e+00 +0.0000000000000000e+00 +5.3999999198324264e+00 -3.1637372936242456e-02 -5.8133313847264367e-01 +6.1352165631921168e-03
5.4499999999999886e+00 +8.3641792747988237e+00 +0.0000000000000000e+00 +5.4499999175826250e+00 -3.1638815114583149e-02 -5.8136825382422419e-01 +6.1372834232655245e-03
5.4999999999999885e+00 +8.3641641369410937e+00 +0.0000000000000000e+00 +5.4999999152910615e+00 -3.1640264716964760e-02 -5.8140356625645839e-01 +6.1393427947932172e-03
5.5499999999999883e+00 +8.3641488605003769e+00 +0.0000000000000000e+00 +5.5499999129573494e+00 -3.1641721609572876e-02 -5.8143907292569796e-01 +6.1413945676758062e-03
5.5999999999999881e+00 +8.3641334454682106e+00 +0.0000000000000000e+00 +5.5999999105811016e+00 -3.1643185658591040e-02 -5.8147477098828781e-01 +6.1434386318121688e-03
5.6499999999999879e+00 +8.3641178918360861e+00 +0.0000000000000000e+00 +5.6499999081619308e+00 -3.1644656730200844e-02 -5.8151065760056653e-01 +6.1454748770994128e-03
5.6999999999999877e+00 +8.3641021995954503e+00 +0.0000000000000000e+00 +5.6999999056994506e+00 -3.1646134690581806e-02 -5.8154672991886580e-01 +6.1475031934328664e-03
5.7499999999999876e+00 +8.3640863687377038e+00 +0.0000000000000000e+00 +5.7499999031932738e+00 -3.1647619405911362e-02 -5.8158298509950956e-01 +6.1495234707060415e-03
5.7999999999999874e+00 +8.3640703992542047e+00 +0.0000000000000000e+00 +5.7999999006430141e+00 -3.1649110742364796e-02 -5.8161942029881497e-01 +6.1515355988105910e-03
5.8499999999999872e+00 +8.3640542911362701e+00 +0.0000000000000000e+00 +5.8499998980482832e+00 -3.1650608566115179e-02 -5.8165603267309085e-01 +6.1535394676363138e-03
5.8999999999999870e+00 +8.3640380443751710e+00 +0.0000000000000000e+00 +5.8999998954086950e+00 -3.1652112743333384e-02 -5.8169281937863815e-01 +6.1555349670711001e-03
