# trajectory
# s[mm] rx[mm] ry[mm] rz[mm] px[rad] py[rad] pz[rad]
0.0000000000000000e+00 +8.5980000000000008e+00 +0.0000000000000000e+00 +0.0000000000000000e+00 +0.0000000000000000e+00 +0.0000000000000000e+00 +1.0000000000000000e+00
-5.0000000000000003e-02 +8.5979999309987978e+00 +0.0000000000000000e+00 -4.9999999999936526e-02 +2.7600539019107108e-06 +0.0000000000000000e+00 +9.9999999999619105e-01
-1.0000000000000001e-01 +8.5979997239940129e+00 +0.0000000000000000e+00 -9.9999999999492148e-02 +5.5201436087191205e-06 +0.0000000000000000e+00 +9.9999999998476397e-01
-1.5000000000000002e-01 +8.5979993789838094e+00 +0.0000000000000000e+00 -1.4999999999828595e-01 +8.2802709573813086e-06 +0.0000000000000000e+00 +9.9999999996571853e-01
-2.0000000000000001e-01 +8.5979988959662599e+00 +0.0000000000000000e+00 -1.9999999999593701e-01 +1.1040437778392899e-05 +0.0000000000000000e+00 +9.9999999993905431e-01
-2.5000000000000000e-01 +8.5979982749393447e+00 +0.0000000000000000e+00 -2.4999999999206440e-01 +1.3800645895789146e-05 +0.0000000000000000e+00 +9.9999999990477106e-01
-2.9999999999999999e-01 +8.5979975159009516e+00 +0.0000000000000000e+00 -2.9999999998628712e-01 +1.6560897127145010e-05 +0.0000000000000000e+00 +9.9999999986286836e-01
-3.4999999999999998e-01 +8.5979966188488817e+00 +0.0000000000000000e+00 -3.4999999997822423e-01 +1.9321193283575245e-05 +0.0000000000000000e+00 +9.9999999981334575e-01
-3.9999999999999997e-01 +8.5979955837808433e+00 +0.0000000000000000e+00 -3.9999999996749469e-01 +2.2081536169734476e-05 +0.0000000000000000e+00 +9.9999999975620291e-01
-4.4999999999999996e-01 +8.5979944106944561e+00 +0.0000000000000000e+00 -4.4999999995371753e-01 +2.4841927583817277e-05 +0.0000000000000000e+00 +9.9999999969143938e-01
-4.9999999999999994e-01 +8.5979930995872476e+00 +0.0000000000000000e+00 -4.9999999993651167e-01 +2.7602369317558246e-05 +0.0000000000000000e+00 +9.9999999961905461e-01
-5.4999999999999993e-01 +8.5979916504566560e+00 +0.0000000000000000e+00 -5.4999999991549597e-01 +3.0362863156232096e-05 +0.0000000000000000e+00 +9.9999999953904828e-01
-5.9999999999999998e-01 +8.5979900633000330e+00 +0.0000000000000000e+00 -5.9999999989028940e-01 +3.3123410878653713e-05 +0.0000000000000000e+00 +9.9999999945141982e-01
-6.5000000000000002e-01 +8.5979883381146394e+00 +0.0000000000000000e+00 -6.4999999986051082e-01 +3.5884014257178246e-05 +0.0000000000000000e+00 +9.9999999935616879e-01
-7.0000000000000007e-01 +8.5979864748976489e+00 +0.0000000000000000e+00 -6.9999999982577921e-01 +3.8644675057701183e-05 +0.0000000000000000e+00 +9.9999999925329452e-01
-7.5000000000000011e-01 +8.5979844736461466e+00 +0.0000000000000000e+00 -7.4999999978571330e-01 +4.1405395039658423e-05 +0.0000000000000000e+00 +9.9999999914279658e-01
-8.0000000000000016e-01 +8.5979823343571287e+00 +0.0000000000000000e+00 -7.9999999973993186e-01 +4.4166175956026337e-05 +0.0000000000000000e+00 +9.9999999902467440e-01
-8.5000000000000020e-01 +8.5979800570275060e+00 +0.0000000000000000e+00 -8.4999999968805362e-01 +4.6927019553321866e-05 +0.0000000000000000e+00 +9.9999999889892732e-01
-9.0000000000000024e-01 +8.5979776416541007e+00 +0.0000000000000000e+00 -8.9999999962969746e-01 +4.9687927571602569e-05 +0.0000000000000000e+00 +9.9999999876555479e-01
-9.5000000000000029e-01 +8.5979750882336479e+00 +0.0000000000000000e+00 -9.4999999956448200e-01 +5.2448901744466718e-05 +0.0000000000000000e+00 +9.9999999862455624e-01
-1.0000000000000002e+00 +8.5979723967627955e+00 +0.0000000000000000e+00 -9.9999999949202600e-01 +5.5209943799053355e-05 +0.0000000000000000e+00 +9.9999999847593091e-01
-1.0500000000000003e+00 +8.5979695672381080e+00 +0.0000000000000000e+00 -1.0499999994119480e+00 +5.7971055456042357e-05 +0.0000000000000000e+00 +9.9999999831967823e-01
-1.1000000000000003e+00 +8.5979665996560612e+00 +0.0000000000000000e+00 -1.0999999993238667e+00 +6.0732238429654527e-05 +0.0000000000000000e+00 +9.9999999815579743e-01
-1.1500000000000004e+00 +8.5979634940130474e+00 +0.0000000000000000e+00 -1.1499999992274006e+00 +6.3493494427651636e-05 +0.0000000000000000e+00 +9.9999999798428796e-01
-1.2000000000000004e+00 +8.5979602503053734e+00 +0.0000000000000000e+00 -1.1999999991221684e+00 +6.6254825151336520e-05 +0.0000000000000000e+00 +9.9999999780514892e-01
-1.2500000000000004e+00 +8.5979568685292591e+00 +0.0000000000000000e+00 -1.2499999990077884e+00 +6.9016232295553132e-05 +0.0000000000000000e+00 +9.9999999761837965e-01
-1.3000000000000005e+00 +8.5979533486808428e+00 +0.0000000000000000e+00 -1.2999999988838791e+00 +7.1777717548686593e-05 +0.0000000000000000e+00 +9.9999999742397949e-01
-1.3500000000000005e+00 +8.5979496907561757e+00 +0.0000000000000000e+00 -1.3499999987500590e+00 +7.4539282592663299e-05 +0.0000000000000000e+00 +9.9999999722194755e-01
-1.4000000000000006e+00 +8.5979458947512271e+00 +0.0000000000000000e+00 -1.3999999986059466e+00 +7.7300929102950942e-05 +0.0000000000000000e+00 +9.9999999701228304e-01
-1.4500000000000006e+00 +8.5979419606618812e+00 +0.0000000000000000e+00 -1.4499999984511600e+00 +8.0062658748558598e-05 +0.0000000000000000e+00 +9.9999999679498519e-01
-1.5000000000000007e+00 +8.5979378884839388e+00 +0.0000000000000000e+00 -1.4999999982853178e+00 +8.2824473192036802e-05 +0.0000000000000000e+00 +9.9999999657005312e-01
-1.5500000000000007e+00 +8.5979336782131206e+00 +0.0000000000000000e+00 -1.5499999981080381e+00 +8.5586374089477579e-05 +0.0000000000000000e+00 +9.9999999633748604e-01
-1.6000000000000008e+00 +8.5979293298450621e+00 +0.0000000000000000e+00 -1.5999999979189392e+00 +8.8348363090514539e-05 +0.0000000000000000e+00 +9.9999999609728307e-01
-1.6500000000000008e+00 +8.5979248433753170e+00 +0.0000000000000000e+00 -1.6499999977176392e+00 +9.1110441838322914e-05 +0.0000000000000000e+00 +9.9999999584944343e-01
-1.7000000000000008e+00 +8.5979202187993558e+00 +0.0000000000000000e+00 -1.6999999975037563e+00 +9.3872611969619645e-05 +0.0000000000000000e+00 +9.9999999559396613e-01
-1.7500000000000009e+00 +8.5979154561125704e+00 +0.0000000000000000e+00 -1.7499999972769085e+00 +9.6634875114663403e-05 +0.0000000000000000e+00 +9.9999999533085027e-01
-1.8000000000000009e+00 +8.5979105553102677e+00 +0.0000000000000000e+00 -1.7999999970367140e+00 +9.9397232897254688e-05 +0.0000000000000000e+00 +9.9999999506009485e-01
-1.8500000000000010e+00 +8.5979055163876765e+00 +0.0000000000000000e+00 -1.8499999967827907e+00 +1.0215968693473587e-04 +0.0000000000000000e+00 +9.9999999478169899e-01
-1.9000000000000010e+00 +8.5979003393399438e+00 +0.0000000000000000e+00 -1.8999999965147565e+00 +1.0492223883799124e-04 +0.0000000000000000e+00 +9.9999999449566168e-01
-1.9500000000000011e+00 +8.5978950241621348e+00 +0.0000000000000000e+00 -1.9499999962322294e+00 +1.0768489021144709e-04 +0.0000000000000000e+00 +9.9999999420198205e-01
-2.0000000000000009e+00 +8.5978895708492384e+00 +0.0000000000000000e+00 -1.9999999959348274e+00 +1.1044764265307174e-04 +0.0000000000000000e+00 +9.9999999390065897e-01
-2.0500000000000007e+00 +8.5978839793961601e+00 +0.0000000000000000e+00 -2.0499999956221679e+00 +1.1321049775416956e-04 +0.0000000000000000e+00 +9.9999999359169145e-01
-2.1000000000000005e+00 +8.5978782497977271e+00 +0.0000000000000000e+00 -2.0999999952938690e+00 +1.1597345709711397e-04 +0.0000000000000000e+00 +9.9999999327507849e-01
-2.1500000000000004e+00 +8.5978723820486866e+00 +0.0000000000000000e+00 -2.1499999949495483e+00 +1.1873652225308063e-04 +0.0000000000000000e+00 +9.9999999295081898e-01
-2.2000000000000002e+00 +8.5978663761437115e+00 +0.0000000000000000e+00 -2.1999999945888233e+00 +1.2149969478184138e-04 +0.0000000000000000e+00 +9.9999999261891193e-01
-2.2500000000000000e+00 +8.5978602320773927e+00 +0.0000000000000000e+00 -2.2499999942113118e+00 +1.2426297623176422e-04 +0.0000000000000000e+00 +9.9999999227935621e-01
-2.2999999999999998e+00 +8.5978539498442466e+00 +0.0000000000000000e+00 -2.2999999938166313e+00 +1.2702636813981347e-04 +0.0000000000000000e+00 +9.9999999193215072e-01
-2.3499999999999996e+00 +8.5978475294387113e+00 +0.0000000000000000e+00 -2.3499999934043991e+00 +1.2978987203154973e-04 +0.0000000000000000e+00 +9.9999999157729436e-01
-2.3999999999999995e+00 +8.5978409708551506e+00 +0.0000000000000000e+00 -2.3999999929742328e+00 +1.3255348942112994e-04 +0.0000000000000000e+00 +9.9999999121478600e-01
-2.4499999999999993e+00 +8.5978342740878517e+00 +0.0000000000000000e+00 -2.4499999925257501e+00 +1.3531722181130747e-04 +0.0000000000000000e+00 +9.9999999084462454e-01
-2.4999999999999991e+00 +8.5978274391310272e+00 +0.0000000000000000e+00 -2.4999999920585676e+00 +1.3808107069343214e-04 +0.0000000000000000e+00 +9.9999999046680876e-01
-2.5499999999999989e+00 +8.5978204659788151e+00 +0.0000000000000000e+00 -2.5499999915723031e+00 +1.4084503754745024e-04 +0.0000000000000000e+00 +9.9999999008133755e-01
-2.5999999999999988e+00 +8.5978133546252806e+00 +0.0000000000000000e+00 -2.5999999910665736e+00 +1.4360912384190459e-04 +0.0000000000000000e+00 +9.9999998968820958e-01
-2.6499999999999986e+00 +8.5978061050644161e+00 +0.0000000000000000e+00 -2.6499999905409966e+00 +1.4637333103393457e-04 +0.0000000000000000e+00 +9.9999998928742373e-01
-2.6999999999999984e+00 +8.5977987172901393e+00 +0.0000000000000000e+00 -2.6999999899951885e+00 +1.4913766056927623e-04 +0.0000000000000000e+00 +9.9999998887897890e-01
-2.7499999999999982e+00 +8.5977911912962970e+00 +0.0000000000000000e+00 -2.7499999894287668e+00 +1.5190211388226222e-04 +0.0000000000000000e+00 +9.9999998846287375e-01
-2.7999999999999980e+00 +8.5977835270766647e+00 +0.0000000000000000e+00 -2.7999999888413480e+00 +1.5466669239582188e-04 +0.0000000000000000e+00 +9.9999998803910695e-01
-2.8499999999999979e+00 +8.5977757246249471e+00 +0.0000000000000000e+00 -2.8499999882325495e+00 +1.5743139752148131e-04 +0.0000000000000000e+00 +9.9999998760767739e-01
-2.8999999999999977e+00 +8.5977677839347795e+00 +0.0000000000000000e+00 -2.8999999876019880e+00 +1.6019623065936334e-04 +0.0000000000000000e+00 +9.9999998716858374e-01
-2.9499999999999975e+00 +8.5977597049997243e+00 +0.0000000000000000e+00 -2.9499999869492801e+00 +1.6296119319818763e-04 +0.0000000000000000e+00 +9.9999998672182466e-01
-2.9999999999999973e+00 +8.5977514878132784e+00 +0.0000000000000000e+00 -2.9999999862740427e+00 +1.6572628651527070e-04 +0.0000000000000000e+00 +9.9999998626739883e-01
-3.0499999999999972e+00 +8.5977431323688691e+00 +0.0000000000000000e+00 -3.0499999855758921e+00 +1.6849151197652587e-04 +0.0000000000000000e+00 +9.9999998580530503e-01
-3.0999999999999970e+00 +8.5977346386598548e+00 +0.0000000000000000e+00 -3.0999999848544451e+00 +1.7125687093646344e-04 +0.0000000000000000e+00 +9.9999998533554191e-01
-3.1499999999999968e+00 +8.5977260066795278e+00 +0.0000000000000000e+00 -3.1499999841093183e+00 +1.7402236473819057e-04 +0.0000000000000000e+00 +9.9999998485810815e-01
-3.1999999999999966e+00 +8.5977172364211114e+00 +0.0000000000000000e+00 -3.1999999833401280e+00 +1.7678799471341147e-04 +0.0000000000000000e+00 +9.9999998437300230e-01
-3.2499999999999964e+00 +8.5977083278777648e+00 +0.0000000000000000e+00 -3.2499999825464907e+00 +1.7955376218242725e-04 +0.0000000000000000e+00 +9.9999998388022304e-01
-3.2999999999999963e+00 +8.5976992810425799e+00 +0.0000000000000000e+00 -3.2999999817280226e+00 +1.8231966845413613e-04 +0.0000000000000000e+00 +9.9999998337976903e-01
-3.3499999999999961e+00 +8.5976900959085842e+00 +0.0000000000000000e+00 -3.3499999808843399e+00 +1.8508571482603336e-04 +0.0000000000000000e+00 +9.9999998287163883e-01
-3.3999999999999959e+00 +8.5976807724687401e+00 +0.0000000000000000e+00 -3.3999999800150587e+00 +1.8785190258421126e-04 +0.0000000000000000e+00 +9.9999998235583110e-01
-3.4499999999999957e+00 +8.5976713107159473e+00 +0.0000000000000000e+00 -3.4499999791197951e+00 +1.9061823300335924e-04 +0.0000000000000000e+00 +9.9999998183234440e-01
-3.4999999999999956e+00 +8.5976617106430400e+00 +0.0000000000000000e+00 -3.4999999781981650e+00 +1.9338470734676390e-04 +0.0000000000000000e+00 +9.9999998130117729e-01
-3.5499999999999954e+00 +8.5976519722427920e+00 +0.0000000000000000e+00 -3.5499999772497848e+00 +1.9615132686630893e-04 +0.0000000000000000e+00 +9.9999998076232832e-01
-3.5999999999999952e+00 +8.5976420955079131e+00 +0.0000000000000000e+00 -3.5999999762742698e+00 +1.9891809280247525e-04 +0.0000000000000000e+00 +9.9999998021579606e-01
-3.6499999999999950e+00 +8.5976320804310511e+00 +0.0000000000000000e+00 -3.6499999752712364e+00 +2.0168500638434098e-04 +0.0000000000000000e+00 +9.9999997966157894e-01
-3.6999999999999948e+00 +8.5976219270047931e+00 +0.0000000000000000e+00 -3.6999999742403000e+00 +2.0445206882958143e-04 +0.0000000000000000e+00 +9.9999997909967564e-01
-3.7499999999999947e+00 +8.5976116352216660e+00 +0.0000000000000000e+00 -3.7499999731810760e+00 +2.0721928134446920e-04 +0.0000000000000000e+00 +9.9999997853008460e-01
-3.7999999999999945e+00 +8.5976012050741364e+00 +0.0000000000000000e+00 -3.7999999720931803e+00 +2.0998664512387414e-04 +0.0000000000000000e+00 +9.9999997795280426e-01
-3.8499999999999943e+00 +8.5975906365546120e+00 +0.0000000000000000e+00 -3.8499999709762283e+00 +2.1275416135126335e-04 +0.0000000000000000e+00 +9.9999997736783319e-01
-3.8999999999999941e+00 +8.5975799296554403e+00 +0.0000000000000000e+00 -3.8999999698298353e+00 +2.1552183119870130e-04 +0.0000000000000000e+00 +9.9999997677516994e-01
-3.9499999999999940e+00 +8.5975690843689119e+00 +0.0000000000000000e+00 -3.9499999686536169e+00 +2.1828965582684973e-04 +0.0000000000000000e+00 +9.9999997617481284e-01
-3.9999999999999938e+00 +8.5975581006872588e+00 +0.0000000000000000e+00 -3.9999999674471884e+00 +2.2105763638496771e-04 +0.0000000000000000e+00 +9.9999997556676046e-01
-4.0499999999999936e+00 +8.5975469786026562e+00 +0.0000000000000000e+00 -4.0499999662101649e+00 +2.2382577401073217e-04 +0.0000000000000000e+00 +9.9999997495101123e-01
-4.0999999999999934e+00 +8.5975357181072223e+00 +0.0000000000000000e+00 -4.0999999649421612e+00 +2.2659406982826309e-04 +0.0000000000000000e+00 +9.9999997432756349e-01
-4.1499999999999932e+00 +8.5975243191930186e+00 +0.0000000000000000e+00 -4.1499999636427924e+00 +2.2936252494614877e-04 +0.0000000000000000e+00 +9.9999997369641580e-01
-4.1999999999999931e+00 +8.5975127818520534e+00 +0.0000000000000000e+00 -4.1999999623116739e+00 +2.3213114045726626e-04 +0.0000000000000000e+00 +9.9999997305756649e-01
-4.2499999999999929e+00 +8.5975011060762814e+00 +0.0000000000000000e+00 -4.2499999609484203e+00 +2.3489991743878144e-04 +0.0000000000000000e+00 +9.9999997241101402e-01
-4.2999999999999927e+00 +8.5974892918576007e+00 +0.0000000000000000e+00 -4.2999999595526468e+00 +2.3766885695214893e-04 +0.0000000000000000e+00 +9.9999997175675681e-01
-4.3499999999999925e+00 +8.5974773391878596e+00 +0.0000000000000000e+00 -4.3499999581239672e+00 +2.4043796004311212e-04 +0.0000000000000000e+00 +9.9999997109479322e-01
-4.3999999999999924e+00 +8.5974652480588531e+00 +0.0000000000000000e+00 -4.3999999566619969e+00 +2.4320722774170316e-04 +0.0000000000000000e+00 +9.9999997042512168e-01
-4.4499999999999922e+00 +8.5974530184623248e+00 +0.0000000000000000e+00 -4.4499999551663505e+00 +2.4597666106224294e-04 +0.0000000000000000e+00 +9.9999996974774052e-01
-4.4999999999999920e+00 +8.5974406503899701e+00 +0.0000000000000000e+00 -4.4999999536366424e+00 +2.4874626100334117e-04 +0.0000000000000000e+00 +9.9999996906264821e-01
-4.5499999999999918e+00 +8.5974281438334312e+00 +0.0000000000000000e+00 -4.5499999520724872e+00 +2.5151602854789617e-04 +0.0000000000000000e+00 +9.9999996836984306e-01
-4.5999999999999917e+00 +8.5974154987843061e+00 +0.0000000000000000e+00 -4.5999999504734985e+00 +2.5428596466309510e-04 +0.0000000000000000e+00 +9.9999996766932342e-01
-4.6499999999999915e+00 +8.5974027152341410e+00 +0.0000000000000000e+00 -4.6499999488392909e+00 +2.5705607030041374e-04 +0.0000000000000000e+00 +9.9999996696108762e-01
-4.6999999999999913e+00 +8.5973897931744361e+00 +0.0000000000000000e+00 -4.6999999471694789e+00 +2.5982634639561662e-04 +0.0000000000000000e+00 +9.9999996624513410e-01
-4.7499999999999911e+00 +8.5973767325966453e+00 +0.0000000000000000e+00 -4.7499999454636761e+00 +2.6259679386875695e-04 +0.0000000000000000e+00 +9.9999996552146109e-01
-4.7999999999999909e+00 +8.5973635334921781e+00 +0.0000000000000000e+00 -4.7999999437214962e+00 +2.6536741362417660e-04 +0.0000000000000000e+00 +9.9999996479006703e-01
-4.8499999999999908e+00 +8.5973501958523979e+00 +0.0000000000000000e+00 -4.8499999419425537e+00 +2.6813820655050599e-04 +0.0000000000000000e+00 +9.9999996405095015e-01
-4.8999999999999906e+00 +8.5973367196686237e+00 +0.0000000000000000e+00 -4.8999999401264622e+00 +2.7090917352066426e-04 +0.0000000000000000e+00 +9.9999996330410890e-01
-4.9499999999999904e+00 +8.5973231049321317e+00 +0.0000000000000000e+00 -4.9499999382728355e+00 +2.7368031539185911e-04 +0.0000000000000000e+00 +9.9999996254954149e-01
-4.9999999999999902e+00 +8.5973093516341557e+00 +0.0000000000000000e+00 -4.9999999363812870e+00 +2.7645163300558684e-04 +0.0000000000000000e+00 +9.9999996178724626e-01
-5.0499999999999901e+00 +8.5972954597658884e+00 +0.0000000000000000e+00 -5.0499999344514306e+00 +2.7922312718763227e-04 +0.0000000000000000e+00 +9.9999996101722155e-01
-5.0999999999999899e+00 +8.5972814293184801e+00 +0.0000000000000000e+00 -5.0999999324828797e+00 +2.8199479874806881e-04 +0.0000000000000000e+00 +9.9999996023946569e-01
-5.1499999999999897e+00 +8.5972672602830436e+00 +0.0000000000000000e+00 -5.1499999304752482e+00 +2.8476664848125827e-04 +0.0000000000000000e+00 +9.9999995945397691e-01
-5.1999999999999895e+00 +8.5972529526506491e+00 +0.0000000000000000e+00 -5.1999999284281486e+00 +2.8753867716585101e-04 +0.0000000000000000e+00 +9.9999995866075353e-01
-5.2499999999999893e+00 +8.5972385064123316e+00 +0.0000000000000000e+00 -5.2499999263411947e+00 +2.9031088556478579e-04 +0.0000000000000000e+00 +9.9999995785979379e-01
-5.2999999999999892e+00 +8.5972239215590847e+00 +0.0000000000000000e+00 -5.2999999242139992e+00 +2.9308327442528976e-04 +0.0000000000000000e+00 +9.9999995705109601e-01
-5.3499999999999890e+00 +8.5972091980818686e+00 +0.0000000000000000e+00 -5.3499999220461749e+00 +2.9585584447887851e-04 +0.0000000000000000e+00 +9.9999995623465854e-01
-5.3999999999999888e+00 +8.5971943359716043e+00 +0.0000000000000000e+00 -5.3999999198373354e+00 +2.9862859644135594e-04 +0.0000000000000000e+00 +9.9999995541047959e-01
-5.4499999999999886e+00 +8.5971793352191810e+00 +0.0000000000000000e+00 -5.4499999175870935e+00 +3.0140153101281426e-04 +0.0000000000000000e+00 +9.9999995457855739e-01
-5.4999999999999885e+00 +8.5971641958154486e+00 +0.0000000000000000e+00 -5.4999999152950618e+00 +3.0417464887763396e-04 +0.0000000000000000e+00 +9.9999995373889028e-01
-5.5499999999999883e+00 +8.5971489177512268e+00 +0.0000000000000000e+00 -5.5499999129608533e+00 +3.0694795070448374e-04 +0.0000000000000000e+00 +9.9999995289147647e-01
-5.5999999999999881e+00 +8.5971335010173018e+00 +0.0000000000000000e+00 -5.5999999105840805e+00 +3.0972143714632050e-04 +0.0000000000000000e+00 +9.9999995203631431e-01
-5.6499999999999879e+00 +8.5971179456044258e+00 +0.0000000000000000e+00 -5.6499999081643555e+00 +3.1249510884038932e-04 +0.0000000000000000e+00 +9.9999995117340201e-01
-5.6999999999999877e+00 +8.5971022515033209e+00 +0.0000000000000000e+00 -5.6999999057012909e+00 +3.1526896640822336e-04 +0.0000000000000000e+00 +9.9999995030273792e-01
-5.7499999999999876e+00 +8.5970864187046772e+00 +0.0000000000000000e+00 -5.7499999031944995e+00 +3.1804301045564390e-04 +0.0000000000000000e+00 +9.9999994942432024e-01
-5.7999999999999874e+00 +8.5970704471991564e+00 +0.0000000000000000e+00 -5.7999999006435932e+00 +3.2081724157276016e-04 +0.0000000000000000e+00 +9.9999994853814722e-01
-5.8499999999999872e+00 +8.5970543369773917e+00 +0.0000000000000000e+00 -5.8499998980481847e+00 +3.2359166033396939e-04 +0.0000000000000000e+00 +9.9999994764421707e-01
