# field on trajectory
# s[mm] rx[mm] ry[mm] rz[mm] bx[T] by[T] bz[T]
0.0000000000000000e+00 +8.5389999999999997e+00 +0.0000000000000000e+00 +0.0000000000000000e+00 -3.0359342698925925e-02 -5.7895163507036695e-01 +5.6591957230166931e-03
-5.0000000000000003e-02 +8.5389999308460141e+00 +0.0000000000000000e+00 -4.9999999999936227e-02 -3.0359492909266806e-02 -5.7895477695825259e-01 +5.6618485411177658e-03
-1.0000000000000001e-01 +8.5389997233835402e+00 +0.0000000000000000e+00 -9.9999999999489886e-02 -3.0359668153849908e-02 -5.7895829437740676e-01 +5.6645087844483756e-03
-1.5000000000000002e-01 +8.5389993776117379e+00 +0.0000000000000000e+00 -1.4999999999827837e-01 -3.0359868427432345e-02 -5.7896218651446840e-01 +5.6671762529979736e-03
-2.0000000000000001e-01 +8.5389988935296781e+00 +0.0000000000000000e+00 -1.9999999999591908e-01 -3.0360093724772556e-02 -5.7896645255609414e-01 +5.6698507467562173e-03
-2.5000000000000000e-01 +8.5389982711363430e+00 +0.0000000000000000e+00 -2.4999999999202940e-01 -3.0360344040630365e-02 -5.7897109168895744e-01 +5.6725320657129508e-03
-2.9999999999999999e-01 +8.5389975104306224e+00 +0.0000000000000000e+00 -2.9999999998622673e-01 -3.0360619369766927e-02 -5.7897610309974923e-01 +5.6752200098582131e-03
-3.4999999999999998e-01 +8.5389966114113189e+00 +0.0000000000000000e+00 -3.4999999997812842e-01 -3.0360919706944732e-02 -5.7898148597517785e-01 +5.6779143791821987e-03
-3.9999999999999997e-01 +8.5389955740771484e+00 +0.0000000000000000e+00 -3.9999999996735186e-01 -3.0361245046927648e-02 -5.7898723950196784e-01 +5.6806149736752546e-03
-4.4999999999999996e-01 +8.5389943984267340e+00 +0.0000000000000000e+00 -4.4999999995351436e-01 -3.0361595384480879e-02 -5.7899336286686198e-01 +5.6833215933278780e-03
-4.9999999999999994e-01 +8.5389930844586157e+00 +0.0000000000000000e+00 -4.9999999993623329e-01 -3.0361970714370967e-02 -5.7899985525661879e-01 +5.6860340381306761e-03
-5.4999999999999993e-01 +8.5389916321712409e+00 +0.0000000000000000e+00 -5.4999999991512594e-01 -3.0362371031365784e-02 -5.7900671585801422e-01 +5.6887521080743689e-03
-5.9999999999999998e-01 +8.5389900415629700e+00 +0.0000000000000000e+00 -5.9999999988980968e-01 -3.0362796330234559e-02 -5.7901394385784111e-01 +5.6914756031497806e-03
-6.5000000000000002e-01 +8.5389883126320782e+00 +0.0000000000000000e+00 -6.4999999985990176e-01 -3.0363246605747823e-02 -5.7902153844290827e-01 +5.6942043233478056e-03
-7.0000000000000007e-01 +8.5389864453767501e+00 +0.0000000000000000e+00 -6.9999999982501937e-01 -3.0363721852677491e-02 -5.7902949880004173e-01 +5.6969380686594179e-03
-7.5000000000000011e-01 +8.5389844397950831e+00 +0.0000000000000000e+00 -7.4999999978477982e-01 -3.0364222065796736e-02 -5.7903782411608340e-01 +5.6996766390756343e-03
-8.0000000000000016e-01 +8.5389822958850896e+00 +0.0000000000000000e+00 -7.9999999973880032e-01 -3.0364747239880120e-02 -5.7904651357789261e-01 +5.7024198345875139e-03
-8.5000000000000020e-01 +8.5389800136446947e+00 +0.0000000000000000e+00 -8.4999999968669815e-01 -3.0365297369703500e-02 -5.7905556637234346e-01 +5.7051674551861402e-03
-9.0000000000000024e-01 +8.5389775930717349e+00 +0.0000000000000000e+00 -8.9999999962809041e-01 -3.0365872450044087e-02 -5.7906498168632814e-01 +5.7079193008626131e-03
-9.5000000000000029e-01 +8.5389750341639594e+00 +0.0000000000000000e+00 -9.4999999956259440e-01 -3.0366472475680337e-02 -5.7907475870675362e-01 +5.7106751716080196e-03
-1.0000000000000002e+00 +8.5389723369190342e+00 +0.0000000000000000e+00 -9.9999999948982710e-01 -3.0367097441392110e-02 -5.7908489662054308e-01 +5.7134348674134378e-03
-1.0500000000000003e+00 +8.5389695013345381e+00 +0.0000000000000000e+00 -1.0499999994094058e+00 -3.0367747341960519e-02 -5.7909539461463655e-01 +5.7161981882699045e-03
-1.1000000000000003e+00 +8.5389665274079611e+00 +0.0000000000000000e+00 -1.0999999993209475e+00 -3.0368422172168039e-02 -5.7910625187598930e-01 +5.7189649341684232e-03
-1.1500000000000004e+00 +8.5389634151367115e+00 +0.0000000000000000e+00 -1.1499999992240693e+00 -3.0369121926798390e-02 -5.7911746759157223e-01 +5.7217349050999247e-03
-1.2000000000000004e+00 +8.5389601645181088e+00 +0.0000000000000000e+00 -1.1999999991183881e+00 -3.0369846600636647e-02 -5.7912904094837248e-01 +5.7245079010552723e-03
-1.2500000000000004e+00 +8.5389567755493889e+00 +0.0000000000000000e+00 -1.2499999990035211e+00 -3.0370596188469195e-02 -5.7914097113339291e-01 +5.7272837220252388e-03
-1.3000000000000005e+00 +8.5389532482277009e+00 +0.0000000000000000e+00 -1.2999999988790851e+00 -3.0371370685083672e-02 -5.7915325733365164e-01 +5.7300621680004956e-03
-1.3500000000000005e+00 +8.5389495825501118e+00 +0.0000000000000000e+00 -1.3499999987446973e+00 -3.0372170085269060e-02 -5.7916589873618218e-01 +5.7328430389715964e-03
-1.4000000000000006e+00 +8.5389457785136003e+00 +0.0000000000000000e+00 -1.3999999985999745e+00 -3.0372994383815629e-02 -5.7917889452803373e-01 +5.7356261349289636e-03
-1.4500000000000006e+00 +8.5389418361150611e+00 +0.0000000000000000e+00 -1.4499999984445335e+00 -3.0373843575514932e-02 -5.7919224389627122e-01 +5.7384112558628774e-03
-1.5000000000000007e+00 +8.5389377553513057e+00 +0.0000000000000000e+00 -1.4999999982779912e+00 -3.0374717655159821e-02 -5.7920594602797415e-01 +5.7411982017634526e-03
-1.5500000000000007e+00 +8.5389335362190621e+00 +0.0000000000000000e+00 -1.5499999980999646e+00 -3.0375616617544426e-02 -5.7922000011023700e-01 +5.7439867726206328e-03
-1.6000000000000008e+00 +8.5389291787149713e+00 +0.0000000000000000e+00 -1.5999999979100703e+00 -3.0376540457464182e-02 -5.7923440533017079e-01 +5.7467767684241796e-03
-1.6500000000000008e+00 +8.5389246828355923e+00 +0.0000000000000000e+00 -1.6499999977079249e+00 -3.0377489169715801e-02 -5.7924916087489986e-01 +5.7495679891636439e-03
-1.7000000000000008e+00 +8.5389200485774008e+00 +0.0000000000000000e+00 -1.6999999974931455e+00 -3.0378462749097265e-02 -5.7926426593156422e-01 +5.7523602348283640e-03
-1.7500000000000009e+00 +8.5389152759367875e+00 +0.0000000000000000e+00 -1.7499999972653486e+00 -3.0379461190407867e-02 -5.7927971968731906e-01 +5.7551533054074552e-03
-1.8000000000000009e+00 +8.5389103649100608e+00 +0.0000000000000000e+00 -1.7999999970241509e+00 -3.0380484488448115e-02 -5.7929552132933348e-01 +5.7579470008897720e-03
-1.8500000000000010e+00 +8.5389053154934462e+00 +0.0000000000000000e+00 -1.8499999967691689e+00 -3.0381532638019872e-02 -5.7931167004479234e-01 +5.7607411212639232e-03
-1.9000000000000010e+00 +8.5389001276830871e+00 +0.0000000000000000e+00 -1.8999999965000192e+00 -3.0382605633926203e-02 -5.7932816502089424e-01 +5.7635354665182426e-03
-1.9500000000000011e+00 +8.5388948014750419e+00 +0.0000000000000000e+00 -1.9499999962163184e+00 -3.0383703470971496e-02 -5.7934500544485268e-01 +5.7663298366407772e-03
-2.0000000000000009e+00 +8.5388893368652869e+00 +0.0000000000000000e+00 -1.9999999959176828e+00 -3.0384826143961347e-02 -5.7936219050389504e-01 +5.7691240316192667e-03
-2.0500000000000007e+00 +8.5388837338497172e+00 +0.0000000000000000e+00 -2.0499999956037289e+00 -3.0385973608701610e-02 -5.7937971916045183e-01 +5.7719178587103829e-03
-2.1000000000000005e+00 +8.5388779924241458e+00 +0.0000000000000000e+00 -2.0999999952740733e+00 -3.0387145664994810e-02 -5.7939758947771725e-01 +5.7747111542474248e-03
-2.1500000000000004e+00 +8.5388721125843041e+00 +0.0000000000000000e+00 -2.1499999949283324e+00 -3.0388342073643146e-02 -5.7941579929408560e-01 +5.7775037618325959e-03
-2.2000000000000002e+00 +8.5388660943258401e+00 +0.0000000000000000e+00 -2.1999999945661219e+00 -3.0389562595449532e-02 -5.7943434644796488e-01 +5.7802955250677605e-03
-2.2500000000000000e+00 +8.5388599376443253e+00 +0.0000000000000000e+00 -2.2499999941870588e+00 -3.0390806991217510e-02 -5.7945322877777639e-01 +5.7830862875544176e-03
-2.2999999999999998e+00 +8.5388536425352477e+00 +0.0000000000000000e+00 -2.2999999937907587e+00 -3.0392075021751234e-02 -5.7947244412195298e-01 +5.7858758928936898e-03
-2.3499999999999996e+00 +8.5388472089940173e+00 +0.0000000000000000e+00 -2.3499999933768381e+00 -3.0393366447855480e-02 -5.7949199031894105e-01 +5.7886641846863164e-03
-2.3999999999999995e+00 +8.5388406370159640e+00 +0.0000000000000000e+00 -2.3999999929449132e+00 -3.0394681030335515e-02 -5.7951186520719900e-01 +5.7914510065326264e-03
-2.4499999999999993e+00 +8.5388339265963413e+00 +0.0000000000000000e+00 -2.4499999924945999e+00 -3.0396018529997168e-02 -5.7953206662519752e-01 +5.7942362020325438e-03
-2.4999999999999991e+00 +8.5388270777303230e+00 +0.0000000000000000e+00 -2.4999999920255140e+00 -3.0397378707646729e-02 -5.7955259241141976e-01 +5.7970196147855589e-03
-2.5499999999999989e+00 +8.5388200904130045e+00 +0.0000000000000000e+00 -2.5499999915372720e+00 -3.0398761324090921e-02 -5.7957344040436032e-01 +5.7998010883907151e-03
-2.5999999999999988e+00 +8.5388129646394066e+00 +0.0000000000000000e+00 -2.5999999910294895e+00 -3.0400166140136908e-02 -5.7959460844252597e-01 +5.8025804664466035e-03
-2.6499999999999986e+00 +8.5388057004044722e+00 +0.0000000000000000e+00 -2.6499999905017826e+00 -3.0401592916592213e-02 -5.7961609436443540e-01 +5.8053575925513428e-03
-2.6999999999999984e+00 +8.5387982977030692e+00 +0.0000000000000000e+00 -2.6999999899537666e+00 -3.0403041414264712e-02 -5.7963789600861859e-01 +5.8081323103025785e-03
-2.7499999999999982e+00 +8.5387907565299876e+00 +0.0000000000000000e+00 -2.7499999893850577e+00 -3.0404511393962576e-02 -5.7966001121361721e-01 +5.8109044632974399e-03
-2.7999999999999980e+00 +8.5387830768799464e+00 +0.0000000000000000e+00 -2.7999999887952716e+00 -3.0406002616494267e-02 -5.7968243781798323e-01 +5.8136738951325628e-03
-2.8499999999999979e+00 +8.5387752587475862e+00 +0.0000000000000000e+00 -2.8499999881840234e+00 -3.0407514842668459e-02 -5.7970517366028118e-01 +5.8164404494040461e-03
-2.8999999999999977e+00 +8.5387673021274768e+00 +0.0000000000000000e+00 -2.8999999875509292e+00 -3.0409047833294071e-02 -5.7972821657908558e-01 +5.8192039697074587e-03
-2.9499999999999975e+00 +8.5387592070141132e+00 +0.0000000000000000e+00 -2.9499999868956048e+00 -3.0410601349180180e-02 -5.7975156441298226e-01 +5.8219642996378100e-03
-2.9999999999999973e+00 +8.5387509734019194e+00 +0.0000000000000000e+00 -2.9999999862176652e+00 -3.0412175151135958e-02 -5.7977521500056717e-01 +5.8247212827895545e-03
-3.0499999999999972e+00 +8.5387426012852430e+00 +0.0000000000000000e+00 -3.0499999855167257e+00 -3.0413768999970749e-02 -5.7979916618044747e-01 +5.8274747627565550e-03
-3.0999999999999970e+00 +8.5387340906583642e+00 +0.0000000000000000e+00 -3.0999999847924018e+00 -3.0415382656493916e-02 -5.7982341579124053e-01 +5.8302245831320871e-03
-3.1499999999999968e+00 +8.5387254415154885e+00 +0.0000000000000000e+00 -3.1499999840443089e+00 -3.0417015881514894e-02 -5.7984796167157382e-01 +5.8329705875088261e-03
-3.1999999999999966e+00 +8.5387166538507540e+00 +0.0000000000000000e+00 -3.1999999832720625e+00 -3.0418668435843055e-02 -5.7987280166008504e-01 +5.8357126194788179e-03
-3.2499999999999964e+00 +8.5387077276582257e+00 +0.0000000000000000e+00 -3.2499999824752774e+00 -3.0420340080287826e-02 -5.7989793359542130e-01 +5.8384505226334749e-03
-3.2999999999999963e+00 +8.5386986629318997e+00 +0.0000000000000000e+00 -3.2999999816535688e+00 -3.0422030575658478e-02 -5.7992335531624095e-01 +5.8411841405635687e-03
-3.3499999999999961e+00 +8.5386894596657026e+00 +0.0000000000000000e+00 -3.3499999808065515e+00 -3.0423739682764232e-02 -5.7994906466121021e-01 +5.8439133168592013e-03
-3.3999999999999959e+00 +8.5386801178534935e+00 +0.0000000000000000e+00 -3.3999999799338410e+00 -3.0425467162414160e-02 -5.7997505946900618e-01 +5.8466378951098075e-03
-3.4499999999999957e+00 +8.5386706374890622e+00 +0.0000000000000000e+00 -3.4499999790350517e+00 -3.0427212775417167e-02 -5.8000133757831474e-01 +5.8493577189041293e-03
-3.4999999999999956e+00 +8.5386610185661311e+00 +0.0000000000000000e+00 -3.4999999781097988e+00 -3.0428976282581940e-02 -5.8002789682783140e-01 +5.8520726318302060e-03
-3.5499999999999954e+00 +8.5386512610783569e+00 +0.0000000000000000e+00 -3.5499999771576971e+00 -3.0430757444716919e-02 -5.8005473505626015e-01 +5.8547824774753633e-03
-3.5999999999999952e+00 +8.5386413650193269e+00 +0.0000000000000000e+00 -3.5999999761783612e+00 -3.0432556022630296e-02 -5.8008185010231461e-01 +5.8574870994261953e-03
-3.6499999999999950e+00 +8.5386313303825627e+00 +0.0000000000000000e+00 -3.6499999751714061e+00 -3.0434371777129925e-02 -5.8010923980471663e-01 +5.8601863412685523e-03
-3.6999999999999948e+00 +8.5386211571615220e+00 +0.0000000000000000e+00 -3.6999999741364458e+00 -3.0436204469023353e-02 -5.8013690200219692e-01 +5.8628800465875316e-03
-3.7499999999999947e+00 +8.5386108453495968e+00 +0.0000000000000000e+00 -3.7499999730730953e+00 -3.0438053859117711e-02 -5.8016483453349488e-01 +5.8655680589674531e-03
-3.7999999999999945e+00 +8.5386003949401150e+00 +0.0000000000000000e+00 -3.7999999719809687e+00 -3.0439919708219750e-02 -5.8019303523735843e-01 +5.8682502219918591e-03
-3.8499999999999943e+00 +8.5385898059263390e+00 +0.0000000000000000e+00 -3.8499999708596806e+00 -3.0441801777135739e-02 -5.8022150195254296e-01 +5.8709263792434902e-03
-3.8999999999999941e+00 +8.5385790783014688e+00 +0.0000000000000000e+00 -3.8999999697088450e+00 -3.0443699826671507e-02 -5.8025023251781260e-01 +5.8735963743042768e-03
-3.9499999999999940e+00 +8.5385682120586406e+00 +0.0000000000000000e+00 -3.9499999685280764e+00 -3.0445613617632320e-02 -5.8027922477193927e-01 +5.8762600507553213e-03
-3.9999999999999938e+00 +8.5385572071909284e+00 +0.0000000000000000e+00 -3.9999999673169895e+00 -3.0447542910822960e-02 -5.8030847655370277e-01 +5.8789172521768870e-03
-4.0499999999999936e+00 +8.5385460636913439e+00 +0.0000000000000000e+00 -4.0499999660751973e+00 -3.0449487485883317e-02 -5.8033798558391492e-01 +5.8815678311927829e-03
-4.0999999999999934e+00 +8.5385347815528387e+00 +0.0000000000000000e+00 -4.0999999648023149e+00 -3.0451447197796012e-02 -5.8036774911148892e-01 +5.8842116766036007e-03
-4.1499999999999932e+00 +8.5385233607683020e+00 +0.0000000000000000e+00 -4.1499999634979554e+00 -3.0453421920379319e-02 -5.8039776426736478e-01 +5.8868486862535428e-03
-4.1999999999999931e+00 +8.5385118013305643e+00 +0.0000000000000000e+00 -4.1999999621617334e+00 -3.0455411527451348e-02 -5.8042802818248229e-01 +5.8894787579859623e-03
-4.2499999999999929e+00 +8.5385001032323959e+00 +0.0000000000000000e+00 -4.2499999607932626e+00 -3.0457415892830093e-02 -5.8045853798778235e-01 +5.8921017896433657e-03
-4.2999999999999927e+00 +8.5384882664665067e+00 +0.0000000000000000e+00 -4.2999999593921565e+00 -3.0459434890333332e-02 -5.8048929081420519e-01 +5.8947176790673942e-03
-4.3499999999999925e+00 +8.5384762910255514e+00 +0.0000000000000000e+00 -4.3499999579580289e+00 -3.0461468393778671e-02 -5.8052028379269127e-01 +5.8973263240988108e-03
-4.3999999999999924e+00 +8.5384641769021261e+00 +0.0000000000000000e+00 -4.3999999564904932e+00 -3.0463516276983453e-02 -5.8055151405417993e-01 +5.8999276225774949e-03
-4.4499999999999922e+00 +8.5384519240887702e+00 +0.0000000000000000e+00 -4.4499999549891625e+00 -3.0465578413764859e-02 -5.8058297872960984e-01 +5.9025214723424256e-03
-4.4999999999999920e+00 +8.5384395325779678e+00 +0.0000000000000000e+00 -4.4999999534536510e+00 -3.0467654677939757e-02 -5.8061467494991870e-01 +5.9051077712316659e-03
-4.5499999999999918e+00 +8.5384270023621465e+00 +0.0000000000000000e+00 -4.5499999518835716e+00 -3.0469744943324759e-02 -5.8064659984604161e-01 +5.9076864170823536e-03
-4.5999999999999917e+00 +8.5384143334336784e+00 +0.0000000000000000e+00 -4.5999999502785380e+00 -3.0471849083736197e-02 -5.8067875054891249e-01 +5.9102573077306989e-03
-4.6499999999999915e+00 +8.5384015257848844e+00 +0.0000000000000000e+00 -4.6499999486381629e+00 -3.0473966972990089e-02 -5.8071112418946280e-01 +5.9128203410119557e-03
-4.6999999999999913e+00 +8.5383885794080321e+00 +0.0000000000000000e+00 -4.6999999469620599e+00 -3.0476098484902122e-02 -5.8074371789862100e-01 +5.9153754147604175e-03
-4.7499999999999911e+00 +8.5383754942953338e+00 +0.0000000000000000e+00 -4.7499999452498418e+00 -3.0478243493287663e-02 -5.8077652880731301e-01 +5.9179224268094098e-03
-4.7999999999999909e+00 +8.5383622704389506e+00 +0.0000000000000000e+00 -4.7999999435011222e+00 -3.0480401871961691e-02 -5.8080955404646117e-01 +5.9204612749912677e-03
-4.8499999999999908e+00 +8.5383489078309935e+00 +0.0000000000000000e+00 -4.8499999417155131e+00 -3.0482573494738780e-02 -5.8084279074698375e-01 +5.9229918571373349e-03
-4.8999999999999906e+00 +8.5383354064635242e+00 +0.0000000000000000e+00 -4.8999999398926279e+00 -3.0484758235433149e-02 -5.8087623603979599e-01 +5.9255140710779367e-03
-4.9499999999999904e+00 +8.5383217663285507e+00 +0.0000000000000000e+00 -4.9499999380320787e+00 -3.0486955967858578e-02 -5.8090988705580793e-01 +5.9280278146423915e-03
-4.9999999999999902e+00 +8.5383079874180368e+00 +0.0000000000000000e+00 -4.9999999361334790e+00 -3.0489166565828407e-02 -5.8094374092592516e-01 +5.9305329856589716e-03
-5.0499999999999901e+00 +8.5382940697238929e+00 +0.0000000000000000e+00 -5.0499999341964408e+00 -3.0491389903155527e-02 -5.8097779478104805e-01 +5.9330294819549077e-03
-5.0999999999999899e+00 +8.5382800132379852e+00 +0.0000000000000000e+00 -5.0999999322205767e+00 -3.0493625853652350e-02 -5.8101204575207221e-01 +5.9355172013563781e-03
-5.1499999999999897e+00 +8.5382658179521300e+00 +0.0000000000000000e+00 -5.1499999302054995e+00 -3.0495874291130778e-02 -5.8104649096988692e-01 +5.9379960416884783e-03
-5.1999999999999895e+00 +8.5382514838581010e+00 +0.0000000000000000e+00 -5.1999999281508211e+00 -3.0498135089402242e-02 -5.8108112756537589e-01 +5.9404659007752355e-03
-5.2499999999999893e+00 +8.5382370109476220e+00 +0.0000000000000000e+00 -5.2499999260561534e+00 -3.0500408122277629e-02 -5.8111595266941585e-01 +5.9429266764395765e-03
-5.2999999999999892e+00 +8.5382223992123745e+00 +0.0000000000000000e+00 -5.2999999239211091e+00 -3.0502693263567221e-02 -5.8115096341287753e-01 +5.9453782665033223e-03
-5.3499999999999890e+00 +8.5382076486439953e+00 +0.0000000000000000e+00 -5.3499999217453000e+00 -3.0504990387080821e-02 -5.8118615692662390e-01 +5.9478205687871740e-03
-5.3999999999999888e+00 +8.5381927592340769e+00 +0.0000000000000000e+00 -5.3999999195283390e+00 -3.0507299366627574e-02 -5.8122153034151092e-01 +5.9502534811107007e-03
-5.4499999999999886e+00 +8.5381777309741675e+00 +0.0000000000000000e+00 -5.4499999172698370e+00 -3.0509620076016084e-02 -5.8125708078838711e-01 +5.9526769012923407e-03
-5.4999999999999885e+00 +8.5381625638557761e+00 +0.0000000000000000e+00 -5.4999999149694059e+00 -3.0511952389054266e-02 -5.8129280539809225e-01 +5.9550907271493621e-03
-5.5499999999999883e+00 +8.5381472578703690e+00 +0.0000000000000000e+00 -5.5499999126266575e+00 -3.0514296179549451e-02 -5.8132870130145808e-01 +5.9574948564978716e-03
-5.5999999999999881e+00 +8.5381318130093700e+00 +0.0000000000000000e+00 -5.5999999102412037e+00 -3.0516651321308267e-02 -5.8136476562930761e-01 +5.9598891871528014e-03
-5.6499999999999879e+00 +8.5381162292641637e+00 +0.0000000000000000e+00 -5.6499999078126564e+00 -3.0519017688136699e-02 -5.8140099551245461e-01 +5.9622736169278844e-03
-5.6999999999999877e+00 +8.5381005066260958e+00 +0.0000000000000000e+00 -5.6999999053406265e+00 -3.0521395153840000e-02 -5.8143738808170375e-01 +5.9646480436356553e-03
-5.7499999999999876e+00 +8.5380846450864709e+00 +0.0000000000000000e+00 -5.7499999028247260e+00 -3.0523783592222742e-02 -5.8147394046784939e-01 +5.9670123650874297e-03
-5.7999999999999874e+00 +8.5380686446365583e+00 +0.0000000000000000e+00 -5.7999999002645657e+00 -3.0526182877088727e-02 -5.8151064980167622e-01 +5.9693664790933000e-03
-5.8499999999999872e+00 +8.5380525052675882e+00 +0.0000000000000000e+00 -5.8499998976597576e+00 -3.0528592882241030e-02 -5.8154751321395837e-01 +5.9717102834621113e-03
