# multipoles
# s[mm] polynom_b[n=0][T/m^n] polynom_b[n=1][T/m^n] polynom_b[n=2][T/m^n] polynom_b[n=3][T/m^n] polynom_b[n=4][T/m^n] polynom_b[n=5][T/m^n] polynom_b[n=6][T/m^n] 
+0.0000000000000000e+00 -5.7887329617841077e-01 +7.5664795027342677e+00 +5.6364195931717482e+00 +4.5911437319752855e+00 +5.0855244988803037e+02 -5.7855020298748184e+05 +1.1415359329351693e+07 
-5.0000000000000003e-02 -5.7888064130405603e-01 +7.5668311038629534e+00 +5.6290127204381601e+00 +4.7644846632345121e+00 +5.0979347873691131e+02 -5.7922220410235331e+05 +1.1462531527041068e+07 
-1.0000000000000001e-01 -5.7888837279530414e-01 +7.5672044659561744e+00 +5.6209420115027937e+00 +4.9220340280544619e+00 +5.1422676126040290e+02 -5.7973825423268683e+05 +1.1492857076114055e+07 
-1.5000000000000002e-01 -5.7889648940525074e-01 +7.5675994658014512e+00 +5.6122185021593856e+00 +5.0644623551363610e+00 +5.2171256421794715e+02 -5.8010407342393149e+05 +1.1506985692289105e+07 
-2.0000000000000001e-01 -5.7890498988703964e-01 +7.5680159801841587e+00 +5.6028532333678598e+00 +5.1924402933529779e+00 +5.3211102201497545e+02 -5.8032538271893235e+05 +1.1505567949989181e+07 
-2.5000000000000000e-01 -5.7891387299383257e-01 +7.5684538858933301e+00 +5.5928572460397268e+00 +5.3066383713952519e+00 +5.4528226667375372e+02 -5.8040790216727543e+05 +1.1489254458505811e+07 
-2.9999999999999999e-01 -5.7892313747878876e-01 +7.5689130597160812e+00 +5.5822415775041865e+00 +5.4077272200422790e+00 +5.6108652980634258e+02 -5.8035735262658342e+05 +1.1458695136655092e+07 
-3.4999999999999998e-01 -5.7893278209511556e-01 +7.5693933784445484e+00 +5.5710172706032184e+00 +5.4963773153041959e+00 +5.7938389042687481e+02 -5.8017945378031663e+05 +1.1414540950773088e+07 
-3.9999999999999997e-01 -5.7894280559600353e-01 +7.5698947188657604e+00 +5.5591953619150321e+00 +5.5732593515817790e+00 +6.0003459986711198e+02 -5.7987992701309954e+05 +1.1357441687430887e+07 
-4.4999999999999996e-01 -5.7895320673468842e-01 +7.5704169577726805e+00 +5.5467868932173969e+00 +5.6390438261579234e+00 +6.2289876741871876e+02 -5.7946449215758080e+05 +1.1288048097272107e+07 
-4.9999999999999994e-01 -5.7896398426440798e-01 +7.5709599719568441e+00 +5.5338029028694837e+00 +5.6944013141813086e+00 +6.4783659863819810e+02 -5.7893886964692653e+05 +1.1207010266649643e+07 
-5.4999999999999993e-01 -5.7897513693841995e-01 +7.5715236382116862e+00 +5.5202544306999792e+00 +5.7400023493180790e+00 +6.7470825250286873e+02 -5.7830877960309782e+05 +1.1114978619267171e+07 
-5.9999999999999998e-01 -5.7898666351001282e-01 +7.5721078333300609e+00 +5.5061525181169646e+00 +5.7765175107598399e+00 +7.0337385301541713e+02 -5.7757994249150355e+05 +1.1012603786413150e+07 
-6.5000000000000002e-01 -5.7899856273248407e-01 +7.5727124341060978e+00 +5.4915082055622744e+00 +5.8046173534610253e+00 +7.3369354523569029e+02 -5.7675807857666630e+05 +1.0900536275128186e+07 
-7.0000000000000007e-01 -5.7901083335913028e-01 +7.5733373173354561e+00 +5.4763325304403763e+00 +5.8249724040501061e+00 +7.6552755709470330e+02 -5.7584890790902195e+05 +1.0779426027153814e+07 
-7.5000000000000011e-01 -5.7902347414328581e-01 +7.5739823598126366e+00 +5.4606365334464426e+00 +5.8382532548815869e+00 +7.9873603044882509e+02 -5.7485815104861720e+05 +1.0649923555990003e+07 
-8.0000000000000016e-01 -5.7903648383830220e-01 +7.5746474383346269e+00 +5.4444312561756085e+00 +5.8451304386188188e+00 +8.3317907747240611e+02 -5.7379152810625150e+05 +1.0512679593233887e+07 
-8.5000000000000020e-01 -5.7904986119753177e-01 +7.5753324296982774e+00 +5.4277277365926322e+00 +5.8462745042239517e+00 +8.6871691592362595e+02 -5.7265475926870375e+05 +1.0368344128827831e+07 
-9.0000000000000024e-01 -5.7906360497434906e-01 +7.5760372107003420e+00 +5.4105370146324505e+00 +5.8423560309885474e+00 +9.0520970004663764e+02 -5.7145356495998928e+05 +1.0217567622334376e+07 
-9.5000000000000029e-01 -5.7907771392216134e-01 +7.5767616581386044e+00 +5.3928701322314563e+00 +5.8340455990687845e+00 +9.4251754200683604e+02 -5.7019366567240574e+05 +1.0061000768810051e+07 
-1.0000000000000002e+00 -5.7909218679436569e-01 +7.5775056488113206e+00 +5.3747381273858066e+00 +5.8220137616747714e+00 +9.8050065288277597e+02 -5.6888078154054133e+05 +9.8992936228094343e+06 
-1.0500000000000003e+00 -5.7910702234438516e-01 +7.5782690595184814e+00 +5.3561520399412430e+00 +5.8069310636109543e+00 +1.0190191923268337e+03 -5.6752063276611397e+05 +9.7330965946749039e+06 
-1.1000000000000003e+00 -5.7912221932566732e-01 +7.5790517670583046e+00 +5.3371229112648946e+00 +5.7894681156468133e+00 +1.0579332810069616e+03 -5.6611893996194482e+05 +9.5630603463755511e+06 
-1.1500000000000004e+00 -5.7913777649165621e-01 +7.5798536482319037e+00 +5.3176617789920222e+00 +5.7702954486589464e+00 +1.0971031436439978e+03 -5.6468142312628042e+05 +9.3898348266508821e+06 
-1.2000000000000004e+00 -5.7915369259584060e-01 +7.5806745798384974e+00 +5.2977796862879991e+00 +5.7500836925514580e+00 +1.1363888530280562e+03 -5.6321380305259721e+05 +9.2140710184534434e+06 
-1.2500000000000004e+00 -5.7916996639167440e-01 +7.5815144386783198e+00 +5.2774876677527249e+00 +5.7295034540674488e+00 +1.1756507081277691e+03 -5.6172180031485541e+05 +9.0364183975862879e+06 
-1.3000000000000005e+00 -5.7918659663269068e-01 +7.5823731015525420e+00 +5.2567967687293731e+00 +5.7092253268513442e+00 +1.2147487263051391e+03 -5.6021113536588766e+05 +8.8575283091906700e+06 
-1.3500000000000005e+00 -5.7920358207237976e-01 +7.5832504452627063e+00 +5.2357180250292989e+00 +5.6899199086363881e+00 +1.2535431749047759e+03 -5.5868752867172787e+05 +8.6780504383022506e+06 
-1.4000000000000006e+00 -5.7922092146428139e-01 +7.5841463466094208e+00 +5.2142624780064732e+00 +5.6722578568041282e+00 +1.2918941762470881e+03 -5.5715670116503397e+05 +8.4986354323902689e+06 
-1.4500000000000006e+00 -5.7923861356192807e-01 +7.5850606823957438e+00 +5.1924411658416396e+00 +5.6569097499852052e+00 +1.3296619354476622e+03 -5.5562437311793887e+05 +8.3199333883812577e+06 
-1.5000000000000007e+00 -5.7925665711888907e-01 +7.5859933294222808e+00 +5.1702651302579774e+00 +5.6445462910654518e+00 +1.3667065601293300e+03 -5.5409626581481716e+05 +8.1425950730075808e+06 
-1.5500000000000007e+00 -5.7927505088872311e-01 +7.5869441644917819e+00 +5.1477454086581318e+00 +5.6358381043168988e+00 +1.4028882784544826e+03 -5.5257809982323274e+05 +7.9672704217976090e+06 
-1.6000000000000008e+00 -5.7929379362501965e-01 +7.5879130644070676e+00 +5.1248930413727747e+00 +5.6314558442121179e+00 +1.4380672379705122e+03 -5.5107559600096114e+05 +7.7946099219489889e+06 
-1.6500000000000008e+00 -5.7931288408136372e-01 +7.5888999059704307e+00 +5.1017190659052405e+00 +5.6320701947076968e+00 +1.4721036572354285e+03 -5.4959447536729160e+05 +7.6252636010395074e+06 
-1.7000000000000008e+00 -5.7933232101137966e-01 +7.5899045659840620e+00 +5.0782345236010125e+00 +5.6383518680226343e+00 +1.5048576596032433e+03 -5.4814045918125019e+05 +7.4598820988801196e+06 
-1.7500000000000009e+00 -5.7935210316869046e-01 +7.5909269212505572e+00 +5.0544504537909560e+00 +5.6509715774801776e+00 +1.5361894149299421e+03 -5.4671926867164404e+05 +7.2991157707756851e+06 
-1.8000000000000009e+00 -5.7937222930691690e-01 +7.5919668485723157e+00 +5.0303778927163485e+00 +5.6706000577055180e+00 +1.5659591796428010e+03 -5.4533662520404346e+05 +7.1436143775427788e+06 
-1.8500000000000010e+00 -5.7939269817972550e-01 +7.5930242247541626e+00 +5.0060278824895184e+00 +5.6979079615731365e+00 +1.5940270498249922e+03 -5.4399824944585771e+05 +6.9940287695453512e+06 
-1.9000000000000010e+00 -5.7941350854076568e-01 +7.5940989265962555e+00 +4.9814114597721320e+00 +5.7335661491133685e+00 +1.6202532693316493e+03 -5.4270986372563639e+05 +6.8510087983888136e+06 
-1.9500000000000011e+00 -5.7943465914370862e-01 +7.5951908309026077e+00 +4.9565396630423599e+00 +5.7782453510098497e+00 +1.6444980318564485e+03 -5.4147718933532608e+05 +6.7152046580890957e+06 
-2.0000000000000009e+00 -5.7945614874225404e-01 +7.5962998144744285e+00 +4.9314235331893048e+00 +5.8326164073452027e+00 +1.6666214665396665e+03 -5.4030594833301019e+05 +6.5872669814089658e+06 
-2.0500000000000007e+00 -5.7947797587319250e-01 +7.5974257474044711e+00 +4.9060720745240944e+00 +5.8971826933834395e+00 +1.6865299787625220e+03 -5.3920049662679527e+05 +6.4676405405509332e+06 
-2.1000000000000005e+00 -5.7950013820602664e-01 +7.5985684676980121e+00 +4.8804864124451353e+00 +5.9717872790541922e+00 +1.7043174843013173e+03 -5.3816003351888270e+05 +6.3559253097094102e+06 
-2.1500000000000004e+00 -5.7952263319348551e-01 +7.5997278040310912e+00 +4.8546657689754475e+00 +6.0561097593466480e+00 +1.7201256034096325e+03 -5.3718254404837731e+05 +6.2515036294924570e+06 
-2.2000000000000002e+00 -5.7954545828829362e-01 +7.6009035850817064e+00 +4.8286093638220828e+00 +6.1498296514791795e+00 +1.7340960148102279e+03 -5.3626601261412050e+05 +6.1537574638553998e+06 
-2.2500000000000000e+00 -5.7956861094320644e-01 +7.6020956395301358e+00 +4.8023164201504560e+00 +6.2526263928458325e+00 +1.7463703072803394e+03 -5.3540842297223629e+05 +6.0620693697575387e+06 
-2.2999999999999998e+00 -5.7959208861097800e-01 +7.6033037960537229e+00 +4.7757861588054675e+00 +6.3641795500838629e+00 +1.7570901341698395e+03 -5.3460775995850540e+05 +5.9758214633115735e+06 
-2.3499999999999996e+00 -5.7961588874437409e-01 +7.6045278833318095e+00 +4.7490178016126059e+00 +6.4841686170992876e+00 +1.7663971176997513e+03 -5.3386200781433145e+05 +5.8943960857114391e+06 
-2.3999999999999995e+00 -5.7964000879618105e-01 +7.6057677300451187e+00 +4.7220105716855310e+00 +6.6122730433053860e+00 +1.7744328501801203e+03 -5.3316915043725760e+05 +5.8171757648609970e+06 
-2.4499999999999993e+00 -5.7966444621916524e-01 +7.6070231648737598e+00 +4.6947636877485124e+00 +6.7481723043760891e+00 +1.7813390362167172e+03 -5.3252717194058478e+05 +5.7435422907215776e+06 
-2.4999999999999991e+00 -5.7968919846613653e-01 +7.6082940164981085e+00 +4.6672763737048166e+00 +6.8915458819575584e+00 +1.7872572492627630e+03 -5.3193405652363563e+05 +5.6728783093161741e+06 
-2.5499999999999989e+00 -5.7971426298989326e-01 +7.6095801135993213e+00 +4.6395478508203531e+00 +7.0420732153701255e+00 +1.7923291244362870e+03 -5.3138778799797723e+05 +5.6045660850862842e+06 
-2.5999999999999988e+00 -5.7973963724324773e-01 +7.6108812848583938e+00 +4.6115773404738798e+00 +7.1994337800483343e+00 +1.7966963025803066e+03 -5.3088635057541460e+05 +5.5379878107422395e+06 
-2.6499999999999986e+00 -5.7976531867902070e-01 +7.6121973589568110e+00 +4.5833640650386220e+00 +7.3633070152175355e+00 +1.8005003888109006e+03 -5.3042772810641653e+05 +5.4725259532761797e+06 
-2.6999999999999984e+00 -5.7979130475004148e-01 +7.6135281645804271e+00 +4.5549072459712914e+00 +7.5333721913197129e+00 +1.8038830227517676e+03 -5.3000990309941070e+05 +5.4075627118402822e+06 
-2.7499999999999982e+00 -5.7981759290913848e-01 +7.6148735304085333e+00 +4.5262061039327479e+00 +7.7093088634756510e+00 +1.8069858580583723e+03 -5.2963086046604149e+05 +5.3424802176981382e+06 
-2.7999999999999980e+00 -5.7984418060916010e-01 +7.6162332851225827e+00 +4.4972598615847810e+00 +7.8907964878905936e+00 +1.8099504979086212e+03 -5.2928858427636209e+05 +5.2766609294443689e+06 
-2.8499999999999979e+00 -5.7987106530295962e-01 +7.6176072574099969e+00 +4.4680677410373182e+00 +8.0775142813387184e+00 +1.8129185602641689e+03 -5.2898105665488832e+05 +5.2094872076929584e+06 
-2.8999999999999977e+00 -5.7989824444339999e-01 +7.6189952759540418e+00 +4.4386289652184168e+00 +8.2691416392129309e+00 +1.8160316379383510e+03 -5.2870626126010623e+05 +5.1403415951570701e+06 
-2.9499999999999975e+00 -5.7992571548333471e-01 +7.6203971694399284e+00 +4.4089427538190131e+00 +8.4653578690857607e+00 +1.8194314172116092e+03 -5.2846218100688839e+05 +5.0686059774428653e+06 
-2.9999999999999973e+00 -5.7995347587563617e-01 +7.6218127665496000e+00 +4.3790083289522448e+00 +8.6658424328090682e+00 +1.8232595128771693e+03 -5.2824680018541054e+05 +4.9936627503765533e+06 
-3.0499999999999972e+00 -5.7998152307318829e-01 +7.6232418959717325e+00 +4.3488249135125390e+00 +8.8702744823947626e+00 +1.8276575246707607e+03 -5.2805810043830518e+05 +4.9148943857674850e+06 
-3.0999999999999970e+00 -5.8000985452888010e-01 +7.6246843863900482e+00 +4.3183917306765780e+00 +9.0783334028410909e+00 +1.8327670371531963e+03 -5.2789406546224735e+05 +4.8316834891839856e+06 
-3.1499999999999968e+00 -5.8003846769559209e-01 +7.6261400664926331e+00 +4.2877080005994568e+00 +9.2896983872426944e+00 +1.8387297242632494e+03 -5.2775267737580428e+05 +4.7434120298294984e+06 
-3.1999999999999966e+00 -5.8006736002622528e-01 +7.6276087649653412e+00 +4.2567729461408588e+00 +9.5040487185241584e+00 +1.8456871844309846e+03 -5.2763191906182352e+05 +4.6494625002895519e+06 
-3.2499999999999964e+00 -5.8009652897367536e-01 +7.6290903104963865e+00 +4.2255857887354269e+00 +9.7210635815581714e+00 +1.8537810515913841e+03 -5.2752977263068117e+05 +4.5492171635882668e+06 
-3.2999999999999963e+00 -5.8012597199085192e-01 +7.6305845317720049e+00 +4.1941457507328819e+00 +9.9404222438858305e+00 +1.8631529421656464e+03 -5.2744422093683702e+05 +4.4420583722273316e+06 
-3.3499999999999961e+00 -5.8015568653067051e-01 +7.6320912574825721e+00 +4.1624520556025262e+00 +1.0161803783242760e+01 +1.8739444326861033e+03 -5.2737324524088937e+05 +4.3273687874830589e+06 
-3.3999999999999959e+00 -5.8018567004604626e-01 +7.6336103163146980e+00 +4.1305039248295117e+00 +1.0384887445769630e+01 +1.8862971648743512e+03 -5.2731482830109564e+05 +4.2045305863549290e+06 
-3.4499999999999957e+00 -5.8021591998990185e-01 +7.6351415369587565e+00 +4.0983005814146702e+00 +1.0609352317930266e+01 +1.9003527309576291e+03 -5.2726695160186745e+05 +4.0729263110570731e+06 
-3.4999999999999956e+00 -5.8024643381515395e-01 +7.6366847481031863e+00 +4.0658412463314582e+00 +1.0834877537825950e+01 +1.9162527796935560e+03 -5.2722759699913359e+05 +3.9319381187569620e+06 
-3.5499999999999954e+00 -5.8027720897474655e-01 +7.6382397784397797e+00 +4.0331251444663385e+00 +1.1061142126016108e+01 +1.9341388586409801e+03 -5.2719474554137210e+05 +3.7809488295497852e+06 
-3.5999999999999952e+00 -5.8030824292159622e-01 +7.6398064566577979e+00 +4.0001514956558104e+00 +1.1287825185928634e+01 +1.9541526473935839e+03 -5.2716637893920369e+05 +3.6193403912406317e+06 
-3.6499999999999950e+00 -5.8033953310865893e-01 +7.6413846114497517e+00 +3.9669195258227967e+00 +1.1514605690503775e+01 +1.9764356638600611e+03 -5.2714047791176080e+05 +3.4464958332080734e+06 
-3.6999999999999948e+00 -5.8037107698885082e-01 +7.6429740715069299e+00 +3.9334284534215493e+00 +1.1741162633945859e+01 +2.0011296262948606e+03 -5.2711502333067008e+05 +3.2617968375872057e+06 
-3.7499999999999947e+00 -5.8040287201513574e-01 +7.6445746655195714e+00 +3.8996775048822054e+00 +1.1967175070721630e+01 +2.0283760405153937e+03 -5.2708799670509936e+05 +3.0646265100256754e+06 
-3.7999999999999945e+00 -5.8043491564044891e-01 +7.6461862221834309e+00 +3.8656659011303431e+00 +1.2192321793828276e+01 +2.0583165583962264e+03 -5.2705737734149501e+05 +2.8543669794584680e+06 
-3.8499999999999943e+00 -5.8046720531774709e-01 +7.6478085701895324e+00 +3.8313928664779451e+00 +1.2416281800963327e+01 +2.0910927422486384e+03 -5.2702114636970172e+05 +2.6304009743490741e+06 
-3.8999999999999941e+00 -5.8049973849997627e-01 +7.6494415382301515e+00 +3.7968576230602467e+00 +1.2638734020107169e+01 +2.1268462125273031e+03 -5.2697728435702983e+05 +2.3921108324791174e+06 
-3.9499999999999940e+00 -5.8053251264009209e-01 +7.6510849550018509e+00 +3.7620593944316649e+00 +1.2859357188208273e+01 +2.1657185520897037e+03 -5.2692377035764547e+05 +2.1388791428136346e+06 
-3.9999999999999938e+00 -5.8056552519104954e-01 +7.6527386491995806e+00 +3.7269974036519904e+00 +1.3077830108699876e+01 +2.2078513598905988e+03 -5.2685858404664055e+05 +1.8700883750156788e+06 
-4.0499999999999936e+00 -5.8059877350809219e-01 +7.6544024436580855e+00 +3.6916727500438431e+00 +1.3293906153522444e+01 +2.2533445938255154e+03 -5.2678046571792301e+05 +1.5852877396355376e+06 
-4.0999999999999934e+00 -5.8063225455521228e-01 +7.6560761317694235e+00 +3.6560943083428143e+00 +1.3507606884354390e+01 +2.3021302431923627e+03 -5.2669048826770147e+05 +1.2847123563094891e+06 
-4.1499999999999932e+00 -5.8066596519849378e-01 +7.6577594980531689e+00 +3.6202729857632798e+00 +1.3719012988544256e+01 +2.3540980082285628e+03 -5.2659013619108882e+05 +9.6877162968924188e+05 
-4.1999999999999931e+00 -5.8069990230402346e-01 +7.6594523270282355e+00 +3.5842196897461585e+00 +1.3928205129500975e+01 +2.4091375892595629e+03 -5.2648089365980111e+05 +6.3787494761899591e+05 
-4.2499999999999929e+00 -5.8073406273789641e-01 +7.6611544032151162e+00 +3.5479453305284454e+00 +1.4135263914977740e+01 +2.4671385998335063e+03 -5.2636424443186563e+05 +2.9243232844762126e+05 
-4.2999999999999927e+00 -5.8076844336619005e-01 +7.6628655111313018e+00 +3.5114608146704147e+00 +1.4340270056905325e+01 +2.5279907647464511e+03 -5.2624167306089774e+05 -6.7147007716018677e+04 
-4.3499999999999925e+00 -5.8080304105498648e-01 +7.6645854352931604e+00 +3.4747770502372206e+00 +1.4543304303639294e+01 +2.5915837634505992e+03 -5.2611466437328060e+05 -4.4045351242437225e+05 
-4.3999999999999924e+00 -5.8083785267036570e-01 +7.6663139602193384e+00 +3.4379049450987984e+00 +1.4744447292574947e+01 +2.6578072826349126e+03 -5.2598470222315460e+05 -8.2707769353317923e+05 
-4.4499999999999922e+00 -5.8087287507839980e-01 +7.6680508704245298e+00 +3.4008554066213099e+00 +1.4943779805682293e+01 +2.7265510206493568e+03 -5.2585327159422822e+05 -1.2266101286056268e+06 
-4.4999999999999920e+00 -5.8090810514516633e-01 +7.6697959504239721e+00 +3.3636393434774705e+00 +1.5141382590649480e+01 +2.7977046409022932e+03 -5.2572185716348200e+05 -1.6386411583611008e+06 
-4.5499999999999918e+00 -5.8094353973673618e-01 +7.6715489847341320e+00 +3.3262676633447374e+00 +1.5337336337639268e+01 +2.8711578398066376e+03 -5.2559194311558909e+05 -2.0627613692593386e+06 
-4.5999999999999917e+00 -5.8097917571916424e-01 +7.6733097578644873e+00 +3.2887512724813202e+00 +1.5531721996602469e+01 +2.9468003429611463e+03 -5.2546501568235341e+05 -2.4985615070215352e+06 
-4.6499999999999915e+00 -5.8101500995852295e-01 +7.6750780543338157e+00 +3.2511010799947173e+00 +1.5724620120669924e+01 +3.0245218106456027e+03 -5.2534255778263661e+05 -2.9456319216395193e+06 
-4.6999999999999913e+00 -5.8105103932086533e-01 +7.6768536586506730e+00 +3.2133279932458105e+00 +1.5916111673079996e+01 +3.1042119390484690e+03 -5.2522605569155817e+05 -3.4035631572985435e+06 
-4.7499999999999911e+00 -5.8108726067223715e-01 +7.6786363553249393e+00 +3.1754429181945216e+00 +1.6106277536462468e+01 +3.1857604737280449e+03 -5.2511699494012597e+05 -3.8719461372987395e+06 
-4.7999999999999909e+00 -5.8112367087869188e-01 +7.6804259288683872e+00 +3.1374567636753059e+00 +1.6295198496638960e+01 +3.2690570749768622e+03 -5.2501686019870208e+05 -4.3503711765950639e+06 
-4.8499999999999908e+00 -5.8116026680626254e-01 +7.6822221637902848e+00 +3.0993804356303056e+00 +1.6482955435413437e+01 +3.3539914849542774e+03 -5.2492713691428932e+05 -4.8384291565763447e+06 
-4.8999999999999906e+00 -5.8119704532099981e-01 +7.6840248445975616e+00 +3.0612248437465848e+00 +1.6669629300429563e+01 +3.4404533457332764e+03 -5.2484931099630962e+05 -5.3357102825224604e+06 
-4.9499999999999904e+00 -5.8123400328892016e-01 +7.6858337557993419e+00 +3.0230008928696623e+00 +1.6855300929427660e+01 +3.5283324309437066e+03 -5.2478486737075192e+05 -5.8418056531178895e+06 
-4.9999999999999902e+00 -5.8127113757605431e-01 +7.6876486818996481e+00 +2.9847194915686348e+00 +1.7040051351140342e+01 +3.6175184111641370e+03 -5.2473529249330994e+05 -6.3563056556156725e+06 
-5.0499999999999901e+00 -5.8130844504841217e-01 +7.6894694074047329e+00 +2.9463915459934285e+00 +1.7223961487328030e+01 +3.7079010225528418e+03 -5.2470207190202177e+05 -6.8788011236227192e+06 
