# field on trajectory
# s[mm] rx[mm] ry[mm] rz[mm] bx[T] by[T] bz[T]
0.0000000000000000e+00 +8.5980000000000008e+00 +0.0000000000000000e+00 +0.0000000000000000e+00 -3.0724711435515605e-02 -5.7884895666346059e-01 +5.6661223838709507e-03
5.0000000000000003e-02 +8.5979999307973962e+00 +0.0000000000000000e+00 +4.9999999999936137e-02 -3.0724858810420488e-02 -5.7884844143512248e-01 +5.6654592300879880e-03
1.0000000000000001e-01 +8.5979997231896483e+00 +0.0000000000000000e+00 +9.9999999999489164e-02 -3.0725024935246530e-02 -5.7884828682359690e-01 +5.6648054744833946e-03
1.5000000000000002e-01 +8.5979993771767944e+00 +0.0000000000000000e+00 +1.4999999999827596e-01 -3.0725209761398854e-02 -5.7884849210040157e-01 +5.6641611305916044e-03
2.0000000000000001e-01 +8.5979988927587865e+00 +0.0000000000000000e+00 +1.9999999999591339e-01 -3.0725413240283526e-02 -5.7884905653707097e-01 +5.6635262119474998e-03
2.5000000000000000e-01 +8.5979982699354895e+00 +0.0000000000000000e+00 +2.4999999999201833e-01 -3.0725635323307535e-02 -5.7884997940515770e-01 +5.6629007320864186e-03
2.9999999999999999e-01 +8.5979975087066816e+00 +0.0000000000000000e+00 +2.9999999998620769e-01 -3.0725875961878802e-02 -5.7885125997622944e-01 +5.6622847045441141e-03
3.4999999999999998e-01 +8.5979966090720570e+00 +0.0000000000000000e+00 +3.4999999997809828e-01 -3.0726135107406235e-02 -5.7885289752187330e-01 +5.6616781428567558e-03
3.9999999999999997e-01 +8.5979955710312250e+00 +0.0000000000000000e+00 +3.9999999996730701e-01 -3.0726412711299660e-02 -5.7885489131369217e-01 +5.6610810605609123e-03
4.4999999999999996e-01 +8.5979943945837078e+00 +0.0000000000000000e+00 +4.4999999995345075e-01 -3.0726708724969885e-02 -5.7885724062330524e-01 +5.6604934711935277e-03
4.9999999999999994e-01 +8.5979930797289459e+00 +0.0000000000000000e+00 +4.9999999993614636e-01 -3.0727023099828693e-02 -5.7885994472234970e-01 +5.6599153882919244e-03
5.4999999999999993e-01 +8.5979916264662908e+00 +0.0000000000000000e+00 +5.4999999991501070e-01 -3.0727355787288843e-02 -5.7886300288247805e-01 +5.6593468253937637e-03
5.9999999999999998e-01 +8.5979900347950107e+00 +0.0000000000000000e+00 +5.9999999988966057e-01 -3.0727706738764064e-02 -5.7886641437536090e-01 +5.6587877960370550e-03
6.5000000000000002e-01 +8.5979883047142920e+00 +0.0000000000000000e+00 +6.4999999985971280e-01 -3.0728075905669078e-02 -5.7887017847268396e-01 +5.6582383137601232e-03
7.0000000000000007e-01 +8.5979864362232323e+00 +0.0000000000000000e+00 +6.9999999982478422e-01 -3.0728463239419607e-02 -5.7887429444614968e-01 +5.6576983921016039e-03
7.5000000000000011e-01 +8.5979844293208494e+00 +0.0000000000000000e+00 +7.4999999978449172e-01 -3.0728868691432414e-02 -5.7887876156747797e-01 +5.6571680446004229e-03
8.0000000000000016e-01 +8.5979822840060756e+00 +0.0000000000000000e+00 +7.9999999973845193e-01 -3.0729292213125182e-02 -5.7888357910840282e-01 +5.6566472847957823e-03
8.5000000000000020e-01 +8.5979800002777580e+00 +0.0000000000000000e+00 +8.4999999968628182e-01 -3.0729733755916717e-02 -5.7888874634067700e-01 +5.6561361262271537e-03
9.0000000000000024e-01 +8.5979775781346603e+00 +0.0000000000000000e+00 +8.9999999962759802e-01 -3.0730193271226742e-02 -5.7889426253606657e-01 +5.6556345824342420e-03
9.5000000000000029e-01 +8.5979750175754646e+00 +0.0000000000000000e+00 +9.4999999956201742e-01 -3.0730670710476096e-02 -5.7890012696635540e-01 +5.6551426669570002e-03
1.0000000000000002e+00 +8.5979723185987691e+00 +0.0000000000000000e+00 +9.9999999948915663e-01 -3.0731166025086631e-02 -5.7890633890334309e-01 +5.6546603933355860e-03
1.0500000000000003e+00 +8.5979694812030871e+00 +0.0000000000000000e+00 +1.0499999994086324e+00 -3.0731679166481205e-02 -5.7891289761884435e-01 +5.6541877751103706e-03
1.1000000000000003e+00 +8.5979665053868519e+00 +0.0000000000000000e+00 +1.0999999993200615e+00 -3.0732210086083754e-02 -5.7891980238468943e-01 +5.6537248258218950e-03
1.1500000000000004e+00 +8.5979633911484115e+00 +0.0000000000000000e+00 +1.1499999992230607e+00 -3.0732758735319294e-02 -5.7892705247272558e-01 +5.6532715590108945e-03
1.2000000000000004e+00 +8.5979601384860338e+00 +0.0000000000000000e+00 +1.1999999991172465e+00 -3.0733325065613850e-02 -5.7893464715481380e-01 +5.6528279882182477e-03
1.2500000000000004e+00 +8.5979567473979017e+00 +0.0000000000000000e+00 +1.2499999990022357e+00 -3.0733909028394547e-02 -5.7894258570283141e-01 +5.6523941269849753e-03
1.3000000000000005e+00 +8.5979532178821181e+00 +0.0000000000000000e+00 +1.2999999988776449e+00 -3.0734510575089587e-02 -5.7895086738867119e-01 +5.6519699888522325e-03
1.3500000000000005e+00 +8.5979495499367022e+00 +0.0000000000000000e+00 +1.3499999987430906e+00 -3.0735129657128275e-02 -5.7895949148424142e-01 +5.6515555873612880e-03
1.4000000000000006e+00 +8.5979457435595918e+00 +0.0000000000000000e+00 +1.3999999985981897e+00 -3.0735766225940927e-02 -5.7896845726146406e-01 +5.6511509360534905e-03
1.4500000000000006e+00 +8.5979417987486428e+00 +0.0000000000000000e+00 +1.4499999984425584e+00 -3.0736420232959059e-02 -5.7897776399227818e-01 +5.6507560484702971e-03
1.5000000000000007e+00 +8.5979377155016312e+00 +0.0000000000000000e+00 +1.4999999982758134e+00 -3.0737091629615208e-02 -5.7898741094863648e-01 +5.6503709381532131e-03
1.5500000000000007e+00 +8.5979334938162495e+00 +0.0000000000000000e+00 +1.5499999980975712e+00 -3.0737780367343061e-02 -5.7899739740250677e-01 +5.6499956186438008e-03
1.6000000000000008e+00 +8.5979291336901102e+00 +0.0000000000000000e+00 +1.5999999979074482e+00 -3.0738486397577400e-02 -5.7900772262587197e-01 +5.6496301034836644e-03
1.6500000000000008e+00 +8.5979246351207443e+00 +0.0000000000000000e+00 +1.6499999977050610e+00 -3.0739209671754142e-02 -5.7901838589072951e-01 +5.6492744062144242e-03
1.7000000000000008e+00 +8.5979199981056027e+00 +0.0000000000000000e+00 +1.6999999974900259e+00 -3.0739950141310347e-02 -5.7902938646909186e-01 +5.6489285403777175e-03
1.7500000000000009e+00 +8.5979152226420545e+00 +0.0000000000000000e+00 +1.7499999972619595e+00 -3.0740707757684154e-02 -5.7904072363298509e-01 +5.6485925195151627e-03
1.8000000000000009e+00 +8.5979103087273892e+00 +0.0000000000000000e+00 +1.7999999970204781e+00 -3.0741482472314917e-02 -5.7905239665445085e-01 +5.6482663571683642e-03
1.8500000000000010e+00 +8.5979052563588159e+00 +0.0000000000000000e+00 +1.8499999967651979e+00 -3.0742274236643091e-02 -5.7906440480554477e-01 +5.6479500668788858e-03
1.9000000000000010e+00 +8.5979000655334641e+00 +0.0000000000000000e+00 +1.8999999964957353e+00 -3.0743083002110306e-02 -5.7907674735833625e-01 +5.6476436621882356e-03
1.9500000000000011e+00 +8.5978947362483815e+00 +0.0000000000000000e+00 +1.9499999962117065e+00 -3.0743908720159318e-02 -5.7908942358490934e-01 +5.6473471566378620e-03
2.0000000000000009e+00 +8.5978892685005395e+00 +0.0000000000000000e+00 +1.9999999959127279e+00 -3.0744751342234117e-02 -5.7910243275736240e-01 +5.6470605637691240e-03
2.0500000000000007e+00 +8.5978836622868258e+00 +0.0000000000000000e+00 +2.0499999955984154e+00 -3.0745610821230961e-02 -5.7911577394318947e-01 +5.6467838957653038e-03
2.1000000000000005e+00 +8.5978779176040501e+00 +0.0000000000000000e+00 +2.0999999952683854e+00 -3.0746487115851390e-02 -5.7912944539142375e-01 +5.6465171593777950e-03
2.1500000000000004e+00 +8.5978720344489439e+00 +0.0000000000000000e+00 +2.1499999949222541e+00 -3.0747380186247987e-02 -5.7914344514649307e-01 +5.6462603600004515e-03
2.2000000000000002e+00 +8.5978660128181605e+00 +0.0000000000000000e+00 +2.1999999945596378e+00 -3.0748289992573077e-02 -5.7915777125283507e-01 +5.6460135030276170e-03
2.2500000000000000e+00 +8.5978598527082735e+00 +0.0000000000000000e+00 +2.2499999941801523e+00 -3.0749216494978658e-02 -5.7917242175489925e-01 +5.6457765938541559e-03
2.2999999999999998e+00 +8.5978535541157814e+00 +0.0000000000000000e+00 +2.2999999937834135e+00 -3.0750159653616233e-02 -5.7918739469714475e-01 +5.6455496378754770e-03
2.3499999999999996e+00 +8.5978471170371034e+00 +0.0000000000000000e+00 +2.3499999933690376e+00 -3.0751119428636859e-02 -5.7920268812404152e-01 +5.6453326404875487e-03
2.3999999999999995e+00 +8.5978405414685835e+00 +0.0000000000000000e+00 +2.3999999929366407e+00 -3.0752095780191009e-02 -5.7921830008007036e-01 +5.6451256070869250e-03
2.4499999999999993e+00 +8.5978338274064878e+00 +0.0000000000000000e+00 +2.4499999924858384e+00 -3.0753088668428474e-02 -5.7923422860972018e-01 +5.6449285430707563e-03
2.4999999999999991e+00 +8.5978269748470080e+00 +0.0000000000000000e+00 +2.4999999920162468e+00 -3.0754098053498373e-02 -5.7925047175749123e-01 +5.6447414538368232e-03
2.5499999999999989e+00 +8.5978199837862608e+00 +0.0000000000000000e+00 +2.5499999915274816e+00 -3.0755123895548953e-02 -5.7926702756789239e-01 +5.6445643447835502e-03
2.5999999999999988e+00 +8.5978128542202885e+00 +0.0000000000000000e+00 +2.5999999910191587e+00 -3.0756166154727656e-02 -5.7928389408544145e-01 +5.6443972213100248e-03
2.6499999999999986e+00 +8.5978055861450571e+00 +0.0000000000000000e+00 +2.6499999904908935e+00 -3.0757224791180902e-02 -5.7930106935466630e-01 +5.6442400888160179e-03
2.6999999999999984e+00 +8.5977981795564613e+00 +0.0000000000000000e+00 +2.6999999899423019e+00 -3.0758299765054144e-02 -5.7931855142010202e-01 +5.6440929527020118e-03
2.7499999999999982e+00 +8.5977906344503197e+00 +0.0000000000000000e+00 +2.7499999893729998e+00 -3.0759391036491692e-02 -5.7933633832629305e-01 +5.6439558183692170e-03
2.7999999999999980e+00 +8.5977829508223795e+00 +0.0000000000000000e+00 +2.7999999887826026e+00 -3.0760498565636708e-02 -5.7935442811779181e-01 +5.6438286912195859e-03
2.8499999999999979e+00 +8.5977751286683173e+00 +0.0000000000000000e+00 +2.8499999881707256e+00 -3.0761622312631076e-02 -5.7937281883915892e-01 +5.6437115766558446e-03
2.8999999999999977e+00 +8.5977671679837346e+00 +0.0000000000000000e+00 +2.8999999875369848e+00 -3.0762762237615354e-02 -5.7939150853496213e-01 +5.6436044800815040e-03
2.9499999999999975e+00 +8.5977590687641623e+00 +0.0000000000000000e+00 +2.9499999868809952e+00 -3.0763918300728711e-02 -5.7941049524977717e-01 +5.6435074069008904e-03
2.9999999999999973e+00 +8.5977508310050617e+00 +0.0000000000000000e+00 +2.9999999862023725e+00 -3.0765090462108829e-02 -5.7942977702818721e-01 +5.6434203625191576e-03
3.0499999999999972e+00 +8.5977424547018213e+00 +0.0000000000000000e+00 +3.0499999855007318e+00 -3.0766278681891808e-02 -5.7944935191478164e-01 +5.6433433523423093e-03
3.0999999999999970e+00 +8.5977339398497623e+00 +0.0000000000000000e+00 +3.0999999847756889e+00 -3.0767482920212193e-02 -5.7946921795415784e-01 +5.6432763817772244e-03
3.1499999999999968e+00 +8.5977252864441329e+00 +0.0000000000000000e+00 +3.1499999840268584e+00 -3.0768703137202747e-02 -5.7948937319091831e-01 +5.6432194562316745e-03
3.1999999999999966e+00 +8.5977164944801157e+00 +0.0000000000000000e+00 +3.1999999832538562e+00 -3.0769939292994469e-02 -5.7950981566967263e-01 +5.6431725811143391e-03
3.2499999999999964e+00 +8.5977075639528220e+00 +0.0000000000000000e+00 +3.2499999824562971e+00 -3.0771191347716564e-02 -5.7953054343503696e-01 +5.6431357618348414e-03
3.2999999999999963e+00 +8.5976984948572959e+00 +0.0000000000000000e+00 +3.2999999816337962e+00 -3.0772459261496212e-02 -5.7955155453163198e-01 +5.6431090038037510e-03
3.3499999999999961e+00 +8.5976892871885138e+00 +0.0000000000000000e+00 +3.3499999807859684e+00 -3.0773742994458654e-02 -5.7957284700408518e-01 +5.6430923124326212e-03
3.3999999999999959e+00 +8.5976799409413847e+00 +0.0000000000000000e+00 +3.3999999799124292e+00 -3.0775042506727041e-02 -5.7959441889702845e-01 +5.6430856931339911e-03
3.4499999999999957e+00 +8.5976704561107518e+00 +0.0000000000000000e+00 +3.4499999790127931e+00 -3.0776357758422326e-02 -5.7961626825509949e-01 +5.6430891513214246e-03
3.4999999999999956e+00 +8.5976608326913890e+00 +0.0000000000000000e+00 +3.4999999780866751e+00 -3.0777688709663280e-02 -5.7963839312294030e-01 +5.6431026924095183e-03
3.5499999999999954e+00 +8.5976510706780083e+00 +0.0000000000000000e+00 +3.5499999771336901e+00 -3.0779035320566341e-02 -5.7966079154519790e-01 +5.6431263218139341e-03
3.5999999999999952e+00 +8.5976411700652520e+00 +0.0000000000000000e+00 +3.5999999761534527e+00 -3.0780397551245581e-02 -5.7968346156652373e-01 +5.6431600449514084e-03
3.6499999999999950e+00 +8.5976311308477005e+00 +0.0000000000000000e+00 +3.6499999751455778e+00 -3.0781775361812598e-02 -5.7970640123157280e-01 +5.6432038672397733e-03
3.6999999999999948e+00 +8.5976209530198702e+00 +0.0000000000000000e+00 +3.6999999741096801e+00 -3.0783168712376463e-02 -5.7972960858500511e-01 +5.6432577940979927e-03
3.7499999999999947e+00 +8.5976106365762117e+00 +0.0000000000000000e+00 +3.7499999730453739e+00 -3.0784577563043636e-02 -5.7975308167148298e-01 +5.6433218309461597e-03
3.7999999999999945e+00 +8.5976001815111118e+00 +0.0000000000000000e+00 +3.7999999719522739e+00 -3.0786001873917904e-02 -5.7977681853567320e-01 +5.6433959832055351e-03
3.8499999999999943e+00 +8.5975895878188950e+00 +0.0000000000000000e+00 +3.8499999708299946e+00 -3.0787441605100281e-02 -5.7980081722224541e-01 +5.6434802562985650e-03
3.8999999999999941e+00 +8.5975788554938237e+00 +0.0000000000000000e+00 +3.8999999696781504e+00 -3.0788896716688951e-02 -5.7982507577587217e-01 +5.6435746556488938e-03
3.9499999999999940e+00 +8.5975679845300981e+00 +0.0000000000000000e+00 +3.9499999684963560e+00 -3.0790367168779215e-02 -5.7984959224122845e-01 +5.6436791866813938e-03
3.9999999999999938e+00 +8.5975569749218561e+00 +0.0000000000000000e+00 +3.9999999672842255e+00 -3.0791852921463334e-02 -5.7987436466299236e-01 +5.6437938548221751e-03
4.0499999999999936e+00 +8.5975458266631737e+00 +0.0000000000000000e+00 +4.0499999660413728e+00 -3.0793353910238686e-02 -5.7989939096414878e-01 +5.6439186556213440e-03
4.0999999999999934e+00 +8.5975345397480680e+00 +0.0000000000000000e+00 +4.0999999647674121e+00 -3.0794869972233407e-02 -5.7992466858090530e-01 +5.6440535451206661e-03
4.1499999999999932e+00 +8.5975231141704960e+00 +0.0000000000000000e+00 +4.1499999634619575e+00 -3.0796400919984673e-02 -5.7995019482777677e-01 +5.6441984694847354e-03
4.1999999999999931e+00 +8.5975115499243522e+00 +0.0000000000000000e+00 +4.1999999621246236e+00 -3.0797946566031117e-02 -5.7997596701928156e-01 +5.6443533748781636e-03
4.2499999999999929e+00 +8.5974998470034762e+00 +0.0000000000000000e+00 +4.2499999607550238e+00 -3.0799506722912921e-02 -5.8000198246994095e-01 +5.6445182074655702e-03
4.2999999999999927e+00 +8.5974880054016474e+00 +0.0000000000000000e+00 +4.2999999593527720e+00 -3.0801081203171817e-02 -5.8002823849427876e-01 +5.6446929134115562e-03
4.3499999999999925e+00 +8.5974760251125879e+00 +0.0000000000000000e+00 +4.3499999579174826e+00 -3.0802669819351192e-02 -5.8005473240682126e-01 +5.6448774388806883e-03
4.3999999999999924e+00 +8.5974639061299634e+00 +0.0000000000000000e+00 +4.3999999564487693e+00 -3.0804272383996183e-02 -5.8008146152209772e-01 +5.6450717300374938e-03
4.4499999999999922e+00 +8.5974516484473824e+00 +0.0000000000000000e+00 +4.4499999549462457e+00 -3.0805888709653634e-02 -5.8010842315463951e-01 +5.6452757330464221e-03
4.4999999999999920e+00 +8.5974392520583987e+00 +0.0000000000000000e+00 +4.4999999534095254e+00 -3.0807518608872306e-02 -5.8013561461897889e-01 +5.6454893940718412e-03
4.5499999999999918e+00 +8.5974267169565106e+00 +0.0000000000000000e+00 +4.5499999518382213e+00 -3.0809161894202831e-02 -5.8016303322965124e-01 +5.6457126592780208e-03
4.5999999999999917e+00 +8.5974140431351636e+00 +0.0000000000000000e+00 +4.5999999502319477e+00 -3.0810818378197782e-02 -5.8019067630119281e-01 +5.6459454748291008e-03
4.6499999999999915e+00 +8.5974012305877476e+00 +0.0000000000000000e+00 +4.6499999485903176e+00 -3.0812487873411828e-02 -5.8021854114814131e-01 +5.6461877868890908e-03
4.6999999999999913e+00 +8.5973882793075997e+00 +0.0000000000000000e+00 +4.6999999469129445e+00 -3.0814170192401690e-02 -5.8024662508503622e-01 +5.6464395416218408e-03
4.7499999999999911e+00 +8.5973751892880053e+00 +0.0000000000000000e+00 +4.7499999451994421e+00 -3.0815865147726270e-02 -5.8027492542641734e-01 +5.6467006851910282e-03
4.7999999999999909e+00 +8.5973619605221963e+00 +0.0000000000000000e+00 +4.7999999434494232e+00 -3.0817572551946698e-02 -5.8030343948682561e-01 +5.6469711637601363e-03
4.8499999999999908e+00 +8.5973485930033569e+00 +0.0000000000000000e+00 +4.8499999416625013e+00 -3.0819292217626380e-02 -5.8033216458080239e-01 +5.6472509234924417e-03
4.8999999999999906e+00 +8.5973350867246179e+00 +0.0000000000000000e+00 +4.8999999398382892e+00 -3.0821023957331099e-02 -5.8036109802289004e-01 +5.6475399105509923e-03
4.9499999999999904e+00 +8.5973214416790622e+00 +0.0000000000000000e+00 +4.9499999379764006e+00 -3.0822767583629021e-02 -5.8039023712763038e-01 +5.6478380710985911e-03
4.9999999999999902e+00 +8.5973076578597230e+00 +0.0000000000000000e+00 +4.9999999360764473e+00 -3.0824522909090858e-02 -5.8041957920956633e-01 +5.6481453512977836e-03
5.0499999999999901e+00 +8.5972937352595835e+00 +0.0000000000000000e+00 +5.0499999341380430e+00 -3.0826289746289808e-02 -5.8044912158323947e-01 +5.6484616973108241e-03
5.0999999999999899e+00 +8.5972796738715811e+00 +0.0000000000000000e+00 +5.0999999321608005e+00 -3.0828067907801716e-02 -5.8047886156319195e-01 +5.6487870552996821e-03
5.1499999999999897e+00 +8.5972654736886049e+00 +0.0000000000000000e+00 +5.1499999301443324e+00 -3.0829857206205086e-02 -5.8050879646396458e-01 +5.6491213714259985e-03
5.1999999999999895e+00 +8.5972511347034963e+00 +0.0000000000000000e+00 +5.1999999280882516e+00 -3.0831657454081184e-02 -5.8053892360009851e-01 +5.6494645918510897e-03
5.2499999999999893e+00 +8.5972366569090539e+00 +0.0000000000000000e+00 +5.2499999259921699e+00 -3.0833468464014066e-02 -5.8056924028613344e-01 +5.6498166627359210e-03
5.2999999999999892e+00 +8.5972220402980266e+00 +0.0000000000000000e+00 +5.2999999238557010e+00 -3.0835290048590650e-02 -5.8059974383660717e-01 +5.6501775302410786e-03
5.3499999999999890e+00 +8.5972072848631225e+00 +0.0000000000000000e+00 +5.3499999216784566e+00 -3.0837122020400804e-02 -5.8063043156605776e-01 +5.6505471405267739e-03
5.3999999999999888e+00 +8.5971923905970051e+00 +0.0000000000000000e+00 +5.3999999194600488e+00 -3.0838964192037400e-02 -5.8066130078902090e-01 +5.6509254397528056e-03
5.4499999999999886e+00 +8.5971773574922921e+00 +0.0000000000000000e+00 +5.4499999172000901e+00 -3.0840816376096345e-02 -5.8069234882003040e-01 +5.6513123740785558e-03
5.4999999999999885e+00 +8.5971621855415599e+00 +0.0000000000000000e+00 +5.4999999148981935e+00 -3.0842678385176698e-02 -5.8072357297361910e-01 +5.6517078896629628e-03
5.5499999999999883e+00 +8.5971468747373443e+00 +0.0000000000000000e+00 +5.5499999125539698e+00 -3.0844550031880687e-02 -5.8075497056431613e-01 +5.6521119326645060e-03
5.5999999999999881e+00 +8.5971314250721367e+00 +0.0000000000000000e+00 +5.5999999101670319e+00 -3.0846431128813846e-02 -5.8078653890665077e-01 +5.6525244492411954e-03
5.6499999999999879e+00 +8.5971158365383911e+00 +0.0000000000000000e+00 +5.6499999077369916e+00 -3.0848321488584938e-02 -5.8081827531514729e-01 +5.6529453855505389e-03
5.6999999999999877e+00 +8.5971001091285171e+00 +0.0000000000000000e+00 +5.6999999052634616e+00 -3.0850220923806196e-02 -5.8085017710432929e-01 +5.6533746877495414e-03
5.7499999999999876e+00 +8.5970842428348870e+00 +0.0000000000000000e+00 +5.7499999027460529e+00 -3.0852129247093261e-02 -5.8088224158871649e-01 +5.6538123019946769e-03
5.7999999999999874e+00 +8.5970682376498360e+00 +0.0000000000000000e+00 +5.7999999001843774e+00 -3.0854046271065291e-02 -5.8091446608282571e-01 +5.6542581744418651e-03
5.8499999999999872e+00 +8.5970520935656580e+00 +0.0000000000000000e+00 +5.8499998975780469e+00 -3.0855971808345047e-02 -5.8094684790117124e-01 +5.6547122512464777e-03
5.8999999999999870e+00 +8.5970358105746119e+00 +0.0000000000000000e+00 +5.8999998949266725e+00 -3.0857905671558872e-02 -5.8097938435826235e-01 +5.6551744785632825e-03
