# multipoles
# s[mm] polynom_b[n=0][T/m^n] polynom_b[n=1][T/m^n] polynom_b[n=2][T/m^n] polynom_b[n=3][T/m^n] polynom_b[n=4][T/m^n] polynom_b[n=5][T/m^n] polynom_b[n=6][T/m^n] 
+0.0000000000000000e+00 -5.5127692153119312e-01 +7.2337800930364127e+00 +5.1836680191056006e+00 -5.5132673326063433e+01 -4.8214204021835030e+03 +1.2990722198115225e+05 +3.6120480878497913e+07 
+5.0000000000000003e-02 -5.5127725785240189e-01 +7.2337460000706502e+00 +5.1899499870597232e+00 -5.4657992058332319e+01 -4.9536475089759633e+03 +1.2741692760572959e+05 +3.6915263349582322e+07 
+1.0000000000000001e-01 -5.5127797100189102e-01 +7.2337317254861375e+00 +5.1961404054713984e+00 -5.4166234998833247e+01 -5.0899861023939056e+03 +1.2481338691072445e+05 +3.7722037777142443e+07 
+1.5000000000000002e-01 -5.5127905992473281e-01 +7.2337372399818944e+00 +5.2022235663426821e+00 -5.3658215312938395e+01 -5.2302143659867461e+03 +1.2210231827078847e+05 +3.8539996502175398e+07 
+2.0000000000000001e-01 -5.5128052356601642e-01 +7.2337625142461635e+00 +5.2081837615137880e+00 -5.3134745713352189e+01 -5.3741104802387517e+03 +1.1928943641257158e+05 +3.9368331851544656e+07 
+2.5000000000000000e-01 -5.5128236087084526e-01 +7.2338075189739337e+00 +5.2140052822310858e+00 -5.2596639158225095e+01 -5.5214526056155955e+03 +1.1638045807690507e+05 +4.0206235998462334e+07 
+2.9999999999999999e-01 -5.5128457078433979e-01 +7.2338722248561425e+00 +5.2196724201579281e+00 -5.2044708429795968e+01 -5.6720189203948294e+03 +1.1338109862830327e+05 +4.1052901263619199e+07 
+3.4999999999999998e-01 -5.5128715225164848e-01 +7.2339566025908502e+00 +5.2251694683967820e+00 -5.1479766583905786e+01 -5.8255876372927860e+03 +1.1029707572907262e+05 +4.1907520183253221e+07 
+3.9999999999999997e-01 -5.5129010421790992e-01 +7.2340606228685891e+00 +5.2304807154379693e+00 -5.0902626330045045e+01 -5.9819368461549630e+03 +1.0713410415680832e+05 +4.2769284470129587e+07 
+4.4999999999999996e-01 -5.5129342562830741e-01 +7.2341842563854071e+00 +5.2355904548630683e+00 -5.0314100596697642e+01 -6.1408447738959530e+03 +1.0389790056615918e+05 +4.3637386758969411e+07 
+4.9999999999999994e-01 -5.5129711542803972e-01 +7.2343274738352914e+00 +5.2404829794129926e+00 -4.9715002210205640e+01 -6.3020896223154195e+03 +1.0059418082609252e+05 +4.4511019508757330e+07 
+5.4999999999999993e-01 -5.5130117256229705e-01 +7.2344902459139613e+00 +5.2451425780964911e+00 -4.9106144026356709e+01 -6.4654495002827316e+03 +9.7228660982814647e+04 +4.5389374579993792e+07 
+5.9999999999999998e-01 -5.5130559597630646e-01 +7.2346725433149448e+00 +5.2495535431265097e+00 -4.8488338807774191e+01 -6.6307025949727922e+03 +9.3807056418019842e+04 +4.6271644327627517e+07 
+6.5000000000000002e-01 -5.5131038461531012e-01 +7.2348743367369686e+00 +5.2537001662536156e+00 -4.7862399490930585e+01 -6.7976270841928372e+03 +9.0335083890569091e+04 +4.7157021057901159e+07 
+7.0000000000000007e-01 -5.5131553742456685e-01 +7.2350955968767217e+00 +5.2575667393858776e+00 -4.7229138911199868e+01 -6.9660011511310895e+03 +8.6818459368250275e+04 +4.8044697118974105e+07 
+7.5000000000000011e-01 -5.5132105334934023e-01 +7.2353362944287234e+00 +5.2611375521078205e+00 -4.6589369788810664e+01 -7.1356029112129718e+03 +8.3262897873142327e+04 +4.8933864377156854e+07 
+8.0000000000000016e-01 -5.5132693133493271e-01 +7.2355964000947672e+00 +5.2643968986696272e+00 -4.5943905124703939e+01 -7.3062106149106648e+03 +7.9674116766842577e+04 +4.9823715649427600e+07 
+8.5000000000000020e-01 -5.5133317032663876e-01 +7.2358758845714251e+00 +5.2673290680921117e+00 -4.5293557666408518e+01 -7.4776023614040068e+03 +7.6057831283453692e+04 +5.0713442689909838e+07 
+9.0000000000000024e-01 -5.5133976926978490e-01 +7.2361747185571339e+00 +5.2699183525567346e+00 -4.4639140212974638e+01 -7.6495563395724612e+03 +7.2419757076610913e+04 +5.1602237875035450e+07 
+9.5000000000000029e-01 -5.5134672710970445e-01 +7.2364928727544333e+00 +5.2721490429344673e+00 -4.3981465713868410e+01 -7.8218507056803164e+03 +6.8765611069342718e+04 +5.2489293372245647e+07 
+1.0000000000000002e+00 -5.5135404279176281e-01 +7.2368303178619788e+00 +5.2740054320255068e+00 -4.3321346925720796e+01 -7.9942636604248301e+03 +6.5101108565598777e+04 +5.3373801619637214e+07 
+1.0500000000000003e+00 -5.5136171526132149e-01 +7.2371870245837355e+00 +5.2754718099395781e+00 -4.2659596789056771e+01 -8.1665733390868163e+03 +6.1431966352339557e+04 +5.4254954638541780e+07 
+1.1000000000000003e+00 -5.5136974346377521e-01 +7.2375629636207330e+00 +5.2765324692014079e+00 -4.1997028103991745e+01 -8.3385579364338737e+03 +5.7763900068701289e+04 +5.5131944832522586e+07 
+1.1500000000000004e+00 -5.5137812634452765e-01 +7.2379581056807165e+00 +5.2771717011762789e+00 -4.1334453913095771e+01 -8.5099956164053820e+03 +5.4102627327057118e+04 +5.6003964396325551e+07 
+1.2000000000000004e+00 -5.5138686284898730e-01 +7.2383724214643994e+00 +5.2773737955589084e+00 -4.0672686935857648e+01 -8.6806644996047762e+03 +5.0453863029882566e+04 +5.6870205238783993e+07 
+1.2500000000000004e+00 -5.5139595192260871e-01 +7.2388058816785321e+00 +5.2771230470353947e+00 -4.0012540120979800e+01 -8.8503428397915704e+03 +4.6823323990537880e+04 +5.7729860162035912e+07 
+1.3000000000000005e+00 -5.5140539251083143e-01 +7.2392584570317000e+00 +5.2764037453072286e+00 -3.9354826444651643e+01 -9.0188087584007135e+03 +4.3216727157422378e+04 +5.8582121082200445e+07 
+1.3500000000000005e+00 -5.5141518355912700e-01 +7.2397301182292733e+00 +5.2752001819332408e+00 -3.8700358729539232e+01 -9.1858404179948302e+03 +3.9639788216614201e+04 +5.9426180158033855e+07 
+1.4000000000000006e+00 -5.5142532401298561e-01 +7.2402208359822371e+00 +5.2734966503037359e+00 -3.8049949994357434e+01 -9.3512160415678427e+03 +3.6098224422322841e+04 +6.0261229997521721e+07 
+1.4500000000000006e+00 -5.5143581281790155e-01 +7.2407305810025830e+00 +5.2712774405219580e+00 -3.7404413263992886e+01 -9.5147137524200261e+03 +3.2597753032834222e+04 +6.1086462494143747e+07 
+1.5000000000000007e+00 -5.5144664891940542e-01 +7.2412593239999437e+00 +5.2685268471855276e+00 -3.6764561436151496e+01 -9.6761118018210091e+03 +2.9144090225927721e+04 +6.1901070429687001e+07 
+1.5500000000000007e+00 -5.5145783126300951e-01 +7.2418070356865369e+00 +5.2652291584313531e+00 -3.6131207476348898e+01 -9.8351882612837198e+03 +2.5742952679030161e+04 +6.2704245349496596e+07 
+1.6000000000000008e+00 -5.5146935879427650e-01 +7.2423736867801578e+00 +5.2613686689557824e+00 -3.5505164546150262e+01 -9.9917213830604524e+03 +2.2400058637706086e+04 +6.3495180035059690e+07 
+1.6500000000000008e+00 -5.5148123045876052e-01 +7.2429592479938982e+00 +5.2569296689226572e+00 -3.4887245580005739e+01 -1.0145489292283553e+04 +1.9121124420884891e+04 +6.4273066387946635e+07 
+1.7000000000000008e+00 -5.5149344520206578e-01 +7.2435636900458071e+00 +5.2518964545636635e+00 -3.4278263681134774e+01 -1.0296270279146833e+04 +1.5911867695330886e+04 +6.5037097433057666e+07 
+1.7500000000000009e+00 -5.5150600196977051e-01 +7.2441869836557320e+00 +5.2462533150544726e+00 -3.3679031982286318e+01 -1.0443842442260810e+04 +1.2778006270276597e+04 +6.5786464890990622e+07 
+1.8000000000000009e+00 -5.5151889970748325e-01 +7.2448290995438311e+00 +5.2399845420571056e+00 -3.3090363601115335e+01 -1.0587983945757203e+04 +9.7252578073672466e+03 +6.6520360921179019e+07 
+1.8500000000000010e+00 -5.5153213736084461e-01 +7.2454900084295915e+00 +5.2330744303607384e+00 -3.2513071581779990e+01 -1.0728473039292518e+04 +6.7593392650316155e+03 +6.7237978263172761e+07 
+1.9000000000000010e+00 -5.5154571387550111e-01 +7.2461696810397447e+00 +5.2255072731038013e+00 -3.1947969232204777e+01 -1.0865087926025633e+04 +3.8859697075574763e+03 +6.7938509334950417e+07 
+1.9500000000000011e+00 -5.5155962819709925e-01 +7.2468680880981315e+00 +5.2172673603523698e+00 -3.1395869703898235e+01 -1.0997606721874308e+04 +1.1108668554094388e+03 +6.8621145946678400e+07 
+2.0000000000000009e+00 -5.5157387927132728e-01 +7.2475852003321828e+00 +5.2083389876188111e+00 -3.0857586250624600e+01 -1.1125807695586147e+04 -1.5602508324561345e+03 +6.9285080963735610e+07 
+2.0500000000000007e+00 -5.5158846593230548e-01 +7.2483209685636414e+00 +5.1987108579202452e+00 -3.0333735674754887e+01 -1.1249515822503363e+04 -4.1231277759147424e+03 +6.9929660212381989e+07 
+2.1000000000000005e+00 -5.5160338656765484e-01 +7.2490752606456281e+00 +5.1883898089547422e+00 -2.9824234535960212e+01 -1.1368746837906072e+04 -6.5788067688303727e+03 +7.0554871393289536e+07 
+2.1500000000000004e+00 -5.5161863945335365e-01 +7.2498479228511785e+00 +5.1773873460079605e+00 -2.9328846283646481e+01 -1.1483565056227601e+04 -8.9295180952979117e+03 +7.1160869554198846e+07 
+2.2000000000000002e+00 -5.5163422286538233e-01 +7.2506388014516716e+00 +5.1657149728566649e+00 -2.8847334290480809e+01 -1.1594034754396505e+04 -1.1177492680094203e+04 +7.1747809505552858e+07 
+2.2500000000000000e+00 -5.5165013507971628e-01 +7.2514477427200452e+00 +5.1533841902129289e+00 -2.8379461977616330e+01 -1.1700220123110694e+04 -1.3324961051193832e+04 +7.2315845457479939e+07 
+2.2999999999999998e+00 -5.5166637437237576e-01 +7.2522745929282708e+00 +5.1404065043595359e+00 -2.7924992714682663e+01 -1.1802185504398420e+04 -1.5374154155277392e+04 +7.2865132652263924e+07 
+2.3499999999999996e+00 -5.5168293901936660e-01 +7.2531191983502445e+00 +5.1267934172550191e+00 -2.7483689931956658e+01 -1.1899995122053957e+04 -1.7327302459582133e+04 +7.3395825523052782e+07 
+2.3999999999999995e+00 -5.5169982729670930e-01 +7.2539814052591067e+00 +5.1125564315924956e+00 -2.7055317029287540e+01 -1.1993713223182893e+04 -1.9186636628018168e+04 +7.3908078677459791e+07 
+2.4499999999999993e+00 -5.5171703748044976e-01 +7.2548610599306000e+00 +5.0977070524228019e+00 -2.6639637487450194e+01 -1.2083404115663030e+04 -2.0954386711177718e+04 +7.4402047120817289e+07 
+2.4999999999999991e+00 -5.5173456784662089e-01 +7.2557580086362998e+00 +5.0822567802775236e+00 -2.6236414612423914e+01 -1.2169131981934208e+04 -2.2632784171158353e+04 +7.4877884998884797e+07 
+2.5499999999999989e+00 -5.5175241667130615e-01 +7.2566720976547296e+00 +5.0662171229746047e+00 -2.5845411993905529e+01 -1.2250961204705247e+04 -2.4224058095392069e+04 +7.5335747826013014e+07 
+2.5999999999999988e+00 -5.5177058223055397e-01 +7.2576031732581576e+00 +5.0495995804338172e+00 -2.5466392943933084e+01 -1.2328955952689796e+04 -2.5730439895548301e+04 +7.5775789664921865e+07 
+2.6499999999999986e+00 -5.5178906280044571e-01 +7.2585510817225014e+00 +5.0324156564070162e+00 -2.5099120917937089e+01 -1.2403180496960689e+04 -2.7154159791221318e+04 +7.6198165268676907e+07 
+2.6999999999999984e+00 -5.5180785665708132e-01 +7.2595156693234379e+00 +5.0146768563428061e+00 -2.4743359364151456e+01 -1.2473699157998904e+04 -2.8497448008136951e+04 +7.6603029739744648e+07 
+2.7499999999999982e+00 -5.5182696207654391e-01 +7.2604967823377216e+00 +4.9963946803875672e+00 -2.4398871769166814e+01 -1.2540576104405438e+04 -2.9762534446296060e+04 +7.6990537118229106e+07 
+2.7999999999999980e+00 -5.5184637733495856e-01 +7.2614942670386240e+00 +4.9775806349457863e+00 -2.4065421457076152e+01 -1.2603875679196251e+04 -3.0951650390852719e+04 +7.7360842645654052e+07 
+2.8499999999999979e+00 -5.5186610070843356e-01 +7.2625079697049602e+00 +4.9582462217941838e+00 -2.3742771994129491e+01 -1.2663662103385725e+04 -3.2067025031213630e+04 +7.7714100753749594e+07 
+2.8999999999999977e+00 -5.5188613047309787e-01 +7.2635377366095026e+00 +4.9384029441997734e+00 -2.3430686685075841e+01 -1.2719999627530851e+04 -3.3110889747101770e+04 +7.8050466026806682e+07 
+2.9499999999999975e+00 -5.5190646490509554e-01 +7.2645834140319332e+00 +4.9180623072197838e+00 -2.3128929115380906e+01 -1.2772952563127787e+04 -3.4085473580374142e+04 +7.8370093517707705e+07 
+2.9999999999999973e+00 -5.5192710228056518e-01 +7.2656448482455147e+00 +4.8972358128128164e+00 -2.2837262613851117e+01 -1.2822585128357045e+04 -3.4993007636202310e+04 +7.8673137608017534e+07 
+3.0499999999999972e+00 -5.5194804087566496e-01 +7.2667218855268763e+00 +4.8759349650926120e+00 -2.2555450641606232e+01 -1.2868961602499836e+04 -3.5835721931438078e+04 +7.8959753105252385e+07 
+3.0999999999999970e+00 -5.5196927896654935e-01 +7.2678143721540271e+00 +4.8541712660565812e+00 -2.2283256715266557e+01 -1.2912146208547978e+04 -3.6615846005508996e+04 +7.9230094440130323e+07 
+3.1499999999999968e+00 -5.5199081482939616e-01 +7.2689221544004905e+00 +4.8319562201464015e+00 -2.2020444175591614e+01 -1.2952203232547705e+04 -3.7335610794848988e+04 +7.9484316461029261e+07 
+3.1999999999999966e+00 -5.5201264674038486e-01 +7.2700450785425224e+00 +4.8093013306927883e+00 -2.1766776473406651e+01 -1.2989196930107175e+04 -3.7997246319512589e+04 +7.9722573807173774e+07 
+3.2499999999999964e+00 -5.5203477297570114e-01 +7.2711829908585131e+00 +4.7862181013883927e+00 -2.1522017152367088e+01 -1.3023191573430367e+04 -3.8602981797634828e+04 +7.9945021258354977e+07 
+3.2999999999999963e+00 -5.5205719181153345e-01 +7.2723357376195352e+00 +4.7627180340940267e+00 -2.1285929454122090e+01 -1.3054251374280009e+04 -3.9155048926944248e+04 +8.0151813145066321e+07 
+3.3499999999999961e+00 -5.5207990152408148e-01 +7.2735031651040760e+00 +4.7388126320168915e+00 -2.1058276940320614e+01 -1.3082440589842266e+04 -3.9655676698961906e+04 +8.0343104141411543e+07 
+3.3999999999999959e+00 -5.5210290038956356e-01 +7.2746851195868594e+00 +4.7145134001352398e+00 -2.0838823019047013e+01 -1.3107823519081201e+04 -4.0107095350983291e+04 +8.0519049178798601e+07 
+3.4499999999999957e+00 -5.5212618668419056e-01 +7.2758814473415683e+00 +4.6898318409822597e+00 -2.0627331056953949e+01 -1.3130464397756732e+04 -4.0511535452198623e+04 +8.0679802776604414e+07 
+3.4999999999999956e+00 -5.5214975868418359e-01 +7.2770919946425714e+00 +4.6647794576411066e+00 -2.0423564469967783e+01 -1.3150427476205523e+04 -4.0871227075262301e+04 +8.0825519551780343e+07 
+3.5499999999999954e+00 -5.5217361466577386e-01 +7.2783166077661994e+00 +4.6393677536909106e+00 -2.0227286750807757e+01 -1.3167777015410680e+04 -4.1188399674498192e+04 +8.0956354183456630e+07 
+3.5999999999999952e+00 -5.5219775290518569e-01 +7.2795551329853065e+00 +4.6136082304416073e+00 -2.0038261261764383e+01 -1.3182577215303447e+04 -4.1465283719719002e+04 +8.1072460938890278e+07 
+3.6499999999999950e+00 -5.5222217167866916e-01 +7.2808074165727161e+00 +4.5875123931821893e+00 -1.9856251382148436e+01 -1.3194892390697323e+04 -4.1704109477706748e+04 +8.1173994895621032e+07 
+3.6999999999999948e+00 -5.5224686926246824e-01 +7.2820733048018171e+00 +4.5610917441637486e+00 -1.9681020517497426e+01 -1.3204786762208369e+04 -4.1907106985411869e+04 +8.1261110445121557e+07 
+3.7499999999999947e+00 -5.5227184393283413e-01 +7.2833526439446370e+00 +4.5343577862538735e+00 -1.9512332033812740e+01 -1.3212324573211479e+04 -4.2076506543824100e+04 +8.1333962160685644e+07 
+3.7999999999999945e+00 -5.5229709396602356e-01 +7.2846452802735726e+00 +4.5073220227489497e+00 -1.9349949321263953e+01 -1.3217570080684965e+04 -4.2214538224908007e+04 +8.1392704714037031e+07 
+3.8499999999999943e+00 -5.5232261763829438e-01 +7.2859510600616497e+00 +4.4799959556366939e+00 -1.9193635823320875e+01 -1.3220587500810701e+04 -4.2323431565230159e+04 +8.1437492482194498e+07 
+3.8999999999999941e+00 -5.5234841322592343e-01 +7.2872698295775482e+00 +4.4523910897346415e+00 -1.9043154804693362e+01 -1.3221441132342343e+04 -4.2405417577386928e+04 +8.1468480428801790e+07 
+3.9499999999999940e+00 -5.5237447900517445e-01 +7.2886014350916417e+00 +4.4245189263456046e+00 -1.8898269619852346e+01 -1.3220195171498219e+04 -4.2462726480709767e+04 +8.1485822790854871e+07 
+3.9999999999999938e+00 -5.5240081325232493e-01 +7.2899457228754994e+00 +4.3963909686613132e+00 -1.8758743688649805e+01 -1.3216913870775390e+04 -4.2497587843380039e+04 +8.1489674216215089e+07 
+4.0499999999999936e+00 -5.5242741406649254e-01 +7.2913025336704909e+00 +4.3680180389655057e+00 -1.8624351780549965e+01 -1.3211659569669431e+04 -4.2511976276596142e+04 +8.1480206041666254e+07 
+4.0999999999999934e+00 -5.5245427883831666e-01 +7.2926716766238853e+00 +4.3394086293885614e+00 -1.8494874019125490e+01 -1.3204487651535877e+04 -4.2507084266567079e+04 +8.1457651650856346e+07 
+4.1499999999999932e+00 -5.5248140478132535e-01 +7.2940529506134224e+00 +4.3105707725195410e+00 -1.8370083292631545e+01 -1.3195451889635084e+04 -4.2483964212883817e+04 +8.1422258378540888e+07 
+4.1999999999999931e+00 -5.5250878910906853e-01 +7.2954461545172942e+00 +4.2815125039015580e+00 -1.8249752504805727e+01 -1.3184606127136945e+04 -4.2443668527307251e+04 +8.1374274002379864e+07 
+4.2499999999999929e+00 -5.5253642903509803e-01 +7.2968510872147014e+00 +4.2522418597272429e+00 -1.8133654621848496e+01 -1.3172004233950789e+04 -4.2387249041184761e+04 +8.1313946518087149e+07 
+4.2999999999999927e+00 -5.5256432177295722e-01 +7.2982675475836958e+00 +4.2227668743001390e+00 -1.8021562576532542e+01 -1.3157700023729178e+04 -4.2315757820174935e+04 +8.1241523516302556e+07 
+4.3499999999999925e+00 -5.5259246453618993e-01 +7.2996953345004831e+00 +4.1930955820995983e+00 -1.7913249221924843e+01 -1.3141747317790225e+04 -4.2230247621492490e+04 +8.1157252651015162e+07 
+4.3999999999999924e+00 -5.5262085453835386e-01 +7.3011342468430831e+00 +4.1632360194606219e+00 -1.7808487514884192e+01 -1.3124199986791686e+04 -4.2131770247829074e+04 +8.1061381910420090e+07 
+4.4499999999999922e+00 -5.5264948899298894e-01 +7.3025840834870355e+00 +4.1331962201802774e+00 -1.7707050315336325e+01 -1.3105111835213480e+04 -4.2021378311202112e+04 +8.0954158837759048e+07 
+4.4999999999999920e+00 -5.5267836511364321e-01 +7.3040446433088624e+00 +4.1029842188059327e+00 -1.7608710533638423e+01 -1.3084536684338304e+04 -4.1900123979669275e+04 +8.0835831079661414e+07 
+4.5499999999999918e+00 -5.5270748011386495e-01 +7.3055157251848755e+00 +4.0726080510838010e+00 -1.7513241083154988e+01 -1.3062528396719987e+04 -4.1769059386968125e+04 +8.0706646592431188e+07 
+4.5999999999999917e+00 -5.5273683120720696e-01 +7.3069971279883896e+00 +4.0420757522415887e+00 -1.7420414781099279e+01 -1.3039140810244224e+04 -4.1629237373943688e+04 +8.0566853127204344e+07 
+4.6499999999999915e+00 -5.5276641560720541e-01 +7.3084886505941222e+00 +4.0113953557953712e+00 -1.7330004497313020e+01 -1.3014427725562715e+04 -4.1481710393793423e+04 +8.0416698214373067e+07 
+4.6999999999999913e+00 -5.5279623052741567e-01 +7.3099900918785288e+00 +3.9805748983265796e+00 -1.7241783208455569e+01 -1.2988443021317187e+04 -4.1327529918318243e+04 +8.0256429892877162e+07 
+4.7499999999999911e+00 -5.5282627318135913e-01 +7.3115012507114470e+00 +3.9496224109060680e+00 -1.7155523620548497e+01 -1.2961240432180140e+04 -4.1167749665414100e+04 +8.0086295246535286e+07 
+4.7999999999999909e+00 -5.5285654078260527e-01 +7.3130219259671545e+00 +3.9185459334473980e+00 -1.7070998637536515e+01 -1.2932873930804637e+04 -4.1003421707877249e+04 +7.9906542964474544e+07 
+4.8499999999999908e+00 -5.5288703054466815e-01 +7.3145519165198145e+00 +3.8873534964379424e+00 -1.6987981193400653e+01 -1.2903397236009760e+04 -4.0835597760408658e+04 +7.9717420019480273e+07 
+4.8999999999999906e+00 -5.5291773968109426e-01 +7.3160910212385586e+00 +3.8560531361590251e+00 -1.6906244012171783e+01 -1.2872864223045690e+04 -4.0665331320915160e+04 +7.9519174444741309e+07 
+4.9499999999999904e+00 -5.5294866540541143e-01 +7.3176390389943462e+00 +3.8246528862510041e+00 -1.6825559926734520e+01 -1.2841328693905360e+04 -4.0493674895997829e+04 +7.9312053764644980e+07 
+4.9999999999999902e+00 -5.5297980493115506e-01 +7.3191957686607489e+00 +3.7931607825783038e+00 -1.6745701879146626e+01 -1.2808844520085342e+04 -4.0321680132570509e+04 +7.9096306014277250e+07 
+5.0499999999999901e+00 -5.5301115547184898e-01 +7.3207610091022692e+00 +3.7615848587829892e+00 -1.6666442471887102e+01 -1.2775465503780084e+04 -4.0150401381471522e+04 +7.8872178718392700e+07 
