# field on trajectory
# s[mm] rx[mm] ry[mm] rz[mm] bx[T] by[T] bz[T]
0.0000000000000000e+00 +8.2850000000000001e+00 +0.0000000000000000e+00 +0.0000000000000000e+00 -2.9240941529079939e-02 -5.5609400109898899e-01 +5.3319185736986682e-03
-5.0000000000000003e-02 +8.2849999308397706e+00 +0.0000000000000000e+00 -4.9999999999936227e-02 -2.9240530806368265e-02 -5.5609252288490529e-01 +5.3295365146186213e-03
-1.0000000000000001e-01 +8.2849997233593093e+00 +0.0000000000000000e+00 -9.9999999999489803e-02 -2.9240134125793325e-02 -5.5609140605656382e-01 +5.3271632630357228e-03
-1.5000000000000002e-01 +8.2849993775588970e+00 +0.0000000000000000e+00 -1.4999999999827807e-01 -2.9239751550276270e-02 -5.5609065036512229e-01 +5.3247989592809927e-03
-2.0000000000000001e-01 +8.2849988934387202e+00 +0.0000000000000000e+00 -1.9999999999591839e-01 -2.9239383142737631e-02 -5.5609025556175562e-01 +5.3224437436858816e-03
-2.5000000000000000e-01 +8.2849982709988765e+00 +0.0000000000000000e+00 -2.4999999999202813e-01 -2.9239028966097445e-02 -5.5609022139765563e-01 +5.3200977565822927e-03
-2.9999999999999999e-01 +8.2849975102393749e+00 +0.0000000000000000e+00 -2.9999999998622462e-01 -2.9238689083275413e-02 -5.5609054762403198e-01 +5.3177611383025862e-03
-3.4999999999999998e-01 +8.2849966111601354e+00 +0.0000000000000000e+00 -3.4999999997812525e-01 -2.9238363557191005e-02 -5.5609123399211102e-01 +5.3154340291795945e-03
-3.9999999999999997e-01 +8.2849955737609857e+00 +0.0000000000000000e+00 -3.9999999996734736e-01 -2.9238052450763573e-02 -5.5609228025313473e-01 +5.3131165695466239e-03
-4.4999999999999996e-01 +8.2849943980416665e+00 +0.0000000000000000e+00 -4.4999999995350826e-01 -2.9237755826912577e-02 -5.5609368615836452e-01 +5.3108088997374809e-03
-4.9999999999999994e-01 +8.2849930840018278e+00 +0.0000000000000000e+00 -4.9999999993622529e-01 -2.9237473748557629e-02 -5.5609545145907646e-01 +5.3085111600864668e-03
-5.4999999999999993e-01 +8.2849916316410308e+00 +0.0000000000000000e+00 -5.4999999991511583e-01 -2.9237206278618633e-02 -5.5609757590656406e-01 +5.3062234909284026e-03
-5.9999999999999998e-01 +8.2849900409587462e+00 +0.0000000000000000e+00 -5.9999999988979713e-01 -2.9236953480015961e-02 -5.5610005925213712e-01 +5.3039460325986316e-03
-6.5000000000000002e-01 +8.2849883119543577e+00 +0.0000000000000000e+00 -6.4999999985988666e-01 -2.9236715415670574e-02 -5.5610290124712236e-01 +5.3016789254330303e-03
-7.0000000000000007e-01 +8.2849864446271564e+00 +0.0000000000000000e+00 -6.9999999982500161e-01 -2.9236492148504097e-02 -5.5610610164286223e-01 +5.2994223097680209e-03
-7.5000000000000011e-01 +8.2849844389763483e+00 +0.0000000000000000e+00 -7.4999999978475929e-01 -2.9236283741439013e-02 -5.5610966019071539e-01 +5.2971763259405825e-03
-8.0000000000000016e-01 +8.2849822950010470e+00 +0.0000000000000000e+00 -7.9999999973877700e-01 -2.9236090257398831e-02 -5.5611357664205774e-01 +5.2949411142882681e-03
-8.5000000000000020e-01 +8.2849800127002791e+00 +0.0000000000000000e+00 -8.4999999968667206e-01 -2.9235911759308095e-02 -5.5611785074827980e-01 +5.2927168151491984e-03
-9.0000000000000024e-01 +8.2849775920729805e+00 +0.0000000000000000e+00 -8.9999999962806176e-01 -2.9235748310092628e-02 -5.5612248226078898e-01 +5.2905035688620931e-03
-9.5000000000000029e-01 +8.2849750331180001e+00 +0.0000000000000000e+00 -9.4999999956256331e-01 -2.9235599972679601e-02 -5.5612747093100812e-01 +5.2883015157662678e-03
-1.0000000000000002e+00 +8.2849723358340981e+00 +0.0000000000000000e+00 -9.9999999948979390e-01 -2.9235466809997727e-02 -5.5613281651037605e-01 +5.2861107962016499e-03
-1.0500000000000003e+00 +8.2849695002199439e+00 +0.0000000000000000e+00 -1.0499999994093709e+00 -2.9235348884977315e-02 -5.5613851875034714e-01 +5.2839315505087865e-03
-1.1000000000000003e+00 +8.2849665262741183e+00 +0.0000000000000000e+00 -1.0999999993209115e+00 -2.9235246260550463e-02 -5.5614457740239132e-01 +5.2817639190288626e-03
-1.1500000000000004e+00 +8.2849634139951149e+00 +0.0000000000000000e+00 -1.1499999992240328e+00 -2.9235158999651172e-02 -5.5615099221799413e-01 +5.2796080421037084e-03
-1.2000000000000004e+00 +8.2849601633813386e+00 +0.0000000000000000e+00 -1.1999999991183521e+00 -2.9235087165215484e-02 -5.5615776294865638e-01 +5.2774640600758002e-03
-1.2500000000000004e+00 +8.2849567744311052e+00 +0.0000000000000000e+00 -1.2499999990034862e+00 -2.9235030820181584e-02 -5.5616488934589392e-01 +5.2753321132882830e-03
-1.3000000000000005e+00 +8.2849532471426421e+00 +0.0000000000000000e+00 -1.2999999988790527e+00 -2.9234990027489988e-02 -5.5617237116123819e-01 +5.2732123420849847e-03
-1.3500000000000005e+00 +8.2849495815140877e+00 +0.0000000000000000e+00 -1.3499999987446685e+00 -2.9234964850083617e-02 -5.5618020814623548e-01 +5.2711048868104163e-03
-1.4000000000000006e+00 +8.2849457775434932e+00 +0.0000000000000000e+00 -1.3999999985999505e+00 -2.9234955350907987e-02 -5.5618840005244730e-01 +5.2690098878097873e-03
-1.4500000000000006e+00 +8.2849418352288211e+00 +0.0000000000000000e+00 -1.4499999984445160e+00 -2.9234961592911276e-02 -5.5619694663144992e-01 +5.2669274854290149e-03
-1.5000000000000007e+00 +8.2849377545679452e+00 +0.0000000000000000e+00 -1.4999999982779821e+00 -2.9234983639044528e-02 -5.5620584763483383e-01 +5.2648578200147397e-03
-1.5500000000000007e+00 +8.2849335355586522e+00 +0.0000000000000000e+00 -1.5499999980999657e+00 -2.9235021552261709e-02 -5.5621510281420505e-01 +5.2628010319143298e-03
-1.6000000000000008e+00 +8.2849291781986381e+00 +0.0000000000000000e+00 -1.5999999979100838e+00 -2.9235075395519922e-02 -5.5622471192118361e-01 +5.2607572614758995e-03
-1.6500000000000008e+00 +8.2849246824855154e+00 +0.0000000000000000e+00 -1.6499999977079536e+00 -2.9235145231779485e-02 -5.5623467470740462e-01 +5.2587266490483090e-03
-1.7000000000000008e+00 +8.2849200484168044e+00 +0.0000000000000000e+00 -1.6999999974931916e+00 -2.9235231124004054e-02 -5.5624499092451685e-01 +5.2567093349811930e-03
-1.7500000000000009e+00 +8.2849152759899400e+00 +0.0000000000000000e+00 -1.7499999972654150e+00 -2.9235333135160822e-02 -5.5625566032418439e-01 +5.2547054596249520e-03
-1.8000000000000009e+00 +8.2849103652022684e+00 +0.0000000000000000e+00 -1.7999999970242406e+00 -2.9235451328220568e-02 -5.5626668265808443e-01 +5.2527151633307732e-03
-1.8500000000000010e+00 +8.2849053160510469e+00 +0.0000000000000000e+00 -1.8499999967692853e+00 -2.9235585766157857e-02 -5.5627805767790883e-01 +5.2507385864506446e-03
-1.9000000000000010e+00 +8.2849001285334474e+00 +0.0000000000000000e+00 -1.8999999965001659e+00 -2.9235736511951101e-02 -5.5628978513536320e-01 +5.2487758693373571e-03
-1.9500000000000011e+00 +8.2848948026465514e+00 +0.0000000000000000e+00 -1.9499999962164993e+00 -2.9235903628582804e-02 -5.5630186478216792e-01 +5.2468271523445232e-03
-2.0000000000000009e+00 +8.2848893383873570e+00 +0.0000000000000000e+00 -1.9999999959179020e+00 -2.9236087179039579e-02 -5.5631429637005547e-01 +5.2448925758265845e-03
-2.0500000000000007e+00 +8.2848837357527696e+00 +0.0000000000000000e+00 -2.0499999956039909e+00 -2.9236287166317560e-02 -5.5632707933565628e-01 +5.2429722651594225e-03
-2.1000000000000005e+00 +8.2848779947396096e+00 +0.0000000000000000e+00 -2.0999999952743829e+00 -2.9236503353436933e-02 -5.5634021185514360e-01 +5.2410662858021640e-03
-2.1500000000000004e+00 +8.2848721153446121e+00 +0.0000000000000000e+00 -2.1499999949286939e+00 -2.9236735443423985e-02 -5.5635369178958560e-01 +5.2391746882353117e-03
-2.2000000000000002e+00 +8.2848660975644233e+00 +0.0000000000000000e+00 -2.1999999945665412e+00 -2.9236983139305579e-02 -5.5636751700006359e-01 +5.2372975229401679e-03
-2.2500000000000000e+00 +8.2848599413956059e+00 +0.0000000000000000e+00 -2.2499999941875410e+00 -2.9237246144108994e-02 -5.5638168534767252e-01 +5.2354348403988284e-03
-2.2999999999999998e+00 +8.2848536468346339e+00 +0.0000000000000000e+00 -2.2999999937913103e+00 -2.9237524160861832e-02 -5.5639619469351864e-01 +5.2335866910941872e-03
-2.3499999999999996e+00 +8.2848472138778995e+00 +0.0000000000000000e+00 -2.3499999933774651e+00 -2.9237816892591979e-02 -5.5641104289872167e-01 +5.2317531255099544e-03
-2.3999999999999995e+00 +8.2848406425217096e+00 +0.0000000000000000e+00 -2.3999999929456219e+00 -2.9238124042327413e-02 -5.5642622782441387e-01 +5.2299341941306520e-03
-2.4499999999999993e+00 +8.2848339327622860e+00 +0.0000000000000000e+00 -2.4499999924953975e+00 -2.9238445313096193e-02 -5.5644174733173912e-01 +5.2281299474416214e-03
-2.4999999999999991e+00 +8.2848270845957686e+00 +0.0000000000000000e+00 -2.4999999920264075e+00 -2.9238780407926299e-02 -5.5645759928185345e-01 +5.2263404359290345e-03
-2.5499999999999989e+00 +8.2848200980182156e+00 +0.0000000000000000e+00 -2.5499999915382690e+00 -2.9239129029845577e-02 -5.5647378153592619e-01 +5.2245657100798981e-03
-2.5999999999999988e+00 +8.2848129730256019e+00 +0.0000000000000000e+00 -2.5999999910305980e+00 -2.9239490881881616e-02 -5.5649029195513677e-01 +5.2228058203820562e-03
-2.6499999999999986e+00 +8.2848057096138206e+00 +0.0000000000000000e+00 -2.6499999905030105e+00 -2.9239865667061649e-02 -5.5650712840067795e-01 +5.2210608173241992e-03
-2.6999999999999984e+00 +8.2847983077786846e+00 +0.0000000000000000e+00 -2.6999999899551228e+00 -2.9240253088412479e-02 -5.5652428873375326e-01 +5.2193307513958790e-03
-2.7499999999999982e+00 +8.2847907675159256e+00 +0.0000000000000000e+00 -2.7499999893865512e+00 -2.9240652848960328e-02 -5.5654177081557776e-01 +5.2176156730874938e-03
-2.7999999999999980e+00 +8.2847830888211949e+00 +0.0000000000000000e+00 -2.7999999887969116e+00 -2.9241064651730830e-02 -5.5655957250737864e-01 +5.2159156328903181e-03
-2.8499999999999979e+00 +8.2847752716900640e+00 +0.0000000000000000e+00 -2.8499999881858202e+00 -2.9241488199748818e-02 -5.5657769167039328e-01 +5.2142306812964900e-03
-2.8999999999999977e+00 +8.2847673161180264e+00 +0.0000000000000000e+00 -2.8999999875528930e+00 -2.9241923196038324e-02 -5.5659612616587106e-01 +5.2125608687990333e-03
-2.9499999999999975e+00 +8.2847592221004973e+00 +0.0000000000000000e+00 -2.9499999868977458e+00 -2.9242369343622423e-02 -5.5661487385507236e-01 +5.2109062458918541e-03
-2.9999999999999973e+00 +8.2847509896328138e+00 +0.0000000000000000e+00 -2.9999999862199944e+00 -2.9242826345523169e-02 -5.5663393259926786e-01 +5.2092668630697465e-03
-3.0499999999999972e+00 +8.2847426187102347e+00 +0.0000000000000000e+00 -3.0499999855192548e+00 -2.9243293904761467e-02 -5.5665330025973936e-01 +5.2076427708284021e-03
-3.0999999999999970e+00 +8.2847341093279425e+00 +0.0000000000000000e+00 -3.0999999847951427e+00 -2.9243771724356989e-02 -5.5667297469777943e-01 +5.2060340196644220e-03
-3.1499999999999968e+00 +8.2847254614810435e+00 +0.0000000000000000e+00 -3.1499999840472741e+00 -2.9244259507328101e-02 -5.5669295377469130e-01 +5.2044406600753115e-03
-3.1999999999999966e+00 +8.2847166751645691e+00 +0.0000000000000000e+00 -3.1999999832752644e+00 -2.9244756956691702e-02 -5.5671323535178729e-01 +5.2028627425594904e-03
-3.2499999999999964e+00 +8.2847077503734745e+00 +0.0000000000000000e+00 -3.2499999824787293e+00 -2.9245263775463180e-02 -5.5673381729039195e-01 +5.2013003176163046e-03
-3.2999999999999963e+00 +8.2846986871026402e+00 +0.0000000000000000e+00 -3.2999999816572845e+00 -2.9245779666656316e-02 -5.5675469745183848e-01 +5.1997534357460327e-03
-3.3499999999999961e+00 +8.2846894853468722e+00 +0.0000000000000000e+00 -3.3499999808105452e+00 -2.9246304333283128e-02 -5.5677587369747095e-01 +5.1982221474498810e-03
-3.3999999999999959e+00 +8.2846801451009053e+00 +0.0000000000000000e+00 -3.3999999799381273e+00 -2.9246837478353844e-02 -5.5679734388864233e-01 +5.1967065032299973e-03
-3.4499999999999957e+00 +8.2846706663593963e+00 +0.0000000000000000e+00 -3.4499999790396458e+00 -2.9247378804876763e-02 -5.5681910588671646e-01 +5.1952065535894850e-03
-3.4999999999999956e+00 +8.2846610491169344e+00 +0.0000000000000000e+00 -3.4999999781147162e+00 -2.9247928015858151e-02 -5.5684115755306562e-01 +5.1937223490323954e-03
-3.5499999999999954e+00 +8.2846512933680341e+00 +0.0000000000000000e+00 -3.5499999771629538e+00 -2.9248484814302190e-02 -5.5686349674907309e-01 +5.1922539400637438e-03
-3.5999999999999952e+00 +8.2846413991071390e+00 +0.0000000000000000e+00 -3.5999999761839736e+00 -2.9249048903210798e-02 -5.5688612133613025e-01 +5.1908013771895080e-03
-3.6499999999999950e+00 +8.2846313663286217e+00 +0.0000000000000000e+00 -3.6499999751773911e+00 -2.9249619985583633e-02 -5.5690902917563778e-01 +5.1893647109166408e-03
-3.6999999999999948e+00 +8.2846211950267836e+00 +0.0000000000000000e+00 -3.6999999741428211e+00 -2.9250197764417903e-02 -5.5693221812900606e-01 +5.1879439917530768e-03
-3.7499999999999947e+00 +8.2846108851958569e+00 +0.0000000000000000e+00 -3.7499999730798788e+00 -2.9250781942708311e-02 -5.5695568605765433e-01 +5.1865392702077351e-03
-3.7999999999999945e+00 +8.2846004368300061e+00 +0.0000000000000000e+00 -3.7999999719881794e+00 -2.9251372223446977e-02 -5.5697943082301027e-01 +5.1851505967905262e-03
-3.8499999999999943e+00 +8.2845898499233233e+00 +0.0000000000000000e+00 -3.8499999708673376e+00 -2.9251968309623275e-02 -5.5700345028651077e-01 +5.1837780220123615e-03
-3.8999999999999941e+00 +8.2845791244698344e+00 +0.0000000000000000e+00 -3.8999999697169678e+00 -2.9252569904223820e-02 -5.5702774230960095e-01 +5.1824215963851526e-03
-3.9499999999999940e+00 +8.2845682604634980e+00 +0.0000000000000000e+00 -3.9499999685366856e+00 -2.9253176710232292e-02 -5.5705230475373479e-01 +5.1810813704218301e-03
-3.9999999999999938e+00 +8.2845572578982054e+00 +0.0000000000000000e+00 -3.9999999673261053e+00 -2.9253788430629358e-02 -5.5707713548037385e-01 +5.1797573946363333e-03
-4.0499999999999936e+00 +8.2845461167677783e+00 +0.0000000000000000e+00 -4.0499999660848411e+00 -2.9254404854659497e-02 -5.5710223230376554e-01 +5.1784497161599385e-03
-4.0999999999999934e+00 +8.2845348370659764e+00 +0.0000000000000000e+00 -4.0999999648125085e+00 -2.9255026116633154e-02 -5.5712759284926827e-01 +5.1771583685900026e-03
-4.1499999999999932e+00 +8.2845234187864900e+00 +0.0000000000000000e+00 -4.1499999635087210e+00 -2.9255652437127789e-02 -5.5715321469501988e-01 +5.1758833821408060e-03
-4.1999999999999931e+00 +8.2845118619229474e+00 +0.0000000000000000e+00 -4.1999999621730941e+00 -2.9256284036720967e-02 -5.5717909541915911e-01 +5.1746247870272308e-03
-4.2499999999999929e+00 +8.2845001664689111e+00 +0.0000000000000000e+00 -4.2499999608052415e+00 -2.9256921135990252e-02 -5.5720523259982679e-01 +5.1733826134647337e-03
-4.2999999999999927e+00 +8.2844883324178795e+00 +0.0000000000000000e+00 -4.2999999594047775e+00 -2.9257563955513377e-02 -5.5723162381516345e-01 +5.1721568916693536e-03
-4.3499999999999925e+00 +8.2844763597632873e+00 +0.0000000000000000e+00 -4.3499999579713169e+00 -2.9258212715868124e-02 -5.5725826664331168e-01 +5.1709476518577054e-03
-4.3999999999999924e+00 +8.2844642484985105e+00 +0.0000000000000000e+00 -4.3999999565044732e+00 -2.9258867637632347e-02 -5.5728515866241335e-01 +5.1697549242469684e-03
-4.4499999999999922e+00 +8.2844519986168574e+00 +0.0000000000000000e+00 -4.4499999550038609e+00 -2.9259528941384023e-02 -5.5731229745061039e-01 +5.1685787390548686e-03
-4.4999999999999920e+00 +8.2844396101115798e+00 +0.0000000000000000e+00 -4.4999999534690946e+00 -2.9260196847701217e-02 -5.5733968058604499e-01 +5.1674191264996991e-03
-4.5499999999999918e+00 +8.2844270829758653e+00 +0.0000000000000000e+00 -4.5499999518997871e+00 -2.9260871577162079e-02 -5.5736730564685855e-01 +5.1662761168002882e-03
-4.5999999999999917e+00 +8.2844144172028429e+00 +0.0000000000000000e+00 -4.5999999502955529e+00 -2.9261553350344888e-02 -5.5739517021119056e-01 +5.1651497401759977e-03
-4.6499999999999915e+00 +8.2844016127855813e+00 +0.0000000000000000e+00 -4.6499999486560055e+00 -2.9262242387828024e-02 -5.5742327185718077e-01 +5.1640400268467279e-03
-4.6999999999999913e+00 +8.2843886697170923e+00 +0.0000000000000000e+00 -4.6999999469807596e+00 -2.9262938910189967e-02 -5.5745160816296613e-01 +5.1629470070328962e-03
-4.7499999999999911e+00 +8.2843755879903274e+00 +0.0000000000000000e+00 -4.7499999452694279e+00 -2.9263643138009329e-02 -5.5748017670668248e-01 +5.1618707109554393e-03
-4.7999999999999909e+00 +8.2843623675981792e+00 +0.0000000000000000e+00 -4.7999999435216241e+00 -2.9264355291864823e-02 -5.5750897506646313e-01 +5.1608111688358025e-03
-4.8499999999999908e+00 +8.2843490085334874e+00 +0.0000000000000000e+00 -4.8499999417369617e+00 -2.9265075592335311e-02 -5.5753800082043914e-01 +5.1597684108959322e-03
-4.8999999999999906e+00 +8.2843355107890293e+00 +0.0000000000000000e+00 -4.8999999399150544e+00 -2.9265804259999747e-02 -5.5756725154673825e-01 +5.1587424673582719e-03
-4.9499999999999904e+00 +8.2843218743575324e+00 +0.0000000000000000e+00 -4.9499999380555160e+00 -2.9266541515437252e-02 -5.5759672482348499e-01 +5.1577333684457534e-03
-4.9999999999999902e+00 +8.2843080992316640e+00 +0.0000000000000000e+00 -4.9999999361579590e+00 -2.9267287579227058e-02 -5.5762641822880143e-01 +5.1567411443817889e-03
-5.0499999999999901e+00 +8.2842941854040379e+00 +0.0000000000000000e+00 -5.0499999342219972e+00 -2.9268042671948529e-02 -5.5765632934080489e-01 +5.1557658253902697e-03
-5.0999999999999899e+00 +8.2842801328672149e+00 +0.0000000000000000e+00 -5.0999999322472434e+00 -2.9268807014181223e-02 -5.5768645573760878e-01 +5.1548074416955456e-03
-5.1499999999999897e+00 +8.2842659416137021e+00 +0.0000000000000000e+00 -5.1499999302333102e+00 -2.9269580826504757e-02 -5.5771679499732296e-01 +5.1538660235224375e-03
-5.1999999999999895e+00 +8.2842516116359537e+00 +0.0000000000000000e+00 -5.1999999281798113e+00 -2.9270364329498959e-02 -5.5774734469805121e-01 +5.1529416010962139e-03
-5.2499999999999893e+00 +8.2842371429263704e+00 +0.0000000000000000e+00 -5.2499999260863595e+00 -2.9271157743743809e-02 -5.5777810241789327e-01 +5.1520342046425917e-03
-5.2999999999999892e+00 +8.2842225354773014e+00 +0.0000000000000000e+00 -5.2999999239525675e+00 -2.9271961289819400e-02 -5.5780906573494327e-01 +5.1511438643877284e-03
-5.3499999999999890e+00 +8.2842077892810444e+00 +0.0000000000000000e+00 -5.3499999217780481e+00 -2.9272775188306045e-02 -5.5784023222728985e-01 +5.1502706105582170e-03
-5.3999999999999888e+00 +8.2841929043298492e+00 +0.0000000000000000e+00 -5.3999999195624140e+00 -2.9273599659784162e-02 -5.5787159947301534e-01 +5.1494144733810676e-03
-5.4499999999999886e+00 +8.2841778806159123e+00 +0.0000000000000000e+00 -5.4499999173052780e+00 -2.9274434924834371e-02 -5.5790316505019610e-01 +5.1485754830837187e-03
-5.4999999999999885e+00 +8.2841627181313839e+00 +0.0000000000000000e+00 -5.4999999150062528e+00 -2.9275281204037440e-02 -5.5793492653690135e-01 +5.1477536698940193e-03
-5.5499999999999883e+00 +8.2841474168683629e+00 +0.0000000000000000e+00 -5.5499999126649504e+00 -2.9276138717974350e-02 -5.5796688151119445e-01 +5.1469490640402233e-03
-5.5999999999999881e+00 +8.2841319768189017e+00 +0.0000000000000000e+00 -5.5999999102809834e+00 -2.9277007687226228e-02 -5.5799902755113084e-01 +5.1461616957509792e-03
-5.6499999999999879e+00 +8.2841163979750032e+00 +0.0000000000000000e+00 -5.6499999078539638e+00 -2.9277888332374363e-02 -5.5803136223475824e-01 +5.1453915952553312e-03
-5.6999999999999877e+00 +8.2841006803286259e+00 +0.0000000000000000e+00 -5.6999999053835033e+00 -2.9278780874000290e-02 -5.5806388314011734e-01 +5.1446387927827110e-03
-5.7499999999999876e+00 +8.2840848238716820e+00 +0.0000000000000000e+00 -5.7499999028692148e+00 -2.9279685532685694e-02 -5.5809658784523997e-01 +5.1439033185629165e-03
-5.7999999999999874e+00 +8.2840688285960340e+00 +0.0000000000000000e+00 -5.7999999003107101e+00 -2.9280602529012427e-02 -5.5812947392814916e-01 +5.1431852028261237e-03
-5.8499999999999872e+00 +8.2840526944935036e+00 +0.0000000000000000e+00 -5.8499998977076011e+00 -2.9281532083562593e-02 -5.5816253896686041e-01 +5.1424844758028773e-03
