# trajectory
# s[mm] rx[mm] ry[mm] rz[mm] px[rad] py[rad] pz[rad]
0.0000000000000000e+00 +8.2850000000000001e+00 +0.0000000000000000e+00 +0.0000000000000000e+00 +0.0000000000000000e+00 +0.0000000000000000e+00 +1.0000000000000000e+00
-5.0000000000000003e-02 +8.2849999307714164e+00 +0.0000000000000000e+00 -4.9999999999936096e-02 +2.7691421057159864e-06 +0.0000000000000000e+00 +9.9999999999616596e-01
-1.0000000000000001e-01 +8.2849997230858961e+00 +0.0000000000000000e+00 -9.9999999999488789e-02 +5.5382777748142418e-06 +0.0000000000000000e+00 +9.9999999998466382e-01
-1.5000000000000002e-01 +8.2849993769437145e+00 +0.0000000000000000e+00 -1.4999999999827468e-01 +8.3074089256673031e-06 +0.0000000000000000e+00 +9.9999999996549360e-01
-2.0000000000000001e-01 +8.2849988923450475e+00 +0.0000000000000000e+00 -1.9999999999591034e-01 +1.1076537473623916e-05 +0.0000000000000000e+00 +9.9999999993865529e-01
-2.5000000000000000e-01 +8.2849982692899786e+00 +0.0000000000000000e+00 -2.4999999999201239e-01 +1.3845665331009128e-05 +0.0000000000000000e+00 +9.9999999990414890e-01
-2.9999999999999999e-01 +8.2849975077784936e+00 +0.0000000000000000e+00 -2.9999999998619742e-01 +1.6614794407124363e-05 +0.0000000000000000e+00 +9.9999999986197441e-01
-3.4999999999999998e-01 +8.2849966078104860e+00 +0.0000000000000000e+00 -3.4999999997808201e-01 +1.9383926608247502e-05 +0.0000000000000000e+00 +9.9999999981213183e-01
-3.9999999999999997e-01 +8.2849955693857495e+00 +0.0000000000000000e+00 -3.9999999996728280e-01 +2.2153063837632981e-05 +0.0000000000000000e+00 +9.9999999975462106e-01
-4.4999999999999996e-01 +8.2849943925039859e+00 +0.0000000000000000e+00 -4.4999999995341633e-01 +2.4922207995511859e-05 +0.0000000000000000e+00 +9.9999999968944198e-01
-4.9999999999999994e-01 +8.2849930771648026e+00 +0.0000000000000000e+00 -4.9999999993609917e-01 +2.7691360979091907e-05 +0.0000000000000000e+00 +9.9999999961659447e-01
-5.4999999999999993e-01 +8.2849916233677092e+00 +0.0000000000000000e+00 -5.4999999991494797e-01 +3.0460524682557695e-05 +0.0000000000000000e+00 +9.9999999953607843e-01
-5.9999999999999998e-01 +8.2849900311121232e+00 +0.0000000000000000e+00 -5.9999999988957919e-01 +3.3229700997070669e-05 +0.0000000000000000e+00 +9.9999999944789375e-01
-6.5000000000000002e-01 +8.2849883003973677e+00 +0.0000000000000000e+00 -6.4999999985960955e-01 +3.5998891810769231e-05 +0.0000000000000000e+00 +9.9999999935204020e-01
-7.0000000000000007e-01 +8.2849864312226700e+00 +0.0000000000000000e+00 -6.9999999982465544e-01 +3.8768099008768840e-05 +0.0000000000000000e+00 +9.9999999924851757e-01
-7.5000000000000011e-01 +8.2849844235871632e+00 +0.0000000000000000e+00 -7.4999999978433352e-01 +4.1537324473162069e-05 +0.0000000000000000e+00 +9.9999999913732562e-01
-8.0000000000000016e-01 +8.2849822774898865e+00 +0.0000000000000000e+00 -7.9999999973826019e-01 +4.4306570083018707e-05 +0.0000000000000000e+00 +9.9999999901846426e-01
-8.5000000000000020e-01 +8.2849799929297880e+00 +0.0000000000000000e+00 -8.4999999968605211e-01 +4.7075837714385835e-05 +0.0000000000000000e+00 +9.9999999889193314e-01
-9.0000000000000024e-01 +8.2849775699057169e+00 +0.0000000000000000e+00 -8.9999999962732569e-01 +4.9845129240287913e-05 +0.0000000000000000e+00 +9.9999999875773193e-01
-9.5000000000000029e-01 +8.2849750084164331e+00 +0.0000000000000000e+00 -9.4999999956169745e-01 +5.2614446530726851e-05 +0.0000000000000000e+00 +9.9999999861586042e-01
-1.0000000000000002e+00 +8.2849723084606026e+00 +0.0000000000000000e+00 -9.9999999948878382e-01 +5.5383791452682100e-05 +0.0000000000000000e+00 +9.9999999846631826e-01
-1.0500000000000003e+00 +8.2849694700367955e+00 +0.0000000000000000e+00 -1.0499999994082014e+00 +5.8153165870110734e-05 +0.0000000000000000e+00 +9.9999999830910513e-01
-1.1000000000000003e+00 +8.2849664931434930e+00 +0.0000000000000000e+00 -1.0999999993195666e+00 +6.0922571643947534e-05 +0.0000000000000000e+00 +9.9999999814422058e-01
-1.1500000000000004e+00 +8.2849633777790785e+00 +0.0000000000000000e+00 -1.1499999992224956e+00 +6.3692010632105059e-05 +0.0000000000000000e+00 +9.9999999797166439e-01
-1.2000000000000004e+00 +8.2849601239418451e+00 +0.0000000000000000e+00 -1.1999999991166050e+00 +6.6461484689473750e-05 +0.0000000000000000e+00 +9.9999999779143600e-01
-1.2500000000000004e+00 +8.2849567316299932e+00 +0.0000000000000000e+00 -1.2499999990015114e+00 +6.9230995667921984e-05 +0.0000000000000000e+00 +9.9999999760353508e-01
-1.3000000000000005e+00 +8.2849532008416311e+00 +0.0000000000000000e+00 -1.2999999988768307e+00 +7.2000545416296181e-05 +0.0000000000000000e+00 +9.9999999740796119e-01
-1.3500000000000005e+00 +8.2849495315747745e+00 +0.0000000000000000e+00 -1.3499999987421796e+00 +7.4770135780420860e-05 +0.0000000000000000e+00 +9.9999999720471389e-01
-1.4000000000000006e+00 +8.2849457238273452e+00 +0.0000000000000000e+00 -1.3999999985971743e+00 +7.7539768603098760e-05 +0.0000000000000000e+00 +9.9999999699379261e-01
-1.4500000000000006e+00 +8.2849417775971759e+00 +0.0000000000000000e+00 -1.4499999984414309e+00 +8.0309445724110879e-05 +0.0000000000000000e+00 +9.9999999677519691e-01
-1.5000000000000007e+00 +8.2849376928820035e+00 +0.0000000000000000e+00 -1.4999999982745660e+00 +8.3079168980216574e-05 +0.0000000000000000e+00 +9.9999999654892624e-01
-1.5500000000000007e+00 +8.2849334696794781e+00 +0.0000000000000000e+00 -1.5499999980961956e+00 +8.5848940205153663e-05 +0.0000000000000000e+00 +9.9999999631498016e-01
-1.6000000000000008e+00 +8.2849291079871534e+00 +0.0000000000000000e+00 -1.5999999979059361e+00 +8.8618761229638458e-05 +0.0000000000000000e+00 +9.9999999607335799e-01
-1.6500000000000008e+00 +8.2849246078024947e+00 +0.0000000000000000e+00 -1.6499999977034034e+00 +9.1388633881365894e-05 +0.0000000000000000e+00 +9.9999999582405918e-01
-1.7000000000000008e+00 +8.2849199691228748e+00 +0.0000000000000000e+00 -1.6999999974882141e+00 +9.4158559985009577e-05 +0.0000000000000000e+00 +9.9999999556708319e-01
-1.7500000000000009e+00 +8.2849151919455757e+00 +0.0000000000000000e+00 -1.7499999972599838e+00 +9.6928541362221887e-05 +0.0000000000000000e+00 +9.9999999530242933e-01
-1.8000000000000009e+00 +8.2849102762677873e+00 +0.0000000000000000e+00 -1.7999999970183289e+00 +9.9698579831634048e-05 +0.0000000000000000e+00 +9.9999999503009696e-01
-1.8500000000000010e+00 +8.2849052220866106e+00 +0.0000000000000000e+00 -1.8499999967628655e+00 +1.0246867720885621e-04 +0.0000000000000000e+00 +9.9999999475008550e-01
-1.9000000000000010e+00 +8.2849000293990542e+00 +0.0000000000000000e+00 -1.8999999964932095e+00 +1.0523883530647754e-04 +0.0000000000000000e+00 +9.9999999446239418e-01
-1.9500000000000011e+00 +8.2848946982020379e+00 +0.0000000000000000e+00 -1.9499999962089769e+00 +1.0800905593406629e-04 +0.0000000000000000e+00 +9.9999999416702234e-01
-2.0000000000000009e+00 +8.2848892284923892e+00 +0.0000000000000000e+00 -1.9999999959097836e+00 +1.1077934089816987e-04 +0.0000000000000000e+00 +9.9999999386396921e-01
-2.0500000000000007e+00 +8.2848836202668465e+00 +0.0000000000000000e+00 -2.0499999955952459e+00 +1.1354969200197718e-04 +0.0000000000000000e+00 +9.9999999355323410e-01
-2.1000000000000005e+00 +8.2848778735220581e+00 +0.0000000000000000e+00 -2.0999999952649793e+00 +1.1632011104160316e-04 +0.0000000000000000e+00 +9.9999999323481625e-01
-2.1500000000000004e+00 +8.2848719882545812e+00 +0.0000000000000000e+00 -2.1499999949185997e+00 +1.1909059980237323e-04 +0.0000000000000000e+00 +9.9999999290871489e-01
-2.2000000000000002e+00 +8.2848659644608862e+00 +0.0000000000000000e+00 -2.1999999945557227e+00 +1.2186116005848570e-04 +0.0000000000000000e+00 +9.9999999257492922e-01
-2.2500000000000000e+00 +8.2848598021373547e+00 +0.0000000000000000e+00 -2.2499999941759645e+00 +1.2463179357301177e-04 +0.0000000000000000e+00 +9.9999999223345837e-01
-2.2999999999999998e+00 +8.2848535012802795e+00 +0.0000000000000000e+00 -2.2999999937789406e+00 +1.2740250209789558e-04 +0.0000000000000000e+00 +9.9999999188430155e-01
-2.3499999999999996e+00 +8.2848470618858663e+00 +0.0000000000000000e+00 -2.3499999933642668e+00 +1.3017328737395431e-04 +0.0000000000000000e+00 +9.9999999152745800e-01
-2.3999999999999995e+00 +8.2848404839502336e+00 +0.0000000000000000e+00 -2.3999999929315585e+00 +1.3294415113087820e-04 +0.0000000000000000e+00 +9.9999999116292670e-01
-2.4499999999999993e+00 +8.2848337674694168e+00 +0.0000000000000000e+00 -2.4499999924804312e+00 +1.3571509508723064e-04 +0.0000000000000000e+00 +9.9999999079070689e-01
-2.4999999999999991e+00 +8.2848269124393603e+00 +0.0000000000000000e+00 -2.4999999920105007e+00 +1.3848612095044820e-04 +0.0000000000000000e+00 +9.9999999041079757e-01
-2.5499999999999989e+00 +8.2848199188559288e+00 +0.0000000000000000e+00 -2.5499999915213825e+00 +1.4125723041684068e-04 +0.0000000000000000e+00 +9.9999999002319784e-01
-2.5999999999999988e+00 +8.2848127867148982e+00 +0.0000000000000000e+00 -2.5999999910126923e+00 +1.4402842517159125e-04 +0.0000000000000000e+00 +9.9999998962790682e-01
-2.6499999999999986e+00 +8.2848055160119625e+00 +0.0000000000000000e+00 -2.6499999904840452e+00 +1.4679970688875635e-04 +0.0000000000000000e+00 +9.9999998922492350e-01
-2.6999999999999984e+00 +8.2847981067427323e+00 +0.0000000000000000e+00 -2.6999999899350566e+00 +1.4957107723126588e-04 +0.0000000000000000e+00 +9.9999998881424690e-01
-2.7499999999999982e+00 +8.2847905589027349e+00 +0.0000000000000000e+00 -2.7499999893653420e+00 +1.5234253785092317e-04 +0.0000000000000000e+00 +9.9999998839587600e-01
-2.7999999999999980e+00 +8.2847828724874155e+00 +0.0000000000000000e+00 -2.7999999887745162e+00 +1.5511409038840510e-04 +0.0000000000000000e+00 +9.9999998796980993e-01
-2.8499999999999979e+00 +8.2847750474921380e+00 +0.0000000000000000e+00 -2.8499999881621947e+00 +1.5788573647326209e-04 +0.0000000000000000e+00 +9.9999998753604757e-01
-2.8999999999999977e+00 +8.2847670839121825e+00 +0.0000000000000000e+00 -2.8999999875279925e+00 +1.6065747772391815e-04 +0.0000000000000000e+00 +9.9999998709458793e-01
-2.9499999999999975e+00 +8.2847589817427529e+00 +0.0000000000000000e+00 -2.9499999868715250e+00 +1.6342931574767097e-04 +0.0000000000000000e+00 +9.9999998664542988e-01
-2.9999999999999973e+00 +8.2847507409789696e+00 +0.0000000000000000e+00 -2.9999999861924072e+00 +1.6620125214069191e-04 +0.0000000000000000e+00 +9.9999998618857244e-01
-3.0499999999999972e+00 +8.2847423616158729e+00 +0.0000000000000000e+00 -3.0499999854902540e+00 +1.6897328848802611e-04 +0.0000000000000000e+00 +9.9999998572401438e-01
-3.0999999999999970e+00 +8.2847338436484286e+00 +0.0000000000000000e+00 -3.0999999847646804e+00 +1.7174542636359249e-04 +0.0000000000000000e+00 +9.9999998525175471e-01
-3.1499999999999968e+00 +8.2847251870715191e+00 +0.0000000000000000e+00 -3.1499999840153010e+00 +1.7451766733018380e-04 +0.0000000000000000e+00 +9.9999998477179231e-01
-3.1999999999999966e+00 +8.2847163918799520e+00 +0.0000000000000000e+00 -3.1999999832417312e+00 +1.7729001293946664e-04 +0.0000000000000000e+00 +9.9999998428412606e-01
-3.2499999999999964e+00 +8.2847074580684552e+00 +0.0000000000000000e+00 -3.2499999824435855e+00 +1.8006246473198156e-04 +0.0000000000000000e+00 +9.9999998378875476e-01
-3.2999999999999963e+00 +8.2846983856316836e+00 +0.0000000000000000e+00 -3.2999999816204784e+00 +1.8283502423714306e-04 +0.0000000000000000e+00 +9.9999998328567730e-01
-3.3499999999999961e+00 +8.2846891745642122e+00 +0.0000000000000000e+00 -3.3499999807720249e+00 +1.8560769297323962e-04 +0.0000000000000000e+00 +9.9999998277489244e-01
-3.3999999999999959e+00 +8.2846798248605413e+00 +0.0000000000000000e+00 -3.3999999798978391e+00 +1.8838047244743375e-04 +0.0000000000000000e+00 +9.9999998225639908e-01
-3.4499999999999957e+00 +8.2846703365150969e+00 +0.0000000000000000e+00 -3.4499999789975360e+00 +1.9115336415576203e-04 +0.0000000000000000e+00 +9.9999998173019600e-01
-3.4999999999999956e+00 +8.2846607095222300e+00 +0.0000000000000000e+00 -3.4999999780707300e+00 +1.9392636958313515e-04 +0.0000000000000000e+00 +9.9999998119628186e-01
-3.5499999999999954e+00 +8.2846509438762190e+00 +0.0000000000000000e+00 -3.5499999771170354e+00 +1.9669949020333793e-04 +0.0000000000000000e+00 +9.9999998065465556e-01
-3.5999999999999952e+00 +8.2846410395712660e+00 +0.0000000000000000e+00 -3.5999999761360670e+00 +1.9947272747902937e-04 +0.0000000000000000e+00 +9.9999998010531577e-01
-3.6499999999999950e+00 +8.2846309966015017e+00 +0.0000000000000000e+00 -3.6499999751274386e+00 +2.0224608286174267e-04 +0.0000000000000000e+00 +9.9999997954826125e-01
-3.6999999999999948e+00 +8.2846208149609861e+00 +0.0000000000000000e+00 -3.6999999740907645e+00 +2.0501955779188524e-04 +0.0000000000000000e+00 +9.9999997898349069e-01
-3.7499999999999947e+00 +8.2846104946437062e+00 +0.0000000000000000e+00 -3.7499999730256590e+00 +2.0779315369873878e-04 +0.0000000000000000e+00 +9.9999997841100285e-01
-3.7999999999999945e+00 +8.2846000356435763e+00 +0.0000000000000000e+00 -3.7999999719317361e+00 +2.1056687200045923e-04 +0.0000000000000000e+00 +9.9999997783079642e-01
-3.8499999999999943e+00 +8.2845894379544429e+00 +0.0000000000000000e+00 -3.8499999708086099e+00 +2.1334071410407694e-04 +0.0000000000000000e+00 +9.9999997724287004e-01
-3.8999999999999941e+00 +8.2845787015700800e+00 +0.0000000000000000e+00 -3.8999999696558945e+00 +2.1611468140549651e-04 +0.0000000000000000e+00 +9.9999997664722240e-01
-3.9499999999999940e+00 +8.2845678264841922e+00 +0.0000000000000000e+00 -3.9499999684732034e+00 +2.1888877528949697e-04 +0.0000000000000000e+00 +9.9999997604385216e-01
-3.9999999999999938e+00 +8.2845568126904183e+00 +0.0000000000000000e+00 -3.9999999672601509e+00 +2.2166299712973175e-04 +0.0000000000000000e+00 +9.9999997543275798e-01
-4.0499999999999936e+00 +8.2845456601823244e+00 +0.0000000000000000e+00 -4.0499999660163502e+00 +2.2443734828860886e-04 +0.0000000000000000e+00 +9.9999997481393843e-01
-4.0999999999999934e+00 +8.2845343689534108e+00 +0.0000000000000000e+00 -4.0999999647414160e+00 +2.2721183011597295e-04 +0.0000000000000000e+00 +9.9999997418739217e-01
-4.1499999999999932e+00 +8.2845229389971120e+00 +0.0000000000000000e+00 -4.1499999634349614e+00 +2.2998644394778739e-04 +0.0000000000000000e+00 +9.9999997355311787e-01
-4.1999999999999931e+00 +8.2845113703067934e+00 +0.0000000000000000e+00 -4.1999999620965998e+00 +2.3276119110601440e-04 +0.0000000000000000e+00 +9.9999997291111398e-01
-4.2499999999999929e+00 +8.2844996628757563e+00 +0.0000000000000000e+00 -4.2499999607259440e+00 +2.3553607289861510e-04 +0.0000000000000000e+00 +9.9999997226137916e-01
-4.2999999999999927e+00 +8.2844878166972382e+00 +0.0000000000000000e+00 -4.2999999593226086e+00 +2.3831109061954952e-04 +0.0000000000000000e+00 +9.9999997160391196e-01
-4.3499999999999925e+00 +8.2844758317644089e+00 +0.0000000000000000e+00 -4.3499999578862063e+00 +2.4108624554877663e-04 +0.0000000000000000e+00 +9.9999997093871096e-01
-4.3999999999999924e+00 +8.2844637080703762e+00 +0.0000000000000000e+00 -4.3999999564163508e+00 +2.4386153895225435e-04 +0.0000000000000000e+00 +9.9999997026577470e-01
-4.4499999999999922e+00 +8.2844514456081857e+00 +0.0000000000000000e+00 -4.4499999549126548e+00 +2.4663697208193952e-04 +0.0000000000000000e+00 +9.9999996958510173e-01
-4.4999999999999920e+00 +8.2844390443708189e+00 +0.0000000000000000e+00 -4.4999999533747319e+00 +2.4941254617578799e-04 +0.0000000000000000e+00 +9.9999996889669063e-01
-4.5499999999999918e+00 +8.2844265043511989e+00 +0.0000000000000000e+00 -4.5499999518021950e+00 +2.5218826245775456e-04 +0.0000000000000000e+00 +9.9999996820053982e-01
-4.5999999999999917e+00 +8.2844138255421846e+00 +0.0000000000000000e+00 -4.5999999501946567e+00 +2.5496412213779298e-04 +0.0000000000000000e+00 +9.9999996749664788e-01
-4.6499999999999915e+00 +8.2844010079365766e+00 +0.0000000000000000e+00 -4.6499999485517307e+00 +2.5774012641185598e-04 +0.0000000000000000e+00 +9.9999996678501324e-01
-4.6999999999999913e+00 +8.2843880515271149e+00 +0.0000000000000000e+00 -4.6999999468730289e+00 +2.6051627646189528e-04 +0.0000000000000000e+00 +9.9999996606563446e-01
-4.7499999999999911e+00 +8.2843749563064808e+00 +0.0000000000000000e+00 -4.7499999451581649e+00 +2.6329257345586167e-04 +0.0000000000000000e+00 +9.9999996533850999e-01
-4.7999999999999909e+00 +8.2843617222673007e+00 +0.0000000000000000e+00 -4.7999999434067506e+00 +2.6606901854770478e-04 +0.0000000000000000e+00 +9.9999996460363827e-01
-4.8499999999999908e+00 +8.2843483494021388e+00 +0.0000000000000000e+00 -4.8499999416183996e+00 +2.6884561287737340e-04 +0.0000000000000000e+00 +9.9999996386101775e-01
-4.8999999999999906e+00 +8.2843348377035060e+00 +0.0000000000000000e+00 -4.8999999397927239e+00 +2.7162235757081525e-04 +0.0000000000000000e+00 +9.9999996311064698e-01
-4.9499999999999904e+00 +8.2843211871638562e+00 +0.0000000000000000e+00 -4.9499999379293351e+00 +2.7439925373997699e-04 +0.0000000000000000e+00 +9.9999996235252431e-01
-4.9999999999999902e+00 +8.2843073977755886e+00 +0.0000000000000000e+00 -4.9999999360278471e+00 +2.7717630248280434e-04 +0.0000000000000000e+00 +9.9999996158664817e-01
-5.0499999999999901e+00 +8.2842934695310468e+00 +0.0000000000000000e+00 -5.0499999340878707e+00 +2.7995350488324203e-04 +0.0000000000000000e+00 +9.9999996081301701e-01
-5.0999999999999899e+00 +8.2842794024225217e+00 +0.0000000000000000e+00 -5.0999999321090188e+00 +2.8273086201123374e-04 +0.0000000000000000e+00 +9.9999996003162928e-01
-5.1499999999999897e+00 +8.2842651964422505e+00 +0.0000000000000000e+00 -5.1499999300909041e+00 +2.8550837492272212e-04 +0.0000000000000000e+00 +9.9999995924248331e-01
-5.1999999999999895e+00 +8.2842508515824171e+00 +0.0000000000000000e+00 -5.1999999280331384e+00 +2.8828604465964882e-04 +0.0000000000000000e+00 +9.9999995844557754e-01
-5.2499999999999893e+00 +8.2842363678351543e+00 +0.0000000000000000e+00 -5.2499999259353327e+00 +2.9106387224995438e-04 +0.0000000000000000e+00 +9.9999995764091043e-01
-5.2999999999999892e+00 +8.2842217451925446e+00 +0.0000000000000000e+00 -5.2999999237970998e+00 +2.9384185870757844e-04 +0.0000000000000000e+00 +9.9999995682848031e-01
-5.3499999999999890e+00 +8.2842069836466194e+00 +0.0000000000000000e+00 -5.3499999216180516e+00 +2.9662000503245946e-04 +0.0000000000000000e+00 +9.9999995600828551e-01
-5.3999999999999888e+00 +8.2841920831893603e+00 +0.0000000000000000e+00 -5.3999999193977990e+00 +2.9939831221053497e-04 +0.0000000000000000e+00 +9.9999995518032447e-01
-5.4499999999999886e+00 +8.2841770438127007e+00 +0.0000000000000000e+00 -5.4499999171359548e+00 +3.0217678121374124e-04 +0.0000000000000000e+00 +9.9999995434459554e-01
-5.4999999999999885e+00 +8.2841618655085263e+00 +0.0000000000000000e+00 -5.4999999148321290e+00 +3.0495541300001362e-04 +0.0000000000000000e+00 +9.9999995350109705e-01
-5.5499999999999883e+00 +8.2841465482686729e+00 +0.0000000000000000e+00 -5.5499999124859345e+00 +3.0773420851328622e-04 +0.0000000000000000e+00 +9.9999995264982744e-01
-5.5999999999999881e+00 +8.2841310920849303e+00 +0.0000000000000000e+00 -5.5999999100969822e+00 +3.1051316868349214e-04 +0.0000000000000000e+00 +9.9999995179078494e-01
-5.6499999999999879e+00 +8.2841154969490436e+00 +0.0000000000000000e+00 -5.6499999076648830e+00 +3.1329229442656327e-04 +0.0000000000000000e+00 +9.9999995092396798e-01
-5.6999999999999877e+00 +8.2840997628527120e+00 +0.0000000000000000e+00 -5.6999999051892489e+00 +3.1607158664443037e-04 +0.0000000000000000e+00 +9.9999995004937492e-01
-5.7499999999999876e+00 +8.2840838897875901e+00 +0.0000000000000000e+00 -5.7499999026696909e+00 +3.1885104622502298e-04 +0.0000000000000000e+00 +9.9999994916700397e-01
-5.7999999999999874e+00 +8.2840678777452865e+00 +0.0000000000000000e+00 -5.7999999001058198e+00 +3.2163067404226953e-04 +0.0000000000000000e+00 +9.9999994827685357e-01
-5.8499999999999872e+00 +8.2840517267173688e+00 +0.0000000000000000e+00 -5.8499998974972467e+00 +3.2441047095609717e-04 +0.0000000000000000e+00 +9.9999994737892195e-01
