# field on trajectory
# s[mm] rx[mm] ry[mm] rz[mm] bx[T] by[T] bz[T]
0.0000000000000000e+00 +8.2850000000000001e+00 +0.0000000000000000e+00 +0.0000000000000000e+00 -2.9424295492869488e-02 -5.5388797258186884e-01 +5.6251574654674263e-03
5.0000000000000003e-02 +8.2849999311141058e+00 +0.0000000000000000e+00 +4.9999999999936734e-02 -2.9424167269243642e-02 -5.5388707445133534e-01 +5.6250750218434153e-03
1.0000000000000001e-01 +8.2849997244565543e+00 +0.0000000000000000e+00 +9.9999999999493841e-02 -2.9424059191721138e-02 -5.5388658548011438e-01 +5.6249956578367476e-03
1.5000000000000002e-01 +8.2849993800274682e+00 +0.0000000000000000e+00 +1.4999999999829172e-01 -2.9423971289248261e-02 -5.5388650481079604e-01 +5.6249193273869768e-03
2.0000000000000001e-01 +8.2849988978268669e+00 +0.0000000000000000e+00 +1.9999999999595072e-01 -2.9423903590772200e-02 -5.5388683158598861e-01 +5.6248459844338555e-03
2.5000000000000000e-01 +8.2849982778546689e+00 +0.0000000000000000e+00 +2.4999999999209124e-01 -2.9423856125241024e-02 -5.5388756494831892e-01 +5.6247755829173171e-03
2.9999999999999999e-01 +8.2849975201106929e+00 +0.0000000000000000e+00 +2.9999999998633364e-01 -2.9423828921603782e-02 -5.5388870404043211e-01 +5.6247080767774888e-03
3.4999999999999998e-01 +8.2849966245946547e+00 +0.0000000000000000e+00 +3.4999999997829834e-01 -2.9423822008810399e-02 -5.5389024800499109e-01 +5.6246434199546920e-03
3.9999999999999997e-01 +8.2849955913061706e+00 +0.0000000000000000e+00 +3.9999999996760566e-01 -2.9423835415811752e-02 -5.5389219598467743e-01 +5.6245815663894267e-03
4.4999999999999996e-01 +8.2849944202447556e+00 +0.0000000000000000e+00 +4.4999999995387596e-01 -2.9423869171559661e-02 -5.5389454712219133e-01 +5.6245224700223872e-03
4.9999999999999994e-01 +8.2849931114098254e+00 +0.0000000000000000e+00 +4.9999999993672967e-01 -2.9423923305006899e-02 -5.5389730056025022e-01 +5.6244660847944482e-03
5.4999999999999993e-01 +8.2849916648006943e+00 +0.0000000000000000e+00 +5.4999999991578707e-01 -2.9423997845107169e-02 -5.5390045544159017e-01 +5.6244123646466675e-03
5.9999999999999998e-01 +8.2849900804165788e+00 +0.0000000000000000e+00 +5.9999999989066854e-01 -2.9424092820815186e-02 -5.5390401090896568e-01 +5.6243612635202937e-03
6.5000000000000002e-01 +8.2849883582565944e+00 +0.0000000000000000e+00 +6.4999999986099433e-01 -2.9424208261086594e-02 -5.5390796610514925e-01 +5.6243127353567445e-03
7.0000000000000007e-01 +8.2849864983197570e+00 +0.0000000000000000e+00 +6.9999999982638483e-01 -2.9424344194878049e-02 -5.5391232017293102e-01 +5.6242667340976249e-03
7.5000000000000011e-01 +8.2849845006049829e+00 +0.0000000000000000e+00 +7.4999999978646037e-01 -2.9424500651147167e-02 -5.5391707225511977e-01 +5.6242232136847186e-03
8.0000000000000016e-01 +8.2849823651110910e+00 +0.0000000000000000e+00 +7.9999999974084124e-01 -2.9424677658852576e-02 -5.5392222149454173e-01 +5.6241821280599838e-03
8.5000000000000020e-01 +8.2849800918368004e+00 +0.0000000000000000e+00 +8.4999999968914763e-01 -2.9424875246953905e-02 -5.5392776703404190e-01 +5.6241434311655571e-03
9.0000000000000024e-01 +8.2849776807807309e+00 +0.0000000000000000e+00 +8.9999999963099986e-01 -2.9425093444411778e-02 -5.5393370801648234e-01 +5.6241070769437436e-03
9.5000000000000029e-01 +8.2849751319414064e+00 +0.0000000000000000e+00 +9.4999999956601822e-01 -2.9425332280187864e-02 -5.5394004358474380e-01 +5.6240730193370340e-03
1.0000000000000002e+00 +8.2849724453172495e+00 +0.0000000000000000e+00 +9.9999999949382290e-01 -2.9425591783244810e-02 -5.5394677288172489e-01 +5.6240412122880792e-03
1.0500000000000003e+00 +8.2849696209065886e+00 +0.0000000000000000e+00 +1.0499999994140341e+00 -2.9425871982546339e-02 -5.5395389505034132e-01 +5.6240116097397048e-03
1.1000000000000003e+00 +8.2849666587076491e+00 +0.0000000000000000e+00 +1.0999999993262721e+00 -2.9426172907057218e-02 -5.5396140923352832e-01 +5.6239841656349114e-03
1.1500000000000004e+00 +8.2849635587185642e+00 +0.0000000000000000e+00 +1.1499999992301571e+00 -2.9426494585743201e-02 -5.5396931457423682e-01 +5.6239588339168567e-03
1.2000000000000004e+00 +8.2849603209373672e+00 +0.0000000000000000e+00 +1.1999999991253090e+00 -2.9426837047571174e-02 -5.5397761021543745e-01 +5.6239355685288742e-03
1.2500000000000004e+00 +8.2849569453619942e+00 +0.0000000000000000e+00 +1.2499999990113480e+00 -2.9427200321509032e-02 -5.5398629530011778e-01 +5.6239143234144634e-03
1.3000000000000005e+00 +8.2849534319902851e+00 +0.0000000000000000e+00 +1.2999999988878943e+00 -2.9427584436525739e-02 -5.5399536897128288e-01 +5.6238950525172773e-03
1.3500000000000005e+00 +8.2849497808199839e+00 +0.0000000000000000e+00 +1.3499999987545681e+00 -2.9427989421591392e-02 -5.5400483037195636e-01 +5.6238777097811516e-03
1.4000000000000006e+00 +8.2849459918487369e+00 +0.0000000000000000e+00 +1.3999999986109892e+00 -2.9428415305677112e-02 -5.5401467864517884e-01 +5.6238622491500629e-03
1.4500000000000006e+00 +8.2849420650740946e+00 +0.0000000000000000e+00 +1.4499999984567777e+00 -2.9428862117755125e-02 -5.5402491293400946e-01 +5.6238486245681601e-03
1.5000000000000007e+00 +8.2849380004935114e+00 +0.0000000000000000e+00 +1.4999999982915537e+00 -2.9429329886798781e-02 -5.5403553238152370e-01 +5.6238367899797484e-03
1.5500000000000007e+00 +8.2849337981043440e+00 +0.0000000000000000e+00 +1.5499999981149370e+00 -2.9429818641782513e-02 -5.5404653613081645e-01 +5.6238266993292900e-03
1.6000000000000008e+00 +8.2849294579038570e+00 +0.0000000000000000e+00 +1.5999999979265478e+00 -2.9430328411681885e-02 -5.5405792332499815e-01 +5.6238183065614039e-03
1.6500000000000008e+00 +8.2849249798892188e+00 +0.0000000000000000e+00 +1.6499999977260058e+00 -2.9430859225473574e-02 -5.5406969310719845e-01 +5.6238115656208690e-03
1.7000000000000008e+00 +8.2849203640575002e+00 +0.0000000000000000e+00 +1.6999999975129310e+00 -2.9431411112135389e-02 -5.5408184462056420e-01 +5.6238064304526139e-03
1.7500000000000009e+00 +8.2849156104056796e+00 +0.0000000000000000e+00 +1.7499999972869431e+00 -2.9431984100646267e-02 -5.5409437700825925e-01 +5.6238028550017159e-03
1.8000000000000009e+00 +8.2849107189306412e+00 +0.0000000000000000e+00 +1.7999999970476619e+00 -2.9432578219986308e-02 -5.5410728941346588e-01 +5.6238007932134116e-03
1.8500000000000010e+00 +8.2849056896291717e+00 +0.0000000000000000e+00 +1.8499999967947074e+00 -2.9433193499136756e-02 -5.5412058097938277e-01 +5.6238001990330834e-03
1.9000000000000010e+00 +8.2849005224979653e+00 +0.0000000000000000e+00 +1.8999999965276990e+00 -2.9433829967080022e-02 -5.5413425084922652e-01 +5.6238010264062664e-03
1.9500000000000011e+00 +8.2848952175336219e+00 +0.0000000000000000e+00 +1.9499999962462566e+00 -2.9434487652799650e-02 -5.5414829816623157e-01 +5.6238032292786344e-03
2.0000000000000009e+00 +8.2848897747326475e+00 +0.0000000000000000e+00 +1.9999999959499999e+00 -2.9435166585280420e-02 -5.5416272207364958e-01 +5.6238067615960174e-03
2.0500000000000007e+00 +8.2848841940914539e+00 +0.0000000000000000e+00 +2.0499999956385486e+00 -2.9435866767787436e-02 -5.5417752151594202e-01 +5.6238115866144162e-03
2.1000000000000005e+00 +8.2848784756063605e+00 +0.0000000000000000e+00 +2.0999999953115220e+00 -2.9436588100703594e-02 -5.5419269464235854e-01 +5.6238177048300603e-03
2.1500000000000004e+00 +8.2848726192735924e+00 +0.0000000000000000e+00 +2.1499999949685398e+00 -2.9437330458691749e-02 -5.5420823940335484e-01 +5.6238251260493010e-03
2.2000000000000002e+00 +8.2848666250892844e+00 +0.0000000000000000e+00 +2.1999999946092217e+00 -2.9438093716415436e-02 -5.5422415374939926e-01 +5.6238338600785535e-03
2.2500000000000000e+00 +8.2848604930494787e+00 +0.0000000000000000e+00 +2.2499999942331868e+00 -2.9438877748538907e-02 -5.5424043563097192e-01 +5.6238439167242945e-03
2.2999999999999998e+00 +8.2848542231501234e+00 +0.0000000000000000e+00 +2.2999999938400544e+00 -2.9439682429727079e-02 -5.5425708299856591e-01 +5.6238553057930607e-03
2.3499999999999996e+00 +8.2848478153870797e+00 +0.0000000000000000e+00 +2.3499999934294444e+00 -2.9440507634645452e-02 -5.5427409380268555e-01 +5.6238680370914356e-03
2.3999999999999995e+00 +8.2848412697561145e+00 +0.0000000000000000e+00 +2.3999999930009759e+00 -2.9441353237960252e-02 -5.5429146599384649e-01 +5.6238821204260573e-03
2.4499999999999993e+00 +8.2848345862529094e+00 +0.0000000000000000e+00 +2.4499999925542677e+00 -2.9442219114338246e-02 -5.5430919752257513e-01 +5.6238975656035979e-03
2.4999999999999991e+00 +8.2848277648730519e+00 +0.0000000000000000e+00 +2.4999999920889397e+00 -2.9443105138446786e-02 -5.5432728633940986e-01 +5.6239143824307683e-03
2.5499999999999989e+00 +8.2848208056120427e+00 +0.0000000000000000e+00 +2.5499999916046105e+00 -2.9444011184953805e-02 -5.5434573039489854e-01 +5.6239325807143107e-03
2.5999999999999988e+00 +8.2848137084652951e+00 +0.0000000000000000e+00 +2.5999999911009000e+00 -2.9444937128527800e-02 -5.5436452763960020e-01 +5.6239521702609934e-03
2.6499999999999986e+00 +8.2848064734281337e+00 +0.0000000000000000e+00 +2.6499999905774265e+00 -2.9445882843837753e-02 -5.5438367602408301e-01 +5.6239731608775968e-03
2.6999999999999984e+00 +8.2847991004957962e+00 +0.0000000000000000e+00 +2.6999999900338092e+00 -2.9446848205553173e-02 -5.5440317349892565e-01 +5.6239955623709290e-03
2.7499999999999982e+00 +8.2847915896634312e+00 +0.0000000000000000e+00 +2.7499999894696674e+00 -2.9447833088344061e-02 -5.5442301801471539e-01 +5.6240193845477938e-03
2.7999999999999980e+00 +8.2847839409261042e+00 +0.0000000000000000e+00 +2.7999999888846197e+00 -2.9448837366880851e-02 -5.5444320752204956e-01 +5.6240446372150055e-03
2.8499999999999979e+00 +8.2847761542787932e+00 +0.0000000000000000e+00 +2.8499999882782849e+00 -2.9449860915834451e-02 -5.5446373997153342e-01 +5.6240713301793791e-03
2.8999999999999977e+00 +8.2847682297163914e+00 +0.0000000000000000e+00 +2.8999999876502822e+00 -2.9450903609876181e-02 -5.5448461331378140e-01 +5.6240994732477149e-03
2.9499999999999975e+00 +8.2847601672337063e+00 +0.0000000000000000e+00 +2.9499999870002300e+00 -2.9451965323677751e-02 -5.5450582549941585e-01 +5.6241290762268073e-03
2.9999999999999973e+00 +8.2847519668254623e+00 +0.0000000000000000e+00 +2.9999999863277473e+00 -2.9453045931911281e-02 -5.5452737447906719e-01 +5.6241601489234305e-03
3.0499999999999972e+00 +8.2847436284863001e+00 +0.0000000000000000e+00 +3.0499999856324527e+00 -2.9454145309249249e-02 -5.5454925820337375e-01 +5.6241927011443362e-03
3.0999999999999970e+00 +8.2847351522107751e+00 +0.0000000000000000e+00 +3.0999999849139641e+00 -2.9455263330364446e-02 -5.5457147462298084e-01 +5.6242267426962495e-03
3.1499999999999968e+00 +8.2847265379933610e+00 +0.0000000000000000e+00 +3.1499999841719006e+00 -2.9456399869930018e-02 -5.5459402168854088e-01 +5.6242622833858535e-03
3.1999999999999966e+00 +8.2847177858284518e+00 +0.0000000000000000e+00 +3.1999999834058808e+00 -2.9457554802619388e-02 -5.5461689735071351e-01 +5.6242993330197994e-03
3.2499999999999964e+00 +8.2847088957103558e+00 +0.0000000000000000e+00 +3.2499999826155230e+00 -2.9458728003106276e-02 -5.5464009956016469e-01 +5.6243379014046932e-03
3.2999999999999963e+00 +8.2846998676333019e+00 +0.0000000000000000e+00 +3.2999999818004455e+00 -2.9459919346064668e-02 -5.5466362626756660e-01 +5.6243779983470949e-03
3.3499999999999961e+00 +8.2846907015914404e+00 +0.0000000000000000e+00 +3.3499999809602663e+00 -2.9461128706168765e-02 -5.5468747542359687e-01 +5.6244196336534937e-03
3.3999999999999959e+00 +8.2846813975788365e+00 +0.0000000000000000e+00 +3.3999999800946039e+00 -2.9462355958093028e-02 -5.5471164497893988e-01 +5.6244628171303358e-03
3.4499999999999957e+00 +8.2846719555894808e+00 +0.0000000000000000e+00 +3.4499999792030764e+00 -2.9463600976512089e-02 -5.5473613288428447e-01 +5.6245075585839924e-03
3.4999999999999956e+00 +8.2846623756172804e+00 +0.0000000000000000e+00 +3.4999999782853020e+00 -2.9464863636100760e-02 -5.5476093709032459e-01 +5.6245538678207658e-03
3.5499999999999954e+00 +8.2846526576560677e+00 +0.0000000000000000e+00 +3.5499999773408986e+00 -2.9466143811534024e-02 -5.5478605554775950e-01 +5.6246017546468770e-03
3.5999999999999952e+00 +8.2846428016995937e+00 +0.0000000000000000e+00 +3.5999999763694839e+00 -2.9467441377487014e-02 -5.5481148620729248e-01 +5.6246512288684715e-03
3.6499999999999950e+00 +8.2846328077415325e+00 +0.0000000000000000e+00 +3.6499999753706760e+00 -2.9468756208634955e-02 -5.5483722701963156e-01 +5.6247023002916003e-03
3.6999999999999948e+00 +8.2846226757754824e+00 +0.0000000000000000e+00 +3.6999999743440926e+00 -2.9470088179653190e-02 -5.5486327593548790e-01 +5.6247549787222292e-03
3.7499999999999947e+00 +8.2846124057949648e+00 +0.0000000000000000e+00 +3.7499999732893516e+00 -2.9471437165217138e-02 -5.5488963090557686e-01 +5.6248092739662227e-03
3.7999999999999945e+00 +8.2846019977934233e+00 +0.0000000000000000e+00 +3.7999999722060709e+00 -2.9472803040002282e-02 -5.5491628988061681e-01 +5.6248651958293334e-03
3.8499999999999943e+00 +8.2845914517642267e+00 +0.0000000000000000e+00 +3.8499999710938675e+00 -2.9474185678684130e-02 -5.5494325081132978e-01 +5.6249227541172184e-03
3.8999999999999941e+00 +8.2845807677006693e+00 +0.0000000000000000e+00 +3.8999999699523595e+00 -2.9475584955938220e-02 -5.5497051164843958e-01 +5.6249819586354100e-03
3.9499999999999940e+00 +8.2845699455959707e+00 +0.0000000000000000e+00 +3.9499999687811642e+00 -2.9477000746440073e-02 -5.5499807034267323e-01 +5.6250428191893277e-03
3.9999999999999938e+00 +8.2845589854432760e+00 +0.0000000000000000e+00 +3.9999999675798987e+00 -2.9478432924865201e-02 -5.5502592484475954e-01 +5.6251053455842609e-03
4.0499999999999936e+00 +8.2845478872356573e+00 +0.0000000000000000e+00 +4.0499999663481807e+00 -2.9479881359327099e-02 -5.5505407292317066e-01 +5.6251695417232957e-03
4.0999999999999934e+00 +8.2845366509661140e+00 +0.0000000000000000e+00 +4.0999999650856269e+00 -2.9481345891691432e-02 -5.5508251161734168e-01 +5.6252353879010213e-03
4.1499999999999932e+00 +8.2845252766275710e+00 +0.0000000000000000e+00 +4.1499999637918554e+00 -2.9482826357262213e-02 -5.5511123778445026e-01 +5.6253028585097490e-03
4.1999999999999931e+00 +8.2845137642128837e+00 +0.0000000000000000e+00 +4.1999999624664826e+00 -2.9484322591343926e-02 -5.5514024828167874e-01 +5.6253719279415887e-03
4.2499999999999929e+00 +8.2845021137148365e+00 +0.0000000000000000e+00 +4.2499999611091255e+00 -2.9485834429241443e-02 -5.5516953996621032e-01 +5.6254425705884554e-03
4.2999999999999927e+00 +8.2844903251261446e+00 +0.0000000000000000e+00 +4.2999999597194014e+00 -2.9487361706260082e-02 -5.5519910969523145e-01 +5.6255147608420602e-03
4.3499999999999925e+00 +8.2844783984394521e+00 +0.0000000000000000e+00 +4.3499999582969266e+00 -2.9488904257705551e-02 -5.5522895432593045e-01 +5.6255884730938939e-03
4.3999999999999924e+00 +8.2844663336473356e+00 +0.0000000000000000e+00 +4.3999999568413184e+00 -2.9490461918883989e-02 -5.5525907071549774e-01 +5.6256636817352285e-03
4.4499999999999922e+00 +8.2844541307423043e+00 +0.0000000000000000e+00 +4.4499999553521938e+00 -2.9492034525101910e-02 -5.5528945572112565e-01 +5.6257403611571092e-03
4.4999999999999920e+00 +8.2844417897168015e+00 +0.0000000000000000e+00 +4.4999999538291684e+00 -2.9493621911666261e-02 -5.5532010620000760e-01 +5.6258184857503474e-03
4.5499999999999918e+00 +8.2844293105632012e+00 +0.0000000000000000e+00 +4.5499999522718593e+00 -2.9495223913884344e-02 -5.5535101900933836e-01 +5.6258980299055119e-03
4.5999999999999917e+00 +8.2844166932738172e+00 +0.0000000000000000e+00 +4.5999999506798837e+00 -2.9496840367063890e-02 -5.5538219100631392e-01 +5.6259789680129279e-03
4.6499999999999915e+00 +8.2844039378408940e+00 +0.0000000000000000e+00 +4.6499999490528570e+00 -2.9498471106512970e-02 -5.5541361904813069e-01 +5.6260612744626565e-03
4.6999999999999913e+00 +8.2843910442566155e+00 +0.0000000000000000e+00 +4.6999999473903955e+00 -2.9500115967540069e-02 -5.5544529999198566e-01 +5.6261449236445042e-03
4.7499999999999911e+00 +8.2843780125131019e+00 +0.0000000000000000e+00 +4.7499999456921165e+00 -2.9501774785454037e-02 -5.5547723069507637e-01 +5.6262298899480093e-03
4.7999999999999909e+00 +8.2843648426024092e+00 +0.0000000000000000e+00 +4.7999999439576353e+00 -2.9503447395564111e-02 -5.5550940801460014e-01 +5.6263161477624370e-03
4.8499999999999908e+00 +8.2843515345165351e+00 +0.0000000000000000e+00 +4.8499999421865683e+00 -2.9505133633179852e-02 -5.5554182880775416e-01 +5.6264036714767660e-03
4.8999999999999906e+00 +8.2843380882474165e+00 +0.0000000000000000e+00 +4.8999999403785308e+00 -2.9506833333611211e-02 -5.5557448993173542e-01 +5.6264924354796847e-03
4.9499999999999904e+00 +8.2843245037869284e+00 +0.0000000000000000e+00 +4.9499999385331392e+00 -2.9508546332168494e-02 -5.5560738824373979e-01 +5.6265824141595918e-03
4.9999999999999902e+00 +8.2843107811268890e+00 +0.0000000000000000e+00 +4.9999999366500090e+00 -2.9510272464162365e-02 -5.5564052060096270e-01 +5.6266735819045849e-03
5.0499999999999901e+00 +8.2842969202590560e+00 +0.0000000000000000e+00 +5.0499999347287563e+00 -2.9512011564903816e-02 -5.5567388386059768e-01 +5.6267659131024467e-03
5.0999999999999899e+00 +8.2842829211751319e+00 +0.0000000000000000e+00 +5.0999999327689967e+00 -2.9513763469704173e-02 -5.5570747487983829e-01 +5.6268593821406443e-03
5.1499999999999897e+00 +8.2842687838667608e+00 +0.0000000000000000e+00 +5.1499999307703455e+00 -2.9515528013875154e-02 -5.5574129051587529e-01 +5.6269539634063292e-03
5.1999999999999895e+00 +8.2842545083255317e+00 +0.0000000000000000e+00 +5.1999999287324190e+00 -2.9517305032728747e-02 -5.5577532762589787e-01 +5.6270496312863152e-03
5.2499999999999893e+00 +8.2842400945429784e+00 +0.0000000000000000e+00 +5.2499999266548318e+00 -2.9519094361577292e-02 -5.5580958306709316e-01 +5.6271463601670875e-03
5.2999999999999892e+00 +8.2842255425105815e+00 +0.0000000000000000e+00 +5.2999999245371994e+00 -2.9520895835733463e-02 -5.5584405369664602e-01 +5.6272441244347819e-03
5.3499999999999890e+00 +8.2842108522197666e+00 +0.0000000000000000e+00 +5.3499999223791370e+00 -2.9522709290510242e-02 -5.5587873637173890e-01 +5.6273428984751879e-03
5.3999999999999888e+00 +8.2841960236619077e+00 +0.0000000000000000e+00 +5.3999999201802593e+00 -2.9524534561220929e-02 -5.5591362794955113e-01 +5.6274426566737396e-03
5.4499999999999886e+00 +8.2841810568283254e+00 +0.0000000000000000e+00 +5.4499999179401826e+00 -2.9526371483179114e-02 -5.5594872528725903e-01 +5.6275433734155039e-03
5.4999999999999885e+00 +8.2841659517102890e+00 +0.0000000000000000e+00 +5.4999999156585204e+00 -2.9528219891698727e-02 -5.5598402524203649e-01 +5.6276450230851828e-03
5.5499999999999883e+00 +8.2841507082990198e+00 +0.0000000000000000e+00 +5.5499999133348883e+00 -2.9530079622093981e-02 -5.5601952467105231e-01 +5.6277475800670966e-03
5.5999999999999881e+00 +8.2841353265856874e+00 +0.0000000000000000e+00 +5.5999999109689016e+00 -2.9531950509679362e-02 -5.5605522043147282e-01 +5.6278510187451856e-03
5.6499999999999879e+00 +8.2841198065614137e+00 +0.0000000000000000e+00 +5.6499999085601740e+00 -2.9533832389769692e-02 -5.5609110938046014e-01 +5.6279553135029923e-03
5.6999999999999877e+00 +8.2841041482172724e+00 +0.0000000000000000e+00 +5.6999999061083209e+00 -2.9535725097680043e-02 -5.5612718837517128e-01 +5.6280604387236692e-03
5.7499999999999876e+00 +8.2840883515442876e+00 +0.0000000000000000e+00 +5.7499999036129559e+00 -2.9537628468725791e-02 -5.5616345427276082e-01 +5.6281663687899703e-03
5.7999999999999874e+00 +8.2840724165334407e+00 +0.0000000000000000e+00 +5.7999999010736945e+00 -2.9539542338222556e-02 -5.5619990393037599e-01 +5.6282730780842236e-03
5.8499999999999872e+00 +8.2840563431756653e+00 +0.0000000000000000e+00 +5.8499998984901502e+00 -2.9541466541486264e-02 -5.5623653420516117e-01 +5.6283805409883493e-03
5.8999999999999870e+00 +8.2840401314618504e+00 +0.0000000000000000e+00 +5.8999998958619377e+00 -2.9543400913833114e-02 -5.5627334195425493e-01 +5.6284887318838418e-03
