# trajectory
# s[mm] rx[mm] ry[mm] rz[mm] px[rad] py[rad] pz[rad]
0.0000000000000000e+00 +8.5269999999999992e+00 +0.0000000000000000e+00 +0.0000000000000000e+00 +0.0000000000000000e+00 +0.0000000000000000e+00 +1.0000000000000000e+00
5.0000000000000003e-02 +8.5269999310672127e+00 +0.0000000000000000e+00 +4.9999999999936644e-02 -2.7573045856714657e-06 +0.0000000000000000e+00 +9.9999999999619860e-01
1.0000000000000001e-01 +8.5269997242702100e+00 +0.0000000000000000e+00 +9.9999999999493147e-02 -5.5145689563745344e-06 +0.0000000000000000e+00 +9.9999999998479472e-01
1.5000000000000002e-01 +8.5269993796109542e+00 +0.0000000000000000e+00 +1.4999999999828942e-01 -8.2717950295320686e-06 +0.0000000000000000e+00 +9.9999999996578870e-01
2.0000000000000001e-01 +8.5269988970913122e+00 +0.0000000000000000e+00 +1.9999999999594534e-01 -1.1028984722340343e-05 +0.0000000000000000e+00 +9.9999999993918076e-01
2.5000000000000000e-01 +8.5269982767130550e+00 +0.0000000000000000e+00 +2.4999999999208081e-01 -1.3786139951769147e-05 +0.0000000000000000e+00 +9.9999999990497124e-01
2.9999999999999999e-01 +8.5269975184778595e+00 +0.0000000000000000e+00 +2.9999999998631577e-01 -1.6543262634561875e-05 +0.0000000000000000e+00 +9.9999999986316035e-01
3.4999999999999998e-01 +8.5269966223873030e+00 +0.0000000000000000e+00 +3.4999999997827014e-01 -1.9300354687235618e-05 +0.0000000000000000e+00 +9.9999999981374832e-01
3.9999999999999997e-01 +8.5269955884428690e+00 +0.0000000000000000e+00 +3.9999999996756391e-01 -2.2057418026081265e-05 +0.0000000000000000e+00 +9.9999999975673537e-01
4.4999999999999996e-01 +8.5269944166459464e+00 +0.0000000000000000e+00 +4.4999999995381701e-01 -2.4814454567163587e-05 +0.0000000000000000e+00 +9.9999999969212161e-01
4.9999999999999994e-01 +8.5269931069978266e+00 +0.0000000000000000e+00 +4.9999999993664940e-01 -2.7571466226321337e-05 +0.0000000000000000e+00 +9.9999999961990726e-01
5.4999999999999993e-01 +8.5269916594997071e+00 +0.0000000000000000e+00 +5.4999999991568105e-01 -3.0328454919167341e-05 +0.0000000000000000e+00 +9.9999999954009255e-01
5.9999999999999998e-01 +8.5269900741526872e+00 +0.0000000000000000e+00 +5.9999999989053199e-01 -3.3085422561088584e-05 +0.0000000000000000e+00 +9.9999999945267759e-01
6.5000000000000002e-01 +8.5269883509577706e+00 +0.0000000000000000e+00 +6.4999999986082213e-01 -3.5842371067246313e-05 +0.0000000000000000e+00 +9.9999999935766237e-01
7.0000000000000007e-01 +8.5269864899158669e+00 +0.0000000000000000e+00 +6.9999999982617156e-01 -3.8599302352576116e-05 +0.0000000000000000e+00 +9.9999999925504712e-01
7.5000000000000011e-01 +8.5269844910277897e+00 +0.0000000000000000e+00 +7.4999999978620024e-01 -4.1356218331788014e-05 +0.0000000000000000e+00 +9.9999999914483184e-01
8.0000000000000016e-01 +8.5269823542942564e+00 +0.0000000000000000e+00 +7.9999999974052816e-01 -4.4113120919366563e-05 +0.0000000000000000e+00 +9.9999999902701653e-01
8.5000000000000020e-01 +8.5269800797158890e+00 +0.0000000000000000e+00 +8.4999999968877527e-01 -4.6870012029570926e-05 +0.0000000000000000e+00 +9.9999999890160118e-01
9.0000000000000024e-01 +8.5269776672932132e+00 +0.0000000000000000e+00 +8.9999999963056165e-01 -4.9626893576434982e-05 +0.0000000000000000e+00 +9.9999999876858592e-01
9.5000000000000029e-01 +8.5269751170266588e+00 +0.0000000000000000e+00 +9.4999999956550718e-01 -5.2383767473767396e-05 +0.0000000000000000e+00 +9.9999999862797062e-01
1.0000000000000002e+00 +8.5269724289165616e+00 +0.0000000000000000e+00 +9.9999999949323204e-01 -5.5140635635151715e-05 +0.0000000000000000e+00 +9.9999999847975529e-01
1.0500000000000003e+00 +8.5269696029631596e+00 +0.0000000000000000e+00 +1.0499999994133562e+00 -5.7897499973946472e-05 +0.0000000000000000e+00 +9.9999999832393993e-01
1.1000000000000003e+00 +8.5269666391665968e+00 +0.0000000000000000e+00 +1.0999999993254994e+00 -6.0654362403285237e-05 +0.0000000000000000e+00 +9.9999999816052432e-01
1.1500000000000004e+00 +8.5269635375269193e+00 +0.0000000000000000e+00 +1.1499999992292820e+00 -6.3411224836076738e-05 +0.0000000000000000e+00 +9.9999999798950845e-01
1.2000000000000004e+00 +8.5269602980440808e+00 +0.0000000000000000e+00 +1.1999999991243238e+00 -6.6168089185004929e-05 +0.0000000000000000e+00 +9.9999999781089211e-01
1.2500000000000004e+00 +8.5269569207179376e+00 +0.0000000000000000e+00 +1.2499999990102446e+00 -6.8924957362529103e-05 +0.0000000000000000e+00 +9.9999999762467529e-01
1.3000000000000005e+00 +8.5269534055482499e+00 +0.0000000000000000e+00 +1.2999999988866646e+00 -7.1681831280883925e-05 +0.0000000000000000e+00 +9.9999999743085766e-01
1.3500000000000005e+00 +8.5269497525346818e+00 +0.0000000000000000e+00 +1.3499999987532036e+00 -7.4438712852079565e-05 +0.0000000000000000e+00 +9.9999999722943911e-01
1.4000000000000006e+00 +8.5269459616768053e+00 +0.0000000000000000e+00 +1.3999999986094818e+00 -7.7195603987901775e-05 +0.0000000000000000e+00 +9.9999999702041942e-01
1.4500000000000006e+00 +8.5269420329740928e+00 +0.0000000000000000e+00 +1.4499999984551188e+00 -7.9952506599911946e-05 +0.0000000000000000e+00 +9.9999999680379836e-01
1.5000000000000007e+00 +8.5269379664259226e+00 +0.0000000000000000e+00 +1.4999999982897350e+00 -8.2709422599447241e-05 +0.0000000000000000e+00 +9.9999999657957572e-01
1.5500000000000007e+00 +8.5269337620315770e+00 +0.0000000000000000e+00 +1.5499999981129498e+00 -8.5466353897620625e-05 +0.0000000000000000e+00 +9.9999999634775116e-01
1.6000000000000008e+00 +8.5269294197902443e+00 +0.0000000000000000e+00 +1.5999999979243833e+00 -8.8223302405320984e-05 +0.0000000000000000e+00 +9.9999999610832446e-01
1.6500000000000008e+00 +8.5269249397010167e+00 +0.0000000000000000e+00 +1.6499999977236555e+00 -9.0980270033213183e-05 +0.0000000000000000e+00 +9.9999999586129529e-01
1.7000000000000008e+00 +8.5269203217628906e+00 +0.0000000000000000e+00 +1.6999999975103861e+00 -9.3737258691738184e-05 +0.0000000000000000e+00 +9.9999999560666319e-01
1.7500000000000009e+00 +8.5269155659747664e+00 +0.0000000000000000e+00 +1.7499999972841951e+00 -9.6494270291113088e-05 +0.0000000000000000e+00 +9.9999999534442796e-01
1.8000000000000009e+00 +8.5269106723354486e+00 +0.0000000000000000e+00 +1.7999999970447023e+00 -9.9251306741331244e-05 +0.0000000000000000e+00 +9.9999999507458914e-01
1.8500000000000010e+00 +8.5269056408436477e+00 +0.0000000000000000e+00 +1.8499999967915273e+00 -1.0200836995216232e-04 +0.0000000000000000e+00 +9.9999999479714630e-01
1.9000000000000010e+00 +8.5269004714979761e+00 +0.0000000000000000e+00 +1.8999999965242902e+00 -1.0476546183315239e-04 +0.0000000000000000e+00 +9.9999999451209909e-01
1.9500000000000011e+00 +8.5268951642969544e+00 +0.0000000000000000e+00 +1.9499999962426104e+00 -1.0752258429362399e-04 +0.0000000000000000e+00 +9.9999999421944696e-01
2.0000000000000009e+00 +8.5268897192390050e+00 +0.0000000000000000e+00 +1.9999999959461081e+00 -1.1027973924267622e-04 +0.0000000000000000e+00 +9.9999999391918959e-01
2.0500000000000007e+00 +8.5268841363224563e+00 +0.0000000000000000e+00 +2.0499999956344026e+00 -1.1303692858882886e-04 +0.0000000000000000e+00 +9.9999999361132641e-01
2.1000000000000005e+00 +8.5268784155455410e+00 +0.0000000000000000e+00 +2.0999999953071140e+00 -1.1579415423610662e-04 +0.0000000000000000e+00 +9.9999999329585698e-01
2.1500000000000004e+00 +8.5268725569063957e+00 +0.0000000000000000e+00 +2.1499999949638617e+00 -1.1855141808012343e-04 +0.0000000000000000e+00 +9.9999999297278064e-01
2.2000000000000002e+00 +8.5268665604030645e+00 +0.0000000000000000e+00 +2.1999999946042652e+00 -1.2130872200772658e-04 +0.0000000000000000e+00 +9.9999999264209694e-01
2.2500000000000000e+00 +8.5268604260334957e+00 +0.0000000000000000e+00 +2.2499999942279443e+00 -1.2406606789699671e-04 +0.0000000000000000e+00 +9.9999999230380532e-01
2.2999999999999998e+00 +8.5268541537955436e+00 +0.0000000000000000e+00 +2.2999999938345188e+00 -1.2682345761724794e-04 +0.0000000000000000e+00 +9.9999999195790523e-01
2.3499999999999996e+00 +8.5268477436869716e+00 +0.0000000000000000e+00 +2.3499999934236082e+00 -1.2958089302902789e-04 +0.0000000000000000e+00 +9.9999999160439601e-01
2.3999999999999995e+00 +8.5268411957054475e+00 +0.0000000000000000e+00 +2.3999999929948319e+00 -1.3233837598411775e-04 +0.0000000000000000e+00 +9.9999999124327710e-01
2.4499999999999993e+00 +8.5268345098485501e+00 +0.0000000000000000e+00 +2.4499999925478093e+00 -1.3509590832553239e-04 +0.0000000000000000e+00 +9.9999999087454772e-01
2.4999999999999991e+00 +8.5268276861137622e+00 +0.0000000000000000e+00 +2.4999999920821598e+00 -1.3785349188752039e-04 +0.0000000000000000e+00 +9.9999999049820731e-01
2.5499999999999989e+00 +8.5268207244984779e+00 +0.0000000000000000e+00 +2.5499999915975029e+00 -1.4061112849556408e-04 +0.0000000000000000e+00 +9.9999999011425522e-01
2.5999999999999988e+00 +8.5268136249999991e+00 +0.0000000000000000e+00 +2.5999999910934584e+00 -1.4336881996637963e-04 +0.0000000000000000e+00 +9.9999998972269066e-01
2.6499999999999986e+00 +8.5268063876155367e+00 +0.0000000000000000e+00 +2.6499999905696452e+00 -1.4612656810791705e-04 +0.0000000000000000e+00 +9.9999998932351297e-01
2.6999999999999984e+00 +8.5267990123422130e+00 +0.0000000000000000e+00 +2.6999999900256828e+00 -1.4888437471936039e-04 +0.0000000000000000e+00 +9.9999998891672137e-01
2.7499999999999982e+00 +8.5267914991770599e+00 +0.0000000000000000e+00 +2.7499999894611906e+00 -1.5164224159112767e-04 +0.0000000000000000e+00 +9.9999998850231520e-01
2.7999999999999980e+00 +8.5267838481170202e+00 +0.0000000000000000e+00 +2.7999999888757876e+00 -1.5440017050487095e-04 +0.0000000000000000e+00 +9.9999998808029356e-01
2.8499999999999979e+00 +8.5267760591589461e+00 +0.0000000000000000e+00 +2.8499999882690932e+00 -1.5715816323347639e-04 +0.0000000000000000e+00 +9.9999998765065579e-01
2.8999999999999977e+00 +8.5267681322996030e+00 +0.0000000000000000e+00 +2.8999999876407263e+00 -1.5991622154106440e-04 +0.0000000000000000e+00 +9.9999998721340100e-01
2.9499999999999975e+00 +8.5267600675356690e+00 +0.0000000000000000e+00 +2.9499999869903064e+00 -1.6267434718298955e-04 +0.0000000000000000e+00 +9.9999998676852830e-01
2.9999999999999973e+00 +8.5267518648637335e+00 +0.0000000000000000e+00 +2.9999999863174525e+00 -1.6543254190584067e-04 +0.0000000000000000e+00 +9.9999998631603693e-01
3.0499999999999972e+00 +8.5267435242802989e+00 +0.0000000000000000e+00 +3.0499999856217834e+00 -1.6819080744744100e-04 +0.0000000000000000e+00 +9.9999998585592598e-01
3.0999999999999970e+00 +8.5267350457817805e+00 +0.0000000000000000e+00 +3.0999999849029183e+00 -1.7094914553684808e-04 +0.0000000000000000e+00 +9.9999998538819468e-01
3.1499999999999968e+00 +8.5267264293645084e+00 +0.0000000000000000e+00 +3.1499999841604760e+00 -1.7370755789435395e-04 +0.0000000000000000e+00 +9.9999998491284203e-01
3.1999999999999966e+00 +8.5267176750247256e+00 +0.0000000000000000e+00 +3.1999999833940755e+00 -1.7646604623148507e-04 +0.0000000000000000e+00 +9.9999998442986715e-01
3.2499999999999964e+00 +8.5267087827585915e+00 +0.0000000000000000e+00 +3.2499999826033359e+00 -1.7922461225100244e-04 +0.0000000000000000e+00 +9.9999998393926903e-01
3.2999999999999963e+00 +8.5266997525621786e+00 +0.0000000000000000e+00 +3.2999999817878756e+00 -1.8198325764690165e-04 +0.0000000000000000e+00 +9.9999998344104679e-01
3.3499999999999961e+00 +8.5266905844314760e+00 +0.0000000000000000e+00 +3.3499999809473135e+00 -1.8474198410441288e-04 +0.0000000000000000e+00 +9.9999998293519943e-01
3.3999999999999959e+00 +8.5266812783623891e+00 +0.0000000000000000e+00 +3.3999999800812684e+00 -1.8750079330000097e-04 +0.0000000000000000e+00 +9.9999998242172605e-01
3.4499999999999957e+00 +8.5266718343507399e+00 +0.0000000000000000e+00 +3.4499999791893590e+00 -1.9025968690136551e-04 +0.0000000000000000e+00 +9.9999998190062556e-01
3.4999999999999956e+00 +8.5266622523922653e+00 +0.0000000000000000e+00 +3.4999999782712039e+00 -1.9301866656744077e-04 +0.0000000000000000e+00 +9.9999998137189694e-01
3.5499999999999954e+00 +8.5266525324826219e+00 +0.0000000000000000e+00 +3.5499999773264217e+00 -1.9577773394839585e-04 +0.0000000000000000e+00 +9.9999998083553920e-01
3.5999999999999952e+00 +8.5266426746173813e+00 +0.0000000000000000e+00 +3.5999999763546309e+00 -1.9853689068563470e-04 +0.0000000000000000e+00 +9.9999998029155124e-01
3.6499999999999950e+00 +8.5266326787920370e+00 +0.0000000000000000e+00 +3.6499999753554500e+00 -2.0129613841179608e-04 +0.0000000000000000e+00 +9.9999997973993204e-01
3.6999999999999948e+00 +8.5266225450019970e+00 +0.0000000000000000e+00 +3.6999999743284970e+00 -2.0405547875075369e-04 +0.0000000000000000e+00 +9.9999997918068051e-01
3.7499999999999947e+00 +8.5266122732425913e+00 +0.0000000000000000e+00 +3.7499999732733906e+00 -2.0681491331761616e-04 +0.0000000000000000e+00 +9.9999997861379553e-01
3.7999999999999945e+00 +8.5266018635090681e+00 +0.0000000000000000e+00 +3.7999999721897493e+00 -2.0957444371872709e-04 +0.0000000000000000e+00 +9.9999997803927598e-01
3.8499999999999943e+00 +8.5265913157965958e+00 +0.0000000000000000e+00 +3.8499999710771911e+00 -2.1233407155166515e-04 +0.0000000000000000e+00 +9.9999997745712077e-01
3.8999999999999941e+00 +8.5265806301002627e+00 +0.0000000000000000e+00 +3.8999999699353340e+00 -2.1509379840524401e-04 +0.0000000000000000e+00 +9.9999997686732867e-01
3.9499999999999940e+00 +8.5265698064150790e+00 +0.0000000000000000e+00 +3.9499999687637963e+00 -2.1785362585951244e-04 +0.0000000000000000e+00 +9.9999997626989856e-01
3.9999999999999938e+00 +8.5265588447359750e+00 +0.0000000000000000e+00 +3.9999999675621964e+00 -2.2061355548575433e-04 +0.0000000000000000e+00 +9.9999997566482923e-01
4.0499999999999936e+00 +8.5265477450578029e+00 +0.0000000000000000e+00 +4.0499999663301516e+00 -2.2337358884637215e-04 +0.0000000000000000e+00 +9.9999997505211957e-01
4.0999999999999934e+00 +8.5265365073753365e+00 +0.0000000000000000e+00 +4.0999999650672807e+00 -2.2613372749360537e-04 +0.0000000000000000e+00 +9.9999997443176825e-01
4.1499999999999932e+00 +8.5265251316832735e+00 +0.0000000000000000e+00 +4.1499999637732010e+00 -2.2889397296824862e-04 +0.0000000000000000e+00 +9.9999997380377414e-01
4.1999999999999931e+00 +8.5265136179762333e+00 +0.0000000000000000e+00 +4.1999999624475306e+00 -2.3165432679953527e-04 +0.0000000000000000e+00 +9.9999997316813605e-01
4.2499999999999929e+00 +8.5265019662487624e+00 +0.0000000000000000e+00 +4.2499999610898875e+00 -2.3441479050513746e-04 +0.0000000000000000e+00 +9.9999997252485262e-01
4.2999999999999927e+00 +8.5264901764953276e+00 +0.0000000000000000e+00 +4.2999999596998890e+00 -2.3717536559116618e-04 +0.0000000000000000e+00 +9.9999997187392253e-01
4.3499999999999925e+00 +8.5264782487103226e+00 +0.0000000000000000e+00 +4.3499999582771522e+00 -2.3993605355217124e-04 +0.0000000000000000e+00 +9.9999997121534467e-01
4.3999999999999924e+00 +8.5264661828880666e+00 +0.0000000000000000e+00 +4.3999999568212953e+00 -2.4269685587114138e-04 +0.0000000000000000e+00 +9.9999997054911760e-01
4.4499999999999922e+00 +8.5264539790228042e+00 +0.0000000000000000e+00 +4.4499999553319363e+00 -2.4545777401950428e-04 +0.0000000000000000e+00 +9.9999996987524009e-01
4.4999999999999920e+00 +8.5264416371087091e+00 +0.0000000000000000e+00 +4.4999999538086923e+00 -2.4821880945712657e-04 +0.0000000000000000e+00 +9.9999996919371081e-01
4.5499999999999918e+00 +8.5264291571398800e+00 +0.0000000000000000e+00 +4.5499999522511798e+00 -2.5097996363231389e-04 +0.0000000000000000e+00 +9.9999996850452844e-01
4.5999999999999917e+00 +8.5264165391103433e+00 +0.0000000000000000e+00 +4.5999999506590168e+00 -2.5374123798181094e-04 +0.0000000000000000e+00 +9.9999996780769151e-01
4.6499999999999915e+00 +8.5264037830140555e+00 +0.0000000000000000e+00 +4.6499999490318213e+00 -2.5650263393080155e-04 +0.0000000000000000e+00 +9.9999996710319883e-01
4.6999999999999913e+00 +8.5263908888449009e+00 +0.0000000000000000e+00 +4.6999999473692098e+00 -2.5926415289290866e-04 +0.0000000000000000e+00 +9.9999996639104893e-01
4.7499999999999911e+00 +8.5263778565966923e+00 +0.0000000000000000e+00 +4.7499999456707993e+00 -2.6202579627019435e-04 +0.0000000000000000e+00 +9.9999996567124039e-01
4.7999999999999909e+00 +8.5263646862631770e+00 +0.0000000000000000e+00 +4.7999999439362062e+00 -2.6478756545315988e-04 +0.0000000000000000e+00 +9.9999996494377186e-01
4.8499999999999908e+00 +8.5263513778380275e+00 +0.0000000000000000e+00 +4.8499999421650486e+00 -2.6754946182074577e-04 +0.0000000000000000e+00 +9.9999996420864201e-01
4.8999999999999906e+00 +8.5263379313148526e+00 +0.0000000000000000e+00 +4.8999999403569428e+00 -2.7031148674033182e-04 +0.0000000000000000e+00 +9.9999996346584930e-01
4.9499999999999904e+00 +8.5263243466871899e+00 +0.0000000000000000e+00 +4.9499999385115059e+00 -2.7307364156773707e-04 +0.0000000000000000e+00 +9.9999996271539238e-01
4.9999999999999902e+00 +8.5263106239485094e+00 +0.0000000000000000e+00 +4.9999999366283543e+00 -2.7583592764721994e-04 +0.0000000000000000e+00 +9.9999996195726970e-01
5.0499999999999901e+00 +8.5262967630922155e+00 +0.0000000000000000e+00 +5.0499999347071052e+00 -2.7859834631147826e-04 +0.0000000000000000e+00 +9.9999996119147982e-01
5.0999999999999899e+00 +8.5262827641116470e+00 +0.0000000000000000e+00 +5.0999999327473748e+00 -2.8136089888164916e-04 +0.0000000000000000e+00 +9.9999996041802142e-01
5.1499999999999897e+00 +8.5262686270000749e+00 +0.0000000000000000e+00 +5.1499999307487796e+00 -2.8412358666730930e-04 +0.0000000000000000e+00 +9.9999995963689281e-01
5.1999999999999895e+00 +8.5262543517507048e+00 +0.0000000000000000e+00 +5.1999999287109366e+00 -2.8688641096647470e-04 +0.0000000000000000e+00 +9.9999995884809267e-01
5.2499999999999893e+00 +8.5262399383566816e+00 +0.0000000000000000e+00 +5.2499999266334614e+00 -2.8964937306560093e-04 +0.0000000000000000e+00 +9.9999995805161934e-01
5.2999999999999892e+00 +8.5262253868110811e+00 +0.0000000000000000e+00 +5.2999999245159710e+00 -2.9241247423958302e-04 +0.0000000000000000e+00 +9.9999995724747137e-01
5.3499999999999890e+00 +8.5262106971069187e+00 +0.0000000000000000e+00 +5.3499999223580810e+00 -2.9517571575175567e-04 +0.0000000000000000e+00 +9.9999995643564732e-01
5.3999999999999888e+00 +8.5261958692371458e+00 +0.0000000000000000e+00 +5.3999999201594076e+00 -2.9793909885389300e-04 +0.0000000000000000e+00 +9.9999995561614552e-01
5.4499999999999886e+00 +8.5261809031946516e+00 +0.0000000000000000e+00 +5.4499999179195671e+00 -3.0070262478620885e-04 +0.0000000000000000e+00 +9.9999995478896453e-01
5.4999999999999885e+00 +8.5261657989722650e+00 +0.0000000000000000e+00 +5.4999999156381758e+00 -3.0346629477735662e-04 +0.0000000000000000e+00 +9.9999995395410268e-01
5.5499999999999883e+00 +8.5261505565627527e+00 +0.0000000000000000e+00 +5.5499999133148492e+00 -3.0623011004442941e-04 +0.0000000000000000e+00 +9.9999995311155854e-01
5.5999999999999881e+00 +8.5261351759588191e+00 +0.0000000000000000e+00 +5.5999999109492036e+00 -3.0899407179295997e-04 +0.0000000000000000e+00 +9.9999995226133043e-01
5.6499999999999879e+00 +8.5261196571531119e+00 +0.0000000000000000e+00 +5.6499999085408543e+00 -3.1175818121692079e-04 +0.0000000000000000e+00 +9.9999995140341680e-01
5.6999999999999877e+00 +8.5261040001382167e+00 +0.0000000000000000e+00 +5.6999999060894169e+00 -3.1452243949872406e-04 +0.0000000000000000e+00 +9.9999995053781610e-01
5.7499999999999876e+00 +8.5260882049066620e+00 +0.0000000000000000e+00 +5.7499999035945075e+00 -3.1728684780922176e-04 +0.0000000000000000e+00 +9.9999994966452666e-01
5.7999999999999874e+00 +8.5260722714509161e+00 +0.0000000000000000e+00 +5.7999999010557417e+00 -3.2005140730770565e-04 +0.0000000000000000e+00 +9.9999994878354681e-01
5.8499999999999872e+00 +8.5260561997633921e+00 +0.0000000000000000e+00 +5.8499998984727339e+00 -3.2281611914190719e-04 +0.0000000000000000e+00 +9.9999994789487501e-01
5.8999999999999870e+00 +8.5260399898364447e+00 +0.0000000000000000e+00 +5.8999998958451005e+00 -3.2558098444799785e-04 +0.0000000000000000e+00 +9.9999994699850958e-01
