# trajectory
# s[mm] rx[mm] ry[mm] rz[mm] px[rad] py[rad] pz[rad]
0.0000000000000000e+00 +8.2850000000000001e+00 +0.0000000000000000e+00 +0.0000000000000000e+00 +0.0000000000000000e+00 +0.0000000000000000e+00 +1.0000000000000000e+00
5.0000000000000003e-02 +8.2849999307877056e+00 +0.0000000000000000e+00 +4.9999999999936123e-02 -2.7684851545931005e-06 +0.0000000000000000e+00 +9.9999999999616773e-01
1.0000000000000001e-01 +8.2849997231521346e+00 +0.0000000000000000e+00 +9.9999999999489025e-02 -5.5369313376871614e-06 +0.0000000000000000e+00 +9.9999999998467115e-01
1.5000000000000002e-01 +8.2849993770951897e+00 +0.0000000000000000e+00 +1.4999999999827551e-01 -8.3053404802825306e-06 +0.0000000000000000e+00 +9.9999999996551059e-01
2.0000000000000001e-01 +8.2849988926186722e+00 +0.0000000000000000e+00 +1.9999999999591236e-01 -1.1073714515236932e-05 +0.0000000000000000e+00 +9.9999999993868638e-01
2.5000000000000000e-01 +8.2849982697242908e+00 +0.0000000000000000e+00 +2.4999999999201641e-01 -1.3842055377265557e-05 +0.0000000000000000e+00 +9.9999999990419874e-01
2.9999999999999999e-01 +8.2849975084136549e+00 +0.0000000000000000e+00 +2.9999999998620452e-01 -1.6610365002941160e-05 +0.0000000000000000e+00 +9.9999999986204791e-01
3.4999999999999998e-01 +8.2849966086882780e+00 +0.0000000000000000e+00 +3.4999999997809350e-01 -1.9378645330694145e-05 +0.0000000000000000e+00 +9.9999999981223409e-01
3.9999999999999997e-01 +8.2849955705495777e+00 +0.0000000000000000e+00 +3.9999999996730023e-01 -2.2146898300812659e-05 +0.0000000000000000e+00 +9.9999999975475751e-01
4.4999999999999996e-01 +8.2849943939988719e+00 +0.0000000000000000e+00 +4.4999999995344153e-01 -2.4915125855442687e-05 +0.0000000000000000e+00 +9.9999999968961828e-01
4.9999999999999994e-01 +8.2849930790373829e+00 +0.0000000000000000e+00 +4.9999999993613431e-01 -2.7683329938588134e-05 +0.0000000000000000e+00 +9.9999999961681663e-01
5.4999999999999993e-01 +8.2849916256662368e+00 +0.0000000000000000e+00 +5.4999999991499549e-01 -3.0451512496110928e-05 +0.0000000000000000e+00 +9.9999999953635266e-01
5.9999999999999998e-01 +8.2849900338864604e+00 +0.0000000000000000e+00 +5.9999999988964192e-01 -3.3219675475731110e-05 +0.0000000000000000e+00 +9.9999999944822660e-01
6.5000000000000002e-01 +8.2849883036989826e+00 +0.0000000000000000e+00 +6.4999999985969048e-01 -3.5987820827026913e-05 +0.0000000000000000e+00 +9.9999999935243844e-01
7.0000000000000007e-01 +8.2849864351046385e+00 +0.0000000000000000e+00 +6.9999999982475802e-01 -3.8755950501434875e-05 +0.0000000000000000e+00 +9.9999999924898819e-01
7.5000000000000011e-01 +8.2849844281041616e+00 +0.0000000000000000e+00 +7.4999999978446152e-01 -4.1524066452249916e-05 +0.0000000000000000e+00 +9.9999999913787596e-01
8.0000000000000016e-01 +8.2849822826981896e+00 +0.0000000000000000e+00 +7.9999999973841784e-01 -4.4292170634625436e-05 +0.0000000000000000e+00 +9.9999999901910186e-01
8.5000000000000020e-01 +8.2849799988872626e+00 +0.0000000000000000e+00 +8.4999999968624396e-01 -4.7060265005573407e-05 +0.0000000000000000e+00 +9.9999999889266578e-01
9.0000000000000024e-01 +8.2849775766718210e+00 +0.0000000000000000e+00 +8.9999999962755672e-01 -4.9828351523964469e-05 +0.0000000000000000e+00 +9.9999999875856771e-01
9.5000000000000029e-01 +8.2849750160522095e+00 +0.0000000000000000e+00 +9.4999999956197301e-01 -5.2596432150528025e-05 +0.0000000000000000e+00 +9.9999999861680766e-01
1.0000000000000002e+00 +8.2849723170286715e+00 +0.0000000000000000e+00 +9.9999999948910978e-01 -5.5364508847852316e-05 +0.0000000000000000e+00 +9.9999999846738563e-01
1.0500000000000003e+00 +8.2849694796013562e+00 +0.0000000000000000e+00 +1.0499999994085838e+00 -5.8132583580384543e-05 +0.0000000000000000e+00 +9.9999999831030140e-01
1.1000000000000003e+00 +8.2849665037703133e+00 +0.0000000000000000e+00 +1.0999999993200120e+00 -6.0900658314430932e-05 +0.0000000000000000e+00 +9.9999999814555496e-01
1.1500000000000004e+00 +8.2849633895354931e+00 +0.0000000000000000e+00 +1.1499999992230114e+00 -6.3668735018156854e-05 +0.0000000000000000e+00 +9.9999999797314609e-01
1.2000000000000004e+00 +8.2849601368967463e+00 +0.0000000000000000e+00 +1.1999999991171988e+00 -6.6436815661586896e-05 +0.0000000000000000e+00 +9.9999999779307480e-01
1.2500000000000004e+00 +8.2849567458538278e+00 +0.0000000000000000e+00 +1.2499999990021911e+00 -6.9204902216604970e-05 +0.0000000000000000e+00 +9.9999999760534075e-01
1.3000000000000005e+00 +8.2849532164063930e+00 +0.0000000000000000e+00 +1.2999999988776052e+00 -7.1972996656954403e-05 +0.0000000000000000e+00 +9.9999999740994383e-01
1.3500000000000005e+00 +8.2849495485539979e+00 +0.0000000000000000e+00 +1.3499999987430578e+00 -7.4741100958238021e-05 +0.0000000000000000e+00 +9.9999999720688382e-01
1.4000000000000006e+00 +8.2849457422961006e+00 +0.0000000000000000e+00 +1.3999999985981657e+00 -7.7509217097918262e-05 +0.0000000000000000e+00 +9.9999999699616049e-01
1.4500000000000006e+00 +8.2849417976320581e+00 +0.0000000000000000e+00 +1.4499999984425460e+00 -8.0277347055317255e-05 +0.0000000000000000e+00 +9.9999999677777363e-01
1.5000000000000007e+00 +8.2849377145611314e+00 +0.0000000000000000e+00 +1.4999999982758154e+00 -8.3045492811616929e-05 +0.0000000000000000e+00 +9.9999999655172289e-01
1.5500000000000007e+00 +8.2849334930824803e+00 +0.0000000000000000e+00 +1.5499999980975907e+00 -8.5813656349859106e-05 +0.0000000000000000e+00 +9.9999999631800807e-01
1.6000000000000008e+00 +8.2849291331951669e+00 +0.0000000000000000e+00 +1.5999999979074886e+00 -8.8581839654945573e-05 +0.0000000000000000e+00 +9.9999999607662871e-01
1.6500000000000008e+00 +8.2849246348981520e+00 +0.0000000000000000e+00 +1.6499999977051258e+00 -9.1350044713638199e-05 +0.0000000000000000e+00 +9.9999999582758448e-01
1.7000000000000008e+00 +8.2849199981902988e+00 +0.0000000000000000e+00 +1.6999999974901192e+00 -9.4118273514559020e-05 +0.0000000000000000e+00 +9.9999999557087516e-01
1.7500000000000009e+00 +8.2849152230703709e+00 +0.0000000000000000e+00 +1.7499999972620854e+00 -9.6886528048190359e-05 +0.0000000000000000e+00 +9.9999999530650019e-01
1.8000000000000009e+00 +8.2849103095370324e+00 +0.0000000000000000e+00 +1.7999999970206413e+00 -9.9654810306874881e-05 +0.0000000000000000e+00 +9.9999999503445924e-01
1.8500000000000010e+00 +8.2849052575888464e+00 +0.0000000000000000e+00 +1.8499999967654035e+00 -1.0242312228481573e-04 +0.0000000000000000e+00 +9.9999999475475188e-01
1.9000000000000010e+00 +8.2849000672242763e+00 +0.0000000000000000e+00 +1.8999999964959886e+00 -1.0519146597807658e-04 +0.0000000000000000e+00 +9.9999999446737764e-01
1.9500000000000011e+00 +8.2848947384416860e+00 +0.0000000000000000e+00 +1.9499999962120134e+00 -1.0795984338458178e-04 +0.0000000000000000e+00 +9.9999999417233598e-01
2.0000000000000009e+00 +8.2848892712393418e+00 +0.0000000000000000e+00 +1.9999999959130943e+00 -1.1072825650411641e-04 +0.0000000000000000e+00 +9.9999999386962646e-01
2.0500000000000007e+00 +8.2848836656154070e+00 +0.0000000000000000e+00 +2.0499999955988479e+00 -1.1349670733789216e-04 +0.0000000000000000e+00 +9.9999999355924851e-01
2.1000000000000005e+00 +8.2848779215679453e+00 +0.0000000000000000e+00 +2.0999999952688913e+00 -1.1626519788377059e-04 +0.0000000000000000e+00 +9.9999999324120170e-01
2.1500000000000004e+00 +8.2848720390949229e+00 +0.0000000000000000e+00 +2.1499999949228403e+00 -1.1903373013148648e-04 +0.0000000000000000e+00 +9.9999999291548536e-01
2.2000000000000002e+00 +8.2848660181942044e+00 +0.0000000000000000e+00 +2.1999999945603119e+00 -1.2180230606221359e-04 +0.0000000000000000e+00 +9.9999999258209893e-01
2.2500000000000000e+00 +8.2848598588635554e+00 +0.0000000000000000e+00 +2.2499999941809223e+00 -1.2457092764856480e-04 +0.0000000000000000e+00 +9.9999999224104175e-01
2.2999999999999998e+00 +8.2848535611006451e+00 +0.0000000000000000e+00 +2.2999999937842883e+00 -1.2733959685459214e-04 +0.0000000000000000e+00 +9.9999999189231326e-01
2.3499999999999996e+00 +8.2848471249030435e+00 +0.0000000000000000e+00 +2.3499999933700257e+00 -1.3010831563578688e-04 +0.0000000000000000e+00 +9.9999999153591279e-01
2.3999999999999995e+00 +8.2848405502682230e+00 +0.0000000000000000e+00 +2.3999999929377513e+00 -1.3287708593907961e-04 +0.0000000000000000e+00 +9.9999999117183969e-01
2.4499999999999993e+00 +8.2848338371935579e+00 +0.0000000000000000e+00 +2.4499999924870814e+00 -1.3564590970284029e-04 +0.0000000000000000e+00 +9.9999999080009327e-01
2.4999999999999991e+00 +8.2848269856763288e+00 +0.0000000000000000e+00 +2.4999999920176328e+00 -1.3841478885687829e-04 +0.0000000000000000e+00 +9.9999999042067278e-01
2.5499999999999989e+00 +8.2848199957137165e+00 +0.0000000000000000e+00 +2.5499999915290212e+00 -1.4118372532244256e-04 +0.0000000000000000e+00 +9.9999999003357753e-01
2.5999999999999988e+00 +8.2848128673028096e+00 +0.0000000000000000e+00 +2.5999999910208627e+00 -1.4395272101222159e-04 +0.0000000000000000e+00 +9.9999998963880676e-01
2.6499999999999986e+00 +8.2848056004405972e+00 +0.0000000000000000e+00 +2.6499999904927738e+00 -1.4672177783034353e-04 +0.0000000000000000e+00 +9.9999998923635969e-01
2.6999999999999984e+00 +8.2847981951239760e+00 +0.0000000000000000e+00 +2.6999999899443705e+00 -1.4949089767237627e-04 +0.0000000000000000e+00 +9.9999998882623553e-01
2.7499999999999982e+00 +8.2847906513497485e+00 +0.0000000000000000e+00 +2.7499999893752691e+00 -1.5226008242532745e-04 +0.0000000000000000e+00 +9.9999998840843340e-01
2.7999999999999980e+00 +8.2847829691146213e+00 +0.0000000000000000e+00 +2.7999999887850859e+00 -1.5502933396764458e-04 +0.0000000000000000e+00 +9.9999998798295253e-01
2.8499999999999979e+00 +8.2847751484152070e+00 +0.0000000000000000e+00 +2.8499999881734364e+00 -1.5779865416921504e-04 +0.0000000000000000e+00 +9.9999998754979214e-01
2.8999999999999977e+00 +8.2847671892480275e+00 +0.0000000000000000e+00 +2.8999999875399372e+00 -1.6056804489136622e-04 +0.0000000000000000e+00 +9.9999998710895122e-01
2.9499999999999975e+00 +8.2847590916095104e+00 +0.0000000000000000e+00 +2.9499999868842037e+00 -1.6333750798686552e-04 +0.0000000000000000e+00 +9.9999998666042900e-01
2.9999999999999973e+00 +8.2847508554959912e+00 +0.0000000000000000e+00 +2.9999999862058520e+00 -1.6610704529992042e-04 +0.0000000000000000e+00 +9.9999998620422448e-01
3.0499999999999972e+00 +8.2847424809037129e+00 +0.0000000000000000e+00 +3.0499999855044981e+00 -1.6887665866617855e-04 +0.0000000000000000e+00 +9.9999998574033677e-01
3.0999999999999970e+00 +8.2847339678288261e+00 +0.0000000000000000e+00 +3.0999999847797577e+00 -1.7164634991272777e-04 +0.0000000000000000e+00 +9.9999998526876499e-01
3.1499999999999968e+00 +8.2847253162673926e+00 +0.0000000000000000e+00 +3.1499999840312465e+00 -1.7441612085809617e-04 +0.0000000000000000e+00 +9.9999998478950813e-01
3.1999999999999966e+00 +8.2847165262153819e+00 +0.0000000000000000e+00 +3.1999999832585804e+00 -1.7718597331225214e-04 +0.0000000000000000e+00 +9.9999998430256520e-01
3.2499999999999964e+00 +8.2847075976686728e+00 +0.0000000000000000e+00 +3.2499999824613748e+00 -1.7995590907660445e-04 +0.0000000000000000e+00 +9.9999998380793520e-01
3.2999999999999963e+00 +8.2846985306230554e+00 +0.0000000000000000e+00 +3.2999999816392456e+00 -1.8272592994400232e-04 +0.0000000000000000e+00 +9.9999998330561701e-01
3.3499999999999961e+00 +8.2846893250742308e+00 +0.0000000000000000e+00 +3.3499999807918082e+00 -1.8549603769873538e-04 +0.0000000000000000e+00 +9.9999998279560975e-01
3.3999999999999959e+00 +8.2846799810178080e+00 +0.0000000000000000e+00 +3.3999999799186784e+00 -1.8826623411653386e-04 +0.0000000000000000e+00 +9.9999998227791231e-01
3.4499999999999957e+00 +8.2846704984493122e+00 +0.0000000000000000e+00 +3.4499999790194713e+00 -1.9103652096456850e-04 +0.0000000000000000e+00 +9.9999998175252358e-01
3.4999999999999956e+00 +8.2846608773641766e+00 +0.0000000000000000e+00 +3.4999999780938027e+00 -1.9380690000145068e-04 +0.0000000000000000e+00 +9.9999998121944245e-01
3.5499999999999954e+00 +8.2846511177577469e+00 +0.0000000000000000e+00 +3.5499999771412876e+00 -1.9657737297723246e-04 +0.0000000000000000e+00 +9.9999998067866791e-01
3.5999999999999952e+00 +8.2846412196252839e+00 +0.0000000000000000e+00 +3.5999999761615413e+00 -1.9934794163340661e-04 +0.0000000000000000e+00 +9.9999998013019875e-01
3.6499999999999950e+00 +8.2846311829619594e+00 +0.0000000000000000e+00 +3.6499999751541794e+00 -2.0211860770290665e-04 +0.0000000000000000e+00 +9.9999997957403386e-01
3.6999999999999948e+00 +8.2846210077628601e+00 +0.0000000000000000e+00 +3.6999999741188168e+00 -2.0488937291010691e-04 +0.0000000000000000e+00 +9.9999997901017212e-01
3.7499999999999947e+00 +8.2846106940229873e+00 +0.0000000000000000e+00 +3.7499999730550684e+00 -2.0766023897082257e-04 +0.0000000000000000e+00 +9.9999997843861221e-01
3.7999999999999945e+00 +8.2846002417372535e+00 +0.0000000000000000e+00 +3.7999999719625497e+00 -2.1043120759230971e-04 +0.0000000000000000e+00 +9.9999997785935302e-01
3.8499999999999943e+00 +8.2845896509004895e+00 +0.0000000000000000e+00 +3.8499999708408756e+00 -2.1320228047326534e-04 +0.0000000000000000e+00 +9.9999997727239331e-01
3.8999999999999941e+00 +8.2845789215074408e+00 +0.0000000000000000e+00 +3.8999999696896608e+00 -2.1597345930382742e-04 +0.0000000000000000e+00 +9.9999997667773188e-01
3.9499999999999940e+00 +8.2845680535527659e+00 +0.0000000000000000e+00 +3.9499999685085205e+00 -2.1874474576557494e-04 +0.0000000000000000e+00 +9.9999997607536750e-01
3.9999999999999938e+00 +8.2845570470310417e+00 +0.0000000000000000e+00 +3.9999999672970694e+00 -2.2151614153152795e-04 +0.0000000000000000e+00 +9.9999997546529895e-01
4.0499999999999936e+00 +8.2845459019367631e+00 +0.0000000000000000e+00 +4.0499999660549220e+00 -2.2428764826596211e-04 +0.0000000000000000e+00 +9.9999997484752479e-01
4.0999999999999934e+00 +8.2845346182643382e+00 +0.0000000000000000e+00 +4.0999999647816932e+00 -2.2705926762236890e-04 +0.0000000000000000e+00 +9.9999997422204390e-01
4.1499999999999932e+00 +8.2845231960080969e+00 +0.0000000000000000e+00 +4.1499999634769980e+00 -2.2983100124141569e-04 +0.0000000000000000e+00 +9.9999997358885484e-01
4.1999999999999931e+00 +8.2845116351622838e+00 +0.0000000000000000e+00 +4.1999999621404500e+00 -2.3260285075076036e-04 +0.0000000000000000e+00 +9.9999997294795628e-01
4.2499999999999929e+00 +8.2844999357210636e+00 +0.0000000000000000e+00 +4.2499999607716648e+00 -2.3537481776505131e-04 +0.0000000000000000e+00 +9.9999997229934690e-01
4.2999999999999927e+00 +8.2844880976785227e+00 +0.0000000000000000e+00 +4.2999999593702558e+00 -2.3814690388592757e-04 +0.0000000000000000e+00 +9.9999997164302534e-01
4.3499999999999925e+00 +8.2844761210286642e+00 +0.0000000000000000e+00 +4.3499999579358386e+00 -2.4091911070201868e-04 +0.0000000000000000e+00 +9.9999997097899029e-01
4.3999999999999924e+00 +8.2844640057654146e+00 +0.0000000000000000e+00 +4.3999999564680268e+00 -2.4369143978894493e-04 +0.0000000000000000e+00 +9.9999997030724030e-01
4.4499999999999922e+00 +8.2844517518826208e+00 +0.0000000000000000e+00 +4.4499999549664340e+00 -2.4646389270931721e-04 +0.0000000000000000e+00 +9.9999996962777404e-01
4.4999999999999920e+00 +8.2844393593740531e+00 +0.0000000000000000e+00 +4.4999999534306756e+00 -2.4923647101273712e-04 +0.0000000000000000e+00 +9.9999996894058996e-01
4.5499999999999918e+00 +8.2844268282334035e+00 +0.0000000000000000e+00 +4.5499999518603644e+00 -2.5200917623579698e-04 +0.0000000000000000e+00 +9.9999996824568671e-01
4.5999999999999917e+00 +8.2844141584542879e+00 +0.0000000000000000e+00 +4.5999999502551150e+00 -2.5478200990207986e-04 +0.0000000000000000e+00 +9.9999996754306286e-01
4.6499999999999915e+00 +8.2844013500302474e+00 +0.0000000000000000e+00 +4.6499999486145418e+00 -2.5755497352215960e-04 +0.0000000000000000e+00 +9.9999996683271697e-01
4.6999999999999913e+00 +8.2843884029547450e+00 +0.0000000000000000e+00 +4.6999999469382585e+00 -2.6032806859360084e-04 +0.0000000000000000e+00 +9.9999996611464748e-01
4.7499999999999911e+00 +8.2843753172211727e+00 +0.0000000000000000e+00 +4.7499999452258779e+00 -2.6310129660095914e-04 +0.0000000000000000e+00 +9.9999996538885294e-01
4.7999999999999909e+00 +8.2843620928228461e+00 +0.0000000000000000e+00 +4.7999999434770144e+00 -2.6587465901578078e-04 +0.0000000000000000e+00 +9.9999996465533192e-01
4.8499999999999908e+00 +8.2843487297530078e+00 +0.0000000000000000e+00 +4.8499999416912818e+00 -2.6864815729660301e-04 +0.0000000000000000e+00 +9.9999996391408286e-01
4.8999999999999906e+00 +8.2843352280048279e+00 +0.0000000000000000e+00 +4.8999999398682936e+00 -2.7142179288895386e-04 +0.0000000000000000e+00 +9.9999996316510420e-01
4.9499999999999904e+00 +8.2843215875714069e+00 +0.0000000000000000e+00 +4.9499999380076636e+00 -2.7419556722535244e-04 +0.0000000000000000e+00 +9.9999996240839450e-01
4.9999999999999902e+00 +8.2843078084457709e+00 +0.0000000000000000e+00 +4.9999999361090044e+00 -2.7696948172530863e-04 +0.0000000000000000e+00 +9.9999996164395211e-01
5.0499999999999901e+00 +8.2842938906208765e+00 +0.0000000000000000e+00 +5.0499999341719297e+00 -2.7974353779532341e-04 +0.0000000000000000e+00 +9.9999996087177556e-01
5.0999999999999899e+00 +8.2842798340896096e+00 +0.0000000000000000e+00 +5.0999999321960532e+00 -2.8251773682888857e-04 +0.0000000000000000e+00 +9.9999996009186320e-01
5.1499999999999897e+00 +8.2842656388447882e+00 +0.0000000000000000e+00 +5.1499999301809876e+00 -2.8529208020648705e-04 +0.0000000000000000e+00 +9.9999995930421348e-01
5.1999999999999895e+00 +8.2842513048791613e+00 +0.0000000000000000e+00 +5.1999999281263456e+00 -2.8806656929559262e-04 +0.0000000000000000e+00 +9.9999995850882484e-01
5.2499999999999893e+00 +8.2842368321854085e+00 +0.0000000000000000e+00 +5.2499999260317409e+00 -2.9084120545067022e-04 +0.0000000000000000e+00 +9.9999995770569561e-01
5.2999999999999892e+00 +8.2842222207561438e+00 +0.0000000000000000e+00 +5.2999999238967863e+00 -2.9361599001317577e-04 +0.0000000000000000e+00 +9.9999995689482413e-01
5.3499999999999890e+00 +8.2842074705839117e+00 +0.0000000000000000e+00 +5.3499999217210945e+00 -2.9639092431155617e-04 +0.0000000000000000e+00 +9.9999995607620884e-01
5.3999999999999888e+00 +8.2841925816611948e+00 +0.0000000000000000e+00 +5.3999999195042783e+00 -2.9916600966124941e-04 +0.0000000000000000e+00 +9.9999995524984819e-01
5.4499999999999886e+00 +8.2841775539804061e+00 +0.0000000000000000e+00 +5.4499999172459503e+00 -3.0194124736468452e-04 +0.0000000000000000e+00 +9.9999995441574041e-01
5.4999999999999885e+00 +8.2841623875338968e+00 +0.0000000000000000e+00 +5.4999999149457235e+00 -3.0471663871128169e-04 +0.0000000000000000e+00 +9.9999995357388383e-01
5.5499999999999883e+00 +8.2841470823139520e+00 +0.0000000000000000e+00 +5.5499999126032096e+00 -3.0749218497745206e-04 +0.0000000000000000e+00 +9.9999995272427677e-01
5.5999999999999881e+00 +8.2841316383127950e+00 +0.0000000000000000e+00 +5.5999999102180213e+00 -3.1026788742659795e-04 +0.0000000000000000e+00 +9.9999995186691770e-01
5.6499999999999879e+00 +8.2841160555225848e+00 +0.0000000000000000e+00 +5.6499999077897716e+00 -3.1304374730911275e-04 +0.0000000000000000e+00 +9.9999995100180483e-01
5.6999999999999877e+00 +8.2841003339354184e+00 +0.0000000000000000e+00 +5.6999999053180721e+00 -3.1581976586238090e-04 +0.0000000000000000e+00 +9.9999995012893639e-01
5.7499999999999876e+00 +8.2840844735433325e+00 +0.0000000000000000e+00 +5.7499999028025357e+00 -3.1859594431077803e-04 +0.0000000000000000e+00 +9.9999994924831070e-01
5.7999999999999874e+00 +8.2840684743383015e+00 +0.0000000000000000e+00 +5.7999999002427742e+00 -3.2137228386567077e-04 +0.0000000000000000e+00 +9.9999994835992612e-01
5.8499999999999872e+00 +8.2840523363122411e+00 +0.0000000000000000e+00 +5.8499998976383996e+00 -3.2414878572541687e-04 +0.0000000000000000e+00 +9.9999994746378085e-01
5.8999999999999870e+00 +8.2840360594570051e+00 +0.0000000000000000e+00 +5.8999998949890236e+00 -3.2692545107536526e-04 +0.0000000000000000e+00 +9.9999994655987312e-01
