# field on trajectory
# s[mm] rx[mm] ry[mm] rz[mm] bx[T] by[T] bz[T]
0.0000000000000000e+00 +8.5269999999999992e+00 +0.0000000000000000e+00 +0.0000000000000000e+00 -3.0783261827793111e-02 -5.5210096869358993e-01 +5.4749396752752288e-03
5.0000000000000003e-02 +8.5269999311226279e+00 +0.0000000000000000e+00 +4.9999999999936748e-02 -3.0783051815726020e-02 -5.5210015475151042e-01 +5.4722371636169720e-03
1.0000000000000001e-01 +8.5269997244906328e+00 +0.0000000000000000e+00 +9.9999999999493966e-02 -3.0782869970641179e-02 -5.5209975401902234e-01 +5.4695360353534325e-03
1.5000000000000002e-01 +8.5269993801041153e+00 +0.0000000000000000e+00 +1.4999999999829211e-01 -3.0782716307287700e-02 -5.5209976549173190e-01 +5.4668365300698605e-03
2.0000000000000001e-01 +8.5269988979630718e+00 +0.0000000000000000e+00 +1.9999999999595169e-01 -3.0782590840415573e-02 -5.5210018816526341e-01 +5.4641388873514487e-03
2.5000000000000000e-01 +8.5269982780673956e+00 +0.0000000000000000e+00 +2.4999999999209316e-01 -3.0782493584775812e-02 -5.5210102103526082e-01 +5.4614433467833744e-03
2.9999999999999999e-01 +8.5269975204168809e+00 +0.0000000000000000e+00 +2.9999999998633697e-01 -3.0782424555120414e-02 -5.5210226309738675e-01 +5.4587501479508296e-03
3.4999999999999998e-01 +8.5269966250112166e+00 +0.0000000000000000e+00 +3.4999999997830367e-01 -3.0782383766202299e-02 -5.5210391334732201e-01 +5.4560595304390461e-03
3.9999999999999997e-01 +8.5269955918499907e+00 +0.0000000000000000e+00 +3.9999999996761365e-01 -3.0782371232775375e-02 -5.5210597078076695e-01 +5.4533717338333398e-03
4.4999999999999996e-01 +8.5269944209326898e+00 +0.0000000000000000e+00 +4.4999999995388740e-01 -3.0782386969594525e-02 -5.5210843439344004e-01 +5.4506869977191223e-03
4.9999999999999994e-01 +8.5269931122587010e+00 +0.0000000000000000e+00 +4.9999999993674532e-01 -3.0782430991415560e-02 -5.5211130318107837e-01 +5.4480055616819515e-03
5.4999999999999993e-01 +8.5269916658273068e+00 +0.0000000000000000e+00 +5.4999999991580784e-01 -3.0782503312995282e-02 -5.5211457613943782e-01 +5.4453276653075467e-03
5.9999999999999998e-01 +8.5269900816376918e+00 +0.0000000000000000e+00 +5.9999999989069541e-01 -3.0782603949091398e-02 -5.5211825226429179e-01 +5.4426535481818276e-03
6.5000000000000002e-01 +8.5269883596889375e+00 +0.0000000000000000e+00 +6.4999999986102852e-01 -3.0782732914462613e-02 -5.5212233055143278e-01 +5.4399834498909446e-03
7.0000000000000007e-01 +8.5269864999800262e+00 +0.0000000000000000e+00 +6.9999999982642758e-01 -3.0782890223868545e-02 -5.5212680999667152e-01 +5.4373176100213126e-03
7.5000000000000011e-01 +8.5269845025098423e+00 +0.0000000000000000e+00 +7.4999999978651288e-01 -3.0783075892069762e-02 -5.5213168959583603e-01 +5.4346562681596277e-03
8.0000000000000016e-01 +8.5269823672771672e+00 +0.0000000000000000e+00 +7.9999999974090485e-01 -3.0783289933827791e-02 -5.5213696834477366e-01 +5.4319996638929197e-03
8.5000000000000020e-01 +8.5269800942806828e+00 +0.0000000000000000e+00 +8.4999999968922391e-01 -3.0783532363905085e-02 -5.5214264523934908e-01 +5.4293480368085680e-03
9.0000000000000024e-01 +8.5269776835189734e+00 +0.0000000000000000e+00 +8.9999999963109034e-01 -3.0783803197065009e-02 -5.5214871927544495e-01 +5.4267016264943346e-03
9.5000000000000029e-01 +8.5269751349905238e+00 +0.0000000000000000e+00 +9.4999999956612458e-01 -3.0784102448071889e-02 -5.5215518944896169e-01 +5.4240606725384014e-03
1.0000000000000002e+00 +8.5269724486937193e+00 +0.0000000000000000e+00 +9.9999999949394680e-01 -3.0784430131690948e-02 -5.5216205475581781e-01 +5.4214254145293862e-03
1.0500000000000003e+00 +8.5269696246268474e+00 +0.0000000000000000e+00 +1.0499999994141775e+00 -3.0784786262688386e-02 -5.5216931419194948e-01 +5.4187960920564016e-03
1.1000000000000003e+00 +8.5269666627880962e+00 +0.0000000000000000e+00 +1.0999999993264369e+00 -3.0785170855831271e-02 -5.5217696675331029e-01 +5.4161729447090553e-03
1.1500000000000004e+00 +8.5269635631755580e+00 +0.0000000000000000e+00 +1.1499999992303451e+00 -3.0785583925887625e-02 -5.5218501143587184e-01 +5.4135562120774926e-03
1.2000000000000004e+00 +8.5269603257872237e+00 +0.0000000000000000e+00 +1.1999999991255226e+00 -3.0786025487626368e-02 -5.5219344723562303e-01 +5.4109461337524438e-03
1.2500000000000004e+00 +8.5269569506209901e+00 +0.0000000000000000e+00 +1.2499999990115893e+00 -3.0786495555817341e-02 -5.5220227314856973e-01 +5.4083429493252235e-03
1.3000000000000005e+00 +8.5269534376746545e+00 +0.0000000000000000e+00 +1.2999999988881656e+00 -3.0786994145231283e-02 -5.5221148817073595e-01 +5.4057468983877864e-03
1.3500000000000005e+00 +8.5269497869459165e+00 +0.0000000000000000e+00 +1.3499999987548716e+00 -3.0787521270639880e-02 -5.5222109129816255e-01 +5.4031582205327560e-03
1.4000000000000006e+00 +8.5269459984323817e+00 +0.0000000000000000e+00 +1.3999999986113274e+00 -3.0788076946815651e-02 -5.5223108152690781e-01 +5.4005771553534343e-03
1.4500000000000006e+00 +8.5269420721315559e+00 +0.0000000000000000e+00 +1.4499999984571532e+00 -3.0788661188532088e-02 -5.5224145785304679e-01 +5.3980039424438644e-03
1.5000000000000007e+00 +8.5269380080408510e+00 +0.0000000000000000e+00 +1.4999999982919692e+00 -3.0789274010563552e-02 -5.5225221927267232e-01 +5.3954388213988342e-03
1.5500000000000007e+00 +8.5269338061575830e+00 +0.0000000000000000e+00 +1.5499999981153951e+00 -3.0789915427685274e-02 -5.5226336478189331e-01 +5.3928820318139255e-03
1.6000000000000008e+00 +8.5269294664789701e+00 +0.0000000000000000e+00 +1.5999999979270512e+00 -3.0790585454673426e-02 -5.5227489337683644e-01 +5.3903338132855342e-03
1.6500000000000008e+00 +8.5269249890021364e+00 +0.0000000000000000e+00 +1.6499999977265574e+00 -3.0791284106305033e-02 -5.5228680405364450e-01 +5.3877944054109032e-03
1.7000000000000008e+00 +8.5269203737241082e+00 +0.0000000000000000e+00 +1.6999999975135336e+00 -3.0792011397358033e-02 -5.5229909580847802e-01 +5.3852640477881622e-03
1.7500000000000009e+00 +8.5269156206418213e+00 +0.0000000000000000e+00 +1.7499999972875999e+00 -3.0792767342611216e-02 -5.5231176763751300e-01 +5.3827429800163461e-03
1.8000000000000009e+00 +8.5269107297521121e+00 +0.0000000000000000e+00 +1.7999999970483760e+00 -3.0793551956844283e-02 -5.5232481853694337e-01 +5.3802314416954329e-03
1.8500000000000010e+00 +8.5269057010517244e+00 +0.0000000000000000e+00 +1.8499999967954819e+00 -3.0794365254837777e-02 -5.5233824750297811e-01 +5.3777296724263728e-03
1.9000000000000010e+00 +8.5269005345373081e+00 +0.0000000000000000e+00 +1.8999999965285372e+00 -3.0795207251373184e-02 -5.5235205353184469e-01 +5.3752379118111229e-03
1.9500000000000011e+00 +8.5268952302054188e+00 +0.0000000000000000e+00 +1.9499999962471621e+00 -3.0796077961232775e-02 -5.5236623561978526e-01 +5.3727563994526682e-03
2.0000000000000009e+00 +8.5268897880525181e+00 +0.0000000000000000e+00 +1.9999999959509760e+00 -3.0796977399199749e-02 -5.5238079276305918e-01 +5.3702853749550694e-03
2.0500000000000007e+00 +8.5268842080749732e+00 +0.0000000000000000e+00 +2.0499999956395989e+00 -3.0797905532968788e-02 -5.5239572375481383e-01 +5.3678250683210195e-03
2.1000000000000005e+00 +8.5268784902690591e+00 +0.0000000000000000e+00 +2.0999999953126500e+00 -3.0798862141877929e-02 -5.5241102657570096e-01 +5.3653756711444494e-03
2.1500000000000004e+00 +8.5268726346309585e+00 +0.0000000000000000e+00 +2.1499999949697490e+00 -3.0799846958176332e-02 -5.5242669900325758e-01 +5.3629373654177775e-03
2.2000000000000002e+00 +8.5268666411567597e+00 +0.0000000000000000e+00 +2.1999999946105158e+00 -3.0800859714113657e-02 -5.5244273881503414e-01 +5.3605103331343645e-03
2.2500000000000000e+00 +8.5268605098424608e+00 +0.0000000000000000e+00 +2.2499999942345696e+00 -3.0801900141939943e-02 -5.5245914378859284e-01 +5.3580947562885386e-03
2.2999999999999998e+00 +8.5268542406839689e+00 +0.0000000000000000e+00 +2.2999999938415305e+00 -3.0802967973905703e-02 -5.5247591170150878e-01 +5.3556908168756077e-03
2.3499999999999996e+00 +8.5268478336771008e+00 +0.0000000000000000e+00 +2.3499999934310174e+00 -3.0804062942261783e-02 -5.5249304033136881e-01 +5.3532986968918735e-03
2.3999999999999995e+00 +8.5268412888175824e+00 +0.0000000000000000e+00 +2.3999999930026497e+00 -3.0805184779259451e-02 -5.5251052745577256e-01 +5.3509185783346593e-03
2.4499999999999993e+00 +8.5268346061010512e+00 +0.0000000000000000e+00 +2.4499999925560467e+00 -3.0806333217150254e-02 -5.5252837085232975e-01 +5.3485506432023166e-03
2.4999999999999991e+00 +8.5268277855230554e+00 +0.0000000000000000e+00 +2.4999999920908280e+00 -3.0807507988186107e-02 -5.5254656829866300e-01 +5.3461950734942530e-03
2.5499999999999989e+00 +8.5268208270790531e+00 +0.0000000000000000e+00 +2.5499999916066129e+00 -3.0808708824619176e-02 -5.5256511757240512e-01 +5.3438520512109379e-03
2.5999999999999988e+00 +8.5268137307644167e+00 +0.0000000000000000e+00 +2.5999999911030205e+00 -3.0809935458701913e-02 -5.5258401645119981e-01 +5.3415217583539301e-03
2.6499999999999986e+00 +8.5268064965744319e+00 +0.0000000000000000e+00 +2.6499999905796696e+00 -3.0811187622686986e-02 -5.5260326271270199e-01 +5.3392043769258882e-03
2.6999999999999984e+00 +8.5267991245042953e+00 +0.0000000000000000e+00 +2.6999999900361797e+00 -3.0812465048827294e-02 -5.5262285413457612e-01 +5.3369000889305932e-03
2.7499999999999982e+00 +8.5267916145491203e+00 +0.0000000000000000e+00 +2.7499999894721698e+00 -3.0813767469375922e-02 -5.5264278849449744e-01 +5.3346090763729606e-03
2.7999999999999980e+00 +8.5267839667039311e+00 +0.0000000000000000e+00 +2.7999999888872584e+00 -3.0815094616586134e-02 -5.5266306357015071e-01 +5.3323315212590672e-03
2.8499999999999979e+00 +8.5267761809636706e+00 +0.0000000000000000e+00 +2.8499999882810649e+00 -3.0816446222711295e-02 -5.5268367713923017e-01 +5.3300676055961548e-03
2.8999999999999977e+00 +8.5267682573231962e+00 +0.0000000000000000e+00 +2.8999999876532083e+00 -3.0817822020004916e-02 -5.5270462697943978e-01 +5.3278175113926629e-03
2.9499999999999975e+00 +8.5267601957772783e+00 +0.0000000000000000e+00 +2.9499999870033071e+00 -3.0819221740720597e-02 -5.5272591086849243e-01 +5.3255814206582316e-03
2.9999999999999973e+00 +8.5267519963206091e+00 +0.0000000000000000e+00 +2.9999999863309803e+00 -3.0820645117111981e-02 -5.5274752658410975e-01 +5.3233595154037298e-03
3.0499999999999972e+00 +8.5267436589477938e+00 +0.0000000000000000e+00 +3.0499999856358464e+00 -3.0822091881432759e-02 -5.5276947190402204e-01 +5.3211519776412662e-03
3.0999999999999970e+00 +8.5267351836533578e+00 +0.0000000000000000e+00 +3.0999999849175244e+00 -3.0823561765936675e-02 -5.5279174460596814e-01 +5.3189589893842147e-03
3.1499999999999968e+00 +8.5267265704317428e+00 +0.0000000000000000e+00 +3.1499999841756328e+00 -3.0825054502877404e-02 -5.5281434246769467e-01 +5.3167807326472217e-03
3.1999999999999966e+00 +8.5267178192773105e+00 +0.0000000000000000e+00 +3.1999999834097901e+00 -3.0826569824508598e-02 -5.5283726326695604e-01 +5.3146173894462268e-03
3.2499999999999964e+00 +8.5267089301843431e+00 +0.0000000000000000e+00 +3.2499999826196144e+00 -3.0828107463083895e-02 -5.5286050478151483e-01 +5.3124691417984864e-03
3.2999999999999963e+00 +8.5266999031470423e+00 +0.0000000000000000e+00 +3.2999999818047243e+00 -3.0829667150856773e-02 -5.5288406478913998e-01 +5.3103361717225864e-03
3.3499999999999961e+00 +8.5266907381595285e+00 +0.0000000000000000e+00 +3.3499999809647383e+00 -3.0831248620080676e-02 -5.5290794106760865e-01 +5.3082186612384580e-03
3.3999999999999959e+00 +8.5266814352158438e+00 +0.0000000000000000e+00 +3.3999999800992748e+00 -3.0832851603008880e-02 -5.5293213139470410e-01 +5.3061167923673979e-03
3.4499999999999957e+00 +8.5266719943099538e+00 +0.0000000000000000e+00 +3.4499999792079521e+00 -3.0834475831894484e-02 -5.5295663354821645e-01 +5.3040307471320866e-03
3.4999999999999956e+00 +8.5266624154357444e+00 +0.0000000000000000e+00 +3.4999999782903881e+00 -3.0836121038990420e-02 -5.5298144530594140e-01 +5.3019607075565989e-03
3.5499999999999954e+00 +8.5266526985870250e+00 +0.0000000000000000e+00 +3.5499999773462010e+00 -3.0837786956549412e-02 -5.5300656444568241e-01 +5.2999068556664310e-03
3.5999999999999952e+00 +8.5266428437575286e+00 +0.0000000000000000e+00 +3.5999999763750083e+00 -3.0839473316823962e-02 -5.5303198874524739e-01 +5.2978693734885189e-03
3.6499999999999950e+00 +8.5266328509409117e+00 +0.0000000000000000e+00 +3.6499999753764287e+00 -3.0841179852066282e-02 -5.5305771598244968e-01 +5.2958484430512430e-03
3.6999999999999948e+00 +8.5266227201307565e+00 +0.0000000000000000e+00 +3.6999999743500798e+00 -3.0842906294528318e-02 -5.5308374393510906e-01 +5.2938442463844526e-03
3.7499999999999947e+00 +8.5266124513205668e+00 +0.0000000000000000e+00 +3.7499999732955791e+00 -3.0844652376461688e-02 -5.5311007038104931e-01 +5.2918569655194900e-03
3.7999999999999945e+00 +8.5266020445037753e+00 +0.0000000000000000e+00 +3.7999999722125448e+00 -3.0846417830117743e-02 -5.5313669309810010e-01 +5.2898867824891990e-03
3.8499999999999943e+00 +8.5265914996737386e+00 +0.0000000000000000e+00 +3.8499999711005946e+00 -3.0848202387747371e-02 -5.5316360986409441e-01 +5.2879338793279506e-03
3.8999999999999941e+00 +8.5265808168237420e+00 +0.0000000000000000e+00 +3.8999999699593459e+00 -3.0850005781601152e-02 -5.5319081845687057e-01 +5.2859984380716485e-03
3.9499999999999940e+00 +8.5265699959469945e+00 +0.0000000000000000e+00 +3.9499999687884162e+00 -3.0851827743929233e-02 -5.5321831665427057e-01 +5.2840806407577568e-03
3.9999999999999938e+00 +8.5265590370366375e+00 +0.0000000000000000e+00 +3.9999999675874229e+00 -3.0853668006981343e-02 -5.5324610223414028e-01 +5.2821806694253156e-03
4.0499999999999936e+00 +8.5265479400857380e+00 +0.0000000000000000e+00 +4.0499999663559842e+00 -3.0855526324808064e-02 -5.5327417287004710e-01 +5.2802986855648923e-03
4.0999999999999934e+00 +8.5265367050872918e+00 +0.0000000000000000e+00 +4.0999999650937164e+00 -3.0857402538665767e-02 -5.5330252581843298e-01 +5.2784347684680091e-03
4.1499999999999932e+00 +8.5265253320342236e+00 +0.0000000000000000e+00 +4.1499999638002372e+00 -3.0859296511613388e-02 -5.5333115823145962e-01 +5.2765889768769643e-03
4.1999999999999931e+00 +8.5265138209193907e+00 +0.0000000000000000e+00 +4.1999999624751636e+00 -3.0861208106711207e-02 -5.5336006726128972e-01 +5.2747613695349228e-03
4.2499999999999929e+00 +8.5265021717355793e+00 +0.0000000000000000e+00 +4.2499999611181130e+00 -3.0863137187020873e-02 -5.5338925006008732e-01 +5.2729520051858986e-03
4.2999999999999927e+00 +8.5264903844755100e+00 +0.0000000000000000e+00 +4.2999999597287024e+00 -3.0865083615605464e-02 -5.5341870378001812e-01 +5.2711609425747574e-03
4.3499999999999925e+00 +8.5264784591318321e+00 +0.0000000000000000e+00 +4.3499999583065483e+00 -3.0867047255529450e-02 -5.5344842557324658e-01 +5.2693882404472011e-03
4.3999999999999924e+00 +8.5264663956971312e+00 +0.0000000000000000e+00 +4.3999999568512678e+00 -3.0869027969858808e-02 -5.5347841259193942e-01 +5.2676339575497728e-03
4.4499999999999922e+00 +8.5264541941639234e+00 +0.0000000000000000e+00 +4.4499999553624781e+00 -3.0871025621660941e-02 -5.5350866198826210e-01 +5.2658981526298478e-03
4.4999999999999920e+00 +8.5264418545246627e+00 +0.0000000000000000e+00 +4.4999999538397955e+00 -3.0873040074004852e-02 -5.5353917091438032e-01 +5.2641808844356248e-03
4.5499999999999918e+00 +8.5264293767717376e+00 +0.0000000000000000e+00 +4.5499999522828363e+00 -3.0875071189961047e-02 -5.5356993652245934e-01 +5.2624822117161218e-03
4.5999999999999917e+00 +8.5264167608974706e+00 +0.0000000000000000e+00 +4.5999999506912177e+00 -3.0877118832601618e-02 -5.5360095596466274e-01 +5.2608021932211719e-03
4.6499999999999915e+00 +8.5264040068941220e+00 +0.0000000000000000e+00 +4.6499999490645560e+00 -3.0879182865000278e-02 -5.5363222639315401e-01 +5.2591408877014174e-03
4.6999999999999913e+00 +8.5263911147538920e+00 +0.0000000000000000e+00 +4.6999999474024676e+00 -3.0881263150232399e-02 -5.5366374496009396e-01 +5.2574983539083004e-03
4.7499999999999911e+00 +8.5263780844689148e+00 +0.0000000000000000e+00 +4.7499999457045687e+00 -3.0883359551375000e-02 -5.5369550881764296e-01 +5.2558746505940654e-03
4.7999999999999909e+00 +8.5263649160312642e+00 +0.0000000000000000e+00 +4.7999999439704757e+00 -3.0885471931506810e-02 -5.5372751511795815e-01 +5.2542698365117477e-03
4.8499999999999908e+00 +8.5263516094329557e+00 +0.0000000000000000e+00 +4.8499999421998039e+00 -3.0887600153708297e-02 -5.5375976101319546e-01 +5.2526839704151659e-03
4.8999999999999906e+00 +8.5263381646659440e+00 +0.0000000000000000e+00 +4.8999999403921706e+00 -3.0889744081061692e-02 -5.5379224365550717e-01 +5.2511171110589229e-03
4.9499999999999904e+00 +8.5263245817221236e+00 +0.0000000000000000e+00 +4.9499999385471911e+00 -3.0891903576651003e-02 -5.5382496019704308e-01 +5.2495693171983908e-03
4.9999999999999902e+00 +8.5263108605933322e+00 +0.0000000000000000e+00 +4.9999999366644818e+00 -3.0894078503562086e-02 -5.5385790778994970e-01 +5.2480406475897178e-03
5.0499999999999901e+00 +8.5262970012713506e+00 +0.0000000000000000e+00 +5.0499999347436582e+00 -3.0896268724882645e-02 -5.5389108358637018e-01 +5.2465311609898114e-03
5.0999999999999899e+00 +8.5262830037478992e+00 +0.0000000000000000e+00 +5.0999999327843355e+00 -3.0898474103702257e-02 -5.5392448473844358e-01 +5.2450409161563429e-03
5.1499999999999897e+00 +8.5262688680146450e+00 +0.0000000000000000e+00 +5.1499999307861302e+00 -3.0900694503112423e-02 -5.5395810839830528e-01 +5.2435699718477282e-03
5.1999999999999895e+00 +8.5262545940631984e+00 +0.0000000000000000e+00 +5.1999999287486576e+00 -3.0902929786206589e-02 -5.5399195171808568e-01 +5.2421183868231356e-03
5.2499999999999893e+00 +8.5262401818851146e+00 +0.0000000000000000e+00 +5.2499999266715331e+00 -3.0905179816080156e-02 -5.5402601184991096e-01 +5.2406862198424772e-03
5.2999999999999892e+00 +8.5262256314718972e+00 +0.0000000000000000e+00 +5.2999999245543723e+00 -3.0907444455830557e-02 -5.5406028594590240e-01 +5.2392735296663924e-03
5.3499999999999890e+00 +8.5262109428149930e+00 +0.0000000000000000e+00 +5.3499999223967896e+00 -3.0909723568557250e-02 -5.5409477115817551e-01 +5.2378803750562598e-03
5.3999999999999888e+00 +8.5261961159057993e+00 +0.0000000000000000e+00 +5.3999999201984012e+00 -3.0912017017361761e-02 -5.5412946463884039e-01 +5.2365068147741780e-03
5.4499999999999886e+00 +8.5261811507356580e+00 +0.0000000000000000e+00 +5.4499999179588219e+00 -3.0914324665347690e-02 -5.5416436354000165e-01 +5.2351529075829652e-03
5.4999999999999885e+00 +8.5261660472958631e+00 +0.0000000000000000e+00 +5.4999999156776669e+00 -3.0916646375620787e-02 -5.5419946501375750e-01 +5.2338187122461539e-03
5.5499999999999883e+00 +8.5261508055776574e+00 +0.0000000000000000e+00 +5.5499999133545508e+00 -3.0918982011288957e-02 -5.5423476621219958e-01 +5.2325042875279830e-03
5.5999999999999881e+00 +8.5261354255722317e+00 +0.0000000000000000e+00 +5.5999999109890890e+00 -3.0921331435462263e-02 -5.5427026428741288e-01 +5.2312096921933978e-03
5.6499999999999879e+00 +8.5261199072707292e+00 +0.0000000000000000e+00 +5.6499999085808961e+00 -3.0923694511253021e-02 -5.5430595639147551e-01 +5.2299349850080321e-03
5.6999999999999877e+00 +8.5261042506642433e+00 +0.0000000000000000e+00 +5.6999999061295865e+00 -3.0926071101775768e-02 -5.5434183967645800e-01 +5.2286802247382214e-03
5.7499999999999876e+00 +8.5260884557438228e+00 +0.0000000000000000e+00 +5.7499999036347758e+00 -3.0928461070147316e-02 -5.5437791129442338e-01 +5.2274454701509779e-03
5.7999999999999874e+00 +8.5260725225004670e+00 +0.0000000000000000e+00 +5.7999999010960774e+00 -3.0930864279486801e-02 -5.5441416839742685e-01 +5.2262307800140023e-03
5.8499999999999872e+00 +8.5260564509251306e+00 +0.0000000000000000e+00 +5.8499998985131061e+00 -3.0933280592915689e-02 -5.5445060813751523e-01 +5.2250362130956580e-03
5.8999999999999870e+00 +8.5260402410087206e+00 +0.0000000000000000e+00 +5.8999998958854762e+00 -3.0935709873557801e-02 -5.5448722766672709e-01 +5.2238618281649895e-03
