# field on trajectory
# s[mm] rx[mm] ry[mm] rz[mm] bx[T] by[T] bz[T]
0.0000000000000000e+00 +8.5980000000000008e+00 +0.0000000000000000e+00 +0.0000000000000000e+00 -2.7895760729136295e-02 -5.2332428578475254e-01 +5.0917687590106312e-03
5.0000000000000003e-02 +8.5979999309633701e+00 +0.0000000000000000e+00 +4.9999999999936449e-02 -2.7895961266298775e-02 -5.2332415558083389e-01 +5.0919734207258843e-03
1.0000000000000001e-01 +8.5979997238534853e+00 +0.0000000000000000e+00 +9.9999999999491621e-02 -2.7896180489109960e-02 -5.2332438257054437e-01 +5.0921802177077468e-03
1.5000000000000002e-01 +8.5979993786702860e+00 +0.0000000000000000e+00 +1.4999999999828423e-01 -2.7896418360789363e-02 -5.2332496599259037e-01 +5.0923891698399469e-03
2.0000000000000001e-01 +8.5979988954136193e+00 +0.0000000000000000e+00 +1.9999999999593299e-01 -2.7896674844557656e-02 -5.2332590508569488e-01 +5.0926002970063935e-03
2.5000000000000000e-01 +8.5979982740832366e+00 +0.0000000000000000e+00 +2.4999999999205658e-01 -2.7896949903636611e-02 -5.2332719908859771e-01 +5.0928136190911844e-03
2.9999999999999999e-01 +8.5979975146787968e+00 +0.0000000000000000e+00 +2.9999999998627375e-01 -2.7897243501249083e-02 -5.2332884724005424e-01 +5.0930291559786144e-03
3.4999999999999998e-01 +8.5979966171998647e+00 +0.0000000000000000e+00 +3.4999999997820319e-01 -2.7897555600618854e-02 -5.2333084877883673e-01 +5.0932469275531611e-03
3.9999999999999997e-01 +8.5979955816459110e+00 +0.0000000000000000e+00 +3.9999999996746360e-01 -2.7897886164970746e-02 -5.2333320294373353e-01 +5.0934669536995044e-03
4.4999999999999996e-01 +8.5979944080163175e+00 +0.0000000000000000e+00 +4.4999999995367368e-01 -2.7898235157530399e-02 -5.2333590897354876e-01 +5.0936892543025167e-03
4.9999999999999994e-01 +8.5979930963103683e+00 +0.0000000000000000e+00 +4.9999999993645206e-01 -2.7898602541524341e-02 -5.2333896610710295e-01 +5.0939138492472804e-03
5.4999999999999993e-01 +8.5979916465272570e+00 +0.0000000000000000e+00 +5.4999999991541748e-01 -2.7898988280179893e-02 -5.2334237358323232e-01 +5.0941407584190667e-03
5.9999999999999998e-01 +8.5979900586660847e+00 +0.0000000000000000e+00 +5.9999999989018860e-01 -2.7899392336725084e-02 -5.2334613064078961e-01 +5.0943700017033649e-03
6.5000000000000002e-01 +8.5979883327258602e+00 +0.0000000000000000e+00 +6.4999999986038404e-01 -2.7899814674388668e-02 -5.2335023651864265e-01 +5.0946015989858651e-03
7.0000000000000007e-01 +8.5979864687055017e+00 +0.0000000000000000e+00 +6.9999999982562244e-01 -2.7900255256400018e-02 -5.2335469045567606e-01 +5.0948355701524711e-03
7.5000000000000011e-01 +8.5979844666038332e+00 +0.0000000000000000e+00 +7.4999999978552245e-01 -2.7900714045989098e-02 -5.2335949169078955e-01 +5.0950719350892956e-03
8.0000000000000016e-01 +8.5979823264195865e+00 +0.0000000000000000e+00 +7.9999999973970271e-01 -2.7901191006386408e-02 -5.2336463946289868e-01 +5.0953107136826733e-03
8.5000000000000020e-01 +8.5979800481514044e+00 +0.0000000000000000e+00 +8.4999999968778173e-01 -2.7901686100822928e-02 -5.2337013301093516e-01 +5.0955519258191516e-03
9.0000000000000024e-01 +8.5979776317978391e+00 +0.0000000000000000e+00 +8.9999999962937816e-01 -2.7902199292530065e-02 -5.2337597157384586e-01 +5.0957955913854989e-03
9.5000000000000029e-01 +8.5979750773573489e+00 +0.0000000000000000e+00 +9.4999999956411063e-01 -2.7902730544739619e-02 -5.2338215439059355e-01 +5.0960417302687092e-03
1.0000000000000002e+00 +8.5979723848283012e+00 +0.0000000000000000e+00 +9.9999999949159757e-01 -2.7903279820683705e-02 -5.2338868070015621e-01 +5.0962903623560001e-03
1.0500000000000003e+00 +8.5979695542089765e+00 +0.0000000000000000e+00 +1.0499999994114577e+00 -2.7903847083594707e-02 -5.2339554974152724e-01 +5.0965415075348167e-03
1.1000000000000003e+00 +8.5979665854975611e+00 +0.0000000000000000e+00 +1.0999999993233094e+00 -2.7904432296705261e-02 -5.2340276075371617e-01 +5.0967951856928373e-03
1.1500000000000004e+00 +8.5979634786921526e+00 +0.0000000000000000e+00 +1.1499999992267711e+00 -2.7905035423248147e-02 -5.2341031297574692e-01 +5.0970514167179700e-03
1.2000000000000004e+00 +8.5979602337907597e+00 +0.0000000000000000e+00 +1.1999999991214614e+00 -2.7905656426456271e-02 -5.2341820564665931e-01 +5.0973102204983608e-03
1.2500000000000004e+00 +8.5979568507912987e+00 +0.0000000000000000e+00 +1.2499999990069985e+00 -2.7906295269562613e-02 -5.2342643800550848e-01 +5.0975716169223903e-03
1.3000000000000005e+00 +8.5979533296915971e+00 +0.0000000000000000e+00 +1.2999999988830011e+00 -2.7906951915800192e-02 -5.2343500929136433e-01 +5.0978356258786885e-03
1.3500000000000005e+00 +8.5979496704893954e+00 +0.0000000000000000e+00 +1.3499999987490876e+00 -2.7907626328401939e-02 -5.2344391874331242e-01 +5.0981022672561159e-03
1.4000000000000006e+00 +8.5979458731823417e+00 +0.0000000000000000e+00 +1.3999999986048763e+00 -2.7908318470600761e-02 -5.2345316560045263e-01 +5.0983715609437897e-03
1.4500000000000006e+00 +8.5979419377679971e+00 +0.0000000000000000e+00 +1.4499999984499856e+00 -2.7909028305629371e-02 -5.2346274910190105e-01 +5.0986435268310657e-03
1.5000000000000007e+00 +8.5979378642438320e+00 +0.0000000000000000e+00 +1.4999999982840337e+00 -2.7909755796720333e-02 -5.2347266848678742e-01 +5.0989181848075599e-03
1.5500000000000007e+00 +8.5979336526072299e+00 +0.0000000000000000e+00 +1.5499999981066390e+00 -2.7910500907105958e-02 -5.2348292299425769e-01 +5.0991955547631381e-03
1.6000000000000008e+00 +8.5979293028554853e+00 +0.0000000000000000e+00 +1.5999999979174198e+00 -2.7911263600018235e-02 -5.2349351186347126e-01 +5.0994756565879160e-03
1.6500000000000008e+00 +8.5979248149858059e+00 +0.0000000000000000e+00 +1.6499999977159940e+00 -2.7912043838688859e-02 -5.2350443433360361e-01 +5.0997585101722736e-03
1.7000000000000008e+00 +8.5979201889953085e+00 +0.0000000000000000e+00 +1.6999999975019802e+00 -2.7912841586349105e-02 -5.2351568964384465e-01 +5.1000441354068539e-03
1.7500000000000009e+00 +8.5979154248810232e+00 +0.0000000000000000e+00 +1.7499999972749964e+00 -2.7913656806229776e-02 -5.2352727703339852e-01 +5.1003325521825548e-03
1.8000000000000009e+00 +8.5979105226398929e+00 +0.0000000000000000e+00 +1.7999999970346607e+00 -2.7914489461561227e-02 -5.2353919574148455e-01 +5.1006237803905476e-03
1.8500000000000010e+00 +8.5979054822687733e+00 +0.0000000000000000e+00 +1.8499999967805913e+00 -2.7915339515573213e-02 -5.2355144500733641e-01 +5.1009178399222688e-03
1.9000000000000010e+00 +8.5979003037644333e+00 +0.0000000000000000e+00 +1.8999999965124064e+00 -2.7916206931494901e-02 -5.2356402407020208e-01 +5.1012147506694248e-03
1.9500000000000011e+00 +8.5978949871235546e+00 +0.0000000000000000e+00 +1.9499999962297236e+00 -2.7917091672554805e-02 -5.2357693216934464e-01 +5.1015145325239986e-03
2.0000000000000009e+00 +8.5978895323427302e+00 +0.0000000000000000e+00 +1.9999999959321615e+00 -2.7917993701980760e-02 -5.2359016854404117e-01 +5.1018172053782472e-03
2.0500000000000007e+00 +8.5978839394184678e+00 +0.0000000000000000e+00 +2.0499999956193378e+00 -2.7918912979559406e-02 -5.2360373222586876e-01 +5.1021227907317585e-03
2.1000000000000005e+00 +8.5978782083471899e+00 +0.0000000000000000e+00 +2.0999999952908701e+00 -2.7919849451315655e-02 -5.2361762141555845e-01 +5.1024313165126149e-03
2.1500000000000004e+00 +8.5978723391252316e+00 +0.0000000000000000e+00 +2.1499999949463766e+00 -2.7920803059835079e-02 -5.2363183410613878e-01 +5.1027428122562123e-03
2.2000000000000002e+00 +8.5978663317488433e+00 +0.0000000000000000e+00 +2.1999999945854749e+00 -2.7921773747704434e-02 -5.2364636829064926e-01 +5.1030573074982008e-03
2.2500000000000000e+00 +8.5978601862141897e+00 +0.0000000000000000e+00 +2.2499999942077831e+00 -2.7922761457511842e-02 -5.2366122196213982e-01 +5.1033748317744999e-03
2.2999999999999998e+00 +8.5978539025173522e+00 +0.0000000000000000e+00 +2.2999999938129188e+00 -2.7923766131846744e-02 -5.2367639311367131e-01 +5.1036954146212827e-03
2.3499999999999996e+00 +8.5978474806543286e+00 +0.0000000000000000e+00 +2.3499999934004996e+00 -2.7924787713300078e-02 -5.2369187973831521e-01 +5.1040190855749876e-03
2.3999999999999995e+00 +8.5978409206210333e+00 +0.0000000000000000e+00 +2.3999999929701432e+00 -2.7925826144464230e-02 -5.2370767982915245e-01 +5.1043458741723115e-03
2.4499999999999993e+00 +8.5978342224132973e+00 +0.0000000000000000e+00 +2.4499999925214673e+00 -2.7926881367933226e-02 -5.2372379137927416e-01 +5.1046758099502244e-03
2.4999999999999991e+00 +8.5978273860268697e+00 +0.0000000000000000e+00 +2.4999999920540894e+00 -2.7927953326302702e-02 -5.2374021238178092e-01 +5.1050089224459489e-03
2.5499999999999989e+00 +8.5978204114574179e+00 +0.0000000000000000e+00 +2.5499999915676272e+00 -2.7929041962170043e-02 -5.2375694082978408e-01 +5.1053452411969867e-03
2.5999999999999988e+00 +8.5978132987005296e+00 +0.0000000000000000e+00 +2.5999999910616980e+00 -2.7930147218134360e-02 -5.2377397471640208e-01 +5.1056847957410964e-03
2.6499999999999986e+00 +8.5978060477517086e+00 +0.0000000000000000e+00 +2.6499999905359193e+00 -2.7931269036796651e-02 -5.2379131203476426e-01 +5.1060276156163044e-03
2.6999999999999984e+00 +8.5977986586063828e+00 +0.0000000000000000e+00 +2.6999999899899088e+00 -2.7932407360759855e-02 -5.2380895077800715e-01 +5.1063737303609184e-03
2.7499999999999982e+00 +8.5977911312598980e+00 +0.0000000000000000e+00 +2.7499999894232832e+00 -2.7933562132628858e-02 -5.2382688893927687e-01 +5.1067231695135027e-03
2.7999999999999980e+00 +8.5977834657075203e+00 +0.0000000000000000e+00 +2.7999999888356601e+00 -2.7934733295010613e-02 -5.2384512451172738e-01 +5.1070759626128965e-03
2.8499999999999979e+00 +8.5977756619444392e+00 +0.0000000000000000e+00 +2.8499999882266569e+00 -2.7935920790514185e-02 -5.2386365548852065e-01 +5.1074321391982157e-03
2.8999999999999977e+00 +8.5977677199657663e+00 +0.0000000000000000e+00 +2.8999999875958906e+00 -2.7937124561750855e-02 -5.2388247986282699e-01 +5.1077917288088427e-03
2.9499999999999975e+00 +8.5977596397665348e+00 +0.0000000000000000e+00 +2.9499999869429785e+00 -2.7938344551334131e-02 -5.2390159562782357e-01 +5.1081547609844362e-03
2.9999999999999973e+00 +8.5977514213417017e+00 +0.0000000000000000e+00 +2.9999999862675373e+00 -2.7939580701879876e-02 -5.2392100077669546e-01 +5.1085212652649354e-03
3.0499999999999972e+00 +8.5977430646861457e+00 +0.0000000000000000e+00 +3.0499999855691846e+00 -2.7940832956006311e-02 -5.2394069330263437e-01 +5.1088912711905439e-03
3.0999999999999970e+00 +8.5977345697946728e+00 +0.0000000000000000e+00 +3.0999999848475368e+00 -2.7942101256334163e-02 -5.2396067119883927e-01 +5.1092648083017524e-03
3.1499999999999968e+00 +8.5977259366620125e+00 +0.0000000000000000e+00 +3.1499999841022110e+00 -2.7943385545486640e-02 -5.2398093245851585e-01 +5.1096419061393266e-03
3.1999999999999966e+00 +8.5977171652828179e+00 +0.0000000000000000e+00 +3.1999999833328241e+00 -2.7944685766089584e-02 -5.2400147507487604e-01 +5.1100225942443097e-03
3.2499999999999964e+00 +8.5977082556516695e+00 +0.0000000000000000e+00 +3.2499999825389927e+00 -2.7946001860771494e-02 -5.2402229704113779e-01 +5.1104069021580276e-03
3.2999999999999963e+00 +8.5976992077630729e+00 +0.0000000000000000e+00 +3.2999999817203340e+00 -2.7947333772163602e-02 -5.2404339635052566e-01 +5.1107948594220857e-03
3.3499999999999961e+00 +8.5976900216114629e+00 +0.0000000000000000e+00 +3.3499999808764644e+00 -2.7948681442899907e-02 -5.2406477099626936e-01 +5.1111864955783702e-03
3.3999999999999959e+00 +8.5976806971911994e+00 +0.0000000000000000e+00 +3.3999999800070002e+00 -2.7950044815617331e-02 -5.2408641897160391e-01 +5.1115818401690528e-03
3.4499999999999957e+00 +8.5976712344965716e+00 +0.0000000000000000e+00 +3.4499999791115585e+00 -2.7951423832955700e-02 -5.2410833826977044e-01 +5.1119809227365880e-03
3.4999999999999956e+00 +8.5976616335217955e+00 +0.0000000000000000e+00 +3.4999999781897553e+00 -2.7952818437557855e-02 -5.2413052688401474e-01 +5.1123837728237146e-03
3.5499999999999954e+00 +8.5976518942610181e+00 +0.0000000000000000e+00 +3.5499999772412072e+00 -2.7954228572069716e-02 -5.2415298280758693e-01 +5.1127904199734621e-03
3.5999999999999952e+00 +8.5976420167083152e+00 +0.0000000000000000e+00 +3.5999999762655306e+00 -2.7955654179140317e-02 -5.2417570403374203e-01 +5.1132008937291411e-03
3.6499999999999950e+00 +8.5976320008576899e+00 +0.0000000000000000e+00 +3.6499999752623422e+00 -2.7957095201421936e-02 -5.2419868855573992e-01 +5.1136152236343508e-03
3.6999999999999948e+00 +8.5976218467030794e+00 +0.0000000000000000e+00 +3.6999999742312575e+00 -2.7958551581570099e-02 -5.2422193436684394e-01 +5.1140334392329847e-03
3.7499999999999947e+00 +8.5976115542383518e+00 +0.0000000000000000e+00 +3.7499999731718932e+00 -2.7960023262243693e-02 -5.2424543946032176e-01 +5.1144555700692197e-03
3.7999999999999945e+00 +8.5976011234573040e+00 +0.0000000000000000e+00 +3.7999999720838651e+00 -2.7961510186105008e-02 -5.2426920182944370e-01 +5.1148816456875320e-03
3.8499999999999943e+00 +8.5975905543536673e+00 +0.0000000000000000e+00 +3.8499999709667896e+00 -2.7963012295819829e-02 -5.2429321946748497e-01 +5.1153116956326799e-03
3.8999999999999941e+00 +8.5975798469211053e+00 +0.0000000000000000e+00 +3.8999999698202825e+00 -2.7964529534057470e-02 -5.2431749036772335e-01 +5.1157457494497216e-03
3.9499999999999940e+00 +8.5975690011532144e+00 +0.0000000000000000e+00 +3.9499999686439597e+00 -2.7966061843490889e-02 -5.2434201252343893e-01 +5.1161838366840118e-03
3.9999999999999938e+00 +8.5975580170435233e+00 +0.0000000000000000e+00 +3.9999999674374371e+00 -2.7967609166796682e-02 -5.2436678392791547e-01 +5.1166259868811901e-03
4.0499999999999936e+00 +8.5975468945854985e+00 +0.0000000000000000e+00 +4.0499999662003301e+00 -2.7969171437001211e-02 -5.2439180247177242e-01 +5.1170722186397784e-03
4.0999999999999934e+00 +8.5975356337725390e+00 +0.0000000000000000e+00 +4.0999999649322554e+00 -2.7970748548516951e-02 -5.2441706563496426e-01 +5.1175225067687990e-03
4.1499999999999932e+00 +8.5975242345979783e+00 +0.0000000000000000e+00 +4.1499999636328280e+00 -2.7972340386102367e-02 -5.2444257079478229e-01 +5.1179768151300622e-03
4.1999999999999931e+00 +8.5975126970550875e+00 +0.0000000000000000e+00 +4.1999999623016633e+00 -2.7973946834515546e-02 -5.2446831532851934e-01 +5.1184351075856211e-03
4.2499999999999929e+00 +8.5975010211370755e+00 +0.0000000000000000e+00 +4.2499999609383767e+00 -2.7975567778514149e-02 -5.2449429661347124e-01 +5.1188973479977772e-03
4.2999999999999927e+00 +8.5974892068370874e+00 +0.0000000000000000e+00 +4.2999999595425837e+00 -2.7977203102855348e-02 -5.2452051202693550e-01 +5.1193635002290804e-03
4.3499999999999925e+00 +8.5974772541482061e+00 +0.0000000000000000e+00 +4.3499999581138997e+00 -2.7978852692295778e-02 -5.2454695894621184e-01 +5.1198335281423214e-03
4.3999999999999924e+00 +8.5974651630634540e+00 +0.0000000000000000e+00 +4.3999999566519401e+00 -2.7980516431591478e-02 -5.2457363474860164e-01 +5.1203073956005395e-03
4.4499999999999922e+00 +8.5974529335757932e+00 +0.0000000000000000e+00 +4.4499999551563203e+00 -2.7982194205497815e-02 -5.2460053681140706e-01 +5.1207850664670160e-03
4.4999999999999920e+00 +8.5974405656781272e+00 +0.0000000000000000e+00 +4.4999999536266557e+00 -2.7983885898769451e-02 -5.2462766251193260e-01 +5.1212665046052770e-03
4.5499999999999918e+00 +8.5974280593632972e+00 +0.0000000000000000e+00 +4.5499999520625609e+00 -2.7985591396160223e-02 -5.2465500922748298e-01 +5.1217516738790922e-03
4.5999999999999917e+00 +8.5974154146240895e+00 +0.0000000000000000e+00 +4.5999999504636504e+00 -2.7987310582423205e-02 -5.2468257433536458e-01 +5.1222405381524767e-03
4.6499999999999915e+00 +8.5974026314532317e+00 +0.0000000000000000e+00 +4.6499999488295396e+00 -2.7989043342310508e-02 -5.2471035521288345e-01 +5.1227330612896816e-03
4.6999999999999913e+00 +8.5973897098433945e+00 +0.0000000000000000e+00 +4.6999999471598439e+00 -2.7990789560573305e-02 -5.2473834923734652e-01 +5.1232292071552044e-03
4.7499999999999911e+00 +8.5973766497871917e+00 +0.0000000000000000e+00 +4.7499999454541770e+00 -2.7992549121961734e-02 -5.2476655378606096e-01 +5.1237289396137784e-03
4.7999999999999909e+00 +8.5973634512771824e+00 +0.0000000000000000e+00 +4.7999999437121543e+00 -2.7994321911224911e-02 -5.2479496623633382e-01 +5.1242322225303867e-03
4.8499999999999908e+00 +8.5973501143058684e+00 +0.0000000000000000e+00 +4.8499999419333903e+00 -2.7996107813110745e-02 -5.2482358396547224e-01 +5.1247390197702459e-03
4.8999999999999906e+00 +8.5973366388657020e+00 +0.0000000000000000e+00 +4.8999999401174996e+00 -2.7997906712366016e-02 -5.2485240435078251e-01 +5.1252492951988152e-03
4.9499999999999904e+00 +8.5973230249490786e+00 +0.0000000000000000e+00 +4.9499999382640967e+00 -2.7999718493736187e-02 -5.2488142476957023e-01 +5.1257630126817881e-03
4.9999999999999902e+00 +8.5973092725483404e+00 +0.0000000000000000e+00 +4.9999999363727952e+00 -2.8001543041965449e-02 -5.2491064259914078e-01 +5.1262801360851037e-03
5.0499999999999901e+00 +8.5972953816557798e+00 +0.0000000000000000e+00 +5.0499999344432105e+00 -2.8003380241796601e-02 -5.2494005521679721e-01 +5.1268006292749307e-03
5.0999999999999899e+00 +8.5972813522636375e+00 +0.0000000000000000e+00 +5.0999999324749563e+00 -2.8005229977971009e-02 -5.2496965999984302e-01 +5.1273244561176852e-03
5.1499999999999897e+00 +8.5972671843641013e+00 +0.0000000000000000e+00 +5.1499999304676463e+00 -2.8007092135228558e-02 -5.2499945432557893e-01 +5.1278515804800149e-03
5.1999999999999895e+00 +8.5972528779493125e+00 +0.0000000000000000e+00 +5.1999999284208949e+00 -2.8008966598307570e-02 -5.2502943557130455e-01 +5.1283819662288040e-03
5.2499999999999893e+00 +8.5972384330113591e+00 +0.0000000000000000e+00 +5.2499999263343167e+00 -2.8010853251944755e-02 -5.2505960111431682e-01 +5.1289155772311721e-03
5.2999999999999892e+00 +8.5972238495422832e+00 +0.0000000000000000e+00 +5.2999999242075253e+00 -2.8012751980875154e-02 -5.2508994833191180e-01 +5.1294523773544789e-03
5.3499999999999890e+00 +8.5972091275340770e+00 +0.0000000000000000e+00 +5.3499999220401344e+00 -2.8014662669832085e-02 -5.2512047460138211e-01 +5.1299923304663113e-03
5.3999999999999888e+00 +8.5971942669786880e+00 +0.0000000000000000e+00 +5.3999999198317576e+00 -2.8016585203547068e-02 -5.2515117730001837e-01 +5.1305354004345010e-03
5.4499999999999886e+00 +8.5971792678680163e+00 +0.0000000000000000e+00 +5.4499999175820086e+00 -2.8018519466749776e-02 -5.2518205380510796e-01 +5.1310815511271058e-03
5.4999999999999885e+00 +8.5971641301939155e+00 +0.0000000000000000e+00 +5.4999999152905010e+00 -2.8020465344167959e-02 -5.2521310149393619e-01 +5.1316307464124161e-03
5.5499999999999883e+00 +8.5971488539481928e+00 +0.0000000000000000e+00 +5.5499999129568485e+00 -2.8022422720527428e-02 -5.2524431774378411e-01 +5.1321829501589627e-03
5.5999999999999881e+00 +8.5971334391226133e+00 +0.0000000000000000e+00 +5.5999999105806637e+00 -2.8024391480551938e-02 -5.2527569993192980e-01 +5.1327381262355025e-03
5.6499999999999879e+00 +8.5971178857088972e+00 +0.0000000000000000e+00 +5.6499999081615613e+00 -2.8026371508963158e-02 -5.2530724543564833e-01 +5.1332962385110294e-03
5.6999999999999877e+00 +8.5971021936987206e+00 +0.0000000000000000e+00 +5.6999999056991530e+00 -2.8028362690480660e-02 -5.2533895163220989e-01 +5.1338572508547618e-03
5.7499999999999876e+00 +8.5970863630837204e+00 +0.0000000000000000e+00 +5.7499999031930535e+00 -2.8030364909821727e-02 -5.2537081589888157e-01 +5.1344211271361602e-03
5.7999999999999874e+00 +8.5970703938554891e+00 +0.0000000000000000e+00 +5.7999999006428746e+00 -2.8032378051701435e-02 -5.2540283561292567e-01 +5.1349878312249003e-03
5.8499999999999872e+00 +8.5970542860055783e+00 +0.0000000000000000e+00 +5.8499998980482300e+00 -2.8034402000832511e-02 -5.2543500815160005e-01 +5.1355573269909038e-03
5.8999999999999870e+00 +8.5970380395255006e+00 +0.0000000000000000e+00 +5.8999998954087332e+00 -2.8036436641925320e-02 -5.2546733089215802e-01 +5.1361295783043121e-03
