# field on trajectory
# s[mm] rx[mm] ry[mm] rz[mm] bx[T] by[T] bz[T]
0.0000000000000000e+00 +8.5980000000000008e+00 +0.0000000000000000e+00 +0.0000000000000000e+00 -2.7655377059522562e-02 -5.2252040421713897e-01 +5.0560099531751631e-03
5.0000000000000003e-02 +8.5979999310697153e+00 +0.0000000000000000e+00 +4.9999999999936644e-02 -2.7654918501821727e-02 -5.2251349625534205e-01 +5.0545582705503068e-03
1.0000000000000001e-01 +8.5979997242800597e+00 +0.0000000000000000e+00 +9.9999999999493189e-02 -2.7654480696566400e-02 -5.2250694798700636e-01 +5.0531086004832028e-03
1.5000000000000002e-01 +8.5979993796327605e+00 +0.0000000000000000e+00 +1.4999999999828953e-01 -2.7654063761729769e-02 -5.2250075950463515e-01 +5.0516610369183415e-03
2.0000000000000001e-01 +8.5979988971294503e+00 +0.0000000000000000e+00 +1.9999999999594559e-01 -2.7653667815286453e-02 -5.2249493090074950e-01 +5.0502156738004497e-03
2.5000000000000000e-01 +8.5979982767716674e+00 +0.0000000000000000e+00 +2.4999999999208131e-01 -2.7653292975212417e-02 -5.2248946226788784e-01 +5.0487726050744541e-03
2.9999999999999999e-01 +8.5979975185608541e+00 +0.0000000000000000e+00 +2.9999999998631666e-01 -2.7652939359484988e-02 -5.2248435369860380e-01 +5.0473319246854831e-03
3.4999999999999998e-01 +8.5979966224983588e+00 +0.0000000000000000e+00 +3.4999999997827153e-01 -2.7652607086082755e-02 -5.2247960528547044e-01 +5.0458937265788440e-03
3.9999999999999997e-01 +8.5979955885854356e+00 +0.0000000000000000e+00 +3.9999999996756591e-01 -2.7652296272985565e-02 -5.2247521712107503e-01 +5.0444581047000142e-03
4.4999999999999996e-01 +8.5979944168232407e+00 +0.0000000000000000e+00 +4.4999999995381978e-01 -2.7652007038174515e-02 -5.2247118929802361e-01 +5.0430251529946192e-03
4.9999999999999994e-01 +8.5979931072128366e+00 +0.0000000000000000e+00 +4.9999999993665317e-01 -2.7651739499631810e-02 -5.2246752190893775e-01 +5.0415949654084311e-03
5.4999999999999993e-01 +8.5979916597551913e+00 +0.0000000000000000e+00 +5.4999999991568604e-01 -2.7651493775340794e-02 -5.2246421504645679e-01 +5.0401676358873436e-03
5.9999999999999998e-01 +8.5979900744511770e+00 +0.0000000000000000e+00 +5.9999999989053832e-01 -2.7651269983285928e-02 -5.2246126880323640e-01 +5.0387432583773603e-03
6.5000000000000002e-01 +8.5979883513015718e+00 +0.0000000000000000e+00 +6.4999999986083001e-01 -2.7651068241452689e-02 -5.2245868327194933e-01 +5.0373219268245849e-03
7.0000000000000007e-01 +8.5979864903070577e+00 +0.0000000000000000e+00 +6.9999999982618122e-01 -2.7650888667827531e-02 -5.2245645854528455e-01 +5.0359037351751998e-03
7.5000000000000011e-01 +8.5979844914682211e+00 +0.0000000000000000e+00 +7.4999999978621179e-01 -2.7650731380397951e-02 -5.2245459471594879e-01 +5.0344887773754654e-03
8.0000000000000016e-01 +8.5979823547855538e+00 +0.0000000000000000e+00 +7.9999999974054181e-01 -2.7650596497152267e-02 -5.2245309187666500e-01 +5.0330771473716829e-03
8.5000000000000020e-01 +8.5979800802594539e+00 +0.0000000000000000e+00 +8.4999999968879125e-01 -2.7650484136079741e-02 -5.2245195012017276e-01 +5.0316689391102119e-03
9.0000000000000024e-01 +8.5979776678902216e+00 +0.0000000000000000e+00 +8.9999999963058019e-01 -2.7650394415170441e-02 -5.2245116953922877e-01 +5.0302642465374177e-03
9.5000000000000029e-01 +8.5979751176780628e+00 +0.0000000000000000e+00 +9.4999999956552850e-01 -2.7650327452415236e-02 -5.2245075022660614e-01 +5.0288631635996978e-03
1.0000000000000002e+00 +8.5979724296230877e+00 +0.0000000000000000e+00 +9.9999999949325624e-01 -2.7650283365805765e-02 -5.2245069227509533e-01 +5.0274657842434376e-03
1.0500000000000003e+00 +8.5979696037253124e+00 +0.0000000000000000e+00 +1.0499999994133835e+00 -2.7650262273334343e-02 -5.2245099577750320e-01 +5.0260722024150079e-03
1.1000000000000003e+00 +8.5979666399846550e+00 +0.0000000000000000e+00 +1.0999999993255301e+00 -2.7650264292993987e-02 -5.2245166082665317e-01 +5.0246825120607540e-03
1.1500000000000004e+00 +8.5979635384009416e+00 +0.0000000000000000e+00 +1.1499999992293160e+00 -2.7650289542778341e-02 -5.2245268751538576e-01 +5.0232968071269677e-03
1.2000000000000004e+00 +8.5979602989739021e+00 +0.0000000000000000e+00 +1.1999999991243613e+00 -2.7650338140681609e-02 -5.2245407593655813e-01 +5.0219151815598974e-03
1.2500000000000004e+00 +8.5979569217031688e+00 +0.0000000000000000e+00 +1.2499999990102859e+00 -2.7650410204698571e-02 -5.2245582618304387e-01 +5.0205377293057072e-03
1.3000000000000005e+00 +8.5979534065882799e+00 +0.0000000000000000e+00 +1.2999999988867097e+00 -2.7650505852824511e-02 -5.2245793834773380e-01 +5.0191645443104817e-03
1.3500000000000005e+00 +8.5979497536286793e+00 +0.0000000000000000e+00 +1.3499999987532527e+00 -2.7650625203055151e-02 -5.2246041252353526e-01 +5.0177957205202010e-03
1.4000000000000006e+00 +8.5979459628237134e+00 +0.0000000000000000e+00 +1.3999999986095348e+00 -2.7650768373386671e-02 -5.2246324880337192e-01 +5.0164313518807355e-03
1.4500000000000006e+00 +8.5979420341726343e+00 +0.0000000000000000e+00 +1.4499999984551759e+00 -2.7650935481815603e-02 -5.2246644728018488e-01 +5.0150715323378225e-03
1.5000000000000007e+00 +8.5979379676745982e+00 +0.0000000000000000e+00 +1.4999999982897960e+00 -2.7651126646338821e-02 -5.2247000804693089e-01 +5.0137163558370617e-03
1.5500000000000007e+00 +8.5979337633286654e+00 +0.0000000000000000e+00 +1.5499999981130150e+00 -2.7651341984953517e-02 -5.2247393119658470e-01 +5.0123659163238913e-03
1.6000000000000008e+00 +8.5979294211338004e+00 +0.0000000000000000e+00 +1.5999999979244526e+00 -2.7651581615657124e-02 -5.2247821682213702e-01 +5.0110203077435838e-03
1.6500000000000008e+00 +8.5979249410888734e+00 +0.0000000000000000e+00 +1.6499999977237287e+00 -2.7651845656447297e-02 -5.2248286501659469e-01 +5.0096796240412245e-03
1.7000000000000008e+00 +8.5979203231926569e+00 +0.0000000000000000e+00 +1.6999999975104632e+00 -2.7652134225321871e-02 -5.2248787587298240e-01 +5.0083439591617016e-03
1.7500000000000009e+00 +8.5979155674438292e+00 +0.0000000000000000e+00 +1.7499999972842759e+00 -2.7652447440278793e-02 -5.2249324948434073e-01 +5.0070134070496850e-03
1.8000000000000009e+00 +8.5979106738409730e+00 +0.0000000000000000e+00 +1.7999999970447866e+00 -2.7652785419316109e-02 -5.2249898594372690e-01 +5.0056880616496232e-03
1.8500000000000010e+00 +8.5979056423825764e+00 +0.0000000000000000e+00 +1.8499999967916150e+00 -2.7653148280431944e-02 -5.2250508534421536e-01 +5.0043680169057237e-03
1.9000000000000010e+00 +8.5979004730670283e+00 +0.0000000000000000e+00 +1.8999999965243810e+00 -2.7653536141624385e-02 -5.2251154777889652e-01 +5.0030533667619337e-03
1.9500000000000011e+00 +8.5978951658926235e+00 +0.0000000000000000e+00 +1.9499999962427041e+00 -2.7653949120891506e-02 -5.2251837334087792e-01 +5.0017442051619393e-03
2.0000000000000009e+00 +8.5978897208575624e+00 +0.0000000000000000e+00 +1.9999999959462043e+00 -2.7654387336231337e-02 -5.2252556212328338e-01 +5.0004406260491336e-03
2.0500000000000007e+00 +8.5978841379599462e+00 +0.0000000000000000e+00 +2.0499999956345012e+00 -2.7654850847135176e-02 -5.2253311397050173e-01 +4.9991427263018787e-03
2.1000000000000005e+00 +8.5978784171977853e+00 +0.0000000000000000e+00 +2.0999999953072144e+00 -2.7655339479068095e-02 -5.2254102773193156e-01 +4.9978506145394617e-03
2.1500000000000004e+00 +8.5978725585689890e+00 +0.0000000000000000e+00 +2.1499999949639634e+00 -2.7655852998989070e-02 -5.2254930200823302e-01 +4.9965644023167357e-03
2.2000000000000002e+00 +8.5978665620713759e+00 +0.0000000000000000e+00 +2.1999999946043678e+00 -2.7656391173857681e-02 -5.2255793540008177e-01 +4.9952842011889449e-03
2.2500000000000000e+00 +8.5978604277026687e+00 +0.0000000000000000e+00 +2.2499999942280473e+00 -2.7656953770634072e-02 -5.2256692650816694e-01 +4.9940101227117463e-03
2.2999999999999998e+00 +8.5978541554604941e+00 +0.0000000000000000e+00 +2.2999999938346214e+00 -2.7657540556278969e-02 -5.2257627393319206e-01 +4.9927422784412411e-03
2.3499999999999996e+00 +8.5978477453423867e+00 +0.0000000000000000e+00 +2.3499999934237095e+00 -2.7658151297753703e-02 -5.2258597627587411e-01 +4.9914807799339876e-03
2.3999999999999995e+00 +8.5978411973457867e+00 +0.0000000000000000e+00 +2.3999999929949309e+00 -2.7658785762020199e-02 -5.2259603213694450e-01 +4.9902257387470514e-03
2.4499999999999993e+00 +8.5978345114680419e+00 +0.0000000000000000e+00 +2.4499999925479057e+00 -2.7659443716040979e-02 -5.2260644011714763e-01 +4.9889772664380092e-03
2.4999999999999991e+00 +8.5978276877064044e+00 +0.0000000000000000e+00 +2.4999999920822527e+00 -2.7660124926779169e-02 -5.2261719881724211e-01 +4.9877354745649820e-03
2.5499999999999989e+00 +8.5978207260580373e+00 +0.0000000000000000e+00 +2.5499999915975913e+00 -2.7660829161198490e-02 -5.2262830683799866e-01 +4.9865004746866689e-03
2.5999999999999988e+00 +8.5978136265200096e+00 +0.0000000000000000e+00 +2.5999999910935410e+00 -2.7661556186263321e-02 -5.2263976278020274e-01 +4.9852723783623664e-03
2.6499999999999986e+00 +8.5978063890892980e+00 +0.0000000000000000e+00 +2.6499999905697211e+00 -2.7662305768938591e-02 -5.2265156524465173e-01 +4.9840512971519937e-03
2.6999999999999984e+00 +8.5977990137627902e+00 +0.0000000000000000e+00 +2.6999999900257508e+00 -2.7663077676189893e-02 -5.2266371283215640e-01 +4.9828373426161242e-03
2.7499999999999982e+00 +8.5977915005372800e+00 +0.0000000000000000e+00 +2.7499999894612492e+00 -2.7663871674983426e-02 -5.2267620414353999e-01 +4.9816306263160050e-03
2.7999999999999980e+00 +8.5977838494094723e+00 +0.0000000000000000e+00 +2.7999999888758360e+00 -2.7664687532286042e-02 -5.2268903777963915e-01 +4.9804312598135921e-03
2.8499999999999979e+00 +8.5977760603759812e+00 +0.0000000000000000e+00 +2.8499999882691296e+00 -2.7665525015065161e-02 -5.2270221234130232e-01 +4.9792393546715689e-03
2.8999999999999977e+00 +8.5977681334333305e+00 +0.0000000000000000e+00 +2.8999999876407494e+00 -2.7666383890288953e-02 -5.2271572642939113e-01 +4.9780550224533763e-03
2.9499999999999975e+00 +8.5977600685779549e+00 +0.0000000000000000e+00 +2.9499999869903148e+00 -2.7667263924926109e-02 -5.2272957864477831e-01 +4.9768783747232400e-03
2.9999999999999973e+00 +8.5977518658061989e+00 +0.0000000000000000e+00 +2.9999999863174445e+00 -2.7668164885946023e-02 -5.2274376758834973e-01 +4.9757095230461923e-03
3.0499999999999972e+00 +8.5977435251143195e+00 +0.0000000000000000e+00 +3.0499999856217572e+00 -2.7669086540318737e-02 -5.2275829186100253e-01 +4.9745485789881019e-03
3.0999999999999970e+00 +8.5977350464984852e+00 +0.0000000000000000e+00 +3.0999999849028721e+00 -2.7670028655014930e-02 -5.2277315006364633e-01 +4.9733956541156976e-03
3.1499999999999968e+00 +8.5977264299547755e+00 +0.0000000000000000e+00 +3.1499999841604081e+00 -2.7670990997005946e-02 -5.2278834079720227e-01 +4.9722508599966001e-03
3.1999999999999966e+00 +8.5977176754791831e+00 +0.0000000000000000e+00 +3.1999999833939836e+00 -2.7671973333263804e-02 -5.2280386266260281e-01 +4.9711143081993467e-03
3.2499999999999964e+00 +8.5977087830676133e+00 +0.0000000000000000e+00 +3.2499999826032178e+00 -2.7672975430761151e-02 -5.2281971426079177e-01 +4.9699861102934098e-03
3.2999999999999963e+00 +8.5976997527158829e+00 +0.0000000000000000e+00 +3.2999999817877295e+00 -2.7673997056471326e-02 -5.2283589419272503e-01 +4.9688663778492351e-03
3.3499999999999961e+00 +8.5976905844197233e+00 +0.0000000000000000e+00 +3.3499999809471372e+00 -2.7675037977368349e-02 -5.2285240105936881e-01 +4.9677552224382552e-03
3.3999999999999959e+00 +8.5976812781747789e+00 +0.0000000000000000e+00 +3.3999999800810596e+00 -2.7676097960426919e-02 -5.2286923346170089e-01 +4.9666527556329271e-03
3.4499999999999957e+00 +8.5976718339766105e+00 +0.0000000000000000e+00 +3.4499999791891152e+00 -2.7677176772622370e-02 -5.2288639000070936e-01 +4.9655590890067582e-03
3.4999999999999956e+00 +8.5976622518206902e+00 +0.0000000000000000e+00 +3.4999999782709224e+00 -2.7678274180930787e-02 -5.2290386927739374e-01 +4.9644743341343217e-03
3.5499999999999954e+00 +8.5976525317024066e+00 +0.0000000000000000e+00 +3.5499999773260993e+00 -2.7679389952328898e-02 -5.2292166989276401e-01 +4.9633986025912928e-03
3.5999999999999952e+00 +8.5976426736170630e+00 +0.0000000000000000e+00 +3.5999999763542649e+00 -2.7680523853794138e-02 -5.2293979044784011e-01 +4.9623320059544711e-03
3.6499999999999950e+00 +8.5976326775598793e+00 +0.0000000000000000e+00 +3.6499999753550374e+00 -2.7681675652304647e-02 -5.2295822954365301e-01 +4.9612746558018112e-03
3.6999999999999948e+00 +8.5976225435259916e+00 +0.0000000000000000e+00 +3.6999999743280352e+00 -2.7682845114839243e-02 -5.2297698578124330e-01 +4.9602266637124425e-03
3.7499999999999947e+00 +8.5976122715104495e+00 +0.0000000000000000e+00 +3.7499999732728764e+00 -2.7684032008377494e-02 -5.2299605776166258e-01 +4.9591881412667004e-03
3.7999999999999945e+00 +8.5976018615082221e+00 +0.0000000000000000e+00 +3.7999999721891791e+00 -2.7685236099899650e-02 -5.2301544408597134e-01 +4.9581592000461534e-03
3.8499999999999943e+00 +8.5975913135141937e+00 +0.0000000000000000e+00 +3.8499999710765613e+00 -2.7686457156386648e-02 -5.2303514335524026e-01 +4.9571399516336236e-03
3.8999999999999941e+00 +8.5975806275231683e+00 +0.0000000000000000e+00 +3.8999999699346413e+00 -2.7687694944820204e-02 -5.2305515417054993e-01 +4.9561305076132193e-03
3.9499999999999940e+00 +8.5975698035298667e+00 +0.0000000000000000e+00 +3.9499999687630369e+00 -2.7688949232182722e-02 -5.2307547513299024e-01 +4.9551309795703548e-03
3.9999999999999938e+00 +8.5975588415289259e+00 +0.0000000000000000e+00 +3.9999999675613664e+00 -2.7690219785457309e-02 -5.2309610484366054e-01 +4.9541414790917884e-03
4.0499999999999936e+00 +8.5975477415149033e+00 +0.0000000000000000e+00 +4.0499999663292474e+00 -2.7691506405168965e-02 -5.2311704174326623e-01 +4.9531621037648714e-03
4.0999999999999934e+00 +8.5975365034822762e+00 +0.0000000000000000e+00 +4.0999999650662975e+00 -2.7692809026008239e-02 -5.2313828363090620e-01 +4.9521928951748832e-03
4.1499999999999932e+00 +8.5975251274254401e+00 +0.0000000000000000e+00 +4.1499999637721352e+00 -2.7694127616208316e-02 -5.2315982814528206e-01 +4.9512338809068971e-03
4.1999999999999931e+00 +8.5975136133387107e+00 +0.0000000000000000e+00 +4.1999999624463777e+00 -2.7695462144003816e-02 -5.2318167292509987e-01 +4.9502850885464779e-03
4.2499999999999929e+00 +8.5975019612163237e+00 +0.0000000000000000e+00 +4.2499999610886423e+00 -2.7696812577630844e-02 -5.2320381560907081e-01 +4.9493465456797265e-03
4.2999999999999927e+00 +8.5974901710524385e+00 +0.0000000000000000e+00 +4.2999999596985470e+00 -2.7698178885326972e-02 -5.2322625383591104e-01 +4.9484182798932618e-03
4.3499999999999925e+00 +8.5974782428411345e+00 +0.0000000000000000e+00 +4.3499999582757090e+00 -2.7699561035331367e-02 -5.2324898524434149e-01 +4.9475003187742115e-03
4.3999999999999924e+00 +8.5974661765764147e+00 +0.0000000000000000e+00 +4.3999999568197454e+00 -2.7700958995884678e-02 -5.2327200747308622e-01 +4.9465926899102258e-03
4.4499999999999922e+00 +8.5974539722522039e+00 +0.0000000000000000e+00 +4.4499999553302745e+00 -2.7702372735229144e-02 -5.2329531816087416e-01 +4.9456954208894656e-03
4.4999999999999920e+00 +8.5974416298623524e+00 +0.0000000000000000e+00 +4.4999999538069124e+00 -2.7703802221608623e-02 -5.2331891494643823e-01 +4.9448085393006122e-03
4.5499999999999918e+00 +8.5974291494006359e+00 +0.0000000000000000e+00 +4.5499999522492773e+00 -2.7705247423268582e-02 -5.2334279546851392e-01 +4.9439320727328543e-03
4.5999999999999917e+00 +8.5974165308607535e+00 +0.0000000000000000e+00 +4.5999999506569855e+00 -2.7706708308456136e-02 -5.2336695736584093e-01 +4.9430660487758977e-03
4.6499999999999915e+00 +8.5974037742363301e+00 +0.0000000000000000e+00 +4.6499999490296551e+00 -2.7708184845420088e-02 -5.2339139827716141e-01 +4.9422104950199632e-03
4.6999999999999913e+00 +8.5973908795209173e+00 +0.0000000000000000e+00 +4.6999999473669023e+00 -2.7709677002410921e-02 -5.2341611584122016e-01 +4.9413654390557723e-03
4.7499999999999911e+00 +8.5973778467079942e+00 +0.0000000000000000e+00 +4.7499999456683444e+00 -2.7711184747680830e-02 -5.2344110769676511e-01 +4.9405309084745667e-03
4.7999999999999909e+00 +8.5973646757909670e+00 +0.0000000000000000e+00 +4.7999999439335976e+00 -2.7712708049483802e-02 -5.2346637148254593e-01 +4.9397069308680973e-03
4.8499999999999908e+00 +8.5973513667631689e+00 +0.0000000000000000e+00 +4.8499999421622793e+00 -2.7714246876075557e-02 -5.2349190483731500e-01 +4.9388935338286208e-03
4.8999999999999906e+00 +8.5973379196178659e+00 +0.0000000000000000e+00 +4.8999999403540064e+00 -2.7715801195713631e-02 -5.2351770539982545e-01 +4.9380907449489029e-03
4.9499999999999904e+00 +8.5973243343482491e+00 +0.0000000000000000e+00 +4.9499999385083946e+00 -2.7717370976657375e-02 -5.2354377080883296e-01 +4.9372985918222194e-03
4.9999999999999902e+00 +8.5973106109474422e+00 +0.0000000000000000e+00 +4.9999999366250618e+00 -2.7718956187167985e-02 -5.2357009870309379e-01 +4.9365171020423499e-03
5.0499999999999901e+00 +8.5972967494084980e+00 +0.0000000000000000e+00 +5.0499999347036235e+00 -2.7720556795508541e-02 -5.2359668672136583e-01 +4.9357463032035824e-03
5.0999999999999899e+00 +8.5972827497244033e+00 +0.0000000000000000e+00 +5.0999999327436960e+00 -2.7722172769943987e-02 -5.2362353250240712e-01 +4.9349862229007054e-03
5.1499999999999897e+00 +8.5972686118880741e+00 +0.0000000000000000e+00 +5.1499999307448956e+00 -2.7723804078741244e-02 -5.2365063368497744e-01 +4.9342368887290190e-03
5.1999999999999895e+00 +8.5972543358923623e+00 +0.0000000000000000e+00 +5.1999999287068395e+00 -2.7725450690169129e-02 -5.2367798790783537e-01 +4.9334983282843196e-03
5.2499999999999893e+00 +8.5972399217300488e+00 +0.0000000000000000e+00 +5.2499999266291431e+00 -2.7727112572498453e-02 -5.2370559280974072e-01 +4.9327705691629116e-03
5.2999999999999892e+00 +8.5972253693938505e+00 +0.0000000000000000e+00 +5.2999999245114227e+00 -2.7728789694002016e-02 -5.2373344602945249e-01 +4.9320536389616020e-03
5.3499999999999890e+00 +8.5972106788764204e+00 +0.0000000000000000e+00 +5.3499999223532937e+00 -2.7730482022954632e-02 -5.2376154520572982e-01 +4.9313475652776953e-03
5.3999999999999888e+00 +8.5971958501703440e+00 +0.0000000000000000e+00 +5.3999999201543725e+00 -2.7732189527633185e-02 -5.2378988797733061e-01 +4.9306523757089949e-03
5.4499999999999886e+00 +8.5971808832681429e+00 +0.0000000000000000e+00 +5.4499999179142753e+00 -2.7733912176316589e-02 -5.2381847198301257e-01 +4.9299680978538143e-03
5.4999999999999885e+00 +8.5971657781622763e+00 +0.0000000000000000e+00 +5.4999999156326167e+00 -2.7735649937285889e-02 -5.2384729486153137e-01 +4.9292947593109534e-03
5.5499999999999883e+00 +8.5971505348451398e+00 +0.0000000000000000e+00 +5.5499999133090139e+00 -2.7737402778824229e-02 -5.2387635425164181e-01 +4.9286323876797152e-03
5.5999999999999881e+00 +8.5971351533090665e+00 +0.0000000000000000e+00 +5.5999999109430814e+00 -2.7739170669216912e-02 -5.2390564779209725e-01 +4.9279810105599077e-03
5.6499999999999879e+00 +8.5971196335463294e+00 +0.0000000000000000e+00 +5.6499999085344355e+00 -2.7740953576751402e-02 -5.2393517312164894e-01 +4.9273406555518234e-03
5.6999999999999877e+00 +8.5971039755491372e+00 +0.0000000000000000e+00 +5.6999999060826907e+00 -2.7742751469717344e-02 -5.2396492787904603e-01 +4.9267113502562557e-03
5.7499999999999876e+00 +8.5970881793096385e+00 +0.0000000000000000e+00 +5.7499999035874625e+00 -2.7744564316406626e-02 -5.2399490970303497e-01 +4.9260931222744973e-03
5.7999999999999874e+00 +8.5970722448199250e+00 +0.0000000000000000e+00 +5.7999999010483672e+00 -2.7746392085113352e-02 -5.2402511623236014e-01 +4.9254859992083275e-03
5.8499999999999872e+00 +8.5970561720720262e+00 +0.0000000000000000e+00 +5.8499998984650192e+00 -2.7748234744133911e-02 -5.2405554510576258e-01 +4.9248900086600236e-03
5.8999999999999870e+00 +8.5970399610579147e+00 +0.0000000000000000e+00 +5.8999998958370332e+00 -2.7750092261766991e-02 -5.2408619396198064e-01 +4.9243051782323572e-03
