# field on trajectory
# s[mm] rx[mm] ry[mm] rz[mm] bx[T] by[T] bz[T]
0.0000000000000000e+00 +8.5980000000000008e+00 +0.0000000000000000e+00 +0.0000000000000000e+00 -2.8106232019589991e-02 -5.2424110406098534e-01 +4.7059247720925585e-03
5.0000000000000003e-02 +8.5979999308424500e+00 +0.0000000000000000e+00 +4.9999999999936227e-02 -2.8106861825389254e-02 -5.2424036224668535e-01 +4.7041978740207744e-03
1.0000000000000001e-01 +8.5979997233699148e+00 +0.0000000000000000e+00 +9.9999999999489830e-02 -2.8107513082882372e-02 -5.2423996104603376e-01 +4.7024822107909403e-03
1.5000000000000002e-01 +8.5979993775825001e+00 +0.0000000000000000e+00 +1.4999999999827821e-01 -2.8108185685978244e-02 -5.2423989972840268e-01 +4.7007779155308262e-03
2.0000000000000001e-01 +8.5979988934802236e+00 +0.0000000000000000e+00 +1.9999999999591872e-01 -2.8108879528586952e-02 -5.2424017756317776e-01 +4.6990851213686898e-03
2.5000000000000000e-01 +8.5979982710630107e+00 +0.0000000000000000e+00 +2.4999999999202874e-01 -2.8109594504619782e-02 -5.2424079381976041e-01 +4.6974039614332882e-03
2.9999999999999999e-01 +8.5979975103306998e+00 +0.0000000000000000e+00 +2.9999999998622567e-01 -2.8110330507989081e-02 -5.2424174776756738e-01 +4.6957345688538685e-03
3.4999999999999998e-01 +8.5979966112830368e+00 +0.0000000000000000e+00 +3.4999999997812686e-01 -2.8111087432608317e-02 -5.2424303867602928e-01 +4.6940770767602107e-03
3.9999999999999997e-01 +8.5979955739196843e+00 +0.0000000000000000e+00 +3.9999999996734970e-01 -2.8111865172391882e-02 -5.2424466581459261e-01 +4.6924316182825861e-03
4.4999999999999996e-01 +8.5979943982402105e+00 +0.0000000000000000e+00 +4.4999999995351153e-01 -2.8112663621255238e-02 -5.2424662845271852e-01 +4.6907983265517990e-03
4.9999999999999994e-01 +8.5979930842440986e+00 +0.0000000000000000e+00 +4.9999999993622973e-01 -2.8113482673114660e-02 -5.2424892585988381e-01 +4.6891773346991747e-03
5.4999999999999993e-01 +8.5979916319307428e+00 +0.0000000000000000e+00 +5.4999999991512161e-01 -2.8114322221887388e-02 -5.2425155730557960e-01 +4.6875687758565782e-03
5.9999999999999998e-01 +8.5979900412994485e+00 +0.0000000000000000e+00 +5.9999999988980457e-01 -2.8115182161491392e-02 -5.2425452205931289e-01 +4.6859727831564044e-03
6.5000000000000002e-01 +8.5979883123494343e+00 +0.0000000000000000e+00 +6.4999999985989598e-01 -2.8116062385845454e-02 -5.2425781939060512e-01 +4.6843894897315936e-03
7.0000000000000007e-01 +8.5979864450798296e+00 +0.0000000000000000e+00 +6.9999999982501304e-01 -2.8116962788869101e-02 -5.2426144856899326e-01 +4.6828190287156440e-03
7.5000000000000011e-01 +8.5979844394896769e+00 +0.0000000000000000e+00 +7.4999999978477316e-01 -2.8117883264482467e-02 -5.2426540886402950e-01 +4.6812615332425993e-03
8.0000000000000016e-01 +8.5979822955779319e+00 +0.0000000000000000e+00 +7.9999999973879365e-01 -2.8118823706606365e-02 -5.2426969954528102e-01 +4.6797171364470706e-03
8.5000000000000020e-01 +8.5979800133434612e+00 +0.0000000000000000e+00 +8.4999999968669171e-01 -2.8119784009162159e-02 -5.2427431988232986e-01 +4.6781859714642359e-03
9.0000000000000024e-01 +8.5979775927850461e+00 +0.0000000000000000e+00 +8.9999999962808475e-01 -2.8120764066071738e-02 -5.2427926914477418e-01 +4.6766681714298453e-03
9.5000000000000029e-01 +8.5979750339013830e+00 +0.0000000000000000e+00 +9.4999999956258996e-01 -2.8121763771257476e-02 -5.2428454660222656e-01 +4.6751638694802313e-03
1.0000000000000002e+00 +8.5979723366910772e+00 +0.0000000000000000e+00 +9.9999999948982454e-01 -2.8122783018642170e-02 -5.2429015152431524e-01 +4.6736731987523103e-03
1.0500000000000003e+00 +8.5979695011526509e+00 +0.0000000000000000e+00 +1.0499999994094058e+00 -2.8123821702148992e-02 -5.2429608318068344e-01 +4.6721962923835878e-03
1.1000000000000003e+00 +8.5979665272845391e+00 +0.0000000000000000e+00 +1.0999999993209510e+00 -2.8124879715701458e-02 -5.2430234084099026e-01 +4.6707332835121719e-03
1.1500000000000004e+00 +8.5979634150850899e+00 +0.0000000000000000e+00 +1.1499999992240773e+00 -2.8125956953223338e-02 -5.2430892377490879e-01 +4.6692843052767692e-03
1.2000000000000004e+00 +8.5979601645525676e+00 +0.0000000000000000e+00 +1.1999999991184016e+00 -2.8127053308638676e-02 -5.2431583125212911e-01 +4.6678494908166954e-03
1.2500000000000004e+00 +8.5979567756851498e+00 +0.0000000000000000e+00 +1.2499999990035415e+00 -2.8128168675871663e-02 -5.2432306254235561e-01 +4.6664289732718835e-03
1.3000000000000005e+00 +8.5979532484809287e+00 +0.0000000000000000e+00 +1.2999999988791138e+00 -2.8129302948846635e-02 -5.2433061691530813e-01 +4.6650228857828850e-03
1.3500000000000005e+00 +8.5979495829379093e+00 +0.0000000000000000e+00 +1.3499999987447358e+00 -2.8130456021488046e-02 -5.2433849364072216e-01 +4.6636313614908812e-03
1.4000000000000006e+00 +8.5979457790540152e+00 +0.0000000000000000e+00 +1.3999999986000244e+00 -2.8131627787720326e-02 -5.2434669198834838e-01 +4.6622545335376830e-03
1.4500000000000006e+00 +8.5979418368270828e+00 +0.0000000000000000e+00 +1.4499999984445970e+00 -2.8132818141467973e-02 -5.2435521122795281e-01 +4.6608925350657450e-03
1.5000000000000007e+00 +8.5979377562548649e+00 +0.0000000000000000e+00 +1.4999999982780703e+00 -2.8134026976655346e-02 -5.2436405062931735e-01 +4.6595454992181574e-03
1.5500000000000007e+00 +8.5979335373350292e+00 +0.0000000000000000e+00 +1.5499999981000614e+00 -2.8135254187206755e-02 -5.2437320946223853e-01 +4.6582135591386681e-03
1.6000000000000008e+00 +8.5979291800651598e+00 +0.0000000000000000e+00 +1.5999999979101875e+00 -2.8136499667046320e-02 -5.2438268699652935e-01 +4.6568968479716779e-03
1.6500000000000008e+00 +8.5979246844427557e+00 +0.0000000000000000e+00 +1.6499999977080655e+00 -2.8137763310097978e-02 -5.2439248250201753e-01 +4.6555954988622564e-03
1.7000000000000008e+00 +8.5979200504652322e+00 +0.0000000000000000e+00 +1.6999999974933120e+00 -2.8139045010285371e-02 -5.2440259524854627e-01 +4.6543096449561264e-03
1.7500000000000009e+00 +8.5979152781299213e+00 +0.0000000000000000e+00 +1.7499999972655442e+00 -2.8140344661531921e-02 -5.2441302450597493e-01 +4.6530394193997045e-03
1.8000000000000009e+00 +8.5979103674340731e+00 +0.0000000000000000e+00 +1.7999999970243790e+00 -2.8141662157760587e-02 -5.2442376954417780e-01 +4.6517849553400709e-03
1.8500000000000010e+00 +8.5979053183748508e+00 +0.0000000000000000e+00 +1.8499999967694329e+00 -2.8142997392894022e-02 -5.2443482963304489e-01 +4.6505463859250014e-03
1.9000000000000010e+00 +8.5979001309493359e+00 +0.0000000000000000e+00 +1.8999999965003231e+00 -2.8144350260854368e-02 -5.2444620404248188e-01 +4.6493238443029569e-03
1.9500000000000011e+00 +8.5978948051545299e+00 +0.0000000000000000e+00 +1.9499999962166663e+00 -2.8145720655563315e-02 -5.2445789204241022e-01 +4.6481174636231045e-03
2.0000000000000009e+00 +8.5978893409873471e+00 +0.0000000000000000e+00 +1.9999999959180792e+00 -2.8147108470941967e-02 -5.2446989290276635e-01 +4.6469273770353070e-03
2.0500000000000007e+00 +8.5978837384446223e+00 +0.0000000000000000e+00 +2.0499999956041783e+00 -2.8148513599372864e-02 -5.2448220571911386e-01 +4.6457536998081176e-03
2.1000000000000005e+00 +8.5978779975231063e+00 +0.0000000000000000e+00 +2.0999999952745805e+00 -2.8149935927086249e-02 -5.2449482888947063e-01 +4.6445964756826677e-03
2.1500000000000004e+00 +8.5978721182194686e+00 +0.0000000000000000e+00 +2.1499999949289026e+00 -2.8151375338774896e-02 -5.2450776063747939e-01 +4.6434557305187396e-03
2.2000000000000002e+00 +8.5978661005302968e+00 +0.0000000000000000e+00 +2.1999999945667610e+00 -2.8152831719132139e-02 -5.2452099918679351e-01 +4.6423314901767728e-03
2.2500000000000000e+00 +8.5978599444521002e+00 +0.0000000000000000e+00 +2.2499999941877720e+00 -2.8154304952851952e-02 -5.2453454276107647e-01 +4.6412237805178889e-03
2.2999999999999998e+00 +8.5978536499813032e+00 +0.0000000000000000e+00 +2.2999999937915523e+00 -2.8155794924628965e-02 -5.2454838958400440e-01 +4.6401326274038788e-03
2.3499999999999996e+00 +8.5978472171142535e+00 +0.0000000000000000e+00 +2.3499999933777187e+00 -2.8157301519158476e-02 -5.2456253787926366e-01 +4.6390580566972222e-03
2.3999999999999995e+00 +8.5978406458472190e+00 +0.0000000000000000e+00 +2.3999999929458871e+00 -2.8158824621136506e-02 -5.2457698587055135e-01 +4.6380000942610701e-03
2.4499999999999993e+00 +8.5978339361763876e+00 +0.0000000000000000e+00 +2.4499999924956741e+00 -2.8160364115259785e-02 -5.2459173178157514e-01 +4.6369587659592613e-03
2.4999999999999991e+00 +8.5978270880978691e+00 +0.0000000000000000e+00 +2.4999999920266962e+00 -2.8161919886225819e-02 -5.2460677383605248e-01 +4.6359340976563201e-03
2.5499999999999989e+00 +8.5978201016076934e+00 +0.0000000000000000e+00 +2.5499999915385696e+00 -2.8163491818732893e-02 -5.2462211025771166e-01 +4.6349261152174642e-03
2.5999999999999988e+00 +8.5978129767018157e+00 +0.0000000000000000e+00 +2.5999999910309106e+00 -2.8165079797480088e-02 -5.2463773927029012e-01 +4.6339348445086047e-03
2.6499999999999986e+00 +8.5978057133761112e+00 +0.0000000000000000e+00 +2.6499999905033356e+00 -2.8166683707167343e-02 -5.2465365909753470e-01 +4.6329603113963395e-03
2.6999999999999984e+00 +8.5977983116263808e+00 +0.0000000000000000e+00 +2.6999999899554608e+00 -2.8168303432495420e-02 -5.2466986796320247e-01 +4.6320025417479725e-03
2.7499999999999982e+00 +8.5977907714483486e+00 +0.0000000000000000e+00 +2.7499999893869020e+00 -2.8169938858166006e-02 -5.2468636409105918e-01 +4.6310615614315017e-03
2.7999999999999980e+00 +8.5977830928376626e+00 +0.0000000000000000e+00 +2.7999999887972753e+00 -2.8171589868881661e-02 -5.2470314570487875e-01 +4.6301373963156369e-03
2.8499999999999979e+00 +8.5977752757898944e+00 +0.0000000000000000e+00 +2.8499999881861968e+00 -2.8173256349345928e-02 -5.2472021102844568e-01 +4.6292300722697880e-03
2.8999999999999977e+00 +8.5977673203005409e+00 +0.0000000000000000e+00 +2.8999999875532829e+00 -2.8174938184263271e-02 -5.2473755828555124e-01 +4.6283396151640729e-03
2.9499999999999975e+00 +8.5977592263650262e+00 +0.0000000000000000e+00 +2.9499999868981490e+00 -2.8176635258339171e-02 -5.2475518569999580e-01 +4.6274660508693289e-03
2.9999999999999973e+00 +8.5977509939786998e+00 +0.0000000000000000e+00 +2.9999999862204110e+00 -2.8178347456280114e-02 -5.2477309149558793e-01 +4.6266094052570990e-03
3.0499999999999972e+00 +8.5977426231368366e+00 +0.0000000000000000e+00 +3.0499999855196851e+00 -2.8180074662793615e-02 -5.2479127389614366e-01 +4.6257697041996483e-03
3.0999999999999970e+00 +8.5977341138346404e+00 +0.0000000000000000e+00 +3.0999999847955868e+00 -2.8181816762588290e-02 -5.2480973112548690e-01 +4.6249469735699603e-03
3.1499999999999968e+00 +8.5977254660672404e+00 +0.0000000000000000e+00 +3.1499999840477320e+00 -2.8183573640373813e-02 -5.2482846140744899e-01 +4.6241412392417445e-03
3.1999999999999966e+00 +8.5977166798296967e+00 +0.0000000000000000e+00 +3.1999999832757364e+00 -2.8185345180860973e-02 -5.2484746296586837e-01 +4.6233525270894301e-03
3.2499999999999964e+00 +8.5977077551169945e+00 +0.0000000000000000e+00 +3.2499999824792156e+00 -2.8187131268761753e-02 -5.2486673402459094e-01 +4.6225808629881786e-03
3.2999999999999963e+00 +8.5976986919240499e+00 +0.0000000000000000e+00 +3.2999999816577850e+00 -2.8188931788789243e-02 -5.2488627280746880e-01 +4.6218262728138886e-03
3.3499999999999961e+00 +8.5976894902457079e+00 +0.0000000000000000e+00 +3.3499999808110603e+00 -2.8190746625657778e-02 -5.2490607753836060e-01 +4.6210887824431777e-03
3.3999999999999959e+00 +8.5976801500767444e+00 +0.0000000000000000e+00 +3.3999999799386567e+00 -2.8192575664082890e-02 -5.2492614644113267e-01 +4.6203684177534132e-03
3.4499999999999957e+00 +8.5976706714118620e+00 +0.0000000000000000e+00 +3.4499999790401898e+00 -2.8194418788781362e-02 -5.2494647773965586e-01 +4.6196652046226966e-03
3.4999999999999956e+00 +8.5976610542456999e+00 +0.0000000000000000e+00 +3.4999999781152749e+00 -2.8196275884471260e-02 -5.2496706965780748e-01 +4.6189791689298723e-03
3.5499999999999954e+00 +8.5976512985728224e+00 +0.0000000000000000e+00 +3.5499999771635276e+00 -2.8198146835871945e-02 -5.2498792041947107e-01 +4.6183103365545321e-03
3.5999999999999952e+00 +8.5976414043877298e+00 +0.0000000000000000e+00 +3.5999999761845625e+00 -2.8200031527704093e-02 -5.2500902824853513e-01 +4.6176587333770095e-03
3.6499999999999950e+00 +8.5976313716848534e+00 +0.0000000000000000e+00 +3.6499999751779950e+00 -2.8201929844689728e-02 -5.2503039136889385e-01 +4.6170243852783959e-03
3.6999999999999948e+00 +8.5976212004585566e+00 +0.0000000000000000e+00 +3.6999999741434406e+00 -2.8203841671552300e-02 -5.2505200800444607e-01 +4.6164073181405325e-03
3.7499999999999947e+00 +8.5976108907031357e+00 +0.0000000000000000e+00 +3.7499999730805142e+00 -2.8205766893016598e-02 -5.2507387637909608e-01 +4.6158075578460189e-03
3.7999999999999945e+00 +8.5976004424128210e+00 +0.0000000000000000e+00 +3.7999999719888304e+00 -2.8207705393808888e-02 -5.2509599471675239e-01 +4.6152251302782089e-03
3.8499999999999943e+00 +8.5975898555817771e+00 +0.0000000000000000e+00 +3.8499999708680046e+00 -2.8209657058656853e-02 -5.2511836124132794e-01 +4.6146600613212229e-03
3.8999999999999941e+00 +8.5975791302041049e+00 +0.0000000000000000e+00 +3.8999999697176513e+00 -2.8211621772289693e-02 -5.2514097417673988e-01 +4.6141123768599435e-03
3.9499999999999940e+00 +8.5975682662738357e+00 +0.0000000000000000e+00 +3.9499999685373854e+00 -2.8213599419438067e-02 -5.2516383174690984e-01 +4.6135821027800221e-03
3.9999999999999938e+00 +8.5975572637849407e+00 +0.0000000000000000e+00 +3.9999999673268216e+00 -2.8215589884834223e-02 -5.2518693217576295e-01 +4.6130692649678784e-03
4.0499999999999936e+00 +8.5975461227313232e+00 +0.0000000000000000e+00 +4.0499999660855748e+00 -2.8217593044253707e-02 -5.2521027358554229e-01 +4.6125738842403511e-03
4.0999999999999934e+00 +8.5975348431068266e+00 +0.0000000000000000e+00 +4.0999999648132599e+00 -2.8219608737640161e-02 -5.2523385369175124e-01 +4.6120959611335036e-03
4.1499999999999932e+00 +8.5975234249052299e+00 +0.0000000000000000e+00 +4.1499999635094902e+00 -2.8221636795979284e-02 -5.2525767010820856e-01 +4.6116354911136127e-03
4.1999999999999931e+00 +8.5975118681202485e+00 +0.0000000000000000e+00 +4.1999999621738811e+00 -2.8223677050256933e-02 -5.2528172044873533e-01 +4.6111924696475197e-03
4.2499999999999929e+00 +8.5975001727455371e+00 +0.0000000000000000e+00 +4.2499999608060470e+00 -2.8225729331459129e-02 -5.2530600232715297e-01 +4.6107668922026248e-03
4.2999999999999927e+00 +8.5974883387746903e+00 +0.0000000000000000e+00 +4.2999999594056026e+00 -2.8227793470572048e-02 -5.2533051335728520e-01 +4.6103587542468891e-03
4.3499999999999925e+00 +8.5974763662012403e+00 +0.0000000000000000e+00 +4.3499999579721615e+00 -2.8229869298581980e-02 -5.2535525115295512e-01 +4.6099680512488254e-03
4.3999999999999924e+00 +8.5974642550186609e+00 +0.0000000000000000e+00 +4.3999999565053383e+00 -2.8231956646475341e-02 -5.2538021332798690e-01 +4.6095947786775034e-03
4.4499999999999922e+00 +8.5974520052203669e+00 +0.0000000000000000e+00 +4.4499999550047464e+00 -2.8234055345238589e-02 -5.2540539749620463e-01 +4.6092389320025306e-03
4.4999999999999920e+00 +8.5974396167997131e+00 +0.0000000000000000e+00 +4.4999999534700006e+00 -2.8236165225858308e-02 -5.2543080127143293e-01 +4.6089005066940678e-03
4.5499999999999918e+00 +8.5974270897499974e+00 +0.0000000000000000e+00 +4.5499999519007144e+00 -2.8238286119321099e-02 -5.2545642226749578e-01 +4.6085794982228100e-03
4.5999999999999917e+00 +8.5974144240644605e+00 +0.0000000000000000e+00 +4.5999999502965023e+00 -2.8240417856613634e-02 -5.2548225809821636e-01 +4.6082759020599929e-03
4.6499999999999915e+00 +8.5974016197362850e+00 +0.0000000000000000e+00 +4.6499999486569781e+00 -2.8242560268722603e-02 -5.2550830637741741e-01 +4.6079897136773800e-03
4.6999999999999913e+00 +8.5973886767585999e+00 +0.0000000000000000e+00 +4.6999999469817553e+00 -2.8244713186634681e-02 -5.2553456471892057e-01 +4.6077209285472712e-03
4.7499999999999911e+00 +8.5973755951244755e+00 +0.0000000000000000e+00 +4.7499999452704476e+00 -2.8246876441336530e-02 -5.2556103073654570e-01 +4.6074695421424849e-03
4.7999999999999909e+00 +8.5973623748269308e+00 +0.0000000000000000e+00 +4.7999999435226686e+00 -2.8249049863814799e-02 -5.2558770204411154e-01 +4.6072355499363711e-03
4.8499999999999908e+00 +8.5973490158589296e+00 +0.0000000000000000e+00 +4.8499999417380319e+00 -2.8251233285056083e-02 -5.2561457625543506e-01 +4.6070189474027847e-03
4.8999999999999906e+00 +8.5973355182133790e+00 +0.0000000000000000e+00 +4.8999999399161513e+00 -2.8253426536046917e-02 -5.2564165098433047e-01 +4.6068197300161108e-03
4.9499999999999904e+00 +8.5973218818831381e+00 +0.0000000000000000e+00 +4.9499999380566404e+00 -2.8255629447773746e-02 -5.2566892384461017e-01 +4.6066378932512354e-03
4.9999999999999902e+00 +8.5973081068610107e+00 +0.0000000000000000e+00 +4.9999999361591119e+00 -2.8257841851222924e-02 -5.2569639245008404e-01 +4.6064734325835599e-03
5.0499999999999901e+00 +8.5972941931397493e+00 +0.0000000000000000e+00 +5.0499999342231794e+00 -2.8260063577380687e-02 -5.2572405441455883e-01 +4.6063263434889829e-03
5.0999999999999899e+00 +8.5972801407120567e+00 +0.0000000000000000e+00 +5.0999999322484557e+00 -2.8262294457233144e-02 -5.2575190735183752e-01 +4.6061966214439101e-03
5.1499999999999897e+00 +8.5972659495705841e+00 +0.0000000000000000e+00 +5.1499999302345545e+00 -2.8264534321766226e-02 -5.2577994887572099e-01 +4.6060842619252409e-03
5.1999999999999895e+00 +8.5972516197079329e+00 +0.0000000000000000e+00 +5.1999999281810885e+00 -2.8266783001965730e-02 -5.2580817660000545e-01 +4.6059892604103682e-03
5.2499999999999893e+00 +8.5972371511166550e+00 +0.0000000000000000e+00 +5.2499999260876713e+00 -2.8269040328817271e-02 -5.2583658813848355e-01 +4.6059116123771775e-03
5.2999999999999892e+00 +8.5972225437892558e+00 +0.0000000000000000e+00 +5.2999999239539148e+00 -2.8271306133306220e-02 -5.2586518110494374e-01 +4.6058513133040400e-03
5.3499999999999890e+00 +8.5972077977181893e+00 +0.0000000000000000e+00 +5.3499999217794327e+00 -2.8273580246417792e-02 -5.2589395311317011e-01 +4.6058083586698068e-03
5.3999999999999888e+00 +8.5971929128958671e+00 +0.0000000000000000e+00 +5.3999999195638368e+00 -2.8275862499136894e-02 -5.2592290177694179e-01 +4.6057827439538145e-03
5.4499999999999886e+00 +8.5971778893146507e+00 +0.0000000000000000e+00 +5.4499999173067408e+00 -2.8278152722448248e-02 -5.2595202471003333e-01 +4.6057744646358680e-03
5.4999999999999885e+00 +8.5971627269668556e+00 +0.0000000000000000e+00 +5.4999999150077565e+00 -2.8280450747336247e-02 -5.2598131952621396e-01 +4.6057835161962494e-03
5.5499999999999883e+00 +8.5971474258447547e+00 +0.0000000000000000e+00 +5.5499999126664967e+00 -2.8282756404785048e-02 -5.2601078383924704e-01 +4.6058098941157075e-03
5.5999999999999881e+00 +8.5971319859405728e+00 +0.0000000000000000e+00 +5.5999999102825742e+00 -2.8285069525778472e-02 -5.2604041526289058e-01 +4.6058535938754593e-03
5.6499999999999879e+00 +8.5971164072464923e+00 +0.0000000000000000e+00 +5.6499999078556007e+00 -2.8287389941300020e-02 -5.2607021141089672e-01 +4.6059146109571772e-03
5.6999999999999877e+00 +8.5971006897546527e+00 +0.0000000000000000e+00 +5.6999999053851891e+00 -2.8289717482332857e-02 -5.2610016989701114e-01 +4.6059929408429961e-03
5.7499999999999876e+00 +8.5970848334571492e+00 +0.0000000000000000e+00 +5.7499999028709512e+00 -2.8292051979859789e-02 -5.2613028833497288e-01 +4.6060885790155034e-03
5.7999999999999874e+00 +8.5970688383460363e+00 +0.0000000000000000e+00 +5.7999999003124989e+00 -2.8294393264863257e-02 -5.2616056433851432e-01 +4.6062015209577369e-03
5.8499999999999872e+00 +8.5970527044133256e+00 +0.0000000000000000e+00 +5.8499998977094450e+00 -2.8296741168325295e-02 -5.2619099552136095e-01 +4.6063317621531851e-03
5.8999999999999870e+00 +8.5970364316509880e+00 +0.0000000000000000e+00 +5.8999998950614012e+00 -2.8299095521227554e-02 -5.2622157949723081e-01 +4.6064792980857723e-03
