# trajectory
# s[mm] rx[mm] ry[mm] rz[mm] px[rad] py[rad] pz[rad]
0.0000000000000000e+00 +8.2850000000000001e+00 +0.0000000000000000e+00 +0.0000000000000000e+00 +0.0000000000000000e+00 +0.0000000000000000e+00 +1.0000000000000000e+00
5.0000000000000003e-02 +8.2849999311137061e+00 +0.0000000000000000e+00 +4.9999999999936734e-02 -2.7554510871064689e-06 +0.0000000000000000e+00 +9.9999999999620370e-01
1.0000000000000001e-01 +8.2849997244549414e+00 +0.0000000000000000e+00 +9.9999999999493827e-02 -5.5108991571732676e-06 +0.0000000000000000e+00 +9.9999999998481492e-01
1.5000000000000002e-01 +8.2849993800238071e+00 +0.0000000000000000e+00 +1.4999999999829167e-01 -8.2663462472417310e-06 +0.0000000000000000e+00 +9.9999999996583366e-01
2.0000000000000001e-01 +8.2849988978202997e+00 +0.0000000000000000e+00 +1.9999999999595064e-01 -1.1021794390896635e-05 +0.0000000000000000e+00 +9.9999999993925992e-01
2.5000000000000000e-01 +8.2849982778443163e+00 +0.0000000000000000e+00 +2.4999999999209110e-01 -1.3777245618266289e-05 +0.0000000000000000e+00 +9.9999999990509369e-01
2.9999999999999999e-01 +8.2849975200956525e+00 +0.0000000000000000e+00 +2.9999999998633348e-01 -1.6532701956022629e-05 +0.0000000000000000e+00 +9.9999999986333488e-01
3.4999999999999998e-01 +8.2849966245740010e+00 +0.0000000000000000e+00 +3.4999999997829806e-01 -1.9288165427381313e-05 +0.0000000000000000e+00 +9.9999999981398335e-01
3.9999999999999997e-01 +8.2849955912789568e+00 +0.0000000000000000e+00 +3.9999999996760527e-01 -2.2043638052101811e-05 +0.0000000000000000e+00 +9.9999999975703902e-01
4.4999999999999996e-01 +8.2849944202100101e+00 +0.0000000000000000e+00 +4.4999999995387541e-01 -2.4799121846487497e-05 +0.0000000000000000e+00 +9.9999999969250175e-01
4.9999999999999994e-01 +8.2849931113665516e+00 +0.0000000000000000e+00 +4.9999999993672889e-01 -2.7554618823385750e-05 +0.0000000000000000e+00 +9.9999999962037145e-01
5.4999999999999993e-01 +8.2849916647478743e+00 +0.0000000000000000e+00 +5.4999999991578596e-01 -3.0310130992188033e-05 +0.0000000000000000e+00 +9.9999999954064789e-01
5.9999999999999998e-01 +8.2849900803531664e+00 +0.0000000000000000e+00 +5.9999999989066710e-01 -3.3065660358829992e-05 +0.0000000000000000e+00 +9.9999999945333096e-01
6.5000000000000002e-01 +8.2849883581815185e+00 +0.0000000000000000e+00 +6.4999999986099255e-01 -3.5821208925791552e-05 +0.0000000000000000e+00 +9.9999999935842043e-01
7.0000000000000007e-01 +8.2849864982319197e+00 +0.0000000000000000e+00 +6.9999999982638261e-01 -3.8576778692097000e-05 +0.0000000000000000e+00 +9.9999999925591598e-01
7.5000000000000011e-01 +8.2849845005032616e+00 +0.0000000000000000e+00 +7.4999999978645759e-01 -4.1332371653315074e-05 +0.0000000000000000e+00 +9.9999999914581739e-01
8.0000000000000016e-01 +8.2849823649943346e+00 +0.0000000000000000e+00 +7.9999999974083780e-01 -4.4087989801559054e-05 +0.0000000000000000e+00 +9.9999999902812442e-01
8.5000000000000020e-01 +8.2849800917038294e+00 +0.0000000000000000e+00 +8.4999999968914342e-01 -4.6843635125486863e-05 +0.0000000000000000e+00 +9.9999999890283675e-01
9.0000000000000024e-01 +8.2849776806303375e+00 +0.0000000000000000e+00 +8.9999999963099486e-01 -4.9599309610301153e-05 +0.0000000000000000e+00 +9.9999999876995405e-01
9.5000000000000029e-01 +8.2849751317723506e+00 +0.0000000000000000e+00 +9.4999999956601222e-01 -5.2355015237749379e-05 +0.0000000000000000e+00 +9.9999999862947597e-01
1.0000000000000002e+00 +8.2849724451282629e+00 +0.0000000000000000e+00 +9.9999999949381579e-01 -5.5110753986123908e-05 +0.0000000000000000e+00 +9.9999999848140220e-01
1.0500000000000003e+00 +8.2849696206963674e+00 +0.0000000000000000e+00 +1.0499999994140259e+00 -5.7866527830262087e-05 +0.0000000000000000e+00 +9.9999999832573228e-01
1.1000000000000003e+00 +8.2849666584748611e+00 +0.0000000000000000e+00 +1.0999999993262626e+00 -6.0622338741546359e-05 +0.0000000000000000e+00 +9.9999999816246576e-01
1.1500000000000004e+00 +8.2849635584618415e+00 +0.0000000000000000e+00 +1.1499999992301460e+00 -6.3378188687904333e-05 +0.0000000000000000e+00 +9.9999999799160233e-01
1.2000000000000004e+00 +8.2849603206553084e+00 +0.0000000000000000e+00 +1.1999999991252963e+00 -6.6134079633808866e-05 +0.0000000000000000e+00 +9.9999999781314153e-01
1.2500000000000004e+00 +8.2849569450531622e+00 +0.0000000000000000e+00 +1.2499999990113335e+00 -6.8890013540278151e-05 +0.0000000000000000e+00 +9.9999999762708280e-01
1.3000000000000005e+00 +8.2849534316532054e+00 +0.0000000000000000e+00 +1.2999999988878779e+00 -7.1645992364875844e-05 +0.0000000000000000e+00 +9.9999999743342571e-01
1.3500000000000005e+00 +8.2849497804531449e+00 +0.0000000000000000e+00 +1.3499999987545495e+00 -7.4402018061711086e-05 +0.0000000000000000e+00 +9.9999999723216970e-01
1.4000000000000006e+00 +8.2849459914505861e+00 +0.0000000000000000e+00 +1.3999999986109681e+00 -7.7158092581438632e-05 +0.0000000000000000e+00 +9.9999999702331421e-01
1.4500000000000006e+00 +8.2849420646430403e+00 +0.0000000000000000e+00 +1.4499999984567542e+00 -7.9914217871258924e-05 +0.0000000000000000e+00 +9.9999999680685869e-01
1.5000000000000007e+00 +8.2849380000279211e+00 +0.0000000000000000e+00 +1.4999999982915273e+00 -8.2670395874918194e-05 +0.0000000000000000e+00 +9.9999999658280259e-01
1.5500000000000007e+00 +8.2849337976025428e+00 +0.0000000000000000e+00 +1.5499999981149077e+00 -8.5426628532708510e-05 +0.0000000000000000e+00 +9.9999999635114534e-01
1.6000000000000008e+00 +8.2849294573641252e+00 +0.0000000000000000e+00 +1.5999999979265151e+00 -8.8182917781467920e-05 +0.0000000000000000e+00 +9.9999999611188628e-01
1.6500000000000008e+00 +8.2849249793097890e+00 +0.0000000000000000e+00 +1.6499999977259696e+00 -9.0939265554580473e-05 +0.0000000000000000e+00 +9.9999999586502475e-01
1.7000000000000008e+00 +8.2849203634365622e+00 +0.0000000000000000e+00 +1.6999999975128910e+00 -9.3695673781976342e-05 +0.0000000000000000e+00 +9.9999999561056008e-01
1.7500000000000009e+00 +8.2849156097413719e+00 +0.0000000000000000e+00 +1.7499999972868989e+00 -9.6452144390131895e-05 +0.0000000000000000e+00 +9.9999999534849160e-01
1.8000000000000009e+00 +8.2849107182210506e+00 +0.0000000000000000e+00 +1.7999999970476133e+00 -9.9208679302069798e-05 +0.0000000000000000e+00 +9.9999999507881865e-01
1.8500000000000010e+00 +8.2849056888723371e+00 +0.0000000000000000e+00 +1.8499999967946539e+00 -1.0196528043735908e-04 +0.0000000000000000e+00 +9.9999999480154045e-01
1.9000000000000010e+00 +8.2849005216918705e+00 +0.0000000000000000e+00 +1.8999999965276404e+00 -1.0472194971211521e-04 +0.0000000000000000e+00 +9.9999999451665633e-01
1.9500000000000011e+00 +8.2848952166761975e+00 +0.0000000000000000e+00 +1.9499999962461927e+00 -1.0747868903900020e-04 +0.0000000000000000e+00 +9.9999999422416541e-01
2.0000000000000009e+00 +8.2848897738217673e+00 +0.0000000000000000e+00 +1.9999999959499302e+00 -1.1023550032722268e-04 +0.0000000000000000e+00 +9.9999999392406691e-01
2.0500000000000007e+00 +8.2848841931249346e+00 +0.0000000000000000e+00 +2.0499999956384727e+00 -1.1299238548221291e-04 +0.0000000000000000e+00 +9.9999999361636005e-01
2.1000000000000005e+00 +8.2848784745819568e+00 +0.0000000000000000e+00 +2.0999999953114394e+00 -1.1574934640204753e-04 +0.0000000000000000e+00 +9.9999999330104405e-01
2.1500000000000004e+00 +8.2848726181890004e+00 +0.0000000000000000e+00 +2.1499999949684501e+00 -1.1850638497387410e-04 +0.0000000000000000e+00 +9.9999999297811804e-01
2.2000000000000002e+00 +8.2848666239421345e+00 +0.0000000000000000e+00 +2.1999999946091244e+00 -1.2126350307358624e-04 +0.0000000000000000e+00 +9.9999999264758110e-01
2.2500000000000000e+00 +8.2848604918373372e+00 +0.0000000000000000e+00 +2.2499999942330815e+00 -1.2402070256582363e-04 +0.0000000000000000e+00 +9.9999999230943237e-01
2.2999999999999998e+00 +8.2848542218704910e+00 +0.0000000000000000e+00 +2.2999999938399407e+00 -1.2677798530397205e-04 +0.0000000000000000e+00 +9.9999999196367095e-01
2.3499999999999996e+00 +8.2848478140373878e+00 +0.0000000000000000e+00 +2.3499999934293214e+00 -1.2953535313016352e-04 +0.0000000000000000e+00 +9.9999999161029585e-01
2.3999999999999995e+00 +8.2848412683337287e+00 +0.0000000000000000e+00 +2.3999999930008431e+00 -1.3229280787527633e-04 +0.0000000000000000e+00 +9.9999999124930616e-01
2.4499999999999993e+00 +8.2848345847551208e+00 +0.0000000000000000e+00 +2.4499999925541251e+00 -1.3505035135893503e-04 +0.0000000000000000e+00 +9.9999999088070102e-01
2.4999999999999991e+00 +8.2848277632970824e+00 +0.0000000000000000e+00 +2.4999999920887865e+00 -1.3780798538951059e-04 +0.0000000000000000e+00 +9.9999999050447930e-01
2.5499999999999989e+00 +8.2848208039550428e+00 +0.0000000000000000e+00 +2.5499999916044462e+00 -1.4056571176412043e-04 +0.0000000000000000e+00 +9.9999999012064000e-01
2.5999999999999988e+00 +8.2848137067243375e+00 +0.0000000000000000e+00 +2.5999999911007237e+00 -1.4332353226862842e-04 +0.0000000000000000e+00 +9.9999998972918225e-01
2.6499999999999986e+00 +8.2848064716002163e+00 +0.0000000000000000e+00 +2.6499999905772378e+00 -1.4608144867764498e-04 +0.0000000000000000e+00 +9.9999998933010492e-01
2.6999999999999984e+00 +8.2847990985778406e+00 +0.0000000000000000e+00 +2.6999999900336071e+00 -1.4883946275452714e-04 +0.0000000000000000e+00 +9.9999998892340691e-01
2.7499999999999982e+00 +8.2847915876522826e+00 +0.0000000000000000e+00 +2.7499999894694511e+00 -1.5159757625137857e-04 +0.0000000000000000e+00 +9.9999998850908722e-01
2.7999999999999980e+00 +8.2847839388185296e+00 +0.0000000000000000e+00 +2.7999999888843887e+00 -1.5435579090904966e-04 +0.0000000000000000e+00 +9.9999998808714474e-01
2.8499999999999979e+00 +8.2847761520714780e+00 +0.0000000000000000e+00 +2.8499999882780385e+00 -1.5711410845713750e-04 +0.0000000000000000e+00 +9.9999998765757825e-01
2.8999999999999977e+00 +8.2847682274059409e+00 +0.0000000000000000e+00 +2.8999999876500193e+00 -1.5987253061398605e-04 +0.0000000000000000e+00 +9.9999998722038674e-01
2.9499999999999975e+00 +8.2847601648166442e+00 +0.0000000000000000e+00 +2.9499999869999498e+00 -1.6263105908668603e-04 +0.0000000000000000e+00 +9.9999998677556912e-01
2.9999999999999973e+00 +8.2847519642982306e+00 +0.0000000000000000e+00 +2.9999999863274489e+00 -1.6538969557107510e-04 +0.0000000000000000e+00 +9.9999998632312415e-01
3.0499999999999972e+00 +8.2847436258452589e+00 +0.0000000000000000e+00 +3.0499999856321351e+00 -1.6814844175173785e-04 +0.0000000000000000e+00 +9.9999998586305061e-01
3.0999999999999970e+00 +8.2847351494521995e+00 +0.0000000000000000e+00 +3.0999999849136270e+00 -1.7090729930200585e-04 +0.0000000000000000e+00 +9.9999998539534740e-01
3.1499999999999968e+00 +8.2847265351134443e+00 +0.0000000000000000e+00 +3.1499999841715427e+00 -1.7366626988395768e-04 +0.0000000000000000e+00 +9.9999998492001319e-01
3.1999999999999966e+00 +8.2847177828233001e+00 +0.0000000000000000e+00 +3.1999999834055011e+00 -1.7642535514841899e-04 +0.0000000000000000e+00 +9.9999998443704685e-01
3.2499999999999964e+00 +8.2847088925759902e+00 +0.0000000000000000e+00 +3.2499999826151202e+00 -1.7918455673496250e-04 +0.0000000000000000e+00 +9.9999998394644718e-01
3.2999999999999963e+00 +8.2846998643656597e+00 +0.0000000000000000e+00 +3.2999999818000187e+00 -1.8194387627190812e-04 +0.0000000000000000e+00 +9.9999998344821284e-01
3.3499999999999961e+00 +8.2846906981863704e+00 +0.0000000000000000e+00 +3.3499999809598147e+00 -1.8470331537632286e-04 +0.0000000000000000e+00 +9.9999998294234249e-01
3.3999999999999959e+00 +8.2846813940321020e+00 +0.0000000000000000e+00 +3.3999999800941261e+00 -1.8746287565402103e-04 +0.0000000000000000e+00 +9.9999998242883492e-01
3.4499999999999957e+00 +8.2846719518967582e+00 +0.0000000000000000e+00 +3.4499999792025711e+00 -1.9022255869956411e-04 +0.0000000000000000e+00 +9.9999998190768891e-01
3.4999999999999956e+00 +8.2846623717741590e+00 +0.0000000000000000e+00 +3.4999999782847677e+00 -1.9298236609626091e-04 +0.0000000000000000e+00 +9.9999998137890300e-01
3.5499999999999954e+00 +8.2846526536580498e+00 +0.0000000000000000e+00 +3.5499999773403341e+00 -1.9574229941616753e-04 +0.0000000000000000e+00 +9.9999998084247588e-01
3.5999999999999952e+00 +8.2846427975420927e+00 +0.0000000000000000e+00 +3.5999999763688879e+00 -1.9850236022008743e-04 +0.0000000000000000e+00 +9.9999998029840620e-01
3.6499999999999950e+00 +8.2846328034198766e+00 +0.0000000000000000e+00 +3.6499999753700472e+00 -2.0126255005757142e-04 +0.0000000000000000e+00 +9.9999997974669264e-01
3.6999999999999948e+00 +8.2846226712849109e+00 +0.0000000000000000e+00 +3.6999999743434295e+00 -2.0402287046691770e-04 +0.0000000000000000e+00 +9.9999997918733385e-01
3.7499999999999947e+00 +8.2846124011306284e+00 +0.0000000000000000e+00 +3.7499999732886531e+00 -2.0678332297517193e-04 +0.0000000000000000e+00 +9.9999997862032830e-01
3.7999999999999945e+00 +8.2846019929503871e+00 +0.0000000000000000e+00 +3.7999999722053350e+00 -2.0954390909812720e-04 +0.0000000000000000e+00 +9.9999997804567475e-01
3.8499999999999943e+00 +8.2845914467374673e+00 +0.0000000000000000e+00 +3.8499999710930930e+00 -2.1230463034032412e-04 +0.0000000000000000e+00 +9.9999997746337166e-01
3.8999999999999941e+00 +8.2845807624850760e+00 +0.0000000000000000e+00 +3.8999999699515446e+00 -2.1506548819505073e-04 +0.0000000000000000e+00 +9.9999997687341757e-01
3.9499999999999940e+00 +8.2845699401863460e+00 +0.0000000000000000e+00 +3.9499999687803071e+00 -2.1782648414434266e-04 +0.0000000000000000e+00 +9.9999997627581105e-01
3.9999999999999938e+00 +8.2845589798343351e+00 +0.0000000000000000e+00 +3.9999999675789981e+00 -2.2058761965898307e-04 +0.0000000000000000e+00 +9.9999997567055066e-01
4.0499999999999936e+00 +8.2845478814220286e+00 +0.0000000000000000e+00 +4.0499999663472348e+00 -2.2334889619832050e-04 +0.0000000000000000e+00 +9.9999997505763494e-01
4.0999999999999934e+00 +8.2845366449423405e+00 +0.0000000000000000e+00 +4.0999999650846339e+00 -2.2611031520826537e-04 +0.0000000000000000e+00 +9.9999997443706234e-01
4.1499999999999932e+00 +8.2845252703881105e+00 +0.0000000000000000e+00 +4.1499999637908136e+00 -2.2887187811928634e-04 +0.0000000000000000e+00 +9.9999997380883132e-01
4.1999999999999931e+00 +8.2845137577521069e+00 +0.0000000000000000e+00 +4.1999999624653901e+00 -2.3163358634622810e-04 +0.0000000000000000e+00 +9.9999997317294043e-01
4.2499999999999929e+00 +8.2845021070270306e+00 +0.0000000000000000e+00 +4.2499999611079806e+00 -2.3439544128831151e-04 +0.0000000000000000e+00 +9.9999997252938810e-01
4.2999999999999927e+00 +8.2844903182055099e+00 +0.0000000000000000e+00 +4.2999999597182015e+00 -2.3715744432913348e-04 +0.0000000000000000e+00 +9.9999997187817280e-01
4.3499999999999925e+00 +8.2844783912801070e+00 +0.0000000000000000e+00 +4.3499999582956699e+00 -2.3991959683666703e-04 +0.0000000000000000e+00 +9.9999997121929296e-01
4.3999999999999924e+00 +8.2844663262433134e+00 +0.0000000000000000e+00 +4.3999999568400030e+00 -2.4268190016326122e-04 +0.0000000000000000e+00 +9.9999997055274703e-01
4.4499999999999922e+00 +8.2844541230875546e+00 +0.0000000000000000e+00 +4.4499999553508172e+00 -2.4544435564564124e-04 +0.0000000000000000e+00 +9.9999996987853346e-01
4.4999999999999920e+00 +8.2844417818051905e+00 +0.0000000000000000e+00 +4.4999999538277287e+00 -2.4820696460490837e-04 +0.0000000000000000e+00 +9.9999996919665068e-01
4.5499999999999918e+00 +8.2844293023885136e+00 +0.0000000000000000e+00 +4.5499999522703547e+00 -2.5096972834653990e-04 +0.0000000000000000e+00 +9.9999996850709705e-01
4.5999999999999917e+00 +8.2844166848297540e+00 +0.0000000000000000e+00 +4.5999999506783107e+00 -2.5373264816038919e-04 +0.0000000000000000e+00 +9.9999996780987088e-01
4.6499999999999915e+00 +8.2844039291210745e+00 +0.0000000000000000e+00 +4.6499999490512138e+00 -2.5649572532068560e-04 +0.0000000000000000e+00 +9.9999996710497063e-01
4.6999999999999913e+00 +8.2843910352545773e+00 +0.0000000000000000e+00 +4.6999999473886795e+00 -2.5925896108603460e-04 +0.0000000000000000e+00 +9.9999996639239475e-01
4.7499999999999911e+00 +8.2843780032223009e+00 +0.0000000000000000e+00 +4.7499999456903250e+00 -2.6202235669941761e-04 +0.0000000000000000e+00 +9.9999996567214144e-01
4.7999999999999909e+00 +8.2843648330162232e+00 +0.0000000000000000e+00 +4.7999999439557657e+00 -2.6478591338819203e-04 +0.0000000000000000e+00 +9.9999996494420917e-01
4.8499999999999908e+00 +8.2843515246282582e+00 +0.0000000000000000e+00 +4.8499999421846178e+00 -2.6754963236409133e-04 +0.0000000000000000e+00 +9.9999996420859627e-01
4.8999999999999906e+00 +8.2843380780502613e+00 +0.0000000000000000e+00 +4.8999999403764969e+00 -2.7031351482322479e-04 +0.0000000000000000e+00 +9.9999996346530096e-01
4.9499999999999904e+00 +8.2843244932740312e+00 +0.0000000000000000e+00 +4.9499999385310192e+00 -2.7307756194607777e-04 +0.0000000000000000e+00 +9.9999996271432168e-01
4.9999999999999902e+00 +8.2843107702913041e+00 +0.0000000000000000e+00 +4.9999999366478010e+00 -2.7584177489751137e-04 +0.0000000000000000e+00 +9.9999996195565666e-01
5.0499999999999901e+00 +8.2842969090937597e+00 +0.0000000000000000e+00 +5.0499999347264568e+00 -2.7860615482676272e-04 +0.0000000000000000e+00 +9.9999996118930423e-01
5.0999999999999899e+00 +8.2842829096730206e+00 +0.0000000000000000e+00 +5.0999999327666030e+00 -2.8137070286744472e-04 +0.0000000000000000e+00 +9.9999996041526273e-01
5.1499999999999897e+00 +8.2842687720206527e+00 +0.0000000000000000e+00 +5.1499999307678550e+00 -2.8413542013754609e-04 +0.0000000000000000e+00 +9.9999995963353039e-01
5.1999999999999895e+00 +8.2842544961281686e+00 +0.0000000000000000e+00 +5.1999999287298282e+00 -2.8690030773943141e-04 +0.0000000000000000e+00 +9.9999995884410553e-01
5.2499999999999893e+00 +8.2842400819870221e+00 +0.0000000000000000e+00 +5.2499999266521371e+00 -2.8966536675984096e-04 +0.0000000000000000e+00 +9.9999995804698649e-01
5.2999999999999892e+00 +8.2842255295886176e+00 +0.0000000000000000e+00 +5.2999999245343981e+00 -2.9243059826989076e-04 +0.0000000000000000e+00 +9.9999995724217139e-01
5.3499999999999890e+00 +8.2842108389243023e+00 +0.0000000000000000e+00 +5.3499999223762256e+00 -2.9519600332507254e-04 +0.0000000000000000e+00 +9.9999995642965855e-01
5.3999999999999888e+00 +8.2841960099853740e+00 +0.0000000000000000e+00 +5.3999999201772351e+00 -2.9796158296525367e-04 +0.0000000000000000e+00 +9.9999995560944621e-01
5.4499999999999886e+00 +8.2841810427630787e+00 +0.0000000000000000e+00 +5.4499999179370420e+00 -3.0072733821467711e-04 +0.0000000000000000e+00 +9.9999995478153270e-01
5.4999999999999885e+00 +8.2841659372486092e+00 +0.0000000000000000e+00 +5.4999999156552599e+00 -3.0349327008196146e-04 +0.0000000000000000e+00 +9.9999995394591612e-01
5.5499999999999883e+00 +8.2841506934331104e+00 +0.0000000000000000e+00 +5.5499999133315052e+00 -3.0625937956010077e-04 +0.0000000000000000e+00 +9.9999995310259482e-01
5.5999999999999881e+00 +8.2841353113076774e+00 +0.0000000000000000e+00 +5.5999999109653915e+00 -3.0902566762646457e-04 +0.0000000000000000e+00 +9.9999995225156690e-01
5.6499999999999879e+00 +8.2841197908633557e+00 +0.0000000000000000e+00 +5.6499999085565333e+00 -3.1179213524279794e-04 +0.0000000000000000e+00 +9.9999995139283071e-01
5.6999999999999877e+00 +8.2841041320911444e+00 +0.0000000000000000e+00 +5.6999999061045461e+00 -3.1455878335522129e-04 +0.0000000000000000e+00 +9.9999995052638435e-01
5.7499999999999876e+00 +8.2840883349819965e+00 +0.0000000000000000e+00 +5.7499999036090435e+00 -3.1732561289423035e-04 +0.0000000000000000e+00 +9.9999994965222605e-01
5.7999999999999874e+00 +8.2840723995268171e+00 +0.0000000000000000e+00 +5.7999999010696399e+00 -3.2009262477469624e-04 +0.0000000000000000e+00 +9.9999994877035414e-01
5.8499999999999872e+00 +8.2840563257164650e+00 +0.0000000000000000e+00 +5.8499998984859500e+00 -3.2285981989586517e-04 +0.0000000000000000e+00 +9.9999994788076663e-01
5.8999999999999870e+00 +8.2840401135417583e+00 +0.0000000000000000e+00 +5.8999998958575883e+00 -3.2562719914135867e-04 +0.0000000000000000e+00 +9.9999994698346184e-01
