# field on trajectory
# s[mm] rx[mm] ry[mm] rz[mm] bx[T] by[T] bz[T]
-0.0000000000000000e+00 +8.5270000000000206e+00 +0.0000000000000000e+00 -0.0000000000000000e+00 -2.9624748198039594e-02 -5.5185862905796734e-01 +4.9633321895771066e-03
-5.0000000000000003e-02 +8.5269999273587000e+00 +0.0000000000000000e+00 -5.1282051281982703e-02 -2.9624112884085344e-02 -5.5185986242853069e-01 +4.9652142447710133e-03
-1.0000000000000001e-01 +8.5269997094401297e+00 +0.0000000000000000e+00 -1.0256410256355400e-01 -2.9623499710495209e-02 -5.5186146767610389e-01 +4.9671091073365137e-03
-1.4999999999999999e-01 +8.5269993462388793e+00 +0.0000000000000000e+00 -1.5384615384430200e-01 -2.9622908631723774e-02 -5.5186344387277098e-01 +4.9690165863773552e-03
-2.0000000000000001e-01 +8.5269988377622195e+00 +0.0000000000000000e+00 -2.0512820512381499e-01 -2.9622339602221600e-02 -5.5186579009054249e-01 +4.9709364909970091e-03
-2.5000000000000000e-01 +8.5269981840028795e+00 +0.0000000000000000e+00 -2.5641025640168202e-01 -2.9621792576445486e-02 -5.5186850540155252e-01 +4.9728686303002799e-03
-2.9999999999999999e-01 +8.5269973849644902e+00 +0.0000000000000000e+00 -3.0769230767749101e-01 -2.9621267508848796e-02 -5.5187158887787280e-01 +4.9748128133917787e-03
-3.4999999999999998e-01 +8.5269964406470500e+00 +0.0000000000000000e+00 -3.5897435895083102e-01 -2.9620764353887018e-02 -5.5187503959161932e-01 +4.9767688493767871e-03
-4.0000000000000002e-01 +8.5269953510505694e+00 +0.0000000000000000e+00 -4.1025641022129000e-01 -2.9620283066016374e-02 -5.5187885661492531e-01 +4.9787365473610394e-03
-4.5000000000000001e-01 +8.5269941161714105e+00 +0.0000000000000000e+00 -4.6153846148845601e-01 -2.9619823599695141e-02 -5.5188303901996771e-01 +4.9807157164509248e-03
-5.0000000000000000e-01 +8.5269927360132005e+00 +0.0000000000000000e+00 -5.1282051275191798e-01 -2.9619385909379580e-02 -5.5188758587888753e-01 +4.9827061657528289e-03
-5.5000000000000004e-01 +8.5269912105795793e+00 +0.0000000000000000e+00 -5.6410256401126402e-01 -2.9618969949526650e-02 -5.5189249626384285e-01 +4.9847077043735644e-03
-5.9999999999999998e-01 +8.5269895398632798e+00 +0.0000000000000000e+00 -6.1538461526608301e-01 -2.9618575674598118e-02 -5.5189776924708789e-01 +4.9867201414210182e-03
-6.5000000000000002e-01 +8.5269877238679292e+00 +0.0000000000000000e+00 -6.6666666651596296e-01 -2.9618203039052340e-02 -5.5190340390081416e-01 +4.9887432860028381e-03
-6.9999999999999996e-01 +8.5269857625899004e+00 +0.0000000000000000e+00 -7.1794871776049296e-01 -2.9617851997351129e-02 -5.5190939929728278e-01 +4.9907769472275140e-03
-7.5000000000000000e-01 +8.5269836560364602e+00 +0.0000000000000000e+00 -7.6923076899926102e-01 -2.9617522503952807e-02 -5.5191575450869190e-01 +4.9928209342032775e-03
-8.0000000000000004e-01 +8.5269814042003400e+00 +0.0000000000000000e+00 -8.2051282023185501e-01 -2.9617214513321905e-02 -5.5192246860736138e-01 +4.9948750560396306e-03
-8.4999999999999998e-01 +8.5269790070851705e+00 +0.0000000000000000e+00 -8.7179487145786405e-01 -2.9616927979919522e-02 -5.5192954066554845e-01 +4.9969391218458066e-03
-9.0000000000000002e-01 +8.5269764646909607e+00 +0.0000000000000000e+00 -9.2307692267687602e-01 -2.9616662858208763e-02 -5.5193696975555295e-01 +4.9990129407316303e-03
-9.4999999999999996e-01 +8.5269737770140601e+00 +0.0000000000000000e+00 -9.7435897388848103e-01 -2.9616419102654796e-02 -5.5194475494971640e-01 +5.0010963218075277e-03
-1.0000000000000000e+00 +8.5269709440617607e+00 +0.0000000000000000e+00 -1.0256410250922601e+00 -2.9616196667719325e-02 -5.5195289532031744e-01 +5.0031890741836175e-03
-1.0500000000000000e+00 +8.5269679658304103e+00 +0.0000000000000000e+00 -1.0769230762878199e+00 -2.9615995507868812e-02 -5.5196138993972932e-01 +5.0052910069710551e-03
-1.1000000000000001e+00 +8.5269648423163709e+00 +0.0000000000000000e+00 -1.1282051274747300e+00 -2.9615815577570408e-02 -5.5197023788034094e-01 +5.0074019292813366e-03
-1.1499999999999999e+00 +8.5269615735232893e+00 +0.0000000000000000e+00 -1.1794871786525800e+00 -2.9615656831289118e-02 -5.5197943821450424e-01 +5.0095216502258656e-03
-1.2000000000000000e+00 +8.5269581594511692e+00 +0.0000000000000000e+00 -1.2307692298209700e+00 -2.9615519223491989e-02 -5.5198899001461177e-01 +5.0116499789166066e-03
-1.2500000000000000e+00 +8.5269546000999998e+00 +0.0000000000000000e+00 -1.2820512809794800e+00 -2.9615402708646675e-02 -5.5199889235307187e-01 +5.0137867244658511e-03
-1.3000000000000000e+00 +8.5269508954661397e+00 +0.0000000000000000e+00 -1.3333333321277101e+00 -2.9615307241222879e-02 -5.5200914430233494e-01 +5.0159316959864451e-03
-1.3500000000000001e+00 +8.5269470455568808e+00 +0.0000000000000000e+00 -1.3846153832652299e+00 -2.9615232775686777e-02 -5.5201974493478623e-01 +5.0180847025908838e-03
-1.3999999999999999e+00 +8.5269430503649293e+00 +0.0000000000000000e+00 -1.4358974343916400e+00 -2.9615179266510659e-02 -5.5203069332293153e-01 +5.0202455533928571e-03
-1.4500000000000000e+00 +8.5269389098939392e+00 +0.0000000000000000e+00 -1.4871794855065199e+00 -2.9615146668163322e-02 -5.5204198853921216e-01 +5.0224140575057018e-03
-1.5000000000000000e+00 +8.5269346241439106e+00 +0.0000000000000000e+00 -1.5384615366094700e+00 -2.9615134935115528e-02 -5.5205362965611038e-01 +5.0245900240432715e-03
-1.5500000000000000e+00 +8.5269301931148203e+00 +0.0000000000000000e+00 -1.5897435877000701e+00 -2.9615144021838666e-02 -5.5206561574612267e-01 +5.0267732621197088e-03
-1.6000000000000001e+00 +8.5269256168030605e+00 +0.0000000000000000e+00 -1.6410256387779201e+00 -2.9615173882806087e-02 -5.5207794588178660e-01 +5.0289635808496705e-03
-1.6499999999999999e+00 +8.5269208952158806e+00 +0.0000000000000000e+00 -1.6923076898425899e+00 -2.9615224472487638e-02 -5.5209061913557411e-01 +5.0311607893474136e-03
-1.7000000000000000e+00 +8.5269160283460206e+00 +0.0000000000000000e+00 -1.7435897408936800e+00 -2.9615295745359226e-02 -5.5210363458007750e-01 +5.0333646967283636e-03
-1.7500000000000000e+00 +8.5269110161934805e+00 +0.0000000000000000e+00 -1.7948717919307799e+00 -2.9615387655894599e-02 -5.5211699128784941e-01 +5.0355751121077706e-03
-1.8000000000000000e+00 +8.5269058587655309e+00 +0.0000000000000000e+00 -1.8461538429534701e+00 -2.9615500158565351e-02 -5.5213068833140377e-01 +5.0377918446006765e-03
-1.8500000000000001e+00 +8.5269005560585391e+00 +0.0000000000000000e+00 -1.8974358939613500e+00 -2.9615633207847748e-02 -5.5214472478334720e-01 +5.0400147033230654e-03
-1.8999999999999999e+00 +8.5268951080688602e+00 +0.0000000000000000e+00 -1.9487179449540000e+00 -2.9615786758218673e-02 -5.5215909971630017e-01 +5.0422434973911535e-03
-1.9500000000000000e+00 +8.5268895148037700e+00 +0.0000000000000000e+00 -1.9999999959310100e+00 -2.9615960764151419e-02 -5.5217381220281692e-01 +5.0444780359207254e-03
-2.0000000000000000e+00 +8.5268838253941794e+00 +0.0000000000000000e+00 -2.0508474532398102e+00 -2.9616153444618112e-02 -5.5218873217937581e-01 +5.0466991296663731e-03
-2.0499999999999998e+00 +8.5268779929429002e+00 +0.0000000000000000e+00 -2.1016949105324101e+00 -2.9616366132382558e-02 -5.5220398105603086e-01 +5.0489255467801751e-03
-2.1000000000000001e+00 +8.5268720174499304e+00 +0.0000000000000000e+00 -2.1525423678083899e+00 -2.9616598769089671e-02 -5.5221955678647150e-01 +5.0511571507684287e-03
-2.1499999999999999e+00 +8.5268658989189099e+00 +0.0000000000000000e+00 -2.2033898250673700e+00 -2.9616851296384233e-02 -5.5223545732437240e-01 +5.0533938051372605e-03
-2.2000000000000002e+00 +8.5268596373498404e+00 +0.0000000000000000e+00 -2.2542372823089400e+00 -2.9617123655913548e-02 -5.5225168062344410e-01 +5.0556353733930501e-03
-2.2500000000000000e+00 +8.5268532327390893e+00 +0.0000000000000000e+00 -2.3050847395326799e+00 -2.9617415789327549e-02 -5.5226822463743552e-01 +5.0578817190424299e-03
-2.2999999999999998e+00 +8.5268466850902804e+00 +0.0000000000000000e+00 -2.3559321967382099e+00 -2.9617727638274732e-02 -5.5228508732005255e-01 +5.0601327055915905e-03
-2.3500000000000001e+00 +8.5268399943961395e+00 +0.0000000000000000e+00 -2.4067796539251201e+00 -2.9618059144408942e-02 -5.5230226662509041e-01 +5.0623881965473818e-03
-2.3999999999999999e+00 +8.5268331606675893e+00 +0.0000000000000000e+00 -2.4576271110930099e+00 -2.9618410249378523e-02 -5.5231976050622178e-01 +5.0646480554154948e-03
-2.4500000000000002e+00 +8.5268261838973594e+00 +0.0000000000000000e+00 -2.5084745682414700e+00 -2.9618780894840040e-02 -5.5233756691726188e-01 +5.0669121457027223e-03
-2.5000000000000000e+00 +8.5268190640890698e+00 +0.0000000000000000e+00 -2.5593220253701001e+00 -2.9619171022447335e-02 -5.5235568381195566e-01 +5.0691803309151151e-03
-2.5499999999999998e+00 +8.5268118012427294e+00 +0.0000000000000000e+00 -2.6101694824785100e+00 -2.9619580573857062e-02 -5.5237410914408380e-01 +5.0714524745588798e-03
-2.6000000000000001e+00 +8.5268043953510606e+00 +0.0000000000000000e+00 -2.6610169395662799e+00 -2.9620009490730077e-02 -5.5239284086748985e-01 +5.0737284401406015e-03
-2.6499999999999999e+00 +8.5267968464213499e+00 +0.0000000000000000e+00 -2.7118643966330200e+00 -2.9620457714723200e-02 -5.5241187693591898e-01 +5.0760080911658387e-03
-2.7000000000000002e+00 +8.5267891544535797e+00 +0.0000000000000000e+00 -2.7627118536783102e+00 -2.9620925187497531e-02 -5.5243121530317885e-01 +5.0782912911405027e-03
-2.7500000000000000e+00 +8.5267813194441295e+00 +0.0000000000000000e+00 -2.8135593107017698e+00 -2.9621411850717125e-02 -5.5245085392311177e-01 +5.0805779035705918e-03
-2.7999999999999998e+00 +8.5267733413966198e+00 +0.0000000000000000e+00 -2.8644067677029899e+00 -2.9621917646044847e-02 -5.5247079074951577e-01 +5.0828677919615107e-03
-2.8500000000000001e+00 +8.5267652203074196e+00 +0.0000000000000000e+00 -2.9152542246815600e+00 -2.9622442515147913e-02 -5.5249102373624936e-01 +5.0851608198189567e-03
-2.8999999999999999e+00 +8.5267569561765395e+00 +0.0000000000000000e+00 -2.9661016816370900e+00 -2.9622986399693838e-02 -5.5251155083715286e-01 +5.0874568506482148e-03
-2.9500000000000002e+00 +8.5267485490112396e+00 +0.0000000000000000e+00 -3.0169491385691698e+00 -2.9623549241349047e-02 -5.5253237000602085e-01 +5.0897557479539215e-03
-3.0000000000000000e+00 +8.5267399988042598e+00 +0.0000000000000000e+00 -3.0677965954773900e+00 -2.9624130981787185e-02 -5.5255347919676157e-01 +5.0920573752414383e-03
-3.0499999999999998e+00 +8.5267313055555896e+00 +0.0000000000000000e+00 -3.1186440523613599e+00 -2.9624731562680879e-02 -5.5257487636323732e-01 +5.0943615960154266e-03
-3.1000000000000001e+00 +8.5267224692688597e+00 +0.0000000000000000e+00 -3.1694915092206801e+00 -2.9625350925703172e-02 -5.5259655945929131e-01 +5.0966682737800910e-03
-3.1499999999999999e+00 +8.5267134899368102e+00 +0.0000000000000000e+00 -3.2203389660549400e+00 -2.9625989012533015e-02 -5.5261852643885290e-01 +5.0989772720400773e-03
-3.2000000000000002e+00 +8.5267043675703498e+00 +0.0000000000000000e+00 -3.2711864228637300e+00 -2.9626645764844306e-02 -5.5264077525572475e-01 +5.1012884542985960e-03
-3.2500000000000000e+00 +8.5266951021658297e+00 +0.0000000000000000e+00 -3.3220338796466700e+00 -2.9627321124318366e-02 -5.5266330386382323e-01 +5.1036016840595114e-03
-3.2999999999999998e+00 +8.5266856937196298e+00 +0.0000000000000000e+00 -3.3728813364033301e+00 -2.9628015032638347e-02 -5.5268611021706993e-01 +5.1059168248263906e-03
-3.3500000000000001e+00 +8.5266761422317394e+00 +0.0000000000000000e+00 -3.4237287931333298e+00 -2.9628727431488019e-02 -5.5270919226936666e-01 +5.1082337401022479e-03
-3.3999999999999999e+00 +8.5266664477057894e+00 +0.0000000000000000e+00 -3.4745762498362600e+00 -2.9629458262551697e-02 -5.5273254797459404e-01 +5.1105522933895487e-03
-3.4500000000000002e+00 +8.5266566101381596e+00 +0.0000000000000000e+00 -3.5254237065117100e+00 -2.9630207467518443e-02 -5.5275617528669108e-01 +5.1128723481908642e-03
-3.5000000000000000e+00 +8.5266466295324808e+00 +0.0000000000000000e+00 -3.5762711631592898e+00 -2.9630974988076601e-02 -5.5278007215954927e-01 +5.1151937680079572e-03
-3.5499999999999998e+00 +8.5266365058887494e+00 +0.0000000000000000e+00 -3.6271186197785901e+00 -2.9631760765917947e-02 -5.5280423654709210e-01 +5.1175164163424387e-03
-3.6000000000000001e+00 +8.5266262391996896e+00 +0.0000000000000000e+00 -3.6779660763692101e+00 -2.9632564742739110e-02 -5.5282866640330108e-01 +5.1198401566960117e-03
-3.6499999999999999e+00 +8.5266158294762100e+00 +0.0000000000000000e+00 -3.7288135329307499e+00 -2.9633386860231935e-02 -5.5285335968202942e-01 +5.1221648525687884e-03
-3.6999999999999900e+00 +8.5266052767074108e+00 +0.0000000000000000e+00 -3.7796609894627999e+00 -2.9634227060098682e-02 -5.5287831433729406e-01 +5.1244903674618793e-03
-3.7499999999999898e+00 +8.5265945809042005e+00 +0.0000000000000000e+00 -3.8305084459649699e+00 -2.9635085284035537e-02 -5.5290352832295719e-01 +5.1268165648745536e-03
-3.7999999999999901e+00 +8.5265837420592998e+00 +0.0000000000000000e+00 -3.8813559024368498e+00 -2.9635961473747779e-02 -5.5292899959301800e-01 +5.1291433083067960e-03
-3.8499999999999899e+00 +8.5265727601727104e+00 +0.0000000000000000e+00 -3.9322033588780299e+00 -2.9636855570940195e-02 -5.5295472610142615e-01 +5.1314704612576674e-03
-3.8999999999999901e+00 +8.5265616352480702e+00 +0.0000000000000000e+00 -3.9830508152881201e+00 -2.9637767517318451e-02 -5.5298070580210912e-01 +5.1337978872255125e-03
-3.9499999999999900e+00 +8.5265503672853793e+00 +0.0000000000000000e+00 -4.0338982716667102e+00 -2.9638697243893137e-02 -5.5300693660964872e-01 +5.1361254506692242e-03
-3.9999999999999898e+00 +8.5265389562773599e+00 +0.0000000000000000e+00 -4.0847457280134103e+00 -2.9639644557305757e-02 -5.5303341598094879e-01 +5.1384530272172461e-03
-4.0499999999999901e+00 +8.5265274022313005e+00 +0.0000000000000000e+00 -4.1355931843278002e+00 -2.9640609183950329e-02 -5.5306014107749601e-01 +5.1407804997028626e-03
-4.0999999999999899e+00 +8.5265157051508105e+00 +0.0000000000000000e+00 -4.1864406406094901e+00 -2.9641590848883209e-02 -5.5308710905588210e-01 +5.1431077510793281e-03
-4.1499999999999897e+00 +8.5265038650250098e+00 +0.0000000000000000e+00 -4.2372880968580704e+00 -2.9642589277164438e-02 -5.5311431707280578e-01 +5.1454346643004861e-03
-4.1999999999999904e+00 +8.5264918818611495e+00 +0.0000000000000000e+00 -4.2881355530731398e+00 -2.9643604193845235e-02 -5.5314176228483214e-01 +5.1477611223186039e-03
-4.2499999999999902e+00 +8.5264797556556005e+00 +0.0000000000000000e+00 -4.3389830092543002e+00 -2.9644635323978968e-02 -5.5316944184860628e-01 +5.1500870080862706e-03
-4.2999999999999901e+00 +8.5264674864120007e+00 +0.0000000000000000e+00 -4.3898304654011504e+00 -2.9645682392614153e-02 -5.5319735292072048e-01 +5.1524122045552047e-03
-4.3499999999999899e+00 +8.5264550741303502e+00 +0.0000000000000000e+00 -4.4406779215132799e+00 -2.9646745124798493e-02 -5.5322549265779164e-01 +5.1547365946769518e-03
-4.3999999999999897e+00 +8.5264425188070199e+00 +0.0000000000000000e+00 -4.4915253775902899e+00 -2.9647823245578787e-02 -5.5325385821646311e-01 +5.1570600614028721e-03
-4.4499999999999904e+00 +8.5264298204419902e+00 +0.0000000000000000e+00 -4.5423728336317897e+00 -2.9648916479998070e-02 -5.5328244675335003e-01 +5.1593824876836666e-03
-4.4999999999999902e+00 +8.5264169790425495e+00 +0.0000000000000000e+00 -4.5932202896373502e+00 -2.9650024553094161e-02 -5.5331125542501236e-01 +5.1617037564691045e-03
-4.5499999999999901e+00 +8.5264039945941494e+00 +0.0000000000000000e+00 -4.6440677456066002e+00 -2.9651147189910628e-02 -5.5334028138816937e-01 +5.1640237507099623e-03
-4.5999999999999899e+00 +8.5263908671149693e+00 +0.0000000000000000e+00 -4.6949152015391098e+00 -2.9652284115475873e-02 -5.5336952179929710e-01 +5.1663423533543787e-03
-4.6499999999999897e+00 +8.5263775965941004e+00 +0.0000000000000000e+00 -4.7457626574344998e+00 -2.9653435054826694e-02 -5.5339897381508274e-01 +5.1686594473519601e-03
-4.6999999999999904e+00 +8.5263641830315500e+00 +0.0000000000000000e+00 -4.7966101132923500e+00 -2.9654599732992830e-02 -5.5342863459213143e-01 +5.1709749156511088e-03
-4.7499999999999902e+00 +8.5263506264309399e+00 +0.0000000000000000e+00 -4.8474575691122697e+00 -2.9655777874999772e-02 -5.5345850128701823e-01 +5.1732886411994979e-03
-4.7999999999999901e+00 +8.5263369267886393e+00 +0.0000000000000000e+00 -4.8983050248938502e+00 -2.9656969205872703e-02 -5.5348857105636873e-01 +5.1756005069447880e-03
-4.8499999999999899e+00 +8.5263230841010191e+00 +0.0000000000000000e+00 -4.9491524806366902e+00 -2.9658173450633693e-02 -5.5351884105680460e-01 +5.1779103958341276e-03
-4.8999999999999897e+00 +8.5263090983826295e+00 +0.0000000000000000e+00 -4.9999999363403900e+00 -2.9659390334294679e-02 -5.5354930844481054e-01 +5.1802181908129413e-03
-4.9499999999999904e+00 +8.5262950649157592e+00 +0.0000000000000000e+00 -5.0505049848957304e+00 -2.9660611263499656e-02 -5.5357976325750535e-01 +5.1825082566857505e-03
-4.9999999999999902e+00 +8.5262808896768494e+00 +0.0000000000000000e+00 -5.1010100334114901e+00 -2.9661844121442967e-02 -5.5361040722155419e-01 +5.1847960266093477e-03
-5.0499999999999901e+00 +8.5262665726659197e+00 +0.0000000000000000e+00 -5.1515150818872497e+00 -2.9663088638650126e-02 -5.5364123755059480e-01 +5.1870813858775275e-03
-5.0999999999999899e+00 +8.5262521138793108e+00 +0.0000000000000000e+00 -5.2020201303226203e+00 -2.9664344545644629e-02 -5.5367225145828858e-01 +5.1893642197837868e-03
-5.1499999999999897e+00 +8.5262375133206696e+00 +0.0000000000000000e+00 -5.2525251787172103e+00 -2.9665611572943576e-02 -5.5370344615823797e-01 +5.1916444136205853e-03
-5.1999999999999904e+00 +8.5262227709863492e+00 +0.0000000000000000e+00 -5.3030302270706198e+00 -2.9666889451063182e-02 -5.5373481886409337e-01 +5.1939218526803090e-03
-5.2499999999999902e+00 +8.5262078868836397e+00 +0.0000000000000000e+00 -5.3535352753824403e+00 -2.9668177910511739e-02 -5.5376636678941993e-01 +5.1961964222540392e-03
-5.2999999999999901e+00 +8.5261928610125306e+00 +0.0000000000000000e+00 -5.4040403236522803e+00 -2.9669476681796446e-02 -5.5379808714782974e-01 +5.1984680076327646e-03
-5.3499999999999899e+00 +8.5261776933584805e+00 +0.0000000000000000e+00 -5.4545453718797399e+00 -2.9670785495426167e-02 -5.5382997715303717e-01 +5.2007364941078693e-03
-5.3999999999999897e+00 +8.5261623839360308e+00 +0.0000000000000000e+00 -5.5050504200644301e+00 -2.9672104081894593e-02 -5.5386203401853551e-01 +5.2030017669681752e-03
-5.4499999999999904e+00 +8.5261469327415398e+00 +0.0000000000000000e+00 -5.5555554682059496e+00 -2.9673432171698221e-02 -5.5389425495794509e-01 +5.2052637115031254e-03
-5.4999999999999902e+00 +8.5261313397750200e+00 +0.0000000000000000e+00 -5.6060605163038897e+00 -2.9674769495328022e-02 -5.5392663718485335e-01 +5.2075222130012946e-03
-5.5499999999999901e+00 +8.5261156050328299e+00 +0.0000000000000000e+00 -5.6565655643578596e+00 -2.9676115783271964e-02 -5.5395917791286686e-01 +5.2097771567508793e-03
-5.5999999999999899e+00 +8.5260997285186004e+00 +0.0000000000000000e+00 -5.7070706123674597e+00 -2.9677470766010919e-02 -5.5399187435553165e-01 +5.2120284280389520e-03
-5.6499999999999897e+00 +8.5260837102287006e+00 +0.0000000000000000e+00 -5.7575756603323001e+00 -2.9678834174024022e-02 -5.5402472372643985e-01 +5.2142759121524230e-03
-5.6999999999999904e+00 +8.5260675501704100e+00 +0.0000000000000000e+00 -5.8080807082519703e+00 -2.9680205737781663e-02 -5.5405772323909441e-01 +5.2165194943768131e-03
-5.7499999999999902e+00 +8.5260512483400799e+00 +0.0000000000000000e+00 -5.8585857561260797e+00 -2.9681585187753781e-02 -5.5409087010707181e-01 +5.2187590599977150e-03
-5.7999999999999901e+00 +8.5260348047340795e+00 +0.0000000000000000e+00 -5.9090908039542303e+00 -2.9682972254405516e-02 -5.5412416154393973e-01 +5.2209944943000536e-03
-5.8499999999999899e+00 +8.5260182193524106e+00 +0.0000000000000000e+00 -5.9595958517360303e+00 -2.9684366668195808e-02 -5.5415759476322990e-01 +5.2232256825678162e-03
