# multipoles
# s[mm] polynom_b[n=0][T/m^n] polynom_b[n=1][T/m^n] polynom_b[n=2][T/m^n] polynom_b[n=3][T/m^n] polynom_b[n=4][T/m^n] polynom_b[n=5][T/m^n] polynom_b[n=6][T/m^n] 
+0.0000000000000000e+00 -5.8079845099758365e-01 +7.6024889530121165e+00 +6.1338690983437676e+00 -3.4326381249018674e+00 +2.2818563153751197e+03 -4.0495581063301832e+05 -1.5077815109863548e+07 
-5.0000000000000003e-02 -5.8079699539472596e-01 +7.6023594582101977e+00 +6.1380532871322044e+00 -3.6723375392326969e+00 +2.2779529489973561e+03 -4.0291970321440761e+05 -1.5129470177664721e+07 
-1.0000000000000001e-01 -5.8079591838287559e-01 +7.6022497053263391e+00 +6.1420018298041885e+00 -3.8913804828930005e+00 +2.2676289401760573e+03 -4.0094677709299145e+05 -1.5140105882294597e+07 
-1.5000000000000002e-01 -5.8079521949530222e-01 +7.6021596799914795e+00 +6.1457082685893258e+00 -4.0899168470802643e+00 +2.2510812900967476e+03 -3.9903839765470603e+05 -1.5110900477122914e+07 
-2.0000000000000001e-01 -5.8079489826535291e-01 +7.6020893678428099e+00 +6.1491661565438118e+00 -4.2680967332596218e+00 +2.2285067024257464e+03 -3.9719592863307154e+05 -1.5043030183414707e+07 
-2.5000000000000000e-01 -5.8079495422634286e-01 +7.6020387545100823e+00 +6.1523690378796791e+00 -4.4260699325615134e+00 +2.2001021217751154e+03 -3.9542073620552005e+05 -1.4937672862574713e+07 
-2.9999999999999999e-01 -5.8079538691161914e-01 +7.6020078256307215e+00 +6.1553104597130694e+00 -4.5639864849511191e+00 +2.1660644094294435e+03 -3.9371418465826561e+05 -1.4796005795374176e+07 
-3.4999999999999998e-01 -5.8079619585456477e-01 +7.6019965668388396e+00 +6.1579839715141427e+00 -4.6819962917532782e+00 +2.1265903719814696e+03 -3.9207763930533855e+05 -1.4619205928902593e+07 
-3.9999999999999997e-01 -5.8079738058855257e-01 +7.6020049637716438e+00 +6.1603831191037024e+00 -4.7802493282618785e+00 +2.0818769014685149e+03 -3.9051246495208197e+05 -1.4408450737994919e+07 
-4.4999999999999996e-01 -5.8079894064697868e-01 +7.6020330020628739e+00 +6.1625014486964007e+00 -4.8588954220819458e+00 +2.0321208834381498e+03 -3.8902002752385824e+05 -1.4164917670257209e+07 
-4.9999999999999994e-01 -5.8080087556326465e-01 +7.6020806673513874e+00 +6.1643325082282949e+00 -4.9180845486037770e+00 +1.9775191565932355e+03 -3.8760169186574453e+05 -1.3889783858487554e+07 
-5.4999999999999993e-01 -5.8080318487085569e-01 +7.6021479452737175e+00 +6.1658698464592918e+00 -4.9579665829976483e+00 +1.9182685365850100e+03 -3.8625882355140458e+05 -1.3584226275039950e+07 
-5.9999999999999998e-01 -5.8080586810319190e-01 +7.6022348214686808e+00 +6.1671070083057025e+00 -4.9786914521036403e+00 +1.8545659428761128e+03 -3.8499278779622796e+05 -1.3249422596752010e+07 
-6.5000000000000002e-01 -5.8080892479374735e-01 +7.6023412815746871e+00 +6.1680375416305822e+00 -4.9804090372913965e+00 +1.7866082147621978e+03 -3.8380495018139540e+05 -1.2886549955970615e+07 
-7.0000000000000007e-01 -5.8081235447600643e-01 +7.6024673112306527e+00 +6.1686549934465251e+00 -4.9632692098819451e+00 +1.7145922095174599e+03 -3.8269667639227409e+05 -1.2496785588436130e+07 
-7.5000000000000011e-01 -5.8081615668346509e-01 +7.6026128960765291e+00 +6.1689529096116358e+00 -4.9274218583387404e+00 +1.6387148173618052e+03 -3.8166933196169895e+05 -1.2081306960501004e+07 
-8.0000000000000016e-01 -5.8082033094965002e-01 +7.6027780217511687e+00 +6.1689248376523818e+00 -4.8730167924226864e+00 +1.5591728882920554e+03 -3.8072428310289641e+05 -1.1641291281791959e+07 
-8.5000000000000020e-01 -5.8082487680810024e-01 +7.6029626738988139e+00 +6.1685643254162388e+00 -4.8002040178015299e+00 +1.4761632551179102e+03 -3.7986289440218254e+05 -1.1177915619373061e+07 
-9.0000000000000024e-01 -5.8082979379236521e-01 +7.6031668381598596e+00 +6.1678649188154857e+00 -4.7091333413272034e+00 +1.3898828070218685e+03 -3.7908653214766632e+05 -1.0692357432896467e+07 
-9.5000000000000029e-01 -5.8083508143600349e-01 +7.6033905001761841e+00 +6.1668201629377775e+00 -4.5999546252043686e+00 +1.3005284507721619e+03 -3.7839656208876905e+05 -1.0185794285235949e+07 
-1.0000000000000002e+00 -5.8084073927262014e-01 +7.6036336455932831e+00 +6.1654236072963702e+00 -4.4728178288361624e+00 +1.2082969791817309e+03 -3.7779434927485231e+05 -9.6594029872693121e+06 
-1.0500000000000003e+00 -5.8084676683581160e-01 +7.6038962600517035e+00 +6.1636687973808337e+00 -4.3278726933579019e+00 +1.1133852887358964e+03 -3.7728126050693507e+05 -9.1143610325463712e+06 
-1.1000000000000003e+00 -5.8085316365918316e-01 +7.6041783291993488e+00 +6.1615492772890557e+00 -4.1652692266540825e+00 +1.0159903156672912e+03 -3.7685866043592646e+05 -8.5518461939496882e+06 
-1.1500000000000004e+00 -5.8085992927638819e-01 +7.6044798386795192e+00 +6.1590585965852602e+00 -3.9851572264870732e+00 +9.1630884376294830e+02 -3.7652791542474495e+05 -7.9730351902482416e+06 
-1.2000000000000004e+00 -5.8086706322107373e-01 +7.6048007741387478e+00 +6.1561903003823977e+00 -3.7876865936749993e+00 +8.1453778505485195e+02 -3.7629039100304747e+05 -7.3791056416602526e+06 
-1.2500000000000004e+00 -5.8087456502691681e-01 +7.6051411212245696e+00 +6.1529379365433092e+00 -3.5730072382066158e+00 +7.1087396768729900e+02 -3.7614745265878661e+05 -6.7712345599493757e+06 
-1.3000000000000005e+00 -5.8088243422758901e-01 +7.6055008655842222e+00 +6.1492950484761293e+00 -3.3412690397026861e+00 +6.0551434845368829e+02 -3.7610046610142692e+05 -6.1505998590731928e+06 
-1.3500000000000005e+00 -5.8089067035680464e-01 +7.6058799928653338e+00 +6.1452551847604981e+00 -3.0926218547156066e+00 +4.9865573722792357e+02 -3.7615079729802540e+05 -5.5183784321771627e+06 
-1.4000000000000006e+00 -5.8089927294827681e-01 +7.6062784887178960e+00 +6.1408118902611681e+00 -2.8272156184979536e+00 +3.9049504858728119e+02 -3.7629981153442280e+05 -4.8757478931876160e+06 
-1.4500000000000006e+00 -5.8090824153574105e-01 +7.6066963387907620e+00 +6.1359587112637035e+00 -2.5452001996206017e+00 +2.8122915656830139e+02 -3.7654887463626324e+05 -4.2238855758055989e+06 
-1.5000000000000007e+00 -5.8091757565294944e-01 +7.6071335287364388e+00 +6.1306891938763970e+00 -2.2467255689086234e+00 +1.7105493739896426e+02 -3.7689935168986634e+05 -3.5639688141593719e+06 
-1.5500000000000007e+00 -5.8092727483367057e-01 +7.6075900442052671e+00 +6.1249968836680768e+00 -1.9319416120736967e+00 +6.0169291770690457e+01 -3.7735260836751293e+05 -2.8971751466632779e+06 
-1.6000000000000008e+00 -5.8093733861169361e-01 +7.6080658708496296e+00 +6.1188753274583796e+00 -1.6009982504342088e+00 -5.1230924488539571e+01 -3.7791001015603461e+05 -2.2246817613108945e+06 
-1.6500000000000008e+00 -5.8094776652081581e-01 +7.6085609943234322e+00 +6.1123180704378139e+00 -1.2540454476870027e+00 -1.6294880609609589e+02 -3.7857292217602691e+05 -1.5476662029331333e+06 
-1.7000000000000008e+00 -5.8095855809485464e-01 +7.6090754002806875e+00 +6.1053186581881924e+00 -8.9123314636178252e-01 -2.7478745954976375e+02 -3.7934270974030916e+05 -8.6730592645108164e+05 
-1.7500000000000009e+00 -5.8096971286764498e-01 +7.6096090743754141e+00 +6.0978706366354718e+00 -5.1271127477210110e-01 -3.8655000015791194e+02 -3.8022073824680707e+05 -1.8477833075797939e+05 
-1.8000000000000009e+00 -5.8098123037303084e-01 +7.6101620022644250e+00 +6.0899675503751185e+00 -1.1862983614948114e-01 -4.9803950812792675e+02 -3.8120837255124433e+05 +4.9873895446606085e+05 
-1.8500000000000010e+00 -5.8099311014488930e-01 +7.6107341696034192e+00 +6.0816029466474744e+00 +2.9086122194513331e-01 -6.0905913185316774e+02 -3.8230697791724507e+05 +1.1820687517928234e+06 
-1.9000000000000010e+00 -5.8100535171709744e-01 +7.6113255620507934e+00 +6.0727703698960331e+00 +7.1561188505548279e-01 -7.1941194683013430e+02 -3.8351791915637051e+05 +1.8640334024619600e+06 
-1.9500000000000011e+00 -5.8101795462355521e-01 +7.6119361652646358e+00 +6.0634633656515762e+00 +1.1554721570944324e+00 -8.2890105606981558e+02 -3.8484256115199847e+05 +2.5434554284503642e+06 
-2.0000000000000009e+00 -5.8103091839816090e-01 +7.6125659649051727e+00 +6.0536754764059770e+00 +1.6102919842724139e+00 -9.3732948228642215e+02 -3.8628226836804318e+05 +3.2191568206198337e+06 
-2.0500000000000007e+00 -5.8104424233884344e-01 +7.6132149293462765e+00 +6.0434015518971060e+00 +2.0797920392187574e+00 -1.0445197375376938e+03 -3.8783693356382375e+05 +3.8900505435160385e+06 
-2.1000000000000005e+00 -5.8105792479968499e-01 +7.6138829513178194e+00 +6.0326421770642860e+00 +2.5631576995728493e+00 -1.1503695494384253e+03 -3.8950044102189160e+05 +4.5553795471794596e+06 
-2.1500000000000004e+00 -5.8107196389890936e-01 +7.6145699030202012e+00 +6.0213995203689583e+00 +3.0594346048870729e+00 -1.2547950579932406e+03 -3.9126513705703145e+05 +5.2144627584179249e+06 
-2.2000000000000002e+00 -5.8108635775476036e-01 +7.6152756566579614e+00 +6.0096757512310361e+00 +3.5676682491695844e+00 -1.3577124259945047e+03 -3.9312336682921788e+05 +5.8666192494566618e+06 
-2.2500000000000000e+00 -5.8110110448548802e-01 +7.6160000844300377e+00 +5.9974730380627292e+00 +4.0869043658847843e+00 -1.4590377901375075e+03 -3.9506747743403882e+05 +6.5111679185635233e+06 
-2.2999999999999998e+00 -5.8111620220935289e-01 +7.6167430585389964e+00 +5.9847935489404023e+00 +4.6161885512165917e+00 -1.5586872793355860e+03 -3.9708981480307621e+05 +7.1474276156026758e+06 
-2.3499999999999996e+00 -5.8113164904465175e-01 +7.6175044511897489e+00 +5.9716394559846346e+00 +5.1545663405494668e+00 -1.6565771286748279e+03 -3.9918272445138462e+05 +7.7747178950087652e+06 
-2.3999999999999995e+00 -5.8114744310966471e-01 +7.6182841345834476e+00 +5.9580129261318309e+00 +5.7010834109698276e+00 -1.7526234330696116e+03 -4.0133855293380545e+05 +8.3923573621086311e+06 
-2.4499999999999993e+00 -5.8116358252269840e-01 +7.6190819809250518e+00 +5.9439161288415505e+00 +6.2547853132275772e+00 -1.8467423546053064e+03 -4.0354964580123127e+05 +8.9996650694136899e+06 
-2.4999999999999991e+00 -5.8118006540207490e-01 +7.6198978624183784e+00 +5.9293512345483244e+00 +6.8147176606581388e+00 -1.9388500858778878e+03 -4.0580834913447383e+05 +9.5959602933215443e+06 
-2.5499999999999989e+00 -5.8119688986611606e-01 +7.6207316512690575e+00 +5.9143204111337386e+00 +7.3799259930559833e+00 -2.0288627430345259e+03 -4.0810700832934043e+05 +1.0180561758449227e+07 
-2.5999999999999988e+00 -5.8121405403317683e-01 +7.6215832196842692e+00 +5.8988258302913952e+00 +7.9494558047272843e+00 -2.1166965477357057e+03 -4.1043796842329873e+05 +1.0752788915363524e+07 
-2.6499999999999986e+00 -5.8123155602159926e-01 +7.6224524398671294e+00 +5.8828696596550110e+00 +8.5223527728102191e+00 -2.2022676107949992e+03 -4.1279357594966359e+05 +1.1311960454698833e+07 
-2.6999999999999984e+00 -5.8124939394975195e-01 +7.6233391840258244e+00 +5.8664540695886638e+00 +9.0976623655173157e+00 -2.2854921189265601e+03 -4.1516617566144111e+05 +1.1857395590640109e+07 
-2.7499999999999982e+00 -5.8126756593601314e-01 +7.6242433243656551e+00 +5.8495812299883667e+00 +9.6744301914012336e+00 -2.3662862403898012e+03 -4.1754811348759697e+05 +1.2388413383869804e+07 
-2.7999999999999980e+00 -5.8128607009877409e-01 +7.6251647330971206e+00 +5.8322533111703665e+00 +1.0251701652046302e+01 -2.4445661560121416e+03 -4.1993173361897754e+05 +1.2904332985831777e+07 
-2.8499999999999979e+00 -5.8130490455643291e-01 +7.6261032824247765e+00 +5.8144724832839421e+00 +1.0828522393594030e+01 -2.5202480456414683e+03 -4.2230938220225961e+05 +1.3404473549769694e+07 
-2.8999999999999977e+00 -5.8132406742740095e-01 +7.6270588445577321e+00 +5.7962409162258952e+00 +1.1403937901493711e+01 -2.5932480720441013e+03 -4.2467340410407487e+05 +1.3888154073312677e+07 
-2.9499999999999975e+00 -5.8134355683009986e-01 +7.6280312917048576e+00 +5.7775607803256772e+00 +1.1976993660416522e+01 -2.6634824176750071e+03 -4.2701614408717823e+05 +1.4354693716594420e+07 
-2.9999999999999973e+00 -5.8136337088296675e-01 +7.6290204960745225e+00 +5.7584342472112029e+00 +1.2546735190374923e+01 -2.7308672961100842e+03 -4.2932994720904011e+05 +1.4803411828664716e+07 
-3.0499999999999972e+00 -5.8138350770443581e-01 +7.6300263298774551e+00 +5.7388634856918079e+00 +1.3112207927574755e+01 -2.7953188425692520e+03 -4.3160715782734042e+05 +1.5233627220553875e+07 
-3.0999999999999970e+00 -5.8140396541297534e-01 +7.6310486653229299e+00 +5.7188506690863008e+00 +1.3672457371916408e+01 -2.8567533137159890e+03 -4.3384012079696497e+05 +1.5644659520404266e+07 
-3.1499999999999968e+00 -5.8142474212704109e-01 +7.6320873746204221e+00 +5.6983979671606457e+00 +1.4226529007377609e+01 -2.9150868701974732e+03 -4.3602118074202765e+05 +1.6035827701352159e+07 
-3.1999999999999966e+00 -5.8144583596509780e-01 +7.6331423299807710e+00 +5.6775075491933595e+00 +1.4773468277473404e+01 -2.9702356574067330e+03 -4.3814268197998463e+05 +1.6406450624599272e+07 
-3.2499999999999964e+00 -5.8146724504564240e-01 +7.6342134036155169e+00 +5.6561815889565832e+00 +1.5312320603570065e+01 -3.0221159402722164e+03 -4.4019696861579322e+05 +1.6755847947578801e+07 
-3.2999999999999963e+00 -5.8148896748716883e-01 +7.6353004677339937e+00 +5.6344222579730801e+00 +1.5842131503060767e+01 -3.0706439249974537e+03 -4.4217638551284303e+05 +1.7083338937574808e+07 
-3.3499999999999961e+00 -5.8151100140817491e-01 +7.6364033945505678e+00 +5.6122317269836159e+00 +1.6361946281396989e+01 -3.1157357915250095e+03 -4.4407327572320017e+05 +1.7388242659307148e+07 
-3.3999999999999959e+00 -5.8153334492717845e-01 +7.6375220562742276e+00 +5.5896121687138116e+00 +1.6870810477333801e+01 -3.1573077738485426e+03 -4.4587998422218143e+05 +1.7669878541277904e+07 
-3.4499999999999957e+00 -5.8155599616269937e-01 +7.6386563251210813e+00 +5.5665657553658745e+00 +1.7367769320819963e+01 -3.1952760946964027e+03 -4.4758885333631100e+05 +1.7927565943459377e+07 
-3.4999999999999956e+00 -5.8157895323326925e-01 +7.6398060732987112e+00 +5.5430946587754590e+00 +1.7851868423407865e+01 -3.2295569568393867e+03 -4.4919222860796418e+05 +1.8160624049734376e+07 
-3.5499999999999954e+00 -5.8160221425742398e-01 +7.6409711730229919e+00 +5.5192010512640621e+00 +1.8322153027350325e+01 -3.2600665837193819e+03 -4.5068245238753455e+05 +1.8368372207168754e+07 
-3.5999999999999952e+00 -5.8162577735372023e-01 +7.6421514965051829e+00 +5.4948871066883820e+00 +1.8777668588904792e+01 -3.2867212310468262e+03 -4.5205186883589328e+05 +1.8550129942969289e+07 
-3.6499999999999950e+00 -5.8164964064070690e-01 +7.6433469159605956e+00 +5.4701549968357632e+00 +1.9217460372756015e+01 -3.3094371040527267e+03 -4.5329282039921376e+05 +1.8705216458477266e+07 
-3.6999999999999948e+00 -5.8167380223696041e-01 +7.6445573036011600e+00 +5.4450068967733882e+00 +1.9640573808072173e+01 -3.3281304927620004e+03 -4.5439765093942551e+05 +1.8832951512811858e+07 
-3.7499999999999947e+00 -5.8169826026104188e-01 +7.6457825316417480e+00 +5.4194449779036749e+00 +2.0046054183899127e+01 -3.3427175857767661e+03 -4.5535870305225998e+05 +1.8932654161370501e+07 
-3.7999999999999945e+00 -5.8172301283153838e-01 +7.6470224722948750e+00 +5.3934714144067870e+00 +2.0432946887342208e+01 -3.3531146422894990e+03 -4.5616832010344963e+05 +1.9003643919302166e+07 
-3.8499999999999943e+00 -5.8174805806705032e-01 +7.6482769977773977e+00 +5.3670883828768350e+00 +2.0800297131813988e+01 -3.3592379947978307e+03 -4.5681884401699010e+05 +1.9045240821446758e+07 
-3.8999999999999941e+00 -5.8177339408615625e-01 +7.6495459803006067e+00 +5.3402980536602218e+00 +2.1147150351078199e+01 -3.3610037942385784e+03 -4.5730261845941306e+05 +1.9056763623176787e+07 
-3.9499999999999940e+00 -5.8179901900747699e-01 +7.6508292920817622e+00 +5.3131026044196679e+00 +2.1472551725540491e+01 -3.3583283955319530e+03 -4.5761198494740337e+05 +1.9037532478234652e+07 
-3.9999999999999938e+00 -5.8182493094961618e-01 +7.6521268053333440e+00 +5.2855042083613135e+00 +2.1775546641815374e+01 -3.3511280274869405e+03 -4.5773928662444325e+05 +1.8986866666457351e+07 
-4.0499999999999936e+00 -5.8185112786757820e-01 +7.6534383835612108e+00 +5.2575065363924249e+00 +2.2055434566871199e+01 -3.3393608503355176e+03 -4.5767903967146779e+05 +1.8904398972856801e+07 
-4.0999999999999934e+00 -5.8187760706155833e-01 +7.6547638450968636e+00 +5.2291197056868333e+00 +2.2312588099498605e+01 -3.3231644234273454e+03 -4.5743507670582068e+05 +1.8791120545024883e+07 
-4.1499999999999932e+00 -5.8190436566798354e-01 +7.6561029943619268e+00 +5.2003555996971329e+00 +2.2547663251553978e+01 -3.3027244572550821e+03 -4.5701373426529061e+05 +1.8648391660003923e+07 
-4.1999999999999931e+00 -5.8193140082327743e-01 +7.6574556357825267e+00 +5.1712260998284014e+00 +2.2761315818633310e+01 -3.2782265977020052e+03 -4.5642134715750272e+05 +1.8477572142189816e+07 
-4.2499999999999929e+00 -5.8195870966386221e-01 +7.6588215737784671e+00 +5.1417430874939347e+00 +2.2954201862807103e+01 -3.2498565000908243e+03 -4.5566425245360355e+05 +1.8280021915521551e+07 
-4.2999999999999927e+00 -5.8198628932617658e-01 +7.6602006127742817e+00 +5.1119184461664267e+00 +2.3126977257119915e+01 -3.2177998689686438e+03 -4.5474878573392134e+05 +1.8057101216000412e+07 
-4.3499999999999925e+00 -5.8201413694665116e-01 +7.6615925571906542e+00 +5.0817640575820793e+00 +2.3280298018056925e+01 -3.1822423658210009e+03 -4.5368128375099198e+05 +1.7810170007340752e+07 
-4.3999999999999924e+00 -5.8204224966172158e-01 +7.6629972114491007e+00 +5.0512918038086481e+00 +2.3414820136659024e+01 -3.1433696593339801e+03 -4.5246808312974335e+05 +1.7540588300717905e+07 
-4.4499999999999922e+00 -5.8207062460783010e-01 +7.6644143799729321e+00 +5.0205135677614008e+00 +2.3531199512066756e+01 -3.1013674414250618e+03 -4.5111551973414014e+05 +1.7249716267482601e+07 
-4.4999999999999920e+00 -5.8209925892140768e-01 +7.6658438671813753e+00 +4.9894412301442870e+00 +2.3630092219991706e+01 -3.0564213444346092e+03 -4.4962993095717864e+05 +1.6938913680422191e+07 
-4.5499999999999918e+00 -5.8212814973890115e-01 +7.6672854774969972e+00 +4.9580866741346119e+00 +2.3712154185608654e+01 -3.0087170700910897e+03 -4.4801765297212615e+05 +1.6609540799893675e+07 
-4.5999999999999917e+00 -5.8215729419674167e-01 +7.6687390153387982e+00 +4.9264617803528319e+00 +2.3778041481390410e+01 -2.9584402516702921e+03 -4.4628502323285089e+05 +1.6262957425576212e+07 
-4.6499999999999915e+00 -5.8218668943136853e-01 +7.6702042851267187e+00 +4.8945784298559323e+00 +2.3828410132269493e+01 -2.9057765285499740e+03 -4.4443837883159617e+05 +1.5900523382764209e+07 
-4.6999999999999913e+00 -5.8221633257923500e-01 +7.6716810912824922e+00 +4.8624485064111420e+00 +2.3863916086270141e+01 -2.8509116191877965e+03 -4.4248405628945137e+05 +1.5523599061720369e+07 
-4.7499999999999911e+00 -5.8224622077676702e-01 +7.6731692382229477e+00 +4.8300838893958931e+00 +2.3885215482260023e+01 -2.7940311240926799e+03 -4.4042839371846558e+05 +1.5133544057272635e+07 
-4.7999999999999909e+00 -5.8227635116041088e-01 +7.6746685303683888e+00 +4.7974964610664772e+00 +2.3892964315460549e+01 -2.7353207183644395e+03 -4.3827772814290843e+05 +1.4731718464534914e+07 
-4.8499999999999908e+00 -5.8230672086661039e-01 +7.6761787721337988e+00 +4.7646981035119458e+00 +2.3887818782101988e+01 -2.6749660761685459e+03 -4.3603839823418605e+05 +1.4319482392010767e+07 
-4.8999999999999906e+00 -5.8233732703179564e-01 +7.6776997679415349e+00 +4.7317006964518731e+00 +2.3870434772194777e+01 -2.6131528065409188e+03 -4.3371674022223183e+05 +1.3898195507566391e+07 
-4.9499999999999904e+00 -5.8236816679240944e-01 +7.6792313222043207e+00 +4.6985161218382130e+00 +2.3841468579459143e+01 -2.5500665779186374e+03 -4.3131909378270892e+05 +1.3469217882585138e+07 
-4.9999999999999902e+00 -5.8239923728488763e-01 +7.6807732393420762e+00 +4.6651562608506749e+00 +2.3801576168467228e+01 -2.4858930420130182e+03 -4.2885179583426565e+05 +1.3033909497367177e+07 
-5.0499999999999901e+00 -5.8243053564566516e-01 +7.6823253237681266e+00 +4.6316329945466688e+00 +2.3751413776262080e+01 -2.4208178466592285e+03 -4.2632118563516042e+05 +1.2593630309947761e+07 
