# field on trajectory
# s[mm] rx[mm] ry[mm] rz[mm] bx[T] by[T] bz[T]
0.0000000000000000e+00 +8.5389999999999997e+00 +0.0000000000000000e+00 +0.0000000000000000e+00 -2.8536229742053609e-02 -5.5091511576785324e-01 +5.1791461288719738e-03
5.0000000000000003e-02 +8.5389999309561357e+00 +0.0000000000000000e+00 +4.9999999999936436e-02 -2.8536573911237526e-02 -5.5091491462974596e-01 +5.1772560942527262e-03
1.0000000000000001e-01 +8.5389997238245599e+00 +0.0000000000000000e+00 +9.9999999999491510e-02 -2.8536941330424895e-02 -5.5091506954186087e-01 +5.1753720074398848e-03
1.5000000000000002e-01 +8.5389993786052347e+00 +0.0000000000000000e+00 +1.4999999999828384e-01 -2.8537332004150762e-02 -5.5091557980772321e-01 +5.1734939983618701e-03
2.0000000000000001e-01 +8.5389988952980325e+00 +0.0000000000000000e+00 +1.9999999999593210e-01 -2.8537745936952023e-02 -5.5091644473087420e-01 +5.1716221969473194e-03
2.5000000000000000e-01 +8.5389982739027346e+00 +0.0000000000000000e+00 +2.4999999999205488e-01 -2.8538183133367308e-02 -5.5091766361487216e-01 +5.1697567331251250e-03
2.9999999999999999e-01 +8.5389975144190373e+00 +0.0000000000000000e+00 +2.9999999998627080e-01 -2.8538643597936963e-02 -5.5091923576329127e-01 +5.1678977368244377e-03
3.4999999999999998e-01 +8.5389966168465463e+00 +0.0000000000000000e+00 +3.4999999997819853e-01 -2.8539127335202936e-02 -5.5092116047972373e-01 +5.1660453379746884e-03
3.9999999999999997e-01 +8.5389955811847784e+00 +0.0000000000000000e+00 +3.9999999996745672e-01 -2.8539634349708711e-02 -5.5092343706777702e-01 +5.1641996665056106e-03
4.4999999999999996e-01 +8.5389944074331634e+00 +0.0000000000000000e+00 +4.4999999995366391e-01 -2.8540164645999212e-02 -5.5092606483107576e-01 +5.1623608523472557e-03
4.9999999999999994e-01 +8.5389930955910440e+00 +0.0000000000000000e+00 +4.9999999993643873e-01 -2.8540718228620733e-02 -5.5092904307325985e-01 +5.1605290254300136e-03
5.4999999999999993e-01 +8.5389916456576724e+00 +0.0000000000000000e+00 +5.4999999991539972e-01 -2.8541295102120931e-02 -5.5093237109798698e-01 +5.1587043156846356e-03
5.9999999999999998e-01 +8.5389900576322137e+00 +0.0000000000000000e+00 +5.9999999989016561e-01 -2.8541895271048605e-02 -5.5093604820892983e-01 +5.1568868530422361e-03
6.5000000000000002e-01 +8.5389883315137478e+00 +0.0000000000000000e+00 +6.4999999986035484e-01 -2.8542518739953733e-02 -5.5094007370977749e-01 +5.1550767674343363e-03
7.0000000000000007e-01 +8.5389864673012656e+00 +0.0000000000000000e+00 +6.9999999982558603e-01 -2.8543165513387366e-02 -5.5094444690423483e-01 +5.1532741887928626e-03
7.5000000000000011e-01 +8.5389844649936695e+00 +0.0000000000000000e+00 +7.4999999978547782e-01 -2.8543835595901547e-02 -5.5094916709602315e-01 +5.1514792470501733e-03
8.0000000000000016e-01 +8.5389823245897780e+00 +0.0000000000000000e+00 +7.9999999973964864e-01 -2.8544528992049220e-02 -5.5095423358887918e-01 +5.1496920721390838e-03
8.5000000000000020e-01 +8.5389800460883212e+00 +0.0000000000000000e+00 +8.4999999968771700e-01 -2.8545245706384156e-02 -5.5095964568655553e-01 +5.1479127939928681e-03
9.0000000000000024e-01 +8.5389776294879418e+00 +0.0000000000000000e+00 +8.9999999962930155e-01 -2.8545985743460900e-02 -5.5096540269282002e-01 +5.1461415425452933e-03
9.5000000000000029e-01 +8.5389750747871975e+00 +0.0000000000000000e+00 +9.4999999956402070e-01 -2.8546749107834661e-02 -5.5097150391145688e-01 +5.1443784477306267e-03
1.0000000000000002e+00 +8.5389723819845571e+00 +0.0000000000000000e+00 +9.9999999949149299e-01 -2.8547535804061278e-02 -5.5097794864626481e-01 +5.1426236394836724e-03
1.0500000000000003e+00 +8.5389695510784076e+00 +0.0000000000000000e+00 +1.0499999994113367e+00 -2.8548345836697082e-02 -5.5098473620105903e-01 +5.1408772477397656e-03
1.1000000000000003e+00 +8.5389665820670473e+00 +0.0000000000000000e+00 +1.0999999993231706e+00 -2.8549179210298880e-02 -5.5099186587966942e-01 +5.1391394024348103e-03
1.1500000000000004e+00 +8.5389634749486891e+00 +0.0000000000000000e+00 +1.1499999992266128e+00 -2.8550035929423824e-02 -5.5099933698594117e-01 +5.1374102335052909e-03
1.2000000000000004e+00 +8.5389602297214591e+00 +0.0000000000000000e+00 +1.1999999991212820e+00 -2.8550915998629373e-02 -5.5100714882373436e-01 +5.1356898708882874e-03
1.2500000000000004e+00 +8.5389568463833996e+00 +0.0000000000000000e+00 +1.2499999990067963e+00 -2.8551819422473205e-02 -5.5101530069692506e-01 +5.1339784445215047e-03
1.3000000000000005e+00 +8.5389533249324678e+00 +0.0000000000000000e+00 +1.2999999988827742e+00 -2.8552746205513107e-02 -5.5102379190940298e-01 +5.1322760843432761e-03
1.3500000000000005e+00 +8.5389496653665358e+00 +0.0000000000000000e+00 +1.3499999987488340e+00 -2.8553696352306961e-02 -5.5103262176507417e-01 +5.1305829202925981e-03
1.4000000000000006e+00 +8.5389458676833900e+00 +0.0000000000000000e+00 +1.3999999986045941e+00 -2.8554669867412629e-02 -5.5104178956785854e-01 +5.1288990823091388e-03
1.4500000000000006e+00 +8.5389419318807338e+00 +0.0000000000000000e+00 +1.4499999984496728e+00 -2.8555666755387850e-02 -5.5105129462169100e-01 +5.1272247003332589e-03
1.5000000000000007e+00 +8.5389378579561832e+00 +0.0000000000000000e+00 +1.4999999982836882e+00 -2.8556687020790200e-02 -5.5106113623052089e-01 +5.1255599043060329e-03
1.5500000000000007e+00 +8.5389336459072727e+00 +0.0000000000000000e+00 +1.5499999981062587e+00 -2.8557730668177034e-02 -5.5107131369831308e-01 +5.1239048241692627e-03
1.6000000000000008e+00 +8.5389292957314495e+00 +0.0000000000000000e+00 +1.5999999979170025e+00 -2.8558797702105346e-02 -5.5108182632904545e-01 +5.1222595898655016e-03
1.6500000000000008e+00 +8.5389248074260813e+00 +0.0000000000000000e+00 +1.6499999977155377e+00 -2.8559888127131741e-02 -5.5109267342671187e-01 +5.1206243313380714e-03
1.7000000000000008e+00 +8.5389201809884465e+00 +0.0000000000000000e+00 +1.6999999975014826e+00 -2.8561001947812324e-02 -5.5110385429531905e-01 +5.1189991785310753e-03
1.7500000000000009e+00 +8.5389154164157439e+00 +0.0000000000000000e+00 +1.7499999972744551e+00 -2.8562139168702670e-02 -5.5111536823888918e-01 +5.1173842613894335e-03
1.8000000000000009e+00 +8.5389105137050887e+00 +0.0000000000000000e+00 +1.7999999970340734e+00 -2.8563299794357688e-02 -5.5112721456145797e-01 +5.1157797098588783e-03
1.8500000000000010e+00 +8.5389054728535090e+00 +0.0000000000000000e+00 +1.8499999967799556e+00 -2.8564483829331577e-02 -5.5113939256707478e-01 +5.1141856538859873e-03
1.9000000000000010e+00 +8.5389002938579548e+00 +0.0000000000000000e+00 +1.8999999965117198e+00 -2.8565691278177752e-02 -5.5115190155980420e-01 +5.1126022234182049e-03
1.9500000000000011e+00 +8.5388949767152891e+00 +0.0000000000000000e+00 +1.9499999962289838e+00 -2.8566922145448776e-02 -5.5116474084372380e-01 +5.1110295484038505e-03
2.0000000000000009e+00 +8.5388895214222948e+00 +0.0000000000000000e+00 +1.9999999959313657e+00 -2.8568176435696219e-02 -5.5117790972292524e-01 +5.1094677587921467e-03
2.0500000000000007e+00 +8.5388839279756716e+00 +0.0000000000000000e+00 +2.0499999956184833e+00 -2.8569454114626625e-02 -5.5119140729235927e-01 +5.1079169732385458e-03
2.1000000000000005e+00 +8.5388781963720355e+00 +0.0000000000000000e+00 +2.0999999952899548e+00 -2.8570754992569898e-02 -5.5120523181037362e-01 +5.1063772652205656e-03
2.1500000000000004e+00 +8.5388723266079207e+00 +0.0000000000000000e+00 +2.1499999949453978e+00 -2.8572078841012358e-02 -5.5121938132617188e-01 +5.1048486969216536e-03
2.2000000000000002e+00 +8.5388663186797817e+00 +0.0000000000000000e+00 +2.1999999945844300e+00 -2.8573425431440976e-02 -5.5123385388896984e-01 +5.1033313305258350e-03
2.2500000000000000e+00 +8.5388601725839912e+00 +0.0000000000000000e+00 +2.2499999942066693e+00 -2.8574794535343433e-02 -5.5124864754799408e-01 +5.1018252282177250e-03
2.2999999999999998e+00 +8.5388538883168419e+00 +0.0000000000000000e+00 +2.2999999938117330e+00 -2.8576185924208092e-02 -5.5126376035248270e-01 +5.1003304521825069e-03
2.3499999999999996e+00 +8.5388474658745448e+00 +0.0000000000000000e+00 +2.3499999933992393e+00 -2.8577599369524108e-02 -5.5127919035168416e-01 +5.0988470646059509e-03
2.3999999999999995e+00 +8.5388409052532328e+00 +0.0000000000000000e+00 +2.3999999929688056e+00 -2.8579034642781369e-02 -5.5129493559485732e-01 +5.0973751276743888e-03
2.4499999999999993e+00 +8.5388342064489589e+00 +0.0000000000000000e+00 +2.4499999925200497e+00 -2.8580491515470562e-02 -5.5131099413127171e-01 +5.0959147035747297e-03
2.4999999999999991e+00 +8.5388273694576977e+00 +0.0000000000000000e+00 +2.4999999920525893e+00 -2.8581969759083215e-02 -5.5132736401020732e-01 +5.0944658544944425e-03
2.5499999999999989e+00 +8.5388203942753478e+00 +0.0000000000000000e+00 +2.5499999915660418e+00 -2.8583469145111725e-02 -5.5134404328095288e-01 +5.0930286426215665e-03
2.5999999999999988e+00 +8.5388132808977275e+00 +0.0000000000000000e+00 +2.5999999910600247e+00 -2.8584989445049346e-02 -5.5136102999280867e-01 +5.0916031301446989e-03
2.6499999999999986e+00 +8.5388060293205790e+00 +0.0000000000000000e+00 +2.6499999905341549e+00 -2.8586530430390278e-02 -5.5137832219508298e-01 +5.0901893792529955e-03
2.6999999999999984e+00 +8.5387986395395679e+00 +0.0000000000000000e+00 +2.6999999899880502e+00 -2.8588091872629656e-02 -5.5139591793709408e-01 +5.0887874521361644e-03
2.7499999999999982e+00 +8.5387911115502853e+00 +0.0000000000000000e+00 +2.7499999894213283e+00 -2.8589673543263569e-02 -5.5141381526816935e-01 +5.0873974109844674e-03
2.7999999999999980e+00 +8.5387834453482441e+00 +0.0000000000000000e+00 +2.7999999888336058e+00 -2.8591275213789132e-02 -5.5143201223764493e-01 +5.0860193179887185e-03
2.8499999999999979e+00 +8.5387756409288826e+00 +0.0000000000000000e+00 +2.8499999882245004e+00 -2.8592896655704483e-02 -5.5145050689486630e-01 +5.0846532353402696e-03
2.8999999999999977e+00 +8.5387676982875664e+00 +0.0000000000000000e+00 +2.8999999875936289e+00 -2.8594537640508805e-02 -5.5146929728918659e-01 +5.0832992252310217e-03
2.9499999999999975e+00 +8.5387596174195863e+00 +0.0000000000000000e+00 +2.9499999869406088e+00 -2.8596197939702400e-02 -5.5148838146996759e-01 +5.0819573498534169e-03
2.9999999999999973e+00 +8.5387513983201568e+00 +0.0000000000000000e+00 +2.9999999862650570e+00 -2.8597877324786646e-02 -5.5150775748657987e-01 +5.0806276714004317e-03
3.0499999999999972e+00 +8.5387430409844232e+00 +0.0000000000000000e+00 +3.0499999855665907e+00 -2.8599575567264116e-02 -5.5152742338840088e-01 +5.0793102520655794e-03
3.0999999999999970e+00 +8.5387345454074559e+00 +0.0000000000000000e+00 +3.0999999848448265e+00 -2.8601292438638511e-02 -5.5154737722481650e-01 +5.0780051540429000e-03
3.1499999999999968e+00 +8.5387259115842529e+00 +0.0000000000000000e+00 +3.1499999840993818e+00 -2.8603027710414765e-02 -5.5156761704522006e-01 +5.0767124395269675e-03
3.1999999999999966e+00 +8.5387171395097425e+00 +0.0000000000000000e+00 +3.1999999833298731e+00 -2.8604781154099028e-02 -5.5158814089901176e-01 +5.0754321707128808e-03
3.2499999999999964e+00 +8.5387082291787788e+00 +0.0000000000000000e+00 +3.2499999825359174e+00 -2.8606552541198718e-02 -5.5160894683559936e-01 +5.0741644097962550e-03
3.2999999999999963e+00 +8.5386991805861481e+00 +0.0000000000000000e+00 +3.2999999817171313e+00 -2.8608341643222547e-02 -5.5163003290439727e-01 +5.0729092189732324e-03
3.3499999999999961e+00 +8.5386899937265657e+00 +0.0000000000000000e+00 +3.3499999808731316e+00 -2.8610148231680531e-02 -5.5165139715482714e-01 +5.0716666604404713e-03
3.3999999999999959e+00 +8.5386806685946759e+00 +0.0000000000000000e+00 +3.3999999800035350e+00 -2.8611972078084049e-02 -5.5167303763631625e-01 +5.0704367963951384e-03
3.4499999999999957e+00 +8.5386712051850537e+00 +0.0000000000000000e+00 +3.4499999791079579e+00 -2.8613812953945855e-02 -5.5169495239829902e-01 +5.0692196890349183e-03
3.4999999999999956e+00 +8.5386616034922085e+00 +0.0000000000000000e+00 +3.4999999781860169e+00 -2.8615670630780087e-02 -5.5171713949021528e-01 +5.0680154005579960e-03
3.5499999999999954e+00 +8.5386518635105766e+00 +0.0000000000000000e+00 +3.5499999772373285e+00 -2.8617544880102343e-02 -5.5173959696151109e-01 +5.0668239931630681e-03
3.5999999999999952e+00 +8.5386419852345306e+00 +0.0000000000000000e+00 +3.5999999762615094e+00 -2.8619435473429673e-02 -5.5176232286163840e-01 +5.0656455290493327e-03
3.6499999999999950e+00 +8.5386319686583736e+00 +0.0000000000000000e+00 +3.6499999752581753e+00 -2.8621342182280626e-02 -5.5178531524005436e-01 +5.0644800704164840e-03
3.6999999999999948e+00 +8.5386218137763432e+00 +0.0000000000000000e+00 +3.6999999742269432e+00 -2.8623264778175249e-02 -5.5180857214622148e-01 +5.0633276794647148e-03
3.7499999999999947e+00 +8.5386115205826112e+00 +0.0000000000000000e+00 +3.7499999731674287e+00 -2.8625203032635160e-02 -5.5183209162960778e-01 +5.0621884183947108e-03
3.7999999999999945e+00 +8.5386010890712818e+00 +0.0000000000000000e+00 +3.7999999720792483e+00 -2.8627156717183546e-02 -5.5185587173968498e-01 +5.0610623494076450e-03
3.8499999999999943e+00 +8.5385905192363936e+00 +0.0000000000000000e+00 +3.8499999709620183e+00 -2.8629125603345212e-02 -5.5187991052593055e-01 +5.0599495347051840e-03
3.8999999999999941e+00 +8.5385798110719211e+00 +0.0000000000000000e+00 +3.8999999698153545e+00 -2.8631109462646593e-02 -5.5190420603782642e-01 +5.0588500364894757e-03
3.9499999999999940e+00 +8.5385689645717768e+00 +0.0000000000000000e+00 +3.9499999686388727e+00 -2.8633108066615769e-02 -5.5192875632485827e-01 +5.0577639169631528e-03
3.9999999999999938e+00 +8.5385579797298057e+00 +0.0000000000000000e+00 +3.9999999674321893e+00 -2.8635121186782533e-02 -5.5195355943651614e-01 +5.0566912383293175e-03
4.0499999999999936e+00 +8.5385468565397904e+00 +0.0000000000000000e+00 +4.0499999661949202e+00 -2.8637148617774430e-02 -5.5197861332458675e-01 +5.0556320561576966e-03
4.0999999999999934e+00 +8.5385355949954533e+00 +0.0000000000000000e+00 +4.0999999649266803e+00 -2.8639190246604378e-02 -5.5200391555003248e-01 +5.0545863994830584e-03
4.1499999999999932e+00 +8.5385241950904511e+00 +0.0000000000000000e+00 +4.1499999636270859e+00 -2.8641245983381594e-02 -5.5202946357610905e-01 +5.0535542907069663e-03
4.1999999999999931e+00 +8.5385126568183800e+00 +0.0000000000000000e+00 +4.1999999622957525e+00 -2.8643315738215186e-02 -5.5205525486607554e-01 +5.0525357522316940e-03
4.2499999999999929e+00 +8.5385009801727758e+00 +0.0000000000000000e+00 +4.2499999609322963e+00 -2.8645399421214256e-02 -5.5208128688319247e-01 +5.0515308064602200e-03
4.2999999999999927e+00 +8.5384891651471140e+00 +0.0000000000000000e+00 +4.2999999595363319e+00 -2.8647496942487801e-02 -5.5210755709072190e-01 +5.0505394757962433e-03
4.3499999999999925e+00 +8.5384772117348113e+00 +0.0000000000000000e+00 +4.3499999581074755e+00 -2.8649608212144708e-02 -5.5213406295192680e-01 +5.0495617826441762e-03
4.3999999999999924e+00 +8.5384651199292225e+00 +0.0000000000000000e+00 +4.3999999566453418e+00 -2.8651733140293706e-02 -5.5216080193007133e-01 +5.0485977494091529e-03
4.4499999999999922e+00 +8.5384528897236454e+00 +0.0000000000000000e+00 +4.4499999551495462e+00 -2.8653871637043395e-02 -5.5218777148842080e-01 +5.0476473984970398e-03
4.4999999999999920e+00 +8.5384405211113208e+00 +0.0000000000000000e+00 +4.4999999536197048e+00 -2.8656023612502159e-02 -5.5221496909024137e-01 +5.0467107523144324e-03
4.5499999999999918e+00 +8.5384280140854312e+00 +0.0000000000000000e+00 +4.5499999520554315e+00 -2.8658188976778173e-02 -5.5224239219879789e-01 +5.0457878332686576e-03
4.5999999999999917e+00 +8.5384153686391038e+00 +0.0000000000000000e+00 +4.5999999504563425e+00 -2.8660367639979378e-02 -5.5227003827735721e-01 +5.0448786637677873e-03
4.6499999999999915e+00 +8.5384025847654090e+00 +0.0000000000000000e+00 +4.6499999488220523e+00 -2.8662559512213422e-02 -5.5229790478918472e-01 +5.0439832662206325e-03
4.6999999999999913e+00 +8.5383896624573623e+00 +0.0000000000000000e+00 +4.6999999471521754e+00 -2.8664764503587702e-02 -5.5232598919754616e-01 +5.0431016630367509e-03
4.7499999999999911e+00 +8.5383766017079239e+00 +0.0000000000000000e+00 +4.7499999454463273e+00 -2.8666982524209288e-02 -5.5235428896570637e-01 +5.0422338766264591e-03
4.7999999999999909e+00 +8.5383634025100008e+00 +0.0000000000000000e+00 +4.7999999437041234e+00 -2.8669213484184865e-02 -5.5238280155692898e-01 +5.0413799294008197e-03
4.8499999999999908e+00 +8.5383500648564468e+00 +0.0000000000000000e+00 +4.8499999419251774e+00 -2.8671457293620795e-02 -5.5241152443447694e-01 +5.0405398437716603e-03
4.8999999999999906e+00 +8.5383365887400622e+00 +0.0000000000000000e+00 +4.8999999401091046e+00 -2.8673713862623042e-02 -5.5244045506161144e-01 +5.0397136421515719e-03
4.9499999999999904e+00 +8.5383229741535960e+00 +0.0000000000000000e+00 +4.9499999382555187e+00 -2.8675983101297122e-02 -5.5246959090159287e-01 +5.0389013469539154e-03
4.9999999999999902e+00 +8.5383092210897455e+00 +0.0000000000000000e+00 +4.9999999363640351e+00 -2.8678264919748127e-02 -5.5249892941767820e-01 +5.0381029805928196e-03
5.0499999999999901e+00 +8.5382953295411568e+00 +0.0000000000000000e+00 +5.0499999344342674e+00 -2.8680559228080677e-02 -5.5252846807312417e-01 +5.0373185654831914e-03
5.0999999999999899e+00 +8.5382812995004258e+00 +0.0000000000000000e+00 +5.0999999324658312e+00 -2.8682865936398884e-02 -5.5255820433118374e-01 +5.0365481240407222e-03
5.1499999999999897e+00 +8.5382671309601008e+00 +0.0000000000000000e+00 +5.1499999304583399e+00 -2.8685184954806354e-02 -5.5258813565510811e-01 +5.0357916786818837e-03
5.1999999999999895e+00 +8.5382528239126785e+00 +0.0000000000000000e+00 +5.1999999284114082e+00 -2.8687516193406131e-02 -5.5261825950814536e-01 +5.0350492518239365e-03
5.2499999999999893e+00 +8.5382383783506075e+00 +0.0000000000000000e+00 +5.2499999263246497e+00 -2.8689859562300676e-02 -5.5264857335354012e-01 +5.0343208658849350e-03
5.2999999999999892e+00 +8.5382237942662904e+00 +0.0000000000000000e+00 +5.2999999241976790e+00 -2.8692214971591901e-02 -5.5267907465453481e-01 +5.0336065432837343e-03
5.3499999999999890e+00 +8.5382090716520835e+00 +0.0000000000000000e+00 +5.3499999220301095e+00 -2.8694582331380999e-02 -5.5270976087436674e-01 +5.0329063064399812e-03
5.3999999999999888e+00 +8.5381942105002935e+00 +0.0000000000000000e+00 +5.3999999198215551e+00 -2.8696961551768631e-02 -5.5274062947627156e-01 +5.0322201777741413e-03
5.4499999999999886e+00 +8.5381792108031842e+00 +0.0000000000000000e+00 +5.4499999175716303e+00 -2.8699352542854675e-02 -5.5277167792347814e-01 +5.0315481797074783e-03
5.4999999999999885e+00 +8.5381640725529735e+00 +0.0000000000000000e+00 +5.4999999152799477e+00 -2.8701755214738379e-02 -5.5280290367921370e-01 +5.0308903346620720e-03
5.5499999999999883e+00 +8.5381487957418347e+00 +0.0000000000000000e+00 +5.5499999129461219e+00 -2.8704169477518224e-02 -5.5283430420669932e-01 +5.0302466650608245e-03
5.5999999999999881e+00 +8.5381333803618968e+00 +0.0000000000000000e+00 +5.5999999105697666e+00 -2.8706595241291946e-02 -5.5286587696915201e-01 +5.0296171933274566e-03
5.6499999999999879e+00 +8.5381178264052480e+00 +0.0000000000000000e+00 +5.6499999081504946e+00 -2.8709032416156511e-02 -5.5289761942978333e-01 +5.0290019418865175e-03
5.6999999999999877e+00 +8.5381021338639300e+00 +0.0000000000000000e+00 +5.6999999056879203e+00 -2.8711480912208071e-02 -5.5292952905180026e-01 +5.0284009331633822e-03
5.7499999999999876e+00 +8.5380863027299458e+00 +0.0000000000000000e+00 +5.7499999031816564e+00 -2.8713940639541965e-02 -5.5296160329840360e-01 +5.0278141895842626e-03
5.7999999999999874e+00 +8.5380703329952556e+00 +0.0000000000000000e+00 +5.7999999006313159e+00 -2.8716411508252635e-02 -5.5299383963278892e-01 +5.0272417335762119e-03
5.8499999999999872e+00 +8.5380542246517805e+00 +0.0000000000000000e+00 +5.8499998980365122e+00 -2.8718893428433701e-02 -5.5302623551814600e-01 +5.0266835875671205e-03
5.8999999999999870e+00 +8.5380379776913990e+00 +0.0000000000000000e+00 +5.8999998953968591e+00 -2.8721386310177822e-02 -5.5305878841765721e-01 +5.0261397739857321e-03
