# trajectory
# s[mm] rx[mm] ry[mm] rz[mm] px[rad] py[rad] pz[rad]
0.0000000000000000e+00 +8.3650000000000002e+00 +0.0000000000000000e+00 +0.0000000000000000e+00 +0.0000000000000000e+00 +0.0000000000000000e+00 +1.0000000000000000e+00
5.0000000000000003e-02 +8.3649999308016589e+00 +0.0000000000000000e+00 +4.9999999999936151e-02 -2.7679332675079723e-06 +0.0000000000000000e+00 +9.9999999999616929e-01
1.0000000000000001e-01 +8.3649997232067008e+00 +0.0000000000000000e+00 +9.9999999999489234e-02 -5.5358649457669943e-06 +0.0000000000000000e+00 +9.9999999998467715e-01
1.5000000000000002e-01 +8.3649993772151614e+00 +0.0000000000000000e+00 +1.4999999999827618e-01 -8.3037967746984739e-06 +0.0000000000000000e+00 +9.9999999996552358e-01
2.0000000000000001e-01 +8.3649988928269909e+00 +0.0000000000000000e+00 +1.9999999999591389e-01 -1.1071730490680552e-05 +0.0000000000000000e+00 +9.9999999993870847e-01
2.5000000000000000e-01 +8.3649982700420509e+00 +0.0000000000000000e+00 +2.4999999999201933e-01 -1.3839667826548189e-05 +0.0000000000000000e+00 +9.9999999990423183e-01
2.9999999999999999e-01 +8.3649975088601192e+00 +0.0000000000000000e+00 +2.9999999998620941e-01 -1.6607610511593251e-05 +0.0000000000000000e+00 +9.9999999986209365e-01
3.4999999999999998e-01 +8.3649966092808832e+00 +0.0000000000000000e+00 +3.4999999997810105e-01 -1.9375560271564582e-05 +0.0000000000000000e+00 +9.9999999981229382e-01
3.9999999999999997e-01 +8.3649955713039468e+00 +0.0000000000000000e+00 +3.9999999996731112e-01 -2.2143518828668102e-05 +0.0000000000000000e+00 +9.9999999975483223e-01
4.4999999999999996e-01 +8.3649943949288268e+00 +0.0000000000000000e+00 +4.4999999995345658e-01 -2.4911487901566868e-05 +0.0000000000000000e+00 +9.9999999968970887e-01
4.9999999999999994e-01 +8.3649930801549530e+00 +0.0000000000000000e+00 +4.9999999993615429e-01 -2.7679469205381170e-05 +0.0000000000000000e+00 +9.9999999961692343e-01
5.4999999999999993e-01 +8.3649916269816735e+00 +0.0000000000000000e+00 +5.4999999991502124e-01 -3.0447464451688611e-05 +0.0000000000000000e+00 +9.9999999953647589e-01
5.9999999999999998e-01 +8.3649900354082476e+00 +0.0000000000000000e+00 +5.9999999988967423e-01 -3.3215475348524180e-05 +0.0000000000000000e+00 +9.9999999944836604e-01
6.5000000000000002e-01 +8.3649883054338492e+00 +0.0000000000000000e+00 +6.4999999985973012e-01 -3.5983503600380341e-05 +0.0000000000000000e+00 +9.9999999935259365e-01
7.0000000000000007e-01 +8.3649864370575688e+00 +0.0000000000000000e+00 +6.9999999982480587e-01 -3.8751550908207103e-05 +0.0000000000000000e+00 +9.9999999924915861e-01
7.5000000000000011e-01 +8.3649844302784118e+00 +0.0000000000000000e+00 +7.4999999978451826e-01 -4.1519618969412102e-05 +0.0000000000000000e+00 +9.9999999913806059e-01
8.0000000000000016e-01 +8.3649822850952980e+00 +0.0000000000000000e+00 +7.9999999973848412e-01 -4.4287709477860682e-05 +0.0000000000000000e+00 +9.9999999901929937e-01
8.5000000000000020e-01 +8.3649800015070621e+00 +0.0000000000000000e+00 +8.4999999968632045e-01 -4.7055824123875977e-05 +0.0000000000000000e+00 +9.9999999889287472e-01
9.0000000000000024e-01 +8.3649775795124555e+00 +0.0000000000000000e+00 +8.9999999962764388e-01 -4.9823964594238977e-05 +0.0000000000000000e+00 +9.9999999875878631e-01
9.5000000000000029e-01 +8.3649750191101440e+00 +0.0000000000000000e+00 +9.4999999956207137e-01 -5.2592132572188613e-05 +0.0000000000000000e+00 +9.9999999861703381e-01
1.0000000000000002e+00 +8.3649723202987118e+00 +0.0000000000000000e+00 +9.9999999948921958e-01 -5.5360329737421834e-05 +0.0000000000000000e+00 +9.9999999846761700e-01
1.0500000000000003e+00 +8.3649694830766563e+00 +0.0000000000000000e+00 +1.0499999994087053e+00 -5.8128557766093691e-05 +0.0000000000000000e+00 +9.9999999831053543e-01
1.1000000000000003e+00 +8.3649665074423929e+00 +0.0000000000000000e+00 +1.0999999993201452e+00 -6.0896818330817390e-05 +0.0000000000000000e+00 +9.9999999814578877e-01
1.1500000000000004e+00 +8.3649633933942535e+00 +0.0000000000000000e+00 +1.1499999992231564e+00 -6.3665113100664394e-05 +0.0000000000000000e+00 +9.9999999797337669e-01
1.2000000000000004e+00 +8.3649601409304850e+00 +0.0000000000000000e+00 +1.1999999991173553e+00 -6.6433443741164465e-05 +0.0000000000000000e+00 +9.9999999779329873e-01
1.2500000000000004e+00 +8.3649567500492541e+00 +0.0000000000000000e+00 +1.2499999990023587e+00 -6.9201811914305797e-05 +0.0000000000000000e+00 +9.9999999760555458e-01
1.3000000000000005e+00 +8.3649532207486406e+00 +0.0000000000000000e+00 +1.2999999988777831e+00 -7.1970219278535017e-05 +0.0000000000000000e+00 +9.9999999741014378e-01
1.3500000000000005e+00 +8.3649495530266442e+00 +0.0000000000000000e+00 +1.3499999987432452e+00 -7.4738667488757316e-05 +0.0000000000000000e+00 +9.9999999720706578e-01
1.4000000000000006e+00 +8.3649457468811832e+00 +0.0000000000000000e+00 +1.3999999985983618e+00 -7.7507158196336498e-05 +0.0000000000000000e+00 +9.9999999699632025e-01
1.4500000000000006e+00 +8.3649418023100885e+00 +0.0000000000000000e+00 +1.4499999984427494e+00 -8.0275693049095055e-05 +0.0000000000000000e+00 +9.9999999677790663e-01
1.5000000000000007e+00 +8.3649377193111150e+00 +0.0000000000000000e+00 +1.4999999982760246e+00 -8.3044273691314241e-05 +0.0000000000000000e+00 +9.9999999655182437e-01
1.5500000000000007e+00 +8.3649334978819301e+00 +0.0000000000000000e+00 +1.5499999980978041e+00 -8.5812901763734130e-05 +0.0000000000000000e+00 +9.9999999631807301e-01
1.6000000000000008e+00 +8.3649291380201216e+00 +0.0000000000000000e+00 +1.5999999979077042e+00 -8.8581578903553740e-05 +0.0000000000000000e+00 +9.9999999607665202e-01
1.6500000000000008e+00 +8.3649246397231956e+00 +0.0000000000000000e+00 +1.6499999977053414e+00 -9.1350306744431028e-05 +0.0000000000000000e+00 +9.9999999582756083e-01
1.7000000000000008e+00 +8.3649200029885762e+00 +0.0000000000000000e+00 +1.6999999974903324e+00 -9.4119086916483028e-05 +0.0000000000000000e+00 +9.9999999557079888e-01
1.7500000000000009e+00 +8.3649152278136061e+00 +0.0000000000000000e+00 +1.7499999972622935e+00 -9.6887921046285867e-05 +0.0000000000000000e+00 +9.9999999530636552e-01
1.8000000000000009e+00 +8.3649103141955461e+00 +0.0000000000000000e+00 +1.7999999970208411e+00 -9.9656810756874881e-05 +0.0000000000000000e+00 +9.9999999503426018e-01
1.8500000000000010e+00 +8.3649052621315771e+00 +0.0000000000000000e+00 +1.8499999967655916e+00 -1.0242575766774466e-04 +0.0000000000000000e+00 +9.9999999475448220e-01
1.9000000000000010e+00 +8.3649000716187984e+00 +0.0000000000000000e+00 +1.8999999964961614e+00 -1.0519476339484913e-04 +0.0000000000000000e+00 +9.9999999446703103e-01
1.9500000000000011e+00 +8.3648947426542293e+00 +0.0000000000000000e+00 +1.9499999962121668e+00 -1.0796382955060160e-04 +0.0000000000000000e+00 +9.9999999417190588e-01
2.0000000000000009e+00 +8.3648892752348090e+00 +0.0000000000000000e+00 +1.9999999959132240e+00 -1.1073295774387486e-04 +0.0000000000000000e+00 +9.9999999386910621e-01
2.0500000000000007e+00 +8.3648836693573951e+00 +0.0000000000000000e+00 +2.0499999955989492e+00 -1.1350214957975217e-04 +0.0000000000000000e+00 +9.9999999355863123e-01
2.1000000000000005e+00 +8.3648779250187637e+00 +0.0000000000000000e+00 +2.0999999952689588e+00 -1.1627140665678805e-04 +0.0000000000000000e+00 +9.9999999324048017e-01
2.1500000000000004e+00 +8.3648720422156142e+00 +0.0000000000000000e+00 +2.1499999949228692e+00 -1.1904073056426891e-04 +0.0000000000000000e+00 +9.9999999291465236e-01
2.2000000000000002e+00 +8.3648660209445662e+00 +0.0000000000000000e+00 +2.1999999945602964e+00 -1.2181012288196411e-04 +0.0000000000000000e+00 +9.9999999258114713e-01
2.2500000000000000e+00 +8.3648598612021594e+00 +0.0000000000000000e+00 +2.2499999941808562e+00 -1.2457958518012602e-04 +0.0000000000000000e+00 +9.9999999223996361e-01
2.2999999999999998e+00 +8.3648535629848553e+00 +0.0000000000000000e+00 +2.2999999937841649e+00 -1.2734911901949005e-04 +0.0000000000000000e+00 +9.9999999189110111e-01
2.3499999999999996e+00 +8.3648471262890389e+00 +0.0000000000000000e+00 +2.3499999933698383e+00 -1.3011872595127468e-04 +0.0000000000000000e+00 +9.9999999153455876e-01
2.3999999999999995e+00 +8.3648405511110155e+00 +0.0000000000000000e+00 +2.3999999929374929e+00 -1.3288840751718157e-04 +0.0000000000000000e+00 +9.9999999117033578e-01
2.4499999999999993e+00 +8.3648338374470175e+00 +0.0000000000000000e+00 +2.4499999924867439e+00 -1.3565816524939556e-04 +0.0000000000000000e+00 +9.9999999079843127e-01
2.4999999999999991e+00 +8.3648269852931971e+00 +0.0000000000000000e+00 +2.4999999920172078e+00 -1.3842800067058469e-04 +0.0000000000000000e+00 +9.9999999041884446e-01
2.5499999999999989e+00 +8.3648199946456305e+00 +0.0000000000000000e+00 +2.5499999915285003e+00 -1.4119791529390037e-04 +0.0000000000000000e+00 +9.9999999003157447e-01
2.5999999999999988e+00 +8.3648128655003227e+00 +0.0000000000000000e+00 +2.5999999910202374e+00 -1.4396791062297728e-04 +0.0000000000000000e+00 +9.9999998963662051e-01
2.6499999999999986e+00 +8.3648055978531985e+00 +0.0000000000000000e+00 +2.6499999904920344e+00 -1.4673798815193344e-04 +0.0000000000000000e+00 +9.9999998923398159e-01
2.6999999999999984e+00 +8.3647981917001122e+00 +0.0000000000000000e+00 +2.6999999899435072e+00 -1.4950814936537032e-04 +0.0000000000000000e+00 +9.9999998882365682e-01
2.7499999999999982e+00 +8.3647906470368429e+00 +0.0000000000000000e+00 +2.7499999893742717e+00 -1.5227839573837287e-04 +0.0000000000000000e+00 +9.9999998840564530e-01
2.7999999999999980e+00 +8.3647829638590956e+00 +0.0000000000000000e+00 +2.7999999887839433e+00 -1.5504872873650947e-04 +0.0000000000000000e+00 +9.9999998797994605e-01
2.8499999999999979e+00 +8.3647751421625021e+00 +0.0000000000000000e+00 +2.8499999881721378e+00 -1.5781914981583209e-04 +0.0000000000000000e+00 +9.9999998754655817e-01
2.8999999999999977e+00 +8.3647671819426215e+00 +0.0000000000000000e+00 +2.8999999875384708e+00 -1.6058966042287618e-04 +0.0000000000000000e+00 +9.9999998710548066e-01
2.9499999999999975e+00 +8.3647590831949437e+00 +0.0000000000000000e+00 +2.9499999868825575e+00 -1.6336026199466086e-04 +0.0000000000000000e+00 +9.9999998665671253e-01
2.9999999999999973e+00 +8.3647508459148820e+00 +0.0000000000000000e+00 +2.9999999862040139e+00 -1.6613095595868887e-04 +0.0000000000000000e+00 +9.9999998620025288e-01
3.0499999999999972e+00 +8.3647424700977844e+00 +0.0000000000000000e+00 +3.0499999855024549e+00 -1.6890174373294662e-04 +0.0000000000000000e+00 +9.9999998573610061e-01
3.0999999999999970e+00 +8.3647339557389220e+00 +0.0000000000000000e+00 +3.0999999847774959e+00 -1.7167262672590418e-04 +0.0000000000000000e+00 +9.9999998526425471e-01
3.1499999999999968e+00 +8.3647253028335005e+00 +0.0000000000000000e+00 +3.1499999840287520e+00 -1.7444360633651540e-04 +0.0000000000000000e+00 +9.9999998478471419e-01
3.1999999999999966e+00 +8.3647165113766544e+00 +0.0000000000000000e+00 +3.1999999832558390e+00 -1.7721468395421786e-04 +0.0000000000000000e+00 +9.9999998429747794e-01
3.2499999999999964e+00 +8.3647075813634491e+00 +0.0000000000000000e+00 +3.2499999824583718e+00 -1.7998586095893294e-04 +0.0000000000000000e+00 +9.9999998380254496e-01
3.2999999999999963e+00 +8.3646985127888804e+00 +0.0000000000000000e+00 +3.2999999816359655e+00 -1.8275713872106583e-04 +0.0000000000000000e+00 +9.9999998329991413e-01
3.3499999999999961e+00 +8.3646893056478753e+00 +0.0000000000000000e+00 +3.3499999807882350e+00 -1.8552851860150553e-04 +0.0000000000000000e+00 +9.9999998278958435e-01
3.3999999999999959e+00 +8.3646799599352946e+00 +0.0000000000000000e+00 +3.3999999799147957e+00 -1.8830000195162497e-04 +0.0000000000000000e+00 +9.9999998227155462e-01
3.4499999999999957e+00 +8.3646704756459318e+00 +0.0000000000000000e+00 +3.4499999790152622e+00 -1.9107159011328090e-04 +0.0000000000000000e+00 +9.9999998174582372e-01
3.4999999999999956e+00 +8.3646608527745130e+00 +0.0000000000000000e+00 +3.4999999780892495e+00 -1.9384328441881402e-04 +0.0000000000000000e+00 +9.9999998121239053e-01
3.5499999999999954e+00 +8.3646510913156984e+00 +0.0000000000000000e+00 +3.5499999771363728e+00 -1.9661508619104895e-04 +0.0000000000000000e+00 +9.9999998067125395e-01
3.5999999999999952e+00 +8.3646411912640808e+00 +0.0000000000000000e+00 +3.5999999761562465e+00 -1.9938699674329428e-04 +0.0000000000000000e+00 +9.9999998012241276e-01
3.6499999999999950e+00 +8.3646311526141890e+00 +0.0000000000000000e+00 +3.6499999751484857e+00 -2.0215901737934253e-04 +0.0000000000000000e+00 +9.9999997956586584e-01
3.6999999999999948e+00 +8.3646209753604861e+00 +0.0000000000000000e+00 +3.6999999741127048e+00 -2.0493114939347022e-04 +0.0000000000000000e+00 +9.9999997900161197e-01
3.7499999999999947e+00 +8.3646106594973713e+00 +0.0000000000000000e+00 +3.7499999730485185e+00 -2.0770339407043790e-04 +0.0000000000000000e+00 +9.9999997842965005e-01
3.7999999999999945e+00 +8.3646002050191797e+00 +0.0000000000000000e+00 +3.7999999719555415e+00 -2.1047575268549011e-04 +0.0000000000000000e+00 +9.9999997784997874e-01
3.8499999999999943e+00 +8.3645896119201826e+00 +0.0000000000000000e+00 +3.8499999708333879e+00 -2.1324822650435545e-04 +0.0000000000000000e+00 +9.9999997726259693e-01
3.8999999999999941e+00 +8.3645788801945891e+00 +0.0000000000000000e+00 +3.8999999696816725e+00 -2.1602081678324652e-04 +0.0000000000000000e+00 +9.9999997666750329e-01
3.9499999999999940e+00 +8.3645680098365425e+00 +0.0000000000000000e+00 +3.9499999685000096e+00 -2.1879352476886002e-04 +0.0000000000000000e+00 +9.9999997606469671e-01
3.9999999999999938e+00 +8.3645570008401293e+00 +0.0000000000000000e+00 +3.9999999672880135e+00 -2.2156635169837669e-04 +0.0000000000000000e+00 +9.9999997545417585e-01
4.0499999999999936e+00 +8.3645458531993704e+00 +0.0000000000000000e+00 +4.0499999660452985e+00 -2.2433929879931826e-04 +0.0000000000000000e+00 +9.9999997483593950e-01
4.0999999999999934e+00 +8.3645345669082261e+00 +0.0000000000000000e+00 +4.0999999647714791e+00 -2.2711236728797338e-04 +0.0000000000000000e+00 +9.9999997420998632e-01
4.1499999999999932e+00 +8.3645231419605981e+00 +0.0000000000000000e+00 +4.1499999634661684e+00 -2.2988555836782348e-04 +0.0000000000000000e+00 +9.9999997357631498e-01
4.1999999999999931e+00 +8.3645115783503261e+00 +0.0000000000000000e+00 +4.1999999621289819e+00 -2.3265887322939979e-04 +0.0000000000000000e+00 +9.9999997293492426e-01
4.2499999999999929e+00 +8.3644998760711928e+00 +0.0000000000000000e+00 +4.2499999607595322e+00 -2.3543231305028331e-04 +0.0000000000000000e+00 +9.9999997228581283e-01
4.2999999999999927e+00 +8.3644880351169189e+00 +0.0000000000000000e+00 +4.2999999593574341e+00 -2.3820587899510480e-04 +0.0000000000000000e+00 +9.9999997162897947e-01
4.3499999999999925e+00 +8.3644760554811715e+00 +0.0000000000000000e+00 +4.3499999579223010e+00 -2.4097957221554483e-04 +0.0000000000000000e+00 +9.9999997096442272e-01
4.3999999999999924e+00 +8.3644639371575575e+00 +0.0000000000000000e+00 +4.3999999564537475e+00 -2.4375339385033376e-04 +0.0000000000000000e+00 +9.9999997029214127e-01
4.4499999999999922e+00 +8.3644516801396271e+00 +0.0000000000000000e+00 +4.4499999549513864e+00 -2.4652734502525182e-04 +0.0000000000000000e+00 +9.9999996961213389e-01
4.4999999999999920e+00 +8.3644392844208770e+00 +0.0000000000000000e+00 +4.4999999534148323e+00 -2.4930142685312902e-04 +0.0000000000000000e+00 +9.9999996892439902e-01
4.5499999999999918e+00 +8.3644267499947453e+00 +0.0000000000000000e+00 +4.5499999518436978e+00 -2.5207564043384521e-04 +0.0000000000000000e+00 +9.9999996822893544e-01
4.5999999999999917e+00 +8.3644140768546187e+00 +0.0000000000000000e+00 +4.5999999502375966e+00 -2.5484998685433011e-04 +0.0000000000000000e+00 +9.9999996752574172e-01
4.6499999999999915e+00 +8.3644012649938286e+00 +0.0000000000000000e+00 +4.6499999485961423e+00 -2.5762446718856331e-04 +0.0000000000000000e+00 +9.9999996681481651e-01
4.6999999999999913e+00 +8.3643883144056517e+00 +0.0000000000000000e+00 +4.6999999469189486e+00 -2.6039908249757428e-04 +0.0000000000000000e+00 +9.9999996609615849e-01
4.7499999999999911e+00 +8.3643752250833128e+00 +0.0000000000000000e+00 +4.7499999452056292e+00 -2.6317383382944230e-04 +0.0000000000000000e+00 +9.9999996536976610e-01
4.7999999999999909e+00 +8.3643619970199854e+00 +0.0000000000000000e+00 +4.7999999434557967e+00 -2.6594872221929664e-04 +0.0000000000000000e+00 +9.9999996463563801e-01
4.8499999999999908e+00 +8.3643486302087897e+00 +0.0000000000000000e+00 +4.8499999416690640e+00 -2.6872374868931634e-04 +0.0000000000000000e+00 +9.9999996389377288e-01
4.8999999999999906e+00 +8.3643351246427979e+00 +0.0000000000000000e+00 +4.8999999398450447e+00 -2.7149891424873039e-04 +0.0000000000000000e+00 +9.9999996314416917e-01
4.9499999999999904e+00 +8.3643214803150308e+00 +0.0000000000000000e+00 +4.9499999379833515e+00 -2.7427421989381764e-04 +0.0000000000000000e+00 +9.9999996238682554e-01
4.9999999999999902e+00 +8.3643076972184573e+00 +0.0000000000000000e+00 +4.9999999360835981e+00 -2.7704966660790692e-04 +0.0000000000000000e+00 +9.9999996162174043e-01
5.0499999999999901e+00 +8.3642937753460025e+00 +0.0000000000000000e+00 +5.0499999341453963e+00 -2.7982525536137683e-04 +0.0000000000000000e+00 +9.9999996084891252e-01
5.0999999999999899e+00 +8.3642797146905377e+00 +0.0000000000000000e+00 +5.0999999321683598e+00 -2.8260098711165602e-04 +0.0000000000000000e+00 +9.9999996006834024e-01
5.1499999999999897e+00 +8.3642655152448917e+00 +0.0000000000000000e+00 +5.1499999301521013e+00 -2.8537686280322286e-04 +0.0000000000000000e+00 +9.9999995928002228e-01
5.1999999999999895e+00 +8.3642511770018437e+00 +0.0000000000000000e+00 +5.1999999280962328e+00 -2.8815288336760575e-04 +0.0000000000000000e+00 +9.9999995848395706e-01
5.2499999999999893e+00 +8.3642366999541267e+00 +0.0000000000000000e+00 +5.2499999260003678e+00 -2.9092904972338296e-04 +0.0000000000000000e+00 +9.9999995768014316e-01
5.2999999999999892e+00 +8.3642220840944272e+00 +0.0000000000000000e+00 +5.2999999238641182e+00 -2.9370536277618258e-04 +0.0000000000000000e+00 +9.9999995686857901e-01
5.3499999999999890e+00 +8.3642073294153896e+00 +0.0000000000000000e+00 +5.3499999216870968e+00 -2.9648182341868265e-04 +0.0000000000000000e+00 +9.9999995604926317e-01
5.3999999999999888e+00 +8.3641924359096116e+00 +0.0000000000000000e+00 +5.3999999194689154e+00 -2.9925843253061110e-04 +0.0000000000000000e+00 +9.9999995522219420e-01
5.4499999999999886e+00 +8.3641774035696486e+00 +0.0000000000000000e+00 +5.4499999172091869e+00 -3.0203519097874571e-04 +0.0000000000000000e+00 +9.9999995438737055e-01
5.4999999999999885e+00 +8.3641622323880114e+00 +0.0000000000000000e+00 +5.4999999149075229e+00 -3.0481209961691412e-04 +0.0000000000000000e+00 +9.9999995354479077e-01
5.5499999999999883e+00 +8.3641469223571701e+00 +0.0000000000000000e+00 +5.5499999125635364e+00 -3.0758915928599389e-04 +0.0000000000000000e+00 +9.9999995269445330e-01
5.5999999999999881e+00 +8.3641314734695520e+00 +0.0000000000000000e+00 +5.5999999101768392e+00 -3.1036637081391236e-04 +0.0000000000000000e+00 +9.9999995183635659e-01
5.6499999999999879e+00 +8.3641158857175437e+00 +0.0000000000000000e+00 +5.6499999077470431e+00 -3.1314373501564676e-04 +0.0000000000000000e+00 +9.9999995097049921e-01
5.6999999999999877e+00 +8.3641001590934927e+00 +0.0000000000000000e+00 +5.6999999052737600e+00 -3.1592125269322413e-04 +0.0000000000000000e+00 +9.9999995009687959e-01
5.7499999999999876e+00 +8.3640842935897037e+00 +0.0000000000000000e+00 +5.7499999027566018e+00 -3.1869892463572141e-04 +0.0000000000000000e+00 +9.9999994921549618e-01
5.7999999999999874e+00 +8.3640682891984444e+00 +0.0000000000000000e+00 +5.7999999001951803e+00 -3.2147675161926526e-04 +0.0000000000000000e+00 +9.9999994832634753e-01
5.8499999999999872e+00 +8.3640521459119448e+00 +0.0000000000000000e+00 +5.8499998975891074e+00 -3.2425473440703221e-04 +0.0000000000000000e+00 +9.9999994742943199e-01
5.8999999999999870e+00 +8.3640358637223944e+00 +0.0000000000000000e+00 +5.8999998949379941e+00 -3.2703287374924846e-04 +0.0000000000000000e+00 +9.9999994652474811e-01
