# field on trajectory
# s[mm] rx[mm] ry[mm] rz[mm] bx[T] by[T] bz[T]
0.0000000000000000e+00 +8.2850000000000001e+00 +0.0000000000000000e+00 +0.0000000000000000e+00 -2.9455045039042626e-02 -5.5254085103345185e-01 +6.3547182701125223e-03
-5.0000000000000003e-02 +8.2849999307523667e+00 +0.0000000000000000e+00 -4.9999999999936068e-02 -2.9456731385852971e-02 -5.5254118750022219e-01 +6.3565358797744989e-03
-1.0000000000000001e-01 +8.2849997230093937e+00 +0.0000000000000000e+00 -9.9999999999488512e-02 -2.9458438492900273e-02 -5.5254191101093753e-01 +6.3583443739001471e-03
-1.5000000000000002e-01 +8.2849993767708998e+00 +0.0000000000000000e+00 -1.4999999999827374e-01 -2.9460166377643690e-02 -5.5254302076057327e-01 +6.3601436070475593e-03
-2.0000000000000001e-01 +8.2849988920366080e+00 +0.0000000000000000e+00 -1.9999999999590809e-01 -2.9461915057543385e-02 -5.5254451594412268e-01 +6.3619334337742892e-03
-2.5000000000000000e-01 +8.2849982688061417e+00 +0.0000000000000000e+00 -2.4999999999200795e-01 -2.9463684550060511e-02 -5.5254639575659781e-01 +6.3637137086373459e-03
-2.9999999999999999e-01 +8.2849975070790300e+00 +0.0000000000000000e+00 -2.9999999998618970e-01 -2.9465474872657257e-02 -5.5254865939302700e-01 +6.3654842861931718e-03
-3.4999999999999998e-01 +8.2849966068547065e+00 +0.0000000000000000e+00 -3.4999999997806969e-01 -2.9467286042796741e-02 -5.5255130604845692e-01 +6.3672450209976512e-03
-3.9999999999999997e-01 +8.2849955681325085e+00 +0.0000000000000000e+00 -3.9999999996726426e-01 -2.9469118077943161e-02 -5.5255433491795281e-01 +6.3689957676060878e-03
-4.4999999999999996e-01 +8.2849943909116757e+00 +0.0000000000000000e+00 -4.4999999995338980e-01 -2.9470970995561646e-02 -5.5255774519659506e-01 +6.3707363805731989e-03
-4.9999999999999994e-01 +8.2849930751913536e+00 +0.0000000000000000e+00 -4.9999999993606259e-01 -2.9472844813118366e-02 -5.5256153607948411e-01 +6.3724667144531106e-03
-5.4999999999999993e-01 +8.2849916209705921e+00 +0.0000000000000000e+00 -5.4999999991489901e-01 -2.9474739548080459e-02 -5.5256570676173589e-01 +6.3741866237993503e-03
-5.9999999999999998e-01 +8.2849900282483446e+00 +0.0000000000000000e+00 -5.9999999988951536e-01 -2.9476655217916068e-02 -5.5257025643848368e-01 +6.3758959631648217e-03
-6.5000000000000002e-01 +8.2849882970234727e+00 +0.0000000000000000e+00 -6.4999999985952794e-01 -2.9478591840094322e-02 -5.5257518430487840e-01 +6.3775945871018232e-03
-7.0000000000000007e-01 +8.2849864272947400e+00 +0.0000000000000000e+00 -6.9999999982455308e-01 -2.9480549432085366e-02 -5.5258048955608796e-01 +6.3792823501620166e-03
-7.5000000000000011e-01 +8.2849844190608160e+00 +0.0000000000000000e+00 -7.4999999978420706e-01 -2.9482528011360296e-02 -5.5258617138729560e-01 +6.3809591068964173e-03
-8.0000000000000016e-01 +8.2849822723202777e+00 +0.0000000000000000e+00 -7.9999999973810609e-01 -2.9484527595391222e-02 -5.5259222899370308e-01 +6.3826247118554036e-03
-8.5000000000000020e-01 +8.2849799870716065e+00 +0.0000000000000000e+00 -8.4999999968586648e-01 -2.9486548201651260e-02 -5.5259866157052839e-01 +6.3842790195887001e-03
-9.0000000000000024e-01 +8.2849775633131912e+00 +0.0000000000000000e+00 -8.9999999962710442e-01 -2.9488589847614460e-02 -5.5260546831300505e-01 +6.3859218846453528e-03
-9.5000000000000029e-01 +8.2849750010433247e+00 +0.0000000000000000e+00 -9.4999999956143610e-01 -2.9490652550755909e-02 -5.5261264841638391e-01 +6.3875531615737446e-03
-1.0000000000000002e+00 +8.2849723002602076e+00 +0.0000000000000000e+00 -9.9999999948847784e-01 -2.9492736328551653e-02 -5.5262020107593168e-01 +6.3891727049215684e-03
-1.0500000000000003e+00 +8.2849694609619462e+00 +0.0000000000000000e+00 -1.0499999994078457e+00 -2.9494841198478738e-02 -5.5262812548693163e-01 +6.3907803692358307e-03
-1.1000000000000003e+00 +8.2849664831465546e+00 +0.0000000000000000e+00 -1.0999999993191558e+00 -2.9496967178015185e-02 -5.5263642084468267e-01 +6.3923760090628329e-03
-1.1500000000000004e+00 +8.2849633668119544e+00 +0.0000000000000000e+00 -1.1499999992220244e+00 -2.9499114284639995e-02 -5.5264508634450005e-01 +6.3939594789481679e-03
-1.2000000000000004e+00 +8.2849601119559733e+00 +0.0000000000000000e+00 -1.1999999991160677e+00 -2.9501282535833156e-02 -5.5265412118171475e-01 +6.3955306334367050e-03
-1.2500000000000004e+00 +8.2849567185763462e+00 +0.0000000000000000e+00 -1.2499999990009014e+00 -2.9503471949075613e-02 -5.5266352455167334e-01 +6.3970893270725920e-03
-1.3000000000000005e+00 +8.2849531866707160e+00 +0.0000000000000000e+00 -1.2999999988761419e+00 -2.9505682541849331e-02 -5.5267329564973822e-01 +6.3986354143992326e-03
-1.3500000000000005e+00 +8.2849495162366349e+00 +0.0000000000000000e+00 -1.3499999987414051e+00 -2.9507914331637231e-02 -5.5268343367128725e-01 +6.4001687499592947e-03
-1.4000000000000006e+00 +8.2849457072715609e+00 +0.0000000000000000e+00 -1.3999999985963070e+00 -2.9510167335923210e-02 -5.5269393781171383e-01 +6.4016891882946771e-03
-1.4500000000000006e+00 +8.2849417597728614e+00 +0.0000000000000000e+00 -1.4499999984404635e+00 -2.9512441572192127e-02 -5.5270480726642668e-01 +6.4031965839465264e-03
-1.5000000000000007e+00 +8.2849376737378115e+00 +0.0000000000000000e+00 -1.4999999982734906e+00 -2.9514737057929858e-02 -5.5271604123084983e-01 +6.4046907914552132e-03
-1.5500000000000007e+00 +8.2849334491635958e+00 +0.0000000000000000e+00 -1.5499999980950043e+00 -2.9517053810623195e-02 -5.5272763890042209e-01 +6.4061716653603176e-03
-1.6000000000000008e+00 +8.2849290860473079e+00 +0.0000000000000000e+00 -1.5999999979046204e+00 -2.9519391847759955e-02 -5.5273959947059759e-01 +6.4076390602006445e-03
-1.6500000000000008e+00 +8.2849245843859496e+00 +0.0000000000000000e+00 -1.6499999977019548e+00 -2.9521751186828888e-02 -5.5275192213684510e-01 +6.4090928305141816e-03
-1.7000000000000008e+00 +8.2849199441764316e+00 +0.0000000000000000e+00 -1.6999999974866233e+00 -2.9524131845319747e-02 -5.5276460609464884e-01 +6.4105328308381223e-03
-1.7500000000000009e+00 +8.2849151654155744e+00 +0.0000000000000000e+00 -1.7499999972582418e+00 -2.9526533840723228e-02 -5.5277765053950678e-01 +6.4119589157088349e-03
-1.8000000000000009e+00 +8.2849102481001093e+00 +0.0000000000000000e+00 -1.7999999970164260e+00 -2.9528957190531009e-02 -5.5279105466693235e-01 +6.4133709396618594e-03
-1.8500000000000010e+00 +8.2849051922266774e+00 +0.0000000000000000e+00 -1.8499999967607914e+00 -2.9531401912235734e-02 -5.5280481767245271e-01 +6.4147687572319017e-03
-1.9000000000000010e+00 +8.2848999977918272e+00 +0.0000000000000000e+00 -1.8999999964909540e+00 -2.9533868023331016e-02 -5.5281893875161003e-01 +6.4161522229528268e-03
-1.9500000000000011e+00 +8.2848946647920201e+00 +0.0000000000000000e+00 -1.9499999962065291e+00 -2.9536355541311420e-02 -5.5283341709996059e-01 +6.4175211913576370e-03
-2.0000000000000009e+00 +8.2848891932236270e+00 +0.0000000000000000e+00 -1.9999999959071324e+00 -2.9538864483672472e-02 -5.5284825191307407e-01 +6.4188755169784784e-03
-2.0500000000000007e+00 +8.2848835830829302e+00 +0.0000000000000000e+00 -2.0499999955923798e+00 -2.9541394842756204e-02 -5.5286344217834960e-01 +6.4202150653028698e-03
-2.1000000000000005e+00 +8.2848778343661227e+00 +0.0000000000000000e+00 -2.0999999952618862e+00 -2.9543946510287421e-02 -5.5287898605045438e-01 +6.4215397456423842e-03
-2.1500000000000004e+00 +8.2848719470693073e+00 +0.0000000000000000e+00 -2.1499999949152677e+00 -2.9546519352837312e-02 -5.5289488147588295e-01 +6.4228494782638205e-03
-2.2000000000000002e+00 +8.2848659211884996e+00 +0.0000000000000000e+00 -2.1999999945521393e+00 -2.9549113236977880e-02 -5.5291112640114171e-01 +6.4241441834329239e-03
-2.2500000000000000e+00 +8.2848597567196283e+00 +0.0000000000000000e+00 -2.2499999941721165e+00 -2.9551728029281920e-02 -5.5292771877274938e-01 +6.4254237814143573e-03
-2.2999999999999998e+00 +8.2848534536585348e+00 +0.0000000000000000e+00 -2.2999999937748146e+00 -2.9554363596323092e-02 -5.5294465653723712e-01 +6.4266881924717034e-03
-2.3499999999999996e+00 +8.2848470120009754e+00 +0.0000000000000000e+00 -2.3499999933598490e+00 -2.9557019804675799e-02 -5.5296193764114776e-01 +6.4279373368674271e-03
-2.3999999999999995e+00 +8.2848404317426159e+00 +0.0000000000000000e+00 -2.3999999929268352e+00 -2.9559696520915269e-02 -5.5297956003103566e-01 +6.4291711348628683e-03
-2.4499999999999993e+00 +8.2848337128790401e+00 +0.0000000000000000e+00 -2.4499999924753877e+00 -2.9562393611617520e-02 -5.5299752165346661e-01 +6.4303895067182220e-03
-2.4999999999999991e+00 +8.2848268554057469e+00 +0.0000000000000000e+00 -2.4999999920051224e+00 -2.9565110943359309e-02 -5.5301582045501840e-01 +6.4315923726925225e-03
-2.5499999999999989e+00 +8.2848198593181497e+00 +0.0000000000000000e+00 -2.5499999915156537e+00 -2.9567848382718195e-02 -5.5303445438227894e-01 +6.4327796530436231e-03
-2.5999999999999988e+00 +8.2848127246115766e+00 +0.0000000000000000e+00 -2.5999999910065972e+00 -2.9570605796272482e-02 -5.5305342138184876e-01 +6.4339512680281746e-03
-2.6499999999999986e+00 +8.2848054512812741e+00 +0.0000000000000000e+00 -2.6499999904775677e+00 -2.9573383050601247e-02 -5.5307271940033698e-01 +6.4351071379016144e-03
-2.6999999999999984e+00 +8.2847980393224070e+00 +0.0000000000000000e+00 -2.6999999899281804e+00 -2.9576180012284271e-02 -5.5309234638436511e-01 +6.4362471829181511e-03
-2.7499999999999982e+00 +8.2847904887300530e+00 +0.0000000000000000e+00 -2.7499999893580500e+00 -2.9578996547902092e-02 -5.5311230028056424e-01 +6.4373713233307327e-03
-2.7999999999999980e+00 +8.2847827994992134e+00 +0.0000000000000000e+00 -2.7999999887667912e+00 -2.9581832524035977e-02 -5.5313257903557633e-01 +6.4384794793910446e-03
-2.8499999999999979e+00 +8.2847749716248043e+00 +0.0000000000000000e+00 -2.8499999881540190e+00 -2.9584687807267890e-02 -5.5315318059605212e-01 +6.4395715713494823e-03
-2.8999999999999977e+00 +8.2847670051016618e+00 +0.0000000000000000e+00 -2.8999999875193483e+00 -2.9587562264180495e-02 -5.5317410290865421e-01 +6.4406475194551342e-03
-2.9499999999999975e+00 +8.2847588999245421e+00 +0.0000000000000000e+00 -2.9499999868623932e+00 -2.9590455761357191e-02 -5.5319534392005287e-01 +6.4417072439557667e-03
-2.9999999999999973e+00 +8.2847506560881197e+00 +0.0000000000000000e+00 -2.9999999861827686e+00 -2.9593368165382040e-02 -5.5321690157692949e-01 +6.4427506650978159e-03
-3.0499999999999972e+00 +8.2847422735869927e+00 +0.0000000000000000e+00 -3.0499999854800892e+00 -2.9596299342839808e-02 -5.5323877382597364e-01 +6.4437777031263405e-03
-3.0999999999999970e+00 +8.2847337524156792e+00 +0.0000000000000000e+00 -3.0999999847539694e+00 -2.9599249160315890e-02 -5.5326095861388458e-01 +6.4447882782850347e-03
-3.1499999999999968e+00 +8.2847250925686176e+00 +0.0000000000000000e+00 -3.1499999840040238e+00 -2.9602217484396405e-02 -5.5328345388737110e-01 +6.4457823108162015e-03
-3.1999999999999966e+00 +8.2847162940401713e+00 +0.0000000000000000e+00 -3.1999999832298669e+00 -2.9605204181668079e-02 -5.5330625759314978e-01 +6.4467597209607215e-03
-3.2499999999999964e+00 +8.2847073568246223e+00 +0.0000000000000000e+00 -3.2499999824311128e+00 -2.9608209118718306e-02 -5.5332936767794638e-01 +6.4477204289580536e-03
-3.2999999999999963e+00 +8.2846982809161798e+00 +0.0000000000000000e+00 -3.2999999816073755e+00 -2.9611232162135136e-02 -5.5335278208849470e-01 +6.4486643550462075e-03
-3.3499999999999961e+00 +8.2846890663089745e+00 +0.0000000000000000e+00 -3.3499999807582697e+00 -2.9614273178507219e-02 -5.5337649877153738e-01 +6.4495914194617277e-03
-3.3999999999999959e+00 +8.2846797129970611e+00 +0.0000000000000000e+00 -3.3999999798834093e+00 -2.9617332034423825e-02 -5.5340051567382442e-01 +6.4505015424396704e-03
-3.4499999999999957e+00 +8.2846702209744212e+00 +0.0000000000000000e+00 -3.4499999789824085e+00 -2.9620408596474863e-02 -5.5342483074211435e-01 +6.4513946442135992e-03
-3.4999999999999956e+00 +8.2846605902349602e+00 +0.0000000000000000e+00 -3.4999999780548809e+00 -2.9623502731250830e-02 -5.5344944192317314e-01 +6.4522706450155535e-03
-3.5499999999999954e+00 +8.2846508207725087e+00 +0.0000000000000000e+00 -3.5499999771004411e+00 -2.9626614305342833e-02 -5.5347434716377419e-01 +6.4531294650760377e-03
-3.5999999999999952e+00 +8.2846409125808247e+00 +0.0000000000000000e+00 -3.5999999761187023e+00 -2.9629743185342543e-02 -5.5349954441069860e-01 +6.4539710246239992e-03
-3.6499999999999950e+00 +8.2846308656535914e+00 +0.0000000000000000e+00 -3.6499999751092789e+00 -2.9632889237842245e-02 -5.5352503161073430e-01 +6.4547952438868163e-03
-3.6999999999999948e+00 +8.2846206799844229e+00 +0.0000000000000000e+00 -3.6999999740717842e+00 -2.9636052329434743e-02 -5.5355080671067625e-01 +6.4556020430902739e-03
-3.7499999999999947e+00 +8.2846103555668567e+00 +0.0000000000000000e+00 -3.7499999730058322e+00 -2.9639232326713456e-02 -5.5357686765732639e-01 +6.4563913424585569e-03
-3.7999999999999945e+00 +8.2845998923943611e+00 +0.0000000000000000e+00 -3.7999999719110362e+00 -2.9642429096272318e-02 -5.5360321239749266e-01 +6.4571630622142087e-03
-3.8499999999999943e+00 +8.2845892904603335e+00 +0.0000000000000000e+00 -3.8499999707870103e+00 -2.9645642504705829e-02 -5.5362983887799044e-01 +6.4579171225781409e-03
-3.8999999999999941e+00 +8.2845785497581002e+00 +0.0000000000000000e+00 -3.8999999696333676e+00 -2.9648872418609022e-02 -5.5365674504564077e-01 +6.4586534437696044e-03
-3.9499999999999940e+00 +8.2845676702809161e+00 +0.0000000000000000e+00 -3.9499999684497213e+00 -2.9652118704577440e-02 -5.5368392884727069e-01 +6.4593719460061651e-03
-3.9999999999999938e+00 +8.2845566520219673e+00 +0.0000000000000000e+00 -3.9999999672356852e+00 -2.9655381229207169e-02 -5.5371138822971355e-01 +6.4600725495036941e-03
-4.0499999999999936e+00 +8.2845454949743722e+00 +0.0000000000000000e+00 -4.0499999659908719e+00 -2.9658659829454984e-02 -5.5373912103075362e-01 +6.4607551869961099e-03
-4.0999999999999934e+00 +8.2845341991311798e+00 +0.0000000000000000e+00 -4.0999999647148950e+00 -2.9661954223718392e-02 -5.5376712465196121e-01 +6.4614198412951364e-03
-4.1499999999999932e+00 +8.2845227644853718e+00 +0.0000000000000000e+00 -4.1499999634073674e+00 -2.9665264100754693e-02 -5.5379539638585529e-01 +6.4620665077316291e-03
-4.1999999999999931e+00 +8.2845111910298606e+00 +0.0000000000000000e+00 -4.1999999620679027e+00 -2.9668589149320839e-02 -5.5382393352495685e-01 +6.4626951816358722e-03
-4.2499999999999929e+00 +8.2844994787574944e+00 +0.0000000000000000e+00 -4.2499999606961136e+00 -2.9671929058173344e-02 -5.5385273336178986e-01 +6.4633058583375832e-03
-4.2999999999999927e+00 +8.2844876276610542e+00 +0.0000000000000000e+00 -4.2999999592916129e+00 -2.9675283516068282e-02 -5.5388179318887965e-01 +6.4638985331659524e-03
-4.3499999999999925e+00 +8.2844756377332569e+00 +0.0000000000000000e+00 -4.3499999578540134e+00 -2.9678652211761251e-02 -5.5391111029875428e-01 +6.4644732014496409e-03
-4.3999999999999924e+00 +8.2844635089667538e+00 +0.0000000000000000e+00 -4.3999999563829277e+00 -2.9682034834007328e-02 -5.5394068198394231e-01 +6.4650298585168129e-03
-4.4499999999999922e+00 +8.2844512413541320e+00 +0.0000000000000000e+00 -4.4499999548779687e+00 -2.9685431071561068e-02 -5.5397050553697402e-01 +6.4655684996951348e-03
-4.4999999999999920e+00 +8.2844388348879168e+00 +0.0000000000000000e+00 -4.4999999533387482e+00 -2.9688840613176407e-02 -5.5400057825038107e-01 +6.4660891203118165e-03
-4.5499999999999918e+00 +8.2844262895605709e+00 +0.0000000000000000e+00 -4.5499999517648799e+00 -2.9692263147606684e-02 -5.5403089741669531e-01 +6.4665917156936006e-03
-4.5999999999999917e+00 +8.2844136053644952e+00 +0.0000000000000000e+00 -4.5999999501559756e+00 -2.9695698363604611e-02 -5.5406146032844994e-01 +6.4670762811668133e-03
-4.6499999999999915e+00 +8.2844007822920283e+00 +0.0000000000000000e+00 -4.6499999485116472e+00 -2.9699145949922179e-02 -5.5409226427817815e-01 +6.4675428120573438e-03
-4.6999999999999913e+00 +8.2843878203354500e+00 +0.0000000000000000e+00 -4.6999999468315083e+00 -2.9702605595310672e-02 -5.5412330655841202e-01 +6.4679913036906952e-03
-4.7499999999999911e+00 +8.2843747194869799e+00 +0.0000000000000000e+00 -4.7499999451151700e+00 -2.9706076988520649e-02 -5.5415458446168497e-01 +6.4684217513919827e-03
-4.7999999999999909e+00 +8.2843614797387772e+00 +0.0000000000000000e+00 -4.7999999433622449e+00 -2.9709559818301846e-02 -5.5418609528052909e-01 +6.4688341504859515e-03
-4.8499999999999908e+00 +8.2843481010829443e+00 +0.0000000000000000e+00 -4.8499999415723440e+00 -2.9713053773403209e-02 -5.5421783630747579e-01 +6.4692284962970040e-03
-4.8999999999999906e+00 +8.2843345835115265e+00 +0.0000000000000000e+00 -4.8999999397450802e+00 -2.9716558542572807e-02 -5.5424980483505548e-01 +6.4696047841492112e-03
-4.9499999999999904e+00 +8.2843209270165090e+00 +0.0000000000000000e+00 -4.9499999378800652e+00 -2.9720073814557837e-02 -5.5428199815579737e-01 +6.4699630093663302e-03
-4.9999999999999902e+00 +8.2843071315898253e+00 +0.0000000000000000e+00 -4.9999999359769109e+00 -2.9723599278104598e-02 -5.5431441356222899e-01 +6.4703031672718190e-03
-5.0499999999999901e+00 +8.2842931972233487e+00 +0.0000000000000000e+00 -5.0499999340352293e+00 -2.9727134621958362e-02 -5.5434704834687587e-01 +6.4706252531888568e-03
-5.0999999999999899e+00 +8.2842791239088989e+00 +0.0000000000000000e+00 -5.0999999320546312e+00 -2.9730679534863476e-02 -5.5437989980226254e-01 +6.4709292624403666e-03
-5.1499999999999897e+00 +8.2842649116382425e+00 +0.0000000000000000e+00 -5.1499999300347286e+00 -2.9734233705563249e-02 -5.5441296522090966e-01 +6.4712151903490228e-03
-5.1999999999999895e+00 +8.2842505604030929e+00 +0.0000000000000000e+00 -5.1999999279751332e+00 -2.9737796822799919e-02 -5.5444624189533642e-01 +6.4714830322372676e-03
-5.2499999999999893e+00 +8.2842360701951083e+00 +0.0000000000000000e+00 -5.2499999258754562e+00 -2.9741368575314647e-02 -5.5447972711805871e-01 +6.4717327834273482e-03
-5.2999999999999892e+00 +8.2842214410058954e+00 +0.0000000000000000e+00 -5.2999999237353084e+00 -2.9744948651847458e-02 -5.5451341818158950e-01 +6.4719644392412989e-03
-5.3499999999999890e+00 +8.2842066728270112e+00 +0.0000000000000000e+00 -5.3499999215543008e+00 -2.9748536741137224e-02 -5.5454731237843835e-01 +6.4721779950010026e-03
-5.3999999999999888e+00 +8.2841917656499593e+00 +0.0000000000000000e+00 -5.3999999193320454e+00 -2.9752132531921612e-02 -5.5458140700111092e-01 +6.4723734460281649e-03
-5.4499999999999886e+00 +8.2841767194661937e+00 +0.0000000000000000e+00 -5.4499999170681530e+00 -2.9755735712937093e-02 -5.5461569934210941e-01 +6.4725507876443600e-03
-5.4999999999999885e+00 +8.2841615342671187e+00 +0.0000000000000000e+00 -5.4999999147622338e+00 -2.9759345972918804e-02 -5.5465018669393185e-01 +6.4727100151710367e-03
-5.5499999999999883e+00 +8.2841462100440904e+00 +0.0000000000000000e+00 -5.5499999124138997e+00 -2.9762963000600683e-02 -5.5468486634907199e-01 +6.4728511239295402e-03
-5.5999999999999881e+00 +8.2841307467884171e+00 +0.0000000000000000e+00 -5.5999999100227607e+00 -2.9766586484715283e-02 -5.5471973560001819e-01 +6.4729741092411268e-03
-5.6499999999999879e+00 +8.2841151444913592e+00 +0.0000000000000000e+00 -5.6499999075884277e+00 -2.9770216113993771e-02 -5.5475479173925446e-01 +6.4730789664269829e-03
-5.6999999999999877e+00 +8.2840994031441291e+00 +0.0000000000000000e+00 -5.6999999051105110e+00 -2.9773851577165975e-02 -5.5479003205925981e-01 +6.4731656908082347e-03
-5.7499999999999876e+00 +8.2840835227378946e+00 +0.0000000000000000e+00 -5.7499999025886215e+00 -2.9777492562960250e-02 -5.5482545385250748e-01 +6.4732342777059828e-03
-5.7999999999999874e+00 +8.2840675032637776e+00 +0.0000000000000000e+00 -5.7999999000223701e+00 -2.9781138760103486e-02 -5.5486105441146505e-01 +6.4732847224413005e-03
-5.8499999999999872e+00 +8.2840513447128536e+00 +0.0000000000000000e+00 -5.8499998974113661e+00 -2.9784789857321105e-02 -5.5489683102859455e-01 +6.4733170203352605e-03
