# trajectory
# s[mm] rx[mm] ry[mm] rz[mm] px[rad] py[rad] pz[rad]
0.0000000000000000e+00 +8.5980000000000008e+00 +0.0000000000000000e+00 +0.0000000000000000e+00 +0.0000000000000000e+00 +0.0000000000000000e+00 +1.0000000000000000e+00
5.0000000000000003e-02 +8.5979999310715751e+00 +0.0000000000000000e+00 +4.9999999999936651e-02 -2.7571358722929082e-06 +0.0000000000000000e+00 +9.9999999999619915e-01
1.0000000000000001e-01 +8.5979997242865096e+00 +0.0000000000000000e+00 +9.9999999999493216e-02 -5.5142659774487754e-06 +0.0000000000000000e+00 +9.9999999998479649e-01
1.5000000000000002e-01 +8.5979993796450422e+00 +0.0000000000000000e+00 +1.4999999999828961e-01 -8.2713922615894611e-06 +0.0000000000000000e+00 +9.9999999996579214e-01
2.0000000000000001e-01 +8.5979988971473151e+00 +0.0000000000000000e+00 +1.9999999999594575e-01 -1.1028516666734165e-05 +0.0000000000000000e+00 +9.9999999993918598e-01
2.5000000000000000e-01 +8.5979982767933745e+00 +0.0000000000000000e+00 +2.4999999999208153e-01 -1.3785641130799517e-05 +0.0000000000000000e+00 +9.9999999990497812e-01
2.9999999999999999e-01 +8.5979975185831687e+00 +0.0000000000000000e+00 +2.9999999998631688e-01 -1.6542767587599674e-05 +0.0000000000000000e+00 +9.9999999986316845e-01
3.4999999999999998e-01 +8.5979966225165505e+00 +0.0000000000000000e+00 +3.4999999997827169e-01 -1.9299897966846401e-05 +0.0000000000000000e+00 +9.9999999981375698e-01
3.9999999999999997e-01 +8.5979955885932746e+00 +0.0000000000000000e+00 +3.9999999996756586e-01 -2.2057034194149173e-05 +0.0000000000000000e+00 +9.9999999975674358e-01
4.4999999999999996e-01 +8.5979944168130018e+00 +0.0000000000000000e+00 +4.4999999995381934e-01 -2.4814178191015251e-05 +0.0000000000000000e+00 +9.9999999969212827e-01
4.9999999999999994e-01 +8.5979931071752951e+00 +0.0000000000000000e+00 +4.9999999993665201e-01 -2.7571331874849783e-05 +0.0000000000000000e+00 +9.9999999961991082e-01
5.4999999999999993e-01 +8.5979916596796215e+00 +0.0000000000000000e+00 +5.4999999991568371e-01 -3.0328497158955881e-05 +0.0000000000000000e+00 +9.9999999954009111e-01
5.9999999999999998e-01 +8.5979900743253541e+00 +0.0000000000000000e+00 +5.9999999989053443e-01 -3.3085675952534715e-05 +0.0000000000000000e+00 +9.9999999945266904e-01
6.5000000000000002e-01 +8.5979883511117698e+00 +0.0000000000000000e+00 +6.4999999986082391e-01 -3.5842870160685599e-05 +0.0000000000000000e+00 +9.9999999935764439e-01
7.0000000000000007e-01 +8.5979864900380498e+00 +0.0000000000000000e+00 +6.9999999982617211e-01 -3.8600081684406082e-05 +0.0000000000000000e+00 +9.9999999925501692e-01
7.5000000000000011e-01 +8.5979844911032810e+00 +0.0000000000000000e+00 +7.4999999978619891e-01 -4.1357312420592019e-05 +0.0000000000000000e+00 +9.9999999914478643e-01
8.0000000000000016e-01 +8.5979823543064562e+00 +0.0000000000000000e+00 +7.9999999974052405e-01 -4.4114564262037673e-05 +0.0000000000000000e+00 +9.9999999902695269e-01
8.5000000000000020e-01 +8.5979800796464723e+00 +0.0000000000000000e+00 +8.4999999968876738e-01 -4.6871839097435786e-05 +0.0000000000000000e+00 +9.9999999890151547e-01
9.0000000000000024e-01 +8.5979776671221320e+00 +0.0000000000000000e+00 +8.9999999963054877e-01 -4.9629138811377678e-05 +0.0000000000000000e+00 +9.9999999876847445e-01
9.5000000000000029e-01 +8.5979751167321457e+00 +0.0000000000000000e+00 +9.4999999956548808e-01 -5.2386465284353319e-05 +0.0000000000000000e+00 +9.9999999862782929e-01
1.0000000000000002e+00 +8.5979724284751278e+00 +0.0000000000000000e+00 +9.9999999949320495e-01 -5.5143820392751410e-05 +0.0000000000000000e+00 +9.9999999847957965e-01
1.0500000000000003e+00 +8.5979696023495986e+00 +0.0000000000000000e+00 +1.0499999994133193e+00 -5.7901206008859474e-05 +0.0000000000000000e+00 +9.9999999832372533e-01
1.1000000000000003e+00 +8.5979666383539879e+00 +0.0000000000000000e+00 +1.0999999993254508e+00 -6.0658624000863941e-05 +0.0000000000000000e+00 +9.9999999816026586e-01
1.1500000000000004e+00 +8.5979635364866294e+00 +0.0000000000000000e+00 +1.1499999992292191e+00 -6.3416076232850210e-05 +0.0000000000000000e+00 +9.9999999798920081e-01
1.2000000000000004e+00 +8.5979602967457645e+00 +0.0000000000000000e+00 +1.1999999991242440e+00 -6.6173564564802749e-05 +0.0000000000000000e+00 +9.9999999781052984e-01
1.2500000000000004e+00 +8.5979569191295404e+00 +0.0000000000000000e+00 +1.2499999990101454e+00 -6.8931090852605178e-05 +0.0000000000000000e+00 +9.9999999762425251e-01
1.3000000000000005e+00 +8.5979534036360157e+00 +0.0000000000000000e+00 +1.2999999988865425e+00 -7.1688656948040328e-05 +0.0000000000000000e+00 +9.9999999743036838e-01
1.3500000000000005e+00 +8.5979497502631528e+00 +0.0000000000000000e+00 +1.3499999987530553e+00 -7.4446264698790324e-05 +0.0000000000000000e+00 +9.9999999722887700e-01
1.4000000000000006e+00 +8.5979459590088219e+00 +0.0000000000000000e+00 +1.3999999986093035e+00 -7.7203915948436685e-05 +0.0000000000000000e+00 +9.9999999701977782e-01
1.4500000000000006e+00 +8.5979420298708025e+00 +0.0000000000000000e+00 +1.4499999984549063e+00 -7.9961612536460372e-05 +0.0000000000000000e+00 +9.9999999680307039e-01
1.5000000000000007e+00 +8.5979379628467818e+00 +0.0000000000000000e+00 +1.4999999982894836e+00 -8.2719356298241906e-05 +0.0000000000000000e+00 +9.9999999657875416e-01
1.5500000000000007e+00 +8.5979337579343564e+00 +0.0000000000000000e+00 +1.5499999981126549e+00 -8.5477149065061383e-05 +0.0000000000000000e+00 +9.9999999634682857e-01
1.6000000000000008e+00 +8.5979294151310288e+00 +0.0000000000000000e+00 +1.5999999979240396e+00 -8.8234992664098621e-05 +0.0000000000000000e+00 +9.9999999610729307e-01
1.6500000000000008e+00 +8.5979249344342126e+00 +0.0000000000000000e+00 +1.6499999977232573e+00 -9.0992888918433178e-05 +0.0000000000000000e+00 +9.9999999586014710e-01
1.7000000000000008e+00 +8.5979203158412290e+00 +0.0000000000000000e+00 +1.6999999975099276e+00 -9.3750839647044467e-05 +0.0000000000000000e+00 +9.9999999560538999e-01
1.7500000000000009e+00 +8.5979155593493086e+00 +0.0000000000000000e+00 +1.7499999972836695e+00 -9.6508846664811792e-05 +0.0000000000000000e+00 +9.9999999534302120e-01
1.8000000000000009e+00 +8.5979106649555934e+00 +0.0000000000000000e+00 +1.7999999970441027e+00 -9.9266911782514461e-05 +0.0000000000000000e+00 +9.9999999507304005e-01
1.8500000000000010e+00 +8.5979056326571328e+00 +0.0000000000000000e+00 +1.8499999967908467e+00 -1.0202503680683185e-04 +0.0000000000000000e+00 +9.9999999479544588e-01
1.9000000000000010e+00 +8.5979004624508857e+00 +0.0000000000000000e+00 +1.8999999965235206e+00 -1.0478322354034344e-04 +0.0000000000000000e+00 +9.9999999451023802e-01
1.9500000000000011e+00 +8.5978951543337203e+00 +0.0000000000000000e+00 +1.9499999962417436e+00 -1.0754147378152893e-04 +0.0000000000000000e+00 +9.9999999421741570e-01
2.0000000000000009e+00 +8.5978897083024179e+00 +0.0000000000000000e+00 +1.9999999959451351e+00 -1.1029978932476832e-04 +0.0000000000000000e+00 +9.9999999391697825e-01
2.0500000000000007e+00 +8.5978841243536692e+00 +0.0000000000000000e+00 +2.0499999956333146e+00 -1.1305817196002779e-04 +0.0000000000000000e+00 +9.9999999360892489e-01
2.1000000000000005e+00 +8.5978784024840742e+00 +0.0000000000000000e+00 +2.0999999953059008e+00 -1.1581662346940466e-04 +0.0000000000000000e+00 +9.9999999329325484e-01
2.1500000000000004e+00 +8.5978725426901441e+00 +0.0000000000000000e+00 +2.1499999949625130e+00 -1.1857514562367217e-04 +0.0000000000000000e+00 +9.9999999296996744e-01
2.2000000000000002e+00 +8.5978665449683049e+00 +0.0000000000000000e+00 +2.1999999946027704e+00 -1.2133374018196546e-04 +0.0000000000000000e+00 +9.9999999263906181e-01
2.2500000000000000e+00 +8.5978604093148903e+00 +0.0000000000000000e+00 +2.2499999942262923e+00 -1.2409240889178159e-04 +0.0000000000000000e+00 +9.9999999230053704e-01
2.2999999999999998e+00 +8.5978541357261502e+00 +0.0000000000000000e+00 +2.2999999938326972e+00 -1.2685115348897967e-04 +0.0000000000000000e+00 +9.9999999195439249e-01
2.3499999999999996e+00 +8.5978477241982478e+00 +0.0000000000000000e+00 +2.3499999934216045e+00 -1.2960997569778091e-04 +0.0000000000000000e+00 +9.9999999160062714e-01
2.3999999999999995e+00 +8.5978411747272592e+00 +0.0000000000000000e+00 +2.3999999929926328e+00 -1.3236887723076858e-04 +0.0000000000000000e+00 +9.9999999123924022e-01
2.4499999999999993e+00 +8.5978344873091750e+00 +0.0000000000000000e+00 +2.4499999925454015e+00 -1.3512785978888822e-04 +0.0000000000000000e+00 +9.9999999087023084e-01
2.4999999999999991e+00 +8.5978276619399026e+00 +0.0000000000000000e+00 +2.4999999920795291e+00 -1.3788692506144762e-04 +0.0000000000000000e+00 +9.9999999049359800e-01
2.5499999999999989e+00 +8.5978206986152621e+00 +0.0000000000000000e+00 +2.5499999915946341e+00 -1.4064607472611686e-04 +0.0000000000000000e+00 +9.9999999010934093e-01
2.5999999999999988e+00 +8.5978135973309939e+00 +0.0000000000000000e+00 +2.5999999910903360e+00 -1.4340531044892838e-04 +0.0000000000000000e+00 +9.9999998971745852e-01
2.6499999999999986e+00 +8.5978063580827548e+00 +0.0000000000000000e+00 +2.6499999905662528e+00 -1.4616463388427708e-04 +0.0000000000000000e+00 +9.9999998931794998e-01
2.6999999999999984e+00 +8.5977989808661164e+00 +0.0000000000000000e+00 +2.6999999900220035e+00 -1.4892404667492034e-04 +0.0000000000000000e+00 +9.9999998891081421e-01
2.7499999999999982e+00 +8.5977914656765702e+00 +0.0000000000000000e+00 +2.7499999894572071e+00 -1.5168355045197806e-04 +0.0000000000000000e+00 +9.9999998849605032e-01
2.7999999999999980e+00 +8.5977838125095278e+00 +0.0000000000000000e+00 +2.7999999888714817e+00 -1.5444314683493273e-04 +0.0000000000000000e+00 +9.9999998807365720e-01
2.8499999999999979e+00 +8.5977760213603176e+00 +0.0000000000000000e+00 +2.8499999882644458e+00 -1.5720283743162952e-04 +0.0000000000000000e+00 +9.9999998764363396e-01
2.8999999999999977e+00 +8.5977680922241877e+00 +0.0000000000000000e+00 +2.8999999876357179e+00 -1.5996262383827627e-04 +0.0000000000000000e+00 +9.9999998720597949e-01
2.9499999999999975e+00 +8.5977600250963100e+00 +0.0000000000000000e+00 +2.9499999869849165e+00 -1.6272250763944355e-04 +0.0000000000000000e+00 +9.9999998676069279e-01
2.9999999999999973e+00 +8.5977518199717746e+00 +0.0000000000000000e+00 +2.9999999863116598e+00 -1.6548249040806474e-04 +0.0000000000000000e+00 +9.9999998630777276e-01
3.0499999999999972e+00 +8.5977434768455936e+00 +0.0000000000000000e+00 +3.0499999856155662e+00 -1.6824257370543611e-04 +0.0000000000000000e+00 +9.9999998584721828e-01
3.0999999999999970e+00 +8.5977349957127025e+00 +0.0000000000000000e+00 +3.0999999848962543e+00 -1.7100275908121676e-04 +0.0000000000000000e+00 +9.9999998537902823e-01
3.1499999999999968e+00 +8.5977263765679588e+00 +0.0000000000000000e+00 +3.1499999841533417e+00 -1.7376304807342877e-04 +0.0000000000000000e+00 +9.9999998490320163e-01
3.1999999999999966e+00 +8.5977176194061435e+00 +0.0000000000000000e+00 +3.1999999833864470e+00 -1.7652344220845715e-04 +0.0000000000000000e+00 +9.9999998441973725e-01
3.2499999999999964e+00 +8.5977087242219614e+00 +0.0000000000000000e+00 +3.2499999825951882e+00 -1.7928394300105005e-04 +0.0000000000000000e+00 +9.9999998392863398e-01
3.2999999999999963e+00 +8.5976996910100407e+00 +0.0000000000000000e+00 +3.2999999817791830e+00 -1.8204455195431859e-04 +0.0000000000000000e+00 +9.9999998342989060e-01
3.3499999999999961e+00 +8.5976905197649387e+00 +0.0000000000000000e+00 +3.3499999809380498e+00 -1.8480527055973709e-04 +0.0000000000000000e+00 +9.9999998292350600e-01
3.3999999999999959e+00 +8.5976812104811327e+00 +0.0000000000000000e+00 +3.3999999800714065e+00 -1.8756610029714300e-04 +0.0000000000000000e+00 +9.9999998240947907e-01
3.4499999999999957e+00 +8.5976717631530324e+00 +0.0000000000000000e+00 +3.4499999791788705e+00 -1.9032704263473698e-04 +0.0000000000000000e+00 +9.9999998188780848e-01
3.4999999999999956e+00 +8.5976621777749695e+00 +0.0000000000000000e+00 +3.4999999782600599e+00 -1.9308809902908295e-04 +0.0000000000000000e+00 +9.9999998135849311e-01
3.5499999999999954e+00 +8.5976524543412047e+00 +0.0000000000000000e+00 +3.5499999773145925e+00 -1.9584927092510811e-04 +0.0000000000000000e+00 +9.9999998082153163e-01
3.5999999999999952e+00 +8.5976425928459275e+00 +0.0000000000000000e+00 +3.5999999763420858e+00 -1.9861055975610298e-04 +0.0000000000000000e+00 +9.9999998027692283e-01
3.6499999999999950e+00 +8.5976325932832562e+00 +0.0000000000000000e+00 +3.6499999753421575e+00 -2.0137196694372146e-04 +0.0000000000000000e+00 +9.9999997972466548e-01
3.6999999999999948e+00 +8.5976224556472367e+00 +0.0000000000000000e+00 +3.6999999743144247e+00 -2.0413349389798087e-04 +0.0000000000000000e+00 +9.9999997916475836e-01
3.7499999999999947e+00 +8.5976121799318470e+00 +0.0000000000000000e+00 +3.7499999732585056e+00 -2.0689514201726193e-04 +0.0000000000000000e+00 +9.9999997859720013e-01
3.7999999999999945e+00 +8.5976017661309925e+00 +0.0000000000000000e+00 +3.7999999721740174e+00 -2.0965691268830887e-04 +0.0000000000000000e+00 +9.9999997802198948e-01
3.8499999999999943e+00 +8.5975912142385127e+00 +0.0000000000000000e+00 +3.8499999710605772e+00 -2.1241880728622943e-04 +0.0000000000000000e+00 +9.9999997743912517e-01
3.8999999999999941e+00 +8.5975805242481762e+00 +0.0000000000000000e+00 +3.8999999699178023e+00 -2.1518082717449490e-04 +0.0000000000000000e+00 +9.9999997684860575e-01
3.9499999999999940e+00 +8.5975696961536840e+00 +0.0000000000000000e+00 +3.9499999687453102e+00 -2.1794297370494013e-04 +0.0000000000000000e+00 +9.9999997625043002e-01
3.9999999999999938e+00 +8.5975587299486715e+00 +0.0000000000000000e+00 +3.9999999675427178e+00 -2.2070524821776361e-04 +0.0000000000000000e+00 +9.9999997564459664e-01
4.0499999999999936e+00 +8.5975476256267065e+00 +0.0000000000000000e+00 +4.0499999663096427e+00 -2.2346765204151481e-04 +0.0000000000000000e+00 +9.9999997503110416e-01
4.0999999999999934e+00 +8.5975363831812910e+00 +0.0000000000000000e+00 +4.0999999650457006e+00 -2.2623018649295498e-04 +0.0000000000000000e+00 +9.9999997440995125e-01
4.1499999999999932e+00 +8.5975250026058596e+00 +0.0000000000000000e+00 +4.1499999637505098e+00 -2.2899285287691795e-04 +0.0000000000000000e+00 +9.9999997378113659e-01
4.1999999999999931e+00 +8.5975134838937830e+00 +0.0000000000000000e+00 +4.1999999624236866e+00 -2.3175565248629752e-04 +0.0000000000000000e+00 +9.9999997314465872e-01
4.2499999999999929e+00 +8.5975018270383696e+00 +0.0000000000000000e+00 +4.2499999610648480e+00 -2.3451858660204739e-04 +0.0000000000000000e+00 +9.9999997250051620e-01
4.2999999999999927e+00 +8.5974900320328604e+00 +0.0000000000000000e+00 +4.2999999596736105e+00 -2.3728165649318124e-04 +0.0000000000000000e+00 +9.9999997184870770e-01
4.3499999999999925e+00 +8.5974780988704360e+00 +0.0000000000000000e+00 +4.3499999582495912e+00 -2.4004486341677272e-04 +0.0000000000000000e+00 +9.9999997118923167e-01
4.3999999999999924e+00 +8.5974660275442147e+00 +0.0000000000000000e+00 +4.3999999567924064e+00 -2.4280820861795547e-04 +0.0000000000000000e+00 +9.9999997052208678e-01
4.4499999999999922e+00 +8.5974538180472493e+00 +0.0000000000000000e+00 +4.4499999553016725e+00 -2.4557169332992303e-04 +0.0000000000000000e+00 +9.9999996984727157e-01
4.4999999999999920e+00 +8.5974414703725355e+00 +0.0000000000000000e+00 +4.4999999537770057e+00 -2.4833531877392905e-04 +0.0000000000000000e+00 +9.9999996916478451e-01
4.5499999999999918e+00 +8.5974289845130052e+00 +0.0000000000000000e+00 +4.5499999522180232e+00 -2.5109908615928702e-04 +0.0000000000000000e+00 +9.9999996847462425e-01
4.5999999999999917e+00 +8.5974163604615335e+00 +0.0000000000000000e+00 +4.5999999506243405e+00 -2.5386299668337048e-04 +0.0000000000000000e+00 +9.9999996777678923e-01
4.6499999999999915e+00 +8.5974035982109314e+00 +0.0000000000000000e+00 +4.6499999489955739e+00 -2.5662705153161296e-04 +0.0000000000000000e+00 +9.9999996707127792e-01
4.6999999999999913e+00 +8.5973906977539549e+00 +0.0000000000000000e+00 +4.6999999473313396e+00 -2.5939125187750793e-04 +0.0000000000000000e+00 +9.9999996635808885e-01
4.7499999999999911e+00 +8.5973776590832998e+00 +0.0000000000000000e+00 +4.7499999456312541e+00 -2.6215559888260884e-04 +0.0000000000000000e+00 +9.9999996563722060e-01
4.7999999999999909e+00 +8.5973644821916029e+00 +0.0000000000000000e+00 +4.7999999438949335e+00 -2.6492009369652914e-04 +0.0000000000000000e+00 +9.9999996490867160e-01
4.8499999999999908e+00 +8.5973511670714462e+00 +0.0000000000000000e+00 +4.8499999421219933e+00 -2.6768473745694221e-04 +0.0000000000000000e+00 +9.9999996417244030e-01
4.8999999999999906e+00 +8.5973377137153548e+00 +0.0000000000000000e+00 +4.8999999403120498e+00 -2.7044953128958137e-04 +0.0000000000000000e+00 +9.9999996342852515e-01
4.9499999999999904e+00 +8.5973241221157970e+00 +0.0000000000000000e+00 +4.9499999384647184e+00 -2.7321447630823995e-04 +0.0000000000000000e+00 +9.9999996267692459e-01
4.9999999999999902e+00 +8.5973103922651859e+00 +0.0000000000000000e+00 +4.9999999365796146e+00 -2.7597957361477117e-04 +0.0000000000000000e+00 +9.9999996191763707e-01
5.0499999999999901e+00 +8.5972965241558796e+00 +0.0000000000000000e+00 +5.0499999346563538e+00 -2.7874482429908817e-04 +0.0000000000000000e+00 +9.9999996115066103e-01
5.0999999999999899e+00 +8.5972825177801813e+00 +0.0000000000000000e+00 +5.0999999326945522e+00 -2.8151022943916396e-04 +0.0000000000000000e+00 +9.9999996037599492e-01
5.1499999999999897e+00 +8.5972683731303423e+00 +0.0000000000000000e+00 +5.1499999306938253e+00 -2.8427579010103154e-04 +0.0000000000000000e+00 +9.9999995959363708e-01
5.1999999999999895e+00 +8.5972540901985610e+00 +0.0000000000000000e+00 +5.1999999286537877e+00 -2.8704150733878370e-04 +0.0000000000000000e+00 +9.9999995880358594e-01
5.2499999999999893e+00 +8.5972396689769823e+00 +0.0000000000000000e+00 +5.2499999265740556e+00 -2.8980738219457313e-04 +0.0000000000000000e+00 +9.9999995800583996e-01
5.2999999999999892e+00 +8.5972251094576979e+00 +0.0000000000000000e+00 +5.2999999244542435e+00 -2.9257341569861238e-04 +0.0000000000000000e+00 +9.9999995720039758e-01
5.3499999999999890e+00 +8.5972104116327515e+00 +0.0000000000000000e+00 +5.3499999222939669e+00 -2.9533960886917376e-04 +0.0000000000000000e+00 +9.9999995638725703e-01
5.3999999999999888e+00 +8.5971955754941334e+00 +0.0000000000000000e+00 +5.3999999200928412e+00 -2.9810596271258945e-04 +0.0000000000000000e+00 +9.9999995556641674e-01
5.4499999999999886e+00 +8.5971806010337861e+00 +0.0000000000000000e+00 +5.4499999178504810e+00 -3.0087247822325130e-04 +0.0000000000000000e+00 +9.9999995473787517e-01
5.4999999999999885e+00 +8.5971654882436006e+00 +0.0000000000000000e+00 +5.4999999155665007e+00 -3.0363915638361100e-04 +0.0000000000000000e+00 +9.9999995390163054e-01
5.5499999999999883e+00 +8.5971502371154198e+00 +0.0000000000000000e+00 +5.5499999132405158e+00 -3.0640599816417994e-04 +0.0000000000000000e+00 +9.9999995305768130e-01
5.5999999999999881e+00 +8.5971348476410405e+00 +0.0000000000000000e+00 +5.5999999108721408e+00 -3.0917300452352916e-04 +0.0000000000000000e+00 +9.9999995220602578e-01
5.6499999999999879e+00 +8.5971193198122080e+00 +0.0000000000000000e+00 +5.6499999084609902e+00 -3.1194017640828942e-04 +0.0000000000000000e+00 +9.9999995134666231e-01
5.6999999999999877e+00 +8.5971036536206249e+00 +0.0000000000000000e+00 +5.6999999060066786e+00 -3.1470751475315114e-04 +0.0000000000000000e+00 +9.9999995047958923e-01
5.7499999999999876e+00 +8.5970878490579441e+00 +0.0000000000000000e+00 +5.7499999035088205e+00 -3.1747502048086424e-04 +0.0000000000000000e+00 +9.9999994960480476e-01
5.7999999999999874e+00 +8.5970719061157723e+00 +0.0000000000000000e+00 +5.7999999009670304e+00 -3.2024269450223831e-04 +0.0000000000000000e+00 +9.9999994872230735e-01
5.8499999999999872e+00 +8.5970558247856737e+00 +0.0000000000000000e+00 +5.8499998983809229e+00 -3.2301053771614249e-04 +0.0000000000000000e+00 +9.9999994783209523e-01
5.8999999999999870e+00 +8.5970396050591660e+00 +0.0000000000000000e+00 +5.8999998957501116e+00 -3.2577855100950531e-04 +0.0000000000000000e+00 +9.9999994693416672e-01
