# field on trajectory
# s[mm] rx[mm] ry[mm] rz[mm] bx[T] by[T] bz[T]
0.0000000000000000e+00 +8.5980000000000008e+00 +0.0000000000000000e+00 +0.0000000000000000e+00 -2.7941861346158458e-02 -5.4985088170235974e-01 +5.4864514330213365e-03
5.0000000000000003e-02 +8.5979999310331117e+00 +0.0000000000000000e+00 +4.9999999999936581e-02 -2.7941961245347931e-02 -5.4985054454908699e-01 +5.4866544366022774e-03
1.0000000000000001e-01 +8.5979997241324853e+00 +0.0000000000000000e+00 +9.9999999999492648e-02 -2.7942083939781624e-02 -5.4985059553607807e-01 +5.4868605095190932e-03
1.5000000000000002e-01 +8.5979993792981091e+00 +0.0000000000000000e+00 +1.4999999999828767e-01 -2.7942229330340927e-02 -5.4985103395857216e-01 +5.4870696712424599e-03
2.0000000000000001e-01 +8.5979988965298730e+00 +0.0000000000000000e+00 +1.9999999999594117e-01 -2.7942397317907788e-02 -5.4985185911182943e-01 +5.4872819412431269e-03
2.5000000000000000e-01 +8.5979982758275693e+00 +0.0000000000000000e+00 +2.4999999999207262e-01 -2.7942587803364637e-02 -5.4985307029112707e-01 +5.4874973389919483e-03
2.9999999999999999e-01 +8.5979975171908958e+00 +0.0000000000000000e+00 +2.9999999998630145e-01 -2.7942800687594496e-02 -5.4985466679176231e-01 +5.4877158839599007e-03
3.4999999999999998e-01 +8.5979966206194511e+00 +0.0000000000000000e+00 +3.4999999997824721e-01 -2.7943035871480882e-02 -5.4985664790905064e-01 +5.4879375956180991e-03
3.9999999999999997e-01 +8.5979955861127380e+00 +0.0000000000000000e+00 +3.9999999996752933e-01 -2.7943293255907851e-02 -5.4985901293832606e-01 +5.4881624934378049e-03
4.4999999999999996e-01 +8.5979944136701629e+00 +0.0000000000000000e+00 +4.4999999995376727e-01 -2.7943572741759994e-02 -5.4986176117494123e-01 +5.4883905968904556e-03
4.9999999999999994e-01 +8.5979931032910368e+00 +0.0000000000000000e+00 +4.9999999993658051e-01 -2.7943874229922401e-02 -5.4986489191426802e-01 +5.4886219254476698e-03
5.4999999999999993e-01 +8.5979916549745745e+00 +0.0000000000000000e+00 +5.4999999991558846e-01 -2.7944197621280708e-02 -5.4986840445169449e-01 +5.4888564985812651e-03
5.9999999999999998e-01 +8.5979900687198949e+00 +0.0000000000000000e+00 +5.9999999989041053e-01 -2.7944542816721079e-02 -5.4987229808263016e-01 +5.4890943357632878e-03
6.5000000000000002e-01 +8.5979883445260210e+00 +0.0000000000000000e+00 +6.4999999986066626e-01 -2.7944909717130154e-02 -5.4987657210249941e-01 +5.4893354564660071e-03
7.0000000000000007e-01 +8.5979864823918817e+00 +0.0000000000000000e+00 +6.9999999982597494e-01 -2.7945298223395105e-02 -5.4988122580674681e-01 +5.4895798801619516e-03
7.5000000000000011e-01 +8.5979844823163081e+00 +0.0000000000000000e+00 +7.4999999978595611e-01 -2.7945708236403650e-02 -5.4988625849083406e-01 +5.4898276263239129e-03
8.0000000000000016e-01 +8.5979823442980390e+00 +0.0000000000000000e+00 +7.9999999974022906e-01 -2.7946139657043966e-02 -5.4989166945024159e-01 +5.4900787144249695e-03
8.5000000000000020e-01 +8.5979800683357173e+00 +0.0000000000000000e+00 +8.4999999968841322e-01 -2.7946592386204783e-02 -5.4989745798046630e-01 +5.4903331639384973e-03
9.0000000000000024e-01 +8.5979776544278899e+00 +0.0000000000000000e+00 +8.9999999963012789e-01 -2.7947066324775300e-02 -5.4990362337702425e-01 +5.4905909943381908e-03
9.5000000000000029e-01 +8.5979751025730096e+00 +0.0000000000000000e+00 +9.4999999956499237e-01 -2.7947561373645246e-02 -5.4991016493544753e-01 +5.4908522250980817e-03
1.0000000000000002e+00 +8.5979724127694368e+00 +0.0000000000000000e+00 +9.9999999949262608e-01 -2.7948077433704831e-02 -5.4991708195128708e-01 +5.4911168756925461e-03
1.0500000000000003e+00 +8.5979695850154361e+00 +0.0000000000000000e+00 +1.0499999994126483e+00 -2.7948614405844768e-02 -5.4992437372011094e-01 +5.4913849655963271e-03
1.1000000000000003e+00 +8.5979666193091777e+00 +0.0000000000000000e+00 +1.0999999993246783e+00 -2.7949172190956290e-02 -5.4993203953750347e-01 +5.4916565142845500e-03
1.1500000000000004e+00 +8.5979635156487397e+00 +0.0000000000000000e+00 +1.1499999992283354e+00 -2.7949750689931087e-02 -5.4994007869906825e-01 +5.4919315412327455e-03
1.2000000000000004e+00 +8.5979602740321042e+00 +0.0000000000000000e+00 +1.1999999991232388e+00 -2.7950349803661369e-02 -5.4994849050042405e-01 +5.4922100659168475e-03
1.2500000000000004e+00 +8.5979568944571625e+00 +0.0000000000000000e+00 +1.2499999990090078e+00 -2.7950969433039815e-02 -5.4995727423720775e-01 +5.4924921078132330e-03
1.3000000000000005e+00 +8.5979533769217102e+00 +0.0000000000000000e+00 +1.2999999988852615e+00 -2.7951609478959614e-02 -5.4996642920507310e-01 +5.4927776863987268e-03
1.3500000000000005e+00 +8.5979497214234506e+00 +0.0000000000000000e+00 +1.3499999987516189e+00 -2.7952269842314414e-02 -5.4997595469969041e-01 +5.4930668211506106e-03
1.4000000000000006e+00 +8.5979459279599943e+00 +0.0000000000000000e+00 +1.3999999986076994e+00 -2.7952950423998379e-02 -5.4998585001674716e-01 +5.4933595315466537e-03
1.4500000000000006e+00 +8.5979419965288599e+00 +0.0000000000000000e+00 +1.4499999984531220e+00 -2.7953651124906116e-02 -5.4999611445194707e-01 +5.4936558370651230e-03
1.5000000000000007e+00 +8.5979379271274716e+00 +0.0000000000000000e+00 +1.4999999982875059e+00 -2.7954371845932736e-02 -5.5000674730101062e-01 +5.4939557571847949e-03
1.5500000000000007e+00 +8.5979337197531613e+00 +0.0000000000000000e+00 +1.5499999981104700e+00 -2.7955112487973815e-02 -5.5001774785967494e-01 +5.4942593113849808e-03
1.6000000000000008e+00 +8.5979293744031722e+00 +0.0000000000000000e+00 +1.5999999979216335e+00 -2.7955872951925406e-02 -5.5002911542369382e-01 +5.4945665191455393e-03
1.6500000000000008e+00 +8.5979248910746495e+00 +0.0000000000000000e+00 +1.6499999977206152e+00 -2.7956653138684038e-02 -5.5004084928883679e-01 +5.4948773999468868e-03
1.7000000000000008e+00 +8.5979202697646517e+00 +0.0000000000000000e+00 +1.6999999975070343e+00 -2.7957452949146692e-02 -5.5005294875088973e-01 +5.4951919732700262e-03
1.7500000000000009e+00 +8.5979155104701430e+00 +0.0000000000000000e+00 +1.7499999972805096e+00 -2.7958272284210849e-02 -5.5006541310565493e-01 +5.4955102585965568e-03
1.8000000000000009e+00 +8.5979106131879970e+00 +0.0000000000000000e+00 +1.7999999970406599e+00 -2.7959111044774412e-02 -5.5007824164895069e-01 +5.4958322754086837e-03
1.8500000000000010e+00 +8.5979055779149967e+00 +0.0000000000000000e+00 +1.8499999967871044e+00 -2.7959969131735773e-02 -5.5009143367661106e-01 +5.4961580431892466e-03
1.9000000000000010e+00 +8.5979004046478309e+00 +0.0000000000000000e+00 +1.8999999965194616e+00 -2.7960846445993774e-02 -5.5010498848448608e-01 +5.4964875814217315e-03
1.9500000000000011e+00 +8.5978950933830998e+00 +0.0000000000000000e+00 +1.9499999962373504e+00 -2.7961742888447733e-02 -5.5011890536844155e-01 +5.4968209095902828e-03
2.0000000000000009e+00 +8.5978896441173127e+00 +0.0000000000000000e+00 +1.9999999959403896e+00 -2.7962658359997419e-02 -5.5013318362435903e-01 +5.4971580471797283e-03
2.0500000000000007e+00 +8.5978840568468886e+00 +0.0000000000000000e+00 +2.0499999956281978e+00 -2.7963592757471799e-02 -5.5014782231003645e-01 +5.4974990032457243e-03
2.1000000000000005e+00 +8.5978783315681540e+00 +0.0000000000000000e+00 +2.0999999953003936e+00 -2.7964545961415701e-02 -5.5016281953088864e-01 +5.4978437451249570e-03
2.1500000000000004e+00 +8.5978724682773482e+00 +0.0000000000000000e+00 +2.1499999949565960e+00 -2.7965517848303988e-02 -5.5017817315424367e-01 +5.4981922297243401e-03
2.2000000000000002e+00 +8.5978664669706184e+00 +0.0000000000000000e+00 +2.1999999945964235e+00 -2.7966508294612925e-02 -5.5019388104744127e-01 +5.4985444139508182e-03
2.2500000000000000e+00 +8.5978603276440246e+00 +0.0000000000000000e+00 +2.2499999942194941e+00 -2.7967517176820198e-02 -5.5020994107783294e-01 +5.4989002547113277e-03
2.2999999999999998e+00 +8.5978540502935399e+00 +0.0000000000000000e+00 +2.2999999938254270e+00 -2.7968544371404985e-02 -5.5022635111278084e-01 +5.4992597089127777e-03
2.3499999999999996e+00 +8.5978476349150448e+00 +0.0000000000000000e+00 +2.3499999934138405e+00 -2.7969589754848014e-02 -5.5024310901965756e-01 +5.4996227334620368e-03
2.3999999999999995e+00 +8.5978410815043382e+00 +0.0000000000000000e+00 +2.3999999929843527e+00 -2.7970653203631592e-02 -5.5026021266584713e-01 +5.4999892852658867e-03
2.4499999999999993e+00 +8.5978343900571286e+00 +0.0000000000000000e+00 +2.4499999925365823e+00 -2.7971734594239673e-02 -5.5027765991874300e-01 +5.5003593212310303e-03
2.4999999999999991e+00 +8.5978275605690389e+00 +0.0000000000000000e+00 +2.4999999920701472e+00 -2.7972833803157883e-02 -5.5029544864574909e-01 +5.5007327982640360e-03
2.5499999999999989e+00 +8.5978205930356069e+00 +0.0000000000000000e+00 +2.5499999915846661e+00 -2.7973950706873616e-02 -5.5031357671427816e-01 +5.5011096732713307e-03
2.5999999999999988e+00 +8.5978134874522851e+00 +0.0000000000000000e+00 +2.5999999910797569e+00 -2.7975085181876032e-02 -5.5033204199175345e-01 +5.5014899031591777e-03
2.6499999999999986e+00 +8.5978062438144409e+00 +0.0000000000000000e+00 +2.6499999905550382e+00 -2.7976237104656135e-02 -5.5035084234560616e-01 +5.5018734448336474e-03
2.6999999999999984e+00 +8.5977988621173598e+00 +0.0000000000000000e+00 +2.6999999900101277e+00 -2.7977406351706834e-02 -5.5036997564327683e-01 +5.5022602552005908e-03
2.7499999999999982e+00 +8.5977913423562420e+00 +0.0000000000000000e+00 +2.7499999894446439e+00 -2.7978592799522944e-02 -5.5038943975221433e-01 +5.5026502911656276e-03
2.7999999999999980e+00 +8.5977836845262043e+00 +0.0000000000000000e+00 +2.7999999888582043e+00 -2.7979796324601295e-02 -5.5040923253987539e-01 +5.5030435096341083e-03
2.8499999999999979e+00 +8.5977758886222801e+00 +0.0000000000000000e+00 +2.8499999882504272e+00 -2.7981016803440770e-02 -5.5042935187372488e-01 +5.5034398675110974e-03
2.8999999999999977e+00 +8.5977679546394246e+00 +0.0000000000000000e+00 +2.8999999876209306e+00 -2.7982254112542303e-02 -5.5044979562123542e-01 +5.5038393217013565e-03
2.9499999999999975e+00 +8.5977598825725092e+00 +0.0000000000000000e+00 +2.9499999869693321e+00 -2.7983508128408989e-02 -5.5047056164988628e-01 +5.5042418291093003e-03
2.9999999999999973e+00 +8.5977516724163241e+00 +0.0000000000000000e+00 +2.9999999862952493e+00 -2.7984778727546115e-02 -5.5049164782716442e-01 +5.5046473466389993e-03
3.0499999999999972e+00 +8.5977433241655792e+00 +0.0000000000000000e+00 +3.0499999855983004e+00 -2.7986065786461203e-02 -5.5051305202056244e-01 +5.5050558311941352e-03
3.0999999999999970e+00 +8.5977348378149063e+00 +0.0000000000000000e+00 +3.0999999848781030e+00 -2.7987369181664043e-02 -5.5053477209758028e-01 +5.5054672396779849e-03
3.1499999999999968e+00 +8.5977262133588574e+00 +0.0000000000000000e+00 +3.1499999841342747e+00 -2.7988688789666826e-02 -5.5055680592572387e-01 +5.5058815289934010e-03
3.1999999999999966e+00 +8.5977174507919045e+00 +0.0000000000000000e+00 +3.1999999833664332e+00 -2.7990024486984046e-02 -5.5057915137250435e-01 +5.5062986560427771e-03
3.2499999999999964e+00 +8.5977085501084414e+00 +0.0000000000000000e+00 +3.2499999825741956e+00 -2.7991376150132721e-02 -5.5060180630543887e-01 +5.5067185777280345e-03
3.2999999999999963e+00 +8.5976995113027854e+00 +0.0000000000000000e+00 +3.2999999817571797e+00 -2.7992743655632289e-02 -5.5062476859204901e-01 +5.5071412509505955e-03
3.3499999999999961e+00 +8.5976903343691777e+00 +0.0000000000000000e+00 +3.3499999809150025e+00 -2.7994126880004779e-02 -5.5064803609986279e-01 +5.5075666326113541e-03
3.3999999999999959e+00 +8.5976810193017812e+00 +0.0000000000000000e+00 +3.3999999800472818e+00 -2.7995525699774784e-02 -5.5067160669641113e-01 +5.5079946796106633e-03
3.4499999999999957e+00 +8.5976715660946823e+00 +0.0000000000000000e+00 +3.4499999791536347e+00 -2.7996939991469526e-02 -5.5069547824922971e-01 +5.5084253488482992e-03
3.4999999999999956e+00 +8.5976619747418930e+00 +0.0000000000000000e+00 +3.4999999782336784e+00 -2.7998369631618964e-02 -5.5071964862585954e-01 +5.5088585972234453e-03
3.5499999999999954e+00 +8.5976522452373505e+00 +0.0000000000000000e+00 +3.5499999772870297e+00 -2.7999814496755756e-02 -5.5074411569384307e-01 +5.5092943816346671e-03
3.5999999999999952e+00 +8.5976423775749176e+00 +0.0000000000000000e+00 +3.5999999763133061e+00 -2.8001274463415330e-02 -5.5076887732072799e-01 +5.5097326589798870e-03
3.6499999999999950e+00 +8.5976323717483822e+00 +0.0000000000000000e+00 +3.6499999753121246e+00 -2.8002749408136018e-02 -5.5079393137406440e-01 +5.5101733861563631e-03
3.6999999999999948e+00 +8.5976222277514580e+00 +0.0000000000000000e+00 +3.6999999742831018e+00 -2.8004239207458988e-02 -5.5081927572140510e-01 +5.5106165200606563e-03
3.7499999999999947e+00 +8.5976119455777891e+00 +0.0000000000000000e+00 +3.7499999732258549e+00 -2.8005743737928381e-02 -5.5084490823030607e-01 +5.5110620175886221e-03
3.7999999999999945e+00 +8.5976015252209450e+00 +0.0000000000000000e+00 +3.7999999721400006e+00 -2.8007262876091295e-02 -5.5087082676832477e-01 +5.5115098356353764e-03
3.8499999999999943e+00 +8.5975909666744244e+00 +0.0000000000000000e+00 +3.8499999710251558e+00 -2.8008796498497898e-02 -5.5089702920302053e-01 +5.5119599310952732e-03
3.8999999999999941e+00 +8.5975802699316546e+00 +0.0000000000000000e+00 +3.8999999698809367e+00 -2.8010344481701453e-02 -5.5092351340195533e-01 +5.5124122608618811e-03
3.9499999999999940e+00 +8.5975694349859921e+00 +0.0000000000000000e+00 +3.9499999687069605e+00 -2.8011906702258338e-02 -5.5095027723269208e-01 +5.5128667818279608e-03
3.9999999999999938e+00 +8.5975584618307224e+00 +0.0000000000000000e+00 +3.9999999675028430e+00 -2.8013483036728112e-02 -5.5097731856279364e-01 +5.5133234508854406e-03
4.0499999999999936e+00 +8.5975473504590614e+00 +0.0000000000000000e+00 +4.0499999662682011e+00 -2.8015073359554339e-02 -5.5100463514120901e-01 +5.5137822305003255e-03
4.0999999999999934e+00 +8.5975361008641578e+00 +0.0000000000000000e+00 +4.0999999650026515e+00 -2.8016677536705007e-02 -5.5103222424242060e-01 +5.5142431054379208e-03
4.1499999999999932e+00 +8.5975247130390908e+00 +0.0000000000000000e+00 +4.1499999637058096e+00 -2.8018295432027513e-02 -5.5106008302229759e-01 +5.5147060660387581e-03
4.1999999999999931e+00 +8.5975131869768724e+00 +0.0000000000000000e+00 +4.1999999623772926e+00 -2.8019926909367370e-02 -5.5108820863670882e-01 +5.5151711026437348e-03
4.2499999999999929e+00 +8.5975015226704468e+00 +0.0000000000000000e+00 +4.2499999610167158e+00 -2.8021571832568159e-02 -5.5111659824152748e-01 +5.5156382055941431e-03
4.2999999999999927e+00 +8.5974897201126907e+00 +0.0000000000000000e+00 +4.2999999596236966e+00 -2.8023230065471388e-02 -5.5114524899262574e-01 +5.5161073652316870e-03
4.3499999999999925e+00 +8.5974777792964190e+00 +0.0000000000000000e+00 +4.3499999581978495e+00 -2.8024901471916438e-02 -5.5117415804587888e-01 +5.5165785718984915e-03
4.3999999999999924e+00 +8.5974657002143804e+00 +0.0000000000000000e+00 +4.3999999567387915e+00 -2.8026585915740372e-02 -5.5120332255716176e-01 +5.5170518159371089e-03
4.4499999999999922e+00 +8.5974534828592564e+00 +0.0000000000000000e+00 +4.4499999552461382e+00 -2.8028283260777904e-02 -5.5123273968235043e-01 +5.5175270876905496e-03
4.4999999999999920e+00 +8.5974411272236697e+00 +0.0000000000000000e+00 +4.4999999537195050e+00 -2.8029993370861286e-02 -5.5126240657732117e-01 +5.5180043775022915e-03
4.5499999999999918e+00 +8.5974286333001775e+00 +0.0000000000000000e+00 +4.5499999521585082e+00 -2.8031716109820162e-02 -5.5129232039795117e-01 +5.5184836757162870e-03
4.5999999999999917e+00 +8.5974160010812763e+00 +0.0000000000000000e+00 +4.5999999505627622e+00 -2.8033451341481518e-02 -5.5132247830011705e-01 +5.5189649726769879e-03
4.6499999999999915e+00 +8.5974032305594008e+00 +0.0000000000000000e+00 +4.6499999489318844e+00 -2.8035198929669516e-02 -5.5135287743969541e-01 +5.5194482587293484e-03
4.6999999999999913e+00 +8.5973903217269267e+00 +0.0000000000000000e+00 +4.6999999472654892e+00 -2.8036958738205463e-02 -5.5138351497256155e-01 +5.5199335242188544e-03
4.7499999999999911e+00 +8.5973772745761661e+00 +0.0000000000000000e+00 +4.7499999455631920e+00 -2.8038730630907657e-02 -5.5141438805459164e-01 +5.5204207594915294e-03
4.7999999999999909e+00 +8.5973640890993757e+00 +0.0000000000000000e+00 +4.7999999438246084e+00 -2.8040514471591279e-02 -5.5144549384165942e-01 +5.5209099548939452e-03
4.8499999999999908e+00 +8.5973507652887520e+00 +0.0000000000000000e+00 +4.8499999420493527e+00 -2.8042310124068305e-02 -5.5147682948963794e-01 +5.5214011007732461e-03
4.8999999999999906e+00 +8.5973373031364346e+00 +0.0000000000000000e+00 +4.8999999402370413e+00 -2.8044117452147427e-02 -5.5150839215439940e-01 +5.5218941874771591e-03
4.9499999999999904e+00 +8.5973237026345064e+00 +0.0000000000000000e+00 +4.9499999383872888e+00 -2.8045936319633896e-02 -5.5154017899181307e-01 +5.5223892053540028e-03
4.9999999999999902e+00 +8.5973099637749932e+00 +0.0000000000000000e+00 +4.9999999364997105e+00 -2.8047766590329447e-02 -5.5157218715774770e-01 +5.5228861447527144e-03
5.0499999999999901e+00 +8.5972960865498660e+00 +0.0000000000000000e+00 +5.0499999345739210e+00 -2.8049608128032193e-02 -5.5160441380806857e-01 +5.5233849960228589e-03
5.0999999999999899e+00 +8.5972820709510405e+00 +0.0000000000000000e+00 +5.0999999326095349e+00 -2.8051460796536531e-02 -5.5163685609863988e-01 +5.5238857495146327e-03
5.1499999999999897e+00 +8.5972679169703792e+00 +0.0000000000000000e+00 +5.1499999306061675e+00 -2.8053324459632996e-02 -5.5166951118532181e-01 +5.5243883955788994e-03
5.1999999999999895e+00 +8.5972536245996896e+00 +0.0000000000000000e+00 +5.1999999285634333e+00 -2.8055198981108212e-02 -5.5170237622397311e-01 +5.5248929245671858e-03
5.2499999999999893e+00 +8.5972391938307275e+00 +0.0000000000000000e+00 +5.2499999264809460e+00 -2.8057084224744764e-02 -5.5173544837044830e-01 +5.5253993268317104e-03
5.2999999999999892e+00 +8.5972246246551975e+00 +0.0000000000000000e+00 +5.2999999243583211e+00 -2.8058980054321073e-02 -5.5176872478059891e-01 +5.5259075927253836e-03
5.3499999999999890e+00 +8.5972099170647507e+00 +0.0000000000000000e+00 +5.3499999221951731e+00 -2.8060886333611309e-02 -5.5180220261027335e-01 +5.5264177126018383e-03
5.3999999999999888e+00 +8.5971950710509901e+00 +0.0000000000000000e+00 +5.3999999199911155e+00 -2.8062802926385293e-02 -5.5183587901531517e-01 +5.5269296768154291e-03
5.4499999999999886e+00 +8.5971800866054693e+00 +0.0000000000000000e+00 +5.4499999177457639e+00 -2.8064729696408403e-02 -5.5186975115156534e-01 +5.5274434757212609e-03
5.4999999999999885e+00 +8.5971649637196883e+00 +0.0000000000000000e+00 +5.4999999154587309e+00 -2.8066666507441433e-02 -5.5190381617485906e-01 +5.5279590996751985e-03
5.5499999999999883e+00 +8.5971497023851047e+00 +0.0000000000000000e+00 +5.5499999131296311e+00 -2.8068613223240502e-02 -5.5193807124102778e-01 +5.5284765390338671e-03
5.5999999999999881e+00 +8.5971343025931244e+00 +0.0000000000000000e+00 +5.5999999107580791e+00 -2.8070569707556975e-02 -5.5197251350589827e-01 +5.5289957841547005e-03
5.6499999999999879e+00 +8.5971187643351072e+00 +0.0000000000000000e+00 +5.6499999083436885e+00 -2.8072535824137324e-02 -5.5200714012529173e-01 +5.5295168253959148e-03
5.6999999999999877e+00 +8.5971030876023669e+00 +0.0000000000000000e+00 +5.6999999058860729e+00 -2.8074511436723067e-02 -5.5204194825502484e-01 +5.5300396531165561e-03
5.7499999999999876e+00 +8.5970872723861724e+00 +0.0000000000000000e+00 +5.7499999033848459e+00 -2.8076496409050588e-02 -5.5207693505090794e-01 +5.5305642576764999e-03
5.7999999999999874e+00 +8.5970713186777470e+00 +0.0000000000000000e+00 +5.7999999008396221e+00 -2.8078490604851118e-02 -5.5211209766874658e-01 +5.5310906294364663e-03
5.8499999999999872e+00 +8.5970552264682691e+00 +0.0000000000000000e+00 +5.8499998982500143e+00 -2.8080493887850593e-02 -5.5214743326433979e-01 +5.5316187587580385e-03
5.8999999999999870e+00 +8.5970389957488766e+00 +0.0000000000000000e+00 +5.8999998956156361e+00 -2.8082506121769511e-02 -5.5218293899348025e-01 +5.5321486360036722e-03
