# multipoles
# s[mm] polynom_b[n=0][T/m^n] polynom_b[n=1][T/m^n] polynom_b[n=2][T/m^n] polynom_b[n=3][T/m^n] polynom_b[n=4][T/m^n] polynom_b[n=5][T/m^n] polynom_b[n=6][T/m^n] 
+0.0000000000000000e+00 -5.2310846831760893e-01 +6.8759316372633759e+00 +3.9865877302151178e+00 +1.7287817173382919e+01 +1.6332786766523899e+04 -6.8672570963973703e+05 -8.4492149096315891e+07 
-5.0000000000000003e-02 -5.2311505794850510e-01 +6.8762507804307633e+00 +3.9778325333093383e+00 +1.7248041480794633e+01 +1.6384758849458754e+04 -6.8593630701161025e+05 -8.4794307153554082e+07 
-1.0000000000000001e-01 -5.2312199590887909e-01 +6.8765892864820737e+00 +3.9686699285332412e+00 +1.7196612776888944e+01 +1.6433584252365941e+04 -6.8503684633358940e+05 -8.5073384264138967e+07 
-1.5000000000000002e-01 -5.2312928107383305e-01 +6.8769470385177938e+00 +3.9591045544138206e+00 +1.7134462234849380e+01 +1.6479354486903536e+04 -6.8403421675226360e+05 -8.5330163204375014e+07 
-2.0000000000000001e-01 -5.2313691231846882e-01 +6.8773239196385365e+00 +3.9491410467306864e+00 +1.7062521052099964e+01 +1.6522161137055606e+04 -6.8293530761429190e+05 -8.5565427232013181e+07 
-2.5000000000000000e-01 -5.2314488851792396e-01 +6.8777198129442878e+00 +3.9387840446582931e+00 +1.6981720479626926e+01 +1.6562095699136098e+04 -6.8174700869328063e+05 -8.5779959032187581e+07 
-2.9999999999999999e-01 -5.2315320854733716e-01 +6.8781346015380622e+00 +3.9280381848710153e+00 +1.6892991680445132e+01 +1.6599249732351451e+04 -6.8047620908130438e+05 -8.5974541694576502e+07 
-3.4999999999999998e-01 -5.2316187128187452e-01 +6.8785681685194362e+00 +3.9169081057055504e+00 +1.6797265991269775e+01 +1.6633714756369180e+04 -6.7912979930885951e+05 -8.6149958065064609e+07 
-3.9999999999999997e-01 -5.2317087559671527e-01 +6.8790203969939361e+00 +3.9053984455996251e+00 +1.6695474535653904e+01 +1.6665582282614934e+04 -6.7771466817335307e+05 -8.6306990911766365e+07 
-4.4999999999999996e-01 -5.2318022036706069e-01 +6.8794911700617600e+00 +3.8935138434347927e+00 +1.6588548677592737e+01 +1.6694943815438972e+04 -6.7623770642558194e+05 -8.6446422975578010e+07 
-4.9999999999999994e-01 -5.2318990446810743e-01 +6.8799803708282061e+00 +3.8812589354943383e+00 +1.6477419604265624e+01 +1.6721890924449919e+04 -6.7470580338830431e+05 -8.6569037421699733e+07 
-5.4999999999999993e-01 -5.2319992677507743e-01 +6.8804878823984961e+00 +3.8686383588356108e+00 +1.6363018538146427e+01 +1.6746515162272270e+04 -6.7312584869802778e+05 -8.6675617312207475e+07 
-5.9999999999999998e-01 -5.2321028616322374e-01 +6.8810135878757004e+00 +3.8556567538761857e+00 +1.6246276802830209e+01 +1.6768907988281200e+04 -6.7150473277323251e+05 -8.6766945072687075e+07 
-6.5000000000000002e-01 -5.2322098150778595e-01 +6.8815573703666892e+00 +3.8423187559338601e+00 +1.6128125604633109e+01 +1.6789160999981843e+04 -6.6984934511650540e+05 -8.6843804064165935e+07 
-7.0000000000000007e-01 -5.2323201168405131e-01 +6.8821191129763353e+00 +3.8286290060699071e+00 +1.6009496251902483e+01 +1.6807365640446107e+04 -6.6816657606164226e+05 -8.6906976607518613e+07 
-7.5000000000000011e-01 -5.2324337556728906e-01 +6.8826986988112466e+00 +3.8145921395929641e+00 +1.5891320001530911e+01 +1.6823613504115252e+04 -6.6646331549559196e+05 -8.6957246028525040e+07 
-8.0000000000000016e-01 -5.2325507203279975e-01 +6.8832960109797314e+00 +3.8002127944360096e+00 +1.5774528066932271e+01 +1.6837996121170458e+04 -6.6474645296763116e+05 -8.6995395248603344e+07 
-8.5000000000000020e-01 -5.2326709995590404e-01 +6.8839109325888153e+00 +3.7854956101972568e+00 +1.5660051736300399e+01 +1.6850604969309243e+04 -6.6302287862636102e+05 -8.7022206803950801e+07 
-9.0000000000000024e-01 -5.2327945821192379e-01 +6.8845433467444792e+00 +3.7704452232952970e+00 +1.5548822360449542e+01 +1.6861531616859356e+04 -6.6129948313539114e+05 -8.7038463860282660e+07 
-9.5000000000000029e-01 -5.2329214567620019e-01 +6.8851931365574330e+00 +3.7550662720107089e+00 +1.5441771114497520e+01 +1.6870867576373777e+04 -6.5958315569344291e+05 -8.7044949190308690e+07 
-1.0000000000000002e+00 -5.2330516122408610e-01 +6.8858601851338124e+00 +3.7393633933295942e+00 +1.5339829381633791e+01 +1.6878704399494403e+04 -6.5788078720797424e+05 -8.7042445840926930e+07 
-1.0500000000000003e+00 -5.2331850373095179e-01 +6.8865443755842852e+00 +3.7233412254239986e+00 +1.5243928376403778e+01 +1.6885133603751641e+04 -6.5619926718644612e+05 -8.7031736627008021e+07 
-1.1000000000000003e+00 -5.2333217207218119e-01 +6.8872455910183374e+00 +3.7070044060683589e+00 +1.5154999383038707e+01 +1.6890246716477559e+04 -6.5454548571210541e+05 -8.7013604420193449e+07 
-1.1500000000000004e+00 -5.2334616512316945e-01 +6.8879637145454300e+00 +3.6903575728010933e+00 +1.5073973693971141e+01 +1.6894135270247411e+04 -6.5292633288466348e+05 -8.6988832126238748e+07 
-1.2000000000000004e+00 -5.2336048175931960e-01 +6.8886986292743764e+00 +3.6734053621780793e+00 +1.5001782652103953e+01 +1.6896890824884817e+04 -6.5134869923206931e+05 -8.6958202839192629e+07 
-1.2500000000000004e+00 -5.2337512085606352e-01 +6.8894502183173802e+00 +3.6561524130829501e+00 +1.4939357474117546e+01 +1.6898604878885330e+04 -6.4981947423113522e+05 -8.6922499242087081e+07 
-1.3000000000000005e+00 -5.2339008128882147e-01 +6.8902183647844950e+00 +3.6386033609172084e+00 +1.4887629473763088e+01 +1.6899369015229240e+04 -6.4834554811171896e+05 -8.6882504553275943e+07 
-1.3500000000000005e+00 -5.2340536193304621e-01 +6.8910029517871809e+00 +3.6207628434036652e+00 +1.4847529926398384e+01 +1.6899274764804592e+04 -6.4693381079284952e+05 -8.6839001679256231e+07 
-1.4000000000000006e+00 -5.2342096166419860e-01 +6.8918038624359372e+00 +3.6026354981542701e+00 +1.4819990151925431e+01 +1.6898413653937503e+04 -6.4559115251673164e+05 -8.6792773468721524e+07 
-1.4500000000000006e+00 -5.2343687935774996e-01 +6.8926209798414604e+00 +3.5842259621412516e+00 +1.4805941477352388e+01 +1.6896877226183598e+04 -6.4432446356895193e+05 -8.6744602882750452e+07 
-1.5000000000000007e+00 -5.2345311388917426e-01 +6.8934541871172188e+00 +3.5655388705223259e+00 +1.4806315123681697e+01 +1.6894757073523957e+04 -6.4314063334350148e+05 -8.6695273210019588e+07 
-1.5500000000000007e+00 -5.2346966413398377e-01 +6.8943033673750111e+00 +3.5465788627721140e+00 +1.4822042387793061e+01 +1.6892144673478411e+04 -6.4204655180595221e+05 -8.6645566972025141e+07 
-1.6000000000000008e+00 -5.2348652896767012e-01 +6.8951684037242815e+00 +3.5273505731308394e+00 +1.4854054673635995e+01 +1.6889131638688301e+04 -6.4104910979896307e+05 -8.6596267581983238e+07 
-1.6500000000000008e+00 -5.2350370726576001e-01 +6.8960491792805803e+00 +3.5078586389688184e+00 +1.4903283150845006e+01 +1.6885809504239813e+04 -6.4015519623408723e+05 -8.6548157952632293e+07 
-1.7000000000000008e+00 -5.2352119790377349e-01 +6.8969455771568811e+00 +3.4881076953021863e+00 +1.4970659078208445e+01 +1.6882269855799539e+04 -6.3937170064190507e+05 -8.6502021287391648e+07 
-1.7500000000000009e+00 -5.2353899975726292e-01 +6.8978574804614219e+00 +3.4681023799124744e+00 +1.5057113930607450e+01 +1.6878604215588377e+04 -6.3870551435185992e+05 -8.6458640407475337e+07 
-1.8000000000000009e+00 -5.2355711170178221e-01 +6.8987847723094129e+00 +3.4478473292856751e+00 +1.5163578902193091e+01 +1.6874904132443287e+04 -6.3816352636132936e+05 -8.6418798279346526e+07 
-1.8500000000000010e+00 -5.2357553261287593e-01 +6.8997273358152604e+00 +3.4273471759743739e+00 +1.5290985215574137e+01 +1.6871261261667281e+04 -6.3775262582713645e+05 -8.6383278588779047e+07 
-1.9000000000000010e+00 -5.2359426136613774e-01 +6.9006850540906743e+00 +3.4066065590878423e+00 +1.5440264213560567e+01 +1.6867767082352057e+04 -6.3747970289107924e+05 -8.6352863834875882e+07 
-1.9500000000000011e+00 -5.2361329683713831e-01 +6.9016578102466637e+00 +3.3856301117146459e+00 +1.5612347263372186e+01 +1.6864513232783316e+04 -6.3735164782465098e+05 -8.6328337577461749e+07 
-2.0000000000000009e+00 -5.2363263790147674e-01 +6.9026454873986234e+00 +3.3644224699404353e+00 +1.5808165556556796e+01 +1.6861591270484070e+04 -6.3737534942452563e+05 -8.6310482831810519e+07 
-2.0500000000000007e+00 -5.2365228322127677e-01 +6.9036479701302378e+00 +3.3429878108143716e+00 +1.6028177386605858e+01 +1.6859071712390192e+04 -6.3755438454116555e+05 -8.6299877791421756e+07 
-2.1000000000000005e+00 -5.2367223060537549e-01 +6.9046651427771506e+00 +3.3213285885787722e+00 +1.6271002191271769e+01 +1.6856949481732656e+04 -6.3787942763048073e+05 -8.6296341355368778e+07 
-2.1500000000000004e+00 -5.2369247764949278e-01 +6.9056968880887020e+00 +3.2994468712832670e+00 +1.6534812051572732e+01 +1.6855202498646489e+04 -6.3833801270204631e+05 -8.6299515952524185e+07 
-2.2000000000000002e+00 -5.2371302194935210e-01 +6.9067430888124841e+00 +3.2773447254989714e+00 +1.6817779126332027e+01 +1.6853808725405190e+04 -6.3891767439162976e+05 -8.6309044299485758e+07 
-2.2500000000000000e+00 -5.2373386110068143e-01 +6.9078036276980459e+00 +3.2550242182637077e+00 +1.7118075514666096e+01 +1.6852746103174555e+04 -6.3960594689237757e+05 -8.6324568942568004e+07 
-2.2999999999999998e+00 -5.2375499269922188e-01 +6.9088783874940169e+00 +3.2324874160626367e+00 +1.7433873355134882e+01 +1.6851992600609858e+04 -6.4039036469955172e+05 -8.6345732661229253e+07 
-2.3499999999999996e+00 -5.2377641434073807e-01 +6.9099672509501238e+00 +3.2097363886257111e+00 +1.7763344751961174e+01 +1.6851526091888209e+04 -6.4125846202487196e+05 -8.6372177570315987e+07 
-2.3999999999999995e+00 -5.2379812362098044e-01 +6.9110701008177058e+00 +3.1867732011679344e+00 +1.8104661765783923e+01 +1.6851324580313052e+04 -6.4219777278542507e+05 -8.6403546686376661e+07 
-2.4499999999999993e+00 -5.2382011813572027e-01 +6.9121868198466832e+00 +3.1635999217583874e+00 +1.8455996518901525e+01 +1.6851365986446974e+04 -6.4319583138560271e+05 -8.6439482445320845e+07 
-2.4999999999999991e+00 -5.2384239548074651e-01 +6.9133172907852343e+00 +3.1402186197752604e+00 +1.8815521205385142e+01 +1.6851628202572985e+04 -6.4424017279395764e+05 -8.6479627123234630e+07 
-2.5499999999999989e+00 -5.2386495325184212e-01 +6.9144613963862662e+00 +3.1166313618409451e+00 +1.9181407854465213e+01 +1.6852089195857858e+04 -6.4531833071063517e+05 -8.6523623499681681e+07 
-2.5999999999999988e+00 -5.2388778904480815e-01 +6.9156190194015181e+00 +3.0928402173207896e+00 +1.9551828542906783e+01 +1.6852726854585850e+04 -6.4641783919989190e+05 -8.6571113807766050e+07 
-2.6499999999999986e+00 -5.2391090045543909e-01 +6.9167900425809812e+00 +3.0688472521023851e+00 +1.9924955429235215e+01 +1.6853519170613010e+04 -6.4752623302000295e+05 -8.6621741015901312e+07 
-2.6999999999999984e+00 -5.2393428507957496e-01 +6.9179743486761849e+00 +3.0446545394893056e+00 +2.0298960619411837e+01 +1.6854443933547387e+04 -6.4863104651510809e+05 -8.6675146722942233e+07 
-2.7499999999999982e+00 -5.2395794051302635e-01 +6.9191718204414618e+00 +3.0202641459452084e+00 +2.0672016117316147e+01 +1.6855479118895521e+04 -6.4971981321882934e+05 -8.6730973785156369e+07 
-2.7999999999999980e+00 -5.2398186435162208e-01 +6.9203823406261700e+00 +2.9956781401714494e+00 +2.1042294134874272e+01 +1.6856602644923074e+04 -6.5078006838345132e+05 -8.6788864688663155e+07 
-2.8499999999999979e+00 -5.2400605419120638e-01 +6.9216057919847698e+00 +2.9708985923906566e+00 +2.1407966691012266e+01 +1.6857792388143545e+04 -6.5179934571005683e+05 -8.6848461633462191e+07 
-2.8999999999999977e+00 -5.2403050762762438e-01 +6.9228420572702634e+00 +2.9459275718845275e+00 +2.1767205870258621e+01 +1.6859026255534158e+04 -6.5276517945982562e+05 -8.6909407050004646e+07 
-2.9499999999999975e+00 -5.2405522225674150e-01 +6.9240910192343970e+00 +2.9207671504130630e+00 +2.2118183819688383e+01 +1.6860282085456070e+04 -6.5366510443957790e+05 -8.6971342894445240e+07 
-2.9999999999999973e+00 -5.2408019567441921e-01 +6.9253525606340611e+00 +2.8954193976397331e+00 +2.2459072479314091e+01 +1.6861537779864386e+04 -6.5448665375692269e+05 -8.7033911584251329e+07 
-3.0499999999999972e+00 -5.2410542547651751e-01 +6.9266265642185569e+00 +2.8698863825078944e+00 +2.2788044113268100e+01 +1.6862771258039546e+04 -6.5521736322562478e+05 -8.7096755647704437e+07 
-3.0999999999999970e+00 -5.2413090925892691e-01 +6.9279129127458905e+00 +2.8441701778812454e+00 +2.3103270641141005e+01 +1.6863960338561599e+04 -6.5584476587818412e+05 -8.7159516951287940e+07 
-3.1499999999999968e+00 -5.2415664461754141e-01 +6.9292114889692806e+00 +2.8182728568033175e+00 +2.3402924182499113e+01 +1.6865082833296958e+04 -6.5635639639549050e+05 -8.7221837311628088e+07 
-3.1999999999999966e+00 -5.2418262914824432e-01 +6.9305221756434294e+00 +2.7921964890428481e+00 +2.3685176802309044e+01 +1.6866116649434294e+04 -6.5673978903354832e+05 -8.7283359216842994e+07 
-3.2499999999999964e+00 -5.2420886044692849e-01 +6.9318448555226073e+00 +2.7659431455471148e+00 +2.3948200597717680e+01 +1.6867039662426123e+04 -6.5698247837250482e+05 -8.7343724944817200e+07 
-3.2999999999999963e+00 -5.2423533610951878e-01 +6.9331794113640672e+00 +2.7395149018169458e+00 +2.4190167550649193e+01 +1.6867829627848925e+04 -6.5707199807824590e+05 -8.7402575971978888e+07 
-3.3499999999999961e+00 -5.2426205373191559e-01 +6.9345257259214312e+00 +2.7129138283958150e+00 +2.4409249796519862e+01 +1.6868464438685922e+04 -6.5699588309223077e+05 -8.7459554723530143e+07 
-3.3999999999999959e+00 -5.2428901091004954e-01 +6.9358836819519656e+00 +2.6861420003923828e+00 +2.4603619328231915e+01 +1.6868921865216122e+04 -6.5674166722632933e+05 -8.7514302794703498e+07 
-3.4499999999999957e+00 -5.2431620523983702e-01 +6.9372531622112907e+00 +2.6592014897059726e+00 +2.4771448224361553e+01 +1.6869179769211925e+04 -6.5629688507164561e+05 -8.7566462422902882e+07 
-3.4999999999999956e+00 -5.2434363431722331e-01 +6.9386340494570611e+00 +2.6320943725662662e+00 +2.4910908471619280e+01 +1.6869215897695885e+04 -6.5564907044425211e+05 -8.7615675078140512e+07 
-3.5499999999999954e+00 -5.2437129573814178e-01 +6.9400262264444850e+00 +2.6048227227332341e+00 +2.5020172180702147e+01 +1.6869008065243477e+04 -6.5478575828339218e+05 -8.7661582691222847e+07 
-3.5999999999999952e+00 -5.2439918709853461e-01 +6.9414295759326459e+00 +2.5773886143462108e+00 +2.5097411299692865e+01 +1.6868534084553998e+04 -6.5369448219116614e+05 -8.7703827215029478e+07 
-3.6499999999999950e+00 -5.2442730599436094e-01 +6.9428439806776963e+00 +2.5497941247274905e+00 +2.5140797904844085e+01 +1.6867771680039386e+04 -6.5236277686714102e+05 -8.7742050000888035e+07 
-3.6999999999999948e+00 -5.2445565002157102e-01 +6.9442693234372834e+00 +2.5220413285015106e+00 +2.5148504028755067e+01 +1.6866698655033040e+04 -6.5077817674522998e+05 -8.7775892953476876e+07 
-3.7499999999999947e+00 -5.2448421677612134e-01 +6.9457054869699979e+00 +2.4941323012721637e+00 +2.5118701655585202e+01 +1.6865292788812039e+04 -6.4892821584350429e+05 -8.7804997830197856e+07 
-3.7999999999999945e+00 -5.2451300385399713e-01 +6.9471523540344338e+00 +2.4660691232868230e+00 +2.5049562790478742e+01 +1.6863531738119156e+04 -6.4680042844759231e+05 -8.7829005572144866e+07 
-3.8499999999999943e+00 -5.2454200885115487e-01 +6.9486098073892659e+00 +2.4378538688980500e+00 +2.4939259434460510e+01 +1.6861393322966982e+04 -6.4438234884233435e+05 -8.7847558238387391e+07 
-3.8999999999999941e+00 -5.2457122936358114e-01 +6.9500777297929535e+00 +2.4094886178183814e+00 +2.4785963605610494e+01 +1.6858855223970608e+04 -6.4166151150153542e+05 -8.7860296973295674e+07 
-3.9499999999999940e+00 -5.2460066298724883e-01 +6.9515560040058695e+00 +2.3809754469759286e+00 +2.4587847253157133e+01 +1.6855895195909048e+04 -6.3862545040391199e+05 -8.7866863416954070e+07 
-3.9999999999999938e+00 -5.2463030731815685e-01 +6.9530445127849543e+00 +2.3523164374107255e+00 +2.4343082465761668e+01 +1.6852490891702404e+04 -6.3526170065408177e+05 -8.7866898555366680e+07 
-4.0499999999999936e+00 -5.2466015991841453e-01 +6.9545431175902452e+00 +2.3235149891278080e+00 +2.4050567986612283e+01 +1.6848613573357554e+04 -6.3156294400466909e+05 -8.7860081983617872e+07 
-4.0999999999999934e+00 -5.2469021821287876e-01 +6.9560515929192501e+00 +2.2945805791898874e+00 +2.3712029443393689e+01 +1.6844180733189805e+04 -6.2754181064937625e+05 -8.7846047860822111e+07 
-4.1499999999999932e+00 -5.2472047959163470e-01 +6.9575696910301339e+00 +2.2655244030649984e+00 +2.3329881306042910e+01 +1.6839089822883081e+04 -6.2321577243289200e+05 -8.7824372452765375e+07 
-4.1999999999999931e+00 -5.2475094144479895e-01 +6.9590971641797177e+00 +2.2363576624378050e+00 +2.2906538093908818e+01 +1.6833238119231068e+04 -6.1860230163931963e+05 -8.7794630810315251e+07 
-4.2499999999999929e+00 -5.2478160116245143e-01 +6.9606337646250411e+00 +2.2070915529997768e+00 +2.2444414299186967e+01 +1.6826523058999435e+04 -6.1371887028031261e+05 -8.7756399058866650e+07 
-4.2999999999999927e+00 -5.2481245613469085e-01 +6.9621792446210273e+00 +2.1777372738527578e+00 +2.1945924493861114e+01 +1.6818841983688839e+04 -6.0858295102514152e+05 -8.7709252661309808e+07 
-4.3499999999999925e+00 -5.2484350375160338e-01 +6.9637333564217290e+00 +2.1483060220486201e+00 +2.1413483266195211e+01 +1.6810092291324821e+04 -6.0321201662650250e+05 -8.7652767465049773e+07 
-4.3999999999999924e+00 -5.2487474140327295e-01 +6.9652958522829751e+00 +2.1188089948541959e+00 +2.0849505122657515e+01 +1.6800171368818596e+04 -5.9762353915797954e+05 -8.7586519219268590e+07 
-4.4499999999999922e+00 -5.2490616647976318e-01 +6.9668664844545605e+00 +2.0892573868674051e+00 +2.0256404808101461e+01 +1.6788976670057778e+04 -5.9183499264490849e+05 -8.7510084105023518e+07 
-4.4999999999999920e+00 -5.2493777637116257e-01 +6.9684450051919615e+00 +2.0596623969124286e+00 +1.9636596804943117e+01 +1.6776405537146511e+04 -5.8586384888383222e+05 -8.7423037551175281e+07 
-4.5499999999999918e+00 -5.2496956846753218e-01 +6.9700311667435209e+00 +2.0300352197698981e+00 +1.8992495886462116e+01 +1.6762355414046317e+04 -5.7972758207278210e+05 -8.7324955642128527e+07 
-4.5999999999999917e+00 -5.2500154015891898e-01 +6.9716247213605484e+00 +2.0003870487904032e+00 +1.8326516685597642e+01 +1.6746723780851855e+04 -5.7344366523382743e+05 -8.7215414698755726e+07 
-4.6499999999999915e+00 -5.2503368883539092e-01 +6.9732254212904579e+00 +1.9707290812477476e+00 +1.7641073970806509e+01 +1.6729408009655883e+04 -5.6702957242971030e+05 -8.7093990296129718e+07 
-4.6999999999999913e+00 -5.2506601188698354e-01 +6.9748330187826726e+00 +1.9410725095192942e+00 +1.6938582420600522e+01 +1.6710305601022359e+04 -5.6050277700607199e+05 -8.6960258860705659e+07 
-4.7499999999999911e+00 -5.2509850670373548e-01 +6.9764472660818253e+00 +1.9114285270728149e+00 +1.6221456888347483e+01 +1.6689314024834464e+04 -5.5388075369522651e+05 -8.6813796603002355e+07 
-4.7999999999999909e+00 -5.2513117067568615e-01 +6.9780679154360374e+00 +1.8818083289610399e+00 +1.5492112063888298e+01 +1.6666330699928851e+04 -5.4718097584393166e+05 -8.6654179355235755e+07 
-4.8499999999999908e+00 -5.2516400119285245e-01 +6.9796947190878962e+00 +1.8522231068226092e+00 +1.4752962843190719e+01 +1.6641253135277471e+04 -5.4042091845968517e+05 -8.6480983543896198e+07 
-4.8999999999999906e+00 -5.2519699564523792e-01 +6.9813274292806451e+00 +1.8226840507092006e+00 +1.4006424077839304e+01 +1.6613978881323266e+04 -5.3361805616058793e+05 -8.6293785867920727e+07 
-4.9499999999999904e+00 -5.2523015142285945e-01 +6.9829657982576707e+00 +1.7932023538213957e+00 +1.3254910598249564e+01 +1.6584405400242140e+04 -5.2678986337334616e+05 -8.6092162412304625e+07 
-4.9999999999999902e+00 -5.2526346591571205e-01 +6.9846095782587341e+00 +1.7637892072314378e+00 +1.2500837359172886e+01 +1.6552430202180170e+04 -5.1995381550379912e+05 -8.5875689546796739e+07 
-5.0499999999999901e+00 -5.2529693651377563e-01 +6.9862585215213473e+00 +1.7344557999264112e+00 +1.1746619373145501e+01 +1.6517950853887171e+04 -5.1312738834331086e+05 -8.5643944019315273e+07 
