# multipoles
# s[mm] polynom_b[n=0][T/m^n] polynom_b[n=1][T/m^n] polynom_b[n=2][T/m^n] polynom_b[n=3][T/m^n] polynom_b[n=4][T/m^n] polynom_b[n=5][T/m^n] polynom_b[n=6][T/m^n] 
+0.0000000000000000e+00 -5.7892228681404867e-01 +7.5520183197923743e+00 +5.1103993215386287e+00 -2.6758752357330255e+01 +2.6733292987286484e+04 -4.0571101396930130e+05 -1.5593294284931484e+08 
-5.0000000000000003e-02 -5.7892411111599784e-01 +7.5520500918126663e+00 +5.1084807726224026e+00 -2.6838477187625568e+01 +2.6741064891119189e+04 -4.0463474369062745e+05 -1.5584944628036302e+08 
-1.0000000000000001e-01 -5.7892634996691883e-01 +7.5521047432298873e+00 +5.1059854109441360e+00 -2.6932557255038802e+01 +2.6750729406480641e+04 -4.0339992004533240e+05 -1.5577668749024481e+08 
-1.5000000000000002e-01 -5.7892900243927536e-01 +7.5521821895619654e+00 +5.1029172140599917e+00 -2.7040092718062755e+01 +2.6762263062790313e+04 -4.0201459798691829e+05 -1.5571463565663803e+08 
-2.0000000000000001e-01 -5.7893206760555127e-01 +7.5522823463248621e+00 +5.0992801592928094e+00 -2.7160183631066921e+01 +2.6775642398597811e+04 -4.0048683328682510e+05 -1.5566326003381020e+08 
-2.5000000000000000e-01 -5.7893554453825147e-01 +7.5524051290367105e+00 +5.0950782248008419e+00 -2.7291930101035060e+01 +2.6790843927973008e+04 -3.9882468132305198e+05 -1.5562252970724633e+08 
-2.9999999999999999e-01 -5.7893943230989442e-01 +7.5525504532166510e+00 +5.0903153875120415e+00 -2.7434432246048800e+01 +2.6807844198909825e+04 -3.9703619737728749e+05 -1.5559241399320406e+08 
-3.4999999999999998e-01 -5.7894372999301957e-01 +7.5527182343849573e+00 +5.0849956245273535e+00 -2.7586790213364363e+01 +2.6826619754893964e+04 -3.9512943644222768e+05 -1.5557288217972714e+08 
-3.9999999999999997e-01 -5.7894843666019524e-01 +7.5529083880607812e+00 +5.0791229149669430e+00 -2.7748104067494285e+01 +2.6847147083905282e+04 -3.9311245422403252e+05 -1.5556390317740962e+08 
-4.4999999999999996e-01 -5.7895355138399085e-01 +7.5531208297669679e+00 +5.0727012344646756e+00 -2.7917473982154135e+01 +2.6869402772914920e+04 -3.9099330558159359e+05 -1.5556544658822852e+08 
-4.9999999999999994e-01 -5.7895907323702489e-01 +7.5533554750249428e+00 +5.0657345645938152e+00 -2.8094000069211155e+01 +2.6893363240162900e+04 -3.8878004578245099e+05 -1.5557748083997446e+08 
-5.4999999999999993e-01 -5.7896500129188888e-01 +7.5536122393577374e+00 +5.0582268784560522e+00 -2.8276782462870482e+01 +2.6919005138122197e+04 -3.8648072996030038e+05 -1.5559997596670187e+08 
-5.9999999999999998e-01 -5.7897133462123773e-01 +7.5538910382897635e+00 +5.0501821570632366e+00 -2.8464921323630982e+01 +2.6946304906575009e+04 -3.8410341304631718e+05 -1.5563290057110688e+08 
-6.5000000000000002e-01 -5.7897807229771636e-01 +7.5541917873436848e+00 +5.0416043764011338e+00 -2.8657516722993137e+01 +2.6975239117153764e+04 -3.8165615065443714e+05 -1.5567622412841693e+08 
-7.0000000000000007e-01 -5.7898521339401343e-01 +7.5545144020452559e+00 +5.0324975173926134e+00 -2.8853668834435286e+01 +2.7005784209400528e+04 -3.7914699754587433e+05 -1.5572991523308638e+08 
-7.5000000000000011e-01 -5.7899275698279462e-01 +7.5548587979211854e+00 +5.0228655529576489e+00 -2.9052477820524974e+01 +2.7037916841362952e+04 -3.7658400865513569e+05 -1.5579394396090686e+08 
-8.0000000000000016e-01 -5.7900070213678045e-01 +7.5552248904972314e+00 +5.0127124629563182e+00 -2.9253043808178777e+01 +2.7071613479869873e+04 -3.7397523908396653e+05 -1.5586827908137807e+08 
-8.5000000000000020e-01 -5.7900904792870544e-01 +7.5556125953007571e+00 +5.0020422263235105e+00 -2.9454466940671018e+01 +2.7106850618936747e+04 -3.7132874388213281e+05 -1.5595288955924699e+08 
-9.0000000000000024e-01 -5.7901779343130710e-01 +7.5560218278605351e+00 +4.9908588195641750e+00 -2.9655847402580033e+01 +2.7143604816665618e+04 -3.6865257771536458e+05 -1.5604774478505960e+08 
-9.5000000000000029e-01 -5.7902693771734881e-01 +7.5564525037044525e+00 +4.9791662204254150e+00 -2.9856285312854265e+01 +2.7181852598516914e+04 -3.6595479579789395e+05 -1.5615281393307406e+08 
-1.0000000000000002e+00 -5.7903647985961115e-01 +7.5569045383617492e+00 +4.9669684064267381e+00 -3.0054880826686034e+01 +2.7221570495662323e+04 -3.6324345299668470e+05 -1.5626806621258295e+08 
-1.0500000000000003e+00 -5.7904641893088893e-01 +7.5573778473610709e+00 +4.9542693545984200e+00 -3.0250734047790473e+01 +2.7262735051833271e+04 -3.6052660461644485e+05 -1.5639347091646618e+08 
-1.1000000000000003e+00 -5.7905675400400070e-01 +7.5578723462352118e+00 +4.9410730433955239e+00 -3.0442945211260671e+01 +2.7305322769775052e+04 -3.5781230491287593e+05 -1.5652899705071127e+08 
-1.1500000000000004e+00 -5.7906748415178000e-01 +7.5583879505146720e+00 +4.9273834501486373e+00 -3.0630614450009279e+01 +2.7349310187077692e+04 -3.5510860891163716e+05 -1.5667461387371829e+08 
-1.2000000000000004e+00 -5.7907860844706704e-01 +7.5589245757307202e+00 +4.9132045504178015e+00 -3.0812841901963473e+01 +2.7394673888583158e+04 -3.5242357158173091e+05 -1.5683029095847198e+08 
-1.2500000000000004e+00 -5.7909012596273701e-01 +7.5594821374165626e+00 +4.8985403236902902e+00 -3.0988727747598876e+01 +2.7441390345095588e+04 -3.4976524759629206e+05 -1.5699599707970700e+08 
-1.3000000000000005e+00 -5.7910203577167596e-01 +7.5600605511033478e+00 +4.8833947469545933e+00 -3.1157372068255764e+01 +2.7489436105522127e+04 -3.4714169237897935e+05 -1.5717170157428518e+08 
-1.3500000000000005e+00 -5.7911433694676706e-01 +7.5606597323275206e+00 +4.8677717950618558e+00 -3.1317875144189539e+01 +2.7538787766469530e+04 -3.4456095969305775e+05 -1.5735737406888440e+08 
-1.4000000000000006e+00 -5.7912702856094411e-01 +7.5612795966204907e+00 +4.8516754477304751e+00 -3.1469337012319158e+01 +2.7589421798213407e+04 -3.4203110533585417e+05 -1.5755298334822008e+08 
-1.4500000000000006e+00 -5.7914010968712581e-01 +7.5619200595178997e+00 +4.8351096794476476e+00 -3.1610857870014250e+01 +2.7641314811395900e+04 -3.3956018372531963e+05 -1.5775849914545128e+08 
-1.5000000000000007e+00 -5.7915357939826939e-01 +7.5625810365557555e+00 +4.8180784685314464e+00 -3.1741537897554103e+01 +2.7694443311589239e+04 -3.3715624945346115e+05 -1.5797389047493199e+08 
-1.5500000000000007e+00 -5.7916743676733506e-01 +7.5632624432700029e+00 +4.8005857907211738e+00 -3.1860477264915446e+01 +2.7748783872768374e+04 -3.3482735711217753e+05 -1.5819912680521962e+08 
-1.6000000000000008e+00 -5.7918168086731070e-01 +7.5639641951951857e+00 +4.7826356237712977e+00 -3.1966776040231327e+01 +2.7804313016748183e+04 -3.3258156220155483e+05 -1.5843417726283455e+08 
-1.6500000000000008e+00 -5.7919631077118117e-01 +7.5646862078691770e+00 +4.7642319417913566e+00 -3.2059534425762209e+01 +2.7861007361460950e+04 -3.3042691903240210e+05 -1.5867901161009017e+08 
-1.7000000000000008e+00 -5.7921132555196697e-01 +7.5654283968276115e+00 +4.7453787226631192e+00 -3.2137852504552527e+01 +2.7918843421419890e+04 -3.2837148288188752e+05 -1.5893359890400001e+08 
-1.7500000000000009e+00 -5.7922672428269406e-01 +7.5661906776116945e+00 +4.7260799418323423e+00 -3.2200830558691294e+01 +2.7977797778781216e+04 -3.2642330741975666e+05 -1.5919790866321999e+08 
-1.8000000000000009e+00 -5.7924250603641259e-01 +7.5669729657570270e+00 +4.7063395766081610e+00 -3.2247568630713992e+01 +2.8037846962605010e+04 -3.2459044821079698e+05 -1.5947191003599921e+08 
-1.8500000000000010e+00 -5.7925866988617181e-01 +7.5677751768043162e+00 +4.6861616008888110e+00 -3.2277166944994690e+01 +2.8098967594433489e+04 -3.2288095933925459e+05 -1.5975557279285374e+08 
-1.9000000000000010e+00 -5.7927521490504419e-01 +7.5685972262901924e+00 +4.6655499897728197e+00 -3.2288725530960200e+01 +2.8161136265627738e+04 -3.2130289648690494e+05 -1.6004886650914419e+08 
-1.9500000000000011e+00 -5.7929214016612962e-01 +7.5694390297557943e+00 +4.6445087207642342e+00 -3.2281344598652325e+01 +2.8224329495222391e+04 -3.1986431377508555e+05 -1.6035176023653969e+08 
-2.0000000000000009e+00 -5.7930944474251900e-01 +7.5703005027406514e+00 +4.6230417666802062e+00 -3.2254124259170034e+01 +2.8288523934330522e+04 -3.1857326615512837e+05 -1.6066422394202945e+08 
-2.0500000000000007e+00 -5.7932712748300386e-01 +7.5711815506293814e+00 +4.6011533474418691e+00 -3.2206461848770900e+01 +2.8353691183813313e+04 -3.1743522205041407e+05 -1.6098615896111035e+08 
-2.1000000000000005e+00 -5.7934518633944532e-01 +7.5720820321044799e+00 +4.5788490291832433e+00 -3.2138938602062872e+01 +2.8419788494698179e+04 -3.1644546255897114e+05 -1.6131724588677230e+08 
-2.1500000000000004e+00 -5.7936361903961231e-01 +7.5730017926542379e+00 +4.5561348220632354e+00 -3.2052431465117813e+01 +2.8486770770545412e+04 -3.1559675931387598e+05 -1.6165712183681628e+08 
-2.2000000000000002e+00 -5.7938242331130474e-01 +7.5739406777680554e+00 +4.5330167402713526e+00 -3.1947817441349443e+01 +2.8554592802021085e+04 -3.1488188337973057e+05 -1.6200542315294930e+08 
-2.2500000000000000e+00 -5.7940159688229986e-01 +7.5748985329384917e+00 +4.5095007909536724e+00 -3.1825973624282884e+01 +2.8623209575353449e+04 -3.1429360517274548e+05 -1.6236178751838350e+08 
-2.2999999999999998e+00 -5.7942113748041280e-01 +7.5758752036570973e+00 +4.4855929863945168e+00 -3.1687777063877075e+01 +2.8692575933865261e+04 -3.1382469541037304e+05 -1.6272585163762170e+08 
-2.3499999999999996e+00 -5.7944104283347075e-01 +7.5768705354154759e+00 +4.4612993382599271e+00 -3.1534104786953552e+01 +2.8762646741071509e+04 -3.1346792503951956e+05 -1.6309725236286166e+08 
-2.3999999999999995e+00 -5.7946131066931450e-01 +7.5778843737027861e+00 +4.4366258589969645e+00 -3.1365833711186983e+01 +2.8833376837050222e+04 -3.1321606587753847e+05 -1.6347562638425350e+08 
-2.4499999999999993e+00 -5.7948193871577869e-01 +7.5789165640133156e+00 +4.4115785574798894e+00 -3.1183840957196473e+01 +2.8904721160353976e+04 -3.1306188804334839e+05 -1.6386061106292248e+08 
-2.4999999999999991e+00 -5.7950292470073050e-01 +7.5799669518403610e+00 +4.3861634467495589e+00 -3.0989003579049410e+01 +2.8976634533969314e+04 -3.1299816224948299e+05 -1.6425184296994117e+08 
-2.5499999999999989e+00 -5.7952426635203080e-01 +7.5810353826760641e+00 +4.3603865359506155e+00 -3.0782198572224527e+01 +2.9049071893920125e+04 -3.1301765968711162e+05 -1.6464895947333333e+08 
-2.5999999999999988e+00 -5.7954596139757641e-01 +7.5821217020119338e+00 +4.3342538398305672e+00 -3.0564302899790079e+01 +2.9121988012557700e+04 -3.1311315177634486e+05 -1.6505159678679851e+08 
-2.6499999999999986e+00 -5.7956800756524873e-01 +7.5832257553419851e+00 +4.3077713673907576e+00 -3.0336193608732437e+01 +2.9195337829605181e+04 -3.1327740928302234e+05 -1.6545939230557573e+08 
-2.6999999999999984e+00 -5.7959040258295924e-01 +7.5843473881617438e+00 +4.2809451316800429e+00 -3.0098747798517369e+01 +2.9269076169799959e+04 -3.1350320252408332e+05 -1.6587198262768686e+08 
-2.7499999999999982e+00 -5.7961314417861831e-01 +7.5854864459618341e+00 +4.2537811434864254e+00 -2.9852842356511168e+01 +2.9343157920799735e+04 -3.1378330356323224e+05 -1.6628900478412598e+08 
-2.7999999999999980e+00 -5.7963623008015341e-01 +7.5866427742385927e+00 +4.2262854148899978e+00 -2.9599354391302310e+01 +2.9417537934292155e+04 -3.1411048265583493e+05 -1.6671009556092930e+08 
-2.8499999999999979e+00 -5.7965965801549346e-01 +7.5878162184864610e+00 +4.1984639565954982e+00 -2.9339160922596403e+01 +2.9492171102561646e+04 -3.1447751078803808e+05 -1.6713489203700912e+08 
-2.8999999999999977e+00 -5.7968342571260290e-01 +7.5890066241985501e+00 +4.1703227838288610e+00 -2.9073138902457803e+01 +2.9567012192219820e+04 -3.1487715951517253e+05 -1.6756303042546815e+08 
-2.9499999999999975e+00 -5.7970753089942173e-01 +7.5902138368708130e+00 +4.1418679056958352e+00 -2.8802165397025501e+01 +2.9642016138515570e+04 -3.1530219942987378e+05 -1.6799414809773070e+08 
-2.9999999999999973e+00 -5.7973197130392851e-01 +7.5914377019983839e+00 +4.1131053369168793e+00 -2.8527117427024251e+01 +2.9717137722720090e+04 -3.1574540151374694e+05 -1.6842788137730807e+08 
-3.0499999999999972e+00 -5.7975674465408422e-01 +7.5926780650744030e+00 +4.0840410867314212e+00 -2.8248871916279768e+01 +2.9792331880399717e+04 -3.1619953757179662e+05 -1.6886386765666324e+08 
-3.0999999999999970e+00 -5.7978184867788163e-01 +7.5939347715941032e+00 +4.0546811694783917e+00 -2.7968305867387251e+01 +2.9867553400611665e+04 -3.1665737875594757e+05 -1.6930174330675673e+08 
-3.1499999999999968e+00 -5.7980728110333146e-01 +7.5952076670559201e+00 +4.0250316003847137e+00 -2.7686296418185975e+01 +2.9942757058252391e+04 -3.1711169506487506e+05 -1.6974114464404255e+08 
-3.1999999999999966e+00 -5.7983303965841360e-01 +7.5964965969531129e+00 +3.9950983883058231e+00 -2.7403720468349952e+01 +3.0017897794179502e+04 -3.1755525853922765e+05 -1.7018170908608136e+08 
-3.2499999999999964e+00 -5.7985912207114809e-01 +7.5978014067808362e+00 +3.9648875475056053e+00 -2.7121455000265527e+01 +3.0092930406693151e+04 -3.1798084049378376e+05 -1.7062307310156578e+08 
-3.2999999999999963e+00 -5.7988552606956867e-01 +7.5991219420369056e+00 +3.9344050934815362e+00 -2.6840377096331757e+01 +3.0167809659770264e+04 -3.1838121142947598e+05 -1.7106487292770934e+08 
-3.3499999999999961e+00 -5.7991224938168662e-01 +7.6004580482146231e+00 +3.9036570361834806e+00 -2.6561363637078912e+01 +3.0242490471452740e+04 -3.1874914356430637e+05 -1.7150674586299452e+08 
-3.3999999999999959e+00 -5.7993928973554776e-01 +7.6018095708122830e+00 +3.8726493907295847e+00 -2.6285291719026226e+01 +3.0316927616032350e+04 -3.1907740727436345e+05 -1.7194832822031128e+08 
-3.4499999999999957e+00 -5.7996664485920268e-01 +7.6031763553230904e+00 +3.8413881719365981e+00 -2.6013038215599476e+01 +3.0391075876897150e+04 -3.1935877482186159e+05 -1.7238925638179037e+08 
-3.4999999999999956e+00 -5.7999431248069344e-01 +7.6045582472450564e+00 +3.8098793913606035e+00 -2.5745480182115045e+01 +3.0464890131077806e+04 -3.1958601700915350e+05 -1.7282916738636678e+08 
-3.5499999999999954e+00 -5.8002229032808783e-01 +7.6059550920739571e+00 +3.7781290643202774e+00 -2.5483494597985992e+01 +3.0538325150533732e+04 -3.1975190519941103e+05 -1.7326769755268469e+08 
-3.5999999999999952e+00 -5.8005057612945998e-01 +7.6073667353067647e+00 +3.7461432062023303e+00 -2.5227958470091501e+01 +3.0611335707286282e+04 -3.1984921061165113e+05 -1.7370448321257281e+08 
-3.6499999999999950e+00 -5.8007916761287281e-01 +7.6087930224379718e+00 +3.7139278294041862e+00 -2.4979748716259980e+01 +3.0683876653105028e+04 -3.1987070512697491e+05 -1.7413916123488277e+08 
-3.6999999999999948e+00 -5.8010806250642577e-01 +7.6102337989670907e+00 +3.6814889515585376e+00 -2.4739742433384780e+01 +3.0755902701742245e+04 -3.1980915927543584e+05 -1.7457136757367346e+08 
-3.7499999999999947e+00 -5.8013725853818898e-01 +7.6116889103849710e+00 +3.6488325843500498e+00 -2.4508816387831640e+01 +3.0827368725587759e+04 -3.1965734620047669e+05 -1.7500073925006944e+08 
-3.7999999999999945e+00 -5.8016675343627044e-01 +7.6131582021916486e+00 +3.6159647450770227e+00 -2.4287847699684612e+01 +3.0898229448752809e+04 -3.1940803622505540e+05 -1.7542691230073413e+08 
-3.8499999999999943e+00 -5.8019654492877215e-01 +7.6146415198825190e+00 +3.5828914488753023e+00 -2.4077713298158425e+01 +3.0968439654551585e+04 -3.1905400125232636e+05 -1.7584952316698003e+08 
-3.8999999999999941e+00 -5.8022663074379266e-01 +7.6161387089526276e+00 +3.5496187100472039e+00 -2.3879290107354809e+01 +3.1037954147726559e+04 -3.1858801320069446e+05 -1.7626820844141665e+08 
-3.9499999999999940e+00 -5.8025700860945861e-01 +7.6176496148994914e+00 +3.5161525467437680e+00 -2.3693455148380256e+01 +3.1106727628576540e+04 -3.1800284320904454e+05 -1.7668260400523254e+08 
-3.9999999999999938e+00 -5.8028767625388866e-01 +7.6191740832193746e+00 +3.4824989744166364e+00 -2.3521085370748764e+01 +3.1174714880688720e+04 -3.1729126305492793e+05 -1.7709234634799033e+08 
-4.0499999999999936e+00 -5.8031863127144068e-01 +7.6207119532043022e+00 +3.4486631944612594e+00 -2.3362839514221797e+01 +3.1241894562888872e+04 -3.1644809208790294e+05 -1.7749724400197816e+08 
-4.0999999999999934e+00 -5.8034987072062194e-01 +7.6222630330507188e+00 +3.4146473568862983e+00 -2.3218530958562084e+01 +3.1308334314558211e+04 -3.1547610434865416e+05 -1.7789772112406951e+08 
-4.1499999999999932e+00 -5.8038139152578638e-01 +7.6238271215747258e+00 +3.3804529240918768e+00 -2.3087767059035198e+01 +3.1374122353280502e+04 -3.1438002605047222e+05 -1.7829433739858127e+08 
-4.1999999999999931e+00 -5.8041319061127128e-01 +7.6254040175980968e+00 +3.3460813546155284e+00 -2.2970155431446869e+01 +3.1439347005599826e+04 -3.1316458124487853e+05 -1.7868765325296593e+08 
-4.2499999999999929e+00 -5.8044526490142101e-01 +7.6269935199360681e+00 +3.3115341087467591e+00 -2.2865303408984861e+01 +3.1504096544687636e+04 -3.1183449638662953e+05 -1.7907822872964418e+08 
-4.2999999999999927e+00 -5.8047761132057729e-01 +7.6285954274080439e+00 +3.2768126449582451e+00 -2.2772818524566240e+01 +3.1568459302272146e+04 -3.1039449618111248e+05 -1.7946662429961744e+08 
-4.3499999999999925e+00 -5.8051022679310293e-01 +7.6302095388334932e+00 +3.2419184254845415e+00 -2.2692308295180208e+01 +3.1632523505157897e+04 -3.0884930556199618e+05 -1.7985339970795327e+08 
-4.3999999999999924e+00 -5.8054310824333044e-01 +7.6318356530330087e+00 +3.2068529073282090e+00 -2.2623380306312963e+01 +3.1696377517767167e+04 -3.0720364882217866e+05 -1.8023911561380088e+08 
-4.4499999999999922e+00 -5.8057625259561008e-01 +7.6334735688221453e+00 +3.1716175503701534e+00 -2.2565641937454249e+01 +3.1760109629972379e+04 -3.0546225196910562e+05 -1.8062433218194684e+08 
-4.4999999999999920e+00 -5.8060965677430565e-01 +7.6351230850224194e+00 +3.1362138160779067e+00 -2.2518700819572857e+01 +3.1823808093056246e+04 -3.0362983893484966e+05 -1.8100960932770655e+08 
-4.5499999999999918e+00 -5.8064331770375077e-01 +7.6367840004512990e+00 +3.1006431613836845e+00 -2.2482164416053664e+01 +3.1887561274495856e+04 -3.0171113506348751e+05 -1.8139550772626120e+08 
-4.5999999999999917e+00 -5.8067723230830526e-01 +7.6384561139288758e+00 +3.0649070471857724e+00 -2.2455640322425694e+01 +3.1951457439691738e+04 -2.9971086454124580e+05 -1.8178258737760720e+08 
-4.6499999999999915e+00 -5.8071139751230771e-01 +7.6401392242742663e+00 +3.0290069309209087e+00 -2.2438736094884547e+01 +3.2015584944386210e+04 -2.9763375190199871e+05 -1.8217140887543109e+08 
-4.6999999999999913e+00 -5.8074581024011174e-01 +7.6418331303060283e+00 +2.9929442726688631e+00 -2.2431059275476230e+01 +3.2080032076367661e+04 -2.9548452179204160e+05 -1.8256253236738449e+08 
-4.7499999999999911e+00 -5.8078046741606670e-01 +7.6435376308444756e+00 +2.9567205314843137e+00 -2.2432217480026360e+01 +3.2144887151727260e+04 -2.9326789827117563e+05 -1.8295651818468463e+08 
-4.7999999999999909e+00 -5.8081536596451477e-01 +7.6452525247064491e+00 +2.9203371662506612e+00 -2.2441818216073870e+01 +3.2210238485219641e+04 -2.9098860619971430e+05 -1.8335392662896648e+08 
-4.8499999999999908e+00 -5.8085050280979900e-01 +7.6469776107115184e+00 +2.8837956350769458e+00 -2.2459469080323732e+01 +3.2276174422594264e+04 -2.8865136982390919e+05 -1.8375531824275565e+08 
-4.8999999999999906e+00 -5.8088587487625565e-01 +7.6487126876806562e+00 +2.8470973957646661e+00 -2.2484777768168691e+01 +3.2342783311071129e+04 -2.8626091245488770e+05 -1.8416125354722559e+08 
-4.9499999999999904e+00 -5.8092147908823710e-01 +7.6504575544310880e+00 +2.8102439089529412e+00 -2.2517351820581290e+01 +3.2410153425595465e+04 -2.8382195872113691e+05 -1.8457229259006506e+08 
-4.9999999999999902e+00 -5.8095731237007364e-01 +7.6522120097826747e+00 +2.7732366319575941e+00 -2.2556798890692292e+01 +3.2478373128384814e+04 -2.8133923234803235e+05 -1.8498899599235511e+08 
-5.0499999999999901e+00 -5.8099337164609166e-01 +7.6539758525548187e+00 +2.7360770217059618e+00 -2.2602726643585065e+01 +3.2547530793151233e+04 -2.7881745689221600e+05 -1.8541192445285782e+08 
