# trajectory
# s[mm] rx[mm] ry[mm] rz[mm] px[rad] py[rad] pz[rad]
0.0000000000000000e+00 +8.2850000000000001e+00 +0.0000000000000000e+00 +0.0000000000000000e+00 +0.0000000000000000e+00 +0.0000000000000000e+00 +1.0000000000000000e+00
5.0000000000000003e-02 +8.2849999309183104e+00 +0.0000000000000000e+00 +4.9999999999936373e-02 -2.7632691648373118e-06 +0.0000000000000000e+00 +9.9999999999618217e-01
1.0000000000000001e-01 +8.2849997236729056e+00 +0.0000000000000000e+00 +9.9999999999490968e-02 -5.5265489266215657e-06 +0.0000000000000000e+00 +9.9999999998472866e-01
1.5000000000000002e-01 +8.2849993782632101e+00 +0.0000000000000000e+00 +1.4999999999828198e-01 -8.2898411421976740e-06 +0.0000000000000000e+00 +9.9999999996563926e-01
2.0000000000000001e-01 +8.2849988946885542e+00 +0.0000000000000000e+00 +1.9999999999592763e-01 -1.1053147663655713e-05 +0.0000000000000000e+00 +9.9999999993891397e-01
2.5000000000000000e-01 +8.2849982729481759e+00 +0.0000000000000000e+00 +2.4999999999204611e-01 -1.3816470338331004e-05 +0.0000000000000000e+00 +9.9999999990455257e-01
2.9999999999999999e-01 +8.2849975130412208e+00 +0.0000000000000000e+00 +2.9999999998625559e-01 -1.6579811008804183e-05 +0.0000000000000000e+00 +9.9999999986255494e-01
3.4999999999999998e-01 +8.2849966149667438e+00 +0.0000000000000000e+00 +3.4999999997817433e-01 -1.9343171512901288e-05 +0.0000000000000000e+00 +9.9999999981292087e-01
3.9999999999999997e-01 +8.2849955787237075e+00 +0.0000000000000000e+00 +3.9999999996742042e-01 -2.2106553683693832e-05 +0.0000000000000000e+00 +9.9999999975565013e-01
4.4999999999999996e-01 +8.2849944043109840e+00 +0.0000000000000000e+00 +4.4999999995361206e-01 -2.4869959349498881e-05 +0.0000000000000000e+00 +9.9999999969074249e-01
4.9999999999999994e-01 +8.2849930917273511e+00 +0.0000000000000000e+00 +4.9999999993636740e-01 -2.7633390333879135e-05 +0.0000000000000000e+00 +9.9999999961819785e-01
5.4999999999999993e-01 +8.2849916409714979e+00 +0.0000000000000000e+00 +5.4999999991530457e-01 -3.0396848455643008e-05 +0.0000000000000000e+00 +9.9999999953801577e-01
5.9999999999999998e-01 +8.2849900520420228e+00 +0.0000000000000000e+00 +5.9999999989004171e-01 -3.3160335528844699e-05 +0.0000000000000000e+00 +9.9999999945019602e-01
6.5000000000000002e-01 +8.2849883249374319e+00 +0.0000000000000000e+00 +6.4999999986019685e-01 -3.5923853362784274e-05 +0.0000000000000000e+00 +9.9999999935473838e-01
7.0000000000000007e-01 +8.2849864596561424e+00 +0.0000000000000000e+00 +6.9999999982538819e-01 -3.8687403762007739e-05 +0.0000000000000000e+00 +9.9999999925164240e-01
7.5000000000000011e-01 +8.2849844561964829e+00 +0.0000000000000000e+00 +7.4999999978523380e-01 -4.1450988526307134e-05 +0.0000000000000000e+00 +9.9999999914090776e-01
8.0000000000000016e-01 +8.2849823145566877e+00 +0.0000000000000000e+00 +7.9999999973935165e-01 -4.4214609450720597e-05 +0.0000000000000000e+00 +9.9999999902253411e-01
8.5000000000000020e-01 +8.2849800347349056e+00 +0.0000000000000000e+00 +8.4999999968735984e-01 -4.6978268325532437e-05 +0.0000000000000000e+00 +9.9999999889652114e-01
9.0000000000000024e-01 +8.2849776167291935e+00 +0.0000000000000000e+00 +8.9999999962887645e-01 -4.9741966936273228e-05 +0.0000000000000000e+00 +9.9999999876286838e-01
9.5000000000000029e-01 +8.2849750605375210e+00 +0.0000000000000000e+00 +9.4999999956351933e-01 -5.2505707063719877e-05 +0.0000000000000000e+00 +9.9999999862157540e-01
1.0000000000000002e+00 +8.2849723661577670e+00 +0.0000000000000000e+00 +9.9999999949090657e-01 -5.5269490483895702e-05 +0.0000000000000000e+00 +9.9999999847264176e-01
1.0500000000000003e+00 +8.2849695335877218e+00 +0.0000000000000000e+00 +1.0499999994106561e+00 -5.8033318968070515e-05 +0.0000000000000000e+00 +9.9999999831606701e-01
1.1000000000000003e+00 +8.2849665628250886e+00 +0.0000000000000000e+00 +1.0999999993223859e+00 -6.0797194282760690e-05 +0.0000000000000000e+00 +9.9999999815185070e-01
1.1500000000000004e+00 +8.2849634538674835e+00 +0.0000000000000000e+00 +1.1499999992257137e+00 -6.3561118189729254e-05 +0.0000000000000000e+00 +9.9999999797999228e-01
1.2000000000000004e+00 +8.2849602067124302e+00 +0.0000000000000000e+00 +1.1999999991202577e+00 -6.6325092445985951e-05 +0.0000000000000000e+00 +9.9999999780049120e-01
1.2500000000000004e+00 +8.2849568213573690e+00 +0.0000000000000000e+00 +1.2499999990056354e+00 -6.9089118803787353e-05 +0.0000000000000000e+00 +9.9999999761334701e-01
1.3000000000000005e+00 +8.2849532977996514e+00 +0.0000000000000000e+00 +1.2999999988814650e+00 -7.1853199010636873e-05 +0.0000000000000000e+00 +9.9999999741855905e-01
1.3500000000000005e+00 +8.2849496360365418e+00 +0.0000000000000000e+00 +1.3499999987473641e+00 -7.4617334809284905e-05 +0.0000000000000000e+00 +9.9999999721612687e-01
1.4000000000000006e+00 +8.2849458360652157e+00 +0.0000000000000000e+00 +1.3999999986029503e+00 -7.7381527937728876e-05 +0.0000000000000000e+00 +9.9999999700604980e-01
1.4500000000000006e+00 +8.2849418978827636e+00 +0.0000000000000000e+00 +1.4499999984478416e+00 -8.0145780129213344e-05 +0.0000000000000000e+00 +9.9999999678832718e-01
1.5000000000000007e+00 +8.2849378214861886e+00 +0.0000000000000000e+00 +1.4999999982816556e+00 -8.2910093112230021e-05 +0.0000000000000000e+00 +9.9999999656295846e-01
1.5500000000000007e+00 +8.2849336068724089e+00 +0.0000000000000000e+00 +1.5499999981040100e+00 -8.5674468610517923e-05 +0.0000000000000000e+00 +9.9999999632994296e-01
1.6000000000000008e+00 +8.2849292540382571e+00 +0.0000000000000000e+00 +1.5999999979145225e+00 -8.8438908343063387e-05 +0.0000000000000000e+00 +9.9999999608928003e-01
1.6500000000000008e+00 +8.2849247629804754e+00 +0.0000000000000000e+00 +1.6499999977128106e+00 -9.1203414024100188e-05 +0.0000000000000000e+00 +9.9999999584096888e-01
1.7000000000000008e+00 +8.2849201336957261e+00 +0.0000000000000000e+00 +1.6999999974984918e+00 -9.3967987363109611e-05 +0.0000000000000000e+00 +9.9999999558500896e-01
1.7500000000000009e+00 +8.2849153661805826e+00 +0.0000000000000000e+00 +1.7499999972711839e+00 -9.6732630064820516e-05 +0.0000000000000000e+00 +9.9999999532139938e-01
1.8000000000000009e+00 +8.2849104604315347e+00 +0.0000000000000000e+00 +1.7999999970305043e+00 -9.9497343829209420e-05 +0.0000000000000000e+00 +9.9999999505013948e-01
1.8500000000000010e+00 +8.2849054164449871e+00 +0.0000000000000000e+00 +1.8499999967760703e+00 -1.0226213035150058e-04 +0.0000000000000000e+00 +9.9999999477122858e-01
1.9000000000000010e+00 +8.2849002342172593e+00 +0.0000000000000000e+00 +1.8999999965074996e+00 -1.0502699132216606e-04 +0.0000000000000000e+00 +9.9999999448466581e-01
1.9500000000000011e+00 +8.2848949137445871e+00 +0.0000000000000000e+00 +1.9499999962244094e+00 -1.0779192842692581e-04 +0.0000000000000000e+00 +9.9999999419045038e-01
2.0000000000000009e+00 +8.2848894550231211e+00 +0.0000000000000000e+00 +1.9999999959264172e+00 -1.1055694334674775e-04 +0.0000000000000000e+00 +9.9999999388858141e-01
2.0500000000000007e+00 +8.2848838580489286e+00 +0.0000000000000000e+00 +2.0499999956131401e+00 -1.1332203775756141e-04 +0.0000000000000000e+00 +9.9999999357905811e-01
2.1000000000000005e+00 +8.2848781228179931e+00 +0.0000000000000000e+00 +2.0999999952841955e+00 -1.1608721332710671e-04 +0.0000000000000000e+00 +9.9999999326187972e-01
2.1500000000000004e+00 +8.2848722493262148e+00 +0.0000000000000000e+00 +2.1499999949392006e+00 -1.1885247171178288e-04 +0.0000000000000000e+00 +9.9999999293704522e-01
2.2000000000000002e+00 +8.2848662375694140e+00 +0.0000000000000000e+00 +2.1999999945777726e+00 -1.2161781455636200e-04 +0.0000000000000000e+00 +9.9999999260455386e-01
2.2500000000000000e+00 +8.2848600875433256e+00 +0.0000000000000000e+00 +2.2499999941995283e+00 -1.2438324349398910e-04 +0.0000000000000000e+00 +9.9999999226440461e-01
2.2999999999999998e+00 +8.2848537992436029e+00 +0.0000000000000000e+00 +2.2999999938040854e+00 -1.2714876014618211e-04 +0.0000000000000000e+00 +9.9999999191659661e-01
2.3499999999999996e+00 +8.2848473726658209e+00 +0.0000000000000000e+00 +2.3499999933910605e+00 -1.2991436612283207e-04 +0.0000000000000000e+00 +9.9999999156112895e-01
2.3999999999999995e+00 +8.2848408078054749e+00 +0.0000000000000000e+00 +2.3999999929600708e+00 -1.3268006302220305e-04 +0.0000000000000000e+00 +9.9999999119800065e-01
2.4499999999999993e+00 +8.2848341046579765e+00 +0.0000000000000000e+00 +2.4499999925107332e+00 -1.3544585243093223e-04 +0.0000000000000000e+00 +9.9999999082721069e-01
2.4999999999999991e+00 +8.2848272632186628e+00 +0.0000000000000000e+00 +2.4999999920426643e+00 -1.3821173592402992e-04 +0.0000000000000000e+00 +9.9999999044875820e-01
2.5499999999999989e+00 +8.2848202834827891e+00 +0.0000000000000000e+00 +2.5499999915554814e+00 -1.4097771506487973e-04 +0.0000000000000000e+00 +9.9999999006264206e-01
2.5999999999999988e+00 +8.2848131654455361e+00 +0.0000000000000000e+00 +2.5999999910488008e+00 -1.4374379140523848e-04 +0.0000000000000000e+00 +9.9999998966886139e-01
2.6499999999999986e+00 +8.2848059091020030e+00 +0.0000000000000000e+00 +2.6499999905222396e+00 -1.4650996648523626e-04 +0.0000000000000000e+00 +9.9999998926741507e-01
2.6999999999999984e+00 +8.2847985144472158e+00 +0.0000000000000000e+00 +2.6999999899754146e+00 -1.4927624183337651e-04 +0.0000000000000000e+00 +9.9999998885830199e-01
2.7499999999999982e+00 +8.2847909814761227e+00 +0.0000000000000000e+00 +2.7499999894079421e+00 -1.5204261896653606e-04 +0.0000000000000000e+00 +9.9999998844152116e-01
2.7999999999999980e+00 +8.2847833101835970e+00 +0.0000000000000000e+00 +2.7999999888194389e+00 -1.5480909938996514e-04 +0.0000000000000000e+00 +9.9999998801707157e-01
2.8499999999999979e+00 +8.2847755005644377e+00 +0.0000000000000000e+00 +2.8499999882095213e+00 -1.5757568459728744e-04 +0.0000000000000000e+00 +9.9999998758495201e-01
2.8999999999999977e+00 +8.2847675526133671e+00 +0.0000000000000000e+00 +2.8999999875778060e+00 -1.6034237607050013e-04 +0.0000000000000000e+00 +9.9999998714516136e-01
2.9499999999999975e+00 +8.2847594663250348e+00 +0.0000000000000000e+00 +2.9499999869239093e+00 -1.6310917527997393e-04 +0.0000000000000000e+00 +9.9999998669769863e-01
2.9999999999999973e+00 +8.2847512416940194e+00 +0.0000000000000000e+00 +2.9999999862474480e+00 -1.6587608368445305e-04 +0.0000000000000000e+00 +9.9999998624256259e-01
3.0499999999999972e+00 +8.2847428787148232e+00 +0.0000000000000000e+00 +3.0499999855480380e+00 -1.6864310273105536e-04 +0.0000000000000000e+00 +9.9999998577975213e-01
3.0999999999999970e+00 +8.2847343773818789e+00 +0.0000000000000000e+00 +3.0999999848252955e+00 -1.7141023385527226e-04 +0.0000000000000000e+00 +9.9999998530926604e-01
3.1499999999999968e+00 +8.2847257376895467e+00 +0.0000000000000000e+00 +3.1499999840788369e+00 -1.7417747848096890e-04 +0.0000000000000000e+00 +9.9999998483110319e-01
3.1999999999999966e+00 +8.2847169596321155e+00 +0.0000000000000000e+00 +3.1999999833082780e+00 -1.7694483802038402e-04 +0.0000000000000000e+00 +9.9999998434526238e-01
3.2499999999999964e+00 +8.2847080432038052e+00 +0.0000000000000000e+00 +3.2499999825132351e+00 -1.7971231387413009e-04 +0.0000000000000000e+00 +9.9999998385174238e-01
3.2999999999999963e+00 +8.2846989883987661e+00 +0.0000000000000000e+00 +3.2999999816933241e+00 -1.8247990743119327e-04 +0.0000000000000000e+00 +9.9999998335054197e-01
3.3499999999999961e+00 +8.2846897952110776e+00 +0.0000000000000000e+00 +3.3499999808481613e+00 -1.8524762006893352e-04 +0.0000000000000000e+00 +9.9999998284165992e-01
3.3999999999999959e+00 +8.2846804636347517e+00 +0.0000000000000000e+00 +3.3999999799773621e+00 -1.8801545315308451e-04 +0.0000000000000000e+00 +9.9999998232509502e-01
3.4499999999999957e+00 +8.2846709936637328e+00 +0.0000000000000000e+00 +3.4499999790805429e+00 -1.9078340803775376e-04 +0.0000000000000000e+00 +9.9999998180084593e-01
3.4999999999999956e+00 +8.2846613852918960e+00 +0.0000000000000000e+00 +3.4999999781573190e+00 -1.9355148606542256e-04 +0.0000000000000000e+00 +9.9999998126891143e-01
3.5499999999999954e+00 +8.2846516385130524e+00 +0.0000000000000000e+00 +3.5499999772073059e+00 -1.9631968856694603e-04 +0.0000000000000000e+00 +9.9999998072929019e-01
3.5999999999999952e+00 +8.2846417533209440e+00 +0.0000000000000000e+00 +3.5999999762301198e+00 -1.9908801686155313e-04 +0.0000000000000000e+00 +9.9999998018198100e-01
3.6499999999999950e+00 +8.2846317297092487e+00 +0.0000000000000000e+00 +3.6499999752253758e+00 -2.0185647225684668e-04 +0.0000000000000000e+00 +9.9999997962698250e-01
3.6999999999999948e+00 +8.2846215676715786e+00 +0.0000000000000000e+00 +3.6999999741926897e+00 -2.0462505604880338e-04 +0.0000000000000000e+00 +9.9999997906429339e-01
3.7499999999999947e+00 +8.2846112672014822e+00 +0.0000000000000000e+00 +3.7499999731316769e+00 -2.0739376952177383e-04 +0.0000000000000000e+00 +9.9999997849391231e-01
3.7999999999999945e+00 +8.2846008282924437e+00 +0.0000000000000000e+00 +3.7999999720419528e+00 -2.1016261394848248e-04 +0.0000000000000000e+00 +9.9999997791583795e-01
3.8499999999999943e+00 +8.2845902509378835e+00 +0.0000000000000000e+00 +3.8499999709231325e+00 -2.1293159059002773e-04 +0.0000000000000000e+00 +9.9999997733006896e-01
3.8999999999999941e+00 +8.2845795351311597e+00 +0.0000000000000000e+00 +3.8999999697748313e+00 -2.1570070069588189e-04 +0.0000000000000000e+00 +9.9999997673660390e-01
3.9499999999999940e+00 +8.2845686808655685e+00 +0.0000000000000000e+00 +3.9499999685966647e+00 -2.1846994550389116e-04 +0.0000000000000000e+00 +9.9999997613544145e-01
3.9999999999999938e+00 +8.2845576881343437e+00 +0.0000000000000000e+00 +3.9999999673882471e+00 -2.2123932624027568e-04 +0.0000000000000000e+00 +9.9999997552658026e-01
4.0499999999999936e+00 +8.2845465569306587e+00 +0.0000000000000000e+00 +4.0499999661491941e+00 -2.2400884411950665e-04 +0.0000000000000000e+00 +9.9999997491001891e-01
4.0999999999999934e+00 +8.2845352872476266e+00 +0.0000000000000000e+00 +4.0999999648791210e+00 -2.2677850034295442e-04 +0.0000000000000000e+00 +9.9999997428575593e-01
4.1499999999999932e+00 +8.2845238790783000e+00 +0.0000000000000000e+00 +4.1499999635776419e+00 -2.2954829609753664e-04 +0.0000000000000000e+00 +9.9999997365378990e-01
4.1999999999999931e+00 +8.2845123324156731e+00 +0.0000000000000000e+00 +4.1999999622443713e+00 -2.3231823255559538e-04 +0.0000000000000000e+00 +9.9999997301411936e-01
4.2499999999999929e+00 +8.2845006472526812e+00 +0.0000000000000000e+00 +4.2499999608789247e+00 -2.3508831087489711e-04 +0.0000000000000000e+00 +9.9999997236674298e-01
4.2999999999999927e+00 +8.2844888235822030e+00 +0.0000000000000000e+00 +4.2999999594809166e+00 -2.3785853219863274e-04 +0.0000000000000000e+00 +9.9999997171165922e-01
4.3499999999999925e+00 +8.2844768613970601e+00 +0.0000000000000000e+00 +4.3499999580499615e+00 -2.4062889765541761e-04 +0.0000000000000000e+00 +9.9999997104886673e-01
4.3999999999999924e+00 +8.2844647606900175e+00 +0.0000000000000000e+00 +4.3999999565856740e+00 -2.4339940835929150e-04 +0.0000000000000000e+00 +9.9999997037836386e-01
4.4499999999999922e+00 +8.2844525214537850e+00 +0.0000000000000000e+00 +4.4499999550876685e+00 -2.4617006540971859e-04 +0.0000000000000000e+00 +9.9999996970014926e-01
4.4999999999999920e+00 +8.2844401436810191e+00 +0.0000000000000000e+00 +4.4999999535555597e+00 -2.4894086989158754e-04 +0.0000000000000000e+00 +9.9999996901422139e-01
4.5499999999999918e+00 +8.2844276273643214e+00 +0.0000000000000000e+00 +4.5499999519889620e+00 -2.5171182287521150e-04 +0.0000000000000000e+00 +9.9999996832057880e-01
4.5999999999999917e+00 +8.2844149724962399e+00 +0.0000000000000000e+00 +4.5999999503874891e+00 -2.5448292541632793e-04 +0.0000000000000000e+00 +9.9999996761922005e-01
4.6499999999999915e+00 +8.2844021790692697e+00 +0.0000000000000000e+00 +4.6499999487507555e+00 -2.5725417855609878e-04 +0.0000000000000000e+00 +9.9999996691014348e-01
4.6999999999999913e+00 +8.2843892470758558e+00 +0.0000000000000000e+00 +4.6999999470783749e+00 -2.6002558332111048e-04 +0.0000000000000000e+00 +9.9999996619334763e-01
4.7499999999999911e+00 +8.2843761765083919e+00 +0.0000000000000000e+00 +4.7499999453699617e+00 -2.6279714072337387e-04 +0.0000000000000000e+00 +9.9999996546883096e-01
4.7999999999999909e+00 +8.2843629673592218e+00 +0.0000000000000000e+00 +4.7999999436251297e+00 -2.6556885176032421e-04 +0.0000000000000000e+00 +9.9999996473659203e-01
4.8499999999999908e+00 +8.2843496196206381e+00 +0.0000000000000000e+00 +4.8499999418434925e+00 -2.6834071741482118e-04 +0.0000000000000000e+00 +9.9999996399662916e-01
4.8999999999999906e+00 +8.2843361332848868e+00 +0.0000000000000000e+00 +4.8999999400246637e+00 -2.7111273865514882e-04 +0.0000000000000000e+00 +9.9999996324894092e-01
4.9499999999999904e+00 +8.2843225083441645e+00 +0.0000000000000000e+00 +4.9499999381682578e+00 -2.7388491643501567e-04 +0.0000000000000000e+00 +9.9999996249352574e-01
4.9999999999999902e+00 +8.2843087447906196e+00 +0.0000000000000000e+00 +4.9999999362738876e+00 -2.7665725169355459e-04 +0.0000000000000000e+00 +9.9999996173038197e-01
5.0499999999999901e+00 +8.2842948426163545e+00 +0.0000000000000000e+00 +5.0499999343411668e+00 -2.7942974535532291e-04 +0.0000000000000000e+00 +9.9999996095950805e-01
5.0999999999999899e+00 +8.2842808018134289e+00 +0.0000000000000000e+00 +5.0999999323697089e+00 -2.8220239833030223e-04 +0.0000000000000000e+00 +9.9999996018090254e-01
5.1499999999999897e+00 +8.2842666223738526e+00 +0.0000000000000000e+00 +5.1499999303591277e+00 -2.8497521151389860e-04 +0.0000000000000000e+00 +9.9999995939456376e-01
5.1999999999999895e+00 +8.2842523042895930e+00 +0.0000000000000000e+00 +5.1999999283090359e+00 -2.8774818578694231e-04 +0.0000000000000000e+00 +9.9999995860049007e-01
5.2499999999999893e+00 +8.2842378475525749e+00 +0.0000000000000000e+00 +5.2499999262190471e+00 -2.9052132201568806e-04 +0.0000000000000000e+00 +9.9999995779868001e-01
5.2999999999999892e+00 +8.2842232521546784e+00 +0.0000000000000000e+00 +5.2999999240887750e+00 -2.9329462105181489e-04 +0.0000000000000000e+00 +9.9999995698913191e-01
5.3499999999999890e+00 +8.2842085180877429e+00 +0.0000000000000000e+00 +5.3499999219178314e+00 -2.9606808373242607e-04 +0.0000000000000000e+00 +9.9999995617184412e-01
5.3999999999999888e+00 +8.2841936453435654e+00 +0.0000000000000000e+00 +5.3999999197058299e+00 -2.9884171088004916e-04 +0.0000000000000000e+00 +9.9999995534681507e-01
5.4499999999999886e+00 +8.2841786339139016e+00 +0.0000000000000000e+00 +5.4499999174523834e+00 -3.0161550330263604e-04 +0.0000000000000000e+00 +9.9999995451404322e-01
5.4999999999999885e+00 +8.2841634837904685e+00 +0.0000000000000000e+00 +5.4999999151571046e+00 -3.0438946179356272e-04 +0.0000000000000000e+00 +9.9999995367352690e-01
5.5499999999999883e+00 +8.2841481949649420e+00 +0.0000000000000000e+00 +5.5499999128196063e+00 -3.0716358713162956e-04 +0.0000000000000000e+00 +9.9999995282526444e-01
5.5999999999999881e+00 +8.2841327674289609e+00 +0.0000000000000000e+00 +5.5999999104395011e+00 -3.0993788008106102e-04 +0.0000000000000000e+00 +9.9999995196925429e-01
5.6499999999999879e+00 +8.2841172011741264e+00 +0.0000000000000000e+00 +5.6499999080164018e+00 -3.1271234139150576e-04 +0.0000000000000000e+00 +9.9999995110549478e-01
5.6999999999999877e+00 +8.2841014961920028e+00 +0.0000000000000000e+00 +5.6999999055499213e+00 -3.1548697179803654e-04 +0.0000000000000000e+00 +9.9999995023398425e-01
5.7499999999999876e+00 +8.2840856524741167e+00 +0.0000000000000000e+00 +5.7499999030396713e+00 -3.1826177202115037e-04 +0.0000000000000000e+00 +9.9999994935472114e-01
5.7999999999999874e+00 +8.2840696700119594e+00 +0.0000000000000000e+00 +5.7999999004852647e+00 -3.2103674276676820e-04 +0.0000000000000000e+00 +9.9999994846770379e-01
5.8499999999999872e+00 +8.2840535487969866e+00 +0.0000000000000000e+00 +5.8499998978863132e+00 -3.2381188472623511e-04 +0.0000000000000000e+00 +9.9999994757293054e-01
5.8999999999999870e+00 +8.2840372888206222e+00 +0.0000000000000000e+00 +5.8999998952424288e+00 -3.2658719857632025e-04 +0.0000000000000000e+00 +9.9999994667039971e-01
