# field on trajectory
# s[mm] rx[mm] ry[mm] rz[mm] bx[T] by[T] bz[T]
0.0000000000000000e+00 +8.5270000000000206e+00 +0.0000000000000000e+00 +0.0000000000000000e+00 -2.8713746779644278e-02 -5.4950140840931649e-01 +5.4286330136563699e-03
5.0000000000000003e-02 +8.5269999309457507e+00 +0.0000000000000000e+00 +4.9999999999936401e-02 -2.8713744844399217e-02 -5.4950158447686726e-01 +5.4276840762568336e-03
1.0000000000000001e-01 +8.5269997237846802e+00 +0.0000000000000000e+00 +9.9999999999491399e-02 -2.8713768374923804e-02 -5.4950217190863970e-01 +5.4267358760415997e-03
1.4999999999999999e-01 +8.5269993785186706e+00 +0.0000000000000000e+00 +1.4999999999828301e-01 -2.8713817255874161e-02 -5.4950316956419565e-01 +5.4257885313203722e-03
2.0000000000000001e-01 +8.5269988951477007e+00 +0.0000000000000000e+00 +1.9999999999593099e-01 -2.8713891371908558e-02 -5.4950457630312821e-01 +5.4248421604029861e-03
2.5000000000000000e-01 +8.5269982736681396e+00 +0.0000000000000000e+00 +2.4999999999205300e-01 -2.8713990607688169e-02 -5.4950639098507381e-01 +5.4238968815995270e-03
2.9999999999999999e-01 +8.5269975140799907e+00 +0.0000000000000000e+00 +2.9999999998626697e-01 -2.8714114847874148e-02 -5.4950861246966076e-01 +5.4229528132198421e-03
3.4999999999999998e-01 +8.5269966163905302e+00 +0.0000000000000000e+00 +3.4999999997819298e-01 -2.8714263977126234e-02 -5.4951123961648363e-01 +5.4220100735732921e-03
4.0000000000000002e-01 +8.5269955805888493e+00 +0.0000000000000000e+00 +3.9999999996744801e-01 -2.8714437880112839e-02 -5.4951427128528463e-01 +5.4210687809705897e-03
4.5000000000000001e-01 +8.5269944066858407e+00 +0.0000000000000000e+00 +4.4999999995365197e-01 -2.8714636441495151e-02 -5.4951770633566677e-01 +5.4201290537209392e-03
5.0000000000000000e-01 +8.5269930946742498e+00 +0.0000000000000000e+00 +4.9999999993642202e-01 -2.8714859545943064e-02 -5.4952154362738093e-01 +5.4191910101349357e-03
5.5000000000000004e-01 +8.5269916445577092e+00 +0.0000000000000000e+00 +5.4999999991537796e-01 -2.8715107078123595e-02 -5.4952578202011770e-01 +5.4182547685224904e-03
5.9999999999999998e-01 +8.5269900563289394e+00 +0.0000000000000000e+00 +5.9999999989013697e-01 -2.8715378922709617e-02 -5.4953042037366284e-01 +5.4173204471944028e-03
6.5000000000000002e-01 +8.5269883299988596e+00 +0.0000000000000000e+00 +6.4999999986031898e-01 -2.8715674964368169e-02 -5.4953545754768840e-01 +5.4163881644602964e-03
6.9999999999999996e-01 +8.5269864655601904e+00 +0.0000000000000000e+00 +6.9999999982554195e-01 -2.8715995087775052e-02 -5.4954089240201431e-01 +5.4154580386312386e-03
7.5000000000000000e-01 +8.5269844630165608e+00 +0.0000000000000000e+00 +7.4999999978542398e-01 -2.8716339177603231e-02 -5.4954672379639946e-01 +5.4145301880176742e-03
8.0000000000000004e-01 +8.5269823223679904e+00 +0.0000000000000000e+00 +7.9999999973958402e-01 -2.8716707118528566e-02 -5.4955295059064502e-01 +5.4136047309304809e-03
8.4999999999999998e-01 +8.5269800436108198e+00 +0.0000000000000000e+00 +8.4999999968764095e-01 -2.8717098795229913e-02 -5.4955957164459568e-01 +5.4126817856809915e-03
9.0000000000000002e-01 +8.5269776267450705e+00 +0.0000000000000000e+00 +8.9999999962921295e-01 -2.8717514092386126e-02 -5.4956658581808637e-01 +5.4117614705804775e-03
9.4999999999999996e-01 +8.5269750717743609e+00 +0.0000000000000000e+00 +9.4999999956391801e-01 -2.8717952894676154e-02 -5.4957399197094214e-01 +5.4108439039401660e-03
1.0000000000000000e+00 +8.5269723786986997e+00 +0.0000000000000000e+00 +9.9999999949137597e-01 -2.8718415086781867e-02 -5.4958178896303089e-01 +5.4099292040717846e-03
1.0500000000000000e+00 +8.5269695475144491e+00 +0.0000000000000000e+00 +1.0499999994111999e+00 -2.8718900553388126e-02 -5.4958997565426293e-01 +5.4090174892875743e-03
1.1000000000000001e+00 +8.5269665782288904e+00 +0.0000000000000000e+00 +1.0999999993230201e+00 -2.8719409179176966e-02 -5.4959855090448695e-01 +5.4081088778992602e-03
1.1499999999999999e+00 +8.5269634708311095e+00 +0.0000000000000000e+00 +1.1499999992264500e+00 -2.8719940848839175e-02 -5.4960751357369753e-01 +5.4072034882201477e-03
1.2000000000000000e+00 +8.5269602253283701e+00 +0.0000000000000000e+00 +1.1999999991210999e+00 -2.8720495447059815e-02 -5.4961686252177555e-01 +5.4063014385625418e-03
1.2500000000000000e+00 +8.5269568417206791e+00 +0.0000000000000000e+00 +1.2499999990065900e+00 -2.8721072858528398e-02 -5.4962659660866908e-01 +5.4054028472395842e-03
1.3000000000000000e+00 +8.5269533200044005e+00 +0.0000000000000000e+00 +1.2999999988825499e+00 -2.8721672967937418e-02 -5.4963671469436903e-01 +5.4045078325650016e-03
1.3500000000000001e+00 +8.5269496601795307e+00 +0.0000000000000000e+00 +1.3499999987485900e+00 -2.8722295659979444e-02 -5.4964721563885588e-01 +5.4036165128526032e-03
1.3999999999999999e+00 +8.5269458622533403e+00 +0.0000000000000000e+00 +1.3999999986043401e+00 -2.8722940819345705e-02 -5.4965809830207302e-01 +5.4027290064160424e-03
1.4500000000000000e+00 +8.5269419262185693e+00 +0.0000000000000000e+00 +1.4499999984494001e+00 -2.8723608330734746e-02 -5.4966936154408419e-01 +5.4018454315703877e-03
1.5000000000000000e+00 +8.5269378520752106e+00 +0.0000000000000000e+00 +1.4999999982833900e+00 -2.8724298078843826e-02 -5.4968100422491584e-01 +5.4009659066305777e-03
1.5500000000000000e+00 +8.5269336398268898e+00 +0.0000000000000000e+00 +1.5499999981059500e+00 -2.8725009948370243e-02 -5.4969302520458496e-01 +5.4000905499117001e-03
1.6000000000000001e+00 +8.5269292894736299e+00 +0.0000000000000000e+00 +1.5999999979166799e+00 -2.8725743824014355e-02 -5.4970542334314809e-01 +5.3992194797295185e-03
1.6499999999999999e+00 +8.5269248010117700e+00 +0.0000000000000000e+00 +1.6499999977152000e+00 -2.8726499590479532e-02 -5.4971819750070483e-01 +5.3983528144005049e-03
1.7000000000000000e+00 +8.5269201744449692e+00 +0.0000000000000000e+00 +1.6999999975011300e+00 -2.8727277132467768e-02 -5.4973134653731603e-01 +5.3974906722410523e-03
1.7500000000000000e+00 +8.5269154097695701e+00 +0.0000000000000000e+00 +1.7499999972740901e+00 -2.8728076334685600e-02 -5.4974486931311117e-01 +5.3966331715685533e-03
1.8000000000000000e+00 +8.5269105069892195e+00 +0.0000000000000000e+00 +1.7999999970336999e+00 -2.8728897081838196e-02 -5.4975876468818075e-01 +5.3957804307003610e-03
1.8500000000000001e+00 +8.5269054661039299e+00 +0.0000000000000000e+00 +1.8499999967795799e+00 -2.8729739258633761e-02 -5.4977303152265766e-01 +5.3949325679545877e-03
1.8999999999999999e+00 +8.5269002871100401e+00 +0.0000000000000000e+00 +1.8999999965113501e+00 -2.8730602749783594e-02 -5.4978766867671447e-01 +5.3940897016501238e-03
1.9500000000000000e+00 +8.5268949700112007e+00 +0.0000000000000000e+00 +1.9499999962286201e+00 -2.8731487439997601e-02 -5.4980267501048719e-01 +5.3932519501058715e-03
2.0000000000000000e+00 +8.5268895148037700e+00 +0.0000000000000000e+00 +1.9999999959310100e+00 -2.8732393213990251e-02 -5.4981804938417689e-01 +5.3924194316417933e-03
2.0499999999999998e+00 +8.5268839213858900e+00 +0.0000000000000000e+00 +2.0499999956181298e+00 -2.8733319965696211e-02 -5.4983379050196379e-01 +5.3915922562692911e-03
2.1000000000000001e+00 +8.5268781896593300e+00 +0.0000000000000000e+00 +2.0999999952895898e+00 -2.8734267625766950e-02 -5.4984989644103854e-01 +5.3907705007357129e-03
2.1499999999999999e+00 +8.5268723196240899e+00 +0.0000000000000000e+00 +2.1499999949449999e+00 -2.8735236133994049e-02 -5.4986636512115072e-01 +5.3899542334655800e-03
2.2000000000000002e+00 +8.5268663112729008e+00 +0.0000000000000000e+00 +2.1999999945839801e+00 -2.8736225430172218e-02 -5.4988319446211609e-01 +5.3891435228840909e-03
2.2500000000000000e+00 +8.5268601646093902e+00 +0.0000000000000000e+00 +2.2499999942061502e+00 -2.8737235454091830e-02 -5.4990038238368344e-01 +5.3883384374158105e-03
2.2999999999999998e+00 +8.5268538796335598e+00 +0.0000000000000000e+00 +2.2999999938111202e+00 -2.8738266145544682e-02 -5.4991792680563834e-01 +5.3875390454856866e-03
2.3500000000000001e+00 +8.5268474563490599e+00 +0.0000000000000000e+00 +2.3499999933985198e+00 -2.8739317444321021e-02 -5.4993582564775234e-01 +5.3867454155185337e-03
2.3999999999999999e+00 +8.5268408947522403e+00 +0.0000000000000000e+00 +2.3999999929679601e+00 -2.8740389290213896e-02 -5.4995407682986142e-01 +5.3859576159397899e-03
2.4500000000000002e+00 +8.5268341948467405e+00 +0.0000000000000000e+00 +2.4499999925190501e+00 -2.8741481623013137e-02 -5.4997267827175833e-01 +5.3851757151744777e-03
2.5000000000000000e+00 +8.5268273566252901e+00 +0.0000000000000000e+00 +2.4999999920514302e+00 -2.8742594382512632e-02 -5.4999162789332712e-01 +5.3843997816484784e-03
2.5499999999999998e+00 +8.5268203800987994e+00 +0.0000000000000000e+00 +2.5499999915646900e+00 -2.8743727508498591e-02 -5.5001092361433024e-01 +5.3836298837864754e-03
2.6000000000000001e+00 +8.5268132652563509e+00 +0.0000000000000000e+00 +2.5999999910584699e+00 -2.8744880940765508e-02 -5.5003056335469869e-01 +5.3828660900147570e-03
2.6499999999999999e+00 +8.5268060121015896e+00 +0.0000000000000000e+00 +2.6499999905323701e+00 -2.8746054619101465e-02 -5.5005054503426798e-01 +5.3821084687586474e-03
2.7000000000000002e+00 +8.5267986206345103e+00 +0.0000000000000000e+00 +2.6999999899860101e+00 -2.8747248483295341e-02 -5.5007086657291049e-01 +5.3813570884437755e-03
2.7500000000000000e+00 +8.5267910908551094e+00 +0.0000000000000000e+00 +2.7499999894190199e+00 -2.8748462473135377e-02 -5.5009152589050780e-01 +5.3806120174958120e-03
2.7999999999999998e+00 +8.5267834227670392e+00 +0.0000000000000000e+00 +2.7999999888310101e+00 -2.8749696528407451e-02 -5.5011252090692508e-01 +5.3798733243402000e-03
2.8500000000000001e+00 +8.5267756163666508e+00 +0.0000000000000000e+00 +2.8499999882215898e+00 -2.8750950588899614e-02 -5.5013384954208944e-01 +5.3791410774029153e-03
2.8999999999999999e+00 +8.5267676716539391e+00 +0.0000000000000000e+00 +2.8999999875903901e+00 -2.8752224594397434e-02 -5.5015550971591065e-01 +5.3784153451096918e-03
2.9500000000000002e+00 +8.5267595886289200e+00 +0.0000000000000000e+00 +2.9499999869370299e+00 -2.8753518484685471e-02 -5.5017749934830806e-01 +5.3776961958862538e-03
3.0000000000000000e+00 +8.5267513672915793e+00 +0.0000000000000000e+00 +2.9999999862611100e+00 -2.8754832199547213e-02 -5.5019981635920867e-01 +5.3769836981583264e-03
3.0499999999999998e+00 +8.5267430076455604e+00 +0.0000000000000000e+00 +3.0499999855622502e+00 -2.8756165678763469e-02 -5.5022245866852282e-01 +5.3762779203513546e-03
3.1000000000000001e+00 +8.5267345096872305e+00 +0.0000000000000000e+00 +3.0999999848400801e+00 -2.8757518862116725e-02 -5.5024542419622102e-01 +5.3755789308912614e-03
3.1499999999999999e+00 +8.5267258734165807e+00 +0.0000000000000000e+00 +3.1499999840942201e+00 -2.8758891689386678e-02 -5.5026871086225559e-01 +5.3748867982036748e-03
3.2000000000000002e+00 +8.5267170988336094e+00 +0.0000000000000000e+00 +3.1999999833242700e+00 -2.8760284100351641e-02 -5.5029231658658717e-01 +5.3742015907141828e-03
3.2500000000000000e+00 +8.5267081859419704e+00 +0.0000000000000000e+00 +3.2499999825298600e+00 -2.8761696034786899e-02 -5.5031623928915741e-01 +5.3735233768480474e-03
3.2999999999999998e+00 +8.5266991347380099e+00 +0.0000000000000000e+00 +3.2999999817106000e+00 -2.8763127432469181e-02 -5.5034047688996812e-01 +5.3728522250309765e-03
3.3500000000000001e+00 +8.5266899452181004e+00 +0.0000000000000000e+00 +3.3499999808661101e+00 -2.8764578233173521e-02 -5.5036502730902837e-01 +5.3721882036885885e-03
3.3999999999999999e+00 +8.5266806173895002e+00 +0.0000000000000000e+00 +3.3999999799960099e+00 -2.8766048376668851e-02 -5.5038988846627590e-01 +5.3715313812456649e-03
3.4500000000000002e+00 +8.5266711512522306e+00 +0.0000000000000000e+00 +3.4499999790999101e+00 -2.8767537802725233e-02 -5.5041505828170678e-01 +5.3708818261273905e-03
3.5000000000000000e+00 +8.5266615468026394e+00 +0.0000000000000000e+00 +3.4999999781774398e+00 -2.8769046451112317e-02 -5.5044053467535103e-01 +5.3702396067590837e-03
3.5499999999999998e+00 +8.5266518040407409e+00 +0.0000000000000000e+00 +3.5499999772282100e+00 -2.8770574261596321e-02 -5.5046631556721792e-01 +5.3696047915656993e-03
3.6000000000000001e+00 +8.5266419229665207e+00 +0.0000000000000000e+00 +3.5999999762518402e+00 -2.8772121173941463e-02 -5.5049239887732360e-01 +5.3689774489720605e-03
3.6499999999999999e+00 +8.5266319035799807e+00 +0.0000000000000000e+00 +3.6499999752479400e+00 -2.8773687127909810e-02 -5.5051878252568975e-01 +5.3683576474028482e-03
3.6999999999999900e+00 +8.5266217458847695e+00 +0.0000000000000000e+00 +3.6999999742161398e+00 -2.8775272063259784e-02 -5.5054546443231811e-01 +5.3677454552823467e-03
3.7499999999999898e+00 +8.5266114498736005e+00 +0.0000000000000000e+00 +3.7499999731560498e+00 -2.8776875919751980e-02 -5.5057244251729454e-01 +5.3671409410354330e-03
3.7999999999999901e+00 +8.5266010155537497e+00 +0.0000000000000000e+00 +3.7999999720672801e+00 -2.8778498637138730e-02 -5.5059971470060443e-01 +5.3665441730858087e-03
3.8499999999999899e+00 +8.5265904429179500e+00 +0.0000000000000000e+00 +3.8499999709494599e+00 -2.8780140155175844e-02 -5.5062727890234520e-01 +5.3659552198579985e-03
3.8999999999999901e+00 +8.5265797319771099e+00 +0.0000000000000000e+00 +3.8999999698022001e+00 -2.8781800413609275e-02 -5.5065513304248570e-01 +5.3653741497750847e-03
3.9499999999999900e+00 +8.5265688827203103e+00 +0.0000000000000000e+00 +3.9499999686251202e+00 -2.8783479352191253e-02 -5.5068327504115888e-01 +5.3648010312614628e-03
3.9999999999999898e+00 +8.5265578951548395e+00 +0.0000000000000000e+00 +3.9999999674178399e+00 -2.8785176910663936e-02 -5.5071170281836979e-01 +5.3642359327400460e-03
4.0499999999999901e+00 +8.5265467692734092e+00 +0.0000000000000000e+00 +4.0499999661799704e+00 -2.8786893013643511e-02 -5.5074041414562969e-01 +5.3636789181467732e-03
4.0999999999999899e+00 +8.5265355050833005e+00 +0.0000000000000000e+00 +4.0999999649111301e+00 -2.8788627525221870e-02 -5.5076940619993098e-01 +5.3631300334655912e-03
4.1499999999999897e+00 +8.5265241025808791e+00 +0.0000000000000000e+00 +4.1499999636109504e+00 -2.8790380294366751e-02 -5.5079867600974353e-01 +5.3625893201942583e-03
4.1999999999999904e+00 +8.5265125617697795e+00 +0.0000000000000000e+00 +4.1999999622790298e+00 -2.8792151170043960e-02 -5.5082822060348546e-01 +5.3620568198310290e-03
4.2499999999999902e+00 +8.5265008826427202e+00 +0.0000000000000000e+00 +4.2499999609149901e+00 -2.8793940001224785e-02 -5.5085803700965486e-01 +5.3615325738759160e-03
4.2999999999999901e+00 +8.5264890652069898e+00 +0.0000000000000000e+00 +4.2999999595184599e+00 -2.8795746636875751e-02 -5.5088812225664596e-01 +5.3610166238289665e-03
4.3499999999999899e+00 +8.5264771094589396e+00 +0.0000000000000000e+00 +4.3499999580890396e+00 -2.8797570925968904e-02 -5.5091847337293265e-01 +5.3605090111920476e-03
4.3999999999999897e+00 +8.5264650153985695e+00 +0.0000000000000000e+00 +4.3999999566263703e+00 -2.8799412717476023e-02 -5.5094908738696213e-01 +5.3600097774678598e-03
4.4499999999999904e+00 +8.5264527830295300e+00 +0.0000000000000000e+00 +4.4499999551300400e+00 -2.8801271860368620e-02 -5.5097996132715643e-01 +5.3595189641599790e-03
4.4999999999999902e+00 +8.5264404123481707e+00 +0.0000000000000000e+00 +4.4999999535996897e+00 -2.8803148203622442e-02 -5.5101109222198963e-01 +5.3590366127736228e-03
4.5499999999999901e+00 +8.5264279033544899e+00 +0.0000000000000000e+00 +4.5499999520349199e+00 -2.8805041596213030e-02 -5.5104247709990883e-01 +5.3585627648149231e-03
4.5999999999999899e+00 +8.5264152560448601e+00 +0.0000000000000000e+00 +4.5999999504353601e+00 -2.8806951887118761e-02 -5.5107411298938713e-01 +5.3580974617914627e-03
4.6499999999999897e+00 +8.5264024704301793e+00 +0.0000000000000000e+00 +4.6499999488006196e+00 -2.8808878925313489e-02 -5.5110599691879136e-01 +5.3576407452110477e-03
4.6999999999999904e+00 +8.5263895464995603e+00 +0.0000000000000000e+00 +4.6999999471303298e+00 -2.8810822559781311e-02 -5.5113812591664457e-01 +5.3571926565842299e-03
4.7499999999999902e+00 +8.5263764842602505e+00 +0.0000000000000000e+00 +4.7499999454240900e+00 -2.8812782639500448e-02 -5.5117049701133713e-01 +5.3567532374215890e-03
4.7999999999999901e+00 +8.5263632837050007e+00 +0.0000000000000000e+00 +4.7999999436815299e+00 -2.8814759013456512e-02 -5.5120310723136334e-01 +5.3563225292360059e-03
4.8499999999999899e+00 +8.5263499448447000e+00 +0.0000000000000000e+00 +4.8499999419022597e+00 -2.8816751530629250e-02 -5.5123595360508226e-01 +5.3559005735404428e-03
4.8999999999999897e+00 +8.5263364676684397e+00 +0.0000000000000000e+00 +4.8999999400859000e+00 -2.8818760040008853e-02 -5.5126903316101039e-01 +5.3554874118507045e-03
4.9499999999999904e+00 +8.5263228521798702e+00 +0.0000000000000000e+00 +4.9499999382320699e+00 -2.8820784390581229e-02 -5.5130234292755531e-01 +5.3550830856829911e-03
4.9999999999999902e+00 +8.5263090983826295e+00 +0.0000000000000000e+00 +4.9999999363403900e+00 -2.8822824431333958e-02 -5.5133587993312139e-01 +5.3546876365549020e-03
5.0499999999999901e+00 +8.5262952059529198e+00 +0.0000000000000000e+00 +5.0499999344103799e+00 -2.8824880011389296e-02 -5.5136964120849630e-01 +5.3543011060078038e-03
5.0999999999999899e+00 +8.5262811745706095e+00 +0.0000000000000000e+00 +5.0999999324415599e+00 -2.8826950979869839e-02 -5.5140362378443897e-01 +5.3539235355842376e-03
5.1499999999999897e+00 +8.5262670042357094e+00 +0.0000000000000000e+00 +5.1499999304335597e+00 -2.8829037185770019e-02 -5.5143782468937341e-01 +5.3535549668063710e-03
5.1999999999999904e+00 +8.5262526949518396e+00 +0.0000000000000000e+00 +5.1999999283859903e+00 -2.8831138478084602e-02 -5.5147224095169400e-01 +5.3531954411976460e-03
5.2499999999999902e+00 +8.5262382467153692e+00 +0.0000000000000000e+00 +5.2499999262984600e+00 -2.8833254705813164e-02 -5.5150686959984263e-01 +5.3528450002835381e-03
5.2999999999999901e+00 +8.5262236595299292e+00 +0.0000000000000000e+00 +5.2999999241705797e+00 -2.8835385717954198e-02 -5.5154170766220478e-01 +5.3525036855905884e-03
5.3499999999999899e+00 +8.5262089333882596e+00 +0.0000000000000000e+00 +5.3499999220019703e+00 -2.8837531363512615e-02 -5.5157675216724023e-01 +5.3521715386476831e-03
5.3999999999999897e+00 +8.5261940682976292e+00 +0.0000000000000000e+00 +5.3999999197922497e+00 -2.8839691491489315e-02 -5.5161200014329737e-01 +5.3518486009843371e-03
5.4499999999999904e+00 +8.5261790642507496e+00 +0.0000000000000000e+00 +5.4499999175410201e+00 -2.8841865950893209e-02 -5.5164744861882553e-01 +5.3515349141326964e-03
5.4999999999999902e+00 +8.5261639212585596e+00 +0.0000000000000000e+00 +5.4999999152479004e+00 -2.8844054590727832e-02 -5.5168309462213638e-01 +5.3512305196253543e-03
5.5499999999999901e+00 +8.5261486393137602e+00 +0.0000000000000000e+00 +5.5499999129125097e+00 -2.8846257260006180e-02 -5.5171893518166726e-01 +5.3509354589978270e-03
5.5999999999999899e+00 +8.5261332184127205e+00 +0.0000000000000000e+00 +5.5999999105344500e+00 -2.8848473807741956e-02 -5.5175496732582396e-01 +5.3506497737871193e-03
5.6499999999999897e+00 +8.5261176585627307e+00 +0.0000000000000000e+00 +5.6499999081133403e+00 -2.8850704082946550e-02 -5.5179118808292515e-01 +5.3503735055312421e-03
5.6999999999999904e+00 +8.5261019597637606e+00 +0.0000000000000000e+00 +5.6999999056488004e+00 -2.8852947934636577e-02 -5.5182759448133645e-01 +5.3501066957704867e-03
5.7499999999999902e+00 +8.5260861220122006e+00 +0.0000000000000000e+00 +5.7499999031404396e+00 -2.8855205211832338e-02 -5.5186418354944300e-01 +5.3498493860471841e-03
5.7999999999999901e+00 +8.5260701453080401e+00 +0.0000000000000000e+00 +5.7999999005878804e+00 -2.8857475763554984e-02 -5.5190095231559611e-01 +5.3496016179052676e-03
5.8499999999999899e+00 +8.5260540296512808e+00 +0.0000000000000000e+00 +5.8499998979907204e+00 -2.8859759438827976e-02 -5.5193789780813973e-01 +5.3493634328905127e-03
5.8999999999999897e+00 +8.5260377750455500e+00 +0.0000000000000000e+00 +5.8999998953485804e+00 -2.8862056086675657e-02 -5.5197501705538288e-01 +5.3491348725503421e-03
