# field on trajectory
# s[mm] rx[mm] ry[mm] rz[mm] bx[T] by[T] bz[T]
0.0000000000000000e+00 +8.5269999999999992e+00 +0.0000000000000000e+00 +0.0000000000000000e+00 -2.8131658078633860e-02 -5.2473118008801001e-01 +4.7098899889298244e-03
-5.0000000000000003e-02 +8.5269999308364373e+00 +0.0000000000000000e+00 -4.9999999999936214e-02 -2.8131048442419905e-02 -5.2473226856620736e-01 +4.7116314357422114e-03
-1.0000000000000001e-01 +8.5269997233455435e+00 +0.0000000000000000e+00 -9.9999999999489747e-02 -2.8130460394268052e-02 -5.2473369867132946e-01 +4.7133838821209638e-03
-1.5000000000000002e-01 +8.5269993775269413e+00 +0.0000000000000000e+00 -1.4999999999827790e-01 -2.8129893855815442e-02 -5.2473546945995109e-01 +4.7151471852134386e-03
-2.0000000000000001e-01 +8.5269988933801635e+00 +0.0000000000000000e+00 -1.9999999999591797e-01 -2.8129348748700444e-02 -5.2473757998866188e-01 +4.7169212021674544e-03
-2.5000000000000000e-01 +8.5269982709046541e+00 +0.0000000000000000e+00 -2.4999999999202727e-01 -2.8128824994562613e-02 -5.2474002931406571e-01 +4.7187057901312826e-03
-2.9999999999999999e-01 +8.5269975100997666e+00 +0.0000000000000000e+00 -2.9999999998622306e-01 -2.8128322515042669e-02 -5.2474281649278187e-01 +4.7205008062536540e-03
-3.4999999999999998e-01 +8.5269966109647672e+00 +0.0000000000000000e+00 -3.4999999997812270e-01 -2.8127841231782472e-02 -5.2474594058144408e-01 +4.7223061076837403e-03
-3.9999999999999997e-01 +8.5269955734988319e+00 +0.0000000000000000e+00 -3.9999999996734342e-01 -2.8127381066424970e-02 -5.2474940063670072e-01 +4.7241215515711529e-03
-4.4999999999999996e-01 +8.5269943977010492e+00 +0.0000000000000000e+00 -4.4999999995350248e-01 -2.8126941940614176e-02 -5.2475319571521528e-01 +4.7259469950659272e-03
-4.9999999999999994e-01 +8.5269930835704191e+00 +0.0000000000000000e+00 -4.9999999993621713e-01 -2.8126523775995151e-02 -5.2475732487366600e-01 +4.7277822953185238e-03
-5.4999999999999993e-01 +8.5269916311058527e+00 +0.0000000000000000e+00 -5.4999999991510462e-01 -2.8126126494213925e-02 -5.2476178716874455e-01 +4.7296273094798178e-03
-5.9999999999999998e-01 +8.5269900403061722e+00 +0.0000000000000000e+00 -5.9999999988978225e-01 -2.8125750016917514e-02 -5.2476658165715828e-01 +4.7314818947010876e-03
-6.5000000000000002e-01 +8.5269883111701166e+00 +0.0000000000000000e+00 -6.4999999985986723e-01 -2.8125394265753847e-02 -5.2477170739562873e-01 +4.7333459081340123e-03
-7.0000000000000007e-01 +8.5269864436963321e+00 +0.0000000000000000e+00 -6.9999999982497674e-01 -2.8125059162371777e-02 -5.2477716344089187e-01 +4.7352192069306624e-03
-7.5000000000000011e-01 +8.5269844378833817e+00 +0.0000000000000000e+00 -7.4999999978472798e-01 -2.8124744628420972e-02 -5.2478294884969834e-01 +4.7371016482434941e-03
-8.0000000000000016e-01 +8.5269822937297395e+00 +0.0000000000000000e+00 -7.9999999973873803e-01 -2.8124450585551981e-02 -5.2478906267881231e-01 +4.7389930892253332e-03
-8.5000000000000020e-01 +8.5269800112337943e+00 +0.0000000000000000e+00 -8.4999999968662421e-01 -2.8124176955416139e-02 -5.2479550398501396e-01 +4.7408933870293855e-03
-9.0000000000000024e-01 +8.5269775903938481e+00 +0.0000000000000000e+00 -8.9999999962800359e-01 -2.8123923659665515e-02 -5.2480227182509609e-01 +4.7428023988092087e-03
-9.5000000000000029e-01 +8.5269750312081172e+00 +0.0000000000000000e+00 -9.4999999956249337e-01 -2.8123690619952939e-02 -5.2480936525586674e-01 +4.7447199817187173e-03
-1.0000000000000002e+00 +8.5269723336747312e+00 +0.0000000000000000e+00 -9.9999999948971052e-01 -2.8123477757931933e-02 -5.2481678333414805e-01 +4.7466459929121725e-03
-1.0500000000000003e+00 +8.5269694977917361e+00 +0.0000000000000000e+00 -1.0499999994092724e+00 -2.8123284995256671e-02 -5.2482452511677635e-01 +4.7485802895441721e-03
-1.1000000000000003e+00 +8.5269665235570891e+00 +0.0000000000000000e+00 -1.0999999993207956e+00 -2.8123112253581970e-02 -5.2483258966060164e-01 +4.7505227287696515e-03
-1.1500000000000004e+00 +8.5269634109686656e+00 +0.0000000000000000e+00 -1.1499999992238976e+00 -2.8122959454563220e-02 -5.2484097602248903e-01 +4.7524731677438606e-03
-1.2000000000000004e+00 +8.5269601600242542e+00 +0.0000000000000000e+00 -1.1999999991181953e+00 -2.8122826519856418e-02 -5.2484968325931691e-01 +4.7544314636223705e-03
-1.2500000000000004e+00 +8.5269567707215597e+00 +0.0000000000000000e+00 -1.2499999990033057e+00 -2.8122713371118060e-02 -5.2485871042797771e-01 +4.7563974735610600e-03
-1.3000000000000005e+00 +8.5269532430582018e+00 +0.0000000000000000e+00 -1.2999999988788458e+00 -2.8122619930005123e-02 -5.2486805658537827e-01 +4.7583710547161118e-03
-1.3500000000000005e+00 +8.5269495770317185e+00 +0.0000000000000000e+00 -1.3499999987444322e+00 -2.8122546118175114e-02 -5.2487772078843964e-01 +4.7603520642439988e-03
-1.4000000000000006e+00 +8.5269457726395608e+00 +0.0000000000000000e+00 -1.3999999985996823e+00 -2.8122491857285874e-02 -5.2488770209409585e-01 +4.7623403593014778e-03
-1.4500000000000006e+00 +8.5269418298790978e+00 +0.0000000000000000e+00 -1.4499999984442127e+00 -2.8122457068995722e-02 -5.2489799955929595e-01 +4.7643357970455907e-03
-1.5000000000000007e+00 +8.5269377487476152e+00 +0.0000000000000000e+00 -1.4999999982776404e+00 -2.8122441674963312e-02 -5.2490861224100172e-01 +4.7663382346336434e-03
-1.5500000000000007e+00 +8.5269335292423154e+00 +0.0000000000000000e+00 -1.5499999980995822e+00 -2.8122445596847616e-02 -5.2491953919618972e-01 +4.7683475292232122e-03
-1.6000000000000008e+00 +8.5269291713603170e+00 +0.0000000000000000e+00 -1.5999999979096549e+00 -2.8122468756307917e-02 -5.2493077948184974e-01 +4.7703635379721214e-03
-1.6500000000000008e+00 +8.5269246750986589e+00 +0.0000000000000000e+00 -1.6499999977074753e+00 -2.8122511075003773e-02 -5.2494233215498542e-01 +4.7723861180384514e-03
-1.7000000000000008e+00 +8.5269200404542946e+00 +0.0000000000000000e+00 -1.6999999974926601e+00 -2.8122572474594945e-02 -5.2495419627261397e-01 +4.7744151265805210e-03
-1.7500000000000009e+00 +8.5269152674240960e+00 +0.0000000000000000e+00 -1.7499999972648259e+00 -2.8122652876741396e-02 -5.2496637089176701e-01 +4.7764504207568744e-03
-1.8000000000000009e+00 +8.5269103560048549e+00 +0.0000000000000000e+00 -1.7999999970235896e+00 -2.8122752203103292e-02 -5.2497885506948849e-01 +4.7784918577262981e-03
-1.8500000000000010e+00 +8.5269053061932798e+00 +0.0000000000000000e+00 -1.8499999967685676e+00 -2.8122870375340867e-02 -5.2499164786283714e-01 +4.7805392946477796e-03
-1.9000000000000010e+00 +8.5269001179859973e+00 +0.0000000000000000e+00 -1.8999999964993768e+00 -2.8123007315114506e-02 -5.2500474832888455e-01 +4.7825925886805284e-03
-1.9500000000000011e+00 +8.5268947913795543e+00 +0.0000000000000000e+00 -1.9499999962156334e+00 -2.8123162944084602e-02 -5.2501815552471554e-01 +4.7846515969839527e-03
-2.0000000000000009e+00 +8.5268893263704175e+00 +0.0000000000000000e+00 -1.9999999959169541e+00 -2.8123337183911634e-02 -5.2503186850742978e-01 +4.7867161767176586e-03
-2.0500000000000007e+00 +8.5268837229549721e+00 +0.0000000000000000e+00 -2.0499999956029553e+00 -2.8123529961659455e-02 -5.2504588616097048e-01 +4.7887861834514005e-03
-2.1000000000000005e+00 +8.5268779811295232e+00 +0.0000000000000000e+00 -2.0999999952732535e+00 -2.8123741226005895e-02 -5.2506020667662390e-01 +4.7908614663949370e-03
-2.1500000000000004e+00 +8.5268721008902943e+00 +0.0000000000000000e+00 -2.1499999949274655e+00 -2.8123970931033117e-02 -5.2507482807251715e-01 +4.7929418731680442e-03
-2.2000000000000002e+00 +8.5268660822334326e+00 +0.0000000000000000e+00 -2.1999999945652071e+00 -2.8124219030824408e-02 -5.2508974836678779e-01 +4.7950272513905476e-03
-2.2500000000000000e+00 +8.5268599251550032e+00 +0.0000000000000000e+00 -2.2499999941860951e+00 -2.8124485479464181e-02 -5.2510496557758268e-01 +4.7971174486822850e-03
-2.2999999999999998e+00 +8.5268536296509971e+00 +0.0000000000000000e+00 -2.2999999937897453e+00 -2.8124770231038019e-02 -5.2512047772305903e-01 +4.7992123126631087e-03
-2.3499999999999996e+00 +8.5268471957173233e+00 +0.0000000000000000e+00 -2.3499999933757745e+00 -2.8125073239632654e-02 -5.2513628282138203e-01 +4.8013116909528669e-03
-2.3999999999999995e+00 +8.5268406233498162e+00 +0.0000000000000000e+00 -2.3999999929437985e+00 -2.8125394459336085e-02 -5.2515237889072686e-01 +4.8034154311713930e-03
-2.4499999999999993e+00 +8.5268339125442321e+00 +0.0000000000000000e+00 -2.4499999924934333e+00 -2.8125733844237541e-02 -5.2516876394927703e-01 +4.8055233809384708e-03
-2.4999999999999991e+00 +8.5268270632962526e+00 +0.0000000000000000e+00 -2.4999999920242955e+00 -2.8126091348427563e-02 -5.2518543601522349e-01 +4.8076353878738496e-03
-2.5499999999999989e+00 +8.5268200756014814e+00 +0.0000000000000000e+00 -2.5499999915360005e+00 -2.8126466925998007e-02 -5.2520239310676764e-01 +4.8097512995972100e-03
-2.5999999999999988e+00 +8.5268129494554508e+00 +0.0000000000000000e+00 -2.5999999910281648e+00 -2.8126860531042068e-02 -5.2521963324211696e-01 +4.8118709637281539e-03
-2.6499999999999986e+00 +8.5268056848536133e+00 +0.0000000000000000e+00 -2.6499999905004046e+00 -2.8127272117654374e-02 -5.2523715443948804e-01 +4.8139942278861902e-03
-2.6999999999999984e+00 +8.5267982817913524e+00 +0.0000000000000000e+00 -2.6999999899523353e+00 -2.8127701639930926e-02 -5.2525495471710382e-01 +4.8161209396907212e-03
-2.7499999999999982e+00 +8.5267907402639747e+00 +0.0000000000000000e+00 -2.7499999893835732e+00 -2.8128149051969212e-02 -5.2527303209319576e-01 +4.8182509467610251e-03
-2.7999999999999980e+00 +8.5267830602667161e+00 +0.0000000000000000e+00 -2.7999999887937337e+00 -2.8128614307868186e-02 -5.2529138458600166e-01 +4.8203840967162483e-03
-2.8499999999999979e+00 +8.5267752417947360e+00 +0.0000000000000000e+00 -2.8499999881824327e+00 -2.8129097361728372e-02 -5.2531001021376689e-01 +4.8225202371753829e-03
-2.8999999999999977e+00 +8.5267672848431264e+00 +0.0000000000000000e+00 -2.8999999875492861e+00 -2.8129598167651777e-02 -5.2532890699474222e-01 +4.8246592157572543e-03
-2.9499999999999975e+00 +8.5267591894069064e+00 +0.0000000000000000e+00 -2.9499999868939093e+00 -2.8130116679742054e-02 -5.2534807294718633e-01 +4.8268008800805085e-03
-2.9999999999999973e+00 +8.5267509554810221e+00 +0.0000000000000000e+00 -2.9999999862159181e+00 -2.8130652852104466e-02 -5.2536750608936311e-01 +4.8289450777635971e-03
-3.0499999999999972e+00 +8.5267425830603525e+00 +0.0000000000000000e+00 -3.0499999855149280e+00 -2.8131206638845885e-02 -5.2538720443954279e-01 +4.8310916564247592e-03
-3.0999999999999970e+00 +8.5267340721397034e+00 +0.0000000000000000e+00 -3.0999999847905544e+00 -2.8131777994074934e-02 -5.2540716601600090e-01 +4.8332404636820137e-03
-3.1499999999999968e+00 +8.5267254227138150e+00 +0.0000000000000000e+00 -3.1499999840424127e+00 -2.8132366871901907e-02 -5.2542738883701889e-01 +4.8353913471531401e-03
-3.1999999999999966e+00 +8.5267166347773546e+00 +0.0000000000000000e+00 -3.1999999832701183e+00 -2.8132973226438901e-02 -5.2544787092088352e-01 +4.8375441544556592e-03
-3.2499999999999964e+00 +8.5267077083249223e+00 +0.0000000000000000e+00 -3.2499999824732866e+00 -2.8133597011799731e-02 -5.2546861028588654e-01 +4.8396987332068311e-03
-3.2999999999999963e+00 +8.5266986433510521e+00 +0.0000000000000000e+00 -3.2999999816515331e+00 -2.8134238182100091e-02 -5.2548960495032393e-01 +4.8418549310236285e-03
-3.3499999999999961e+00 +8.5266894398502089e+00 +0.0000000000000000e+00 -3.3499999808044727e+00 -2.8134896691457509e-02 -5.2551085293249711e-01 +4.8440125955227275e-03
-3.3999999999999959e+00 +8.5266800978167918e+00 +0.0000000000000000e+00 -3.3999999799317209e+00 -2.8135572493991380e-02 -5.2553235225071115e-01 +4.8461715743204946e-03
-3.4499999999999957e+00 +8.5266706172451343e+00 +0.0000000000000000e+00 -3.4499999790328926e+00 -2.8136265543823025e-02 -5.2555410092327515e-01 +4.8483317150329634e-03
-3.4999999999999956e+00 +8.5266609981295023e+00 +0.0000000000000000e+00 -3.4999999781076028e+00 -2.8136975795075729e-02 -5.2557609696850305e-01 +4.8504928652758350e-03
-3.5499999999999954e+00 +8.5266512404640977e+00 +0.0000000000000000e+00 -3.5499999771554664e+00 -2.8137703201874767e-02 -5.2559833840471137e-01 +4.8526548726644508e-03
-3.5999999999999952e+00 +8.5266413442430569e+00 +0.0000000000000000e+00 -3.5999999761760986e+00 -2.8138447718347396e-02 -5.2562082325022064e-01 +4.8548175848137816e-03
-3.6499999999999950e+00 +8.5266313094604538e+00 +0.0000000000000000e+00 -3.6499999751691141e+00 -2.8139209298622955e-02 -5.2564354952335413e-01 +4.8569808493384081e-03
-3.6999999999999948e+00 +8.5266211361102968e+00 +0.0000000000000000e+00 -3.6999999741341276e+00 -2.8139987896832860e-02 -5.2566651524243879e-01 +4.8591445138525232e-03
-3.7499999999999947e+00 +8.5266108241865322e+00 +0.0000000000000000e+00 -3.7499999730707541e+00 -2.8140783467110631e-02 -5.2568971842580348e-01 +4.8613084259698965e-03
-3.7999999999999945e+00 +8.5266003736830420e+00 +0.0000000000000000e+00 -3.7999999719786079e+00 -2.8141595963591941e-02 -5.2571315709177990e-01 +4.8634724333038700e-03
-3.8499999999999943e+00 +8.5265897845936482e+00 +0.0000000000000000e+00 -3.8499999708573038e+00 -2.8142425340414664e-02 -5.2573682925870169e-01 +4.8656363834673425e-03
-3.8999999999999941e+00 +8.5265790569121123e+00 +0.0000000000000000e+00 -3.8999999697064562e+00 -2.8143271551718866e-02 -5.2576073294490566e-01 +4.8678001240727584e-03
-3.9499999999999940e+00 +8.5265681906321316e+00 +0.0000000000000000e+00 -3.9499999685256797e+00 -2.8144134551646865e-02 -5.2578486616872866e-01 +4.8699635027320857e-03
-3.9999999999999938e+00 +8.5265571857473450e+00 +0.0000000000000000e+00 -3.9999999673145887e+00 -2.8145014294343275e-02 -5.2580922694851040e-01 +4.8721263670568034e-03
-4.0499999999999936e+00 +8.5265460422513293e+00 +0.0000000000000000e+00 -4.0499999660727974e+00 -2.8145910698215367e-02 -5.2583381326466783e-01 +4.8742885795990051e-03
-4.0999999999999934e+00 +8.5265347601376043e+00 +0.0000000000000000e+00 -4.0999999647999203e+00 -2.8146823538712694e-02 -5.2585862294592434e-01 +4.8764500626749148e-03
-4.1499999999999932e+00 +8.5265233393996311e+00 +0.0000000000000000e+00 -4.1499999634955715e+00 -2.8147752555544005e-02 -5.2588365378308244e-01 +4.8786107535416555e-03
-4.1999999999999931e+00 +8.5265117800308090e+00 +0.0000000000000000e+00 -4.1999999621593656e+00 -2.8148697488416714e-02 -5.2590890356694708e-01 +4.8807705894561119e-03
-4.2499999999999929e+00 +8.5265000820244836e+00 +0.0000000000000000e+00 -4.2499999607909160e+00 -2.8149658077036753e-02 -5.2593437008832655e-01 +4.8829295076749067e-03
-4.2999999999999927e+00 +8.5264882453739421e+00 +0.0000000000000000e+00 -4.2999999593898375e+00 -2.8150634061108539e-02 -5.2596005113803090e-01 +4.8850874454544014e-03
-4.3499999999999925e+00 +8.5264762700724130e+00 +0.0000000000000000e+00 -4.3499999579557427e+00 -2.8151625180334844e-02 -5.2598594450687264e-01 +4.8872443400506940e-03
-4.3999999999999924e+00 +8.5264641561130716e+00 +0.0000000000000000e+00 -4.3999999564882462e+00 -2.8152631174416801e-02 -5.2601204798566714e-01 +4.8894001287196091e-03
-4.4499999999999922e+00 +8.5264519034890363e+00 +0.0000000000000000e+00 -4.4499999549869624e+00 -2.8153651783053759e-02 -5.2603835936523047e-01 +4.8915547487166982e-03
-4.4999999999999920e+00 +8.5264395121933720e+00 +0.0000000000000000e+00 -4.4999999534515043e+00 -2.8154686745943212e-02 -5.2606487643638189e-01 +4.8937081372972214e-03
-4.5499999999999918e+00 +8.5264269822190872e+00 +0.0000000000000000e+00 -4.5499999518814853e+00 -2.8155735802780735e-02 -5.2609159698994123e-01 +4.8958602317161516e-03
-4.5999999999999917e+00 +8.5264143135591386e+00 +0.0000000000000000e+00 -4.5999999502765201e+00 -2.8156798693259925e-02 -5.2611851881673044e-01 +4.8980109692281677e-03
-4.6499999999999915e+00 +8.5264015062064296e+00 +0.0000000000000000e+00 -4.6499999486362213e+00 -2.8157875157072250e-02 -5.2614563970757244e-01 +4.9001602870876442e-03
-4.6999999999999913e+00 +8.5263885601538121e+00 +0.0000000000000000e+00 -4.6999999469602027e+00 -2.8158964933907057e-02 -5.2617295745329129e-01 +4.9023081225486485e-03
-4.7499999999999911e+00 +8.5263754753940830e+00 +0.0000000000000000e+00 -4.7499999452480770e+00 -2.8160067763451473e-02 -5.2620046984471269e-01 +4.9044544128649375e-03
-4.7999999999999909e+00 +8.5263622519199913e+00 +0.0000000000000000e+00 -4.7999999434994587e+00 -2.8161183385390243e-02 -5.2622817467266181e-01 +4.9065990952899437e-03
-4.8499999999999908e+00 +8.5263488897242325e+00 +0.0000000000000000e+00 -4.8499999417139597e+00 -2.8162311539405793e-02 -5.2625606972796568e-01 +4.9087421070767795e-03
-4.8999999999999906e+00 +8.5263353887994526e+00 +0.0000000000000000e+00 -4.8999999398911935e+00 -2.8163451965178030e-02 -5.2628415280145124e-01 +4.9108833854782201e-03
-4.9499999999999904e+00 +8.5263217491382512e+00 +0.0000000000000000e+00 -4.9499999380307740e+00 -2.8164604402384323e-02 -5.2631242168394576e-01 +4.9130228677467100e-03
-4.9999999999999902e+00 +8.5263079707331748e+00 +0.0000000000000000e+00 -4.9999999361323137e+00 -2.8165768590699428e-02 -5.2634087416627717e-01 +4.9151604911343459e-03
-5.0499999999999901e+00 +8.5262940535767218e+00 +0.0000000000000000e+00 -5.0499999341954256e+00 -2.8166944269795359e-02 -5.2636950803927252e-01 +4.9172961928928768e-03
-5.0999999999999899e+00 +8.5262799976613461e+00 +0.0000000000000000e+00 -5.0999999322197223e+00 -2.8168131179341378e-02 -5.2639832109375906e-01 +4.9194299102736962e-03
-5.1499999999999897e+00 +8.5262658029794505e+00 +0.0000000000000000e+00 -5.1499999302048165e+00 -2.8169329059003843e-02 -5.2642731112056373e-01 +4.9215615805278390e-03
-5.1999999999999895e+00 +8.5262514695233946e+00 +0.0000000000000000e+00 -5.1999999281503211e+00 -2.8170537648446223e-02 -5.2645647591051303e-01 +4.9236911409059701e-03
-5.2499999999999893e+00 +8.5262369972854888e+00 +0.0000000000000000e+00 -5.2499999260558479e+00 -2.8171756687328926e-02 -5.2648581325443222e-01 +4.9258185286583838e-03
-5.2999999999999892e+00 +8.5262223862580004e+00 +0.0000000000000000e+00 -5.2999999239210105e+00 -2.8172985915309270e-02 -5.2651532094314668e-01 +4.9279436810349955e-03
-5.3499999999999890e+00 +8.5262076364331509e+00 +0.0000000000000000e+00 -5.3499999217454208e+00 -2.8174225072041398e-02 -5.2654499676747946e-01 +4.9300665352853337e-03
-5.3999999999999888e+00 +8.5261927478031172e+00 +0.0000000000000000e+00 -5.3999999195286916e+00 -2.8175473897176180e-02 -5.2657483851825349e-01 +4.9321870286585428e-03
-5.4499999999999886e+00 +8.5261777203600335e+00 +0.0000000000000000e+00 -5.4499999172704348e+00 -2.8176732130361183e-02 -5.2660484398628993e-01 +4.9343050984033627e-03
-5.4999999999999885e+00 +8.5261625540959898e+00 +0.0000000000000000e+00 -5.4999999149702630e+00 -2.8177999511240524e-02 -5.2663501096240806e-01 +4.9364206817681319e-03
-5.5499999999999883e+00 +8.5261472490030332e+00 +0.0000000000000000e+00 -5.5499999126277881e+00 -2.8179275779454869e-02 -5.2666533723742592e-01 +4.9385337160007892e-03
-5.5999999999999881e+00 +8.5261318050731703e+00 +0.0000000000000000e+00 -5.5999999102426221e+00 -2.8180560674641256e-02 -5.2669582060215947e-01 +4.9406441383488498e-03
-5.6499999999999879e+00 +8.5261162222983646e+00 +0.0000000000000000e+00 -5.6499999078143777e+00 -2.8181853936433129e-02 -5.2672645884742253e-01 +4.9427518860594120e-03
-5.6999999999999877e+00 +8.5261005006705393e+00 +0.0000000000000000e+00 -5.6999999053426658e+00 -2.8183155304460170e-02 -5.2675724976402716e-01 +4.9448568963791498e-03
-5.7499999999999876e+00 +8.5260846401815780e+00 +0.0000000000000000e+00 -5.7499999028270983e+00 -2.8184464518348291e-02 -5.2678819114278241e-01 +4.9469591065543000e-03
-5.7999999999999874e+00 +8.5260686408233237e+00 +0.0000000000000000e+00 -5.7999999002672871e+00 -2.8185781317719448e-02 -5.2681928077449480e-01 +4.9490584538306650e-03
-5.8499999999999872e+00 +8.5260525025875822e+00 +0.0000000000000000e+00 -5.8499998976628440e+00 -2.8187105442191725e-02 -5.2685051644996883e-01 +4.9511548754536039e-03
