# multipoles
# s[mm] polynom_b[n=0][T/m^n] polynom_b[n=1][T/m^n] polynom_b[n=2][T/m^n] polynom_b[n=3][T/m^n] polynom_b[n=4][T/m^n] polynom_b[n=5][T/m^n] polynom_b[n=6][T/m^n] 
+0.0000000000000000e+00 -5.2473442558256467e-01 +6.9044753546025301e+00 +3.8095478794959381e+00 -1.9500878727965482e+01 +2.9599246313903244e+04 -3.2893953401124623e+05 -1.9218921241615373e+08 
-5.0000000000000003e-02 -5.2473551110455530e-01 +6.9045523020278310e+00 +3.8044098605381955e+00 -1.9952006727135068e+01 +2.9649420451889124e+04 -3.2591253921562218e+05 -1.9231039802993605e+08 
-1.0000000000000001e-01 -5.2473693812230016e-01 +6.9046463937215297e+00 +3.7991016825081774e+00 -2.0368098757102896e+01 +2.9695799475995394e+04 -3.2306791867288214e+05 -1.9241274252131674e+08 
-1.5000000000000002e-01 -5.2473870568394010e-01 +6.9047575962539076e+00 +3.7936226987255832e+00 -2.0749986256447269e+01 +2.9738359764082612e+04 -3.2040070507834578e+05 -1.9249596072247341e+08 
-2.0000000000000001e-01 -5.2474081283761065e-01 +6.9048858761968823e+00 +3.7879722602353092e+00 -2.1098500706169975e+01 +2.9777077741833255e+04 -3.1790593077930115e+05 -1.9255976774098805e+08 
-2.5000000000000000e-01 -5.2474325863146987e-01 +6.9050312001236724e+00 +3.7821497185248298e+00 -2.1414473623548254e+01 +2.9811929829415330e+04 -3.1557862778901757e+05 -1.9260387867184946e+08 
-2.9999999999999999e-01 -5.2474604211369080e-01 +6.9051935346019189e+00 +3.7761544248861387e+00 -2.1698736277351678e+01 +2.9842892452868480e+04 -3.1341383014691534e+05 -1.9262800865205181e+08 
-3.4999999999999998e-01 -5.2474916233246538e-01 +6.9053728462087838e+00 +3.7699857321838213e+00 -2.1952120293970669e+01 +2.9869941987317117e+04 -3.1140656898174027e+05 -1.9263187244607645e+08 
-3.9999999999999997e-01 -5.2475261833598863e-01 +6.9055691015158445e+00 +3.7636429903419337e+00 -2.2175457056281395e+01 +2.9893054891507207e+04 -3.0955187738346326e+05 -1.9261518539879560e+08 
-4.4999999999999996e-01 -5.2475640917248112e-01 +6.9057822670944846e+00 +3.7571255515020332e+00 -2.2369577919841532e+01 +2.9912207561021743e+04 -3.0784478864663042e+05 -1.9257766241483295e+08 
-4.9999999999999994e-01 -5.2476053389017663e-01 +6.9060123095203307e+00 +3.7504327673836548e+00 -2.2535314379677338e+01 +2.9927376404242536e+04 -3.0628033495479065e+05 -1.9251901849578348e+08 
-5.4999999999999993e-01 -5.2476499153731793e-01 +6.9062591953644148e+00 +3.7435639887023879e+00 -2.2673497730711656e+01 +2.9938537855208335e+04 -3.0485355008689692e+05 -1.9243896881056631e+08 
-5.9999999999999998e-01 -5.2476978116216588e-01 +6.9065228912035446e+00 +3.7365185670273613e+00 -2.2784959473969209e+01 +2.9945668319799781e+04 -3.0355946615123632e+05 -1.9233722831775033e+08 
-6.5000000000000002e-01 -5.2477490181299080e-01 +6.9068033636098285e+00 +3.7292958527277515e+00 -2.2870530904326198e+01 +2.9948744239738244e+04 -3.0239311690772657e+05 -1.9221351223424038e+08 
-7.0000000000000007e-01 -5.2478035253808442e-01 +6.9071005791597164e+00 +3.7218951973263743e+00 -2.2931043456175754e+01 +2.9947742023823888e+04 -3.0134953502515372e+05 -1.9206753554649979e+08 
-7.5000000000000011e-01 -5.2478613238575411e-01 +6.9074145044260584e+00 +3.7143159528386467e+00 -2.2967328407197268e+01 +2.9942638066368389e+04 -3.0042375439361844e+05 -1.9189901314228433e+08 
-8.0000000000000016e-01 -5.2479224040430406e-01 +6.9077451059868409e+00 +3.7065574679938162e+00 -2.2980217213931734e+01 +2.9933408848669529e+04 -2.9961080746941571e+05 -1.9170766048868245e+08 
-8.5000000000000020e-01 -5.2479867564207838e-01 +6.9080923504142699e+00 +3.6986190959270711e+00 -2.2970541069313118e+01 +2.9920030734930704e+04 -2.9890572888008988e+05 -1.9149319227092463e+08 
-9.0000000000000024e-01 -5.2480543714741501e-01 +6.9084562042874031e+00 +3.6905001862377995e+00 -2.2939131432831790e+01 +2.9902480181877156e+04 -2.9830355102360720e+05 -1.9125532378792530e+08 
-9.5000000000000029e-01 -5.2481252396867573e-01 +6.9088366341822569e+00 +3.6822000903817713e+00 -2.2886819606500207e+01 +2.9880733596746832e+04 -2.9779930762892077e+05 -1.9099377001003733e+08 
-1.0000000000000002e+00 -5.2481993515423453e-01 +6.9092336066742037e+00 +3.6737181592664219e+00 -2.2814436844817809e+01 +2.9854767399755874e+04 -2.9738803279820457e+05 -1.9070824598466146e+08 
-1.0500000000000003e+00 -5.2482766975248007e-01 +6.9096470883410275e+00 +3.6650537439561668e+00 -2.2722814475030614e+01 +2.9824558007153151e+04 -2.9706476004588400e+05 -1.9039846673755533e+08 
-1.1000000000000003e+00 -5.2483572681181456e-01 +6.9100770457601088e+00 +3.6562061952547471e+00 -2.2612783784983812e+01 +2.9790081844907407e+04 -2.9682452320587973e+05 -1.9006414737157544e+08 
-1.1500000000000004e+00 -5.2484410538064785e-01 +6.9105234455097992e+00 +3.6471748633674399e+00 -2.2485176074673042e+01 +2.9751315346912997e+04 -2.9666235602533870e+05 -1.8970500300922462e+08 
-1.2000000000000004e+00 -5.2485280450740779e-01 +6.9109862541668692e+00 +3.6379590987911476e+00 -2.2340822554215190e+01 +2.9708234944733016e+04 -2.9657329299582617e+05 -1.8932074878073692e+08 
-1.2500000000000004e+00 -5.2486182324054931e-01 +6.9114654383110894e+00 +3.6285582542807187e+00 -2.2180554532704811e+01 +2.9660817008797294e+04 -2.9655236779297952e+05 -1.8891109940417477e+08 
-1.3000000000000005e+00 -5.2487116062852668e-01 +6.9119609645214446e+00 +3.6189716803034515e+00 -2.2005203260683103e+01 +2.9609037970129997e+04 -2.9659461458598019e+05 -1.8847577000223333e+08 
-1.3500000000000005e+00 -5.2488081571979717e-01 +6.9124727993771860e+00 +3.6091987256797116e+00 -2.1815599970559987e+01 +2.9552874298796964e+04 -2.9669506771349837e+05 -1.8801447594077075e+08 
-1.4000000000000006e+00 -5.2489078756286489e-01 +6.9130009094594556e+00 +3.5992387443568967e+00 -2.1612575958276853e+01 +2.9492302334533924e+04 -2.9684876094995084e+05 -1.8752693173582664e+08 
-1.4500000000000006e+00 -5.2490107520621110e-01 +6.9135452613450905e+00 +3.5890910846038686e+00 -2.1396962298781759e+01 +2.9427298564951234e+04 -2.9705072997161729e+05 -1.8701285288568351e+08 
-1.5000000000000007e+00 -5.2491167769836000e-01 +6.9141058216177962e+00 +3.5787550994624175e+00 -2.1169590336596439e+01 +2.9357839350353752e+04 -2.9729600819501892e+05 -1.8647195403104776e+08 
-1.5500000000000007e+00 -5.2492259408783271e-01 +6.9146825568568389e+00 +3.5682301390151099e+00 -2.0931291205178997e+01 +2.9283901131320727e+04 -2.9757963078551763e+05 -1.8590395035710117e+08 
-1.6000000000000008e+00 -5.2493382342316364e-01 +6.9152754336447977e+00 +3.5575155538078311e+00 -2.0682896135104087e+01 +2.9205460333395851e+04 -2.9789663217447232e+05 -1.8530855694272509e+08 
-1.6500000000000008e+00 -5.2494536475291631e-01 +6.9158844185640493e+00 +3.5466106966629072e+00 -2.0425236339646290e+01 +2.9122493324315776e+04 -2.9824204688121501e+05 -1.8468548848476097e+08 
-1.7000000000000008e+00 -5.2495721712564403e-01 +6.9165094781936665e+00 +3.5355149164907904e+00 -2.0159142860486728e+01 +2.9034976574228276e+04 -2.9861091088255856e+05 -1.8403446036287960e+08 
-1.7500000000000009e+00 -5.2496937958993861e-01 +6.9171505791195882e+00 +3.5242275666793650e+00 -1.9885446992859652e+01 +2.8942886434419124e+04 -2.9899825808576331e+05 -1.8335518716134280e+08 
-1.8000000000000009e+00 -5.2498185119439000e-01 +6.9178076879240606e+00 +3.5127479981346323e+00 -1.9604979856274703e+01 +2.8846199322453540e+04 -2.9939912385138898e+05 -1.8264738391078416e+08 
-1.8500000000000010e+00 -5.2499463098759558e-01 +6.9184807711920433e+00 +3.5010755604822381e+00 -1.9318572650110003e+01 +2.8744891690408309e+04 -2.9980854291548993e+05 -1.8191076587261143e+08 
-1.9000000000000010e+00 -5.2500771801818491e-01 +6.9191697955038443e+00 +3.4892096069490366e+00 -1.9027056354599619e+01 +2.8638939895382548e+04 -3.0022155182908993e+05 -1.8114504767957866e+08 
-1.9500000000000011e+00 -5.2502111133478924e-01 +6.9198747274477856e+00 +3.4771494887354213e+00 -1.8731262256034107e+01 +2.8528320345311407e+04 -3.0063318463469390e+05 -1.8034994428606743e+08 
-2.0000000000000009e+00 -5.2503480998605301e-01 +6.9205955336065443e+00 +3.4648945571904690e+00 -1.8432021383139148e+01 +2.8413009447961049e+04 -3.0103847748901031e+05 -1.7952517066694251e+08 
-2.0500000000000007e+00 -5.2504881285706939e-01 +6.9213321647293213e+00 +3.4524422891920215e+00 -1.8130007379288813e+01 +2.8293063793644316e+04 -3.0143362952856527e+05 -1.7867098854011995e+08 
-2.1000000000000005e+00 -5.2506311817807538e-01 +6.9220845052000159e+00 +3.4397829721079507e+00 -1.7825330445144992e+01 +2.8168860265901298e+04 -3.0181918398414366e+05 -1.7778984146906838e+08 
-2.1500000000000004e+00 -5.2507772401542674e-01 +6.9228524220552750e+00 +3.4269051732028761e+00 -1.7517977016617579e+01 +2.8040855962942340e+04 -3.0219669315772929e+05 -1.7688471869016680e+08 
-2.2000000000000002e+00 -5.2509262843549054e-01 +6.9236357823344923e+00 +3.4137974602380119e+00 -1.7207933628626225e+01 +2.7909507968044079e+04 -3.0256770854862325e+05 -1.7595860933442274e+08 
-2.2500000000000000e+00 -5.2510782950465396e-01 +6.9244344530791064e+00 +3.4004484026269872e+00 -1.6895186895798851e+01 +2.7775273319130050e+04 -3.0293378096539376e+05 -1.7501450221942997e+08 
-2.2999999999999998e+00 -5.2512332528929173e-01 +6.9252483013280708e+00 +3.3868465656603255e+00 -1.6579723316597928e+01 +2.7638609168583254e+04 -3.0329646216686728e+05 -1.7405538695156449e+08 
-2.3499999999999996e+00 -5.2513911385581302e-01 +6.9260771941232333e+00 +3.3729805190407816e+00 -1.6261529505540622e+01 +2.7499972548103233e+04 -3.0365730291608593e+05 -1.7308425231363508e+08 
-2.3999999999999995e+00 -5.2515519327063076e-01 +6.9269209985070805e+00 +3.3588388312744324e+00 -1.5940592099276177e+01 +2.7359820523432219e+04 -3.0401785375697579e+05 -1.7210408732590792e+08 
-2.4499999999999993e+00 -5.2517156160014578e-01 +6.9277795815206504e+00 +3.3444100674659007e+00 -1.5616897663733493e+01 +2.7218610248836532e+04 -3.0437966580716206e+05 -1.7111788159434804e+08 
-2.4999999999999991e+00 -5.2518821691079520e-01 +6.9286528102090124e+00 +3.3296827968812859e+00 -1.5290432930384052e+01 +2.7076798773405892e+04 -3.0474428878052958e+05 -1.7012862404224503e+08 
-2.5499999999999989e+00 -5.2520515726901273e-01 +6.9295405516144770e+00 +3.3146455868013311e+00 -1.4961184508448055e+01 +2.6934843194807272e+04 -3.0511327338005177e+05 -1.6913930389939329e+08 
-2.5999999999999988e+00 -5.2522238074124816e-01 +6.9304426727841708e+00 +3.2992870059029298e+00 -1.4629139209004528e+01 +2.6793200574489401e+04 -3.0548816858749336e+05 -1.6815291015830317e+08 
-2.6499999999999986e+00 -5.2523988539394606e-01 +6.9313590407609684e+00 +3.2835956200692995e+00 -1.4294283664302494e+01 +2.6652328052044206e+04 -3.0587052483167412e+05 -1.6717243234955421e+08 
-2.6999999999999984e+00 -5.2525766929356243e-01 +6.9322895225927583e+00 +3.2675599959462005e+00 -1.3956604709530845e+01 +2.6512682744517970e+04 -3.0626189084132819e+05 -1.6620085984298250e+08 
-2.7499999999999982e+00 -5.2527573050658138e-01 +6.9332339853284770e+00 +3.2511687031173619e+00 -1.3616089224217705e+01 +2.6374721695500335e+04 -3.0666381493757991e+05 -1.6524118153488722e+08 
-2.7999999999999980e+00 -5.2529406709947168e-01 +6.9341922960134292e+00 +3.2344103079096129e+00 -1.3272723935331662e+01 +2.6238902027728251e+04 -3.0707784667699219e+05 -1.6429638682238826e+08 
-2.8499999999999979e+00 -5.2531267713871221e-01 +6.9351643216972638e+00 +3.2172733761583880e+00 -1.2926495760513964e+01 +2.6105680886652040e+04 -3.0750553395480639e+05 -1.6336946529296896e+08 
-2.8999999999999977e+00 -5.2533155869080383e-01 +6.9361499294304609e+00 +3.1997464763483219e+00 -1.2577391643688554e+01 +2.5975515343438477e+04 -3.0794842445961275e+05 -1.6246340601770416e+08 
-2.9499999999999975e+00 -5.2535070982223442e-01 +6.9371489862626099e+00 +3.1818181737759423e+00 -1.2225398500327623e+01 +2.5848862553930438e+04 -3.0840806604193081e+05 -1.6158119863890409e+08 
-2.9999999999999973e+00 -5.2537012859952470e-01 +6.9381613592465188e+00 +3.1634770372233461e+00 -1.1870503379166257e+01 +2.5726179589055791e+04 -3.0888600543128478e+05 -1.6072583225699562e+08 
-3.0499999999999972e+00 -5.2538981308917887e-01 +6.9391869154334564e+00 +3.1447116322946140e+00 -1.1512693278228882e+01 +2.5607923594746502e+04 -3.0938378968609561e+05 -1.5990029643787774e+08 
-3.0999999999999970e+00 -5.2540976135771378e-01 +6.9402255218765694e+00 +3.1255105247990587e+00 -1.1151955271281588e+01 +2.5494551721124757e+04 -3.0990296523775021e+05 -1.5910758081234390e+08 
-3.1499999999999968e+00 -5.2542997147166171e-01 +6.9412770456314492e+00 +3.1058622825205799e+00 -1.0788276541010132e+01 +2.5386521061227915e+04 -3.1044507755364978e+05 -1.5835067461236221e+08 
-3.1999999999999966e+00 -5.2545044149755349e-01 +6.9423413537515843e+00 +3.0857554715171904e+00 -1.0421644196204538e+01 +2.5284288756923543e+04 -3.1101167263967462e+05 -1.5763256740585697e+08 
-3.2499999999999964e+00 -5.2547116950192929e-01 +6.9434183132945035e+00 +3.0651786579203630e+00 -1.0052045515269626e+01 +2.5188311952218166e+04 -3.1160429507814615e+05 -1.5695624878981018e+08 
-3.2999999999999963e+00 -5.2549215355133061e-01 +6.9445077913158988e+00 +3.0441204077409596e+00 -9.6794677128212463e+00 +2.5099047790549583e+04 -3.1222448990968522e+05 -1.5632470834585011e+08 
-3.3499999999999961e+00 -5.2551339171230449e-01 +6.9456096548753701e+00 +3.0225692863217448e+00 -9.3038981760333375e+00 +2.5016953437500539e+04 -3.1287380069054238e+05 -1.5574093581759840e+08 
-3.3999999999999959e+00 -5.2553488205141574e-01 +6.9467237710299976e+00 +3.0005138612299422e+00 -8.9253241970508324e+00 +2.4942485997398144e+04 -3.1355377172174578e+05 -1.5520792052979481e+08 
-3.4499999999999957e+00 -5.2555662263522029e-01 +6.9478500068412457e+00 +2.9779426973603642e+00 -8.5437332637541576e+00 +2.4876102648993048e+04 -3.1426594560705632e+05 -1.5472865231740093e+08 
-3.4999999999999956e+00 -5.2557861153028684e-01 +6.9489882293694283e+00 +2.9548443604546812e+00 -8.1591128255628593e+00 +2.4818260553491760e+04 -3.1501186523291213e+05 -1.5430612091857380e+08 
-3.5499999999999954e+00 -5.2560084680316743e-01 +6.9501383056771848e+00 +2.9312074132832953e+00 -7.7714504458341294e+00 +2.4769416942685675e+04 -3.1579307246676943e+05 -1.5394331650957119e+08 
-3.5999999999999952e+00 -5.2562332652046662e-01 +6.9513001028270125e+00 +2.9070204258806660e+00 -7.3807336968496129e+00 +2.4730028866255623e+04 -3.1661110903339915e+05 -1.5364322808986565e+08 
-3.6499999999999950e+00 -5.2564604874874854e-01 +6.9524734878838386e+00 +2.8822719607728202e+00 -6.9869502659086979e+00 +2.4700553569280546e+04 -3.1746751565887686e+05 -1.5340884594922760e+08 
-3.6999999999999948e+00 -5.2566901155459955e-01 +6.9536583279117012e+00 +2.8569505832697875e+00 -6.5900878179347941e+00 +2.4681448226958099e+04 -3.1836383318823844e+05 -1.5324315992487589e+08 
-3.7499999999999947e+00 -5.2569221300460478e-01 +6.9548544899801330e+00 +2.8310448578678549e+00 -6.1901342671046100e+00 +2.4673170034906831e+04 -3.1930160032325028e+05 -1.5314915998630428e+08 
-3.7999999999999945e+00 -5.2571565116536090e-01 +6.9560618411519313e+00 +2.8045433499674304e+00 -5.7870772658764427e+00 +2.4676176168371512e+04 -3.2028235786659765e+05 -1.5312983597866425e+08 
-3.8499999999999943e+00 -5.2573932410345992e-01 +6.9572802484989138e+00 +2.7774346236243317e+00 -5.3809048533961228e+00 +2.4690923838031187e+04 -3.2130764337743819e+05 -1.5318817798405492e+08 
-3.8999999999999941e+00 -5.2576322988551405e-01 +6.9585095790891769e+00 +2.7497072454060145e+00 -4.9716049453359998e+00 +2.4717870190192130e+04 -3.2237899532495433e+05 -1.5332717566005751e+08 
-3.9499999999999940e+00 -5.2578736657811220e-01 +6.9597496999947976e+00 +2.7213497772251087e+00 -4.5591656310120099e+00 +2.4757472496514587e+04 -3.2349795071673300e+05 -1.5354981950901431e+08 
-3.9999999999999938e+00 -5.2581173224785716e-01 +6.9610004782865946e+00 +2.6923507826283126e+00 -4.1435749812144191e+00 +2.4810187988362719e+04 -3.2466604656760901e+05 -1.5385909977581206e+08 
-4.0499999999999936e+00 -5.2583632490501730e-01 +6.9622617789878349e+00 +2.6627056485419196e+00 -3.7249355141464568e+00 +2.4876299161710482e+04 -3.2588371145798330e+05 -1.5425689363962805e+08 
-4.0999999999999934e+00 -5.2586114233644488e-01 +6.9635334504738973e+00 +2.6324376115733683e+00 -3.3037008142633901e+00 +2.4955383700326958e+04 -3.2714760268297151e+05 -1.5474060151970842e+08 
-4.1499999999999932e+00 -5.2588618227369932e-01 +6.9648153348454009e+00 +2.6015770535683571e+00 -2.8803869702644520e+00 +2.5046840812900333e+04 -3.2845359331072599e+05 -1.5530649315201250e+08 
-4.1999999999999931e+00 -5.2591144244836074e-01 +6.9661072742038970e+00 +2.5701543592109486e+00 -2.4555101324631319e+00 +2.5150069638540615e+04 -3.2979755590389099e+05 -1.5595083782173547e+08 
-4.2499999999999929e+00 -5.2593692059199626e-01 +6.9674091106472034e+00 +2.5381999110125855e+00 -2.0295862937428431e+00 +2.5264469371152692e+04 -3.3117536437596771e+05 -1.5666990516932032e+08 
-4.2999999999999927e+00 -5.2596261443616354e-01 +6.9687206862732785e+00 +2.5057440900548955e+00 -1.6031314831487762e+00 +2.5389439242140314e+04 -3.3258289225924737e+05 -1.5745996508597922e+08 
-4.3499999999999925e+00 -5.2598852171244614e-01 +6.9700418431763183e+00 +2.4728172815024032e+00 -1.1766615702879522e+00 +2.5524378374824810e+04 -3.3401601445837761e+05 -1.5831728673795548e+08 
-4.3999999999999924e+00 -5.2601464015241495e-01 +6.9713724234517152e+00 +2.4394498680938419e+00 -7.5069249635989477e-01 +2.5668685960306571e+04 -3.3547060523933941e+05 -1.5923813975944746e+08 
-4.4499999999999922e+00 -5.2604096748765661e-01 +6.9727122691900050e+00 +2.4056722354095883e+00 -3.2574001471037717e-01 +2.5821761112693948e+04 -3.3694254041729961e+05 -1.6021879326141405e+08 
-4.4999999999999920e+00 -5.2606750144972370e-01 +6.9740612224846572e+00 +2.3715147634827343e+00 +9.7679988996019110e-02 +2.5983003091738352e+04 -3.3842769472159311e+05 -1.6125551732408935e+08 
-4.5499999999999918e+00 -5.2609423977021652e-01 +6.9754191254226861e+00 +2.3370078403337611e+00 +5.1905188661992452e-01 +2.6151810946200414e+04 -3.3992194501231826e+05 -1.6234458061878785e+08 
-4.5999999999999917e+00 -5.2612118018068743e-01 +6.9767858200897317e+00 +2.3021818459169765e+00 +9.3786007641580060e-01 +2.6327583941344019e+04 -3.4142116831070191e+05 -1.6348225327541748e+08 
-4.6499999999999915e+00 -5.2614832041274362e-01 +6.9781611485754453e+00 +2.2670671699328375e+00 +1.3535887928883712e+00 +2.6509721079981588e+04 -3.4292124034430017e+05 -1.6466480365133354e+08 
-4.6999999999999913e+00 -5.2617565819793433e-01 +6.9795449529590075e+00 +2.2316941921074043e+00 +1.7657226766581395e+00 +2.6697621633106301e+04 -3.4441804014399776e+05 -1.6588850191160232e+08 
-4.7499999999999911e+00 -5.2620319126784676e-01 +6.9809370753235180e+00 +2.1960932991681328e+00 +2.1737461945870868e+00 +2.6890684682730716e+04 -3.4590744532626390e+05 -1.6714961694398457e+08 
-4.7999999999999909e+00 -5.2623091735406591e-01 +6.9823373577471255e+00 +2.1602948773053785e+00 +2.5771440004163346e+00 +2.7088309330814162e+04 -3.4738533503400377e+05 -1.6844441779113629e+08 
-4.8499999999999908e+00 -5.2625883418815456e-01 +6.9837456423070234e+00 +2.1243293099442480e+00 +2.9754007751047356e+00 +2.7289894745527938e+04 -3.4884758865608438e+05 -1.6976917391239968e+08 
-4.8999999999999906e+00 -5.2628693950169281e-01 +6.9851617710783866e+00 +2.0882269832973450e+00 +3.3680012552472745e+00 +2.7494840026101971e+04 -3.5029008600334334e+05 -1.7112015432233435e+08 
-4.9499999999999904e+00 -5.2631523102626565e-01 +6.9865855861346962e+00 +2.0520182848610879e+00 +3.7544302339734568e+00 +2.7702544236823680e+04 -3.5170870736279606e+05 -1.7249362779815832e+08 
-4.9999999999999902e+00 -5.2634370649342110e-01 +6.9880169295443872e+00 +2.0157335964643810e+00 +4.1341727002792226e+00 +2.7912406592686821e+04 -3.5309933466492197e+05 -1.7388586412836245e+08 
-5.0499999999999901e+00 -5.2637236363475659e-01 +6.9894556433762327e+00 +1.9794033090242038e+00 +4.5067136028336146e+00 +2.8123826062850942e+04 -3.5445784947724611e+05 -1.7529313143398100e+08 
