# field on trajectory
# s[mm] rx[mm] ry[mm] rz[mm] bx[T] by[T] bz[T]
0.0000000000000000e+00 +8.5269999999999992e+00 +0.0000000000000000e+00 +0.0000000000000000e+00 -2.7239596528037424e-02 -5.2400979887224552e-01 +5.0564559863757732e-03
5.0000000000000003e-02 +8.5269999309316287e+00 +0.0000000000000000e+00 +4.9999999999936394e-02 -2.7239774527786680e-02 -5.2400842068352727e-01 +5.0572133227859443e-03
1.0000000000000001e-01 +8.5269997237267443e+00 +0.0000000000000000e+00 +9.9999999999491149e-02 -2.7239968793034374e-02 -5.2400738229286270e-01 +5.0579779668530403e-03
1.5000000000000002e-01 +8.5269993783856179e+00 +0.0000000000000000e+00 +1.4999999999828265e-01 -2.7240179372168490e-02 -5.2400668335423617e-01 +5.0587498953271843e-03
2.0000000000000001e-01 +8.5269988949084361e+00 +0.0000000000000000e+00 +1.9999999999592924e-01 -2.7240406313578054e-02 -5.2400632352164811e-01 +5.0595290849586973e-03
2.5000000000000000e-01 +8.5269982732952929e+00 +0.0000000000000000e+00 +2.4999999999204930e-01 -2.7240649665653136e-02 -5.2400630244911306e-01 +5.0603155124981118e-03
2.9999999999999999e-01 +8.5269975135461937e+00 +0.0000000000000000e+00 +2.9999999998626120e-01 -2.7240909476784852e-02 -5.2400661979066210e-01 +5.0611091546961702e-03
3.4999999999999998e-01 +8.5269966156610550e+00 +0.0000000000000000e+00 +3.4999999997818332e-01 -2.7241185795365431e-02 -5.2400727520034129e-01 +5.0619099883038440e-03
3.9999999999999997e-01 +8.5269955796397046e+00 +0.0000000000000000e+00 +3.9999999996743402e-01 -2.7241478669788100e-02 -5.2400826833221203e-01 +5.0627179900723362e-03
4.4999999999999996e-01 +8.5269944054818794e+00 +0.0000000000000000e+00 +4.4999999995363166e-01 -2.7241788148447157e-02 -5.2400959884035103e-01 +5.0635331367530796e-03
4.9999999999999994e-01 +8.5269930931872295e+00 +0.0000000000000000e+00 +4.9999999993639460e-01 -2.7242114279738015e-02 -5.2401126637885065e-01 +5.0643554050977648e-03
5.4999999999999993e-01 +8.5269916427553145e+00 +0.0000000000000000e+00 +5.4999999991534121e-01 -2.7242457112057122e-02 -5.2401327060181846e-01 +5.0651847718583233e-03
5.9999999999999998e-01 +8.5269900541856067e+00 +0.0000000000000000e+00 +5.9999999989008979e-01 -2.7242816693802026e-02 -5.2401561116337758e-01 +5.0660212137869547e-03
6.5000000000000002e-01 +8.5269883274774898e+00 +0.0000000000000000e+00 +6.4999999986025869e-01 -2.7243193073371329e-02 -5.2401828771766590e-01 +5.0668647076361258e-03
7.0000000000000007e-01 +8.5269864626302585e+00 +0.0000000000000000e+00 +6.9999999982546623e-01 -2.7243586299164780e-02 -5.2402129991883784e-01 +5.0677152301585836e-03
7.5000000000000011e-01 +8.5269844596431170e+00 +0.0000000000000000e+00 +7.4999999978533072e-01 -2.7243996419583145e-02 -5.2402464742106225e-01 +5.0685727581073516e-03
8.0000000000000016e-01 +8.5269823185151843e+00 +0.0000000000000000e+00 +7.9999999973947056e-01 -2.7244423483028333e-02 -5.2402832987852366e-01 +5.0694372682357491e-03
8.5000000000000020e-01 +8.5269800392454886e+00 +0.0000000000000000e+00 +8.4999999968750395e-01 -2.7244867537903335e-02 -5.2403234694542189e-01 +5.0703087372973923e-03
9.0000000000000024e-01 +8.5269776218329714e+00 +0.0000000000000000e+00 +8.9999999962904920e-01 -2.7245328632612240e-02 -5.2403669827597232e-01 +5.0711871420462068e-03
9.5000000000000029e-01 +8.5269750662764867e+00 +0.0000000000000000e+00 +9.4999999956372461e-01 -2.7245806815560266e-02 -5.2404138352440566e-01 +5.0720724592364244e-03
1.0000000000000002e+00 +8.5269723725747983e+00 +0.0000000000000000e+00 +9.9999999949114837e-01 -2.7246302135153718e-02 -5.2404640234496824e-01 +5.0729646656226118e-03
1.0500000000000003e+00 +8.5269695407265829e+00 +0.0000000000000000e+00 +1.0499999994109388e+00 -2.7246814639800044e-02 -5.2405175439192120e-01 +5.0738637379596531e-03
1.1000000000000003e+00 +8.5269665707304299e+00 +0.0000000000000000e+00 +1.0999999993227141e+00 -2.7247344377907778e-02 -5.2405743931954163e-01 +5.0747696530027758e-03
1.1500000000000004e+00 +8.5269634625848418e+00 +0.0000000000000000e+00 +1.1499999992260925e+00 -2.7247891397886602e-02 -5.2406345678212152e-01 +5.0756823875075458e-03
1.2000000000000004e+00 +8.5269602162882308e+00 +0.0000000000000000e+00 +1.1999999991206922e+00 -2.7248455748147302e-02 -5.2406980643396872e-01 +5.0766019182298897e-03
1.2500000000000004e+00 +8.5269568318389233e+00 +0.0000000000000000e+00 +1.2499999990061315e+00 -2.7249037477101827e-02 -5.2407648792940587e-01 +5.0775282219260838e-03
1.3000000000000005e+00 +8.5269533092351590e+00 +0.0000000000000000e+00 +1.2999999988820281e+00 -2.7249636633163241e-02 -5.2408350092277178e-01 +5.0784612753527773e-03
1.3500000000000005e+00 +8.5269496484750888e+00 +0.0000000000000000e+00 +1.3499999987480005e+00 -2.7250253264745776e-02 -5.2409084506842052e-01 +5.0794010552670001e-03
1.4000000000000006e+00 +8.5269458495567765e+00 +0.0000000000000000e+00 +1.3999999986036669e+00 -2.7250887420264748e-02 -5.2409852002072044e-01 +5.0803475384261498e-03
1.4500000000000006e+00 +8.5269419124781987e+00 +0.0000000000000000e+00 +1.4499999984486451e+00 -2.7251539148136682e-02 -5.2410652543405667e-01 +5.0813007015880251e-03
1.5000000000000007e+00 +8.5269378372372451e+00 +0.0000000000000000e+00 +1.4999999982825534e+00 -2.7252208496779218e-02 -5.2411486096282889e-01 +5.0822605215108145e-03
1.5500000000000007e+00 +8.5269336238317184e+00 +0.0000000000000000e+00 +1.5499999981050097e+00 -2.7252895514611186e-02 -5.2412352626145253e-01 +5.0832269749531249e-03
1.6000000000000008e+00 +8.5269292722593342e+00 +0.0000000000000000e+00 +1.5999999979156319e+00 -2.7253600250052547e-02 -5.2413252098435836e-01 +5.0842000386739561e-03
1.6500000000000008e+00 +8.5269247825177228e+00 +0.0000000000000000e+00 +1.6499999977140383e+00 -2.7254322751524430e-02 -5.2414184478599235e-01 +5.0851796894327466e-03
1.7000000000000008e+00 +8.5269201546044258e+00 +0.0000000000000000e+00 +1.6999999974998465e+00 -2.7255063067449140e-02 -5.2415149732081612e-01 +5.0861659039893523e-03
1.7500000000000009e+00 +8.5269153885168976e+00 +0.0000000000000000e+00 +1.7499999972726747e+00 -2.7255821246250176e-02 -5.2416147824330628e-01 +5.0871586591040661e-03
1.8000000000000009e+00 +8.5269104842525074e+00 +0.0000000000000000e+00 +1.7999999970321408e+00 -2.7256597336352162e-02 -5.2417178720795565e-01 +5.0881579315376268e-03
1.8500000000000010e+00 +8.5269054418085375e+00 +0.0000000000000000e+00 +1.8499999967778624e+00 -2.7257391386180968e-02 -5.2418242386927139e-01 +5.0891636980512208e-03
1.9000000000000010e+00 +8.5269002611821847e+00 +0.0000000000000000e+00 +1.8999999965094576e+00 -2.7258203444163579e-02 -5.2419338788177638e-01 +5.0901759354064959e-03
1.9500000000000011e+00 +8.5268949423705589e+00 +0.0000000000000000e+00 +1.9499999962265442e+00 -2.7259033558728225e-02 -5.2420467890000977e-01 +5.0911946203655604e-03
2.0000000000000009e+00 +8.5268894853706829e+00 +0.0000000000000000e+00 +1.9999999959287398e+00 -2.7259881778304313e-02 -5.2421629657852509e-01 +5.0922197296910041e-03
2.0500000000000007e+00 +8.5268838901794943e+00 +0.0000000000000000e+00 +2.0499999956156620e+00 -2.7260748099752426e-02 -5.2422824034788684e-01 +5.0932512307021510e-03
2.1000000000000005e+00 +8.5268781567938454e+00 +0.0000000000000000e+00 +2.0999999952869288e+00 -2.7261632313653954e-02 -5.2424050874265848e-01 +5.0942890529437736e-03
2.1500000000000004e+00 +8.5268722852105014e+00 +0.0000000000000000e+00 +2.1499999949421582e+00 -2.7262534159020732e-02 -5.2425310007341064e-01 +5.0953331165171411e-03
2.2000000000000002e+00 +8.5268662754261442e+00 +0.0000000000000000e+00 +2.1999999945809674e+00 -2.7263453374864955e-02 -5.2426601265072637e-01 +5.0963833415237567e-03
2.2500000000000000e+00 +8.5268601274373683e+00 +0.0000000000000000e+00 +2.2499999942029740e+00 -2.7264389700199159e-02 -5.2427924478520038e-01 +5.0974396480653206e-03
2.2999999999999998e+00 +8.5268538412406869e+00 +0.0000000000000000e+00 +2.2999999938077953e+00 -2.7265342874036112e-02 -5.2429279478743895e-01 +5.0985019562437492e-03
2.3499999999999996e+00 +8.5268474168325259e+00 +0.0000000000000000e+00 +2.3499999933950493e+00 -2.7266312635388850e-02 -5.2430666096805922e-01 +5.0995701861611467e-03
2.3999999999999995e+00 +8.5268408542092331e+00 +0.0000000000000000e+00 +2.3999999929643532e+00 -2.7267298723270623e-02 -5.2432084163769077e-01 +5.1006442579198032e-03
2.4499999999999993e+00 +8.5268341533670675e+00 +0.0000000000000000e+00 +2.4499999925153242e+00 -2.7268300876694802e-02 -5.2433533510697272e-01 +5.1017240916221970e-03
2.4999999999999991e+00 +8.5268273143022100e+00 +0.0000000000000000e+00 +2.4999999920475804e+00 -2.7269318834674875e-02 -5.2435013968655630e-01 +5.1028096073709658e-03
2.5499999999999989e+00 +8.5268203370107578e+00 +0.0000000000000000e+00 +2.5499999915607385e+00 -2.7270352336224386e-02 -5.2436525368710207e-01 +5.1039007252689193e-03
2.5999999999999988e+00 +8.5268132214887284e+00 +0.0000000000000000e+00 +2.5999999910544163e+00 -2.7271401120356902e-02 -5.2438067541928213e-01 +5.1049973654190145e-03
2.6499999999999986e+00 +8.5268059677320540e+00 +0.0000000000000000e+00 +2.6499999905282303e+00 -2.7272464926086017e-02 -5.2439640319377812e-01 +5.1060994479243602e-03
2.6999999999999984e+00 +8.5267985757365903e+00 +0.0000000000000000e+00 +2.6999999899817984e+00 -2.7273543492425174e-02 -5.2441243532128190e-01 +5.1072068928882013e-03
2.7499999999999982e+00 +8.5267910454981095e+00 +0.0000000000000000e+00 +2.7499999894147376e+00 -2.7274636558387796e-02 -5.2442877011249545e-01 +5.1083196204139095e-03
2.7999999999999980e+00 +8.5267833770123058e+00 +0.0000000000000000e+00 +2.7999999888266651e+00 -2.7275743862987090e-02 -5.2444540587812982e-01 +5.1094375506049805e-03
2.8499999999999979e+00 +8.5267755702747952e+00 +0.0000000000000000e+00 +2.8499999882171978e+00 -2.7276865145236119e-02 -5.2446234092890631e-01 +5.1105606035650245e-03
2.8999999999999977e+00 +8.5267676252811118e+00 +0.0000000000000000e+00 +2.8999999875859528e+00 -2.7278000144147677e-02 -5.2447957357555441e-01 +5.1116886993977616e-03
2.9499999999999975e+00 +8.5267595420267153e+00 +0.0000000000000000e+00 +2.9499999869325468e+00 -2.7279148598734305e-02 -5.2449710212881351e-01 +5.1128217582069894e-03
2.9999999999999973e+00 +8.5267513205069836e+00 +0.0000000000000000e+00 +2.9999999862565971e+00 -2.7280310248008196e-02 -5.2451492489943174e-01 +5.1139597000966234e-03
3.0499999999999972e+00 +8.5267429607172183e+00 +0.0000000000000000e+00 +3.0499999855577204e+00 -2.7281484830981209e-02 -5.2453304019816582e-01 +5.1151024451706328e-03
3.0999999999999970e+00 +8.5267344626526427e+00 +0.0000000000000000e+00 +3.0999999848355335e+00 -2.7282672086664787e-02 -5.2455144633578099e-01 +5.1162499135330780e-03
3.1499999999999968e+00 +8.5267258263084074e+00 +0.0000000000000000e+00 +3.1499999840896531e+00 -2.7283871754069908e-02 -5.2457014162305027e-01 +5.1174020252880720e-03
3.1999999999999966e+00 +8.5267170516795829e+00 +0.0000000000000000e+00 +3.1999999833196959e+00 -2.7285083572207079e-02 -5.2458912437075589e-01 +5.1185587005397916e-03
3.2499999999999964e+00 +8.5267081387611654e+00 +0.0000000000000000e+00 +3.2499999825252788e+00 -2.7286307280086238e-02 -5.2460839288968708e-01 +5.1197198593924556e-03
3.2999999999999963e+00 +8.5266990875480744e+00 +0.0000000000000000e+00 +3.2999999817060184e+00 -2.7287542616716797e-02 -5.2462794549064118e-01 +5.1208854219503257e-03
3.3499999999999961e+00 +8.5266898980351566e+00 +0.0000000000000000e+00 +3.3499999808615311e+00 -2.7288789321107499e-02 -5.2464778048442318e-01 +5.1220553083176964e-03
3.3999999999999959e+00 +8.5266805702171844e+00 +0.0000000000000000e+00 +3.3999999799914331e+00 -2.7290047132266449e-02 -5.2466789618184462e-01 +5.1232294385988785e-03
3.4499999999999957e+00 +8.5266711040888534e+00 +0.0000000000000000e+00 +3.4499999790953413e+00 -2.7291315789201027e-02 -5.2468829089372493e-01 +5.1244077328982040e-03
3.4999999999999956e+00 +8.5266614996447885e+00 +0.0000000000000000e+00 +3.4999999781728719e+00 -2.7292595030917896e-02 -5.2470896293089098e-01 +5.1255901113200150e-03
3.5499999999999954e+00 +8.5266517568795397e+00 +0.0000000000000000e+00 +3.5499999772236412e+00 -2.7293884596422881e-02 -5.2472991060417462e-01 +5.1267764939686425e-03
3.5999999999999952e+00 +8.5266418757875844e+00 +0.0000000000000000e+00 +3.5999999762472656e+00 -2.7295184224721006e-02 -5.2475113222441638e-01 +5.1279668009484121e-03
3.6499999999999950e+00 +8.5266318563633288e+00 +0.0000000000000000e+00 +3.6499999752433610e+00 -2.7296493654816387e-02 -5.2477262610246167e-01 +5.1291609523636331e-03
3.6999999999999948e+00 +8.5266216986011081e+00 +0.0000000000000000e+00 +3.6999999742115435e+00 -2.7297812625712261e-02 -5.2479439054916255e-01 +5.1303588683185896e-03
3.7499999999999947e+00 +8.5266114024951829e+00 +0.0000000000000000e+00 +3.7499999731514295e+00 -2.7299140876410850e-02 -5.2481642387537775e-01 +5.1315604689175301e-03
3.7999999999999945e+00 +8.5266009680397463e+00 +0.0000000000000000e+00 +3.7999999720626350e+00 -2.7300478145913420e-02 -5.2483872439197010e-01 +5.1327656742646555e-03
3.8499999999999943e+00 +8.5265903952289204e+00 +0.0000000000000000e+00 +3.8499999709447756e+00 -2.7301824173220135e-02 -5.2486129040980978e-01 +5.1339744044641231e-03
3.8999999999999941e+00 +8.5265796840567543e+00 +0.0000000000000000e+00 +3.8999999697974674e+00 -2.7303178697330122e-02 -5.2488412023977160e-01 +5.1351865796200333e-03
3.9499999999999940e+00 +8.5265688345172315e+00 +0.0000000000000000e+00 +3.9499999686203262e+00 -2.7304541457241299e-02 -5.2490721219273562e-01 +5.1364021198364125e-03
3.9999999999999938e+00 +8.5265578466042644e+00 +0.0000000000000000e+00 +3.9999999674129678e+00 -2.7305912191950478e-02 -5.2493056457958687e-01 +5.1376209452172091e-03
4.0499999999999936e+00 +8.5265467203116980e+00 +0.0000000000000000e+00 +4.0499999661750081e+00 -2.7307290694011523e-02 -5.2495417558918156e-01 +5.1388429736075247e-03
4.0999999999999934e+00 +8.5265354556333062e+00 +0.0000000000000000e+00 +4.0999999649060621e+00 -2.7308676970211252e-02 -5.2497804292224415e-01 +5.1400681138172250e-03
4.1499999999999932e+00 +8.5265240525627988e+00 +0.0000000000000000e+00 +4.1499999636057456e+00 -2.7310071080895480e-02 -5.2500216415746781e-01 +5.1412962723972368e-03
4.1999999999999931e+00 +8.5265125110938165e+00 +0.0000000000000000e+00 +4.1999999622736750e+00 -2.7311473086410572e-02 -5.2502653687355005e-01 +5.1425273558983273e-03
4.2499999999999929e+00 +8.5265008312199360e+00 +0.0000000000000000e+00 +4.2499999609094647e+00 -2.7312883047103532e-02 -5.2505115864918916e-01 +5.1437612708710835e-03
4.2999999999999927e+00 +8.5264890129346647e+00 +0.0000000000000000e+00 +4.2999999595127303e+00 -2.7314301023321951e-02 -5.2507602706308820e-01 +5.1449979238659144e-03
4.3499999999999925e+00 +8.5264770562314478e+00 +0.0000000000000000e+00 +4.3499999580830870e+00 -2.7315727075414093e-02 -5.2510113969395122e-01 +5.1462372214330192e-03
4.3999999999999924e+00 +8.5264649611036667e+00 +0.0000000000000000e+00 +4.3999999566201495e+00 -2.7317161263728854e-02 -5.2512649412048529e-01 +5.1474790701224122e-03
4.4499999999999922e+00 +8.5264527275446369e+00 +0.0000000000000000e+00 +4.4499999551235341e+00 -2.7318603648615804e-02 -5.2515208792139911e-01 +5.1487233764838701e-03
4.4999999999999920e+00 +8.5264403555476100e+00 +0.0000000000000000e+00 +4.4999999535928552e+00 -2.7320054290425208e-02 -5.2517791867540342e-01 +5.1499700470669617e-03
4.5499999999999918e+00 +8.5264278451057791e+00 +0.0000000000000000e+00 +4.5499999520277274e+00 -2.7321513249507972e-02 -5.2520398396120971e-01 +5.1512189884210073e-03
4.5999999999999917e+00 +8.5264151962122714e+00 +0.0000000000000000e+00 +4.5999999504277662e+00 -2.7322980586215777e-02 -5.2523028135753180e-01 +5.1524701070950960e-03
4.6499999999999915e+00 +8.5264024088601555e+00 +0.0000000000000000e+00 +4.6499999487925869e+00 -2.7324456360900983e-02 -5.2525680844308364e-01 +5.1537233096380503e-03
4.6999999999999913e+00 +8.5263894830424380e+00 +0.0000000000000000e+00 +4.6999999471218032e+00 -2.7325940633916700e-02 -5.2528356279658095e-01 +5.1549785025984370e-03
4.7499999999999911e+00 +8.5263764187520668e+00 +0.0000000000000000e+00 +4.7499999454150306e+00 -2.7327433465616797e-02 -5.2531054199673932e-01 +5.1562355925245367e-03
4.7999999999999909e+00 +8.5263632159819309e+00 +0.0000000000000000e+00 +4.7999999436718834e+00 -2.7328934916355897e-02 -5.2533774362227492e-01 +5.1574944859643576e-03
4.8499999999999908e+00 +8.5263498747248576e+00 +0.0000000000000000e+00 +4.8499999418919764e+00 -2.7330445046489401e-02 -5.2536516525190435e-01 +5.1587550894656052e-03
4.8999999999999906e+00 +8.5263363949736206e+00 +0.0000000000000000e+00 +4.8999999400749230e+00 -2.7331963916373523e-02 -5.2539280446434333e-01 +5.1600173095756848e-03
4.9499999999999904e+00 +8.5263227767209315e+00 +0.0000000000000000e+00 +4.9499999382203388e+00 -2.7333491586365246e-02 -5.2542065883830846e-01 +5.1612810528416800e-03
4.9999999999999902e+00 +8.5263090199594487e+00 +0.0000000000000000e+00 +4.9999999363278382e+00 -2.7335028116822431e-02 -5.2544872595251513e-01 +5.1625462258103614e-03
5.0499999999999901e+00 +8.5262951246817735e+00 +0.0000000000000000e+00 +5.0499999343970350e+00 -2.7336573568103723e-02 -5.2547700338567749e-01 +5.1638127350281567e-03
5.0999999999999899e+00 +8.5262810908804525e+00 +0.0000000000000000e+00 +5.0999999324275436e+00 -2.7338128000568646e-02 -5.2550548871651004e-01 +5.1650804870411520e-03
5.1499999999999897e+00 +8.5262669185479751e+00 +0.0000000000000000e+00 +5.1499999304189776e+00 -2.7339691474577581e-02 -5.2553417952372483e-01 +5.1663493883950798e-03
5.1999999999999895e+00 +8.5262526076767795e+00 +0.0000000000000000e+00 +5.1999999283709517e+00 -2.7341264050491781e-02 -5.2556307338603303e-01 +5.1676193456353060e-03
5.2499999999999893e+00 +8.5262381582592486e+00 +0.0000000000000000e+00 +5.2499999262830794e+00 -2.7342845788673419e-02 -5.2559216788214391e-01 +5.1688902653068258e-03
5.2999999999999892e+00 +8.5262235702877138e+00 +0.0000000000000000e+00 +5.2999999241549745e+00 -2.7344436749485543e-02 -5.2562146059076520e-01 +5.1701620539542506e-03
5.3499999999999890e+00 +8.5262088437544516e+00 +0.0000000000000000e+00 +5.3499999219862504e+00 -2.7346036993292126e-02 -5.2565094909060206e-01 +5.1714346181217941e-03
5.3999999999999888e+00 +8.5261939786516887e+00 +0.0000000000000000e+00 +5.3999999197765218e+00 -2.7347646580458098e-02 -5.2568063096035755e-01 +5.1727078643532699e-03
5.4499999999999886e+00 +8.5261789749716019e+00 +0.0000000000000000e+00 +5.4499999175254015e+00 -2.7349265571349316e-02 -5.2571050377873207e-01 +5.1739816991920751e-03
5.4999999999999885e+00 +8.5261638327063149e+00 +0.0000000000000000e+00 +5.4999999152325039e+00 -2.7350894026332617e-02 -5.2574056512442358e-01 +5.1752560291811857e-03
5.5499999999999883e+00 +8.5261485518479034e+00 +0.0000000000000000e+00 +5.5499999128974418e+00 -2.7352532005775834e-02 -5.2577081257612635e-01 +5.1765307608631463e-03
5.5999999999999881e+00 +8.5261331323883951e+00 +0.0000000000000000e+00 +5.5999999105198288e+00 -2.7354179570047713e-02 -5.2580124371253179e-01 +5.1778058007800479e-03
5.6499999999999879e+00 +8.5261175743197679e+00 +0.0000000000000000e+00 +5.6499999080992778e+00 -2.7355836779518115e-02 -5.2583185611232763e-01 +5.1790810554735436e-03
5.6999999999999877e+00 +8.5261018776339519e+00 +0.0000000000000000e+00 +5.6999999056354023e+00 -2.7357503694557823e-02 -5.2586264735419785e-01 +5.1803564314848068e-03
5.7499999999999876e+00 +8.5260860423228291e+00 +0.0000000000000000e+00 +5.7499999031278151e+00 -2.7359180375538732e-02 -5.2589361501682308e-01 +5.1816318353545537e-03
5.7999999999999874e+00 +8.5260700683782371e+00 +0.0000000000000000e+00 +5.7999999005761298e+00 -2.7360866882833738e-02 -5.2592475667887906e-01 +5.1829071736230053e-03
5.8499999999999872e+00 +8.5260539557919675e+00 +0.0000000000000000e+00 +5.8499998979799592e+00 -2.7362563276816819e-02 -5.2595606991903721e-01 +5.1841823528298919e-03
5.8999999999999870e+00 +8.5260377045557636e+00 +0.0000000000000000e+00 +5.8999998953389161e+00 -2.7364269617863011e-02 -5.2598755231596483e-01 +5.1854572795144464e-03
