# trajectory
# s[mm] rx[mm] ry[mm] rz[mm] px[rad] py[rad] pz[rad]
0.0000000000000000e+00 +8.3650000000000002e+00 +0.0000000000000000e+00 +0.0000000000000000e+00 +0.0000000000000000e+00 +0.0000000000000000e+00 +1.0000000000000000e+00
-5.0000000000000003e-02 +8.3649999308501126e+00 +0.0000000000000000e+00 -4.9999999999936241e-02 +2.7659964982761180e-06 +0.0000000000000000e+00 +9.9999999999617462e-01
-1.0000000000000001e-01 +8.3649997234002349e+00 +0.0000000000000000e+00 -9.9999999999489941e-02 +5.5319999465265650e-06 +0.0000000000000000e+00 +9.9999999998469846e-01
-1.5000000000000002e-01 +8.3649993776499727e+00 +0.0000000000000000e+00 -1.4999999999827857e-01 +8.2980121268173870e-06 +0.0000000000000000e+00 +9.9999999996557143e-01
-2.0000000000000001e-01 +8.3649988935988464e+00 +0.0000000000000000e+00 -1.9999999999591958e-01 +1.1064034816845382e-05 +0.0000000000000000e+00 +9.9999999993879352e-01
-2.5000000000000000e-01 +8.3649982712462858e+00 +0.0000000000000000e+00 -2.4999999999203040e-01 +1.3830069789938183e-05 +0.0000000000000000e+00 +9.9999999990436450e-01
-2.9999999999999999e-01 +8.3649975105916337e+00 +0.0000000000000000e+00 -2.9999999998622850e-01 +1.6596118815054348e-05 +0.0000000000000000e+00 +9.9999999986228438e-01
-3.4999999999999998e-01 +8.3649966116341421e+00 +0.0000000000000000e+00 -3.4999999997813130e-01 +1.9362183656783434e-05 +0.0000000000000000e+00 +9.9999999981255283e-01
-3.9999999999999997e-01 +8.3649955743729763e+00 +0.0000000000000000e+00 -3.9999999996735625e-01 +2.2128266075346088e-05 +0.0000000000000000e+00 +9.9999999975516984e-01
-4.4999999999999996e-01 +8.3649943988072124e+00 +0.0000000000000000e+00 -4.4999999995352075e-01 +2.4894367826594127e-05 +0.0000000000000000e+00 +9.9999999969013520e-01
-4.9999999999999994e-01 +8.3649930849358416e+00 +0.0000000000000000e+00 -4.9999999993624222e-01 +2.7660490662010617e-05 +0.0000000000000000e+00 +9.9999999961744857e-01
-5.4999999999999993e-01 +8.3649916327577660e+00 +0.0000000000000000e+00 -5.4999999991513804e-01 +3.0426636328709959e-05 +0.0000000000000000e+00 +9.9999999953710983e-01
-5.9999999999999998e-01 +8.3649900422717991e+00 +0.0000000000000000e+00 -5.9999999988982566e-01 +3.3192806569437965e-05 +0.0000000000000000e+00 +9.9999999944911877e-01
-6.5000000000000002e-01 +8.3649883134766707e+00 +0.0000000000000000e+00 -6.4999999985992241e-01 +3.5959003122571943e-05 +0.0000000000000000e+00 +9.9999999935347506e-01
-7.0000000000000007e-01 +8.3649864463710202e+00 +0.0000000000000000e+00 -6.9999999982504568e-01 +3.8725227722120768e-05 +0.0000000000000000e+00 +9.9999999925017835e-01
-7.5000000000000011e-01 +8.3649844409534015e+00 +0.0000000000000000e+00 -7.4999999978481269e-01 +4.1491482097724968e-05 +0.0000000000000000e+00 +9.9999999913922843e-01
-8.0000000000000016e-01 +8.3649822972222854e+00 +0.0000000000000000e+00 -7.9999999973884095e-01 +4.4257767974656802e-05 +0.0000000000000000e+00 +9.9999999902062497e-01
-8.5000000000000020e-01 +8.3649800151760516e+00 +0.0000000000000000e+00 -8.4999999968674766e-01 +4.7024087073820331e-05 +0.0000000000000000e+00 +9.9999999889436764e-01
-9.0000000000000024e-01 +8.3649775948129967e+00 +0.0000000000000000e+00 -8.9999999962815014e-01 +4.9790441111751505e-05 +0.0000000000000000e+00 +9.9999999876045598e-01
-9.5000000000000029e-01 +8.3649750361313302e+00 +0.0000000000000000e+00 -9.4999999956266568e-01 +5.2556831800618235e-05 +0.0000000000000000e+00 +9.9999999861888966e-01
-1.0000000000000002e+00 +8.3649723391291779e+00 +0.0000000000000000e+00 -9.9999999948991147e-01 +5.5323260848220457e-05 +0.0000000000000000e+00 +9.9999999846966836e-01
-1.0500000000000003e+00 +8.3649695038045788e+00 +0.0000000000000000e+00 -1.0499999994095048e+00 +5.8089729957990231e-05 +0.0000000000000000e+00 +9.9999999831279163e-01
-1.1000000000000003e+00 +8.3649665301554865e+00 +0.0000000000000000e+00 -1.0999999993210630e+00 +6.0856240828991794e-05 +0.0000000000000000e+00 +9.9999999814825902e-01
-1.1500000000000004e+00 +8.3649634181797712e+00 +0.0000000000000000e+00 -1.1499999992242032e+00 +6.3622795155921652e-05 +0.0000000000000000e+00 +9.9999999797606998e-01
-1.2000000000000004e+00 +8.3649601678752177e+00 +0.0000000000000000e+00 -1.1999999991185424e+00 +6.6389394629108624e-05 +0.0000000000000000e+00 +9.9999999779622417e-01
-1.2500000000000004e+00 +8.3649567792395274e+00 +0.0000000000000000e+00 -1.2499999990036978e+00 +6.9156040934513957e-05 +0.0000000000000000e+00 +9.9999999760872105e-01
-1.3000000000000005e+00 +8.3649532522703165e+00 +0.0000000000000000e+00 -1.2999999988792867e+00 +7.1922735753731358e-05 +0.0000000000000000e+00 +9.9999999741356005e-01
-1.3500000000000005e+00 +8.3649495869651158e+00 +0.0000000000000000e+00 -1.3499999987449263e+00 +7.4689480763987095e-05 +0.0000000000000000e+00 +9.9999999721074073e-01
-1.4000000000000006e+00 +8.3649457833213745e+00 +0.0000000000000000e+00 -1.3999999986002332e+00 +7.7456277638140056e-05 +0.0000000000000000e+00 +9.9999999700026254e-01
-1.4500000000000006e+00 +8.3649418413364582e+00 +0.0000000000000000e+00 -1.4499999984448249e+00 +8.0223128044681812e-05 +0.0000000000000000e+00 +9.9999999678212492e-01
-1.5000000000000007e+00 +8.3649377610076492e+00 +0.0000000000000000e+00 -1.4999999982783181e+00 +8.2990033647736700e-05 +0.0000000000000000e+00 +9.9999999655632721e-01
-1.5500000000000007e+00 +8.3649335423321460e+00 +0.0000000000000000e+00 -1.5499999981003298e+00 +8.5756996107061876e-05 +0.0000000000000000e+00 +9.9999999632286884e-01
-1.6000000000000008e+00 +8.3649291853070640e+00 +0.0000000000000000e+00 -1.5999999979104773e+00 +8.8524017078047413e-05 +0.0000000000000000e+00 +9.9999999608174928e-01
-1.6500000000000008e+00 +8.3649246899294365e+00 +0.0000000000000000e+00 -1.6499999977083772e+00 +9.1291098211716351e-05 +0.0000000000000000e+00 +9.9999999583296773e-01
-1.7000000000000008e+00 +8.3649200561962136e+00 +0.0000000000000000e+00 -1.6999999974936464e+00 +9.4058241154724743e-05 +0.0000000000000000e+00 +9.9999999557652364e-01
-1.7500000000000009e+00 +8.3649152841042635e+00 +0.0000000000000000e+00 -1.7499999972659017e+00 +9.6825447549361756e-05 +0.0000000000000000e+00 +9.9999999531241635e-01
-1.8000000000000009e+00 +8.3649103736503729e+00 +0.0000000000000000e+00 -1.7999999970247602e+00 +9.9592719033549719e-05 +0.0000000000000000e+00 +9.9999999504064518e-01
-1.8500000000000010e+00 +8.3649053248312466e+00 +0.0000000000000000e+00 -1.8499999967698386e+00 +1.0236005724084420e-04 +0.0000000000000000e+00 +9.9999999476120938e-01
-1.9000000000000010e+00 +8.3649001376435095e+00 +0.0000000000000000e+00 -1.8999999965007535e+00 +1.0512746380043406e-04 +0.0000000000000000e+00 +9.9999999447410826e-01
-1.9500000000000011e+00 +8.3648948120837012e+00 +0.0000000000000000e+00 -1.9499999962171217e+00 +1.0789494033714153e-04 +0.0000000000000000e+00 +9.9999999417934105e-01
-2.0000000000000009e+00 +8.3648893481482833e+00 +0.0000000000000000e+00 -1.9999999959185599e+00 +1.1066248847142227e-04 +0.0000000000000000e+00 +9.9999999387690697e-01
-2.0500000000000007e+00 +8.3648837458336338e+00 +0.0000000000000000e+00 -2.0499999956046846e+00 +1.1343010981913715e-04 +0.0000000000000000e+00 +9.9999999356680525e-01
-2.1000000000000005e+00 +8.3648780051360543e+00 +0.0000000000000000e+00 -2.0999999952751125e+00 +1.1619780598904155e-04 +0.0000000000000000e+00 +9.9999999324903510e-01
-2.1500000000000004e+00 +8.3648721260517611e+00 +0.0000000000000000e+00 -2.1499999949294604e+00 +1.1896557858027460e-04 +0.0000000000000000e+00 +9.9999999292359576e-01
-2.2000000000000002e+00 +8.3648661085768961e+00 +0.0000000000000000e+00 -2.1999999945673445e+00 +1.2173342918213099e-04 +0.0000000000000000e+00 +9.9999999259048633e-01
-2.2500000000000000e+00 +8.3648599527075174e+00 +0.0000000000000000e+00 -2.2499999941883813e+00 +1.2450135937406101e-04 +0.0000000000000000e+00 +9.9999999224970593e-01
-2.2999999999999998e+00 +8.3648536584396069e+00 +0.0000000000000000e+00 -2.2999999937921873e+00 +1.2726937072567057e-04 +0.0000000000000000e+00 +9.9999999190125377e-01
-2.3499999999999996e+00 +8.3648472257690667e+00 +0.0000000000000000e+00 -2.3499999933783791e+00 +1.3003746479672132e-04 +0.0000000000000000e+00 +9.9999999154512897e-01
-2.3999999999999995e+00 +8.3648406546917222e+00 +0.0000000000000000e+00 -2.3999999929465727e+00 +1.3280564313713068e-04 +0.0000000000000000e+00 +9.9999999118133065e-01
-2.4499999999999993e+00 +8.3648339452033227e+00 +0.0000000000000000e+00 -2.4499999924963842e+00 +1.3557390728697187e-04 +0.0000000000000000e+00 +9.9999999080985791e-01
-2.4999999999999991e+00 +8.3648270972995373e+00 +0.0000000000000000e+00 -2.4999999920274303e+00 +1.3834225877647392e-04 +0.0000000000000000e+00 +9.9999999043070975e-01
-2.5499999999999989e+00 +8.3648201109759626e+00 +0.0000000000000000e+00 -2.5499999915393272e+00 +1.4111069912602184e-04 +0.0000000000000000e+00 +9.9999999004388529e-01
-2.5999999999999988e+00 +8.3648129862281184e+00 +0.0000000000000000e+00 -2.5999999910316909e+00 +1.4387922984615653e-04 +0.0000000000000000e+00 +9.9999998964938364e-01
-2.6499999999999986e+00 +8.3648057230514468e+00 +0.0000000000000000e+00 -2.6499999905041376e+00 +1.4664785243757492e-04 +0.0000000000000000e+00 +9.9999998924720368e-01
-2.6999999999999984e+00 +8.3647983214413184e+00 +0.0000000000000000e+00 -2.6999999899562832e+00 +1.4941656839112999e-04 +0.0000000000000000e+00 +9.9999998883734453e-01
-2.7499999999999982e+00 +8.3647907813930278e+00 +0.0000000000000000e+00 -2.7499999893877440e+00 +1.5218537918783076e-04 +0.0000000000000000e+00 +9.9999998841980520e-01
-2.7999999999999980e+00 +8.3647831029017947e+00 +0.0000000000000000e+00 -2.7999999887981359e+00 +1.5495428629884242e-04 +0.0000000000000000e+00 +9.9999998799458456e-01
-2.8499999999999979e+00 +8.3647752859627680e+00 +0.0000000000000000e+00 -2.8499999881870748e+00 +1.5772329118548628e-04 +0.0000000000000000e+00 +9.9999998756168174e-01
-2.8999999999999977e+00 +8.3647673305710217e+00 +0.0000000000000000e+00 -2.8999999875541764e+00 +1.6049239529923994e-04 +0.0000000000000000e+00 +9.9999998712109550e-01
-2.9499999999999975e+00 +8.3647592367215591e+00 +0.0000000000000000e+00 -2.9499999868990563e+00 +1.6326160008173717e-04 +0.0000000000000000e+00 +9.9999998667282497e-01
-2.9999999999999973e+00 +8.3647510044093121e+00 +0.0000000000000000e+00 -2.9999999862213307e+00 +1.6603090696476811e-04 +0.0000000000000000e+00 +9.9999998621686892e-01
-3.0499999999999972e+00 +8.3647426336291382e+00 +0.0000000000000000e+00 -3.0499999855206150e+00 +1.6880031737027916e-04 +0.0000000000000000e+00 +9.9999998575322635e-01
-3.0999999999999970e+00 +8.3647341243758255e+00 +0.0000000000000000e+00 -3.0999999847965252e+00 +1.7156983271037309e-04 +0.0000000000000000e+00 +9.9999998528189615e-01
-3.1499999999999968e+00 +8.3647254766440948e+00 +0.0000000000000000e+00 -3.1499999840486765e+00 +1.7433945438730911e-04 +0.0000000000000000e+00 +9.9999998480287722e-01
-3.1999999999999966e+00 +8.3647166904285921e+00 +0.0000000000000000e+00 -3.1999999832766846e+00 +1.7710918379350282e-04 +0.0000000000000000e+00 +9.9999998431616843e-01
-3.2499999999999964e+00 +8.3647077657238977e+00 +0.0000000000000000e+00 -3.2499999824801651e+00 +1.7987902231152633e-04 +0.0000000000000000e+00 +9.9999998382176858e-01
-3.2999999999999963e+00 +8.3646987025245210e+00 +0.0000000000000000e+00 -3.2999999816587331e+00 +1.8264897131410821e-04 +0.0000000000000000e+00 +9.9999998331967654e-01
-3.3499999999999961e+00 +8.3646895008249036e+00 +0.0000000000000000e+00 -3.3499999808120045e+00 +1.8541903216413362e-04 +0.0000000000000000e+00 +9.9999998280989111e-01
-3.3999999999999959e+00 +8.3646801606194181e+00 +0.0000000000000000e+00 -3.3999999799395941e+00 +1.8818920621464419e-04 +0.0000000000000000e+00 +9.9999998229241116e-01
-3.4499999999999957e+00 +8.3646706819023731e+00 +0.0000000000000000e+00 -3.4499999790411175e+00 +1.9095949480883826e-04 +0.0000000000000000e+00 +9.9999998176723548e-01
-3.4999999999999956e+00 +8.3646610646680060e+00 +0.0000000000000000e+00 -3.4999999781161897e+00 +1.9372989928007070e-04 +0.0000000000000000e+00 +9.9999998123436284e-01
-3.5499999999999954e+00 +8.3646513089104904e+00 +0.0000000000000000e+00 -3.5499999771644255e+00 +1.9650042095185308e-04 +0.0000000000000000e+00 +9.9999998069379203e-01
-3.5999999999999952e+00 +8.3646414146239341e+00 +0.0000000000000000e+00 -3.5999999761854404e+00 +1.9927106113785362e-04 +0.0000000000000000e+00 +9.9999998014552183e-01
-3.6499999999999950e+00 +8.3646313818023792e+00 +0.0000000000000000e+00 -3.6499999751788494e+00 +2.0204182114189726e-04 +0.0000000000000000e+00 +9.9999997958955100e-01
-3.6999999999999948e+00 +8.3646212104398021e+00 +0.0000000000000000e+00 -3.6999999741442671e+00 +2.0481270225796569e-04 +0.0000000000000000e+00 +9.9999997902587823e-01
-3.7499999999999947e+00 +8.3646109005301135e+00 +0.0000000000000000e+00 -3.7499999730813087e+00 +2.0758370577019728e-04 +0.0000000000000000e+00 +9.9999997845450228e-01
-3.7999999999999945e+00 +8.3646004520671635e+00 +0.0000000000000000e+00 -3.7999999719895889e+00 +2.1035483295288727e-04 +0.0000000000000000e+00 +9.9999997787542183e-01
-3.8499999999999943e+00 +8.3645898650447368e+00 +0.0000000000000000e+00 -3.8499999708687227e+00 +2.1312608507048761e-04 +0.0000000000000000e+00 +9.9999997728863566e-01
-3.8999999999999941e+00 +8.3645791394565538e+00 +0.0000000000000000e+00 -3.8999999697183241e+00 +2.1589746337760711e-04 +0.0000000000000000e+00 +9.9999997669414231e-01
-3.9499999999999940e+00 +8.3645682752962749e+00 +0.0000000000000000e+00 -3.9499999685380081e+00 +2.1866896911901145e-04 +0.0000000000000000e+00 +9.9999997609194058e-01
-3.9999999999999938e+00 +8.3645572725574979e+00 +0.0000000000000000e+00 -3.9999999673273896e+00 +2.2144060352962311e-04 +0.0000000000000000e+00 +9.9999997548202912e-01
-4.0499999999999936e+00 +8.3645461312337570e+00 +0.0000000000000000e+00 -4.0499999660860828e+00 +2.2421236783436212e-04 +0.0000000000000000e+00 +9.9999997486440662e-01
-4.0999999999999934e+00 +8.3645348513185294e+00 +0.0000000000000000e+00 -4.0999999648137022e+00 +2.2698426324639306e-04 +0.0000000000000000e+00 +9.9999997423907161e-01
-4.1499999999999932e+00 +8.3645234328052283e+00 +0.0000000000000000e+00 -4.1499999635098614e+00 +2.2975629096537225e-04 +0.0000000000000000e+00 +9.9999997360602288e-01
-4.1999999999999931e+00 +8.3645118756872083e+00 +0.0000000000000000e+00 -4.1999999621741759e+00 +2.3252845217728825e-04 +0.0000000000000000e+00 +9.9999997296525900e-01
-4.2499999999999929e+00 +8.3645001799577656e+00 +0.0000000000000000e+00 -4.2499999608062593e+00 +2.3530074805446196e-04 +0.0000000000000000e+00 +9.9999997231677851e-01
-4.2999999999999927e+00 +8.3644883456101393e+00 +0.0000000000000000e+00 -4.2999999594057252e+00 +2.3807317975554657e-04 +0.0000000000000000e+00 +9.9999997166058008e-01
-4.3499999999999925e+00 +8.3644763726375082e+00 +0.0000000000000000e+00 -4.3499999579721882e+00 +2.4084574842552766e-04 +0.0000000000000000e+00 +9.9999997099666227e-01
-4.3999999999999924e+00 +8.3644642610329960e+00 +0.0000000000000000e+00 -4.3999999565052628e+00 +2.4361845519572307e-04 +0.0000000000000000e+00 +9.9999997032502363e-01
-4.4499999999999922e+00 +8.3644520107896696e+00 +0.0000000000000000e+00 -4.4499999550045617e+00 +2.4639130118378298e-04 +0.0000000000000000e+00 +9.9999996964566285e-01
-4.4999999999999920e+00 +8.3644396219005390e+00 +0.0000000000000000e+00 -4.4999999534696995e+00 +2.4916428749368989e-04 +0.0000000000000000e+00 +9.9999996895857834e-01
-4.5499999999999918e+00 +8.3644270943585628e+00 +0.0000000000000000e+00 -4.5499999519002907e+00 +2.5193741521575868e-04 +0.0000000000000000e+00 +9.9999996826376880e-01
-4.5999999999999917e+00 +8.3644144281566426e+00 +0.0000000000000000e+00 -4.5999999502959481e+00 +2.5471068542663646e-04 +0.0000000000000000e+00 +9.9999996756123277e-01
-4.6499999999999915e+00 +8.3644016232876268e+00 +0.0000000000000000e+00 -4.6499999486562853e+00 +2.5748409918930265e-04 +0.0000000000000000e+00 +9.9999996685096870e-01
-4.6999999999999913e+00 +8.3643886797443123e+00 +0.0000000000000000e+00 -4.6999999469809159e+00 +2.6025765755306908e-04 +0.0000000000000000e+00 +9.9999996613297515e-01
-4.7499999999999911e+00 +8.3643755975194445e+00 +0.0000000000000000e+00 -4.7499999452694537e+00 +2.6303136155357977e-04 +0.0000000000000000e+00 +9.9999996540725067e-01
-4.7999999999999909e+00 +8.3643623766057136e+00 +0.0000000000000000e+00 -4.7999999435215122e+00 +2.6580521221281111e-04 +0.0000000000000000e+00 +9.9999996467379382e-01
-4.8499999999999908e+00 +8.3643490169957619e+00 +0.0000000000000000e+00 -4.8499999417367041e+00 +2.6857921053907171e-04 +0.0000000000000000e+00 +9.9999996393260304e-01
-4.8999999999999906e+00 +8.3643355186821822e+00 +0.0000000000000000e+00 -4.8999999399146432e+00 +2.7135335752700247e-04 +0.0000000000000000e+00 +9.9999996318367690e-01
-4.9499999999999904e+00 +8.3643218816575153e+00 +0.0000000000000000e+00 -4.9499999380549431e+00 +2.7412765415757656e-04 +0.0000000000000000e+00 +9.9999996242701383e-01
-4.9999999999999902e+00 +8.3643081059142563e+00 +0.0000000000000000e+00 -4.9999999361572156e+00 +2.7690210139809943e-04 +0.0000000000000000e+00 +9.9999996166261229e-01
-5.0499999999999901e+00 +8.3642941914448503e+00 +0.0000000000000000e+00 -5.0499999342210753e+00 +2.7967670020220863e-04 +0.0000000000000000e+00 +9.9999996089047083e-01
-5.0999999999999899e+00 +8.3642801382416945e+00 +0.0000000000000000e+00 -5.0999999322461340e+00 +2.8245145150987411e-04 +0.0000000000000000e+00 +9.9999996011058789e-01
-5.1499999999999897e+00 +8.3642659462971416e+00 +0.0000000000000000e+00 -5.1499999302320054e+00 +2.8522635624739787e-04 +0.0000000000000000e+00 +9.9999995932296193e-01
-5.1999999999999895e+00 +8.3642516156034965e+00 +0.0000000000000000e+00 -5.1999999281783014e+00 +2.8800141532741414e-04 +0.0000000000000000e+00 +9.9999995852759138e-01
-5.2499999999999893e+00 +8.3642371461530214e+00 +0.0000000000000000e+00 -5.2499999260846355e+00 +2.9077662964888931e-04 +0.0000000000000000e+00 +9.9999995772447481e-01
-5.2999999999999892e+00 +8.3642225379379305e+00 +0.0000000000000000e+00 -5.2999999239506197e+00 +2.9355200009712195e-04 +0.0000000000000000e+00 +9.9999995691361054e-01
-5.3499999999999890e+00 +8.3642077909503953e+00 +0.0000000000000000e+00 -5.3499999217758676e+00 +2.9632752754374261e-04 +0.0000000000000000e+00 +9.9999995609499714e-01
-5.3999999999999888e+00 +8.3641929051825450e+00 +0.0000000000000000e+00 -5.3999999195599910e+00 +2.9910321284671410e-04 +0.0000000000000000e+00 +9.9999995526863295e-01
-5.4499999999999886e+00 +8.3641778806264657e+00 +0.0000000000000000e+00 -5.4499999173026019e+00 +3.0187905685033121e-04 +0.0000000000000000e+00 +9.9999995443451639e-01
-5.4999999999999885e+00 +8.3641627172742012e+00 +0.0000000000000000e+00 -5.4999999150033130e+00 +3.0465506038522078e-04 +0.0000000000000000e+00 +9.9999995359264593e-01
-5.5499999999999883e+00 +8.3641474151177544e+00 +0.0000000000000000e+00 -5.5499999126617370e+00 +3.0743122426834163e-04 +0.0000000000000000e+00 +9.9999995274302000e-01
-5.5999999999999881e+00 +8.3641319741490889e+00 +0.0000000000000000e+00 -5.5999999102774858e+00 +3.1020754930298467e-04 +0.0000000000000000e+00 +9.9999995188563695e-01
-5.6499999999999879e+00 +8.3641163943601260e+00 +0.0000000000000000e+00 -5.6499999078501713e+00 +3.1298403627877267e-04 +0.0000000000000000e+00 +9.9999995102049521e-01
-5.6999999999999877e+00 +8.3641006757427494e+00 +0.0000000000000000e+00 -5.6999999053794062e+00 +3.1576068597166033e-04 +0.0000000000000000e+00 +9.9999995014759324e-01
-5.7499999999999876e+00 +8.3640848182888039e+00 +0.0000000000000000e+00 -5.7499999028648014e+00 +3.1853749914393433e-04 +0.0000000000000000e+00 +9.9999994926692937e-01
-5.7999999999999874e+00 +8.3640688219900969e+00 +0.0000000000000000e+00 -5.7999999003059699e+00 +3.2131447654421306e-04 +0.0000000000000000e+00 +9.9999994837850203e-01
-5.8499999999999872e+00 +8.3640526868383986e+00 +0.0000000000000000e+00 -5.8499998977025225e+00 +3.2409161890744692e-04 +0.0000000000000000e+00 +9.9999994748230969e-01
