# multipoles
# s[mm] polynom_b[n=0][T/m^n] polynom_b[n=1][T/m^n] polynom_b[n=2][T/m^n] polynom_b[n=3][T/m^n] polynom_b[n=4][T/m^n] polynom_b[n=5][T/m^n] polynom_b[n=6][T/m^n] 
+0.0000000000000000e+00 -5.2476260620896642e-01 +6.8607020045864298e+00 +5.2305746383505847e+00 -7.7746114631406243e+01 +9.1901859505400387e+02 +2.1534888127908111e+05 +2.4433461496338276e+06 
-5.0000000000000003e-02 -5.2476276224394658e-01 +6.8607164170387307e+00 +5.2277159362995791e+00 -7.7732445778920592e+01 +9.7044556371181011e+02 +2.1416160246915545e+05 +2.1851540743945329e+06 
-1.0000000000000001e-01 -5.2476329596160720e-01 +6.8607502465782284e+00 +5.2248140593718926e+00 -7.7709577780957360e+01 +1.0125843215065576e+03 +2.1300982647978902e+05 +1.9823802791822073e+06 
-1.5000000000000002e-01 -5.2476420647428157e-01 +6.8608034434264962e+00 +5.2218559247092395e+00 -7.7677027310581508e+01 +1.0457765092417544e+03 +2.1188774299209972e+05 +1.8329344260505943e+06 
-2.0000000000000001e-01 -5.2476549289428298e-01 +6.8608759578058951e+00 +5.2188284430968048e+00 -7.7634311051901946e+01 +1.0703639360960099e+03 +2.1078954180586876e+05 +1.7347250477526120e+06 
-2.5000000000000000e-01 -5.2476715433396193e-01 +6.8609677399387463e+00 +5.2157185291124337e+00 -7.7580945651746845e+01 +1.0866883067026267e+03 +2.0970941237652078e+05 +1.6856613898826344e+06 
-2.9999999999999999e-01 -5.2476918990568200e-01 +6.8610787400476534e+00 +5.2125130959850425e+00 -7.7516447749755656e+01 +1.0950913672273507e+03 +2.0864154415003699e+05 +1.6836523969273309e+06 
-3.4999999999999998e-01 -5.2477159872181611e-01 +6.8612089083548309e+00 +5.2091990567580098e+00 -7.7440333936147795e+01 +1.0959148600932606e+03 +2.0758012613629334e+05 +1.7266070654525550e+06 
-3.9999999999999997e-01 -5.2477437989476516e-01 +6.8613581950842875e+00 +5.2057633255797580e+00 -7.7352120850600770e+01 +1.0895005022093860e+03 +2.0651934776554169e+05 +1.8124345510199091e+06 
-4.4999999999999996e-01 -5.2477753253693682e-01 +6.8615265504596170e+00 +5.2021928150375398e+00 -7.7251325086339179e+01 +1.0761900515900172e+03 +2.0545339808280507e+05 +1.9390437310909249e+06 
-4.9999999999999994e-01 -5.2478105576075706e-01 +6.8617139247057342e+00 +5.1984744386500017e+00 -7.7137463268848876e+01 +1.0563252369019260e+03 +2.0437646642329873e+05 +2.1043436940709734e+06 
-5.4999999999999993e-01 -5.2478494867867420e-01 +6.8619202680426037e+00 +5.1945951101496446e+00 -7.7010051786337314e+01 +1.0302477842955664e+03 +2.0328274013859843e+05 +2.3062435344013125e+06 
-5.9999999999999998e-01 -5.2478921040314108e-01 +6.8621455306989496e+00 +5.1905417416207031e+00 -7.6868607363312293e+01 +9.9829946192529292e+02 +2.0216640936163641e+05 +2.5426520685475897e+06 
-6.5000000000000002e-01 -5.2479384004663410e-01 +6.8623896628998891e+00 +5.1863012466211043e+00 -7.6712646555538242e+01 +9.6082199503222466e+02 +2.0102166286674715e+05 +2.8114784139892431e+06 
-7.0000000000000007e-01 -5.2479883672165761e-01 +6.8626526148694680e+00 +5.1818605402943536e+00 -7.6541685844073285e+01 +9.1815706895073379e+02 +1.9984268879915128e+05 +3.1106319460056862e+06 
-7.5000000000000011e-01 -5.2480419954070889e-01 +6.8629343368349964e+00 +5.1772065340422673e+00 -7.6355241818054964e+01 +8.7064646730528341e+02 +1.9862367618984109e+05 +3.4380213846319229e+06 
-8.0000000000000016e-01 -5.2480992761630851e-01 +6.8632347790225543e+00 +5.1723261403927561e+00 -7.6152830984832676e+01 +8.1863194279225775e+02 +1.9735881338738161e+05 +3.7915556596359177e+06 
-8.5000000000000020e-01 -5.2481602006100359e-01 +6.8635538916587189e+00 +5.1672062735146485e+00 -7.5933969863714196e+01 +7.6245520560625346e+02 +1.9604228890658633e+05 +4.1691439798862110e+06 
-9.0000000000000024e-01 -5.2482247598734100e-01 +6.8638916249729665e+00 +5.1618338452858499e+00 -7.5698175043909572e+01 +7.0245801992317399e+02 +1.9466829174864851e+05 +4.5686952206625352e+06 
-9.5000000000000029e-01 -5.2482929450789784e-01 +6.8642479291922696e+00 +5.1561957694182770e+00 -7.5444963005375214e+01 +6.3898210880674014e+02 +1.9323101008818517e+05 +4.9881185002668807e+06 
-1.0000000000000002e+00 -5.2483647473525907e-01 +6.8646227545468594e+00 +5.1502789588193325e+00 -7.5173850330110781e+01 +5.7236920901830842e+02 +1.9172463292605479e+05 +5.4253228757710308e+06 
-1.0500000000000003e+00 -5.2484401578201934e-01 +6.8650160512654734e+00 +5.1440703248084381e+00 -7.4884353514262514e+01 +5.0296110311541639e+02 +1.9014334855755005e+05 +5.8782170827067904e+06 
-1.1000000000000003e+00 -5.2485191676079934e-01 +6.8654277695782069e+00 +5.1375567807057214e+00 -7.4575989086278597e+01 +4.3109952044063971e+02 +1.8848134555160438e+05 +6.3447102125775525e+06 
-1.1500000000000004e+00 -5.2486017678424335e-01 +6.8658578597171598e+00 +5.1307252413176725e+00 -7.4248273629157865e+01 +3.5712614301306689e+02 +1.8673281292189678e+05 +6.8227117068271330e+06 
-1.2000000000000004e+00 -5.2486879496496996e-01 +6.8663062719129320e+00 +5.1235626139666071e+00 -7.3900723643044714e+01 +2.8138286213679845e+02 +1.8489193901416924e+05 +7.3101295612546084e+06 
-1.2500000000000004e+00 -5.2487777041566597e-01 +6.8667729563986457e+00 +5.1160558151610518e+00 -7.3532855704867060e+01 +2.0421131682768933e+02 +1.8295291279663818e+05 +7.8048734960772507e+06 
-1.3000000000000005e+00 -5.2488710224900104e-01 +6.8672578634074206e+00 +5.1081917561513634e+00 -7.3144186372281141e+01 +1.2595328552061164e+02 +1.8090992311315125e+05 +8.3048522970225047e+06 
-1.3500000000000005e+00 -5.2489678957766528e-01 +6.8677609431717075e+00 +5.0999573484968890e+00 -7.2734232147437822e+01 +4.6950539444082693e+01 +1.7875715833178026e+05 +8.8079747978103422e+06 
-1.4000000000000006e+00 -5.2490683151436102e-01 +6.8682821459286796e+00 +5.0913395032585136e+00 -7.2302509705162947e+01 -3.2455135006833856e+01 +1.7648880825695937e+05 +9.3121497205657307e+06 
-1.4500000000000006e+00 -5.2491722717182010e-01 +6.8688214219129256e+00 +5.0823251342374220e+00 -7.1848535585985729e+01 -1.1192202996401174e+02 +1.7409906157337569e+05 +9.8152863391044997e+06 
-1.5000000000000007e+00 -5.2492797566276483e-01 +6.8693787213617004e+00 +5.0729011505475077e+00 -7.1371826422273188e+01 -1.9110830821358044e+02 +1.7158210775233887e+05 +1.0315293040532280e+07 
-1.5500000000000007e+00 -5.2493907609996182e-01 +6.8699539945109418e+00 +5.0630544668876869e+00 -7.0871898770611864e+01 -2.6967228845455179e+02 +1.6893213565384661e+05 +1.0810079287557786e+07 
-1.6000000000000008e+00 -5.2495052759615968e-01 +6.8705471915992966e+00 +5.0527719915463418e+00 -7.0348269266456398e+01 -3.4727211299126844e+02 +1.6614333475041654e+05 +1.1297553340988973e+07 
-1.6500000000000008e+00 -5.2496232926414410e-01 +6.8711582628666319e+00 +5.0420406366778439e+00 -6.9800454580531493e+01 -4.2356602790198758e+02 +1.6320989483824628e+05 +1.1775624159727527e+07 
-1.7000000000000008e+00 -5.2497448021671389e-01 +6.8717871585539934e+00 +5.0308473142198951e+00 -6.9227971408774380e+01 -4.9821227499043533e+02 +1.6012600593717612e+05 +1.2242200681677096e+07 
-1.7500000000000009e+00 -5.2498697956667362e-01 +6.8724338288996192e+00 +5.0191789349131781e+00 -6.8630336308766857e+01 -5.7086907042116547e+02 +1.5688585692168050e+05 +1.2695191699151620e+07 
-1.8000000000000009e+00 -5.2499982642684129e-01 +6.8730982241484480e+00 +5.0070224086001156e+00 -6.8007066086571385e+01 -6.4119459950639111e+02 +1.5348363870313909e+05 +1.3132505772393189e+07 
-1.8500000000000010e+00 -5.2501301991006144e-01 +6.8737802945419659e+00 +4.9943646472378367e+00 -6.7357677391623497e+01 -7.0884710502018095e+02 +1.4991354093602515e+05 +1.3552051852430951e+07 
-1.9000000000000010e+00 -5.2502655912918295e-01 +6.8744799903253213e+00 +4.9811925610587569e+00 -6.6681686996609002e+01 -7.7348478813480710e+02 +1.4616975427671985e+05 +1.3951738632199779e+07 
-1.9500000000000011e+00 -5.2504044319705045e-01 +6.8751972617428674e+00 +4.9674930568040114e+00 -6.5978611624660516e+01 -8.3476575317477580e+02 +1.4224646900012877e+05 +1.4329474140866695e+07 
-2.0000000000000009e+00 -5.2505467122657290e-01 +6.8759320590423165e+00 +4.9532530500246486e+00 -6.5247968106035557e+01 -8.9234834258687044e+02 +1.3813787623590190e+05 +1.4683168019750634e+07 
-2.0500000000000007e+00 -5.2506924215483664e-01 +6.8766843224955831e+00 +4.9384628868919620e+00 -6.4489608922460050e+01 -9.4595993656975656e+02 +1.3384105353307773e+05 +1.5011158332597334e+07 
-2.1000000000000005e+00 -5.2508415421651178e-01 +6.8774539467833620e+00 +4.9231270975610677e+00 -6.3704732412216813e+01 -9.9560017393894486e+02 +1.2936455395576943e+05 +1.5313455373796055e+07 
-2.1500000000000004e+00 -5.2509940547082889e-01 +6.8782408137791693e+00 +4.9072538714522027e+00 -6.2894875705225431e+01 -1.0413354872502930e+03 +1.2471978851235801e+05 +1.5590475357650766e+07 
-2.2000000000000002e+00 -5.2511499397703076e-01 +6.8790448053522413e+00 +4.8908513963676441e+00 -6.2061575740586285e+01 -1.0832322483912424e+03 +1.1991816661033231e+05 +1.5842634026518853e+07 
-2.2500000000000000e+00 -5.2513091779437915e-01 +6.8798658033755098e+00 +4.8739278629567737e+00 -6.1206369600766443e+01 -1.1213569209110713e+03 +1.1497109886002066e+05 +1.6070347796522051e+07 
-2.2999999999999998e+00 -5.2514717498212671e-01 +6.8807036897204483e+00 +4.8564914577633322e+00 -6.0330794296493373e+01 -1.1557758518910182e+03 +1.0988999529350962e+05 +1.6274032273200402e+07 
-2.3499999999999996e+00 -5.2516376359956807e-01 +6.8815583462607801e+00 +4.8385503721896992e+00 -5.9436386913261501e+01 -1.1865555136530793e+03 +1.0468626654716922e+05 +1.6454103884726707e+07 
-2.3999999999999995e+00 -5.2518068170599186e-01 +6.8824296548676820e+00 +4.8201127955151062e+00 -5.8524684427421938e+01 -1.2137623297839068e+03 +9.9371322385262727e+04 +1.6610978761294825e+07 
-2.4499999999999993e+00 -5.2519792736069715e-01 +6.8833174974161926e+00 +4.8011869161790841e+00 -5.7597223957763894e+01 -1.2374626932671104e+03 +9.3956573733101977e+04 +1.6745072794342967e+07 
-2.4999999999999991e+00 -5.2521549862299988e-01 +6.8842217557790377e+00 +4.7817809242696221e+00 -5.6655542521023342e+01 -1.2577230433396778e+03 +8.8453430693896371e+04 +1.6856802190578789e+07 
-2.5499999999999989e+00 -5.2523339355223042e-01 +6.8851423118292914e+00 +4.7619030104787887e+00 -5.5701177132947116e+01 -1.2746098375944669e+03 +8.2873303353895782e+04 +1.6946583289655570e+07 
-2.5999999999999988e+00 -5.2525161020772104e-01 +6.8860790474436291e+00 +4.7415613636943537e+00 -5.4735664955657811e+01 -1.2881894780482660e+03 +7.7227603035679509e+04 +1.7014832025549870e+07 
-2.6499999999999986e+00 -5.2527014664880445e-01 +6.8870318444946177e+00 +4.7207641713502486e+00 -5.3760542968515949e+01 -1.2985283304022259e+03 +7.1527739537003814e+04 +1.7061964096025418e+07 
-2.6999999999999984e+00 -5.2528900093487296e-01 +6.8880005848572559e+00 +4.6995196297973285e+00 -5.2777348241736469e+01 -1.3056930004899755e+03 +6.5785123422802266e+04 +1.7088396818311971e+07 
-2.7499999999999982e+00 -5.2530817112526673e-01 +6.8889851504070236e+00 +4.6778359244137055e+00 -5.1787617864683419e+01 -1.3097497968094574e+03 +6.0011165432872796e+04 +1.7094545492767274e+07 
-2.7999999999999980e+00 -5.2532765527938341e-01 +6.8899854230190947e+00 +4.6557212488256212e+00 -5.0792888899486613e+01 -1.3107652458003877e+03 +5.4217276067670013e+04 +1.7080826871267926e+07 
-2.8499999999999979e+00 -5.2534745145659933e-01 +6.8910012845695947e+00 +4.6331837916504712e+00 -4.9794698447593433e+01 -1.3088057427550079e+03 +4.8414866181920122e+04 +1.7047656834185455e+07 
-2.8999999999999977e+00 -5.2536755771631549e-01 +6.8920326169318047e+00 +4.6102317440021734e+00 -4.8794583482210896e+01 -1.3039377440521098e+03 +4.2615345561854840e+04 +1.6995451645502448e+07 
-2.9499999999999975e+00 -5.2538797211795341e-01 +6.8930793019845167e+00 +4.5868732992657861e+00 -4.7794081200730481e+01 -1.2962277716275223e+03 +3.6830125854568287e+04 +1.6924628030388445e+07 
-2.9999999999999973e+00 -5.2540869272091695e-01 +6.8941412216010596e+00 +4.5631166459769767e+00 -4.6794728574256951e+01 -1.2857422093025311e+03 +3.1070616863700965e+04 +1.6835601744042471e+07 
-3.0499999999999972e+00 -5.2542971758464629e-01 +6.8952182576604590e+00 +4.5389699779693045e+00 -4.5798062795158067e+01 -1.2725475880531910e+03 +2.5348230183836698e+04 +1.6728789554220319e+07 
-3.0999999999999970e+00 -5.2545104476857907e-01 +6.8963102920359640e+00 +4.5144414865701776e+00 -4.4805620822391091e+01 -1.2567103639670090e+03 +1.9674375530177611e+04 +1.6604607690532809e+07 
-3.1499999999999968e+00 -5.2547267233216333e-01 +6.8974172066057235e+00 +4.4895393643258812e+00 -4.3818939814860407e+01 -1.2382970312475975e+03 +1.4060464277901208e+04 +1.6463472656656081e+07 
-3.1999999999999966e+00 -5.2549459833485701e-01 +6.8985388832455659e+00 +4.4642718035277174e+00 -4.2839556827509114e+01 -1.2173740681390657e+03 +8.5179069171899700e+03 +1.6305800808656393e+07 
-3.2499999999999964e+00 -5.2551682083612428e-01 +6.8996752038312383e+00 +4.4386469967103759e+00 -4.1869008915188701e+01 -1.1940079646192648e+03 +3.0581139763118354e+03 +1.6132008601536086e+07 
-3.2999999999999963e+00 -5.2553933789544405e-01 +6.9008260502407435e+00 +4.4126731373559682e+00 -4.0908833219640393e+01 -1.1682652307697788e+03 -2.3075033138157210e+03 +1.5942512601535441e+07 
-3.3499999999999961e+00 -5.2556214757230080e-01 +6.9019913043493784e+00 +4.3863584189169504e+00 -3.9960566773498670e+01 -1.1402123744389221e+03 -7.5675346092782784e+03 +1.5737729347911399e+07 
-3.3999999999999959e+00 -5.2558524792618766e-01 +6.9031708480340477e+00 +4.3597110352056685e+00 -3.9025746683025062e+01 -1.1099159141910682e+03 -1.2710568916754411e+04 +1.5518075456812179e+07 
-3.4499999999999957e+00 -5.2560863701660288e-01 +6.9043645631712671e+00 +4.3327391791518330e+00 -3.8105910024306070e+01 -1.0774423354707058e+03 -1.7725195543900922e+04 +1.5283967278470296e+07 
-3.4999999999999956e+00 -5.2563231290306667e-01 +6.9055723316366500e+00 +4.3054510475679004e+00 -3.7202593844055720e+01 -1.0428582379707434e+03 -2.2600004005407547e+04 +1.5035821968423730e+07 
-3.5499999999999954e+00 -5.2565627364508138e-01 +6.9067940353087227e+00 +4.2778548319662022e+00 -3.6317335318186231e+01 -1.0062300669721280e+03 -2.7323582718102756e+04 +1.4774055591596853e+07 
-3.5999999999999952e+00 -5.2568051730218934e-01 +6.9080295560616909e+00 +4.2499587303565685e+00 -3.5451671432836697e+01 -9.6762444504585608e+02 -3.1884521705919804e+04 +1.4499085414669836e+07 
-3.6499999999999950e+00 -5.2570504193391387e-01 +6.9092787757733065e+00 +4.2217709360218718e+00 -3.4607139335616104e+01 -9.2710786195407320e+02 -3.6271409608874259e+04 +1.4211327782639703e+07 
-3.6999999999999948e+00 -5.2572984559981073e-01 +6.9105415763188480e+00 +4.1932996475324726e+00 -3.3785276068136568e+01 -8.8474695331886687e+02 -4.0472835961881145e+04 +1.3911200033340912e+07 
-3.7499999999999947e+00 -5.2575492635941368e-01 +6.9118178395748204e+00 +4.1645530581351453e+00 -3.2987618736524581e+01 -8.4060820584665964e+02 -4.4477389716160818e+04 +1.3599118477562530e+07 
-3.7999999999999945e+00 -5.2578028227228879e-01 +6.9131074474174481e+00 +4.1355393659934254e+00 -3.2215704421832228e+01 -7.9475823443929210e+02 -4.8273660102852635e+04 +1.3275500264824677e+07 
-3.8499999999999943e+00 -5.2580591139799548e-01 +6.9144102817208388e+00 +4.1062667673475701e+00 -3.1471070145277803e+01 -7.4726360473186230e+02 -5.1850236743570065e+04 +1.2940762223700160e+07 
-3.8999999999999941e+00 -5.2583181179611793e-01 +6.9157262243628077e+00 +4.0767434616233480e+00 -3.0755253066622227e+01 -6.9819095971509694e+02 -5.5195708191542290e+04 +1.2595321664224140e+07 
-3.9499999999999940e+00 -5.2585798152621521e-01 +6.9170551572170211e+00 +4.0469776434849543e+00 -3.0069790197996170e+01 -6.4760681789440810e+02 -5.8298664144020702e+04 +1.2239595067313466e+07 
-3.9999999999999938e+00 -5.2588441864789082e-01 +6.9183969621592398e+00 +4.0169775142349211e+00 -2.9416218626284650e+01 -5.9557786860221483e+02 -6.1147693689011045e+04 +1.1874000036018981e+07 
-4.0499999999999936e+00 -5.2591112109511096e-01 +6.9197515096274982e+00 +3.9867514010579499e+00 -2.8795702020635105e+01 -5.4217262516739322e+02 -6.3734292556319670e+04 +1.1498956274407396e+07 
-4.0999999999999934e+00 -5.2593808629854655e-01 +6.9211186175538737e+00 +3.9563086341274927e+00 -2.8207912765038337e+01 -4.8748224031680650e+02 -6.6061541416054053e+04 +1.1115014398385225e+07 
-4.1499999999999932e+00 -5.2596531156281179e-01 +6.9224980890127661e+00 +3.9256589331673259e+00 -2.7652149500553804e+01 -4.3160714203479102e+02 -6.8135424754389416e+04 +1.0722786842704680e+07 
-4.1999999999999931e+00 -5.2599279419254219e-01 +6.9238897270835169e+00 +3.8948120217180682e+00 -2.7127711081518378e+01 -3.7464786446946448e+02 -6.9961925371588819e+04 +1.0322886780769162e+07 
-4.2499999999999929e+00 -5.2602053149236028e-01 +6.9252933348420020e+00 +3.8637776206318253e+00 -2.6633896235929754e+01 -3.1670486680266526e+02 -7.1547027071041914e+04 +9.9159268691792749e+06 
-4.2999999999999927e+00 -5.2604852076690889e-01 +6.9267087153615758e+00 +3.8325654541021259e+00 -2.6170003586838579e+01 -2.5787869919385997e+02 -7.2896714558908803e+04 +9.5025203853231166e+06 
-4.3499999999999925e+00 -5.2607675932079967e-01 +6.9281356717207867e+00 +3.8011852404059843e+00 -2.5735331989515959e+01 -1.9826975285986026e+02 -7.4016970596148501e+04 +9.0832795382134374e+06 
-4.3999999999999924e+00 -5.2610524445868034e-01 +6.9295740069927225e+00 +3.7696467039559631e+00 -2.5329180081089660e+01 -1.3797858110964933e+02 -7.4913779746700879e+04 +8.6588176182149388e+06 
-4.4499999999999922e+00 -5.2613397348517699e-01 +6.9310235242509792e+00 +3.7379595658678650e+00 -2.4950846532983302e+01 -7.7105656034825799e+01 -7.5593126273572037e+04 +8.2297474000276458e+06 
-4.4999999999999920e+00 -5.2616294370491989e-01 +6.9324840265700702e+00 +3.7061335470226413e+00 -2.4599630059105518e+01 -1.5751434757654081e+01 -7.6060994117404291e+04 +7.7966815240052640e+06 
-4.5499999999999918e+00 -5.2619215242254369e-01 +6.9339553170223409e+00 +3.6741783699035175e+00 -2.4274829301593520e+01 +4.5983573822375206e+01 -7.6323367783834154e+04 +7.3602330156588573e+06 
-4.5999999999999917e+00 -5.2622159694268544e-01 +6.9354371986801580e+00 +3.6421037568755712e+00 -2.3975742918720169e+01 +1.0799886837434100e+02 -7.6386231635471500e+04 +6.9210148360786252e+06 
-4.6499999999999915e+00 -5.2625127456996268e-01 +6.9369294746155346e+00 +3.6099194268621821e+00 -2.3701669562715981e+01 +1.7019404246853099e+02 -7.6255570091973888e+04 +6.4796392968442338e+06 
-4.6999999999999913e+00 -5.2628118260901857e-01 +6.9384319478997414e+00 +3.5776351038420966e+00 -2.3451907866645808e+01 +2.3246854581787741e+02 -7.5937367741244845e+04 +6.0367197152474802e+06 
-4.7499999999999911e+00 -5.2631131836447342e-01 +6.9399444216031529e+00 +3.5452605077661730e+00 -2.3225756443340227e+01 +2.9472194064555731e+02 -7.5437609323274475e+04 +5.5928686330907959e+06 
-4.7999999999999909e+00 -5.2634167914095853e-01 +6.9414666987956979e+00 +3.5128053604910670e+00 -2.3022513905581764e+01 +3.5685373924515778e+02 -7.4762279558184629e+04 +5.1486989264002629e+06 
-4.8499999999999908e+00 -5.2637226224309586e-01 +6.9429985825461706e+00 +3.4802793828321628e+00 -2.2841478829848629e+01 +4.1876347574356009e+02 -7.3917363488533054e+04 +4.7048233528059712e+06 
-4.8999999999999906e+00 -5.2640306497550904e-01 +6.9445398759220032e+00 +3.4476922957674434e+00 -2.2681949755204013e+01 +4.8035068666921700e+02 -7.2908846445769508e+04 +4.2618546268425304e+06 
-4.9499999999999904e+00 -5.2643408464282304e-01 +6.9460903819915778e+00 +3.4150538213218042e+00 -2.2543225272255491e+01 +5.4151487059035060e+02 -7.1742713351753817e+04 +3.8204057638171073e+06 
-4.9999999999999902e+00 -5.2646531854964673e-01 +6.9476499038201407e+00 +3.3823736785752496e+00 -2.2424603866488528e+01 +6.0215561719405207e+02 -7.0424949959101170e+04 +3.3810891143145943e+06 
-5.0499999999999901e+00 -5.2649676400060663e-01 +6.9492182444767430e+00 +3.3496615904268459e+00 -2.2325384190127391e+01 +6.6217240137457054e+02 -6.8961540684987442e+04 +2.9445178599720276e+06 
