# field on trajectory
# s[mm] rx[mm] ry[mm] rz[mm] bx[T] by[T] bz[T]
0.0000000000000000e+00 +8.5389999999999997e+00 +0.0000000000000000e+00 +0.0000000000000000e+00 -2.8550322953119271e-02 -5.5197715627645583e-01 +5.6725424170750560e-03
-5.0000000000000003e-02 +8.5389999311269147e+00 +0.0000000000000000e+00 -4.9999999999936755e-02 -2.8550763583975750e-02 -5.5197694713819068e-01 +5.6730757256499564e-03
-1.0000000000000001e-01 +8.5389997245076774e+00 +0.0000000000000000e+00 -9.9999999999494021e-02 -2.8551226855318374e-02 -5.5197713538777815e-01 +5.6736101682484941e-03
-1.5000000000000002e-01 +8.5389993801422399e+00 +0.0000000000000000e+00 -1.4999999999829233e-01 -2.8551712663504522e-02 -5.5197772011400870e-01 +5.6741457068031310e-03
-2.0000000000000001e-01 +8.5389988980304565e+00 +0.0000000000000000e+00 -1.9999999999595219e-01 -2.8552220904892803e-02 -5.5197870040569130e-01 +5.6746823032464032e-03
-2.5000000000000000e-01 +8.5389982781720839e+00 +0.0000000000000000e+00 -2.4999999999209413e-01 -2.8552751475843095e-02 -5.5198007535165405e-01 +5.6752199195109279e-03
-2.9999999999999999e-01 +8.5389975205667774e+00 +0.0000000000000000e+00 -2.9999999998633864e-01 -2.8553304272716410e-02 -5.5198184404074280e-01 +5.6757585175294112e-03
-3.4999999999999998e-01 +8.5389966252140965e+00 +0.0000000000000000e+00 -3.4999999997830628e-01 -2.8553879191874961e-02 -5.5198400556182259e-01 +5.6762980592346439e-03
-3.9999999999999997e-01 +8.5389955921135012e+00 +0.0000000000000000e+00 -3.9999999996761748e-01 -2.8554476129681951e-02 -5.5198655900377547e-01 +5.6768385065594749e-03
-4.4999999999999996e-01 +8.5389944212643556e+00 +0.0000000000000000e+00 -4.4999999995389278e-01 -2.8555094982501680e-02 -5.5198950345550291e-01 +5.6773798214368515e-03
-4.9999999999999994e-01 +8.5389931126659242e+00 +0.0000000000000000e+00 -4.9999999993675265e-01 -2.8555735646699422e-02 -5.5199283800592391e-01 +5.6779219657997768e-03
-5.4999999999999993e-01 +8.5389916663173739e+00 +0.0000000000000000e+00 -5.4999999991581761e-01 -2.8556398018641394e-02 -5.5199656174397482e-01 +5.6784649015813394e-03
-5.9999999999999998e-01 +8.5389900822177776e+00 +0.0000000000000000e+00 -5.9999999989070807e-01 -2.8557081994694700e-02 -5.5200067375861139e-01 +5.6790085907146969e-03
-6.5000000000000002e-01 +8.5389883603661083e+00 +0.0000000000000000e+00 -6.4999999986104451e-01 -2.8557787471227291e-02 -5.5200517313880515e-01 +5.6795529951330715e-03
-7.0000000000000007e-01 +8.5389865007612418e+00 +0.0000000000000000e+00 -6.9999999982644734e-01 -2.8558514344607901e-02 -5.5201005897354682e-01 +5.6800980767697578e-03
-7.5000000000000011e-01 +8.5389845034019611e+00 +0.0000000000000000e+00 -7.4999999978653709e-01 -2.8559262511206045e-02 -5.5201533035184414e-01 +5.6806437975581167e-03
-8.0000000000000016e-01 +8.5389823682869483e+00 +0.0000000000000000e+00 -7.9999999974093405e-01 -2.8560031867391894e-02 -5.5202098636272234e-01 +5.6811901194315671e-03
-8.5000000000000020e-01 +8.5389800954147947e+00 +0.0000000000000000e+00 -8.4999999968925877e-01 -2.8560822309536334e-02 -5.5202702609522469e-01 +5.6817370043235997e-03
-9.0000000000000024e-01 +8.5389776847839904e+00 +0.0000000000000000e+00 -8.9999999963113153e-01 -2.8561633734010789e-02 -5.5203344863841008e-01 +5.6822844141677636e-03
-9.5000000000000029e-01 +8.5389751363929349e+00 +0.0000000000000000e+00 -9.4999999956617276e-01 -2.8562466037187300e-02 -5.5204025308135651e-01 +5.6828323108976606e-03
-1.0000000000000002e+00 +8.5389724502399282e+00 +0.0000000000000000e+00 -9.9999999949400276e-01 -2.8563319115438388e-02 -5.5204743851315807e-01 +5.6833806564469585e-03
-1.0500000000000003e+00 +8.5389696263231798e+00 +0.0000000000000000e+00 -1.0499999994142419e+00 -2.8564192865137034e-02 -5.5205500402292584e-01 +5.6839294127493823e-03
-1.1000000000000003e+00 +8.5389666646407996e+00 +0.0000000000000000e+00 -1.0999999993265104e+00 -2.8565087182656639e-02 -5.5206294869978789e-01 +5.6844785417387005e-03
-1.1500000000000004e+00 +8.5389635651908051e+00 +0.0000000000000000e+00 -1.1499999992304286e+00 -2.8566001964371000e-02 -5.5207127163288972e-01 +5.6850280053487466e-03
-1.2000000000000004e+00 +8.5389603279711199e+00 +0.0000000000000000e+00 -1.1999999991256169e+00 -2.8566937106654196e-02 -5.5207997191139235e-01 +5.6855777655133999e-03
-1.2500000000000004e+00 +8.5389569529795732e+00 +0.0000000000000000e+00 -1.2499999990116955e+00 -2.8567892505880588e-02 -5.5208904862447483e-01 +5.6861277841665867e-03
-1.3000000000000005e+00 +8.5389534402139002e+00 +0.0000000000000000e+00 -1.2999999988882844e+00 -2.8568868058424780e-02 -5.5209850086133172e-01 +5.6866780232422863e-03
-1.3500000000000005e+00 +8.5389497896717419e+00 +0.0000000000000000e+00 -1.3499999987550040e+00 -2.8569863660661533e-02 -5.5210832771117457e-01 +5.6872284446745219e-03
-1.4000000000000006e+00 +8.5389460013506451e+00 +0.0000000000000000e+00 -1.3999999986114744e+00 -2.8570879208965751e-02 -5.5211852826323038e-01 +5.6877790103973553e-03
-1.4500000000000006e+00 +8.5389420752480643e+00 +0.0000000000000000e+00 -1.4499999984573158e+00 -2.8571914599712409e-02 -5.5212910160674356e-01 +5.6883296823449026e-03
-1.5000000000000007e+00 +8.5389380113613615e+00 +0.0000000000000000e+00 -1.4999999982921481e+00 -2.8572969729276511e-02 -5.5214004683097406e-01 +5.6888804224513104e-03
-1.5500000000000007e+00 +8.5389338096878067e+00 +0.0000000000000000e+00 -1.5499999981155916e+00 -2.8574044494033082e-02 -5.5215136302519807e-01 +5.6894311926507721e-03
-1.6000000000000008e+00 +8.5389294702245753e+00 +0.0000000000000000e+00 -1.5999999979272663e+00 -2.8575138790357044e-02 -5.5216304927870763e-01 +5.6899819548775132e-03
-1.6500000000000008e+00 +8.5389249929687505e+00 +0.0000000000000000e+00 -1.6499999977267923e+00 -2.8576252514623226e-02 -5.5217510468081032e-01 +5.6905326710657966e-03
-1.7000000000000008e+00 +8.5389203779173233e+00 +0.0000000000000000e+00 -1.6999999975137894e+00 -2.8577385563206305e-02 -5.5218752832083040e-01 +5.6910833031499240e-03
-1.7500000000000009e+00 +8.5389156250671938e+00 +0.0000000000000000e+00 -1.7499999972878777e+00 -2.8578537832480759e-02 -5.5220031928810687e-01 +5.6916338130642251e-03
-1.8000000000000009e+00 +8.5389107344151700e+00 +0.0000000000000000e+00 -1.7999999970486771e+00 -2.8579709218820793e-02 -5.5221347667199494e-01 +5.6921841627430589e-03
-1.8500000000000010e+00 +8.5389057059579692e+00 +0.0000000000000000e+00 -1.8499999967958074e+00 -2.8580899618600344e-02 -5.5222699956186483e-01 +5.6927343141208201e-03
-1.9000000000000010e+00 +8.5389005396922162e+00 +0.0000000000000000e+00 -1.8999999965288885e+00 -2.8582108928192972e-02 -5.5224088704710272e-01 +5.6932842291319242e-03
-1.9500000000000011e+00 +8.5388952356144454e+00 +0.0000000000000000e+00 -1.9499999962475403e+00 -2.8583337043971851e-02 -5.5225513821710948e-01 +5.6938338697108161e-03
-2.0000000000000009e+00 +8.5388897937211024e+00 +0.0000000000000000e+00 -1.9999999959513823e+00 -2.8584583862309713e-02 -5.5226975216130136e-01 +5.6943831977919659e-03
-2.0500000000000007e+00 +8.5388842140085384e+00 +0.0000000000000000e+00 -2.0499999956400345e+00 -2.8585849269650743e-02 -5.5228472774668513e-01 +5.6949321759965149e-03
-2.1000000000000005e+00 +8.5388784964730160e+00 +0.0000000000000000e+00 -2.0999999953131168e+00 -2.8587133112726815e-02 -5.5230006295058065e-01 +5.6954807696921479e-03
-2.1500000000000004e+00 +8.5388726411107090e+00 +0.0000000000000000e+00 -2.1499999949702482e+00 -2.8588435228342833e-02 -5.5231575552789447e-01 +5.6960289449329935e-03
-2.2000000000000002e+00 +8.5388666479177022e+00 +0.0000000000000000e+00 -2.1999999946110487e+00 -2.8589755453305023e-02 -5.5233180323354636e-01 +5.6965766677729611e-03
-2.2500000000000000e+00 +8.5388605168899900e+00 +0.0000000000000000e+00 -2.2499999942351376e+00 -2.8591093624420975e-02 -5.5234820382246708e-01 +5.6971239042657024e-03
-2.2999999999999998e+00 +8.5388542480234797e+00 +0.0000000000000000e+00 -2.2999999938421349e+00 -2.8592449578499719e-02 -5.5236495504959937e-01 +5.6976706204646130e-03
-2.3499999999999996e+00 +8.5388478413139914e+00 +0.0000000000000000e+00 -2.3499999934316600e+00 -2.8593823152351736e-02 -5.5238205466989743e-01 +5.6982167824228035e-03
-2.3999999999999995e+00 +8.5388412967572584e+00 +0.0000000000000000e+00 -2.3999999930033318e+00 -2.8595214182789111e-02 -5.5239950043832653e-01 +5.6987623561930980e-03
-2.4499999999999993e+00 +8.5388346143489269e+00 +0.0000000000000000e+00 -2.4499999925567701e+00 -2.8596622506625494e-02 -5.5241729010986196e-01 +5.6993073078280007e-03
-2.4999999999999991e+00 +8.5388277940845558e+00 +0.0000000000000000e+00 -2.4999999920915941e+00 -2.8598047960676221e-02 -5.5243542143949098e-01 +5.6998516033796983e-03
-2.5499999999999989e+00 +8.5388208359596227e+00 +0.0000000000000000e+00 -2.5499999916074234e+00 -2.8599490381758380e-02 -5.5245389218221042e-01 +5.7003952089000375e-03
-2.5999999999999988e+00 +8.5388137399695179e+00 +0.0000000000000000e+00 -2.5999999911038767e+00 -2.8600949606690813e-02 -5.5247270009302729e-01 +5.7009380904404997e-03
-2.6499999999999986e+00 +8.5388065061095482e+00 +0.0000000000000000e+00 -2.6499999905805733e+00 -2.8602425472294236e-02 -5.5249184292695863e-01 +5.7014802140522040e-03
-2.6999999999999984e+00 +8.5387991343749352e+00 +0.0000000000000000e+00 -2.6999999900371328e+00 -2.8603917815391275e-02 -5.5251131843903079e-01 +5.7020215457858755e-03
-2.7499999999999982e+00 +8.5387916247608207e+00 +0.0000000000000000e+00 -2.7499999894731739e+00 -2.8605426472806502e-02 -5.5253112438427954e-01 +5.7025620516918379e-03
-2.7999999999999980e+00 +8.5387839772622609e+00 +0.0000000000000000e+00 -2.7999999888883158e+00 -2.8606951281366557e-02 -5.5255125851775011e-01 +5.7031016978199983e-03
-2.8499999999999979e+00 +8.5387761918742324e+00 +0.0000000000000000e+00 -2.8499999882821774e+00 -2.8608492077900161e-02 -5.5257171859449605e-01 +5.7036404502198252e-03
-2.8999999999999977e+00 +8.5387682685916282e+00 +0.0000000000000000e+00 -2.8999999876543776e+00 -2.8610048699238163e-02 -5.5259250236958057e-01 +5.7041782749403386e-03
-2.9499999999999975e+00 +8.5387602074092630e+00 +0.0000000000000000e+00 -2.9499999870045350e+00 -2.8611620982213648e-02 -5.5261360759807354e-01 +5.7047151380300934e-03
-2.9999999999999973e+00 +8.5387520083218700e+00 +0.0000000000000000e+00 -2.9999999863322686e+00 -2.8613208763661975e-02 -5.5263503203505482e-01 +5.7052510055371651e-03
-3.0499999999999972e+00 +8.5387436713241023e+00 +0.0000000000000000e+00 -3.0499999856371973e+00 -2.8614811880420820e-02 -5.5265677343561059e-01 +5.7057858435091303e-03
-3.0999999999999970e+00 +8.5387351964105349e+00 +0.0000000000000000e+00 -3.0999999849189397e+00 -2.8616430169330243e-02 -5.5267882955483560e-01 +5.7063196179930539e-03
-3.1499999999999968e+00 +8.5387265835756629e+00 +0.0000000000000000e+00 -3.1499999841771147e+00 -2.8618063467232797e-02 -5.5270119814783136e-01 +5.7068522950354727e-03
-3.1999999999999966e+00 +8.5387178328139051e+00 +0.0000000000000000e+00 -3.1999999834113404e+00 -2.8619711610973524e-02 -5.5272387696970748e-01 +5.7073838406823778e-03
-3.2499999999999964e+00 +8.5387089441196018e+00 +0.0000000000000000e+00 -3.2499999826212358e+00 -2.8621374437400017e-02 -5.5274686377557936e-01 +5.7079142209792051e-03
-3.2999999999999963e+00 +8.5386999174870173e+00 +0.0000000000000000e+00 -3.2999999818064190e+00 -2.8623051783362545e-02 -5.5277015632056958e-01 +5.7084434019708174e-03
-3.3499999999999961e+00 +8.5386907529103393e+00 +0.0000000000000000e+00 -3.3499999809665084e+00 -2.8624743485714033e-02 -5.5279375235980688e-01 +5.7089713497014754e-03
-3.3999999999999959e+00 +8.5386814503836774e+00 +0.0000000000000000e+00 -3.3999999801011227e+00 -2.8626449381310190e-02 -5.5281764964842617e-01 +5.7094980302148501e-03
-3.4499999999999957e+00 +8.5386720099010702e+00 +0.0000000000000000e+00 -3.4499999792098799e+00 -2.8628169307009534e-02 -5.5284184594156882e-01 +5.7100234095539782e-03
-3.4999999999999956e+00 +8.5386624314564799e+00 +0.0000000000000000e+00 -3.4999999782923981e+00 -2.8629903099673438e-02 -5.5286633899438054e-01 +5.7105474537612689e-03
-3.5499999999999954e+00 +8.5386527150437921e+00 +0.0000000000000000e+00 -3.5499999773482953e+00 -2.8631650596166236e-02 -5.5289112656201389e-01 +5.7110701288784699e-03
-3.5999999999999952e+00 +8.5386428606568234e+00 +0.0000000000000000e+00 -3.5999999763771902e+00 -2.8633411633355220e-02 -5.5291620639962547e-01 +5.7115914009466641e-03
-3.6499999999999950e+00 +8.5386328682893140e+00 +0.0000000000000000e+00 -3.6499999753787002e+00 -2.8635186048110790e-02 -5.5294157626237739e-01 +5.7121112360062603e-03
-3.6999999999999948e+00 +8.5386227379349329e+00 +0.0000000000000000e+00 -3.6999999743524437e+00 -2.8636973677306412e-02 -5.5296723390543623e-01 +5.7126296000969490e-03
-3.7499999999999947e+00 +8.5386124695872780e+00 +0.0000000000000000e+00 -3.7499999732980380e+00 -2.8638774357818756e-02 -5.5299317708397255e-01 +5.7131464592577183e-03
-3.7999999999999945e+00 +8.5386020632398765e+00 +0.0000000000000000e+00 -3.7999999722151014e+00 -2.8640587926527742e-02 -5.5301940355316215e-01 +5.7136617795268260e-03
-3.8499999999999943e+00 +8.5385915188861805e+00 +0.0000000000000000e+00 -3.8499999711032515e+00 -2.8642414220316541e-02 -5.5304591106818313e-01 +5.7141755269417777e-03
-3.8999999999999941e+00 +8.5385808365195786e+00 +0.0000000000000000e+00 -3.8999999699621060e+00 -2.8644253076071720e-02 -5.5307269738421871e-01 +5.7146876675393159e-03
-3.9499999999999940e+00 +8.5385700161333844e+00 +0.0000000000000000e+00 -3.9499999687912823e+00 -2.8646104330683247e-02 -5.5309976025645469e-01 +5.7151981673554172e-03
-3.9999999999999938e+00 +8.5385590577208443e+00 +0.0000000000000000e+00 -3.9999999675903983e+00 -2.8647967821044586e-02 -5.5312709744008048e-01 +5.7157069924252540e-03
-4.0499999999999936e+00 +8.5385479612751372e+00 +0.0000000000000000e+00 -4.0499999663590716e+00 -2.8649843405444096e-02 -5.5315470660906507e-01 +5.7162141109283020e-03
-4.0999999999999934e+00 +8.5385367267893724e+00 +0.0000000000000000e+00 -4.0999999650969192e+00 -2.8651731027737711e-02 -5.5318258511249152e-01 +5.7167194996239658e-03
-4.1499999999999932e+00 +8.5385253542565938e+00 +0.0000000000000000e+00 -4.1499999638035581e+00 -2.8653630653171488e-02 -5.5321073021822020e-01 +5.7172231374166401e-03
-4.1999999999999931e+00 +8.5385138436697776e+00 +0.0000000000000000e+00 -4.1999999624786062e+00 -2.8655542246989650e-02 -5.5323913919411505e-01 +5.7177250032106938e-03
-4.2499999999999929e+00 +8.5385021950218345e+00 +0.0000000000000000e+00 -4.2499999611216799e+00 -2.8657465774434444e-02 -5.5326780930804031e-01 +5.7182250759104658e-03
-4.2999999999999927e+00 +8.5384904083056110e+00 +0.0000000000000000e+00 -4.2999999597323972e+00 -2.8659401200746042e-02 -5.5329673782786226e-01 +5.7187233344202703e-03
-4.3499999999999925e+00 +8.5384784835138863e+00 +0.0000000000000000e+00 -4.3499999583103746e+00 -2.8661348491162444e-02 -5.5332592202144770e-01 +5.7192197576444162e-03
-4.3999999999999924e+00 +8.5384664206393790e+00 +0.0000000000000000e+00 -4.3999999568552290e+00 -2.8663307610919397e-02 -5.5335535915666467e-01 +5.7197143244872035e-03
-4.4499999999999922e+00 +8.5384542196747422e+00 +0.0000000000000000e+00 -4.4499999553665779e+00 -2.8665278525250231e-02 -5.5338504650138143e-01 +5.7202070138529394e-03
-4.4999999999999920e+00 +8.5384418806125684e+00 +0.0000000000000000e+00 -4.4999999538440374e+00 -2.8667261199385796e-02 -5.5341498132346689e-01 +5.7206978046459430e-03
-4.5499999999999918e+00 +8.5384294034453880e+00 +0.0000000000000000e+00 -4.5499999522872248e+00 -2.8669255598554384e-02 -5.5344516089078910e-01 +5.7211866757705537e-03
-4.5999999999999917e+00 +8.5384167881656694e+00 +0.0000000000000000e+00 -4.5999999506957563e+00 -2.8671261687981561e-02 -5.5347558247121664e-01 +5.7216736061311444e-03
-4.6499999999999915e+00 +8.5384040347658203e+00 +0.0000000000000000e+00 -4.6499999490692483e+00 -2.8673279432890109e-02 -5.5350624333261733e-01 +5.7221585746321238e-03
-4.6999999999999913e+00 +8.5383911432381900e+00 +0.0000000000000000e+00 -4.6999999474073171e+00 -2.8675308798499902e-02 -5.5353714074285820e-01 +5.7226415601779514e-03
-4.7499999999999911e+00 +8.5383781135750674e+00 +0.0000000000000000e+00 -4.7499999457095798e+00 -2.8677349750027815e-02 -5.5356827196980518e-01 +5.7231225416731367e-03
-4.7999999999999909e+00 +8.5383649457686843e+00 +0.0000000000000000e+00 -4.7999999439756529e+00 -2.8679402252687614e-02 -5.5359963428132275e-01 +5.7236014980222589e-03
-4.8499999999999908e+00 +8.5383516398112143e+00 +0.0000000000000000e+00 -4.8499999422051516e+00 -2.8681466271689833e-02 -5.5363122494527428e-01 +5.7240784081299644e-03
-4.8999999999999906e+00 +8.5383381956947755e+00 +0.0000000000000000e+00 -4.8999999403976933e+00 -2.8683541772241701e-02 -5.5366304122952070e-01 +5.7245532509009852e-03
-4.9499999999999904e+00 +8.5383246134114259e+00 +0.0000000000000000e+00 -4.9499999385528932e+00 -2.8685628719547045e-02 -5.5369508040192184e-01 +5.7250260052401419e-03
-4.9999999999999902e+00 +8.5383108929531719e+00 +0.0000000000000000e+00 -4.9999999366703678e+00 -2.8687727078806100e-02 -5.5372733973033383e-01 +5.7254966500523462e-03
-5.0499999999999901e+00 +8.5382970343119631e+00 +0.0000000000000000e+00 -5.0499999347497324e+00 -2.8689836815215544e-02 -5.5375981648261097e-01 +5.7259651642426268e-03
-5.0999999999999899e+00 +8.5382830374796939e+00 +0.0000000000000000e+00 -5.0999999327906034e+00 -2.8691957893968289e-02 -5.5379250792660517e-01 +5.7264315267161227e-03
-5.1499999999999897e+00 +8.5382689024482072e+00 +0.0000000000000000e+00 -5.1499999307925961e+00 -2.8694090280253388e-02 -5.5382541133016361e-01 +5.7268957163780906e-03
-5.1999999999999895e+00 +8.5382546292092929e+00 +0.0000000000000000e+00 -5.1999999287553269e+00 -2.8696233939255973e-02 -5.5385852396113222e-01 +5.7273577121339280e-03
-5.2499999999999893e+00 +8.5382402177546872e+00 +0.0000000000000000e+00 -5.2499999266784103e+00 -2.8698388836157124e-02 -5.5389184308735162e-01 +5.7278174928891683e-03
-5.2999999999999892e+00 +8.5382256680760751e+00 +0.0000000000000000e+00 -5.2999999245614626e+00 -2.8700554936133760e-02 -5.5392536597665909e-01 +5.7282750375494918e-03
-5.3499999999999890e+00 +8.5382109801650916e+00 +0.0000000000000000e+00 -5.3499999224040993e+00 -2.8702732204358542e-02 -5.5395908989688802e-01 +5.7287303250207373e-03
-5.3999999999999888e+00 +8.5381961540133204e+00 +0.0000000000000000e+00 -5.3999999202059357e+00 -2.8704920605999790e-02 -5.5399301211586671e-01 +5.7291833342089102e-03
-5.4499999999999886e+00 +8.5381811896122972e+00 +0.0000000000000000e+00 -5.4499999179665863e+00 -2.8707120106221340e-02 -5.5402712990141922e-01 +5.7296340440201928e-03
-5.4999999999999885e+00 +8.5381660869535079e+00 +0.0000000000000000e+00 -5.4999999156856676e+00 -2.8709330670182446e-02 -5.5406144052136486e-01 +5.7300824333609435e-03
-5.5499999999999883e+00 +8.5381508460283904e+00 +0.0000000000000000e+00 -5.5499999133627940e+00 -2.8711552263037707e-02 -5.5409594124351735e-01 +5.7305284811377142e-03
-5.5999999999999881e+00 +8.5381354668283347e+00 +0.0000000000000000e+00 -5.5999999109975800e+00 -2.8713784849936953e-02 -5.5413062933568458e-01 +5.7309721662572588e-03
-5.6499999999999879e+00 +8.5381199493446847e+00 +0.0000000000000000e+00 -5.6499999085896411e+00 -2.8716028396025089e-02 -5.5416550206566995e-01 +5.7314134676265376e-03
-5.6999999999999877e+00 +8.5381042935687379e+00 +0.0000000000000000e+00 -5.6999999061385918e+00 -2.8718282866442065e-02 -5.5420055670126944e-01 +5.7318523641527236e-03
-5.7499999999999876e+00 +8.5380884994917476e+00 +0.0000000000000000e+00 -5.7499999036440474e+00 -2.8720548226322751e-02 -5.5423579051027394e-01 +5.7322888347432219e-03
-5.7999999999999874e+00 +8.5380725671049209e+00 +0.0000000000000000e+00 -5.7999999011056218e+00 -2.8722824440796768e-02 -5.5427120076046676e-01 +5.7327228583056635e-03
-5.8499999999999872e+00 +8.5380564963994203e+00 +0.0000000000000000e+00 -5.8499998985229302e+00 -2.8725111474988494e-02 -5.5430678471962536e-01 +5.7331544137479290e-03
