# multipoles
# s[mm] polynom_b[n=0][T/m^n] polynom_b[n=1][T/m^n] polynom_b[n=2][T/m^n] polynom_b[n=3][T/m^n] polynom_b[n=4][T/m^n] polynom_b[n=5][T/m^n] polynom_b[n=6][T/m^n] 
+0.0000000000000000e+00 -5.5391413084414887e-01 +7.2194873366624899e+00 +6.6833187385865465e+00 -4.1681835693207681e+01 -1.5439597013639261e+04 -1.9469623200430896e+05 +8.2858989574859530e+07 
+5.0000000000000003e-02 -5.5391092490540594e-01 +7.2193314381191929e+00 +6.6873897120282919e+00 -4.1172384189314172e+01 -1.5436483546600304e+04 -1.9810923081862915e+05 +8.2719474727376103e+07 
+1.0000000000000001e-01 -5.5390812207654982e-01 +7.2191966183979037e+00 +6.6910841165000008e+00 -4.0645688456777876e+01 -1.5435699268675957e+04 -2.0158275678846936e+05 +8.2595311079678759e+07 
+1.5000000000000002e-01 -5.5390572167903029e-01 +7.2190828595880889e+00 +6.6943983801653335e+00 -4.0102154598691826e+01 -1.5437198516457092e+04 -2.0511575626197123e+05 +8.2486374522036612e+07 
+2.0000000000000001e-01 -5.5390372303432955e-01 +7.2189901437845210e+00 +6.6973289339613995e+00 -3.9542188923018017e+01 -1.5440935707673700e+04 -2.0870717383256846e+05 +8.2392541518323764e+07 
+2.5000000000000000e-01 -5.5390212546394346e-01 +7.2189184530803221e+00 +6.6998722077437645e+00 -3.8966197636800125e+01 -1.5446865224930216e+04 -2.1235595495927410e+05 +8.2313688266822413e+07 
+2.9999999999999999e-01 -5.5390092828939064e-01 +7.2188677695719665e+00 +6.7020246321259274e+00 -3.8374587050116943e+01 -1.5454941476902743e+04 -2.1606104425872141e+05 +8.2249691168589488e+07 
+3.4999999999999998e-01 -5.5390013083219536e-01 +7.2188380753524157e+00 +6.7037826356358368e+00 -3.7767763303380505e+01 -1.5465118814226809e+04 -2.1982138775042270e+05 +8.2200426220439821e+07 
+3.9999999999999997e-01 -5.5389973241391166e-01 +7.2188293525200882e+00 +6.7051426487480796e+00 -3.7146132728944224e+01 -1.5477351639719567e+04 -2.2363592989066915e+05 +8.2165769768490478e+07 
+4.4999999999999996e-01 -5.5389973235611023e-01 +7.2188415831716757e+00 +6.7061011020248031e+00 -3.6510101556158951e+01 -1.5491594364150693e+04 -2.2750361599137285e+05 +8.2145598236411452e+07 
+4.9999999999999994e-01 -5.5390012998037108e-01 +7.2188747494015173e+00 +6.7066544238624717e+00 -3.5860075890168986e+01 -1.5507801333173666e+04 -2.3142339239655141e+05 +8.2139787579317331e+07 
+5.4999999999999993e-01 -5.5390092460830243e-01 +7.2189288333114678e+00 +6.7067990448128700e+00 -3.5196462115895351e+01 -1.5525926956291665e+04 -2.3539420315001963e+05 +8.2148214206996053e+07 
+5.9999999999999998e-01 -5.5390211556152558e-01 +7.2190038169992308e+00 +6.7065313943343634e+00 -3.4519666405292895e+01 -1.5545925611935156e+04 -2.3941499410896812e+05 +8.2170754312640592e+07 
+6.5000000000000002e-01 -5.5390370216168461e-01 +7.2190996825632405e+00 +6.7058479033034697e+00 -3.3830094945351441e+01 -1.5567751718820004e+04 -2.4348471095900057e+05 +8.2207284363288581e+07 
+7.0000000000000007e-01 -5.5390568373042526e-01 +7.2192164121060083e+00 +6.7047449989132604e+00 -3.3128154049440688e+01 -1.5591359594768021e+04 -2.4760229839914566e+05 +8.2257680146910593e+07 
+7.5000000000000011e-01 -5.5390805958943723e-01 +7.2193539877262625e+00 +6.7032191133855399e+00 -3.2414249846126658e+01 -1.5616703692577048e+04 -2.5176670266152109e+05 +8.2321818353284568e+07 
+8.0000000000000016e-01 -5.5391082906040823e-01 +7.2195123915264015e+00 +6.7012666755303698e+00 -3.1688788581196160e+01 -1.5643738378027356e+04 -2.5597686903834456e+05 +8.2399575107136548e+07 
+8.5000000000000020e-01 -5.5391399146504983e-01 +7.2196916056107909e+00 +6.6988841147055700e+00 -3.0952176550959351e+01 -1.5672418025591036e+04 -2.6023174241595672e+05 +8.2490826567054659e+07 
+9.0000000000000024e-01 -5.5391754612508748e-01 +7.2198916120806933e+00 +6.6960678600781396e+00 -3.0204819898215096e+01 -1.5702697008603318e+04 -2.6453026894798595e+05 +8.2595448899495453e+07 
+9.5000000000000029e-01 -5.5392149236227306e-01 +7.2201123930434568e+00 +6.6928143421402471e+00 -2.9447124969966985e+01 -1.5734529737634055e+04 -2.6887139318441873e+05 +8.2713318529249504e+07 
+1.0000000000000002e+00 -5.5392582949837332e-01 +7.2203539305983782e+00 +6.6891199909519266e+00 -2.8679497764657533e+01 -1.5767870609221560e+04 -2.7325406249868660e+05 +8.2844311776126161e+07 
+1.0500000000000003e+00 -5.5393055685516546e-01 +7.2206162068566764e+00 +6.6849812350089408e+00 -2.7902344721341400e+01 -1.5802673975660260e+04 -2.7767722074189660e+05 +8.2988304652470022e+07 
+1.1000000000000003e+00 -5.5393567375444452e-01 +7.2208992039226194e+00 +6.6803945032598095e+00 -2.7116071983974571e+01 -1.5838894208549897e+04 -2.8213981412025861e+05 +8.3145173332034692e+07 
+1.1500000000000004e+00 -5.5394117951804467e-01 +7.2212029039038494e+00 +6.6753562279781677e+00 -2.6321085780593602e+01 -1.5876485761505830e+04 -2.8664078825276520e+05 +8.3314794510803342e+07 
+1.2000000000000004e+00 -5.5394707346778815e-01 +7.2215272889078310e+00 +6.6698628365571064e+00 -2.5517792312940191e+01 -1.5915402960182873e+04 -2.9117908896009414e+05 +8.3497044034096345e+07 
+1.2500000000000004e+00 -5.5395335492552489e-01 +7.2218723410458736e+00 +6.6639107582809061e+00 -2.4706597895038382e+01 -1.5955600183960967e+04 -2.9575366121113813e+05 +8.3691798124061048e+07 
+1.3000000000000005e+00 -5.5396002321313476e-01 +7.2222380424267643e+00 +6.6574964241790244e+00 -2.3887908715633607e+01 -1.5997031853603348e+04 -3.0036345098992012e+05 +8.3898933259962961e+07 
+1.3500000000000005e+00 -5.5396707765249442e-01 +7.2226243751597039e+00 +6.6506162616730409e+00 -2.3062130939365741e+01 -1.6039652292668676e+04 -3.0500740453514655e+05 +8.4118325264983639e+07 
+1.4000000000000006e+00 -5.5397451756552230e-01 +7.2230313213579116e+00 +6.6432667028093393e+00 -2.2229670871268855e+01 -1.6083415954739667e+04 -3.0968446693191654e+05 +8.4349850863382056e+07 
+1.4500000000000006e+00 -5.5398234227412591e-01 +7.2234588631357175e+00 +6.6354441743759383e+00 -2.1390934812554928e+01 -1.6128277146959750e+04 -3.1439358338778466e+05 +8.4593385773121059e+07 
+1.5000000000000007e+00 -5.5399055110026707e-01 +7.2239069826026965e+00 +6.6271451097368832e+00 -2.0546328846249498e+01 -1.6174190353625649e+04 -3.1913370089591068e+05 +8.4848806906126395e+07 
+1.5500000000000007e+00 -5.5399914336588107e-01 +7.2243756618752633e+00 +6.6183659346104333e+00 -1.9696259304898923e+01 -1.6221109856501056e+04 -3.2390376441627799e+05 +8.5115989826680779e+07 
+1.6000000000000008e+00 -5.5400811839295039e-01 +7.2248648830700706e+00 +6.6091030798140640e+00 -1.8841132491905601e+01 -1.6268990069795644e+04 -3.2870271921027504e+05 +8.5394810971163616e+07 
+1.6500000000000008e+00 -5.5401747550347602e-01 +7.2253746283006262e+00 +6.5993529761614358e+00 -1.7981354543127271e+01 -1.6317785407304493e+04 -3.3352951196701359e+05 +8.5685146775138870e+07 
+1.7000000000000008e+00 -5.5402721401945654e-01 +7.2259048796864400e+00 +6.5891120515294448e+00 -1.7117331808602696e+01 -1.6367450206655369e+04 -3.3838308763797651e+05 +8.5986873172174186e+07 
+1.7500000000000009e+00 -5.5403733326292715e-01 +7.2264556193440317e+00 +6.5783767370016610e+00 -1.6249470484911143e+01 -1.6417938892444250e+04 -3.4326239246346097e+05 +8.6299866688557699e+07 
+1.8000000000000009e+00 -5.5404783255593093e-01 +7.2270268293937701e+00 +6.5671434615742319e+00 -1.5378176886939491e+01 -1.6469205825378751e+04 -3.4816637176747253e+05 +8.6624003388522059e+07 
+1.8500000000000010e+00 -5.5405871122051997e-01 +7.2276184919540611e+00 +6.5554086534668423e+00 -1.4503857211528143e+01 -1.6521205351732035e+04 -3.5309397189792106e+05 +8.6959159267186180e+07 
+1.9000000000000010e+00 -5.5406996857878454e-01 +7.2282305891482155e+00 +6.5431687442075139e+00 -1.3626917828257293e+01 -1.6573891903220079e+04 -3.5804413779283920e+05 +8.7305210884005576e+07 
+1.9500000000000011e+00 -5.5408160395281791e-01 +7.2288631030952715e+00 +6.5304201629233178e+00 -1.2747764896718756e+01 -1.6627219848287845e+04 -3.6301581615773786e+05 +8.7662034379319981e+07 
+2.0000000000000009e+00 -5.5409361666473067e-01 +7.2295160159211225e+00 +6.5171593386873594e+00 -1.1866804809036509e+01 -1.6681143548706739e+04 -3.6800795188123151e+05 +8.8029505829391941e+07 
+2.0500000000000007e+00 -5.5410600582334268e-01 +7.2301892927695457e+00 +6.5033841677772068e+00 -1.0984520815488448e+01 -1.6735610086205961e+04 -3.7301854196991544e+05 +8.8407372022433519e+07 
+2.1000000000000005e+00 -5.5411876968435392e-01 +7.2308828255623405e+00 +6.4890989010256135e+00 -1.0101773034597741e+01 -1.6790535675840300e+04 -3.7804139250937768e+05 +8.8794839774986222e+07 
+2.1500000000000004e+00 -5.5413190629018572e-01 +7.2315964865843361e+00 +6.4743095025493398e+00 -9.2195338019067989e+00 -1.6845828116247783e+04 -3.8306916254090099e+05 +8.9190973551899090e+07 
+2.2000000000000002e+00 -5.5414541368330883e-01 +7.2323301481216387e+00 +6.4590219422444273e+00 -8.3387754963822012e+00 -1.6901395357905021e+04 -3.8809451074574795e+05 +8.9594838834906697e+07 
+2.2500000000000000e+00 -5.5415928990618202e-01 +7.2330836824619880e+00 +6.4432421858341318e+00 -7.4604705464568388e+00 -1.6957145240522768e+04 -3.9311009538811533e+05 +9.0005500360111430e+07 
+2.2999999999999998e+00 -5.5417353300128402e-01 +7.2338569618904360e+00 +6.4269762000443391e+00 -6.5855912633012856e+00 -1.7012985629277995e+04 -3.9810857565471041e+05 +9.0422023030645698e+07 
+2.3499999999999996e+00 -5.5418814101112279e-01 +7.2346498586946719e+00 +6.4102299545578392e+00 -5.7151100359751750e+00 -1.7068824468004823e+04 -4.0308261014081904e+05 +9.0843472273465008e+07 
+2.3999999999999995e+00 -5.5420311197819683e-01 +7.2354622451643076e+00 +6.3930094148926200e+00 -4.8499993471462854e+00 -1.7124569587919574e+04 -4.0802485653593211e+05 +9.1268912754546359e+07 
+2.4499999999999993e+00 -5.5421844394503350e-01 +7.2362939935852237e+00 +6.3753205495879985e+00 -3.9912314917833056e+00 -1.7180128901195778e+04 -4.1292797414246621e+05 +9.1697409684244409e+07 
+2.4999999999999991e+00 -5.5423413495417839e-01 +7.2371449762478317e+00 +6.3571693277608823e+00 -3.1397789645568097e+00 -1.7235410329512048e+04 -4.1778462050187372e+05 +9.2128028307804734e+07 
+2.5499999999999989e+00 -5.5425018304816409e-01 +7.2380150654391322e+00 +6.3385617146861106e+00 -2.2966140875710854e+00 -1.7290321699371718e+04 -4.2258745463666791e+05 +9.2559833264077142e+07 
+2.5999999999999988e+00 -5.5426658626956382e-01 +7.2389041334484308e+00 +6.3195036798909232e+00 -1.4627092927003869e+00 -1.7344770941023555e+04 -4.2732913453130150e+05 +9.2991889846584380e+07 
+2.6499999999999986e+00 -5.5428334266095780e-01 +7.2398120525661671e+00 +6.3000011924449675e+00 -6.3903703816231316e-01 -1.7398665975944641e+04 -4.3200231798840628e+05 +9.3423263301188186e+07 
+2.6999999999999984e+00 -5.5430045026492791e-01 +7.2407386950809274e+00 +6.2800602198169591e+00 +1.7343029778387847e-01 -1.7451914682439285e+04 -4.3659966339786461e+05 +9.3853018580824554e+07 
+2.7499999999999982e+00 -5.5431790712407858e-01 +7.2416839332821787e+00 +6.2596867307727839e+00 +9.7372029361266954e-01 -1.7504424969769880e+04 -4.4111382872498158e+05 +9.4280220832886308e+07 
+2.7999999999999980e+00 -5.5433571128101788e-01 +7.2426476394593777e+00 +6.2388866931314171e+00 +1.7608605489733005e+00 -1.7556104720196068e+04 -4.4553747212397121e+05 +9.4703935010258928e+07 
+2.8499999999999979e+00 -5.5435386077838855e-01 +7.2436296859030778e+00 +6.2176660786974738e+00 +2.5338786042005852e+00 -1.7606861923272580e+04 -4.4986325114501303e+05 +9.5123226791423008e+07 
+2.8999999999999977e+00 -5.5437235365881499e-01 +7.2446299449028153e+00 +6.1960308542346505e+00 +3.2918020531807124e+00 -1.7656604432053544e+04 -4.5408382377021143e+05 +9.5537160927132383e+07 
+2.9499999999999975e+00 -5.5439118796494524e-01 +7.2456482887489697e+00 +6.1739869886667424e+00 +4.0336584515924780e+00 -1.7705240155652002e+04 -4.5819184759469482e+05 +9.5944802537747324e+07 
+2.9999999999999973e+00 -5.5441036173945735e-01 +7.2466845897316752e+00 +6.1515404541758620e+00 +4.7584753593215954e+00 -1.7752677088164441e+04 -4.6217998017794947e+05 +9.6345217302184328e+07 
+3.0499999999999972e+00 -5.5442987302500368e-01 +7.2477387201410357e+00 +6.1286972168000959e+00 +5.4652803494068491e+00 -1.7798823057636691e+04 -4.6604087917823996e+05 +9.6737469775794148e+07 
+3.0999999999999970e+00 -5.5444971986428904e-01 +7.2488105522678969e+00 +6.1054632499364718e+00 +6.1531009426823111e+00 -1.7843586090193672e+04 -4.6976720169151889e+05 +9.7120625847469971e+07 
+3.1499999999999968e+00 -5.5446990029999399e-01 +7.2498999584024144e+00 +6.0818445209142755e+00 +6.8209647024109561e+00 -1.7886874044157699e+04 -4.7335160515928169e+05 +9.7493750254107580e+07 
+3.1999999999999966e+00 -5.5449041237483210e-01 +7.2510068108349826e+00 +6.0578470011067944e+00 +7.4678991638297214e+00 -1.7928594886762316e+04 -4.7678674668560200e+05 +9.7855908465823784e+07 
+3.2499999999999964e+00 -5.5451125413152524e-01 +7.2521309818562125e+00 +6.0334766616591091e+00 +8.0929318542237034e+00 -1.7968656576741952e+04 -4.8006528325544577e+05 +9.8206165883070111e+07 
+3.2999999999999963e+00 -5.5453242361279576e-01 +7.2532723437549222e+00 +6.0087394723855461e+00 +8.6950903666972792e+00 -1.8006967037696057e+04 -4.8317987232447386e+05 +9.8543587669635952e+07 
+3.3499999999999961e+00 -5.5455391886138505e-01 +7.2544307688226732e+00 +5.9836414045200348e+00 +9.2734021723303446e+00 -1.8043434225317847e+04 -4.8612317026571627e+05 +9.8867239177368462e+07 
+3.3999999999999959e+00 -5.5457573792004911e-01 +7.2556061293471243e+00 +5.9581884304576205e+00 +9.8268948929005830e+00 -1.8077966129073251e+04 -4.8888783460571087e+05 +9.9176185995981172e+07 
+3.4499999999999957e+00 -5.5459787883153833e-01 +7.2567982976222112e+00 +5.9323865198094650e+00 +1.0354595879709040e+01 -1.8110470658764982e+04 -4.9146652055868140e+05 +9.9469493156379282e+07 
+3.4999999999999956e+00 -5.5462033963863167e-01 +7.2580071459350632e+00 +5.9062416458505060e+00 +1.0855532762913953e+01 -1.8140855819868731e+04 -4.9385188559396105e+05 +9.9746226318108454e+07 
+3.5499999999999954e+00 -5.5464311838409919e-01 +7.2592325465749843e+00 +5.8797597790934493e+00 +1.1328733061872068e+01 -1.8169029546398026e+04 -4.9603658614324458e+05 +1.0000545066726753e+08 
+3.5999999999999952e+00 -5.5466621311074205e-01 +7.2604743718330367e+00 +5.8529468936974691e+00 +1.1773224208312211e+01 -1.8194899865963191e+04 -4.9801327781514282e+05 +1.0024623200321847e+08 
+3.6499999999999950e+00 -5.5468962186134640e-01 +7.2617324939961660e+00 +5.8258089599167899e+00 +1.2188033800689741e+01 -1.8218374697558007e+04 -4.9977461755867029e+05 +1.0046763537221825e+08 
+3.6999999999999948e+00 -5.5471334267872663e-01 +7.2630067853549578e+00 +5.7983519513217825e+00 +1.2572189263074760e+01 -1.8239362046633229e+04 -5.0131326074247167e+05 +1.0066872639238277e+08 
+3.7499999999999947e+00 -5.5473737360570929e-01 +7.2642971181966480e+00 +5.7705818428698619e+00 +1.2924718141937349e+01 -1.8257769957896304e+04 -5.0262186366302421e+05 +1.0084857094854274e+08 
+3.7999999999999945e+00 -5.5476171268510022e-01 +7.2656033648123364e+00 +5.7425046041027006e+00 +1.3244647811275925e+01 -1.8273506326982322e+04 -5.0369308109683986e+05 +1.0100623390603188e+08 
+3.8499999999999943e+00 -5.5478635795975628e-01 +7.2669253974869106e+00 +5.7141262124897514e+00 +1.3531005884634572e+01 -1.8286479258813371e+04 -5.0451956971878506e+05 +1.0114078151959571e+08 
+3.8999999999999941e+00 -5.5481130747251139e-01 +7.2682630885093866e+00 +5.6854526401276821e+00 +1.3782819777954078e+01 -1.8296596711729944e+04 -5.0509398442701163e+05 +1.0125127904582235e+08 
+3.9499999999999940e+00 -5.5483655926621311e-01 +7.2696163101678053e+00 +5.6564898602968139e+00 +1.3999116932616319e+01 -1.8303766675067938e+04 -5.0540898024894181e+05 +1.0133679194411631e+08 
+3.9999999999999938e+00 -5.5486211138372843e-01 +7.2709849347496673e+00 +5.6272438488145413e+00 +1.4178924790320414e+01 -1.8307897204263732e+04 -5.0545721208120586e+05 +1.0139638610702178e+08 
+4.0499999999999936e+00 -5.5488796171767030e-01 +7.2723688207535089e+00 +5.5977200430772562e+00 +1.4321547651514869e+01 -1.8308920928217769e+04 -5.0523346469601226e+05 +1.0142939858665922e+08 
+4.0999999999999934e+00 -5.5491410755927106e-01 +7.2737677622030654e+00 +5.5679224519836144e+00 +1.4427540018842292e+01 -1.8306882465999726e+04 -5.0474217849195824e+05 +1.0143635804879653e+08 
+4.1499999999999932e+00 -5.5494054604938192e-01 +7.2751815346264799e+00 +5.5378549478904899e+00 +1.4497805530190009e+01 -1.8301858563567625e+04 -5.0399051079820434e+05 +1.0141812319566649e+08 
+4.1999999999999931e+00 -5.5496727432882786e-01 +7.2766099135533766e+00 +5.5075213978903141e+00 +1.4533247749566748e+01 -1.8293925822425346e+04 -5.0298561839797330e+05 +1.0137555175638901e+08 
+4.2499999999999929e+00 -5.5499428953845720e-01 +7.2780526745149006e+00 +5.4769256729993092e+00 +1.4534770202275416e+01 -1.8283160952222392e+04 -5.0173465789280256e+05 +1.0130950220021364e+08 
+4.2999999999999927e+00 -5.5502158881911312e-01 +7.2795095930390108e+00 +5.4460716423416695e+00 +1.4503276532818719e+01 -1.8269640608732065e+04 -5.0024478685720940e+05 +1.0122083262518245e+08 
+4.3499999999999925e+00 -5.5504916931163994e-01 +7.2809804446568487e+00 +5.4149631759227814e+00 +1.4439670282351804e+01 -1.8253441477855966e+04 -4.9852316215247480e+05 +1.0111040135459940e+08 
+4.3999999999999924e+00 -5.5507702815688964e-01 +7.2824650048990094e+00 +5.3836041434608051e+00 +1.4344854996116254e+01 -1.8234640229746718e+04 -4.9657694065390504e+05 +1.0097906658275737e+08 
+4.4499999999999922e+00 -5.5510516249569775e-01 +7.2839630492976797e+00 +5.3519984126112252e+00 +1.4219734188642214e+01 -1.8213313487676798e+04 -4.9441327915684739e+05 +1.0082768621986090e+08 
+4.4999999999999920e+00 -5.5513356946891890e-01 +7.2854743533815922e+00 +5.3201498536036818e+00 +1.4065211489730055e+01 -1.8189537939986269e+04 -4.9203933535103762e+05 +1.0065711860061850e+08 
+4.5499999999999918e+00 -5.5516224621740473e-01 +7.2869986926836052e+00 +5.2880623362039438e+00 +1.3882190388388237e+01 -1.8163390265451842e+04 -4.8946226593566185e+05 +1.0046822201070432e+08 
+4.5999999999999917e+00 -5.5519118988199656e-01 +7.2885358427352065e+00 +5.2557397280613616e+00 +1.3671574431060648e+01 -1.8134947083814968e+04 -4.8668922813946736e+05 +1.0026185433029614e+08 
+4.6499999999999915e+00 -5.5522039760355313e-01 +7.2900855790671608e+00 +5.2231859001787786e+00 +1.3434267195368903e+01 -1.8104285108634551e+04 -4.8372737950334063e+05 +1.0003887408895011e+08 
+4.6999999999999913e+00 -5.5524986652291697e-01 +7.2916476772133176e+00 +5.1904047203870620e+00 +1.3171172138510634e+01 -1.8071480967991869e+04 -4.8058387667507963e+05 +9.9800139243055388e+07 
+4.7499999999999911e+00 -5.5527959378093650e-01 +7.2932219127043165e+00 +5.1574000575440451e+00 +1.2883192859882016e+01 -1.8036611315632046e+04 -4.7726587756203383e+05 +9.9546507915881455e+07 
+4.7999999999999909e+00 -5.5530957651844826e-01 +7.2948080610739048e+00 +5.1241757790089588e+00 +1.2571232835439325e+01 -1.7999752771958061e+04 -4.7378053914745030e+05 +9.9278838035997853e+07 
+4.8499999999999908e+00 -5.5533981187630910e-01 +7.2964058978537114e+00 +5.0907357551438421e+00 +1.2236195621842091e+01 -1.7960982030397718e+04 -4.7013501911978394e+05 +9.8997987997462392e+07 
+4.8999999999999906e+00 -5.5537029699535412e-01 +7.2980151985751176e+00 +5.0570838534690772e+00 +1.1878984802694070e+01 -1.7920375717171130e+04 -4.6633647552602825e+05 +9.8704815777364239e+07 
+4.9499999999999904e+00 -5.5540102901642996e-01 +7.2996357387751178e+00 +5.0232239428786603e+00 +1.1500503740139440e+01 -1.7878010490506353e+04 -4.6239206470335939e+05 +9.8400179559186056e+07 
+4.9999999999999902e+00 -5.5543200508036972e-01 +7.3012672939842824e+00 +4.9891598910543209e+00 +1.1101656052757079e+01 -1.7833962979702123e+04 -4.5830894514413923e+05 +9.8084937339885920e+07 
+5.0499999999999901e+00 -5.5546322232800394e-01 +7.3029096397382673e+00 +4.9548955653300304e+00 +1.0683345164873769e+01 -1.7788309807608384e+04 -4.5409427388101141e+05 +9.7759947094130129e+07 
