# multipoles
# s[mm] polynom_b[n=0][T/m^n] polynom_b[n=1][T/m^n] polynom_b[n=2][T/m^n] polynom_b[n=3][T/m^n] polynom_b[n=4][T/m^n] polynom_b[n=5][T/m^n] polynom_b[n=6][T/m^n] 
+0.0000000000000000e+00 -5.2428175158880497e-01 +6.8828707759590797e+00 +4.5827940738138357e+00 -9.7157604312791477e+01 +6.8546315000121494e+03 +2.2841481824974340e+05 -5.0722147855168402e+07 
+5.0000000000000003e-02 -5.2428196154750417e-01 +6.8828625468493732e+00 +4.5801403913095990e+00 -9.7434047731702847e+01 +6.9088937173454133e+03 +2.3014251751619694e+05 -5.0984654206615463e+07 
+1.0000000000000001e-01 -5.2428253997226448e-01 +6.8828736321067767e+00 +4.5769825026970690e+00 -9.7681746888217319e+01 +6.9622043811107824e+03 +2.3171266482495866e+05 -5.1235954240933642e+07 
+1.4999999999999999e-01 -5.2428348630491450e-01 +6.8829040217179900e+00 +4.5733273163188048e+00 -9.7901978572238306e+01 +7.0145524637770986e+03 +2.3313333383480462e+05 -5.1476211934785992e+07 
+2.0000000000000001e-01 -5.2428479998723876e-01 +6.8829537056690597e+00 +4.5691817444994562e+00 -9.8096019489048800e+01 +7.0659268336956666e+03 +2.3441259741574872e+05 -5.1705590574514315e+07 
+2.5000000000000000e-01 -5.2428648046112891e-01 +6.8830226739483891e+00 +4.5645526983601030e+00 -9.8265146420603344e+01 +7.1163163870811486e+03 +2.3555852910579578e+05 -5.1924253619462803e+07 
+2.9999999999999999e-01 -5.2428852716841523e-01 +6.8831109165443545e+00 +4.5594470875951005e+00 -9.8410636103517973e+01 +7.1657100614962010e+03 +2.3657920202336417e+05 -5.2132364816319644e+07 
+3.4999999999999998e-01 -5.2429093955097883e-01 +6.8832184234480369e+00 +4.5538718246068184e+00 -9.8533765354210189e+01 +7.2140967157199620e+03 +2.3748268993868883e+05 -5.2330087364747740e+07 
+4.0000000000000002e-01 -5.2429371705070982e-01 +6.8833451846491034e+00 +4.5478338192761525e+00 -9.8635810895201871e+01 +7.2614652811438436e+03 +2.3827706583458197e+05 -5.2517584968649827e+07 
+4.5000000000000001e-01 -5.2429685910953827e-01 +6.8834911901372200e+00 +4.5413399815329720e+00 -9.8718049412711451e+01 +7.3078046844856226e+03 +2.3897040237142751e+05 -5.2695021289099284e+07 
+5.0000000000000000e-01 -5.2430036516936951e-01 +6.8836564299087390e+00 +4.5343972230099450e+00 -9.8781757838378368e+01 +7.3531038051681753e+03 +2.3957077423371520e+05 -5.2862559665172450e+07 
+5.5000000000000004e-01 -5.2430423467211440e-01 +6.8838408939518505e+00 +4.5270124530808546e+00 -9.8828212728202587e+01 +7.3973515824012247e+03 +2.4008625297941634e+05 -5.3020363833947279e+07 
+5.9999999999999998e-01 -5.2430846705979617e-01 +6.8840445722617227e+00 +4.5191925848925383e+00 -9.8858690909789203e+01 +7.4405368560951338e+03 +2.4052491243866520e+05 -5.3168596875900462e+07 
+6.5000000000000002e-01 -5.2431306177435688e-01 +6.8842674548345162e+00 +4.5109445270974939e+00 -9.8874469199774765e+01 +7.4826485857155458e+03 +2.4089482629146843e+05 -5.3307422667876542e+07 
+6.9999999999999996e-01 -5.2431801825781044e-01 +6.8845095316620508e+00 +4.5022751899204785e+00 -9.8876824219816243e+01 +7.5236756868632401e+03 +2.4120406663354635e+05 -5.3437004791860811e+07 
+7.5000000000000000e-01 -5.2432333595211755e-01 +6.8847707927414943e+00 +4.4931914839816027e+00 -9.8867032782385323e+01 +7.5636070656817765e+03 +2.4146070716316337e+05 -5.3557506767759554e+07 
+8.0000000000000004e-01 -5.2432901429936762e-01 +6.8850512280688534e+00 +4.4837003221152738e+00 -9.8846371612267774e+01 +7.6024315683201639e+03 +2.4167282077950734e+05 -5.3669091710442662e+07 
+8.4999999999999998e-01 -5.2433505274156766e-01 +6.8853508276421200e+00 +4.4738086131516575e+00 -9.8816117502733903e+01 +7.6401381463995667e+03 +2.4184848102750038e+05 -5.3771923438835047e+07 
+9.0000000000000002e-01 -5.2434145072076854e-01 +6.8856695814572566e+00 +4.4635232661629560e+00 -9.8777547120961273e+01 +7.6767157482577204e+03 +2.4199576034795909e+05 -5.3866165765114039e+07 
+9.4999999999999996e-01 -5.2434820767908463e-01 +6.8860074795124877e+00 +4.4528511940703455e+00 -9.8731937221795903e+01 +7.7121532164100536e+03 +2.4212273198823191e+05 -5.3951981775647521e+07 
+1.0000000000000000e+00 -5.2435532305856014e-01 +6.8863645118077361e+00 +4.4417993079722287e+00 -9.8680564577449516e+01 +7.7464394428513306e+03 +2.4223746925631686e+05 -5.4029534897839494e+07 
+1.0500000000000000e+00 -5.2436279630131788e-01 +6.8867406683408818e+00 +4.4303745160087553e+00 -9.8624705866095596e+01 +7.7795634025412101e+03 +2.4234804473156313e+05 -5.4098989126249515e+07 
+1.1000000000000001e+00 -5.2437062684951929e-01 +6.8871359391109550e+00 +4.4185837313960397e+00 -9.8565637793094638e+01 +7.8115139268766816e+03 +2.4246253125169323e+05 -5.4160507468147233e+07 
+1.1499999999999999e+00 -5.2437881414527732e-01 +6.8875503141184424e+00 +4.4064338638209977e+00 -9.8504637092125705e+01 +7.8422799500803021e+03 +2.4258900187183337e+05 -5.4214253652031414e+07 
+1.2000000000000000e+00 -5.2438735763075650e-01 +6.8879837833659154e+00 +4.3939318249831123e+00 -9.8442980560465443e+01 +7.8718503503251568e+03 +2.4273553018404474e+05 -5.4260391021872267e+07 
+1.2500000000000000e+00 -5.2439625674812718e-01 +6.8884363368522550e+00 +4.3810845251327484e+00 -9.8381944825634392e+01 +7.9002140414796113e+03 +2.4291018841476864e+05 -5.4299083151000746e+07 
+1.3000000000000000e+00 -5.2440551093961330e-01 +6.8889079645803619e+00 +4.3678988761117603e+00 -9.8322806653542457e+01 +7.9273599009683212e+03 +2.4312104992173819e+05 -5.4330493390905805e+07 
+1.3500000000000001e+00 -5.2441511964736565e-01 +6.8893986565518786e+00 +4.3543817876674451e+00 -9.8266842742322055e+01 +7.9532768598155226e+03 +2.4337618754979456e+05 -5.4354785447689235e+07 
+1.3999999999999999e+00 -5.2442508231366236e-01 +6.8899084027673281e+00 +4.3405401718566790e+00 -9.8215329724428742e+01 +7.9779537843564567e+03 +2.4368367361431013e+05 -5.4372122580428861e+07 
+1.4500000000000000e+00 -5.2443539838072484e-01 +6.8904371932317794e+00 +4.3263809400621023e+00 -9.8169544394904023e+01 +8.0013795694000810e+03 +2.4405158177938664e+05 -5.4382668280562468e+07 
+1.5000000000000000e+00 -5.2444606729081678e-01 +6.8909850179460541e+00 +4.3119110049932159e+00 -9.8130763361842213e+01 +8.0235430666767506e+03 +2.4448798421083717e+05 -5.4386585723404102e+07 
+1.5500000000000000e+00 -5.2445708848620398e-01 +6.8915518669147326e+00 +4.2971372763685656e+00 -9.8100263366610704e+01 +8.0444332107642949e+03 +2.4500095419133222e+05 -5.4384038650388367e+07 
+1.6000000000000001e+00 -5.2446846140920456e-01 +6.8921377301427516e+00 +4.2820666661739448e+00 -9.8079321149519160e+01 +8.0640388781679248e+03 +2.4559856501472573e+05 -5.4375190426005386e+07 
+1.6499999999999999e+00 -5.2448018550209075e-01 +6.8927425976314147e+00 +4.2667060884111940e+00 -9.8069213285124363e+01 +8.0823488916554170e+03 +2.4628888865805435e+05 -5.4360204052329361e+07 
+1.7000000000000000e+00 -5.2449226020722051e-01 +6.8933664593867761e+00 +4.2510624519965505e+00 -9.8071216527738798e+01 +8.0993522118163482e+03 +2.4707999858801995e+05 -5.4339243466532268e+07 
+1.7500000000000000e+00 -5.2450468496695146e-01 +6.8940093054116698e+00 +4.2351426720136427e+00 -9.8086607488122709e+01 +8.1150376332002461e+03 +2.4797996714548141e+05 -5.4312471488426328e+07 
+1.8000000000000000e+00 -5.2451745922358173e-01 +6.8946711257110858e+00 +4.2189536589776928e+00 -9.8116662843656727e+01 +8.1293940762028697e+03 +2.4899686723592502e+05 -5.4280051797183067e+07 
+1.8500000000000001e+00 -5.2453058241951389e-01 +6.8953519102914305e+00 +4.2025023256371652e+00 -9.8162659317140466e+01 +8.1424104018212192e+03 +2.5013877215215773e+05 -5.4242147674113512e+07 
+1.8999999999999999e+00 -5.2454405399716286e-01 +6.8960516491561128e+00 +4.1857955843942998e+00 -9.8225873510906823e+01 +8.1540754828458585e+03 +2.5141375431127727e+05 -5.4198922491512418e+07 
+1.9500000000000000e+00 -5.2455787339889270e-01 +6.8967703323096741e+00 +4.1688403492397414e+00 -9.8307582040511434e+01 +8.1643781476313725e+03 +2.5282988620018141e+05 -5.4150539314396746e+07 
+2.0000000000000000e+00 -5.2457191829185001e-01 +6.8975015896663674e+00 +4.1517889420314704e+00 -9.8407747988949026e+01 +8.1732569079274381e+03 +2.5437897293717694e+05 -5.4097724526628107e+07 
+2.0499999999999998e+00 -5.2458630247550908e-01 +6.8982512748765386e+00 +4.1344991702214280e+00 -9.8526368805194465e+01 +8.1808838161871090e+03 +2.5606839250868312e+05 -5.4040651854985364e+07 
+2.1000000000000001e+00 -5.2460102383331886e-01 +6.8990191977884461e+00 +4.1169705240662520e+00 -9.8662454168626326e+01 +8.1873536328725695e+03 +2.5789171423122115e+05 -5.3979950436947808e+07 
+2.1499999999999999e+00 -5.2461608024870487e-01 +6.8998051682548303e+00 +4.0992024924161905e+00 -9.8815013927286429e+01 +8.1927611516300258e+03 +2.5984250881217915e+05 -5.3916249612232976e+07 
+2.2000000000000002e+00 -5.2463146960514329e-01 +6.9006089961283337e+00 +4.0811945666570661e+00 -9.8983057921024184e+01 +8.1972010988289476e+03 +2.6191434693917658e+05 -5.3850178273402430e+07 
+2.2500000000000000e+00 -5.2464718978614122e-01 +6.9014304912623068e+00 +4.0629462370863338e+00 -9.9165595998810858e+01 +8.2007682312821271e+03 +2.6410079936139984e+05 -5.3782365522699408e+07 
+2.2999999999999998e+00 -5.2466323867516873e-01 +6.9022694635065376e+00 +4.0444569944666018e+00 -9.9361637842943082e+01 +8.2035572919069091e+03 +2.6639543546610529e+05 -5.3713440364193521e+07 
+2.3500000000000001e+00 -5.2467961415577846e-01 +6.9031257227149609e+00 +4.0257263293519543e+00 -9.9570193318300497e+01 +8.2056630254993706e+03 +2.6879182623904344e+05 -5.3644031801018678e+07 
+2.3999999999999999e+00 -5.2469631411139928e-01 +6.9039990787432703e+00 +4.0067537302781941e+00 -9.9790272317228357e+01 +8.2071802378501798e+03 +2.7128354281011556e+05 -5.3574769276781283e+07 
+2.4500000000000002e+00 -5.2471333642561147e-01 +6.9048893414422432e+00 +3.9875386889744266e+00 -1.0002088454497169e+02 +8.2082036410538785e+03 +2.7386415487384296e+05 -5.3506281570799425e+07 
+2.5000000000000000e+00 -5.2473067898191550e-01 +6.9057963206671475e+00 +3.9680806947157192e+00 -1.0026103986240570e+02 +8.2088280156251440e+03 +2.7652723336800846e+05 -5.3439197936848804e+07 
+2.5499999999999998e+00 -5.2474833966384882e-01 +6.9067198262724725e+00 +3.9483792370454975e+00 -1.0050974810193593e+02 +8.2091481328739483e+03 +2.7926634907591675e+05 -5.3374147558490269e+07 
+2.6000000000000001e+00 -5.2476631635501869e-01 +6.9076596681127933e+00 +3.9284338072944536e+00 -1.0076601908288721e+02 +8.2092587175158533e+03 +2.8207507265229413e+05 -5.3311759312298998e+07 
+2.6499999999999999e+00 -5.2478460693892270e-01 +6.9086156560424232e+00 +3.9082438938579664e+00 -1.0102886259924607e+02 +8.2092545688673581e+03 +2.8494697458038153e+05 -5.3252662562184647e+07 
+2.7000000000000002e+00 -5.2480320929912705e-01 +6.9095875999178711e+00 +3.8878089865521490e+00 -1.0129728853179920e+02 +8.2092304511946222e+03 +2.8787562608332821e+05 -5.3197486449224554e+07 
+2.7500000000000000e+00 -5.2482212131922845e-01 +6.9105753095945035e+00 +3.8671285750471283e+00 -1.0157030670071771e+02 +8.2092811272036979e+03 +2.9085459789159067e+05 -5.3146860084888518e+07 
+2.7999999999999998e+00 -5.2484134088278622e-01 +6.9115785949273052e+00 +3.8462021493420036e+00 -1.0184692690585408e+02 +8.2095013540244472e+03 +2.9387746061830642e+05 -5.3101412553886145e+07 
+2.8500000000000001e+00 -5.2486086587340708e-01 +6.9125972657746244e+00 +3.8250291977067574e+00 -1.0212615907532003e+02 +8.2099859323989185e+03 +2.9693778593682015e+05 -5.3061773225983337e+07 
+2.8999999999999999e+00 -5.2488069417468042e-01 +6.9136311319909654e+00 +3.8036092087947684e+00 -1.0240701297551092e+02 +8.2108296508332951e+03 +3.0002914423838147e+05 -5.3028571385844283e+07 
+2.9500000000000002e+00 -5.2490082367017443e-01 +6.9146800034345368e+00 +3.7819416745702283e+00 -1.0268849850216242e+02 +8.2121272092434501e+03 +3.0314510695332428e+05 -5.3002435718730666e+07 
+3.0000000000000000e+00 -5.2492125224351682e-01 +6.9157436899627767e+00 +3.7600260789079747e+00 -1.0296962553263599e+02 +8.2139735213153654e+03 +3.0627924544265674e+05 -5.2983996339390628e+07 
+3.0499999999999998e+00 -5.2494197777835039e-01 +6.9168220014316217e+00 +3.7378619154349533e+00 -1.0324940385751265e+02 +8.2164632431439204e+03 +3.0942513031919854e+05 -5.2973881646136843e+07 
+3.1000000000000001e+00 -5.2496299815824532e-01 +6.9179147477004959e+00 +3.7154486690644881e+00 -1.0352684341967537e+02 +8.2196912529121801e+03 +3.1257633353716170e+05 -5.2972721486584708e+07 
+3.1499999999999999e+00 -5.2498431126688616e-01 +6.9190217386261272e+00 +3.6927858293898383e+00 -1.0380095403981649e+02 +8.2237523157595588e+03 +3.1572642603683833e+05 -5.2981144998561017e+07 
+3.2000000000000002e+00 -5.2500591498782878e-01 +6.9201427840687266e+00 +3.6698728853092346e+00 -1.0407074566686909e+02 +8.2287412026209186e+03 +3.1886897982617462e+05 -5.2999781310048401e+07 
+3.2500000000000000e+00 -5.2502780720472053e-01 +6.9212776938842220e+00 +3.6467093225600591e+00 -1.0433522807897195e+02 +8.2347527727641809e+03 +3.2199756555124169e+05 -5.3029260157029778e+07 
+3.2999999999999998e+00 -5.2504998580124762e-01 +6.9224262779348811e+00 +3.6232946329497819e+00 -1.0459341130671409e+02 +8.2418817202060218e+03 +3.2510575595705019e+05 -5.3070210157512456e+07 
+3.3500000000000001e+00 -5.2507244866101921e-01 +6.9235883460785121e+00 +3.5996282979856944e+00 -1.0484430519576810e+02 +8.2502230150405921e+03 +3.2818712230271997e+05 -5.3123261786147647e+07 
+3.3999999999999999e+00 -5.2509519366768820e-01 +6.9247637081752238e+00 +3.5757098104900780e+00 -1.0508691967862426e+02 +8.2598713200768434e+03 +3.3123523657982377e+05 -5.3189043436564699e+07 
+3.4500000000000002e+00 -5.2511821870491238e-01 +6.9259521740825516e+00 +3.5515386544110390e+00 -1.0532026458465070e+02 +8.2709215357709982e+03 +3.3424366997398925e+05 -5.3268185100557014e+07 
+3.5000000000000000e+00 -5.2514152165632644e-01 +6.9271535536628841e+00 +3.5271143175968183e+00 -1.0554334992306816e+02 +8.2834684573833947e+03 +3.3720599512077932e+05 -5.3361316064023249e+07 
+3.5499999999999998e+00 -5.2516510040559417e-01 +6.9283676567760537e+00 +3.5024362879398470e+00 -1.0575518561898383e+02 +8.2976068733518587e+03 +3.4011578408262244e+05 -5.3469065542381331e+07 
+3.6000000000000001e+00 -5.2518895283642186e-01 +6.9295942932817809e+00 +3.4775040507634167e+00 -1.0595478157138032e+02 +8.3134316463382529e+03 +3.4296660864989599e+05 -5.3592063274920993e+07 
+3.6499999999999999e+00 -5.2521307683239027e-01 +6.9308332730429392e+00 +3.4523170912782422e+00 -1.0614114781339570e+02 +8.3310376332721135e+03 +3.4575204179066425e+05 -5.3730938929151237e+07 
+3.6999999999999900e+00 -5.2523747027724810e-01 +6.9320844059180544e+00 +3.4268748969945864e+00 -1.0631329420236996e+02 +8.3505196276511178e+03 +3.4846565505032713e+05 -5.3886321739374258e+07 
+3.7499999999999898e+00 -5.2526213105458519e-01 +6.9333475017710704e+00 +3.4011769528226865e+00 -1.0647023080571432e+02 +8.3719724982197531e+03 +3.5110102170698368e+05 -5.4058841470854372e+07 
+3.7999999999999901e+00 -5.2528705704812151e-01 +6.9346223704614438e+00 +3.3752227445961385e+00 -1.0661096752099074e+02 +8.3954910769825310e+03 +3.5365171371202945e+05 -5.4249127593546942e+07 
+3.8499999999999899e+00 -5.2531224614152860e-01 +6.9359088218517932e+00 +3.3490117573124265e+00 -1.0673451436495640e+02 +8.4211702261387509e+03 +3.5611130399149086e+05 -5.4457809815391138e+07 
+3.8999999999999901e+00 -5.2533769621845716e-01 +6.9372066658039628e+00 +3.3225434765572723e+00 -1.0683988131895275e+02 +8.4491047830262505e+03 +3.5847336520730727e+05 -5.4685517640321523e+07 
+3.9499999999999900e+00 -5.2536340513316759e-01 +6.9385157134599655e+00 +3.2958177326149762e+00 -1.0692612945045718e+02 +8.4793798610219037e+03 +3.6073175643994147e+05 -5.4932806219814919e+07 
+3.9999999999999898e+00 -5.2538937039879707e-01 +6.9398357841925025e+00 +3.2688383559149123e+00 -1.0699286848673029e+02 +8.5119719290535650e+03 +3.6288312733777764e+05 -5.5199381814198591e+07 
+4.0499999999999901e+00 -5.2541558930857335e-01 +6.9411666995499486e+00 +3.2416117743534660e+00 -1.0704004193790323e+02 +8.5467895823340714e+03 +3.6492566710312734e+05 -5.5484409997337036e+07 
+4.0999999999999899e+00 -5.2544205915208542e-01 +6.9425082809785259e+00 +3.2141444586391876e+00 -1.0706759809689896e+02 +8.5837404669815023e+03 +3.6685757867918949e+05 -5.5787048135183394e+07 
+4.1499999999999897e+00 -5.2546877721904706e-01 +6.9438603499214908e+00 +3.1864428841517856e+00 -1.0707548513361182e+02 +8.6227320947973421e+03 +3.6867706391620444e+05 -5.6106452650368355e+07 
+4.1999999999999904e+00 -5.2549574079903161e-01 +6.9452227278243326e+00 +3.1585135228340517e+00 -1.0706365131487033e+02 +8.6636720775046742e+03 +3.7038232547290315e+05 -5.6441780665589839e+07 
+4.2499999999999902e+00 -5.2552294718169834e-01 +6.9465952361302667e+00 +3.1303628491173483e+00 -1.0703204481076975e+02 +8.7064679513044812e+03 +3.7197156511674717e+05 -5.6792188757967263e+07 
+4.2999999999999901e+00 -5.2555039365665512e-01 +6.9479776962840942e+00 +3.1019973365519240e+00 -1.0698061385714738e+02 +8.7510272825237571e+03 +3.7344298511734110e+05 -5.7156833729865082e+07 
+4.3499999999999899e+00 -5.2557807751351049e-01 +6.9493699297305831e+00 +3.0734234548105883e+00 -1.0690930669499134e+02 +8.7972577356736092e+03 +3.7479478774465399e+05 -5.7534873018289059e+07 
+4.3999999999999897e+00 -5.2560599604194225e-01 +6.9507717579123778e+00 +3.0446476806596330e+00 -1.0681807146956709e+02 +8.8450667917722822e+03 +3.7602517438523343e+05 -5.7925462847923495e+07 
+4.4499999999999904e+00 -5.2563414653155394e-01 +6.9521830022730677e+00 +3.0156764830796434e+00 -1.0670685637669777e+02 +8.8943621319980575e+03 +3.7713234681743424e+05 -5.8327760754325941e+07 
+4.4999999999999902e+00 -5.2566252627194088e-01 +6.9536034842584762e+00 +2.9865163381475539e+00 -1.0657560970023216e+02 +8.9450512508778065e+03 +3.7811450747879210e+05 -5.8740923025590159e+07 
+4.5499999999999901e+00 -5.2569113255282285e-01 +6.9550330253116366e+00 +2.9571737175479957e+00 -1.0642427962015786e+02 +8.9970417597387677e+03 +3.7896985788130091e+05 -5.9164106731418118e+07 
+4.5999999999999899e+00 -5.2571996266369814e-01 +6.9564714468729019e+00 +2.9276550934548555e+00 -1.0625281419743033e+02 +9.0502412614372843e+03 +3.7969659849443060e+05 -5.9596468895130299e+07 
+4.6499999999999897e+00 -5.2574901389425566e-01 +6.9579185703890003e+00 +2.8979669374791386e+00 -1.0606116176488351e+02 +9.1045573623687014e+03 +3.8029293194723560e+05 -6.0037166517064430e+07 
+4.6999999999999904e+00 -5.2577828353411904e-01 +6.9593742173013169e+00 +2.8681157222901779e+00 -1.0584927044435524e+02 +9.1598976519868738e+03 +3.8075705909177841e+05 -6.0485356523949206e+07 
+4.7499999999999902e+00 -5.2580776887289082e-01 +6.9608382090538790e+00 +2.8381079221945194e+00 -1.0561708845793652e+02 +9.2161696678699882e+03 +3.8108718149547203e+05 -6.0940195457926586e+07 
+4.7999999999999901e+00 -5.2583746720019253e-01 +6.9623103670872970e+00 +2.8079500062765708e+00 -1.0536456390357598e+02 +9.2732810882319409e+03 +3.8128149966628914e+05 -6.1400840804511137e+07 
+4.8499999999999899e+00 -5.2586737580567278e-01 +6.9637905128448576e+00 +2.7776484485913042e+00 -1.0509164499153465e+02 +9.3311394606391041e+03 +3.8133821495241422e+05 -6.1866449177867532e+07 
+4.8999999999999897e+00 -5.2589749197883884e-01 +6.9652784677678792e+00 +2.7472097209236339e+00 -1.0479827984245271e+02 +9.3896523924889752e+03 +3.8125552785081911e+05 -6.2336177584070705e+07 
+4.9499999999999904e+00 -5.2592760815054751e-01 +6.9667639491466131e+00 +2.7168469548877816e+00 -1.0448660582262622e+02 +9.4483280653110742e+03 +3.8103361892878707e+05 -6.2805988630493745e+07 
+4.9999999999999902e+00 -5.2595792377841222e-01 +6.9682567836259182e+00 +2.6863615908918379e+00 -1.0415465800721697e+02 +9.5074678242971349e+03 +3.8067063965892140e+05 -6.3278206660518244e+07 
+5.0499999999999901e+00 -5.2598843620641800e-01 +6.9697567962388653e+00 +2.6557599703549073e+00 -1.0380238585359129e+02 +9.5669811381004401e+03 +3.8016482890761545e+05 -6.3752005625260718e+07 
