# multipoles
# s[mm] polynom_b[n=0][T/m^n] polynom_b[n=1][T/m^n] polynom_b[n=2][T/m^n] polynom_b[n=3][T/m^n] polynom_b[n=4][T/m^n] polynom_b[n=5][T/m^n] polynom_b[n=6][T/m^n] 
+0.0000000000000000e+00 -5.4968518367149632e-01 +7.1944747096207102e+00 +5.4368021941283962e+00 -6.3464879543457315e+01 -4.5631559402657695e+03 +9.1185405934487309e+04 +5.0285254204393283e+07 
+5.0000000000000003e-02 -5.4968199982873012e-01 +7.1943125869725497e+00 +5.4425321196442198e+00 -6.3135447488806200e+01 -4.6540929362670413e+03 +8.9928288253498380e+04 +5.0863278851850390e+07 
+1.0000000000000001e-01 -5.4967923059708690e-01 +7.1941720344701672e+00 +5.4478456563515758e+00 -6.2773399777032239e+01 -4.7462917649769197e+03 +8.8485977657772062e+04 +5.1445684279466666e+07 
+1.4999999999999999e-01 -5.4967687526265685e-01 +7.1940530558050186e+00 +5.4527324194132953e+00 -6.2379889863485666e+01 -4.8394911097756494e+03 +8.6864649389637401e+04 +5.2030992612284377e+07 
+2.0000000000000001e-01 -5.4967493311141791e-01 +7.1939556546672119e+00 +5.4571820165743175e+00 -6.1956071111546542e+01 -4.9334294487908892e+03 +8.5070477959436917e+04 +5.2617724565043442e+07 
+2.5000000000000000e-01 -5.4967340342949123e-01 +7.1938798347542097e+00 +5.4611840591953156e+00 -6.1503097169263221e+01 -5.0278453638857054e+03 +8.3109640284864217e+04 +5.3204401579306893e+07 
+2.9999999999999999e-01 -5.4967228550293945e-01 +7.1938255997563409e+00 +5.4647281586772243e+00 -6.1022121344412156e+01 -5.1224774362600810e+03 +8.0988310441049791e+04 +5.3789545082867399e+07 
+3.4999999999999998e-01 -5.4967157861786253e-01 +7.1937929533690053e+00 +5.4678039250082122e+00 -6.0514297126464264e+01 -5.2170642103388454e+03 +7.8712664043270473e+04 +5.4371676259556293e+07 
+4.0000000000000002e-01 -5.4967128206038929e-01 +7.1937818992869094e+00 +5.4704009699186207e+00 -5.9980777930254227e+01 -5.3113442799245322e+03 +7.6288876048714475e+04 +5.4949316635773122e+07 
+4.5000000000000001e-01 -5.4967139511667040e-01 +7.1937924412069121e+00 +5.4725089009945078e+00 -5.9422717251179066e+01 -5.4050561259581982e+03 +7.3723122177720565e+04 +5.5520986970149502e+07 
+5.0000000000000000e-01 -5.4967191707286212e-01 +7.1938245828299534e+00 +5.4741173324879542e+00 -5.8841268690900364e+01 -5.4979384092197652e+03 +7.1021578935434969e+04 +5.6085209235955149e+07 
+5.5000000000000004e-01 -5.4967284721510012e-01 +7.1938783278493199e+00 +5.4752158718127211e+00 -5.8237585515625724e+01 -5.5897296090597965e+03 +6.8190420121378702e+04 +5.6640504192473605e+07 
+5.9999999999999998e-01 -5.4967418482963071e-01 +7.1939536799650812e+00 +5.4757941285017226e+00 -5.7612821249031285e+01 -5.6801682586062589e+03 +6.5235821689010692e+04 +5.7185392947672702e+07 
+6.5000000000000002e-01 -5.4967592920265163e-01 +7.1940506428789224e+00 +5.4758417143292561e+00 -5.6968129425051409e+01 -5.7689929570789100e+03 +6.2163959609891630e+04 +5.7718397078218490e+07 
+6.9999999999999996e-01 -5.4967807962041837e-01 +7.1941692202905179e+00 +5.4753482383452274e+00 -5.6304663479513259e+01 -5.8559422257083161e+03 +5.8981009105452475e+04 +5.8238037615632936e+07 
+7.5000000000000000e-01 -5.4968063536914358e-01 +7.1943094159022696e+00 +5.4743033123126468e+00 -5.5623576922972617e+01 -5.9407546595236172e+03 +5.5693146017133673e+04 +5.8742836093790203e+07 
+8.0000000000000004e-01 -5.4968359573513859e-01 +7.1944712334177554e+00 +5.4726965445909883e+00 -5.4926023284191473e+01 -6.0231687675357534e+03 +5.2306546325242176e+04 +5.9231313483296022e+07 
+8.4999999999999998e-01 -5.4968696000467265e-01 +7.1946546765396198e+00 +5.4705175451582919e+00 -5.4213156017173141e+01 -6.1029230929095465e+03 +4.8827385402492255e+04 +5.9701990954144381e+07 
+9.0000000000000002e-01 -5.4969072746405756e-01 +7.1948597489759232e+00 +5.4677559247831189e+00 -5.3486128771827538e+01 -6.1797562089770763e+03 +4.5261840248506538e+04 +6.0153389909467742e+07 
+9.4999999999999996e-01 -5.4969489739964661e-01 +7.1950864544299948e+00 +5.4644012928580343e+00 -5.2746094967813924e+01 -6.2534066455840803e+03 +4.1616085954932685e+04 +6.0584031436491169e+07 
+1.0000000000000000e+00 -5.4969946909773193e-01 +7.1953347966102523e+00 +5.4604432587193417e+00 -5.1994208198535809e+01 -6.3236129340714879e+03 +3.7896299033626543e+04 +6.0992436643994100e+07 
+1.0500000000000000e+00 -5.4970444184470646e-01 +7.1956047792263700e+00 +5.4558714324512563e+00 -5.1231622086598932e+01 -6.3901136250792615e+03 +3.4108656273843117e+04 +6.1377126766503617e+07 
+1.1000000000000001e+00 -5.4970981492698567e-01 +7.1958964059868977e+00 +5.4506754242773656e+00 -5.0459490180871306e+01 -6.4526472696041756e+03 +3.0259333860956671e+04 +6.1736623030372240e+07 
+1.1499999999999999e+00 -5.4971558763094208e-01 +7.1962096806024167e+00 +5.4448448435786467e+00 -4.9678966068683430e+01 -6.5109524016799660e+03 +2.6354508262187934e+04 +6.2069446566090941e+07 
+1.2000000000000000e+00 -5.4972175924300370e-01 +7.1965446067860581e+00 +5.4383693006759017e+00 -4.8891203409136210e+01 -6.5647675730895844e+03 +2.2400356510587906e+04 +6.2374118599377580e+07 
+1.2500000000000000e+00 -5.4972832904961144e-01 +7.1969011882514184e+00 +5.4312384054337768e+00 -4.8097355868180635e+01 -6.6138313270385097e+03 +1.8403055787710415e+04 +6.2649160308606938e+07 
+1.3000000000000000e+00 -5.4973529633725005e-01 +7.1972794287103063e+00 +5.4234417675476703e+00 -4.7298576997804602e+01 -6.6578822026630523e+03 +1.4368782266894354e+04 +6.2893092850563258e+07 
+1.3500000000000001e+00 -5.4974266039234154e-01 +7.1976793318826076e+00 +5.4149689955445393e+00 -4.6496020644900248e+01 -6.6966586988110648e+03 +1.0303714556035942e+04 +6.3104437073530622e+07 
+1.3999999999999999e+00 -5.4975042050145018e-01 +7.1981009014838628e+00 +5.4058097020564473e+00 -4.5690840457373262e+01 -6.7298994335275447e+03 +6.2140296316015620e+03 +6.3281714664960273e+07 
+1.4500000000000000e+00 -5.4975857595105415e-01 +7.1985441412322597e+00 +5.3959534946150063e+00 -4.4884190160875576e+01 -6.7573428810663454e+03 +2.1059051202508595e+03 +6.3423446319311537e+07 
+1.5000000000000000e+00 -5.4976712602769195e-01 +7.1990090548468793e+00 +5.3853899836762853e+00 -4.4077223482142479e+01 -6.7787275958622877e+03 -2.0144813733047836e+03 +6.3528153276124232e+07 
+1.5500000000000000e+00 -5.4977607001792328e-01 +7.1994956460509760e+00 +5.3741087798236213e+00 -4.3271094285321510e+01 -6.7937921312378894e+03 -6.1409511349892855e+03 +6.3594356752506100e+07 
+1.6000000000000001e+00 -5.4978540720833458e-01 +7.2000039185661961e+00 +5.3620994909938799e+00 -4.2466956359644584e+01 -6.8022749721308628e+03 -1.0267325993753433e+04 +6.3620577512961045e+07 
+1.6499999999999999e+00 -5.4979513688549342e-01 +7.2005338761158768e+00 +5.3493517319463892e+00 -4.1665963508698447e+01 -6.8039147830273487e+03 -1.4387427750558769e+04 +6.3605337520929493e+07 
+1.7000000000000000e+00 -5.4980525833604599e-01 +7.2010855224274861e+00 +5.3358551093755224e+00 -4.0869269698547150e+01 -6.7984500078273622e+03 -1.8495076812937819e+04 +6.3547157238451123e+07 
+1.7500000000000000e+00 -5.4981577084661626e-01 +7.2016588612265826e+00 +5.3215992326084836e+00 -4.0078028767163822e+01 -6.7856191655365819e+03 -2.2584094718167820e+04 +6.3444557651689433e+07 
+1.8000000000000000e+00 -5.4982667370381988e-01 +7.2022538962412765e+00 +5.3065737152564845e+00 -3.9293394643271000e+01 -6.7651608856179155e+03 -2.6648302193308475e+04 +6.3296060471953958e+07 
+1.8500000000000001e+00 -5.4983796619434333e-01 +7.2028706312019182e+00 +5.2907681658994763e+00 -3.8516521314267038e+01 -6.7368136594093339e+03 -3.0681519522371495e+04 +6.3100186473670915e+07 
+1.8999999999999999e+00 -5.4984964760489086e-01 +7.2035090698398525e+00 +5.2741721933646453e+00 -3.7748562775707377e+01 -6.7003159835376346e+03 -3.4677566954693022e+04 +6.2855456459298842e+07 
+1.9500000000000000e+00 -5.4986171722213173e-01 +7.2041692158888724e+00 +5.2567754108733524e+00 -3.6990673100796926e+01 -6.6554064730352375e+03 -3.8630264049684854e+04 +6.2560392033477128e+07 
+2.0000000000000000e+00 -5.4987406694322960e-01 +7.2048451774777327e+00 +5.2387314938299188e+00 -3.6250172145538386e+01 -6.6024408696820155e+03 -4.2500899696188702e+04 +6.2217393156436183e+07 
+2.0499999999999998e+00 -5.4988679575101840e-01 +7.2055423311625013e+00 +5.2199183135034124e+00 -3.5521169171320338e+01 -6.5414552198899137e+03 -4.6318603241766730e+04 +6.1826347988511547e+07 
+2.1000000000000001e+00 -5.4989990177728210e-01 +7.2062605209660715e+00 +5.2003645012288109e+00 -3.4804137540511697e+01 -6.4729590268161937e+03 -5.0079066199958652e+04 +6.1390161390480198e+07 
+2.1499999999999999e+00 -5.4991338315380367e-01 +7.2069995909158093e+00 +5.1800986911269327e+00 -3.4099550772118626e+01 -6.3974618764147945e+03 -5.3777978831534558e+04 +6.0911738816897973e+07 
+2.2000000000000002e+00 -5.4992723801241439e-01 +7.2077593850350228e+00 +5.1591495182166707e+00 -3.3407882212308124e+01 -6.3154733728032825e+03 -5.7411032765743337e+04 +6.0393985819345877e+07 
+2.2500000000000000e+00 -5.4994146448496706e-01 +7.2085397473481452e+00 +5.1375456143101141e+00 -3.2729605236512789e+01 -6.2275030331541184e+03 -6.0973919380931933e+04 +5.9839807362484269e+07 
+2.2999999999999998e+00 -5.4995606070328906e-01 +7.2093405218796267e+00 +5.1153156141332001e+00 -3.2065193196935724e+01 -6.1340604562913231e+03 -6.4462330246819918e+04 +5.9252108970812552e+07 
+2.3500000000000001e+00 -5.4997102479931048e-01 +7.2101615526529406e+00 +5.0924881541249416e+00 -3.1415119404237952e+01 -6.0356552841098910e+03 -6.7871957219492630e+04 +5.8633796447316147e+07 
+2.3999999999999999e+00 -5.4998635490482151e-01 +7.2110026836923504e+00 +5.0690918666934213e+00 -3.0779857179130762e+01 -5.9327970483452527e+03 -7.1198492051679539e+04 +5.7987774847509354e+07 
+2.4500000000000002e+00 -5.5000204915177076e-01 +7.2118637590236094e+00 +5.0451553869046109e+00 -3.0159879888805367e+01 -5.8259953505405219e+03 -7.4437626121635403e+04 +5.7316949687807247e+07 
+2.5000000000000000e+00 -5.5001810567203191e-01 +7.2127446226653644e+00 +5.0207073489353267e+00 -2.9555660603343306e+01 -5.7157597751210842e+03 -7.7585053182551885e+04 +5.6624226395343572e+07 
+2.5499999999999998e+00 -5.5003452259752672e-01 +7.2136451186430293e+00 +4.9957763876932306e+00 -2.8967672651406613e+01 -5.6025999153286803e+03 -8.0636464867215953e+04 +5.5912510415733881e+07 
+2.6000000000000001e+00 -5.5005129806023700e-01 +7.2145650909781471e+00 +4.9703911381124053e+00 -2.8396389203937570e+01 -5.4870253704572542e+03 -8.3587554040073141e+04 +5.5184707252305754e+07 
+2.6499999999999999e+00 -5.5006843019204898e-01 +7.2155043836908854e+00 +4.9445802345749961e+00 -2.7842283353083690e+01 -5.3695457250149038e+03 -8.6434014207880551e+04 +5.4443722310392216e+07 
+2.7000000000000002e+00 -5.5008591712493426e-01 +7.2164628408034490e+00 +4.9183723149337402e+00 -2.7305828266689989e+01 -5.2506706521836095e+03 -8.9171538232149513e+04 +5.3692461573920451e+07 
+2.7500000000000000e+00 -5.5010375699087166e-01 +7.2174403063331463e+00 +4.8917960122369228e+00 -2.6787496904448428e+01 -5.1309096981710209e+03 -9.1795820649180561e+04 +5.2933830176369786e+07 
+2.7999999999999998e+00 -5.5012194792181657e-01 +7.2184366243011571e+00 +4.8648799624878851e+00 -2.6287762381450520e+01 -5.0107724904073521e+03 -9.4302554656813736e+04 +5.2170733809161916e+07 
+2.8500000000000001e+00 -5.5014048804978033e-01 +7.2194516387243963e+00 +4.8376528002936308e+00 -2.5807097628916392e+01 -4.8907686102877378e+03 -9.6687434945001136e+04 +5.1406077814298943e+07 
+2.8999999999999999e+00 -5.5015937550678251e-01 +7.2204851936209078e+00 +4.8101431647764645e+00 -2.5345975615360629e+01 -4.7714077669713579e+03 -9.8946155865135530e+04 +5.0642768421206854e+07 
+2.9500000000000002e+00 -5.5017860842476729e-01 +7.2215371330053166e+00 +4.7823796891441770e+00 -2.4904869154740975e+01 -4.6531995095122566e+03 -1.0107441302968042e+05 +4.9883710777013876e+07 
+3.0000000000000000e+00 -5.5019818493581762e-01 +7.2226073008921992e+00 +4.7543910108325020e+00 -2.4484251062890216e+01 -4.5366534961517200e+03 -1.0306790197496978e+05 +4.9131810741073966e+07 
+3.0499999999999998e+00 -5.5021810317196662e-01 +7.2236955412973396e+00 +4.7262057659533463e+00 -2.4084594208986086e+01 -4.4222793508586210e+03 -1.0492231772014670e+05 +4.8389973949219361e+07 
+3.1000000000000001e+00 -5.5023836126523262e-01 +7.2248016982321159e+00 +4.6978525912859084e+00 -2.3706371263255559e+01 -4.3105867181978065e+03 -1.0663335693068798e+05 +4.7661106184730396e+07 
+3.1499999999999999e+00 -5.5025895734773222e-01 +7.2259256157088076e+00 +4.6693601250365768e+00 -2.3350054929208810e+01 -4.2020852757090033e+03 -1.0819671597815779e+05 +4.6948113432214558e+07 
+3.2000000000000002e+00 -5.5027988955144069e-01 +7.2270671377324431e+00 +4.6407570021251878e+00 -2.3016117621210068e+01 -4.0972846125367441e+03 -1.0960809349491834e+05 +4.6253901076707102e+07 
+3.2500000000000000e+00 -5.5030115600847107e-01 +7.2282261083172186e+00 +4.6120718622899890e+00 -2.2705032121281363e+01 -3.9966944521170844e+03 -1.1086318509350104e+05 +4.5581375425765529e+07 
+3.2999999999999998e+00 -5.5032275485093352e-01 +7.2294023714678932e+00 +4.5833333422776974e+00 -2.2417270822495333e+01 -3.9008244266095903e+03 -1.1195768954716803e+05 +4.4933442128784679e+07 
+3.3500000000000001e+00 -5.5034468421090521e-01 +7.2305957711886908e+00 +4.5545700773321443e+00 -2.2153306094578330e+01 -3.8101841398659799e+03 -1.1288730577254506e+05 +4.4313006691112757e+07 
+3.3999999999999999e+00 -5.5036694222048965e-01 +7.2318061514842231e+00 +4.5258107096523243e+00 -2.1913610333298841e+01 -3.7252833720167137e+03 -1.1364773238026757e+05 +4.3722975761251830e+07 
+3.4500000000000002e+00 -5.5038952701181010e-01 +7.2330333563569855e+00 +4.4970838746964716e+00 -2.1698655837482058e+01 -3.6466317253021975e+03 -1.1423466878615950e+05 +4.3166254801832542e+07 
+3.5000000000000000e+00 -5.5041243671696582e-01 +7.2342772298045652e+00 +4.4684182117967506e+00 -2.1508914706817571e+01 -3.5747389067556787e+03 -1.1464381597622223e+05 +4.2645749981138468e+07 
+3.5499999999999998e+00 -5.5043566946809452e-01 +7.2355376158282123e+00 +4.4398423608120803e+00 -2.1344859201428850e+01 -3.5101146350767071e+03 -1.1487087354962026e+05 +4.2164367536703892e+07 
+3.6000000000000001e+00 -5.5045922339738151e-01 +7.2368143584237261e+00 +4.4113849596063366e+00 -2.1206961352142653e+01 -3.4532685736255467e+03 -1.1491154298246992e+05 +4.1725013322608918e+07 
+3.6499999999999999e+00 -5.5048309663688944e-01 +7.2381073015827706e+00 +4.3830746465116679e+00 -2.1095693030955140e+01 -3.4047104014515971e+03 -1.1476152694900334e+05 +4.1330593311955325e+07 
+3.6999999999999900e+00 -5.5050728731885867e-01 +7.2394162893008867e+00 +4.3549400623873158e+00 -2.1011526272418500e+01 -3.3649498624490980e+03 -1.1441652676230427e+05 +4.0984013897177882e+07 
+3.7499999999999898e+00 -5.5053179357538584e-01 +7.2407411655672433e+00 +4.3270098489887827e+00 -2.0954932842360396e+01 -3.3344967241406039e+03 -1.1387224592114968e+05 +4.0688181630595177e+07 
+3.7999999999999901e+00 -5.5055661353867225e-01 +7.2420817743688009e+00 +4.2993126426637644e+00 -2.0926384440707388e+01 -3.3138606087381499e+03 -1.1312438836106703e+05 +4.0446002081265710e+07 
+3.8499999999999899e+00 -5.5058174534090409e-01 +7.2434379596934386e+00 +4.2718770852112034e+00 -2.0926352806622205e+01 -3.3035512834977817e+03 -1.1216865763020919e+05 +4.0260381788427584e+07 
+3.8999999999999901e+00 -5.5060718711424972e-01 +7.2448095655239122e+00 +4.2447318191891155e+00 -2.0955309464153729e+01 -3.3040785391617301e+03 -1.1100075905449470e+05 +4.0134227459834971e+07 
+3.9499999999999900e+00 -5.5063293693072857e-01 +7.2461964331401791e+00 +4.2179032634506877e+00 -2.1013665252733389e+01 -3.3159080337693536e+03 -1.0961685780791812e+05 +4.0070207549777210e+07 
+3.9999999999999898e+00 -5.5065899216177627e-01 +7.2475983653537313e+00 +4.1913923508726363e+00 -2.1101066064471304e+01 -3.3389982788976740e+03 -1.0801922801481177e+05 +4.0068272103378341e+07 
+4.0499999999999901e+00 -5.5068534972601879e-01 +7.2490151367625639e+00 +4.1651837397236022e+00 -2.1216635287943724e+01 -3.3729824980350968e+03 -1.0621446678427346e+05 +4.0126637143026873e+07 
+4.0999999999999899e+00 -5.5071200653453545e-01 +7.2504465213461184e+00 +4.1392618268511248e+00 -2.1359486567893939e+01 -3.4174885978043308e+03 -1.0420925935571291e+05 +4.0243490935784347e+07 
+4.1499999999999897e+00 -5.5073895949849394e-01 +7.2518922930803216e+00 +4.1136110056918165e+00 -2.1528733386805708e+01 -3.4721443950892885e+03 -1.0201029245136307e+05 +4.0417021155129395e+07 
+4.1999999999999904e+00 -5.5076620552895372e-01 +7.2533522259465437e+00 +4.0882156734449540e+00 -2.1723489437397923e+01 -3.5365778062045006e+03 -9.9624251127799653e+04 +4.0645416137421533e+07 
+4.2499999999999902e+00 -5.5079374153704874e-01 +7.2548260939214906e+00 +4.0630602261325679e+00 -2.1942868219672416e+01 -3.6104167172908819e+03 -9.7057822109520013e+04 +4.0926864023424551e+07 
+4.2999999999999901e+00 -5.5082156443384656e-01 +7.2563136709883924e+00 +4.0381290575540909e+00 -2.2185983492372642e+01 -3.6932889591089524e+03 -9.4317690066836789e+04 +4.1259552598666050e+07 
+4.3499999999999899e+00 -5.5084967113046912e-01 +7.2578147311291579e+00 +4.0134065655146030e+00 -2.2451948965899316e+01 -3.7848224638141032e+03 -9.1410540125632324e+04 +4.1641670309961081e+07 
+4.3999999999999897e+00 -5.5087805853802851e-01 +7.2593290483269737e+00 +3.9888771419685569e+00 -2.2739878380286822e+01 -3.8846450141288201e+03 -8.8343057312368561e+04 +4.2071404628394932e+07 
+4.4499999999999904e+00 -5.5090672356765658e-01 +7.2608563965646447e+00 +3.9645251863300697e+00 -2.3048885460576020e+01 -3.9923845891747183e+03 -8.5121926842484114e+04 +4.2546944335804999e+07 
+4.4999999999999902e+00 -5.5093566313038500e-01 +7.2623965498293419e+00 +3.9403350899467218e+00 -2.3378084109734957e+01 -4.1076689529320965e+03 -8.1753832536917340e+04 +4.3066476769709103e+07 
+4.5499999999999901e+00 -5.5096487413743711e-01 +7.2639492821065961e+00 +3.9162912499215965e+00 -2.3726588155301958e+01 -4.2301260266801337e+03 -7.8245458971943372e+04 +4.3628190342190079e+07 
+4.5999999999999899e+00 -5.5099435349978043e-01 +7.2655143673847880e+00 +3.8923780604035456e+00 -2.4093511527049248e+01 -4.3593836534234351e+03 -7.4603489976236975e+04 +4.4230272942102447e+07 
+4.6499999999999897e+00 -5.5102409812859077e-01 +7.2670915796536413e+00 +3.8685799150381444e+00 -2.4477968220590395e+01 -4.4950696617753038e+03 -7.0834608916884419e+04 +4.4870912359999061e+07 
+4.6999999999999904e+00 -5.5105410493498430e-01 +7.2686806929010226e+00 +3.8448812105430901e+00 -2.4879072138944387e+01 -4.6368119619418121e+03 -6.6945500059738042e+04 +4.5548296936785005e+07 
+4.7499999999999902e+00 -5.5108437083002260e-01 +7.2702814811226135e+00 +3.8212663397755491e+00 -2.5295937504508132e+01 -4.7842383666375999e+03 -6.2942845132890638e+04 +4.6260614379677542e+07 
+4.7999999999999901e+00 -5.5111489272482495e-01 +7.2718937183103112e+00 +3.7977196961716864e+00 -2.5727678382377754e+01 -4.9369767010730693e+03 -5.8833327268264286e+04 +4.7006052471433319e+07 
+4.8499999999999899e+00 -5.5114566753052674e-01 +7.2735171784576451e+00 +3.7742256763203215e+00 -2.6173408901536966e+01 -5.0946548763941191e+03 -5.4623629180041462e+04 +4.7782799580861665e+07 
+4.8999999999999897e+00 -5.5117669215809728e-01 +7.2751516355608912e+00 +3.7507686717043067e+00 -2.6632243282286463e+01 -5.2569006732141625e+03 -5.0320433005614541e+04 +4.8589043226086408e+07 
+4.9499999999999904e+00 -5.5120775212124951e-01 +7.2767857411588457e+00 +3.7274912745983748e+00 -2.7100092663846002e+01 -5.4222080165273937e+03 -4.5960263848499839e+04 +4.9417268066836461e+07 
+4.9999999999999902e+00 -5.5123905248343086e-01 +7.2784302515421775e+00 +3.7042197120553868e+00 -2.7579128344951723e+01 -5.5912898347208147e+03 -4.1520991121216292e+04 +5.0271030157017887e+07 
+5.0499999999999901e+00 -5.5127059021769997e-01 +7.2800849452527698e+00 +3.6809386894098677e+00 -2.8068482658792046e+01 -5.7637813970181132e+03 -3.7009160369960155e+04 +5.1148553510853134e+07 
