# field on trajectory
# s[mm] rx[mm] ry[mm] rz[mm] bx[T] by[T] bz[T]
0.0000000000000000e+00 +8.5389999999999997e+00 +0.0000000000000000e+00 +0.0000000000000000e+00 -2.7323856777499142e-02 -5.2356895842620532e-01 +5.3859586552925743e-03
5.0000000000000003e-02 +8.5389999309785480e+00 +0.0000000000000000e+00 +4.9999999999936477e-02 -2.7323544942585699e-02 -5.2356918418567644e-01 +5.3855379460938284e-03
1.0000000000000001e-01 +8.5389997239141362e+00 +0.0000000000000000e+00 +9.9999999999491843e-02 -2.7323256257173432e-02 -5.2356978503933516e-01 +5.3851176896259362e-03
1.5000000000000002e-01 +8.5389993788066061e+00 +0.0000000000000000e+00 +1.4999999999828498e-01 -2.7322990604226792e-02 -5.2357076006618308e-01 +5.3846979066648039e-03
2.0000000000000001e-01 +8.5389988956557001e+00 +0.0000000000000000e+00 +1.9999999999593476e-01 -2.7322747866711617e-02 -5.2357210834523871e-01 +5.3842786179862327e-03
2.5000000000000000e-01 +8.5389982744610649e+00 +0.0000000000000000e+00 +2.4999999999206005e-01 -2.7322527927595184e-02 -5.2357382895553861e-01 +5.3838598443659508e-03
2.9999999999999999e-01 +8.5389975152222437e+00 +0.0000000000000000e+00 +2.9999999998627974e-01 -2.7322330669846077e-02 -5.2357592097613614e-01 +5.3834416065796026e-03
3.4999999999999998e-01 +8.5389966179386878e+00 +0.0000000000000000e+00 +3.4999999997821268e-01 -2.7322155976434153e-02 -5.2357838348610075e-01 +5.3830239254027698e-03
3.9999999999999997e-01 +8.5389955826097470e+00 +0.0000000000000000e+00 +3.9999999996747776e-01 -2.7322003730330502e-02 -5.2358121556452053e-01 +5.3826068216109744e-03
4.4999999999999996e-01 +8.5389944092346735e+00 +0.0000000000000000e+00 +4.4999999995369377e-01 -2.7321873814507364e-02 -5.2358441629049945e-01 +5.3821903159797010e-03
4.9999999999999994e-01 +8.5389930978126234e+00 +0.0000000000000000e+00 +4.9999999993647959e-01 -2.7321766111938109e-02 -5.2358798474315882e-01 +5.3817744292843856e-03
5.4999999999999993e-01 +8.5389916483426571e+00 +0.0000000000000000e+00 +5.4999999991545412e-01 -2.7321680505597173e-02 -5.2359192000163735e-01 +5.3813591823004539e-03
5.9999999999999998e-01 +8.5389900608237372e+00 +0.0000000000000000e+00 +5.9999999989023611e-01 -2.7321616878459958e-02 -5.2359622114508952e-01 +5.3809445958033029e-03
6.5000000000000002e-01 +8.5389883352547287e+00 +0.0000000000000000e+00 +6.4999999986044432e-01 -2.7321575113502840e-02 -5.2360088725268761e-01 +5.3805306905683340e-03
7.0000000000000007e-01 +8.5389864716344022e+00 +0.0000000000000000e+00 +6.9999999982569761e-01 -2.7321555093703060e-02 -5.2360591740362017e-01 +5.3801174873709468e-03
7.5000000000000011e-01 +8.5389844699614308e+00 +0.0000000000000000e+00 +7.4999999978561482e-01 -2.7321556702038716e-02 -5.2361131067709310e-01 +5.3797050069865557e-03
8.0000000000000016e-01 +8.5389823302343935e+00 +0.0000000000000000e+00 +7.9999999973981462e-01 -2.7321579821488660e-02 -5.2361706615232828e-01 +5.3792932701906063e-03
8.5000000000000020e-01 +8.5389800524517732e+00 +0.0000000000000000e+00 +8.4999999968791573e-01 -2.7321624335032508e-02 -5.2362318290856491e-01 +5.3788822977585693e-03
9.0000000000000024e-01 +8.5389776366119552e+00 +0.0000000000000000e+00 +8.9999999962953703e-01 -2.7321690125650496e-02 -5.2362966002505840e-01 +5.3784721104659684e-03
9.5000000000000029e-01 +8.5389750827132342e+00 +0.0000000000000000e+00 +9.4999999956429715e-01 -2.7321777076323498e-02 -5.2363649658108102e-01 +5.3780627290883733e-03
1.0000000000000002e+00 +8.5389723907538055e+00 +0.0000000000000000e+00 +9.9999999949181484e-01 -2.7321885070032945e-02 -5.2364369165592151e-01 +5.3776541744014281e-03
1.0500000000000003e+00 +8.5389695607317737e+00 +0.0000000000000000e+00 +1.0499999994117086e+00 -2.7322013989760752e-02 -5.2365124432888510e-01 +5.3772464671808439e-03
1.1000000000000003e+00 +8.5389665926451457e+00 +0.0000000000000000e+00 +1.0999999993235974e+00 -2.7322163718489299e-02 -5.2365915367929372e-01 +5.3768396282024185e-03
1.1500000000000004e+00 +8.5389634864918378e+00 +0.0000000000000000e+00 +1.1499999992270995e+00 -2.7322334139201352e-02 -5.2366741878648504e-01 +5.3764336782420484e-03
1.2000000000000004e+00 +8.5389602422696704e+00 +0.0000000000000000e+00 +1.1999999991218337e+00 -2.7322525134880003e-02 -5.2367603872981416e-01 +5.3760286380757274e-03
1.2500000000000004e+00 +8.5389568599763717e+00 +0.0000000000000000e+00 +1.2499999990074189e+00 -2.7322736588508645e-02 -5.2368501258865197e-01 +5.3756245284795742e-03
1.3000000000000005e+00 +8.5389533396095736e+00 +0.0000000000000000e+00 +1.2999999988834732e+00 -2.7322968383070856e-02 -5.2369433944238553e-01 +5.3752213702298194e-03
1.3500000000000005e+00 +8.5389496811668195e+00 +0.0000000000000000e+00 +1.3499999987496152e+00 -2.7323220401550424e-02 -5.2370401837041824e-01 +5.3748191841028409e-03
1.4000000000000006e+00 +8.5389458846455568e+00 +0.0000000000000000e+00 +1.3999999986054636e+00 -2.7323492526931229e-02 -5.2371404845217051e-01 +5.3744179908751548e-03
1.4500000000000006e+00 +8.5389419500431405e+00 +0.0000000000000000e+00 +1.4499999984506369e+00 -2.7323784642197212e-02 -5.2372442876707737e-01 +5.3740178113234329e-03
1.5000000000000007e+00 +8.5389378773568332e+00 +0.0000000000000000e+00 +1.4999999982847532e+00 -2.7324096630332310e-02 -5.2373515839459184e-01 +5.3736186662245115e-03
1.5500000000000007e+00 +8.5389336665838069e+00 +0.0000000000000000e+00 +1.5499999981074313e+00 -2.7324428374320430e-02 -5.2374623641418172e-01 +5.3732205763554015e-03
1.6000000000000008e+00 +8.5389293177211414e+00 +0.0000000000000000e+00 +1.5999999979182893e+00 -2.7324779757145340e-02 -5.2375766190533124e-01 +5.3728235624933051e-03
1.6500000000000008e+00 +8.5389248307658239e+00 +0.0000000000000000e+00 +1.6499999977169457e+00 -2.7325150661790656e-02 -5.2376943394754105e-01 +5.3724276454156089e-03
1.7000000000000008e+00 +8.5389202057147493e+00 +0.0000000000000000e+00 +1.6999999975030189e+00 -2.7325540971239789e-02 -5.2378155162032736e-01 +5.3720328458999158e-03
1.7500000000000009e+00 +8.5389154425647238e+00 +0.0000000000000000e+00 +1.7499999972761271e+00 -2.7325950568475855e-02 -5.2379401400322234e-01 +5.3716391847240330e-03
1.8000000000000009e+00 +8.5389105413124611e+00 +0.0000000000000000e+00 +1.7999999970358884e+00 -2.7326379336481656e-02 -5.2380682017577473e-01 +5.3712466826660006e-03
1.8500000000000010e+00 +8.5389055019545861e+00 +0.0000000000000000e+00 +1.8499999967819212e+00 -2.7326827158239600e-02 -5.2381996921754814e-01 +5.3708553605040892e-03
1.9000000000000010e+00 +8.5389003244876314e+00 +0.0000000000000000e+00 +1.8999999965138437e+00 -2.7327293916731634e-02 -5.2383346020812271e-01 +5.3704652390168172e-03
1.9500000000000011e+00 +8.5388950089080407e+00 +0.0000000000000000e+00 +1.9499999962312740e+00 -2.7327779494939242e-02 -5.2384729222709392e-01 +5.3700763389829603e-03
2.0000000000000009e+00 +8.5388895552121653e+00 +0.0000000000000000e+00 +1.9999999959338302e+00 -2.7328283775843353e-02 -5.2386146435407355e-01 +5.3696886811815531e-03
2.0500000000000007e+00 +8.5388839633962696e+00 +0.0000000000000000e+00 +2.0499999956211301e+00 -2.7328806652648474e-02 -5.2387597546320841e-01 +5.3693022866279682e-03
2.1000000000000005e+00 +8.5388782334565292e+00 +0.0000000000000000e+00 +2.0999999952927921e+00 -2.7329348059455819e-02 -5.2389082360673733e-01 +5.3689171772820111e-03
2.1500000000000004e+00 +8.5388723653890271e+00 +0.0000000000000000e+00 +2.1499999949484341e+00 -2.7329907940591504e-02 -5.2390600663142983e-01 +5.3685333753396083e-03
2.2000000000000002e+00 +8.5388663591897611e+00 +0.0000000000000000e+00 +2.1999999945876740e+00 -2.7330486240382514e-02 -5.2392152238406720e-01 +5.3681509029967264e-03
2.2500000000000000e+00 +8.5388602148546404e+00 +0.0000000000000000e+00 +2.2499999942101296e+00 -2.7331082903156740e-02 -5.2393736871144092e-01 +5.3677697824493680e-03
2.2999999999999998e+00 +8.5388539323794888e+00 +0.0000000000000000e+00 +2.2999999938154190e+00 -2.7331697873242931e-02 -5.2395354346035239e-01 +5.3673900358935630e-03
2.3499999999999996e+00 +8.5388475117600393e+00 +0.0000000000000000e+00 +2.3499999934031597e+00 -2.7332331094970890e-02 -5.2397004447761419e-01 +5.3670116855253644e-03
2.3999999999999995e+00 +8.5388409529919436e+00 +0.0000000000000000e+00 +2.3999999929729694e+00 -2.7332982512671342e-02 -5.2398686961004715e-01 +5.3666347535408481e-03
2.4499999999999993e+00 +8.5388342560707642e+00 +0.0000000000000000e+00 +2.4499999925244658e+00 -2.7333652070676059e-02 -5.2400401670448282e-01 +5.3662592621361079e-03
2.4999999999999991e+00 +8.5388274209919803e+00 +0.0000000000000000e+00 +2.4999999920572669e+00 -2.7334339713317914e-02 -5.2402148360776091e-01 +5.3658852335072412e-03
2.5499999999999989e+00 +8.5388204477509859e+00 +0.0000000000000000e+00 +2.5499999915709899e+00 -2.7335045384930822e-02 -5.2403926816673096e-01 +5.3655126898503559e-03
2.5999999999999988e+00 +8.5388133363430931e+00 +0.0000000000000000e+00 +2.5999999910652529e+00 -2.7335769029849896e-02 -5.2405736822825033e-01 +5.3651416533615597e-03
2.6499999999999986e+00 +8.5388060867635307e+00 +0.0000000000000000e+00 +2.6499999905396732e+00 -2.7336510592411354e-02 -5.2407578163918456e-01 +5.3647721462369586e-03
2.6999999999999984e+00 +8.5387986990074438e+00 +0.0000000000000000e+00 +2.6999999899938678e+00 -2.7337270016952686e-02 -5.2409450624640752e-01 +5.3644041906726423e-03
2.7499999999999982e+00 +8.5387911730698942e+00 +0.0000000000000000e+00 +2.7499999894274545e+00 -2.7338047247812559e-02 -5.2411353989680054e-01 +5.3640378088647012e-03
2.7999999999999980e+00 +8.5387835089458637e+00 +0.0000000000000000e+00 +2.7999999888400504e+00 -2.7338842229330956e-02 -5.2413288043725237e-01 +5.3636730230091911e-03
2.8499999999999979e+00 +8.5387757066302541e+00 +0.0000000000000000e+00 +2.8499999882312732e+00 -2.7339654905849158e-02 -5.2415252571465865e-01 +5.3633098553021582e-03
2.8999999999999977e+00 +8.5387677661178856e+00 +0.0000000000000000e+00 +2.8999999876007401e+00 -2.7340485221709777e-02 -5.2417247357592145e-01 +5.3629483279396097e-03
2.9499999999999975e+00 +8.5387596874034983e+00 +0.0000000000000000e+00 +2.9499999869480678e+00 -2.7341333121256837e-02 -5.2419272186795030e-01 +5.3625884631175328e-03
2.9999999999999973e+00 +8.5387514704817544e+00 +0.0000000000000000e+00 +2.9999999862728739e+00 -2.7342198548835756e-02 -5.2421326843765992e-01 +5.3622302830318653e-03
3.0499999999999972e+00 +8.5387431153472377e+00 +0.0000000000000000e+00 +3.0499999855747753e+00 -2.7343081448793397e-02 -5.2423411113197083e-01 +5.3618738098785102e-03
3.0999999999999970e+00 +8.5387346219944522e+00 +0.0000000000000000e+00 +3.0999999848533890e+00 -2.7343981765478125e-02 -5.2425524779780952e-01 +5.3615190658533205e-03
3.1499999999999968e+00 +8.5387259904178237e+00 +0.0000000000000000e+00 +3.1499999841083319e+00 -2.7344899443239808e-02 -5.2427667628210783e-01 +5.3611660731521038e-03
3.1999999999999966e+00 +8.5387172206117032e+00 +0.0000000000000000e+00 +3.1999999833392212e+00 -2.7345834426429877e-02 -5.2429839443180182e-01 +5.3608148539706002e-03
3.2499999999999964e+00 +8.5387083125703658e+00 +0.0000000000000000e+00 +3.2499999825456731e+00 -2.7346786659401375e-02 -5.2432040009383329e-01 +5.3604654305044975e-03
3.2999999999999963e+00 +8.5386992662880097e+00 +0.0000000000000000e+00 +3.2999999817273049e+00 -2.7347756086508919e-02 -5.2434269111514686e-01 +5.3601178249494154e-03
3.3499999999999961e+00 +8.5386900817587570e+00 +0.0000000000000000e+00 +3.3499999808837333e+00 -2.7348742652108838e-02 -5.2436526534269234e-01 +5.3597720595008995e-03
3.3999999999999959e+00 +8.5386807589766551e+00 +0.0000000000000000e+00 +3.3999999800145746e+00 -2.7349746300559124e-02 -5.2438812062342322e-01 +5.3594281563544253e-03
3.4499999999999957e+00 +8.5386712979356805e+00 +0.0000000000000000e+00 +3.4499999791194456e+00 -2.7350766976219507e-02 -5.2441125480429540e-01 +5.3590861377053817e-03
3.4999999999999956e+00 +8.5386616986297312e+00 +0.0000000000000000e+00 +3.4999999781979629e+00 -2.7351804623451478e-02 -5.2443466573226916e-01 +5.3587460257490767e-03
3.5499999999999954e+00 +8.5386519610526364e+00 +0.0000000000000000e+00 +3.5499999772497430e+00 -2.7352859186618367e-02 -5.2445835125430695e-01 +5.3584078426807307e-03
3.5999999999999952e+00 +8.5386420851981519e+00 +0.0000000000000000e+00 +3.5999999762744022e+00 -2.7353930610085279e-02 -5.2448230921737393e-01 +5.3580716106954645e-03
3.6499999999999950e+00 +8.5386320710599595e+00 +0.0000000000000000e+00 +3.6499999752715566e+00 -2.7355018838219222e-02 -5.2450653746843701e-01 +5.3577373519882975e-03
3.6999999999999948e+00 +8.5386219186316730e+00 +0.0000000000000000e+00 +3.6999999742408227e+00 -2.7356123815389110e-02 -5.2453103385446564e-01 +5.3574050887541542e-03
3.7499999999999947e+00 +8.5386116279068318e+00 +0.0000000000000000e+00 +3.7499999731818168e+00 -2.7357245485965791e-02 -5.2455579622243065e-01 +5.3570748431878389e-03
3.7999999999999945e+00 +8.5386011988789097e+00 +0.0000000000000000e+00 +3.7999999720941546e+00 -2.7358383794322087e-02 -5.2458082241930426e-01 +5.3567466374840533e-03
3.8499999999999943e+00 +8.5385906315413074e+00 +0.0000000000000000e+00 +3.8499999709774526e+00 -2.7359538684832846e-02 -5.2460611029205950e-01 +5.3564204938373718e-03
3.8999999999999941e+00 +8.5385799258873565e+00 +0.0000000000000000e+00 +3.8999999698313266e+00 -2.7360710101874935e-02 -5.2463165768766995e-01 +5.3560964344422490e-03
3.9499999999999940e+00 +8.5385690819103228e+00 +0.0000000000000000e+00 +3.9499999686553924e+00 -2.7361897989827338e-02 -5.2465746245311040e-01 +5.3557744814930084e-03
3.9999999999999938e+00 +8.5385580996034030e+00 +0.0000000000000000e+00 +3.9999999674492659e+00 -2.7363102293071106e-02 -5.2468352243535499e-01 +5.3554546571838455e-03
4.0499999999999936e+00 +8.5385469789597241e+00 +0.0000000000000000e+00 +4.0499999662125630e+00 -2.7364322932077675e-02 -5.2470983543683603e-01 +5.3551369831577262e-03
4.0999999999999934e+00 +8.5385357199723515e+00 +0.0000000000000000e+00 +4.0999999649448995e+00 -2.7365559731672522e-02 -5.2473639908181757e-01 +5.3548214788532644e-03
4.1499999999999932e+00 +8.5385243226342808e+00 +0.0000000000000000e+00 +4.1499999636458904e+00 -2.7366812492769590e-02 -5.2476321095002731e-01 +5.3545081631582317e-03
4.1999999999999931e+00 +8.5385127869384423e+00 +0.0000000000000000e+00 +4.1999999623151520e+00 -2.7368081016282981e-02 -5.2479026862119627e-01 +5.3541970549606929e-03
4.2499999999999929e+00 +8.5385011128777020e+00 +0.0000000000000000e+00 +4.2499999609522989e+00 -2.7369365103126951e-02 -5.2481756967506121e-01 +5.3538881731490188e-03
4.2999999999999927e+00 +8.5384893004448621e+00 +0.0000000000000000e+00 +4.2999999595569474e+00 -2.7370664554215846e-02 -5.2484511169136250e-01 +5.3535815366118839e-03
4.3499999999999925e+00 +8.5384773496326609e+00 +0.0000000000000000e+00 +4.3499999581287119e+00 -2.7371979170464144e-02 -5.2487289224984512e-01 +5.3532771642382871e-03
4.3999999999999924e+00 +8.5384652604337745e+00 +0.0000000000000000e+00 +4.3999999566672088e+00 -2.7373308752786357e-02 -5.2490090893025831e-01 +5.3529750749175507e-03
4.4499999999999922e+00 +8.5384530328408168e+00 +0.0000000000000000e+00 +4.4499999551720526e+00 -2.7374653102097048e-02 -5.2492915931235562e-01 +5.3526752875393269e-03
4.4999999999999920e+00 +8.5384406668463395e+00 +0.0000000000000000e+00 +4.4999999536428588e+00 -2.7376012019310760e-02 -5.2495764097589392e-01 +5.3523778209936188e-03
4.5499999999999918e+00 +8.5384281624428322e+00 +0.0000000000000000e+00 +4.5499999520792418e+00 -2.7377385305342058e-02 -5.2498635150063466e-01 +5.3520826941707827e-03
4.5999999999999917e+00 +8.5384155196227258e+00 +0.0000000000000000e+00 +4.5999999504808171e+00 -2.7378772761105452e-02 -5.2501528846634249e-01 +5.3517899259615210e-03
4.6499999999999915e+00 +8.5384027383783909e+00 +0.0000000000000000e+00 +4.6499999488471992e+00 -2.7380174187515385e-02 -5.2504444945278594e-01 +5.3514995352569256e-03
4.6999999999999913e+00 +8.5383898187021394e+00 +0.0000000000000000e+00 +4.6999999471780027e+00 -2.7381589385486186e-02 -5.2507383203973645e-01 +5.3512115409484386e-03
4.7499999999999911e+00 +8.5383767605862246e+00 +0.0000000000000000e+00 +4.7499999454728430e+00 -2.7383018155932092e-02 -5.2510343380696911e-01 +5.3509259619279144e-03
4.7999999999999909e+00 +8.5383635640228412e+00 +0.0000000000000000e+00 +4.7999999437313345e+00 -2.7384460299767169e-02 -5.2513325233426233e-01 +5.3506428170875791e-03
4.8499999999999908e+00 +8.5383502290041289e+00 +0.0000000000000000e+00 +4.8499999419530910e+00 -2.7385915617905331e-02 -5.2516328520139766e-01 +5.3503621253200738e-03
4.8999999999999906e+00 +8.5383367555221685e+00 +0.0000000000000000e+00 +4.8999999401377279e+00 -2.7387383911260263e-02 -5.2519352998815871e-01 +5.3500839055184444e-03
4.9499999999999904e+00 +8.5383231435689861e+00 +0.0000000000000000e+00 +4.9499999382848596e+00 -2.7388864980745449e-02 -5.2522398427433281e-01 +5.3498081765761506e-03
4.9999999999999902e+00 +8.5383093931365526e+00 +0.0000000000000000e+00 +4.9999999363940999e+00 -2.7390358627274101e-02 -5.2525464563970947e-01 +5.3495349573870849e-03
5.0499999999999901e+00 +8.5382955042167836e+00 +0.0000000000000000e+00 +5.0499999344650632e+00 -2.7391864651759173e-02 -5.2528551166408100e-01 +5.3492642668455763e-03
5.0999999999999899e+00 +8.5382814768015400e+00 +0.0000000000000000e+00 +5.0999999324973633e+00 -2.7393382855113276e-02 -5.2531657992724168e-01 +5.3489961238463888e-03
5.1499999999999897e+00 +8.5382673108826328e+00 +0.0000000000000000e+00 +5.1499999304906146e+00 -2.7394913038248720e-02 -5.2534784800898826e-01 +5.3487305472847465e-03
5.1999999999999895e+00 +8.5382530064518161e+00 +0.0000000000000000e+00 +5.1999999284444307e+00 -2.7396455002077463e-02 -5.2537931348911993e-01 +5.3484675560563294e-03
5.2499999999999893e+00 +8.5382385635007960e+00 +0.0000000000000000e+00 +5.2499999263584263e+00 -2.7398008547511045e-02 -5.2541097394743752e-01 +5.3482071690572836e-03
5.2999999999999892e+00 +8.5382239820212238e+00 +0.0000000000000000e+00 +5.2999999242322149e+00 -2.7399573475460605e-02 -5.2544282696374323e-01 +5.3479494051842380e-03
5.3499999999999890e+00 +8.5382092620047025e+00 +0.0000000000000000e+00 +5.3499999220654102e+00 -2.7401149586836874e-02 -5.2547487011784266e-01 +5.3476942833343014e-03
5.3999999999999888e+00 +8.5381944034427821e+00 +0.0000000000000000e+00 +5.3999999198576258e+00 -2.7402736682550059e-02 -5.2550710098954101e-01 +5.3474418224050795e-03
5.4499999999999886e+00 +8.5381794063269663e+00 +0.0000000000000000e+00 +5.4499999176084746e+00 -2.7404334563509936e-02 -5.2553951715864600e-01 +5.3471920412946714e-03
5.4999999999999885e+00 +8.5381642706487071e+00 +0.0000000000000000e+00 +5.4999999153175709e+00 -2.7405943030625726e-02 -5.2557211620496691e-01 +5.3469449589016978e-03
5.5499999999999883e+00 +8.5381489963994106e+00 +0.0000000000000000e+00 +5.5499999129845277e+00 -2.7407561884806118e-02 -5.2560489570831370e-01 +5.3467005941252952e-03
5.5999999999999881e+00 +8.5381335835704348e+00 +0.0000000000000000e+00 +5.5999999106089584e+00 -2.7409190926959225e-02 -5.2563785324849732e-01 +5.3464589658651172e-03
5.6499999999999879e+00 +8.5381180321530898e+00 +0.0000000000000000e+00 +5.6499999081904768e+00 -2.7410829957992572e-02 -5.2567098640533028e-01 +5.3462200930213645e-03
5.6999999999999877e+00 +8.5381023421386413e+00 +0.0000000000000000e+00 +5.6999999057286956e+00 -2.7412478778813056e-02 -5.2570429275862529e-01 +5.3459839944947725e-03
5.7499999999999876e+00 +8.5380865135183068e+00 +0.0000000000000000e+00 +5.7499999032232276e+00 -2.7414137190326926e-02 -5.2573776988819632e-01 +5.3457506891866364e-03
5.7999999999999874e+00 +8.5380705462832598e+00 +0.0000000000000000e+00 +5.7999999006736855e+00 -2.7415804993439753e-02 -5.2577141537385708e-01 +5.3455201959988043e-03
5.8499999999999872e+00 +8.5380544404246290e+00 +0.0000000000000000e+00 +5.8499998980796830e+00 -2.7417481989056393e-02 -5.2580522679542296e-01 +5.3452925338336958e-03
5.8999999999999870e+00 +8.5380381959335008e+00 +0.0000000000000000e+00 +5.8999998954408319e+00 -2.7419167978081013e-02 -5.2583920173270859e-01 +5.3450677215943123e-03
